Data from USB4F104151__228__11-06-15-925.txt Node

Date: Wed Feb 26 11:06:15 EST 2025
User: louis
Spectrometer: USB4F10415
Trigger mode: 4
Integration Time (sec): 1.000000E-1
Scans to average: 1
Electric dark correction enabled: true
Nonlinearity correction enabled: false
Boxcar width: 0
XAxis mode: Wavelengths
Number of Pixels in Spectrum: 3648
>>>>>Begin Spectral Data<<<<<
178.204	-446.46
178.424	-446.46
178.644	-446.46
178.864	-393.21
179.084	-454.65
179.304	28.67
179.524	-38.91
179.744	32.77
179.964	49.15
180.184	8.19
180.404	8.19
180.624	4.1
180.844	30.72
181.064	-126.97
181.283	-28.67
181.503	-55.3
181.723	88.06
181.943	0
182.163	122.88
182.383	-6.14
182.602	26.62
182.822	212.99
183.042	90.11
183.262	-53.25
183.482	126.97
183.701	-32.77
183.921	69.63
184.141	-10.24
184.361	73.73
184.58	34.82
184.8	18.43
185.02	36.86
185.239	83.97
185.459	22.53
185.679	94.21
185.898	-75.77
186.118	8.19
186.338	51.2
186.557	57.34
186.777	-2.05
186.997	-28.67
187.216	18.43
187.436	190.46
187.655	65.54
187.875	75.77
188.095	32.77
188.314	108.54
188.534	169.98
188.753	-53.25
188.973	63.49
189.192	239.61
189.412	34.82
189.631	12.29
189.851	28.67
190.07	79.87
190.29	-30.72
190.509	-16.38
190.729	88.06
190.948	149.5
191.168	202.75
191.387	120.83
191.607	-22.53
191.826	18.43
192.045	0
192.265	18.43
192.484	16.38
192.704	45.06
192.923	-126.97
193.142	135.17
193.362	100.35
193.581	38.91
193.8	28.67
194.02	100.35
194.239	118.78
194.458	47.1
194.678	-10.24
194.897	32.77
195.116	69.63
195.335	32.77
195.555	34.82
195.774	-16.38
195.993	172.03
196.212	10.24
196.432	28.67
196.651	28.67
196.87	24.58
197.089	245.76
197.308	-20.48
197.528	94.21
197.747	-71.68
197.966	51.2
198.185	153.6
198.404	18.43
198.623	81.92
198.842	124.93
199.062	135.17
199.281	63.49
199.5	-26.62
199.719	112.64
199.938	22.53
200.157	24.58
200.376	90.11
200.595	116.73
200.814	53.25
201.033	36.86
201.252	94.21
201.471	108.54
201.69	133.12
201.909	47.1
202.128	131.07
202.347	122.88
202.566	34.82
202.785	-73.73
203.004	-51.2
203.223	337.91
203.442	22.53
203.661	-32.77
203.879	108.54
204.098	137.21
204.317	-38.91
204.536	104.45
204.755	110.59
204.974	53.25
205.193	30.72
205.411	206.84
205.63	124.93
205.849	86.01
206.068	34.82
206.287	-36.86
206.505	172.03
206.724	71.68
206.943	47.1
207.162	-71.68
207.381	45.06
207.599	73.73
207.818	51.2
208.037	-122.88
208.255	22.53
208.474	61.44
208.693	-4.1
208.911	22.53
209.13	81.92
209.349	77.82
209.567	59.39
209.786	-8.19
210.005	55.3
210.223	61.44
210.442	-149.5
210.661	24.58
210.879	104.45
211.098	-6.14
211.316	69.63
211.535	102.4
211.753	38.91
211.972	0
212.191	2.05
212.409	51.2
212.628	110.59
212.846	-12.29
213.065	61.44
213.283	118.78
213.502	45.06
213.72	10.24
213.938	63.49
214.157	20.48
214.375	159.74
214.594	-26.62
214.812	-22.53
215.031	51.2
215.249	112.64
215.467	77.82
215.686	8.19
215.904	86.01
216.122	20.48
216.341	135.17
216.559	75.77
216.778	124.93
216.996	176.13
217.214	30.72
217.432	-32.77
217.651	-61.44
217.869	73.73
218.087	96.25
218.306	12.29
218.524	0
218.742	-4.1
218.96	36.86
219.179	2.05
219.397	-14.34
219.615	253.95
219.833	149.5
220.051	-73.73
220.27	57.34
220.488	141.31
220.706	45.06
220.924	55.3
221.142	0
221.36	61.44
221.578	116.73
221.796	73.73
222.015	6.14
222.233	-8.19
222.451	174.08
222.669	22.53
222.887	63.49
223.105	-32.77
223.323	8.19
223.541	20.48
223.759	77.82
223.977	6.14
224.195	145.41
224.413	100.35
224.631	-20.48
224.849	61.44
225.067	192.51
225.285	-10.24
225.503	16.38
225.721	-38.91
225.939	20.48
226.157	16.38
226.375	217.08
226.592	-20.48
226.81	53.25
227.028	172.03
227.246	96.25
227.464	116.73
227.682	110.59
227.9	63.49
228.117	57.34
228.335	38.91
228.553	92.16
228.771	32.77
228.989	59.39
229.206	45.06
229.424	12.29
229.642	-34.82
229.86	0
230.077	178.17
230.295	12.29
230.513	147.45
230.731	98.3
230.948	186.37
231.166	161.79
231.384	14.34
231.601	14.34
231.819	204.8
232.037	51.2
232.254	-59.39
232.472	57.34
232.689	-6.14
232.907	108.54
233.125	75.77
233.342	51.2
233.56	22.53
233.777	18.43
233.995	-61.44
234.213	94.21
234.43	36.86
234.648	47.1
234.865	24.58
235.083	77.82
235.3	49.15
235.518	24.58
235.735	77.82
235.953	98.3
236.17	49.15
236.388	6.14
236.605	22.53
236.822	157.69
237.04	94.21
237.257	104.45
237.475	-30.72
237.692	10.24
237.909	57.34
238.127	8.19
238.344	75.77
238.562	51.2
238.779	-40.96
238.996	14.34
239.214	30.72
239.431	36.86
239.648	83.97
239.865	161.79
240.083	40.96
240.3	10.24
240.517	-12.29
240.735	71.68
240.952	151.55
241.169	20.48
241.386	40.96
241.603	26.62
241.821	100.35
242.038	69.63
242.255	106.49
242.472	-49.15
242.689	92.16
242.907	40.96
243.124	139.26
243.341	75.77
243.558	-43.01
243.775	-69.63
243.992	-10.24
244.209	77.82
244.426	149.5
244.643	73.73
244.86	20.48
245.078	86.01
245.295	-4.1
245.512	10.24
245.729	-6.14
245.946	55.3
246.163	67.58
246.38	-45.06
246.597	139.26
246.814	24.58
247.031	22.53
247.248	73.73
247.464	51.2
247.681	49.15
247.898	67.58
248.115	92.16
248.332	-57.34
248.549	159.74
248.766	215.04
248.983	110.59
249.2	98.3
249.417	81.92
249.633	53.25
249.85	83.97
250.067	40.96
250.284	61.44
250.501	114.69
250.717	114.69
250.934	-16.38
251.151	16.38
251.368	71.68
251.585	83.97
251.801	28.67
252.018	-6.14
252.235	79.87
252.451	-96.25
252.668	8.19
252.885	73.73
253.102	36.86
253.318	-14.34
253.535	77.82
253.752	6.14
253.968	53.25
254.185	-16.38
254.401	38.91
254.618	12.29
254.835	-28.67
255.051	151.55
255.268	92.16
255.484	88.06
255.701	34.82
255.917	126.97
256.134	-20.48
256.351	53.25
256.567	-8.19
256.784	40.96
257	16.38
257.217	90.11
257.433	49.15
257.65	67.58
257.866	147.45
258.082	-112.64
258.299	-32.77
258.515	67.58
258.732	-36.86
258.948	12.29
259.165	92.16
259.381	12.29
259.597	83.97
259.814	55.3
260.03	32.77
260.246	-53.25
260.463	114.69
260.679	135.17
260.895	43.01
261.112	45.06
261.328	28.67
261.544	-65.53
261.761	169.98
261.977	20.48
262.193	10.24
262.409	167.93
262.626	59.39
262.842	30.72
263.058	57.34
263.274	61.44
263.49	6.14
263.707	34.82
263.923	114.69
264.139	-4.1
264.355	79.87
264.571	63.49
264.787	98.3
265.004	69.63
265.22	47.1
265.436	-6.14
265.652	24.58
265.868	102.4
266.084	-45.06
266.3	-59.39
266.516	-2.05
266.732	2.05
266.948	53.25
267.164	53.25
267.38	71.68
267.596	126.97
267.812	219.13
268.028	-28.67
268.244	-49.15
268.46	88.06
268.676	24.58
268.892	34.82
269.108	-6.14
269.324	38.91
269.54	-79.87
269.756	120.83
269.972	-96.25
270.188	34.82
270.403	-65.53
270.619	30.72
270.835	51.2
271.051	22.53
271.267	0
271.483	55.3
271.698	8.19
271.914	26.62
272.13	-32.77
272.346	34.82
272.562	63.49
272.777	96.25
272.993	8.19
273.209	-4.1
273.425	28.67
273.64	-28.67
273.856	110.59
274.072	-69.63
274.287	24.58
274.503	120.83
274.719	79.87
274.934	32.77
275.15	-137.21
275.366	40.96
275.581	-79.87
275.797	47.1
276.012	81.92
276.228	-28.67
276.444	100.35
276.659	86.01
276.875	-34.82
277.09	34.82
277.306	18.43
277.521	40.96
277.737	61.44
277.952	96.25
278.168	22.53
278.383	4.1
278.599	102.4
278.814	124.93
279.03	4.1
279.245	126.97
279.461	16.38
279.676	92.16
279.892	-20.48
280.107	-14.34
280.322	-34.82
280.538	73.73
280.753	18.43
280.969	67.58
281.184	0
281.399	129.02
281.615	-51.2
281.83	81.92
282.045	-96.25
282.26	-16.38
282.476	59.39
282.691	65.54
282.906	90.11
283.122	-12.29
283.337	-36.86
283.552	71.68
283.767	81.92
283.983	53.25
284.198	12.29
284.413	83.97
284.628	-47.1
284.843	47.1
285.058	83.97
285.274	88.06
285.489	-20.48
285.704	141.31
285.919	63.49
286.134	49.15
286.349	38.91
286.564	26.62
286.779	102.4
286.995	20.48
287.21	-53.25
287.425	40.96
287.64	24.58
287.855	12.29
288.07	-67.58
288.285	176.13
288.5	57.34
288.715	190.46
288.93	43.01
289.145	-6.14
289.36	92.16
289.575	2.05
289.79	57.34
290.004	12.29
290.219	65.54
290.434	-63.49
290.649	-14.34
290.864	57.34
291.079	65.54
291.294	94.21
291.509	30.72
291.724	-114.69
291.938	-16.38
292.153	55.3
292.368	-4.1
292.583	73.73
292.798	59.39
293.012	124.93
293.227	137.21
293.442	-20.48
293.657	34.82
293.871	174.08
294.086	92.16
294.301	176.13
294.516	124.93
294.73	28.67
294.945	8.19
295.16	22.53
295.374	155.65
295.589	55.3
295.804	83.97
296.018	133.12
296.233	114.69
296.447	26.62
296.662	34.82
296.877	47.1
297.091	45.06
297.306	-6.14
297.52	2.05
297.735	92.16
297.949	32.77
298.164	12.29
298.378	79.87
298.593	-55.3
298.807	-2.05
299.022	83.97
299.236	116.73
299.451	38.91
299.665	-22.53
299.88	10.24
300.094	36.86
300.309	77.82
300.523	63.49
300.737	43.01
300.952	-22.53
301.166	94.21
301.381	28.67
301.595	8.19
301.809	75.77
302.024	36.86
302.238	-24.58
302.452	227.32
302.667	51.2
302.881	120.83
303.095	165.89
303.309	116.73
303.524	79.87
303.738	12.29
303.952	-6.14
304.166	98.3
304.381	-16.38
304.595	120.83
304.809	10.24
305.023	20.48
305.237	55.3
305.452	47.1
305.666	63.49
305.88	83.97
306.094	63.49
306.308	92.16
306.522	116.73
306.736	34.82
306.95	59.39
307.164	-55.3
307.379	8.19
307.593	116.73
307.807	167.93
308.021	114.69
308.235	63.49
308.449	-71.68
308.663	-16.38
308.877	215.04
309.091	63.49
309.305	65.54
309.519	-141.31
309.733	77.82
309.947	-38.91
310.161	49.15
310.374	63.49
310.588	126.97
310.802	-20.48
311.016	-26.62
311.23	77.82
311.444	-16.38
311.658	81.92
311.872	98.3
312.085	90.11
312.299	165.89
312.513	96.25
312.727	-8.19
312.941	-112.64
313.154	18.43
313.368	106.49
313.582	-8.19
313.796	67.58
314.009	-34.82
314.223	40.96
314.437	36.86
314.651	51.2
314.864	-6.14
315.078	-30.72
315.292	-90.11
315.505	47.1
315.719	104.45
315.933	102.4
316.146	122.88
316.36	-16.38
316.573	98.3
316.787	106.49
317.001	24.58
317.214	40.96
317.428	94.21
317.641	-14.34
317.855	-86.01
318.068	116.73
318.282	-16.38
318.495	131.07
318.709	94.21
318.922	-12.29
319.136	139.26
319.349	57.34
319.563	30.72
319.776	61.44
319.99	-73.73
320.203	110.59
320.417	67.58
320.63	4.1
320.843	169.98
321.057	59.39
321.27	-2.05
321.483	34.82
321.697	217.08
321.91	2.05
322.124	28.67
322.337	69.63
322.55	-18.43
322.763	18.43
322.977	-14.34
323.19	-22.53
323.403	81.92
323.617	104.45
323.83	143.36
324.043	10.24
324.256	75.77
324.469	-34.82
324.683	192.51
324.896	65.54
325.109	6.14
325.322	-141.31
325.535	53.25
325.748	77.82
325.962	24.58
326.175	-16.38
326.388	51.2
326.601	141.31
326.814	2.05
327.027	51.2
327.24	88.06
327.453	-49.15
327.666	135.17
327.879	79.87
328.092	112.64
328.305	18.43
328.518	16.38
328.731	-6.14
328.944	51.2
329.157	88.06
329.37	14.34
329.583	161.79
329.796	120.83
330.009	-67.58
330.222	86.01
330.435	190.46
330.648	0
330.861	67.58
331.073	-12.29
331.286	122.88
331.499	47.1
331.712	-65.53
331.925	32.77
332.138	40.96
332.35	55.3
332.563	-47.1
332.776	118.78
332.989	-86.01
333.202	43.01
333.414	75.77
333.627	73.73
333.84	36.86
334.053	57.34
334.265	-28.67
334.478	10.24
334.691	59.39
334.903	65.54
335.116	-24.58
335.329	-8.19
335.541	110.59
335.754	114.69
335.966	-36.86
336.179	36.86
336.392	14.34
336.604	10.24
336.817	163.84
337.029	100.35
337.242	-2.05
337.454	69.63
337.667	10.24
337.88	122.88
338.092	120.83
338.305	26.62
338.517	-53.25
338.729	141.31
338.942	143.36
339.154	-12.29
339.367	-71.68
339.579	8.19
339.792	-49.15
340.004	45.06
340.217	86.01
340.429	139.26
340.641	49.15
340.854	-20.48
341.066	12.29
341.278	108.54
341.491	147.45
341.703	51.2
341.915	-28.67
342.128	22.53
342.34	116.73
342.552	2.05
342.764	26.62
342.977	45.06
343.189	106.49
343.401	98.3
343.613	-16.38
343.826	67.58
344.038	-49.15
344.25	92.16
344.462	12.29
344.674	40.96
344.886	2.05
345.099	12.29
345.311	69.63
345.523	-28.67
345.735	6.14
345.947	14.34
346.159	-30.72
346.371	131.07
346.583	-43.01
346.795	90.11
347.007	10.24
347.219	-2.05
347.431	6.14
347.643	141.31
347.855	28.67
348.067	118.78
348.279	-55.3
348.491	32.77
348.703	36.86
348.915	-2.05
349.127	-38.91
349.339	47.1
349.551	-26.62
349.763	98.3
349.975	10.24
350.187	153.6
350.399	239.61
350.61	73.73
350.822	14.34
351.034	92.16
351.246	81.92
351.458	26.62
351.669	141.31
351.881	73.73
352.093	129.02
352.305	102.4
352.517	63.49
352.728	6.14
352.94	16.38
353.152	77.82
353.363	-43.01
353.575	30.72
353.787	163.84
353.999	112.64
354.21	182.27
354.422	-12.29
354.633	24.58
354.845	34.82
355.057	43.01
355.268	83.97
355.48	83.97
355.692	-34.82
355.903	45.06
356.115	-49.15
356.326	-112.64
356.538	120.83
356.749	106.49
356.961	129.02
357.172	49.15
357.384	-32.77
357.595	178.17
357.807	8.19
358.018	-6.14
358.23	47.1
358.441	108.54
358.653	71.68
358.864	43.01
359.075	83.97
359.287	71.68
359.498	90.11
359.709	18.43
359.921	26.62
360.132	-16.38
360.344	59.39
360.555	-6.14
360.766	32.77
360.977	14.34
361.189	55.3
361.4	12.29
361.611	90.11
361.823	174.08
362.034	59.39
362.245	-94.21
362.456	12.29
362.667	129.02
362.879	-57.34
363.09	88.06
363.301	61.44
363.512	57.34
363.723	22.53
363.935	-10.24
364.146	61.44
364.357	86.01
364.568	-18.43
364.779	-90.11
364.99	106.49
365.201	-53.25
365.412	137.21
365.623	-77.82
365.834	28.67
366.045	45.06
366.256	24.58
366.467	47.1
366.678	108.54
366.889	51.2
367.1	-6.14
367.311	110.59
367.522	28.67
367.733	94.21
367.944	47.1
368.155	55.3
368.366	81.92
368.577	43.01
368.788	147.45
368.999	30.72
369.209	86.01
369.42	231.42
369.631	317.44
369.842	135.17
370.053	36.86
370.264	92.16
370.474	4.1
370.685	77.82
370.896	16.38
371.107	180.22
371.317	61.44
371.528	18.43
371.739	100.35
371.95	90.11
372.16	81.92
372.371	24.58
372.582	65.54
372.792	67.58
373.003	77.82
373.214	28.67
373.424	126.97
373.635	-38.91
373.846	124.93
374.056	8.19
374.267	77.82
374.477	116.73
374.688	-24.58
374.898	71.68
375.109	73.73
375.319	88.06
375.53	77.82
375.74	116.73
375.951	57.34
376.161	49.15
376.372	129.02
376.582	43.01
376.793	79.87
377.003	71.68
377.214	6.14
377.424	-61.44
377.635	77.82
377.845	16.38
378.055	188.41
378.266	6.14
378.476	102.4
378.686	104.45
378.897	90.11
379.107	106.49
379.317	88.06
379.528	30.72
379.738	49.15
379.948	-40.96
380.158	149.5
380.369	45.06
380.579	2.05
380.789	24.58
380.999	94.21
381.21	120.83
381.42	129.02
381.63	106.49
381.84	139.26
382.05	36.86
382.261	174.08
382.471	149.5
382.681	-22.53
382.891	188.41
383.101	49.15
383.311	22.53
383.521	47.1
383.731	86.01
383.941	163.84
384.151	20.48
384.361	32.77
384.571	40.96
384.781	71.68
384.991	124.93
385.201	182.27
385.411	43.01
385.621	51.2
385.831	57.34
386.041	22.53
386.251	16.38
386.461	104.45
386.671	14.34
386.881	96.25
387.091	-28.67
387.301	65.54
387.511	92.16
387.72	114.69
387.93	129.02
388.14	-43.01
388.35	145.41
388.56	57.34
388.769	88.06
388.979	24.58
389.189	-12.29
389.399	77.82
389.609	112.64
389.818	69.63
390.028	49.15
390.238	34.82
390.447	22.53
390.657	24.58
390.867	16.38
391.076	-81.92
391.286	53.25
391.496	53.25
391.705	65.54
391.915	180.22
392.125	40.96
392.334	34.82
392.544	149.5
392.753	45.06
392.963	-24.58
393.172	34.82
393.382	32.77
393.591	167.93
393.801	-6.14
394.01	174.08
394.22	63.49
394.429	90.11
394.639	45.06
394.848	10.24
395.058	38.91
395.267	43.01
395.477	129.02
395.686	75.77
395.895	145.41
396.105	159.74
396.314	75.77
396.524	-8.19
396.733	45.06
396.942	131.07
397.152	45.06
397.361	63.49
397.57	26.62
397.78	110.59
397.989	143.36
398.198	137.21
398.407	47.1
398.617	8.19
398.826	108.54
399.035	96.25
399.244	147.45
399.453	90.11
399.663	30.72
399.872	57.34
400.081	14.34
400.29	120.83
400.499	-22.53
400.708	120.83
400.917	98.3
401.127	59.39
401.336	51.2
401.545	163.84
401.754	188.41
401.963	40.96
402.172	30.72
402.381	2.05
402.59	-12.29
402.799	-6.14
403.008	63.49
403.217	83.97
403.426	112.64
403.635	-75.77
403.844	75.77
404.053	55.3
404.262	-18.43
404.471	96.25
404.68	61.44
404.888	8.19
405.097	-22.53
405.306	55.3
405.515	120.83
405.724	-22.53
405.933	135.17
406.142	34.82
406.35	110.59
406.559	-12.29
406.768	65.54
406.977	118.78
407.185	71.68
407.394	92.16
407.603	14.34
407.812	40.96
408.02	184.32
408.229	88.06
408.438	51.2
408.646	-4.1
408.855	43.01
409.064	67.58
409.272	-6.14
409.481	98.3
409.69	32.77
409.898	-26.62
410.107	63.49
410.315	155.65
410.524	104.45
410.733	94.21
410.941	40.96
411.15	63.49
411.358	55.3
411.567	88.06
411.775	92.16
411.984	147.45
412.192	124.93
412.401	53.25
412.609	79.87
412.818	159.74
413.026	143.36
413.234	53.25
413.443	30.72
413.651	-24.58
413.86	86.01
414.068	133.12
414.276	172.03
414.485	-34.82
414.693	137.21
414.901	231.42
415.11	114.69
415.318	90.11
415.526	-8.19
415.734	-2.05
415.943	126.97
416.151	116.73
416.359	-18.43
416.567	100.35
416.776	147.45
416.984	172.03
417.192	245.76
417.4	61.44
417.608	20.48
417.817	-24.58
418.025	53.25
418.233	215.04
418.441	30.72
418.649	-43.01
418.857	63.49
419.065	149.5
419.273	-86.01
419.481	92.16
419.689	24.58
419.897	-4.1
420.105	-16.38
420.313	34.82
420.521	206.84
420.729	172.03
420.937	26.62
421.145	12.29
421.353	153.6
421.561	182.27
421.769	110.59
421.977	59.39
422.185	63.49
422.393	18.43
422.601	49.15
422.809	92.16
423.017	-16.38
423.224	94.21
423.432	79.87
423.64	92.16
423.848	163.84
424.056	-20.48
424.263	118.78
424.471	106.49
424.679	118.78
424.887	-26.62
425.094	184.32
425.302	90.11
425.51	126.97
425.718	102.4
425.925	26.62
426.133	0
426.341	221.18
426.548	94.21
426.756	77.82
426.964	186.37
427.171	75.77
427.379	14.34
427.586	133.12
427.794	133.12
428.001	198.65
428.209	180.22
428.417	167.93
428.624	98.3
428.832	180.22
429.039	98.3
429.247	75.77
429.454	167.93
429.662	225.28
429.869	86.01
430.076	102.4
430.284	116.73
430.491	225.28
430.699	192.51
430.906	141.31
431.114	165.89
431.321	157.69
431.528	155.65
431.736	133.12
431.943	155.65
432.15	241.66
432.358	249.85
432.565	122.88
432.772	8.19
432.979	208.89
433.187	151.55
433.394	198.65
433.601	98.3
433.808	190.46
434.016	215.04
434.223	206.84
434.43	212.99
434.637	208.89
434.844	284.67
435.052	270.33
435.259	307.2
435.466	292.86
435.673	225.28
435.88	264.19
436.087	307.2
436.294	460.79
436.501	309.24
436.708	249.85
436.915	323.58
437.122	339.96
437.329	278.52
437.537	323.58
437.743	344.06
437.95	452.6
438.157	360.44
438.364	411.64
438.571	344.06
438.778	473.08
438.985	450.55
439.192	434.17
439.399	430.07
439.606	407.55
439.813	477.18
440.02	628.73
440.227	595.96
440.433	509.94
440.64	516.09
440.847	514.04
441.054	577.53
441.261	716.79
441.467	690.17
441.674	602.1
441.881	649.21
442.088	595.96
442.294	665.59
442.501	698.36
442.708	751.6
442.914	759.8
443.121	700.41
443.328	880.63
443.534	950.26
443.741	866.29
443.948	915.44
444.154	937.97
444.361	1003.5
444.568	1036.27
444.774	1013.74
444.981	966.64
445.187	1071.09
445.394	1202.16
445.6	1046.51
445.807	1267.69
446.013	1236.97
446.22	1273.84
446.426	1380.33
446.633	1443.82
446.839	1611.75
447.046	1474.54
447.252	1519.59
447.459	1636.33
447.665	1708.01
447.871	1751.01
448.078	1945.57
448.284	1859.56
448.491	1943.52
448.697	2080.74
448.903	2127.84
449.11	2105.31
449.316	2191.33
449.522	2367.45
449.728	2512.86
449.935	2402.27
450.141	2484.19
450.347	2721.75
450.553	2674.65
450.76	2803.67
450.966	2842.58
451.172	3000.27
451.378	3084.24
451.584	3098.58
451.791	3444.68
451.997	3346.38
452.203	3336.14
452.409	3659.72
452.615	3852.23
452.821	3780.55
453.027	3917.76
453.233	4331.45
453.44	4108.23
453.646	4427.71
453.852	4726.71
454.058	4710.33
454.264	5007.28
454.47	5244.85
454.676	5324.72
454.882	5713.83
455.088	5566.38
455.294	5627.82
455.5	6184.87
455.705	6496.16
455.911	6596.51
456.117	6725.53
456.323	6905.75
456.529	6895.51
456.735	7704.46
456.941	7710.6
457.147	8142.72
457.352	8189.83
457.558	8488.83
457.764	9084.79
457.97	9279.35
458.176	9684.84
458.381	10205.03
458.587	10219.36
458.793	10915.67
458.999	10635.1
459.204	12068.68
459.41	12470.08
459.616	12418.88
459.821	13197.11
460.027	13637.42
460.233	14358.31
460.438	14321.45
460.644	15425.3
460.85	15458.07
461.055	15914.77
461.261	16697.09
461.466	16465.67
461.672	16834.3
461.878	18509.54
462.083	18312.94
462.289	18888.42
462.494	19687.12
462.7	20074.19
462.905	19715.8
463.111	21800.63
463.316	22797.99
463.522	23371.42
463.727	23740.05
463.932	25165.44
464.138	25585.27
464.343	26951.27
464.549	26646.12
464.754	28945.99
464.959	29746.75
465.165	30266.93
465.37	29666.88
465.575	29978.17
465.781	31450.66
465.986	33306.12
466.191	32493.07
466.397	32740.88
466.602	31954.46
466.807	33750.53
467.012	34457.07
467.218	34821.61
467.423	34985.45
467.628	36150.74
467.833	37459.4
468.038	37473.73
468.244	36570.58
468.449	38311.35
468.654	37926.33
468.859	37844.41
469.064	37447.11
469.269	36490.71
469.474	36953.55
469.679	38081.98
469.885	36984.27
470.09	37686.72
470.295	37899.71
470.5	36986.32
470.705	37092.81
470.91	35898.84
471.115	35870.17
471.32	36570.58
471.525	35984.86
471.73	34893.29
471.935	34948.59
472.139	33648.13
472.344	33703.42
472.549	33279.49
472.754	32886.28
472.959	32126.49
473.164	30897.7
473.369	30830.12
473.574	31567.39
473.778	30553.65
473.983	30754.35
474.188	30123.57
474.393	28151.38
474.598	28347.98
474.802	27344.48
475.007	27432.54
475.212	26803.82
475.417	25929.33
475.621	25994.87
475.826	25679.48
476.031	24794.76
476.235	24434.32
476.44	24440.46
476.645	23932.56
476.849	23449.24
477.054	23375.52
477.259	22660.77
477.463	22748.84
477.668	21853.87
477.872	21986.99
478.077	21225.15
478.282	20731.59
478.486	20420.3
478.691	20192.97
478.895	19990.22
479.1	19865.3
479.304	19844.82
479.509	19347.16
479.713	19683.03
479.918	18949.85
480.122	18437.86
480.326	18708.19
480.531	18783.97
480.735	18472.68
480.94	18069.23
481.144	18847.46
481.348	17651.44
481.553	17882.86
481.757	17266.42
481.961	17579.76
482.166	17729.27
482.37	17465.08
482.574	16981.76
482.778	17045.24
482.983	17338.1
483.187	17004.28
483.391	16873.21
483.595	16224.01
483.8	16205.58
484.004	16426.76
484.208	16238.34
484.412	16293.64
484.616	15939.34
484.821	15904.53
485.025	15460.12
485.229	15423.25
485.433	14790.43
485.637	15064.86
485.841	14741.28
486.045	14505.76
486.249	14298.92
486.453	14217
486.657	13901.61
486.861	13899.56
487.065	13367.09
487.269	13446.96
487.473	12756.8
487.677	13068.09
487.881	12855.1
488.085	12613.44
488.289	12523.33
488.493	12025.67
488.697	12353.35
488.901	11728.72
489.105	11370.32
489.309	11493.2
489.512	11173.72
489.716	11362.13
489.92	10827.61
490.124	10544.99
490.328	10583.9
490.531	10127.21
490.735	10268.52
490.939	10051.43
491.143	9797.48
491.346	9443.18
491.55	9607.02
491.754	9125.75
491.958	9332.59
492.161	8933.24
492.365	8781.69
492.569	8632.19
492.772	8642.43
492.976	8454.01
493.18	8269.7
493.383	8327.04
493.587	8083.33
493.79	8318.85
493.994	7782.28
494.197	7905.16
494.401	7675.79
494.605	7505.81
494.808	7741.32
495.012	7681.93
495.215	7532.43
495.419	7561.1
495.622	7436.17
495.825	7477.13
496.029	7370.64
496.232	7384.98
496.436	7169.94
496.639	7407.5
496.843	7186.32
497.046	7303.06
497.249	7421.84
497.453	7278.48
497.656	7225.23
497.859	7171.99
498.063	7352.21
498.266	7493.52
498.469	7325.58
498.673	7270.29
498.876	7331.73
499.079	7446.41
499.282	7587.72
499.485	7686.03
499.689	7518.09
499.892	7659.4
500.095	7501.71
500.298	7796.62
500.501	7618.44
500.705	7800.71
500.908	7671.69
501.111	7847.82
501.314	8040.33
501.517	8097.67
501.72	8048.52
501.923	7989.13
502.126	8204.16
502.329	8372.1
502.532	8736.63
502.735	8515.45
502.938	8458.11
503.141	8771.45
503.344	8828.79
503.547	9078.65
503.75	9011.06
503.953	9277.3
504.156	9369.46
504.359	9318.26
504.562	9592.69
504.765	9805.67
504.968	9783.15
505.17	10014.57
505.373	10334.05
505.576	10360.67
505.779	10631.01
505.982	10528.61
506.185	10925.91
506.387	11147.09
506.59	11214.68
506.793	11267.92
506.996	11548.5
507.198	11820.88
507.401	11994.95
507.604	12105.54
507.807	12373.83
508.009	12707.65
508.212	12816.19
508.415	13131.58
508.617	13440.82
508.82	13633.33
509.022	13791.02
509.225	14333.73
509.428	14473
509.63	14739.23
509.833	14982.94
510.035	15732.5
510.238	15882
510.44	16262.92
510.643	16475.91
510.845	17143.55
511.048	16973.57
511.25	17684.21
511.453	17780.46
511.655	18446.05
511.858	18695.91
512.06	19379.93
512.262	19424.98
512.465	19893.97
512.667	20459.21
512.87	20891.33
513.072	20889.28
513.274	21718.71
513.477	22331.05
513.679	22847.14
513.881	23279.26
514.084	23965.33
514.286	24307.34
514.488	25026.18
514.69	25484.92
514.893	26052.21
515.095	26226.29
515.297	27229.79
515.499	27534.94
515.701	28186.19
515.904	28866.12
516.106	29679.16
516.308	30111.28
516.51	30414.38
516.712	31000.1
516.914	31622.69
517.116	32507.41
517.318	33203.72
517.52	33500.67
517.722	33998.33
517.925	34721.26
518.127	35597.79
518.329	36103.64
518.531	36249.05
518.733	37301.7
518.935	37752.26
519.136	38290.87
519.338	38899.12
519.54	39450.02
519.742	40175
519.944	40687
520.146	41559.43
520.348	41969.02
520.55	42337.66
520.752	42589.56
520.954	43810.15
521.155	43795.81
521.357	44490.07
521.559	45262.16
521.761	45546.82
521.963	45782.34
522.164	46120.26
522.366	47023.41
522.568	46822.71
522.77	47473.96
522.971	47879.46
523.173	47824.17
523.375	48416.03
523.576	48665.88
523.778	48715.03
523.98	49546.51
524.181	49591.56
524.383	49270.03
524.584	50076.93
524.786	49954.05
524.988	49370.38
525.189	50183.43
525.391	50570.49
525.592	50318.59
525.794	50527.49
525.995	50455.81
526.197	50066.69
526.398	50304.26
526.6	50066.69
526.801	49931.53
527.003	49640.71
527.204	49427.73
527.406	50210.05
527.607	49526.03
527.808	49329.42
528.01	48409.89
528.211	48905.49
528.412	49061.14
528.614	48137.51
528.815	48155.94
529.016	48547.1
529.218	47346.99
529.419	46945.59
529.62	46687.54
529.822	45964.61
530.023	46120.26
530.224	45479.24
530.425	44909.91
530.626	44045.66
530.828	43707.75
531.029	44445.02
531.23	43019.63
531.431	42780.02
531.632	42358.14
531.833	42050.94
532.035	41276.81
532.236	40936.85
532.437	40471.96
532.638	39800.22
532.839	39304.62
533.04	39159.21
533.241	38458.81
533.442	38469.04
533.643	37275.08
533.844	37160.39
534.045	36597.2
534.246	36001.24
534.447	35872.22
534.648	35139.05
534.849	34694.64
535.05	34225.65
535.251	33728
535.451	33168.9
535.652	33111.56
535.853	32474.64
536.054	31735.32
536.255	31792.67
536.456	31014.44
536.657	31092.26
536.857	30080.56
537.058	29830.71
537.259	29689.4
537.46	29357.63
537.66	28616.27
537.861	28415.57
538.062	27967.06
538.263	27676.25
538.463	27410.01
538.664	27000.42
538.865	26590.83
539.065	26424.94
539.266	25915
539.466	25738.87
539.667	25527.93
539.868	25319.04
540.068	24735.37
540.269	24600.2
540.469	24460.94
540.67	24047.25
540.87	23568.02
541.071	23193.25
541.271	23164.57
541.472	22728.36
541.672	22621.86
541.873	22380.2
542.073	21821.11
542.274	22009.52
542.474	21415.61
542.675	21462.71
542.875	21417.66
543.075	20897.47
543.276	20500.17
543.476	20623.05
543.676	20113.1
543.877	20080.33
544.077	19752.66
544.277	19668.69
544.478	19334.87
544.678	19353.3
544.878	18763.49
545.078	18640.61
545.279	18517.73
545.479	18194.15
545.679	18167.53
545.879	17841.9
546.079	17708.79
546.28	17495.8
546.48	16916.22
546.68	17047.29
546.88	17254.14
547.08	16654.08
547.28	16580.35
547.48	15984.4
547.68	16142.09
547.88	15843.09
548.081	15816.46
548.281	15355.67
548.481	15216.41
548.681	15335.19
548.881	14720.8
549.081	14864.16
549.28	14561.06
549.48	14114.6
549.68	14262.05
549.88	14069.55
550.08	13530.93
550.28	13590.32
550.48	13498.16
550.68	13092.66
550.88	12932.92
551.08	12654.4
551.279	13035.32
551.479	12377.92
551.679	12339.01
551.879	12062.54
552.079	12060.49
552.278	11994.95
552.478	11659.09
552.678	11607.89
552.878	11384.66
553.077	11116.37
553.277	10833.75
553.477	10940.25
553.676	10692.44
553.876	10471.26
554.076	10293.09
554.275	10135.4
554.475	9852.78
554.674	9912.17
554.874	9670.51
555.074	9449.33
555.273	9453.42
555.473	9330.55
555.672	8974.2
555.872	9023.35
556.071	8904.57
556.271	8714.11
556.47	8564.61
556.67	8173.44
556.869	8187.78
557.068	7995.27
557.268	8013.7
557.467	7866.25
557.667	7894.92
557.866	7608.2
558.065	7456.65
558.265	7171.99
558.464	7235.47
558.663	7249.81
558.863	7030.68
559.062	6961.05
559.261	6659.99
559.461	6842.26
559.66	6733.72
559.859	6604.7
560.058	6129.57
560.258	6326.18
560.457	6197.15
560.656	6240.16
560.855	6027.17
561.054	6066.08
561.253	5719.98
561.453	5732.26
561.652	5681.07
561.851	5674.92
562.05	5328.81
562.249	5207.98
562.448	5367.73
562.647	5017.52
562.846	5203.89
563.045	5175.22
563.244	4949.94
563.443	5052.34
563.642	4929.46
563.841	4591.55
564.04	4622.27
564.239	4657.08
564.438	4646.84
564.637	4458.43
564.836	4384.7
565.035	4308.93
565.234	4421.56
565.432	4177.86
565.631	4278.21
565.83	4186.05
566.029	4138.94
566.228	3991.49
566.427	3985.35
566.625	3760.07
566.824	3907.52
567.023	3866.56
567.222	3635.14
567.42	3616.71
567.619	3585.99
567.818	3592.14
568.016	3721.16
568.215	3434.44
568.414	3446.73
568.612	3248.08
568.811	3258.32
569.01	3401.68
569.208	3196.88
569.407	3264.46
569.605	3137.49
569.804	3039.19
570.002	3106.77
570.201	2965.46
570.4	3020.75
570.598	2887.64
570.797	3000.27
570.995	2914.26
571.193	2777.05
571.392	2863.06
571.59	2656.22
571.789	2822.1
571.987	2662.36
572.186	2744.28
572.384	2590.68
572.582	2531.29
572.781	2672.6
572.979	2357.21
573.177	2529.24
573.376	2301.92
573.574	2310.11
573.772	2392.03
573.971	2246.62
574.169	2217.95
574.367	2183.13
574.565	2195.42
574.763	2031.59
574.962	2144.22
575.16	2088.93
575.358	2082.78
575.556	1912.8
575.754	1920.99
575.952	1968.1
576.151	1937.38
576.349	1906.66
576.547	1730.53
576.745	1902.56
576.943	1814.5
577.141	1822.69
577.339	1599.46
577.537	1722.34
577.735	1802.21
577.933	1701.86
578.131	1599.46
578.329	1677.29
578.527	1546.22
578.725	1583.08
578.923	1540.07
579.121	1562.6
579.319	1357.8
579.516	1392.62
579.714	1621.99
579.912	1439.72
580.11	1343.47
580.308	1394.67
580.506	1296.36
580.704	1228.78
580.901	1216.49
581.099	1376.24
581.297	1196.01
581.495	1363.95
581.692	1288.17
581.89	1417.19
582.088	1183.73
582.285	1204.21
582.483	1112.05
582.681	1185.77
582.878	1142.77
583.076	1066.99
583.274	1150.96
583.471	1298.41
583.669	1081.33
583.866	1005.55
584.064	1019.89
584.262	944.11
584.459	985.07
584.657	927.73
584.854	1028.08
585.052	966.64
585.249	1046.51
585.447	1038.32
585.644	849.91
585.841	1075.18
586.039	1028.08
586.236	989.17
586.434	880.63
586.631	817.14
586.828	796.66
587.026	831.48
587.223	794.61
587.42	823.28
587.618	884.72
587.815	892.91
588.012	690.17
588.21	749.56
588.407	770.04
588.604	827.38
588.801	720.89
588.999	757.75
589.196	802.8
589.393	692.21
589.59	708.6
589.787	679.93
589.984	792.56
590.182	729.08
590.379	688.12
590.576	780.28
590.773	702.45
590.97	649.21
591.167	727.03
591.364	712.69
591.561	645.11
591.758	796.66
591.955	710.65
592.152	657.4
592.349	675.83
592.546	634.87
592.743	641.01
592.94	661.49
593.137	720.89
593.334	751.6
593.531	743.41
593.727	622.58
593.924	776.18
594.121	681.97
594.318	663.54
594.515	780.28
594.712	786.42
594.908	716.79
595.105	612.34
595.302	706.55
595.499	706.55
595.696	833.52
595.892	696.31
596.089	823.28
596.286	712.69
596.482	925.68
596.679	821.24
596.876	917.49
597.072	882.67
597.269	882.67
597.466	878.58
597.662	888.82
597.859	880.63
598.055	944.11
598.252	946.16
598.448	1122.29
598.645	1079.28
598.841	1212.4
599.038	1230.83
599.234	1189.87
599.431	1253.36
599.627	1277.93
599.824	1316.84
600.02	1388.52
600.217	1386.47
600.413	1460.2
600.609	1617.9
600.806	1744.87
601.002	1542.12
601.198	1718.25
601.395	1818.6
601.591	1703.91
601.787	1865.7
601.984	1882.08
602.18	2025.44
602.376	2029.54
602.572	2252.77
602.769	2349.02
602.965	2412.51
603.161	2351.07
603.357	2490.33
603.553	2516.95
603.75	2564.06
603.946	2658.26
604.142	2912.21
604.338	3086.29
604.534	3004.37
604.73	3145.68
604.926	3084.24
605.122	3442.64
605.318	3440.59
605.514	3551.18
605.71	3606.47
605.906	3919.81
606.102	3692.49
606.298	3971.01
606.494	4143.04
606.69	4310.97
606.886	4294.59
607.082	4386.75
607.278	4470.72
607.474	4704.18
607.67	4700.09
607.866	4820.92
608.062	5212.08
608.257	5285.81
608.453	5203.89
608.649	5414.83
608.845	5515.18
609.041	5711.78
609.236	5920.68
609.432	6035.36
609.628	6309.79
609.824	6483.87
610.019	6608.8
610.215	6721.43
610.411	6948.76
610.606	7120.79
610.802	7231.38
610.998	7585.68
611.193	7837.58
611.389	7763.85
611.584	7997.32
611.78	8083.33
611.976	8345.47
612.171	8972.15
612.367	8968.06
612.562	9176.95
612.758	9224.05
612.953	9518.96
613.149	9981.8
613.344	10143.59
613.539	10381.15
613.735	10649.44
613.93	10887
614.126	10970.97
614.321	11749.2
614.517	11788.11
614.712	12007.24
614.907	12459.84
615.103	12724.03
615.298	12881.72
615.493	13340.47
615.688	13342.52
615.884	14364.45
616.079	14257.96
616.274	14858.01
616.47	15318.81
616.665	15499.03
616.86	15908.62
617.055	16074.51
617.25	16508.68
617.445	17219.32
617.641	17084.16
617.836	17868.53
618.031	18056.94
618.226	18769.63
618.421	19044.06
618.616	19777.23
618.811	19766.99
619.006	20707.01
619.201	20833.99
619.396	21446.33
619.591	21335.74
619.786	22472.36
619.981	22466.22
620.176	23373.47
620.371	23719.57
620.566	24161.94
620.761	24409.74
620.956	25312.89
621.151	25331.33
621.346	26123.89
621.541	25984.63
621.735	27035.24
621.93	27336.29
622.125	27788.89
622.32	28151.38
622.515	29111.88
622.709	29224.51
622.904	30207.54
623.099	30223.92
623.294	31106.6
623.488	31290.91
623.683	32130.58
623.878	32011.8
624.072	33086.98
624.267	34004.47
624.462	33775.1
624.656	34004.47
624.851	35462.63
625.046	35489.25
625.24	35962.33
625.435	36371.93
625.629	37090.76
625.824	37180.87
626.018	37885.37
626.213	38159.8
626.407	38540.72
626.602	38780.34
626.796	39445.93
626.991	39570.85
627.185	40203.67
627.38	40228.25
627.574	40574.36
627.768	40648.08
627.963	40676.76
628.157	40662.42
628.352	41293.19
628.546	40867.22
628.74	41205.13
628.935	40486.29
629.129	41080.21
629.323	40543.64
629.517	40652.18
629.712	40078.75
629.906	39974.3
630.1	39435.69
630.294	39196.07
630.489	38362.55
630.683	38512.05
630.877	37633.47
631.071	37184.97
631.265	36400.6
631.459	35464.67
631.653	34754.03
631.848	34098.68
632.042	33318.4
632.236	32484.88
632.43	31397.41
632.624	30793.26
632.818	29912.63
633.012	29328.96
633.206	28104.28
633.4	27194.98
633.594	26044.02
633.788	25575.03
633.982	24450.7
634.176	23830.16
634.369	22582.95
634.563	22359.72
634.757	21145.28
634.951	20563.65
635.145	19668.69
635.339	18812.64
635.533	18018.03
635.726	17532.66
635.92	16320.26
636.114	15765.26
636.308	15099.67
636.501	14743.33
636.695	14378.79
636.889	13283.13
637.083	12896.06
637.276	12365.64
637.47	11835.21
637.664	11546.45
637.857	11091.8
638.051	10635.1
638.244	10078.05
638.438	9781.1
638.632	9357.17
638.825	8935.29
639.019	8482.69
639.212	8234.88
639.406	8130.44
639.599	7552.91
639.793	7391.12
639.986	6975.38
640.18	7034.77
640.373	6365.09
640.567	6201.25
640.76	5973.92
640.954	5805.99
641.147	5517.23
641.34	5181.36
641.534	5128.11
641.727	4980.66
641.92	4911.03
642.114	4550.59
642.307	4401.08
642.5	4280.25
642.694	4077.51
642.887	3893.19
643.08	3907.52
643.273	3731.4
643.467	3538.89
643.66	3362.76
643.853	3176.4
644.046	3133.39
644.239	3086.29
644.432	2918.36
644.626	2580.44
644.819	2611.16
645.012	2574.3
645.205	2521.05
645.398	2451.42
645.591	2326.49
645.784	2252.77
645.977	2045.92
646.17	1982.43
646.363	2021.35
646.556	1771.49
646.749	1757.16
646.942	1761.25
647.135	1751.01
647.328	1550.31
647.521	1634.28
647.714	1449.96
647.907	1417.19
648.099	1241.07
648.292	1423.34
648.485	1325.04
648.678	1189.87
648.871	1046.51
649.064	1177.58
649.256	999.41
649.449	927.73
649.642	942.07
649.835	937.97
650.027	860.15
650.22	923.63
650.413	817.14
650.605	911.35
650.798	829.43
650.991	845.81
651.183	782.32
651.376	786.42
651.568	671.73
651.761	630.77
651.954	720.89
652.146	591.86
652.339	688.12
652.531	604.15
652.724	485.37
652.916	479.22
653.109	456.7
653.301	618.49
653.494	626.68
653.686	544.76
653.879	561.14
654.071	487.42
654.263	450.55
654.456	378.87
654.648	532.47
654.84	452.6
655.033	425.98
655.225	520.18
655.417	335.87
655.61	520.18
655.802	401.4
655.994	499.7
656.186	260.09
656.379	407.55
656.571	221.18
656.763	315.39
656.955	337.91
657.148	339.96
657.34	370.68
657.532	354.3
657.724	290.81
657.916	325.63
658.108	370.68
658.3	321.53
658.492	301.05
658.684	227.32
658.876	309.24
659.068	184.32
659.26	163.84
659.452	194.56
659.644	288.76
659.836	331.77
660.028	272.38
660.22	196.61
660.412	178.17
660.604	178.17
660.796	315.39
660.988	288.76
661.18	309.24
661.372	284.67
661.563	217.08
661.755	296.96
661.947	133.12
662.139	149.5
662.331	161.79
662.522	190.46
662.714	81.92
662.906	167.93
663.097	180.22
663.289	153.6
663.481	96.25
663.673	149.5
663.864	159.74
664.056	286.72
664.247	157.69
664.439	301.05
664.631	241.66
664.822	208.89
665.014	71.68
665.205	90.11
665.397	172.03
665.588	206.84
665.78	83.97
665.971	239.61
666.163	63.49
666.354	212.99
666.546	98.3
666.737	143.36
666.929	81.92
667.12	81.92
667.311	159.74
667.503	124.93
667.694	169.98
667.885	133.12
668.077	235.52
668.268	34.82
668.459	133.12
668.651	135.17
668.842	63.49
669.033	51.2
669.224	16.38
669.416	268.28
669.607	141.31
669.798	114.69
669.989	208.89
670.18	112.64
670.371	186.37
670.563	122.88
670.754	215.04
670.945	178.17
671.136	196.61
671.327	145.41
671.518	180.22
671.709	192.51
671.9	83.97
672.091	192.51
672.282	133.12
672.473	102.4
672.664	73.73
672.855	108.54
673.046	188.41
673.237	90.11
673.428	153.6
673.619	157.69
673.809	104.45
674	165.89
674.191	126.97
674.382	96.25
674.573	124.93
674.764	122.88
674.954	204.8
675.145	108.54
675.336	92.16
675.527	79.87
675.717	88.06
675.908	51.2
676.099	112.64
676.289	153.6
676.48	73.73
676.671	157.69
676.861	147.45
677.052	90.11
677.243	174.08
677.433	73.73
677.624	210.94
677.814	163.84
678.005	20.48
678.195	210.94
678.386	75.77
678.576	131.07
678.767	69.63
678.957	94.21
679.148	190.46
679.338	190.46
679.529	227.32
679.719	135.17
679.909	163.84
680.1	133.12
680.29	241.66
680.481	120.83
680.671	247.8
680.861	94.21
681.052	237.56
681.242	90.11
681.432	172.03
681.622	180.22
681.813	110.59
682.003	157.69
682.193	190.46
682.383	237.56
682.573	92.16
682.764	75.77
682.954	165.89
683.144	264.19
683.334	129.02
683.524	122.88
683.714	198.65
683.904	251.9
684.094	212.99
684.284	258.04
684.474	249.85
684.664	190.46
684.854	266.24
685.044	90.11
685.234	167.93
685.424	243.71
685.614	126.97
685.804	243.71
685.994	143.36
686.184	192.51
686.374	258.04
686.564	131.07
686.753	178.17
686.943	90.11
687.133	118.78
687.323	204.8
687.513	204.8
687.702	204.8
687.892	102.4
688.082	280.57
688.272	204.8
688.461	225.28
688.651	305.15
688.841	190.46
689.03	112.64
689.22	229.37
689.41	292.86
689.599	167.93
689.789	63.49
689.979	309.24
690.168	120.83
690.358	241.66
690.547	182.27
690.737	233.47
690.926	243.71
691.116	186.37
691.305	229.37
691.495	190.46
691.684	104.45
691.874	212.99
692.063	174.08
692.252	221.18
692.442	258.04
692.631	184.32
692.82	143.36
693.01	247.8
693.199	104.45
693.388	235.52
693.578	180.22
693.767	223.23
693.956	245.76
694.146	110.59
694.335	186.37
694.524	147.45
694.713	231.42
694.902	135.17
695.092	96.25
695.281	114.69
695.47	204.8
695.659	102.4
695.848	237.56
696.037	98.3
696.226	180.22
696.415	174.08
696.604	278.52
696.793	221.18
696.982	108.54
697.171	305.15
697.36	79.87
697.549	172.03
697.738	57.34
697.927	133.12
698.116	116.73
698.305	243.71
698.494	192.51
698.683	176.13
698.872	290.81
699.061	118.78
699.25	153.6
699.438	194.56
699.627	139.26
699.816	235.52
700.005	36.86
700.193	131.07
700.382	190.46
700.571	208.89
700.76	227.32
700.948	237.56
701.137	227.32
701.326	319.48
701.514	96.25
701.703	133.12
701.892	180.22
702.08	188.41
702.269	137.21
702.457	79.87
702.646	135.17
702.834	67.58
703.023	210.94
703.212	198.65
703.4	219.13
703.589	204.8
703.777	192.51
703.965	126.97
704.154	104.45
704.342	100.35
704.531	118.78
704.719	122.88
704.907	229.37
705.096	-30.72
705.284	67.58
705.472	55.3
705.661	184.32
705.849	239.61
706.037	188.41
706.226	233.47
706.414	165.89
706.602	49.15
706.79	260.09
706.979	124.93
707.167	124.93
707.355	49.15
707.543	180.22
707.731	176.13
707.919	120.83
708.107	157.69
708.296	112.64
708.484	88.06
708.672	237.56
708.86	202.75
709.048	131.07
709.236	83.97
709.424	188.41
709.612	227.32
709.8	100.35
709.988	112.64
710.176	194.56
710.364	208.89
710.551	161.79
710.739	151.55
710.927	122.88
711.115	229.37
711.303	204.8
711.491	225.28
711.679	139.26
711.866	225.28
712.054	104.45
712.242	249.85
712.43	272.38
712.617	190.46
712.805	245.76
712.993	200.7
713.181	147.45
713.368	182.27
713.556	186.37
713.744	176.13
713.931	372.73
714.119	212.99
714.306	116.73
714.494	116.73
714.682	131.07
714.869	77.82
715.057	167.93
715.244	30.72
715.432	180.22
715.619	51.2
715.807	135.17
715.994	186.37
716.182	198.65
716.369	272.38
716.556	153.6
716.744	114.69
716.931	94.21
717.119	241.66
717.306	208.89
717.493	198.65
717.681	126.97
717.868	92.16
718.055	243.71
718.242	196.61
718.43	151.55
718.617	270.33
718.804	75.77
718.991	251.9
719.179	196.61
719.366	268.28
719.553	221.18
719.74	182.27
719.927	210.94
720.114	186.37
720.301	53.25
720.488	83.97
720.676	212.99
720.863	215.04
721.05	315.39
721.237	141.31
721.424	200.7
721.611	280.57
721.798	88.06
721.985	153.6
722.172	225.28
722.358	155.65
722.545	360.44
722.732	231.42
722.919	339.96
723.106	266.24
723.293	163.84
723.48	245.76
723.667	163.84
723.853	274.43
724.04	190.46
724.227	253.95
724.414	192.51
724.6	247.8
724.787	335.87
724.974	319.48
725.161	215.04
725.347	135.17
725.534	284.67
725.72	251.9
725.907	256
726.094	184.32
726.28	131.07
726.467	71.68
726.653	126.97
726.84	309.24
727.027	303.1
727.213	159.74
727.4	245.76
727.586	176.13
727.773	231.42
727.959	145.41
728.145	153.6
728.332	217.08
728.518	190.46
728.705	258.04
728.891	219.13
729.077	221.18
729.264	116.73
729.45	225.28
729.636	307.2
729.823	294.91
730.009	282.62
730.195	200.7
730.382	237.56
730.568	225.28
730.754	210.94
730.94	264.19
731.126	225.28
731.313	215.04
731.499	169.98
731.685	382.97
731.871	270.33
732.057	231.42
732.243	266.24
732.429	159.74
732.615	395.26
732.801	245.76
732.987	266.24
733.173	210.94
733.359	169.98
733.545	176.13
733.731	206.84
733.917	294.91
734.103	212.99
734.289	225.28
734.475	129.02
734.661	268.28
734.847	208.89
735.033	264.19
735.219	323.58
735.404	208.89
735.59	253.95
735.776	256
735.962	274.43
736.148	317.44
736.333	311.29
736.519	268.28
736.705	176.13
736.89	245.76
737.076	251.9
737.262	124.93
737.447	155.65
737.633	245.76
737.819	294.91
738.004	165.89
738.19	208.89
738.375	239.61
738.561	344.06
738.747	284.67
738.932	155.65
739.118	423.93
739.303	331.77
739.489	323.58
739.674	149.5
739.859	100.35
740.045	278.52
740.23	235.52
740.416	59.39
740.601	296.96
740.786	210.94
740.972	169.98
741.157	192.51
741.342	169.98
741.528	118.78
741.713	266.24
741.898	202.75
742.084	239.61
742.269	157.69
742.454	176.13
742.639	264.19
742.824	178.17
743.01	315.39
743.195	309.24
743.38	256
743.565	301.05
743.75	186.37
743.935	329.72
744.12	200.7
744.305	71.68
744.49	135.17
744.675	118.78
744.86	194.56
745.045	219.13
745.23	200.7
745.415	159.74
745.6	339.96
745.785	159.74
745.97	354.3
746.155	292.86
746.34	323.58
746.525	215.04
746.71	288.76
746.895	112.64
747.079	172.03
747.264	155.65
747.449	231.42
747.634	309.24
747.819	237.56
748.003	172.03
748.188	174.08
748.373	176.13
748.557	208.89
748.742	225.28
748.927	217.08
749.111	184.32
749.296	182.27
749.481	169.98
749.665	198.65
749.85	-12.29
750.034	235.52
750.219	178.17
750.404	145.41
750.588	245.76
750.773	143.36
750.957	122.88
751.141	110.59
751.326	313.34
751.51	65.54
751.695	176.13
751.879	186.37
752.064	212.99
752.248	118.78
752.432	333.82
752.617	239.61
752.801	245.76
752.985	192.51
753.17	204.8
753.354	198.65
753.538	167.93
753.722	176.13
753.907	73.73
754.091	43.01
754.275	163.84
754.459	129.02
754.643	139.26
754.828	133.12
755.012	137.21
755.196	88.06
755.38	167.93
755.564	151.55
755.748	151.55
755.932	286.72
756.116	165.89
756.3	161.79
756.484	6.14
756.668	131.07
756.852	-4.1
757.036	157.69
757.22	77.82
757.404	139.26
757.588	106.49
757.772	221.18
757.956	122.88
758.14	247.8
758.323	124.93
758.507	114.69
758.691	67.58
758.875	180.22
759.059	258.04
759.242	114.69
759.426	122.88
759.61	153.6
759.794	141.31
759.977	223.23
760.161	391.16
760.345	243.71
760.528	233.47
760.712	118.78
760.895	176.13
761.079	116.73
761.263	-18.43
761.446	34.82
761.63	102.4
761.813	221.18
761.997	71.68
762.18	79.87
762.364	206.84
762.547	43.01
762.731	79.87
762.914	86.01
763.098	34.82
763.281	112.64
763.464	26.62
763.648	81.92
763.831	75.77
764.015	55.3
764.198	147.45
764.381	104.45
764.564	77.82
764.748	65.54
764.931	83.97
765.114	22.53
765.297	149.5
765.481	47.1
765.664	30.72
765.847	90.11
766.03	172.03
766.213	51.2
766.397	40.96
766.58	-81.92
766.763	116.73
766.946	63.49
767.129	151.55
767.312	75.77
767.495	10.24
767.678	71.68
767.861	90.11
768.044	81.92
768.227	16.38
768.41	73.73
768.593	43.01
768.776	59.39
768.959	-36.86
769.142	122.88
769.324	51.2
769.507	100.35
769.69	22.53
769.873	28.67
770.056	321.53
770.239	116.73
770.421	161.79
770.604	167.93
770.787	77.82
770.97	110.59
771.152	71.68
771.335	36.86
771.518	-26.62
771.7	157.69
771.883	268.28
772.066	38.91
772.248	98.3
772.431	112.64
772.613	174.08
772.796	83.97
772.978	53.25
773.161	229.37
773.343	77.82
773.526	14.34
773.708	53.25
773.891	-45.06
774.073	-38.91
774.256	75.77
774.438	204.8
774.621	-6.14
774.803	79.87
774.985	59.39
775.168	137.21
775.35	94.21
775.532	129.02
775.715	69.63
775.897	61.44
776.079	40.96
776.261	88.06
776.444	20.48
776.626	12.29
776.808	43.01
776.99	-8.19
777.173	45.06
777.355	-14.34
777.537	30.72
777.719	69.63
777.901	34.82
778.083	-10.24
778.265	20.48
778.447	92.16
778.629	10.24
778.811	90.11
778.993	-26.62
779.175	186.37
779.357	100.35
779.539	-51.2
779.721	2.05
779.903	86.01
780.085	-4.1
780.267	53.25
780.449	90.11
780.631	260.09
780.812	192.51
780.994	-12.29
781.176	4.1
781.358	-28.67
781.54	36.86
781.721	79.87
781.903	153.6
782.085	-4.1
782.267	120.83
782.448	18.43
782.63	67.58
782.812	67.58
782.993	40.96
783.175	92.16
783.357	-10.24
783.538	112.64
783.72	-57.34
783.901	14.34
784.083	63.49
784.264	43.01
784.446	-67.58
784.627	8.19
784.809	-16.38
784.99	75.77
785.172	118.78
785.353	8.19
785.535	36.86
785.716	18.43
785.897	-22.53
786.079	14.34
786.26	-2.05
786.441	83.97
786.623	-57.34
786.804	30.72
786.985	36.86
787.167	79.87
787.348	79.87
787.529	24.58
787.71	100.35
787.891	83.97
788.073	32.77
788.254	-141.31
788.435	98.3
788.616	-30.72
788.797	-73.73
788.978	-30.72
789.159	-26.62
789.34	12.29
789.522	-8.19
789.703	-43.01
789.884	6.14
790.065	71.68
790.246	245.76
790.427	69.63
790.607	86.01
790.788	159.74
790.969	-30.72
791.15	73.73
791.331	45.06
791.512	-16.38
791.693	-45.06
791.874	-10.24
792.054	141.31
792.235	116.73
792.416	-6.14
792.597	-47.1
792.778	49.15
792.958	26.62
793.139	73.73
793.32	-18.43
793.5	26.62
793.681	98.3
793.862	57.34
794.042	133.12
794.223	-38.91
794.404	18.43
794.584	-14.34
794.765	-49.15
794.945	106.49
795.126	102.4
795.306	49.15
795.487	16.38
795.667	69.63
795.848	45.06
796.028	34.82
796.209	53.25
796.389	43.01
796.57	-32.77
796.75	-63.49
796.93	69.63
797.111	-26.62
797.291	45.06
797.471	-22.53
797.652	-49.15
797.832	-22.53
798.012	112.64
798.192	-12.29
798.373	-83.97
798.553	-26.62
798.733	38.91
798.913	-110.59
799.093	24.58
799.274	43.01
799.454	14.34
799.634	153.6
799.814	16.38
799.994	118.78
800.174	51.2
800.354	0
800.534	-51.2
800.714	53.25
800.894	-61.44
801.074	-98.3
801.254	-126.97
801.434	139.26
801.614	-81.92
801.794	-18.43
801.974	1804.26
802.154	45.06
802.334	71.68
802.514	-22.53
802.693	10.24
802.873	32.77
803.053	155.65
803.233	-8.19
803.413	40.96
803.592	-20.48
803.772	-26.62
803.952	67.58
804.131	-47.1
804.311	43.01
804.491	28.67
804.67	-75.77
804.85	-36.86
805.03	112.64
805.209	53.25
805.389	-51.2
805.568	22.53
805.748	-40.96
805.928	18.43
806.107	53.25
806.287	38.91
806.466	73.73
806.646	8.19
806.825	-110.59
807.004	12.29
807.184	40.96
807.363	0
807.543	38.91
807.722	-22.53
807.901	77.82
808.081	151.55
808.26	-71.68
808.439	-55.3
808.619	-28.67
808.798	-43.01
808.977	-6.14
809.156	90.11
809.336	-61.44
809.515	133.12
809.694	-16.38
809.873	30.72
810.052	-16.38
810.231	40.96
810.411	65.54
810.59	100.35
810.769	45.06
810.948	65.54
811.127	-141.31
811.306	26.62
811.485	14.34
811.664	178.17
811.843	12.29
812.022	0
812.201	4.1
812.38	-32.77
812.559	26.62
812.737	14.34
812.916	-92.16
813.095	-47.1
813.274	63.49
813.453	49.15
813.632	16.38
813.811	67.58
813.989	-126.97
814.168	30.72
814.347	-61.44
814.526	-63.49
814.704	94.21
814.883	104.45
815.062	-75.77
815.24	36.86
815.419	-81.92
815.598	47.1
815.776	-88.06
815.955	26.62
816.133	-108.54
816.312	-59.39
816.49	-51.2
816.669	16.38
816.847	-16.38
817.026	24.58
817.204	45.06
817.383	10.24
817.561	-53.25
817.74	36.86
817.918	-8.19
818.097	-53.25
818.275	-53.25
818.453	73.73
818.632	40.96
818.81	-43.01
818.988	24.58
819.167	-43.01
819.345	-71.68
819.523	-90.11
819.701	-34.82
819.879	16.38
820.058	-36.86
820.236	-6.14
820.414	38.91
820.592	0
820.77	0
820.948	-22.53
821.127	-88.06
821.305	30.72
821.483	-104.45
821.661	67.58
821.839	53.25
822.017	-45.06
822.195	55.3
822.373	40.96
822.551	-51.2
822.729	8.19
822.907	55.3
823.085	75.77
823.262	34.82
823.44	-34.82
823.618	-28.67
823.796	-59.39
823.974	-4.1
824.152	-34.82
824.329	59.39
824.507	-14.34
824.685	55.3
824.863	38.91
825.04	-10.24
825.218	-6.14
825.396	30.72
825.574	-2.05
825.751	73.73
825.929	12.29
826.107	-57.34
826.284	28.67
826.462	-34.82
826.639	-18.43
826.817	-75.77
826.994	-49.15
827.172	-73.73
827.349	141.31
827.527	40.96
827.704	36.86
827.882	24.58
828.059	0
828.237	-24.58
828.414	79.87
828.591	-126.97
828.769	-49.15
828.946	-53.25
829.124	45.06
829.301	155.65
829.478	-20.48
829.655	26.62
829.833	94.21
830.01	-155.65
830.187	61.44
830.364	55.3
830.542	-6.14
830.719	141.31
830.896	43.01
831.073	-43.01
831.25	69.63
831.427	22.53
831.604	8.19
831.782	-165.89
831.959	20.48
832.136	-8.19
832.313	-24.58
832.49	-106.49
832.667	55.3
832.844	-26.62
833.021	104.45
833.198	2.05
833.374	-100.35
833.551	-18.43
833.728	-49.15
833.905	77.82
834.082	-178.17
834.259	-4.1
834.436	55.3
834.612	-49.15
834.789	61.44
834.966	-69.63
835.143	-8.19
835.319	-36.86
835.496	49.15
835.673	18.43
835.85	116.73
836.026	49.15
836.203	51.2
836.38	-32.77
836.556	6.14
836.733	-36.86
836.909	114.69
837.086	-20.48
837.262	-67.58
837.439	-59.39
837.616	-79.87
837.792	-43.01
837.968	2.05
838.145	-86.01
838.321	-12.29
838.498	92.16
838.674	26.62
838.851	-49.15
839.027	-53.25
839.203	0
839.38	-22.53
839.556	-57.34
839.732	90.11
839.909	-14.34
840.085	75.77
840.261	-55.3
840.437	30.72
840.614	10.24
840.79	-45.06
840.966	106.49
841.142	45.06
841.318	-30.72
841.494	4.1
841.671	4.1
841.847	12.29
842.023	-38.91
842.199	90.11
842.375	157.69
842.551	-83.97
842.727	-38.91
842.903	114.69
843.079	-32.77
843.255	106.49
843.431	16.38
843.607	75.77
843.783	-137.21
843.959	4.1
844.134	-69.63
844.31	59.39
844.486	-28.67
844.662	-90.11
844.838	-18.43
845.013	-22.53
845.189	22.53
845.365	-6.14
845.541	36.86
845.716	26.62
845.892	67.58
846.068	20.48
846.244	-36.86
846.419	43.01
846.595	-36.86
846.77	-86.01
846.946	-4.1
847.122	-57.34
847.297	-92.16
847.473	120.83
847.648	-65.53
847.824	28.67
847.999	-57.34
848.175	-28.67
848.35	47.1
848.526	55.3
848.701	28.67
848.876	-28.67
849.052	75.77
849.227	-30.72
849.403	-88.06
849.578	-106.49
849.753	43.01
849.929	-12.29
850.104	-102.4
850.279	20.48
850.454	14.34
850.63	38.91
850.805	26.62
850.98	-18.43
851.155	-73.73
851.33	12.29
851.505	-153.6
851.681	71.68
851.856	20.48
852.031	10.24
852.206	47.1
852.381	-81.92
852.556	-28.67
852.731	6.14
852.906	75.77
853.081	28.67
853.256	67.58
853.431	65.54
853.606	-63.49
853.781	-92.16
853.956	-90.11
854.131	22.53
854.305	-30.72
854.48	-55.3
854.655	-77.82
854.83	-63.49
855.005	4.1
855.18	-4.1
855.354	-40.96
855.529	-28.67
855.704	-12.29
855.879	20.48
856.053	-108.54
856.228	20.48
856.403	-51.2
856.577	98.3
856.752	-57.34
856.926	-36.86
857.101	-30.72
857.276	-22.53
857.45	-6.14
857.625	92.16
857.799	16.38
857.974	-30.72
858.148	-36.86
858.323	6.14
858.497	32.77
858.672	-51.2
858.846	-75.77
859.02	86.01
859.195	-81.92
859.369	-36.86
859.543	12.29
859.718	28.67
859.892	51.2
860.066	26.62
860.241	18.43
860.415	-47.1
860.589	67.58
860.763	-79.87
860.938	-57.34
861.112	36.86
861.286	-47.1
861.46	86.01
861.634	16.38
861.808	110.59
861.982	-36.86
862.157	-49.15
862.331	-24.58
862.505	-63.49
862.679	-79.87
862.853	-129.02
863.027	-24.58
863.201	79.87
863.375	-36.86
863.549	10.24
863.722	-34.82
863.896	106.49
864.07	-36.86
864.244	-86.01
864.418	67.58
864.592	-14.34
864.766	-61.44
864.939	38.91
865.113	-67.58
865.287	126.97
865.461	28.67
865.634	-28.67
865.808	-57.34
865.982	38.91
866.156	-55.3
866.329	-90.11
866.503	6.14
866.676	73.73
866.85	57.34
867.024	-43.01
867.197	20.48
867.371	92.16
867.544	-45.06
867.718	-131.07
867.891	83.97
868.065	-77.82
868.238	10.24
868.412	20.48
868.585	77.82
868.759	-108.54
868.932	-30.72
869.105	-129.02
869.279	59.39
869.452	-65.53
869.625	98.3
869.799	-79.87
869.972	-106.49
870.145	28.67
870.319	86.01
870.492	-83.97
870.665	6.14
870.838	-57.34
871.011	-88.06
871.185	-75.77
871.358	-102.4
871.531	12.29
871.704	-86.01
871.877	63.49
872.05	4.1
872.223	-110.59
872.396	55.3
872.569	6.14
872.742	-71.68
872.915	-77.82
873.088	-90.11
873.261	-28.67
873.434	81.92
873.607	-71.68
873.78	61.44
873.953	-98.3
874.126	20.48
874.299	45.06
874.471	-47.1
874.644	-36.86
874.817	45.06
874.99	100.35
875.163	-20.48
875.335	14.34
875.508	-45.06
875.681	88.06
875.853	-43.01
876.026	16.38
876.199	98.3
876.371	-51.2
876.544	-45.06
876.717	-45.06
876.889	36.86
877.062	2.05
877.234	-126.97
877.407	-36.86
877.579	-28.67
877.752	-10.24
877.924	16.38
878.097	67.58
878.269	-20.48
878.442	-26.62
878.614	34.82
878.786	-69.63
878.959	-6.14
879.131	-53.25
879.303	-135.17
879.476	-45.06
879.648	6.14
879.82	-63.49
879.993	-36.86
880.165	-30.72
880.337	-45.06
880.509	57.34
880.681	-137.21
880.854	-24.58
881.026	20.48
881.198	165.89
881.37	-135.17
881.542	63.49
881.714	-36.86
881.886	8.19
882.058	22.53
882.23	-26.62
882.402	-16.38
882.574	47.1
882.746	65.54
882.918	81.92
883.09	22.53
883.262	-34.82
883.434	-2.05
883.606	-112.64
883.778	-57.34
883.95	108.54
884.122	-51.2
884.293	20.48
884.465	18.43
884.637	92.16
884.809	-51.2
884.98	-94.21
885.152	94.21
885.324	139.26
885.496	-63.49
885.667	-139.26
885.839	-22.53
886.011	77.82
886.182	34.82
886.354	28.67
886.525	38.91
886.697	53.25
886.869	-30.72
887.04	-14.34
887.212	172.03
887.383	135.17
887.555	53.25
887.726	-75.77
887.897	-47.1
888.069	-77.82
888.24	92.16
888.412	30.72
888.583	-67.58
888.754	-8.19
888.926	-169.98
889.097	-61.44
889.268	-59.39
889.44	32.77
889.611	-65.53
889.782	-38.91
889.953	-110.59
890.125	75.77
890.296	-34.82
890.467	-20.48
890.638	-40.96
890.809	-30.72
890.98	-8.19
891.151	-26.62
891.323	83.97
891.494	2.05
891.665	-47.1
891.836	-6.14
892.007	-34.82
892.178	71.68
892.349	0
892.52	-10.24
892.691	22.53
892.862	-49.15
893.032	-104.45
893.203	-86.01
893.374	6.14
893.545	34.82
893.716	-75.77
893.887	79.87
894.057	-26.62
894.228	-14.34
894.399	-26.62
894.57	24.58
894.74	57.34
894.911	10.24
895.082	-102.4
895.253	-40.96
895.423	-10.24
895.594	79.87
895.764	-69.63
895.935	-47.1
896.106	63.49
896.276	-36.86
896.447	79.87
896.617	-79.87
896.788	-55.3
896.958	-4.1
897.129	-86.01
897.299	-2.05
897.47	110.59
897.64	61.44
897.81	-10.24
897.981	26.62
898.151	-45.06
898.322	-14.34
898.492	92.16
898.662	-112.64
898.832	-53.25
899.003	12.29
899.173	83.97
899.343	-86.01
899.513	-32.77
