Data from USB4F104151__59__10-43-45-774.txt Node

Date: Wed Feb 26 10:43:45 EST 2025
User: louis
Spectrometer: USB4F10415
Trigger mode: 4
Integration Time (sec): 1.000000E-1
Scans to average: 1
Electric dark correction enabled: true
Nonlinearity correction enabled: false
Boxcar width: 0
XAxis mode: Wavelengths
Number of Pixels in Spectrum: 3648
>>>>>Begin Spectral Data<<<<<
178.204	-416.25
178.424	-416.25
178.644	-416.25
178.864	-379.39
179.084	-313.85
179.304	-41.47
179.524	13.82
179.744	17.92
179.964	-16.9
180.184	24.06
180.404	79.36
180.624	-23.04
180.844	-35.33
181.064	-41.47
181.283	7.68
181.503	-23.04
181.723	38.4
181.943	-25.09
182.163	179.71
182.383	17.92
182.602	28.16
182.822	130.56
183.042	138.75
183.262	-20.99
183.482	42.5
183.701	62.98
183.921	69.12
184.141	-12.8
184.361	36.35
184.58	58.88
184.8	83.45
185.02	-45.57
185.239	44.54
185.459	124.41
185.679	138.75
185.898	-27.14
186.118	69.12
186.338	42.5
186.557	112.13
186.777	-59.9
186.997	38.4
187.216	1.54
187.436	151.04
187.655	148.99
187.875	69.12
188.095	50.69
188.314	91.65
188.534	163.33
188.753	22.02
188.973	83.45
189.192	95.74
189.412	-8.7
189.631	-33.28
189.851	108.03
190.07	235
190.29	-80.38
190.509	24.06
190.729	46.59
190.948	73.21
191.168	296.44
191.387	83.45
191.607	-10.75
191.826	73.21
192.045	30.21
192.265	40.45
192.484	46.59
192.704	73.21
192.923	-25.09
193.142	136.7
193.362	73.21
193.581	132.61
193.8	103.93
194.02	50.69
194.239	-14.85
194.458	103.93
194.678	56.83
194.897	30.21
195.116	62.98
195.335	-0.51
195.555	65.02
195.774	-43.52
195.993	177.66
196.212	79.36
196.432	-4.61
196.651	77.31
196.87	11.78
197.089	249.34
197.308	83.45
197.528	36.35
197.747	-33.28
197.966	42.5
198.185	114.17
198.404	-27.14
198.623	75.26
198.842	126.46
199.062	124.41
199.281	105.98
199.5	-16.9
199.719	81.41
199.938	24.06
200.157	50.69
200.376	40.45
200.595	65.02
200.814	101.89
201.033	-51.71
201.252	151.04
201.471	48.64
201.69	46.59
201.909	-14.85
202.128	132.61
202.347	34.3
202.566	140.8
202.785	-33.28
203.004	1.54
203.223	308.73
203.442	-23.04
203.661	15.87
203.879	79.36
204.098	185.85
204.317	-59.9
204.536	85.5
204.755	114.17
204.974	83.45
205.193	-25.09
205.411	146.94
205.63	93.69
205.849	95.74
206.068	52.74
206.287	-2.56
206.505	114.17
206.724	95.74
206.943	93.69
207.162	42.5
207.381	13.82
207.599	15.87
207.818	-51.71
208.037	-57.86
208.255	54.78
208.474	62.98
208.693	32.26
208.911	15.87
209.13	116.22
209.349	103.93
209.567	169.47
209.786	97.79
210.005	56.83
210.223	42.5
210.442	-2.56
210.661	-2.56
210.879	54.78
211.098	-31.23
211.316	42.5
211.535	36.35
211.753	105.98
211.972	148.99
212.191	11.78
212.409	-31.23
212.628	69.12
212.846	-76.29
213.065	75.26
213.283	91.65
213.502	32.26
213.72	52.74
213.938	40.45
214.157	75.26
214.375	85.5
214.594	34.3
214.812	79.36
215.031	9.73
215.249	58.88
215.467	7.68
215.686	40.45
215.904	116.22
216.122	44.54
216.341	146.94
216.559	15.87
216.778	103.93
216.996	153.09
217.214	62.98
217.432	36.35
217.651	9.73
217.869	58.88
218.087	56.83
218.306	34.3
218.524	32.26
218.742	-23.04
218.96	99.84
219.179	34.3
219.397	81.41
219.615	282.11
219.833	95.74
220.051	-16.9
220.27	138.75
220.488	134.65
220.706	65.02
220.924	1.54
221.142	-72.19
221.36	91.65
221.578	46.59
221.796	46.59
222.015	87.55
222.233	120.32
222.451	146.94
222.669	-45.57
222.887	65.02
223.105	-10.75
223.323	26.11
223.541	1.54
223.759	79.36
223.977	-8.7
224.195	99.84
224.413	130.56
224.631	79.36
224.849	38.4
225.067	235
225.285	42.5
225.503	-25.09
225.721	-107.01
225.939	75.26
226.157	36.35
226.375	218.62
226.592	-12.8
226.81	1.54
227.028	103.93
227.246	75.26
227.464	36.35
227.682	101.89
227.9	85.5
228.117	28.16
228.335	97.79
228.553	44.54
228.771	44.54
228.989	71.17
229.206	71.17
229.424	9.73
229.642	54.78
229.86	54.78
230.077	151.04
230.295	28.16
230.513	128.51
230.731	69.12
230.948	179.71
231.166	153.09
231.384	36.35
231.601	-74.24
231.819	218.62
232.037	17.92
232.254	-64
232.472	44.54
232.689	7.68
232.907	138.75
233.125	46.59
233.342	30.21
233.56	50.69
233.777	5.63
233.995	44.54
234.213	132.61
234.43	89.6
234.648	77.31
234.865	71.17
235.083	120.32
235.3	-0.51
235.518	128.51
235.735	144.89
235.953	122.37
236.17	83.45
236.388	93.69
236.605	87.55
236.822	110.08
237.04	181.76
237.257	42.5
237.475	-41.47
237.692	62.98
237.909	85.5
238.127	11.78
238.344	91.65
238.562	54.78
238.779	-41.47
238.996	-59.9
239.214	67.07
239.431	36.35
239.648	67.07
239.865	122.37
240.083	112.13
240.3	-4.61
240.517	34.3
240.735	73.21
240.952	124.41
241.169	103.93
241.386	93.69
241.603	48.64
241.821	30.21
242.038	56.83
242.255	58.88
242.472	-31.23
242.689	3.58
242.907	83.45
243.124	11.78
243.341	65.02
243.558	3.58
243.775	-98.81
243.992	-57.86
244.209	128.51
244.426	144.89
244.643	73.21
244.86	26.11
245.078	144.89
245.295	69.12
245.512	56.83
245.729	-12.8
245.946	46.59
246.163	32.26
246.38	11.78
246.597	130.56
246.814	54.78
247.031	-10.75
247.248	32.26
247.464	54.78
247.681	46.59
247.898	54.78
248.115	87.55
248.332	17.92
248.549	128.51
248.766	167.42
248.983	28.16
249.2	54.78
249.417	83.45
249.633	62.98
249.85	120.32
250.067	-2.56
250.284	-33.28
250.501	124.41
250.717	30.21
250.934	-64
251.151	108.03
251.368	28.16
251.585	132.61
251.801	73.21
252.018	-27.14
252.235	67.07
252.451	-104.96
252.668	40.45
252.885	103.93
253.102	-10.75
253.318	-16.9
253.535	26.11
253.752	-39.42
253.968	-29.18
254.185	-74.24
254.401	-16.9
254.618	75.26
254.835	3.58
255.051	171.52
255.268	108.03
255.484	87.55
255.701	42.5
255.917	73.21
256.134	62.98
256.351	36.35
256.567	-43.52
256.784	-4.61
257	-10.75
257.217	67.07
257.433	81.41
257.65	52.74
257.866	110.08
258.082	-31.23
258.299	-57.86
258.515	40.45
258.732	26.11
258.948	-4.61
259.165	52.74
259.381	-29.18
259.597	108.03
259.814	-23.04
260.03	54.78
260.246	15.87
260.463	93.69
260.679	181.76
260.895	52.74
261.112	108.03
261.328	-20.99
261.544	13.82
261.761	153.09
261.977	17.92
262.193	19.97
262.409	65.02
262.626	1.54
262.842	95.74
263.058	34.3
263.274	112.13
263.49	67.07
263.707	58.88
263.923	-6.66
264.139	-16.9
264.355	-10.75
264.571	157.18
264.787	108.03
265.004	110.08
265.22	81.41
265.436	36.35
265.652	42.5
265.868	105.98
266.084	-70.14
266.3	65.02
266.516	-33.28
266.732	65.02
266.948	91.65
267.164	32.26
267.38	56.83
267.596	93.69
267.812	136.7
268.028	87.55
268.244	-25.09
268.46	52.74
268.676	-10.75
268.892	50.69
269.108	-18.94
269.324	-37.38
269.54	-41.47
269.756	138.75
269.972	-61.95
270.188	36.35
270.403	-37.38
270.619	-10.75
270.835	118.27
271.051	77.31
271.267	128.51
271.483	-20.99
271.698	124.41
271.914	58.88
272.13	32.26
272.346	-14.85
272.562	69.12
272.777	128.51
272.993	42.5
273.209	54.78
273.425	163.33
273.64	-55.81
273.856	79.36
274.072	-8.7
274.287	58.88
274.503	118.27
274.719	83.45
274.934	50.69
275.15	-74.24
275.366	34.3
275.581	-49.66
275.797	44.54
276.012	7.68
276.228	38.4
276.444	83.45
276.659	167.42
276.875	40.45
277.09	30.21
277.306	28.16
277.521	116.22
277.737	97.79
277.952	89.6
278.168	87.55
278.383	28.16
278.599	138.75
278.814	130.56
279.03	11.78
279.245	93.69
279.461	71.17
279.676	122.37
279.892	-41.47
280.107	-53.76
280.322	-31.23
280.538	34.3
280.753	3.58
280.969	40.45
281.184	38.4
281.399	103.93
281.615	91.65
281.83	32.26
282.045	15.87
282.26	13.82
282.476	7.68
282.691	136.7
282.906	65.02
283.122	91.65
283.337	-35.33
283.552	52.74
283.767	62.98
283.983	95.74
284.198	-35.33
284.413	75.26
284.628	-10.75
284.843	28.16
285.058	81.41
285.274	48.64
285.489	60.93
285.704	11.78
285.919	-20.99
286.134	36.35
286.349	30.21
286.564	46.59
286.779	179.71
286.995	3.58
287.21	-53.76
287.425	93.69
287.64	34.3
287.855	75.26
288.07	44.54
288.285	169.47
288.5	128.51
288.715	126.46
288.93	13.82
289.145	-35.33
289.36	138.75
289.575	-47.62
289.79	140.8
290.004	3.58
290.219	83.45
290.434	38.4
290.649	19.97
290.864	-25.09
291.079	85.5
291.294	62.98
291.509	42.5
291.724	50.69
291.938	-10.75
292.153	50.69
292.368	50.69
292.583	77.31
292.798	89.6
293.012	93.69
293.227	-0.51
293.442	46.59
293.657	54.78
293.871	161.28
294.086	44.54
294.301	196.09
294.516	167.42
294.73	83.45
294.945	-23.04
295.16	22.02
295.374	105.98
295.589	99.84
295.804	34.3
296.018	11.78
296.233	161.28
296.447	7.68
296.662	44.54
296.877	122.37
297.091	52.74
297.306	26.11
297.52	56.83
297.735	17.92
297.949	75.26
298.164	103.93
298.378	52.74
298.593	-27.14
298.807	-43.52
299.022	22.02
299.236	148.99
299.451	22.02
299.665	48.64
299.88	54.78
300.094	40.45
300.309	11.78
300.523	46.59
300.737	3.58
300.952	58.88
301.166	60.93
301.381	-18.94
301.595	38.4
301.809	54.78
302.024	30.21
302.238	-51.71
302.452	138.75
302.667	46.59
302.881	171.52
303.095	58.88
303.309	58.88
303.524	-10.75
303.738	17.92
303.952	22.02
304.166	116.22
304.381	-76.29
304.595	134.65
304.809	54.78
305.023	132.61
305.237	91.65
305.452	1.54
305.666	54.78
305.88	142.85
306.094	120.32
306.308	91.65
306.522	95.74
306.736	99.84
306.95	169.47
307.164	26.11
307.379	-45.57
307.593	187.9
307.807	99.84
308.021	130.56
308.235	140.8
308.449	-90.62
308.663	73.21
308.877	181.76
309.091	58.88
309.305	103.93
309.519	-14.85
309.733	108.03
309.947	-10.75
310.161	83.45
310.374	136.7
310.588	114.17
310.802	-80.38
311.016	56.83
311.23	65.02
311.444	-102.91
311.658	40.45
311.872	116.22
312.085	136.7
312.299	181.76
312.513	181.76
312.727	34.3
312.941	-41.47
313.154	151.04
313.368	-55.81
313.582	81.41
313.796	3.58
314.009	71.17
314.223	144.89
314.437	11.78
314.651	97.79
314.864	-16.9
315.078	19.97
315.292	-109.05
315.505	75.26
315.719	65.02
315.933	56.83
316.146	-25.09
316.36	-94.72
316.573	112.13
316.787	50.69
317.001	179.71
317.214	19.97
317.428	58.88
317.641	7.68
317.855	124.41
318.068	112.13
318.282	132.61
318.495	206.33
318.709	83.45
318.922	26.11
319.136	153.09
319.349	91.65
319.563	62.98
319.776	148.99
319.99	-10.75
320.203	108.03
320.417	42.5
320.63	56.83
320.843	134.65
321.057	15.87
321.27	22.02
321.483	112.13
321.697	101.89
321.91	26.11
322.124	124.41
322.337	124.41
322.55	62.98
322.763	17.92
322.977	44.54
323.19	77.31
323.403	3.58
323.617	91.65
323.83	124.41
324.043	30.21
324.256	73.21
324.469	-51.71
324.683	153.09
324.896	116.22
325.109	17.92
325.322	-59.9
325.535	58.88
325.748	99.84
325.962	75.26
326.175	-8.7
326.388	132.61
326.601	95.74
326.814	114.17
327.027	28.16
327.24	99.84
327.453	7.68
327.666	83.45
327.879	144.89
328.092	118.27
328.305	87.55
328.518	52.74
328.731	69.12
328.944	-33.28
329.157	1.54
329.37	67.07
329.583	245.24
329.796	153.09
330.009	-29.18
330.222	159.23
330.435	91.65
330.648	73.21
330.861	50.69
331.073	42.5
331.286	108.03
331.499	108.03
331.712	-59.9
331.925	142.85
332.138	15.87
332.35	171.52
332.563	22.02
332.776	75.26
332.989	-23.04
333.202	38.4
333.414	30.21
333.627	40.45
333.84	-70.14
334.053	17.92
334.265	30.21
334.478	-57.86
334.691	114.17
334.903	46.59
335.116	-59.9
335.329	7.68
335.541	46.59
335.754	114.17
335.966	30.21
336.179	54.78
336.392	30.21
336.604	-29.18
336.817	93.69
337.029	153.09
337.242	83.45
337.454	91.65
337.667	38.4
337.88	196.09
338.092	52.74
338.305	97.79
338.517	67.07
338.729	69.12
338.942	181.76
339.154	-84.48
339.367	-6.66
339.579	-0.51
339.792	-8.7
340.004	159.23
340.217	38.4
340.429	101.89
340.641	5.63
340.854	-31.23
341.066	30.21
341.278	108.03
341.491	173.57
341.703	7.68
341.915	30.21
342.128	116.22
342.34	146.94
342.552	-18.94
342.764	85.5
342.977	65.02
343.189	138.75
343.401	89.6
343.613	1.54
343.826	15.87
344.038	-64
344.25	62.98
344.462	-23.04
344.674	54.78
344.886	40.45
345.099	128.51
345.311	67.07
345.523	48.64
345.735	-117.25
345.947	17.92
346.159	122.37
346.371	99.84
346.583	48.64
346.795	202.24
347.007	67.07
347.219	54.78
347.431	24.06
347.643	75.26
347.855	52.74
348.067	161.28
348.279	-57.86
348.491	97.79
348.703	54.78
348.915	87.55
349.127	42.5
349.339	-0.51
349.551	-68.09
349.763	93.69
349.975	65.02
350.187	36.35
350.399	128.51
350.61	42.5
350.822	62.98
351.034	26.11
351.246	87.55
351.458	97.79
351.669	58.88
351.881	52.74
352.093	112.13
352.305	128.51
352.517	26.11
352.728	105.98
352.94	89.6
353.152	67.07
353.363	-20.99
353.575	155.13
353.787	134.65
353.999	38.4
354.21	163.33
354.422	1.54
354.633	-43.52
354.845	75.26
355.057	5.63
355.268	28.16
355.48	85.5
355.692	3.58
355.903	3.58
356.115	-14.85
356.326	-43.52
356.538	142.85
356.749	56.83
356.961	140.8
357.172	77.31
357.384	75.26
357.595	202.24
357.807	81.41
358.018	-39.42
358.23	126.46
358.441	93.69
358.653	69.12
358.864	73.21
359.075	11.78
359.287	38.4
359.498	132.61
359.709	163.33
359.921	58.88
360.132	93.69
360.344	58.88
360.555	7.68
360.766	85.5
360.977	62.98
361.189	101.89
361.4	-47.62
361.611	116.22
361.823	67.07
362.034	-37.38
362.245	-33.28
362.456	108.03
362.667	128.51
362.879	-27.14
363.09	30.21
363.301	1.54
363.512	40.45
363.723	36.35
363.935	122.37
364.146	77.31
364.357	91.65
364.568	58.88
364.779	34.3
364.99	144.89
365.201	-16.9
365.412	91.65
365.623	-121.34
365.834	95.74
366.045	-16.9
366.256	95.74
366.467	91.65
366.678	97.79
366.889	83.45
367.1	11.78
367.311	103.93
367.522	-10.75
367.733	46.59
367.944	108.03
368.155	42.5
368.366	77.31
368.577	89.6
368.788	120.32
368.999	-55.81
369.209	89.6
369.42	218.62
369.631	192
369.842	118.27
370.053	62.98
370.264	112.13
370.474	-92.67
370.685	42.5
370.896	-14.85
371.107	108.03
371.317	105.98
371.528	52.74
371.739	171.52
371.95	95.74
372.16	91.65
372.371	9.73
372.582	52.74
372.792	103.93
373.003	93.69
373.214	85.5
373.424	116.22
373.635	-115.2
373.846	124.41
374.056	108.03
374.267	105.98
374.477	101.89
374.688	44.54
374.898	11.78
375.109	15.87
375.319	79.36
375.53	79.36
375.74	89.6
375.951	50.69
376.161	67.07
376.372	93.69
376.582	-33.28
376.793	26.11
377.003	58.88
377.214	-2.56
377.424	93.69
377.635	11.78
377.845	85.5
378.055	226.81
378.266	-90.62
378.476	67.07
378.686	15.87
378.897	87.55
379.107	93.69
379.317	97.79
379.528	44.54
379.738	62.98
379.948	28.16
380.158	130.56
380.369	24.06
380.579	67.07
380.789	3.58
380.999	75.26
381.21	134.65
381.42	245.24
381.63	60.93
381.84	155.13
382.05	103.93
382.261	110.08
382.471	97.79
382.681	73.21
382.891	214.52
383.101	77.31
383.311	3.58
383.521	13.82
383.731	120.32
383.941	138.75
384.151	38.4
384.361	15.87
384.571	56.83
384.781	50.69
384.991	275.96
385.201	206.33
385.411	97.79
385.621	79.36
385.831	97.79
386.041	24.06
386.251	32.26
386.461	130.56
386.671	5.63
386.881	50.69
387.091	42.5
387.301	71.17
387.511	73.21
387.72	157.18
387.93	138.75
388.14	28.16
388.35	91.65
388.56	99.84
388.769	157.18
388.979	9.73
389.189	11.78
389.399	42.5
389.609	34.3
389.818	99.84
390.028	52.74
390.238	136.7
390.447	-41.47
390.657	95.74
390.867	-43.52
391.076	7.68
391.286	87.55
391.496	26.11
391.705	9.73
391.915	157.18
392.125	124.41
392.334	24.06
392.544	157.18
392.753	114.17
392.963	9.73
393.172	62.98
393.382	-6.66
393.591	200.19
393.801	91.65
394.01	87.55
394.22	60.93
394.429	46.59
394.639	60.93
394.848	91.65
395.058	62.98
395.267	19.97
395.477	103.93
395.686	122.37
395.895	226.81
396.105	173.57
396.314	73.21
396.524	3.58
396.733	46.59
396.942	142.85
397.152	122.37
397.361	79.36
397.57	108.03
397.78	93.69
397.989	93.69
398.198	183.81
398.407	36.35
398.617	13.82
398.826	108.03
399.035	69.12
399.244	120.32
399.453	9.73
399.663	83.45
399.872	108.03
400.081	1.54
400.29	177.66
400.499	36.35
400.708	128.51
400.917	9.73
401.127	30.21
401.336	24.06
401.545	173.57
401.754	146.94
401.963	159.23
402.172	1.54
402.381	-2.56
402.59	-6.66
402.799	97.79
403.008	105.98
403.217	13.82
403.426	83.45
403.635	-64
403.844	22.02
404.053	67.07
404.262	52.74
404.471	118.27
404.68	60.93
404.888	116.22
405.097	24.06
405.306	169.47
405.515	95.74
405.724	36.35
405.933	132.61
406.142	28.16
406.35	157.18
406.559	-0.51
406.768	91.65
406.977	187.9
407.185	85.5
407.394	91.65
407.603	-8.7
407.812	105.98
408.02	58.88
408.229	99.84
408.438	-0.51
408.646	3.58
408.855	30.21
409.064	-2.56
409.272	-23.04
409.481	148.99
409.69	-33.28
409.898	-64
410.107	97.79
410.315	112.13
410.524	-10.75
410.733	110.08
410.941	38.4
411.15	79.36
411.358	99.84
411.567	97.79
411.775	120.32
411.984	89.6
412.192	89.6
412.401	56.83
412.609	212.48
412.818	183.81
413.026	138.75
413.234	-10.75
413.443	91.65
413.651	38.4
413.86	89.6
414.068	101.89
414.276	189.95
414.485	83.45
414.693	202.24
414.901	148.99
415.11	91.65
415.318	93.69
415.526	-2.56
415.734	138.75
415.943	73.21
416.151	99.84
416.359	15.87
416.567	89.6
416.776	95.74
416.984	118.27
417.192	230.91
417.4	83.45
417.608	79.36
417.817	-35.33
418.025	97.79
418.233	247.29
418.441	-8.7
418.649	-51.71
418.857	89.6
419.065	204.28
419.273	-4.61
419.481	56.83
419.689	69.12
419.897	22.02
420.105	22.02
420.313	103.93
420.521	239.1
420.729	108.03
420.937	101.89
421.145	24.06
421.353	91.65
421.561	146.94
421.769	159.23
421.977	-49.66
422.185	114.17
422.393	46.59
422.601	241.15
422.809	108.03
423.017	108.03
423.224	136.7
423.432	91.65
423.64	97.79
423.848	118.27
424.056	22.02
424.263	202.24
424.471	50.69
424.679	171.52
424.887	83.45
425.094	134.65
425.302	165.37
425.51	44.54
425.718	151.04
425.925	171.52
426.133	48.64
426.341	241.15
426.548	-4.61
426.756	75.26
426.964	120.32
427.171	-10.75
427.379	118.27
427.586	128.51
427.794	105.98
428.001	189.95
428.209	105.98
428.417	148.99
428.624	189.95
428.832	120.32
429.039	140.8
429.247	130.56
429.454	112.13
429.662	214.52
429.869	169.47
430.076	142.85
430.284	185.85
430.491	286.2
430.699	241.15
430.906	278.01
431.114	148.99
431.321	220.67
431.528	136.7
431.736	101.89
431.943	282.11
432.15	189.95
432.358	208.38
432.565	312.83
432.772	167.42
432.979	173.57
433.187	157.18
433.394	214.52
433.601	187.9
433.808	232.96
434.016	331.26
434.223	278.01
434.43	224.76
434.637	292.35
434.844	308.73
435.052	230.91
435.259	314.88
435.466	372.22
435.673	267.77
435.88	357.88
436.087	488.95
436.294	423.42
436.501	437.75
436.708	374.27
436.915	378.36
437.122	404.99
437.329	353.79
437.537	470.52
437.743	327.16
437.95	544.25
438.157	466.42
438.364	507.38
438.571	460.28
438.778	564.73
438.985	574.97
439.192	603.64
439.399	564.73
439.606	566.78
439.813	646.65
440.02	695.8
440.227	818.68
440.433	736.76
440.64	681.46
440.847	605.69
441.054	790
441.261	855.54
441.467	769.52
441.674	769.52
441.881	857.59
442.088	869.87
442.294	990.7
442.501	1029.62
442.708	1019.38
442.914	966.13
443.121	1041.9
443.328	1119.73
443.534	1246.7
443.741	1078.77
443.948	994.8
444.154	1277.42
444.361	1383.91
444.568	1295.85
444.774	1351.15
444.981	1263.08
445.187	1459.69
445.394	1648.1
445.6	1469.93
445.807	1619.43
446.013	1627.62
446.22	1580.52
446.426	1674.73
446.633	1885.67
446.839	2045.41
447.046	1799.65
447.252	2053.6
447.459	2112.99
447.665	2129.38
447.871	2252.25
448.078	2520.54
448.284	2348.51
448.491	2477.53
448.697	2575.83
448.903	2715.09
449.11	2917.84
449.316	2799.06
449.522	3046.87
449.728	3120.59
449.935	3188.18
450.141	3175.89
450.347	3634.63
450.553	3409.36
450.76	3378.64
450.966	3694.02
451.172	3816.9
451.378	4126.15
451.584	4111.81
451.791	4363.71
451.997	4462.01
452.203	4564.41
452.409	4664.76
452.615	5033.4
452.821	4867.51
453.027	4953.52
453.233	5649.83
453.44	5373.36
453.646	5615.02
453.852	5975.46
454.058	6198.69
454.264	6487.45
454.47	6679.96
454.676	6915.48
454.882	7536.01
455.088	7083.41
455.294	7454.09
455.5	7863.69
455.705	8410.5
455.911	8461.69
456.117	8535.42
456.323	9020.79
456.529	9078.13
456.735	9813.35
456.941	9942.38
457.147	10343.78
457.352	10751.32
457.558	11031.9
457.764	11752.78
457.97	11988.3
458.176	12440.9
458.381	13221.17
458.587	13237.56
458.793	13960.49
458.999	14044.46
459.204	15613.2
459.41	16463.11
459.616	16004.36
459.821	16852.22
460.027	17970.41
460.233	18771.17
460.438	18648.29
460.644	19604.69
460.85	20018.38
461.055	20739.27
461.261	21824.69
461.466	21161.15
461.672	21685.43
461.878	23983.25
462.083	23831.7
462.289	24423.56
462.494	25574.52
462.7	25803.89
462.905	26238.06
463.111	27798.62
463.316	29604.92
463.522	30051.38
463.727	30870.57
463.932	32357.39
464.138	32828.43
464.343	34716.65
464.549	34448.37
464.754	37227.46
464.959	38175.67
465.165	38804.4
465.37	38585.27
465.575	38548.4
465.781	41403.27
465.986	42173.31
466.191	41591.69
466.397	41794.43
466.602	41116.56
466.807	43109.23
467.012	44172.13
467.218	44671.83
467.423	45345.61
467.628	46117.7
467.833	48560.92
468.038	47668.01
468.244	46744.37
468.449	49058.58
468.654	48065.31
468.859	47987.49
469.064	47799.08
469.269	47133.49
469.474	47606.57
469.679	48757.53
469.885	47266.61
470.09	48286.5
470.295	48380.7
470.5	47289.13
470.705	47444.78
470.91	46140.22
471.115	45945.67
471.32	46570.3
471.525	46183.23
471.73	45015.89
471.935	44759.89
472.139	43166.57
472.344	42804.08
472.549	42965.87
472.754	41972.61
472.959	41474.95
473.164	39787.42
473.369	39334.82
473.574	40559.51
473.778	39549.86
473.983	38779.82
474.188	38167.48
474.393	36461.52
474.598	36240.34
474.802	35458.02
475.007	35216.36
475.212	34677.74
475.417	33696.77
475.621	33448.96
475.826	32644.11
476.031	31544.35
476.235	31378.47
476.44	31781.92
476.645	30436.4
476.849	30194.74
477.054	29862.97
477.259	29289.54
477.463	29189.19
477.668	28326.99
477.872	28554.32
478.077	27698.27
478.282	26850.41
478.486	26569.83
478.691	26199.15
478.895	26002.55
479.1	25926.77
479.304	25701.5
479.509	25091.2
479.713	25115.78
479.918	24353.93
480.122	23952.53
480.326	24343.69
480.531	24140.94
480.735	23876.76
480.94	23463.07
481.144	24229.01
481.348	22891.68
481.553	23063.71
481.757	22418.6
481.961	23123.1
482.166	23219.36
482.37	22645.93
482.574	21814.45
482.778	22348.97
482.983	22592.68
483.187	21781.68
483.391	21605.56
483.595	21439.67
483.8	21464.25
484.004	21136.57
484.208	21511.35
484.412	20966.59
484.616	20739.27
484.821	20536.52
485.025	19870.93
485.229	19969.23
485.433	19430.62
485.637	19363.03
485.841	19127.52
486.045	18969.82
486.249	18861.28
486.453	18414.82
486.657	18341.1
486.861	18220.27
487.065	17227
487.269	17607.92
487.473	16653.57
487.677	17104.12
487.881	16790.78
488.085	16286.98
488.289	16227.59
488.493	15658.26
488.697	15533.33
488.901	15564.05
489.105	14863.65
489.309	14716.19
489.512	14945.56
489.716	14052.65
489.92	13970.73
490.124	13821.23
490.328	13788.46
490.531	13294.9
490.735	13161.78
490.939	12940.6
491.143	12576.06
491.346	12240.2
491.55	12303.68
491.754	12012.87
491.958	11869.51
492.161	11578.7
492.365	11441.49
492.569	11322.71
492.772	11328.85
492.976	11021.66
493.18	10718.56
493.383	10784.09
493.587	10653.02
493.79	10722.65
493.994	10313.06
494.197	10081.64
494.401	10263.91
494.605	9991.53
494.808	10018.15
495.012	9839.98
495.215	9799.02
495.419	9850.22
495.622	9475.44
495.825	9610.61
496.029	9534.83
496.232	9610.61
496.436	9229.68
496.639	9676.14
496.843	9342.32
497.046	9373.04
497.249	9592.17
497.453	9557.36
497.656	9315.7
497.859	9487.73
498.063	9327.99
498.266	9520.49
498.469	9174.39
498.673	9332.08
498.876	9489.78
499.079	9450.86
499.282	9497.97
499.485	10050.92
499.689	9659.76
499.892	9923.94
500.095	9772.39
500.298	9866.6
500.501	9803.11
500.705	10003.82
500.908	9880.94
501.111	10012.01
501.314	10268
501.517	10173.8
501.72	10474.85
501.923	10591.58
502.126	10581.34
502.329	10777.95
502.532	10780
502.735	11027.8
502.938	11093.33
503.141	11248.98
503.344	11236.69
503.547	11472.21
503.75	11468.11
503.953	11650.38
504.156	11900.23
504.359	12250.44
504.562	12066.12
504.765	12330.31
504.968	12565.82
505.17	12823.87
505.373	12961.08
505.576	13126.97
505.779	13266.23
505.982	13440.31
506.185	13950.25
506.387	14183.72
506.59	14124.33
506.793	14605.6
506.996	14568.74
507.198	15281.43
507.401	15332.63
507.604	15469.84
507.807	15856.91
508.009	16397.57
508.212	16413.96
508.415	16712.96
508.617	17429.75
508.82	17601.78
509.022	17722.61
509.225	17863.92
509.428	18384.1
509.63	18656.48
509.833	19143.9
510.035	19799.25
510.238	20192.46
510.44	20278.47
510.643	21107.9
510.845	21302.46
511.048	21591.22
511.25	21970.1
511.453	22772.9
511.655	23590.04
511.858	23745.69
512.06	24235.15
512.262	24884.36
512.465	25144.45
512.667	25853.05
512.87	26330.22
513.072	26702.95
513.274	27671.64
513.477	28300.37
513.679	28765.26
513.881	29307.97
514.084	30094.39
514.286	30690.35
514.488	30899.24
514.69	32220.18
514.893	32949.26
515.095	33217.54
515.297	33950.71
515.499	34589.68
515.701	35492.83
515.904	36133.85
516.106	37100.49
516.308	37393.35
516.51	38556.6
516.712	38722.48
516.914	39457.7
517.116	40623
517.318	40862.61
517.52	41569.16
517.722	42277.75
517.925	43379.56
518.127	44284.76
518.329	45028.18
518.531	45091.66
518.733	46515
518.935	46922.55
519.136	47651.62
519.338	48327.45
519.54	49218.32
519.742	49873.67
519.944	50498.3
520.146	51358.45
520.348	51858.15
520.55	52259.55
520.752	52538.08
520.954	53693.13
521.155	53967.56
521.357	54917.82
521.559	55421.62
521.761	56228.52
521.963	55601.84
522.164	57103
522.366	57236.12
522.568	58108.55
522.77	58213
522.971	59349.62
523.173	58784.38
523.375	59380.34
523.576	59206.26
523.778	59734.64
523.98	60463.72
524.181	60602.98
524.383	60381.8
524.584	60861.02
524.786	60873.31
524.988	60482.15
525.189	61110.88
525.391	61139.55
525.592	61086.3
525.794	61313.62
525.995	61352.54
526.197	61209.18
526.398	61151.83
526.6	61121.12
526.801	60719.71
527.003	61067.87
527.204	60611.17
527.406	60459.62
527.607	60463.72
527.808	60109.42
528.01	58976.89
528.211	59333.24
528.412	59411.06
528.614	59017.85
528.815	58653.31
529.016	58688.13
529.218	57283.22
529.419	57256.6
529.62	56885.92
529.822	56222.37
530.023	55990.95
530.224	55225.01
530.425	54864.57
530.626	53686.99
530.828	52968.15
531.029	53924.55
531.23	52503.26
531.431	52083.43
531.632	51759.85
531.833	51026.68
532.035	50670.33
532.236	50072.32
532.437	49609.48
532.638	48712.47
532.839	48691.99
533.04	47737.64
533.241	46842.68
533.442	47307.57
533.643	45894.47
533.844	45341.52
534.045	44985.17
534.246	43754.34
534.447	43535.21
534.648	42916.72
534.849	42857.33
535.05	41896.83
535.251	41671.56
535.451	40922
535.652	40278.94
535.853	39566.24
536.054	39728.03
536.255	38833.07
536.456	38259.64
536.657	38015.93
536.857	37247.94
537.058	36645.84
537.259	36582.35
537.46	36051.93
537.66	35445.73
537.861	35109.86
538.062	34325.49
538.263	34321.4
538.463	33373.19
538.664	33113.09
538.865	33020.94
539.065	32601.1
539.266	31636.51
539.466	31392.8
539.667	31280.16
539.868	30962.73
540.068	30430.26
540.269	30211.12
540.469	29908.02
540.67	29563.96
540.87	28961.86
541.071	29019.21
541.271	28812.36
541.472	28300.37
541.672	27452.51
541.873	27200.61
542.073	26731.62
542.274	26629.23
542.474	26459.24
542.675	26008.69
542.875	26029.17
543.075	25570.43
543.276	24855.68
543.476	25318.53
543.676	25386.11
543.877	24419.47
544.077	24110.22
544.277	23909.52
544.478	23471.26
544.678	23585.94
544.878	23149.73
545.078	22764.71
545.279	22664.36
545.479	22115.5
545.679	22273.2
545.879	21976.24
546.079	21699.76
546.28	21324.99
546.48	20901.06
546.68	21212.35
546.88	20821.19
547.08	20346.06
547.28	20108.49
547.48	19870.93
547.68	19926.22
547.88	19424.47
548.081	19299.55
548.281	18885.86
548.481	18719.97
548.681	18683.11
548.881	18228.46
549.081	18367.72
549.28	17667.31
549.48	17818.86
549.68	17331.45
549.88	17368.31
550.08	16729.34
550.28	16680.19
550.48	15983.88
550.68	16084.23
550.88	16121.1
551.08	15787.28
551.279	15545.62
551.479	15320.34
551.679	15422.74
551.879	14880.03
552.079	14791.97
552.278	14548.26
552.478	14167.34
552.678	14243.11
552.878	13980.97
553.077	13698.35
553.277	13352.24
553.477	13374.77
553.676	13036.86
553.876	12938.55
554.076	12375.36
554.275	12561.73
554.475	12100.94
554.674	11928.91
554.874	11904.33
555.074	11515.22
555.273	11515.22
555.473	11445.59
555.672	10958.17
555.872	11148.63
556.071	10829.15
556.271	10605.92
556.47	10423.65
556.67	10159.46
556.869	10087.78
557.068	9928.04
557.268	9958.76
557.467	9667.95
557.667	9633.13
557.866	9354.61
558.065	9125.24
558.265	9174.39
558.464	8756.6
558.663	8988.02
558.863	8387.97
559.062	8578.43
559.261	8205.7
559.461	8414.59
559.66	8152.45
559.859	8013.19
560.058	7904.65
560.258	7724.43
560.457	7691.66
560.656	7605.64
560.855	7355.79
561.054	7370.13
561.253	7175.57
561.453	7038.36
561.652	7124.37
561.851	6964.63
562.05	6530.46
562.249	6622.62
562.448	6432.16
562.647	6452.64
562.846	6264.22
563.045	6356.38
563.244	6022.56
563.443	6108.58
563.642	5981.6
563.841	5977.51
564.04	5791.14
564.239	5658.03
564.438	5424.56
564.637	5440.94
564.836	5594.54
565.035	5275.06
565.234	5342.64
565.432	5240.24
565.631	5160.37
565.83	5211.57
566.029	5035.44
566.228	4742.58
566.427	5117.36
566.625	4793.78
566.824	4599.23
567.023	4685.24
567.222	4758.97
567.42	4558.27
567.619	4529.59
567.818	4406.72
568.016	4427.2
568.215	4232.64
568.414	4371.9
568.612	4240.83
568.811	4060.61
569.01	4101.57
569.208	4011.46
569.407	4056.51
569.605	3843.53
569.804	3960.26
570.002	3853.77
570.201	3712.46
570.4	3728.84
570.598	3499.47
570.797	3470.8
570.995	3593.67
571.193	3409.36
571.392	3446.22
571.59	3341.77
571.789	3487.18
571.987	3395.02
572.186	3380.68
572.384	3210.7
572.582	3093.97
572.781	3204.56
572.979	2926.04
573.177	3030.48
573.376	2995.67
573.574	2958.8
573.772	2850.26
573.971	2870.74
574.169	2586.07
574.367	2661.85
574.565	2754.01
574.763	2645.46
574.962	2512.35
575.16	2407.9
575.358	2473.43
575.556	2487.77
575.754	2424.28
575.952	2350.56
576.151	2407.9
576.349	2377.18
576.547	2274.78
576.745	2334.17
576.943	2280.93
577.141	2168.29
577.339	2049.5
577.537	2174.43
577.735	2213.34
577.933	2199.01
578.131	1961.44
578.329	2072.03
578.527	1943.01
578.725	2037.22
578.923	1834.47
579.121	1943.01
579.319	1795.56
579.516	1779.17
579.714	2031.07
579.912	1824.23
580.11	1701.35
580.308	1658.34
580.506	1674.73
580.704	1551.85
580.901	1639.91
581.099	1623.53
581.297	1656.29
581.495	1615.34
581.692	1463.79
581.89	1746.41
582.088	1502.7
582.285	1578.47
582.483	1435.11
582.681	1496.55
582.878	1390.06
583.076	1437.16
583.274	1369.58
583.471	1396.2
583.669	1353.2
583.866	1275.37
584.064	1256.94
584.262	1205.74
584.459	1152.49
584.657	1263.08
584.854	1291.76
585.052	1236.46
585.249	1226.22
585.447	1185.26
585.644	1068.53
585.841	1222.13
586.039	1205.74
586.236	1258.99
586.434	1093.1
586.631	1023.47
586.828	1205.74
587.026	1064.43
587.223	962.03
587.42	1039.86
587.618	964.08
587.815	1084.91
588.012	951.79
588.21	939.51
588.407	947.7
588.604	1058.29
588.801	953.84
588.999	1015.28
589.196	980.47
589.393	871.92
589.59	904.69
589.787	902.64
589.984	906.74
590.182	896.5
590.379	976.37
590.576	849.4
590.773	898.55
590.97	886.26
591.167	947.7
591.364	927.22
591.561	871.92
591.758	937.46
591.955	921.07
592.152	845.3
592.349	818.68
592.546	726.52
592.743	822.77
592.94	859.63
593.137	894.45
593.334	867.83
593.531	902.64
593.727	914.93
593.924	845.3
594.121	798.2
594.318	841.2
594.515	853.49
594.712	1048.05
594.908	1058.29
595.105	845.3
595.302	894.45
595.499	886.26
595.696	1029.62
595.892	888.31
596.089	1095.15
596.286	964.08
596.482	1158.64
596.679	1035.76
596.876	945.65
597.072	1181.17
597.269	1027.57
597.466	1101.3
597.662	1035.76
597.859	1132.01
598.055	1269.23
598.252	1351.15
598.448	1355.24
598.645	1373.68
598.841	1506.79
599.038	1531.37
599.234	1654.25
599.431	1629.67
599.627	1553.9
599.824	1775.08
600.02	1736.17
600.217	1760.74
600.413	1818.08
600.609	1961.44
600.806	2213.34
601.002	2102.75
601.198	2147.81
601.395	2387.42
601.591	2289.12
601.787	2350.56
601.984	2483.67
602.18	2553.31
602.376	2622.94
602.572	2950.61
602.769	2893.27
602.965	3130.83
603.161	3110.35
603.357	3249.61
603.553	3347.92
603.75	3235.28
603.946	3442.12
604.142	3761.61
604.338	3909.06
604.534	3982.79
604.73	3921.35
604.926	4072.9
605.122	4302.27
605.318	4425.15
605.514	4603.32
605.71	4646.33
605.906	4920.76
606.102	5014.96
606.298	5111.22
606.494	5463.47
606.69	5475.76
606.886	5633.45
607.082	5694.89
607.278	6006.18
607.474	6088.1
607.67	6415.77
607.866	6264.22
608.062	6643.1
608.257	6759.83
608.453	6847.9
608.649	7132.56
608.845	7208.34
609.041	7341.46
609.236	7697.8
609.432	7978.37
609.628	8078.72
609.824	8275.33
610.019	8494.46
610.215	8895.86
610.411	9201.01
610.606	9491.82
610.802	9608.56
610.998	9848.17
611.193	10085.73
611.389	10190.18
611.584	10480.99
611.78	10667.36
611.976	11081.05
612.171	11509.07
612.367	11652.43
612.562	11965.77
612.758	12102.98
612.953	12211.53
613.149	12864.83
613.344	13165.88
613.539	13647.15
613.735	14122.28
613.93	14495.01
614.126	14431.52
614.321	15346.97
614.517	15445.27
614.712	15908.11
614.907	16096.52
615.103	16592.13
615.298	17104.12
615.493	17487.09
615.688	17485.05
615.884	18787.55
616.079	18580.71
616.274	19494.1
616.47	19868.88
616.665	20493.51
616.86	20819.14
617.055	21497.02
617.25	21873.84
617.445	22463.66
617.641	22688.93
617.836	23520.41
618.031	23749.78
618.226	24884.36
618.421	25222.27
618.616	26160.24
618.811	26201.2
619.006	27425.89
619.201	27571.29
619.396	28142.67
619.591	28390.48
619.786	29643.84
619.981	29690.94
620.176	30622.76
620.371	30929.96
620.566	31960.09
620.761	32304.15
620.956	33528.83
621.151	33278.98
621.346	34462.71
621.541	34323.44
621.735	35867.61
621.93	36236.25
622.125	36756.43
622.32	37077.96
622.515	38458.29
622.709	38501.3
622.904	39682.98
623.099	39961.5
623.294	41302.92
623.488	41593.73
623.683	42193.79
623.878	42695.54
624.072	43711.33
624.267	44454.75
624.462	45112.14
624.656	45474.63
624.851	46664.5
625.046	46906.16
625.24	47797.03
625.435	48194.34
625.629	49056.53
625.824	49390.35
626.018	50223.87
626.213	49734.41
626.407	50785.02
626.602	50879.22
626.796	52300.51
626.991	52232.93
627.185	52992.73
627.38	53301.97
627.574	53193.43
627.768	53625.55
627.963	53754.57
628.157	53912.27
628.352	54553.28
628.546	53557.97
628.74	55134.9
628.935	54323.91
629.129	54602.43
629.323	53691.08
629.517	54061.77
629.712	53451.47
629.906	53131.99
630.1	52490.98
630.294	52359.91
630.489	51909.35
630.683	51389.17
630.877	50066.18
631.071	49435.41
631.265	49242.9
631.459	48204.58
631.653	46691.13
631.848	45982.53
632.042	44837.72
632.236	44397.4
632.43	42519.42
632.624	42146.68
632.818	40127.39
633.012	39154.6
633.206	38226.87
633.4	37190.6
633.594	35384.29
633.788	35044.33
633.982	33506.3
634.176	32564.24
634.369	31333.41
634.563	29877.3
634.757	28599.37
634.951	27962.45
635.145	27108.45
635.339	25805.94
635.533	24747.14
635.726	23872.66
635.92	22367.4
636.114	21769.4
636.308	20788.42
636.501	19958.99
636.695	19643.6
636.889	18425.06
637.083	17812.72
637.276	16915.71
637.47	16217.35
637.664	15742.22
637.857	14904.6
638.051	14386.47
638.244	13813.04
638.438	13176.12
638.632	12733.76
638.825	12313.92
639.019	11834.7
639.212	11257.17
639.406	10919.26
639.599	10493.28
639.793	10083.69
639.986	9481.58
640.18	9358.71
640.373	8887.67
640.567	8707.45
640.76	8281.47
640.954	7925.13
641.147	7806.34
641.34	7189.91
641.534	7095.7
641.727	6833.56
641.92	6577.56
642.114	6514.08
642.307	6073.76
642.5	5973.41
642.694	5402.03
642.887	5434.8
643.08	5283.25
643.273	5123.51
643.467	4963.76
643.66	4613.56
643.853	4351.42
644.046	4234.69
644.239	4120
644.432	3898.82
644.626	3704.26
644.819	3608.01
645.012	3556.81
645.205	3460.56
645.398	3444.17
645.591	3087.82
645.784	2989.52
645.977	2899.41
646.17	2719.19
646.363	2739.67
646.556	2559.45
646.749	2385.37
646.942	2362.84
647.135	2301.4
647.328	2102.75
647.521	2172.38
647.714	1988.07
647.907	2047.46
648.099	1850.85
648.292	1785.32
648.485	1783.27
648.678	1693.16
648.871	1576.42
649.064	1646.05
649.256	1461.74
649.449	1498.6
649.642	1332.72
649.835	1345
650.027	1281.52
650.22	1281.52
650.413	1218.03
650.605	1224.17
650.798	1142.25
650.991	1000.94
651.183	1117.68
651.376	1054.19
651.568	1072.62
651.761	945.65
651.954	1029.62
652.146	871.92
652.339	966.13
652.531	908.79
652.724	744.95
652.916	830.96
653.109	757.24
653.301	849.4
653.494	822.77
653.686	691.7
653.879	783.86
654.071	622.07
654.263	673.27
654.456	654.84
654.648	716.28
654.84	617.97
655.033	622.07
655.225	634.36
655.417	491
655.61	607.73
655.802	687.61
655.994	677.37
656.186	394.75
656.379	501.24
656.571	488.95
656.763	488.95
656.955	425.47
657.148	415.23
657.34	396.79
657.532	419.32
657.724	464.38
657.916	468.47
658.108	462.33
658.3	470.52
658.492	435.71
658.684	396.79
658.876	402.94
659.068	292.35
659.26	290.3
659.452	378.36
659.644	370.17
659.836	464.38
660.028	359.93
660.22	290.3
660.412	353.79
660.604	364.03
660.796	323.07
660.988	366.07
661.18	286.2
661.372	302.59
661.563	267.77
661.755	321.02
661.947	161.28
662.139	224.76
662.331	202.24
662.522	159.23
662.714	206.33
662.906	212.48
663.097	228.86
663.289	257.53
663.481	134.65
663.673	239.1
663.864	245.24
664.056	216.57
664.247	91.65
664.439	304.64
664.631	265.72
664.822	194.05
665.014	267.77
665.205	120.32
665.397	187.9
665.588	198.14
665.78	189.95
665.971	243.2
666.163	189.95
666.354	255.48
666.546	161.28
666.737	132.61
666.929	140.8
667.12	124.41
667.311	196.09
667.503	157.18
667.694	200.19
667.885	171.52
668.077	220.67
668.268	138.75
668.459	237.05
668.651	185.85
668.842	232.96
669.033	189.95
669.224	60.93
669.416	308.73
669.607	128.51
669.798	134.65
669.989	288.25
670.18	134.65
670.371	187.9
670.563	140.8
670.754	239.1
670.945	241.15
671.136	194.05
671.327	77.31
671.518	181.76
671.709	218.62
671.9	247.29
672.091	165.37
672.282	216.57
672.473	163.33
672.664	77.31
672.855	169.47
673.046	187.9
673.237	237.05
673.428	239.1
673.619	189.95
673.809	173.57
674	302.59
674.191	282.11
674.382	208.38
674.573	249.34
674.764	181.76
674.954	239.1
675.145	151.04
675.336	110.08
675.527	210.43
675.717	175.61
675.908	189.95
676.099	181.76
676.289	146.94
676.48	5.63
676.671	173.57
676.861	183.81
677.052	263.68
677.243	108.03
677.433	132.61
677.624	294.4
677.814	183.81
678.005	232.96
678.195	296.44
678.386	144.89
678.576	177.66
678.767	112.13
678.957	148.99
679.148	273.92
679.338	284.16
679.529	204.28
679.719	179.71
679.909	341.5
680.1	194.05
680.29	245.24
680.481	177.66
680.671	282.11
680.861	189.95
681.052	243.2
681.242	175.61
681.432	251.39
681.622	286.2
681.813	114.17
682.003	273.92
682.193	167.42
682.383	290.3
682.573	194.05
682.764	163.33
682.954	196.09
683.144	304.64
683.334	235
683.524	235
683.714	259.58
683.904	298.49
684.094	189.95
684.284	210.43
684.474	384.51
684.664	261.63
684.854	251.39
685.044	232.96
685.234	189.95
685.424	304.64
685.614	192
685.804	386.55
685.994	290.3
686.184	290.3
686.374	284.16
686.564	337.4
686.753	271.87
686.943	198.14
687.133	253.44
687.323	331.26
687.513	316.92
687.702	321.02
687.892	282.11
688.082	298.49
688.272	357.88
688.461	329.21
688.651	361.98
688.841	341.5
689.03	237.05
689.22	224.76
689.41	392.7
689.599	284.16
689.789	85.5
689.979	294.4
690.168	257.53
690.358	226.81
690.547	316.92
690.737	337.4
690.926	275.96
691.116	261.63
691.305	323.07
691.495	306.68
691.684	198.14
691.874	210.43
692.063	235
692.252	269.82
692.442	273.92
692.631	155.13
692.82	271.87
693.01	278.01
693.199	226.81
693.388	214.52
693.578	222.72
693.767	345.59
693.956	228.86
694.146	206.33
694.335	300.54
694.524	216.57
694.713	249.34
694.902	280.06
695.092	212.48
695.281	267.77
695.47	200.19
695.659	224.76
695.848	210.43
696.037	183.81
696.226	343.55
696.415	161.28
696.604	359.93
696.793	429.56
696.982	194.05
697.171	298.49
697.36	210.43
697.549	183.81
697.738	200.19
697.927	189.95
698.116	198.14
698.305	251.39
698.494	245.24
698.683	230.91
698.872	355.83
699.061	343.55
699.25	280.06
699.438	206.33
699.627	230.91
699.816	333.31
700.005	200.19
700.193	187.9
700.382	292.35
700.571	351.74
700.76	251.39
700.948	241.15
701.137	245.24
701.326	267.77
701.514	159.23
701.703	251.39
701.892	267.77
702.08	404.99
702.269	237.05
702.457	159.23
702.646	198.14
702.834	239.1
703.023	323.07
703.212	232.96
703.4	255.48
703.589	200.19
703.777	157.18
703.965	159.23
704.154	218.62
704.342	204.28
704.531	226.81
704.719	200.19
704.907	304.64
705.096	214.52
705.284	163.33
705.472	200.19
705.661	331.26
705.849	288.25
706.037	374.27
706.226	169.47
706.414	288.25
706.602	245.24
706.79	243.2
706.979	157.18
707.167	325.12
707.355	75.26
707.543	226.81
707.731	253.44
707.919	226.81
708.107	253.44
708.296	187.9
708.484	239.1
708.672	310.78
708.86	251.39
709.048	153.09
709.236	161.28
709.424	247.29
709.612	243.2
709.8	73.21
709.988	179.71
710.176	212.48
710.364	357.88
710.551	212.48
710.739	210.43
710.927	183.81
711.115	235
711.303	265.72
711.491	290.3
711.679	202.24
711.866	329.21
712.054	228.86
712.242	265.72
712.43	353.79
712.617	202.24
712.805	245.24
712.993	200.19
713.181	138.75
713.368	255.48
713.556	226.81
713.744	108.03
713.931	351.74
714.119	257.53
714.306	222.72
714.494	155.13
714.682	267.77
714.869	99.84
715.057	232.96
715.244	93.69
715.432	286.2
715.619	116.22
715.807	232.96
715.994	146.94
716.182	224.76
716.369	284.16
716.556	341.5
716.744	120.32
716.931	144.89
717.119	224.76
717.306	192
717.493	310.78
717.681	218.62
717.868	187.9
718.055	296.44
718.242	196.09
718.43	280.06
718.617	394.75
718.804	200.19
718.991	296.44
719.179	259.58
719.366	179.71
719.553	235
719.74	255.48
719.927	214.52
720.114	218.62
720.301	187.9
720.488	161.28
720.676	214.52
720.863	275.96
721.05	353.79
721.237	267.77
721.424	220.67
721.611	271.87
721.798	175.61
721.985	202.24
722.172	214.52
722.358	183.81
722.545	284.16
722.732	198.14
722.919	370.17
723.106	349.69
723.293	288.25
723.48	146.94
723.667	194.05
723.853	345.59
724.04	286.2
724.227	284.16
724.414	202.24
724.6	273.92
724.787	353.79
724.974	353.79
725.161	331.26
725.347	97.79
725.534	261.63
725.72	329.21
725.907	364.03
726.094	314.88
726.28	181.76
726.467	261.63
726.653	130.56
726.84	286.2
727.027	349.69
727.213	204.28
727.4	308.73
727.586	181.76
727.773	294.4
727.959	247.29
728.145	267.77
728.332	247.29
728.518	251.39
728.705	298.49
728.891	181.76
729.077	257.53
729.264	179.71
729.45	218.62
729.636	372.22
729.823	349.69
730.009	325.12
730.195	278.01
730.382	253.44
730.568	237.05
730.754	273.92
730.94	224.76
731.126	318.97
731.313	327.16
731.499	265.72
731.685	265.72
731.871	337.4
732.057	210.43
732.243	312.83
732.429	273.92
732.615	286.2
732.801	261.63
732.987	247.29
733.173	284.16
733.359	312.83
733.545	243.2
733.731	239.1
733.917	435.71
734.103	292.35
734.289	239.1
734.475	245.24
734.661	413.18
734.847	331.26
735.033	249.34
735.219	302.59
735.404	278.01
735.59	208.38
735.776	230.91
735.962	247.29
736.148	368.12
736.333	372.22
736.519	286.2
736.705	230.91
736.89	296.44
737.076	339.45
737.262	261.63
737.447	167.42
737.633	243.2
737.819	308.73
738.004	253.44
738.19	435.71
738.375	298.49
738.561	288.25
738.747	253.44
738.932	171.52
739.118	421.37
739.303	290.3
739.489	292.35
739.674	245.24
739.859	157.18
740.045	404.99
740.23	419.32
740.416	157.18
740.601	284.16
740.786	357.88
740.972	206.33
741.157	173.57
741.342	222.72
741.528	212.48
741.713	318.97
741.898	232.96
742.084	226.81
742.269	275.96
742.454	396.79
742.639	329.21
742.824	247.29
743.01	353.79
743.195	466.42
743.38	282.11
743.565	304.64
743.75	189.95
743.935	404.99
744.12	306.68
744.305	200.19
744.49	187.9
744.675	222.72
744.86	329.21
745.045	292.35
745.23	177.66
745.415	230.91
745.6	386.55
745.785	192
745.97	331.26
746.155	269.82
746.34	333.31
746.525	310.78
746.71	325.12
746.895	230.91
747.079	226.81
747.264	212.48
747.449	286.2
747.634	361.98
747.819	222.72
748.003	278.01
748.188	181.76
748.373	249.34
748.557	216.57
748.742	302.59
748.927	257.53
749.111	239.1
749.296	226.81
749.481	253.44
749.665	271.87
749.85	208.38
750.034	417.27
750.219	226.81
750.404	275.96
750.588	237.05
750.773	144.89
750.957	165.37
751.141	171.52
751.326	259.58
751.51	171.52
751.695	265.72
751.879	155.13
752.064	368.12
752.248	226.81
752.432	251.39
752.617	271.87
752.801	237.05
752.985	173.57
753.17	282.11
753.354	114.17
753.538	181.76
753.722	198.14
753.907	124.41
754.091	128.51
754.275	263.68
754.459	-10.75
754.643	177.66
754.828	220.67
755.012	177.66
755.196	181.76
755.38	247.29
755.564	241.15
755.748	157.18
755.932	208.38
756.116	161.28
756.3	214.52
756.484	161.28
756.668	179.71
756.852	46.59
757.036	128.51
757.22	192
757.404	83.45
757.588	159.23
757.772	163.33
757.956	181.76
758.14	312.83
758.323	161.28
758.507	189.95
758.691	134.65
758.875	192
759.059	304.64
759.242	151.04
759.426	118.27
759.61	214.52
759.794	142.85
759.977	224.76
760.161	327.16
760.345	241.15
760.528	220.67
760.712	128.51
760.895	159.23
761.079	95.74
761.263	146.94
761.446	89.6
761.63	165.37
761.813	243.2
761.997	54.78
762.18	77.31
762.364	134.65
762.547	48.64
762.731	173.57
762.914	136.7
763.098	95.74
763.281	9.73
763.464	110.08
763.648	112.13
763.831	75.26
764.015	40.45
764.198	167.42
764.381	169.47
764.564	87.55
764.748	85.5
764.931	157.18
765.114	142.85
765.297	161.28
765.481	50.69
765.664	3.58
765.847	30.21
766.03	271.87
766.213	75.26
766.397	155.13
766.58	5.63
766.763	128.51
766.946	58.88
767.129	97.79
767.312	7.68
767.495	130.56
767.678	32.26
767.861	153.09
768.044	50.69
768.227	56.83
768.41	140.8
768.593	116.22
768.776	165.37
768.959	110.08
769.142	206.33
769.324	11.78
769.507	132.61
769.69	173.57
769.873	60.93
770.056	290.3
770.239	79.36
770.421	134.65
770.604	146.94
770.787	40.45
770.97	58.88
771.152	83.45
771.335	165.37
771.518	19.97
771.7	108.03
771.883	230.91
772.066	22.02
772.248	79.36
772.431	181.76
772.613	230.91
772.796	146.94
772.978	138.75
773.161	183.81
773.343	95.74
773.526	42.5
773.708	9.73
773.891	54.78
774.073	30.21
774.256	69.12
774.438	124.41
774.621	26.11
774.803	134.65
774.985	93.69
775.168	128.51
775.35	17.92
775.532	77.31
775.715	13.82
775.897	103.93
776.079	-8.7
776.261	101.89
776.444	140.8
776.626	15.87
776.808	91.65
776.99	-51.71
777.173	65.02
777.355	87.55
777.537	116.22
777.719	42.5
777.901	50.69
778.083	67.07
778.265	-90.62
778.447	148.99
778.629	1.54
778.811	69.12
778.993	169.47
779.175	114.17
779.357	60.93
779.539	-78.33
779.721	91.65
779.903	60.93
780.085	7.68
780.267	83.45
780.449	77.31
780.631	136.7
780.812	155.13
780.994	30.21
781.176	83.45
781.358	60.93
781.54	77.31
781.721	75.26
781.903	134.65
782.085	30.21
782.267	177.66
782.448	-29.18
782.63	69.12
782.812	116.22
782.993	124.41
783.175	56.83
783.357	-35.33
783.538	-25.09
783.72	5.63
783.901	120.32
784.083	11.78
784.264	87.55
784.446	13.82
784.627	-6.66
784.809	87.55
784.99	-25.09
785.172	75.26
785.353	-2.56
785.535	19.97
785.716	-39.42
785.897	-64
786.079	-2.56
786.26	50.69
786.441	34.3
786.623	-127.49
786.804	-39.42
786.985	34.3
787.167	87.55
787.348	40.45
787.529	50.69
787.71	181.76
787.891	148.99
788.073	1.54
788.254	-131.58
788.435	208.38
788.616	110.08
788.797	-4.61
788.978	42.5
789.159	-55.81
789.34	-37.38
789.522	60.93
789.703	15.87
789.884	42.5
790.065	103.93
790.246	161.28
790.427	50.69
790.607	165.37
790.788	101.89
790.969	-2.56
791.15	15.87
791.331	-29.18
791.512	28.16
791.693	-35.33
791.874	19.97
792.054	173.57
792.235	89.6
792.416	-27.14
792.597	9.73
792.778	99.84
792.958	44.54
793.139	44.54
793.32	105.98
793.5	5.63
793.681	42.5
793.862	130.56
794.042	87.55
794.223	-25.09
794.404	46.59
794.584	-39.42
794.765	89.6
794.945	79.36
795.126	38.4
795.306	83.45
795.487	22.02
795.667	-90.62
795.848	24.06
796.028	17.92
796.209	30.21
796.389	157.18
796.57	-4.61
796.75	-76.29
796.93	52.74
797.111	40.45
797.291	65.02
797.471	67.07
797.652	-82.43
797.832	-16.9
798.012	95.74
798.192	1.54
798.373	-94.72
798.553	-20.99
798.733	77.31
798.913	-66.05
799.093	-33.28
799.274	83.45
799.454	-0.51
799.634	93.69
799.814	-6.66
799.994	87.55
800.174	69.12
800.354	56.83
800.534	-96.77
800.714	73.21
800.894	50.69
801.074	-107.01
801.254	15.87
801.434	71.17
801.614	-35.33
801.794	-78.33
801.974	1607.14
802.154	56.83
802.334	46.59
802.514	-33.28
802.693	-12.8
802.873	-2.56
803.053	91.65
803.233	89.6
803.413	-55.81
803.592	65.02
803.772	-14.85
803.952	91.65
804.131	-115.2
804.311	56.83
804.491	175.61
804.67	-23.04
804.85	-49.66
805.03	42.5
805.209	42.5
805.389	-51.71
805.568	-64
805.748	44.54
805.928	-8.7
806.107	116.22
806.287	54.78
806.466	71.17
806.646	-45.57
806.825	3.58
807.004	19.97
807.184	15.87
807.363	112.13
807.543	34.3
807.722	-61.95
807.901	65.02
808.081	67.07
808.26	-143.87
808.439	28.16
808.619	-4.61
808.798	46.59
808.977	-16.9
809.156	75.26
809.336	22.02
809.515	50.69
809.694	-14.85
809.873	22.02
810.052	38.4
810.231	103.93
810.411	34.3
810.59	130.56
810.769	-25.09
810.948	85.5
811.127	-186.88
811.306	-49.66
811.485	-25.09
811.664	153.09
811.843	-37.38
812.022	69.12
812.201	54.78
812.38	11.78
812.559	-20.99
812.737	48.64
812.916	5.63
813.095	-90.62
813.274	32.26
813.453	-10.75
813.632	54.78
813.811	124.41
813.989	-109.05
814.168	-4.61
814.347	-51.71
814.526	-6.66
814.704	120.32
814.883	126.46
815.062	-64
815.24	71.17
815.419	-66.05
815.598	50.69
815.776	-129.53
815.955	3.58
816.133	-90.62
816.312	54.78
816.49	-45.57
816.669	17.92
816.847	9.73
817.026	19.97
817.204	-31.23
817.383	-70.14
817.561	-64
817.74	69.12
817.918	56.83
818.097	30.21
818.275	-27.14
818.453	11.78
818.632	42.5
818.81	-33.28
818.988	-66.05
819.167	-14.85
819.345	77.31
819.523	56.83
819.701	54.78
819.879	-53.76
820.058	95.74
820.236	42.5
820.414	58.88
820.592	-27.14
820.77	13.82
820.948	5.63
821.127	-12.8
821.305	11.78
821.483	-84.48
821.661	7.68
821.839	91.65
822.017	-88.57
822.195	-35.33
822.373	26.11
822.551	54.78
822.729	13.82
822.907	17.92
823.085	65.02
823.262	7.68
823.44	73.21
823.618	-12.8
823.796	-18.94
823.974	-68.09
824.152	36.35
824.329	17.92
824.507	-2.56
824.685	19.97
824.863	-80.38
825.04	36.35
825.218	50.69
825.396	5.63
825.574	-14.85
825.751	42.5
825.929	56.83
826.107	-74.24
826.284	7.68
826.462	-10.75
826.639	-12.8
826.817	-43.52
826.994	32.26
827.172	-43.52
827.349	157.18
827.527	36.35
827.704	83.45
827.882	85.5
828.059	-55.81
828.237	-35.33
828.414	50.69
828.591	-143.87
828.769	67.07
828.946	-59.9
829.124	-10.75
829.301	146.94
829.478	36.35
829.655	-6.66
829.833	1.54
830.01	-80.38
830.187	-8.7
830.364	-25.09
830.542	30.21
830.719	62.98
830.896	44.54
831.073	128.51
831.25	-25.09
831.427	65.02
831.604	40.45
831.782	-35.33
831.959	15.87
832.136	-49.66
832.313	67.07
832.49	30.21
832.667	30.21
832.844	-0.51
833.021	67.07
833.198	-0.51
833.374	60.93
833.551	60.93
833.728	13.82
833.905	105.98
834.082	-174.59
834.259	-41.47
834.436	138.75
834.612	-33.28
834.789	-16.9
834.966	-20.99
835.143	11.78
835.319	-31.23
835.496	75.26
835.673	58.88
835.85	114.17
836.026	54.78
836.203	26.11
836.38	-10.75
836.556	-92.67
836.733	-45.57
836.909	83.45
837.086	36.35
837.262	-35.33
837.439	46.59
837.616	-23.04
837.792	73.21
837.968	24.06
838.145	-123.39
838.321	-49.66
838.498	-8.7
838.674	26.11
838.851	7.68
839.027	-49.66
839.203	-12.8
839.38	26.11
839.556	-39.42
839.732	60.93
839.909	13.82
840.085	58.88
840.261	-78.33
840.437	24.06
840.614	7.68
840.79	89.6
840.966	3.58
841.142	-4.61
841.318	-66.05
841.494	-8.7
841.671	44.54
841.847	-98.81
842.023	-20.99
842.199	69.12
842.375	34.3
842.551	-61.95
842.727	-137.73
842.903	142.85
843.079	-129.53
843.255	19.97
843.431	-12.8
843.607	95.74
843.783	-188.93
843.959	30.21
844.134	-66.05
844.31	110.08
844.486	-23.04
844.662	-41.47
844.838	36.35
845.013	42.5
845.189	101.89
845.365	-35.33
845.541	-41.47
845.716	-41.47
845.892	140.8
846.068	42.5
846.244	26.11
846.419	32.26
846.595	-39.42
846.77	-37.38
846.946	128.51
847.122	-59.9
847.297	-86.53
847.473	85.5
847.648	-41.47
847.824	60.93
847.999	-152.06
848.175	-16.9
848.35	105.98
848.526	99.84
848.701	34.3
848.876	79.36
849.052	40.45
849.227	-16.9
849.403	-43.52
849.578	13.82
849.753	-45.57
849.929	1.54
850.104	9.73
850.279	-4.61
850.454	22.02
850.63	67.07
850.805	36.35
850.98	26.11
851.155	-27.14
851.33	-2.56
851.505	-10.75
851.681	142.85
851.856	-4.61
852.031	24.06
852.206	48.64
852.381	-2.56
852.556	30.21
852.731	81.41
852.906	132.61
853.081	75.26
853.256	36.35
853.431	34.3
853.606	-51.71
853.781	-109.05
853.956	-135.68
854.131	26.11
854.305	-20.99
854.48	-20.99
854.655	-8.7
854.83	11.78
855.005	-39.42
855.18	54.78
855.354	-23.04
855.529	44.54
855.704	-8.7
855.879	13.82
856.053	-123.39
856.228	114.17
856.403	-72.19
856.577	26.11
856.752	-16.9
856.926	34.3
857.101	52.74
857.276	-86.53
857.45	-14.85
857.625	3.58
857.799	7.68
857.974	24.06
858.148	-86.53
858.323	-20.99
858.497	13.82
858.672	19.97
858.846	-6.66
859.02	38.4
859.195	-70.14
859.369	9.73
859.543	48.64
859.718	-29.18
859.892	54.78
860.066	101.89
860.241	-53.76
860.415	32.26
860.589	3.58
860.763	-10.75
860.938	-68.09
861.112	17.92
861.286	-94.72
861.46	7.68
861.634	-35.33
861.808	89.6
861.982	-10.75
862.157	-141.82
862.331	-31.23
862.505	-84.48
862.679	-96.77
862.853	-80.38
863.027	-4.61
863.201	46.59
863.375	-23.04
863.549	5.63
863.722	-70.14
863.896	83.45
864.07	-102.91
864.244	46.59
864.418	24.06
864.592	-2.56
864.766	-61.95
864.939	62.98
865.113	-37.38
865.287	112.13
865.461	-51.71
865.634	32.26
865.808	48.64
865.982	-20.99
866.156	-47.62
866.329	-113.15
866.503	22.02
866.676	5.63
866.85	40.45
867.024	22.02
867.197	132.61
867.371	54.78
867.544	19.97
867.718	-18.94
867.891	159.23
868.065	-66.05
868.238	13.82
868.412	83.45
868.585	13.82
868.759	-29.18
868.932	-47.62
869.105	-129.53
869.279	-37.38
869.452	-74.24
869.625	112.13
869.799	38.4
869.972	-96.77
870.145	-10.75
870.319	62.98
870.492	-55.81
870.665	-0.51
870.838	-33.28
871.011	-72.19
871.185	-39.42
871.358	-92.67
871.531	62.98
871.704	-92.67
871.877	30.21
872.05	-84.48
872.223	-27.14
872.396	108.03
872.569	48.64
872.742	-51.71
872.915	-0.51
873.088	24.06
873.261	-186.88
873.434	77.31
873.607	-29.18
873.78	114.17
873.953	-98.81
874.126	-12.8
874.299	56.83
874.471	-35.33
874.644	-23.04
874.817	62.98
874.99	116.22
875.163	-33.28
875.335	79.36
875.508	-35.33
875.681	85.5
875.853	-14.85
876.026	-25.09
876.199	56.83
876.371	-35.33
876.544	-53.76
876.717	65.02
876.889	-66.05
877.062	73.21
877.234	-68.09
877.407	-78.33
877.579	24.06
877.752	-12.8
877.924	85.5
878.097	48.64
878.269	75.26
878.442	13.82
878.614	89.6
878.786	73.21
878.959	1.54
879.131	85.5
879.303	-96.77
879.476	9.73
879.648	75.26
879.82	-20.99
879.993	-49.66
880.165	-12.8
880.337	-84.48
880.509	-6.66
880.681	-133.63
880.854	-59.9
881.026	7.68
881.198	120.32
881.37	56.83
881.542	5.63
881.714	-51.71
881.886	-61.95
882.058	36.35
882.23	34.3
882.402	-0.51
882.574	-6.66
882.746	-12.8
882.918	124.41
883.09	40.45
883.262	-98.81
883.434	-41.47
883.606	-84.48
883.778	-6.66
883.95	105.98
884.122	-29.18
884.293	79.36
884.465	-0.51
884.637	44.54
884.809	-102.91
884.98	116.22
885.152	9.73
885.324	85.5
885.496	-18.94
885.667	-55.81
885.839	-4.61
886.011	40.45
886.182	38.4
886.354	112.13
886.525	-8.7
886.697	-0.51
886.869	-102.91
887.04	-16.9
887.212	116.22
887.383	140.8
887.555	-4.61
887.726	-25.09
887.897	-23.04
888.069	36.35
888.24	3.58
888.412	-61.95
888.583	5.63
888.754	-59.9
888.926	-64
889.097	-92.67
889.268	-123.39
889.44	17.92
889.611	-27.14
889.782	-92.67
889.953	-8.7
890.125	79.36
890.296	-55.81
890.467	15.87
890.638	-68.09
890.809	-23.04
890.98	-33.28
891.151	26.11
891.323	50.69
891.494	54.78
891.665	50.69
891.836	5.63
892.007	-10.75
892.178	-49.66
892.349	-33.28
892.52	-4.61
892.691	30.21
892.862	-53.76
893.032	-59.9
893.203	-45.57
893.374	-10.75
893.545	60.93
893.716	-53.76
893.887	56.83
894.057	-6.66
894.228	-82.43
894.399	-96.77
894.57	122.37
894.74	-29.18
894.911	46.59
895.082	-80.38
895.253	-20.99
895.423	-27.14
895.594	38.4
895.764	17.92
895.935	-107.01
896.106	65.02
896.276	-72.19
896.447	-37.38
896.617	1.54
896.788	-66.05
896.958	-23.04
897.129	-43.52
897.299	-59.9
897.47	54.78
897.64	22.02
897.81	-43.52
897.981	-31.23
898.151	-10.75
898.322	-43.52
898.492	13.82
898.662	-162.3
898.832	24.06
899.003	-88.57
899.173	95.74
899.343	-51.71
899.513	-78.33
