Data from USB4F104151__259__11-20-15-134.txt Node

Date: Wed Feb 26 11:20:15 EST 2025
User: louis
Spectrometer: USB4F10415
Trigger mode: 4
Integration Time (sec): 1.000000E-1
Scans to average: 1
Electric dark correction enabled: true
Nonlinearity correction enabled: false
Boxcar width: 0
XAxis mode: Wavelengths
Number of Pixels in Spectrum: 3648
>>>>>Begin Spectral Data<<<<<
178.204	-443.39
178.424	-443.39
178.644	-443.39
178.864	-375.8
179.084	-437.24
179.304	-19.46
179.524	21.5
179.744	1.02
179.964	46.08
180.184	95.23
180.404	-1.02
180.624	-37.89
180.844	-19.46
181.064	-125.95
181.283	58.37
181.503	-62.46
181.723	44.03
181.943	-103.42
182.163	197.63
182.383	-72.7
182.602	52.22
182.822	138.24
183.042	-64.51
183.262	-35.84
183.482	-1.02
183.701	3.07
183.921	117.76
184.141	-35.84
184.361	62.46
184.58	60.42
184.8	58.37
185.02	11.26
185.239	80.89
185.459	52.22
185.679	39.94
185.898	-72.7
186.118	39.94
186.338	21.5
186.557	119.81
186.777	-15.36
186.997	-3.07
187.216	-33.79
187.436	171.01
187.655	54.27
187.875	164.86
188.095	39.94
188.314	105.47
188.534	52.22
188.753	-95.23
188.973	197.63
189.192	144.38
189.412	27.65
189.631	15.36
189.851	166.91
190.07	95.23
190.29	-62.46
190.509	-64.51
190.729	15.36
190.948	195.58
191.168	244.73
191.387	3.07
191.607	-44.03
191.826	41.98
192.045	-7.17
192.265	-29.7
192.484	41.98
192.704	46.08
192.923	-97.28
193.142	199.68
193.362	95.23
193.581	119.81
193.8	-1.02
194.02	97.28
194.239	31.74
194.458	87.04
194.678	-7.17
194.897	-9.22
195.116	70.65
195.335	78.85
195.555	-9.22
195.774	-35.84
195.993	62.46
196.212	27.65
196.432	-21.5
196.651	-41.98
196.87	11.26
197.089	201.72
197.308	50.18
197.528	11.26
197.747	15.36
197.966	-19.46
198.185	146.43
198.404	-121.85
198.623	105.47
198.842	39.94
199.062	130.05
199.281	101.37
199.5	21.5
199.719	68.61
199.938	-25.6
200.157	105.47
200.376	119.81
200.595	105.47
200.814	70.65
201.033	1.02
201.252	107.52
201.471	5.12
201.69	3.07
201.909	23.55
202.128	78.85
202.347	101.37
202.566	-89.09
202.785	-66.56
203.004	15.36
203.223	189.44
203.442	39.94
203.661	-84.99
203.879	89.09
204.098	105.47
204.317	17.41
204.536	95.23
204.755	13.31
204.974	72.7
205.193	-33.79
205.411	78.85
205.63	109.57
205.849	54.27
206.068	17.41
206.287	-7.17
206.505	101.37
206.724	60.42
206.943	-23.55
207.162	-29.7
207.381	97.28
207.599	11.26
207.818	33.79
208.037	-52.22
208.255	-56.32
208.474	29.7
208.693	78.85
208.911	-11.26
209.13	152.57
209.349	19.46
209.567	44.03
209.786	84.99
210.005	117.76
210.223	13.31
210.442	-140.29
210.661	-1.02
210.879	-7.17
211.098	7.17
211.316	89.09
211.535	80.89
211.753	-39.94
211.972	23.55
212.191	-58.37
212.409	58.37
212.628	121.85
212.846	44.03
213.065	64.51
213.283	95.23
213.502	62.46
213.72	19.46
213.938	-3.07
214.157	-64.51
214.375	80.89
214.594	72.7
214.812	109.57
215.031	68.61
215.249	93.18
215.467	-17.41
215.686	-9.22
215.904	113.66
216.122	-9.22
216.341	189.44
216.559	-7.17
216.778	72.7
216.996	136.19
217.214	44.03
217.432	27.65
217.651	-99.33
217.869	-62.46
218.087	35.84
218.306	-39.94
218.524	23.55
218.742	-41.98
218.96	74.75
219.179	25.6
219.397	27.65
219.615	244.73
219.833	99.33
220.051	-27.65
220.27	97.28
220.488	107.52
220.706	107.52
220.924	58.37
221.142	-60.42
221.36	76.8
221.578	46.08
221.796	93.18
222.015	-9.22
222.233	48.13
222.451	123.9
222.669	-29.7
222.887	31.74
223.105	-7.17
223.323	11.26
223.541	-5.12
223.759	-3.07
223.977	25.6
224.195	140.29
224.413	91.13
224.631	62.46
224.849	-23.55
225.067	259.07
225.285	-13.31
225.503	-39.94
225.721	-115.71
225.939	-3.07
226.157	93.18
226.375	150.53
226.592	37.89
226.81	54.27
227.028	87.04
227.246	123.9
227.464	56.32
227.682	76.8
227.9	99.33
228.117	46.08
228.335	21.5
228.553	41.98
228.771	33.79
228.989	29.7
229.206	52.22
229.424	-60.42
229.642	7.17
229.86	-39.94
230.077	136.19
230.295	64.51
230.513	84.99
230.731	25.6
230.948	189.44
231.166	113.66
231.384	48.13
231.601	17.41
231.819	140.29
232.037	15.36
232.254	-58.37
232.472	11.26
232.689	50.18
232.907	76.8
233.125	50.18
233.342	-19.46
233.56	27.65
233.777	-3.07
233.995	93.18
234.213	56.32
234.43	52.22
234.648	13.31
234.865	-1.02
235.083	56.32
235.3	1.02
235.518	68.61
235.735	39.94
235.953	-13.31
236.17	39.94
236.388	21.5
236.605	48.13
236.822	80.89
237.04	60.42
237.257	35.84
237.475	-125.95
237.692	-9.22
237.909	5.12
238.127	89.09
238.344	66.56
238.562	31.74
238.779	-52.22
238.996	-37.89
239.214	70.65
239.431	37.89
239.648	-93.18
239.865	103.42
240.083	56.32
240.3	11.26
240.517	9.22
240.735	-11.26
240.952	80.89
241.169	95.23
241.386	111.61
241.603	-15.36
241.821	-66.56
242.038	-21.5
242.255	66.56
242.472	-60.42
242.689	97.28
242.907	19.46
243.124	-29.7
243.341	56.32
243.558	-7.17
243.775	-37.89
243.992	11.26
244.209	19.46
244.426	128
244.643	44.03
244.86	29.7
245.078	105.47
245.295	15.36
245.512	58.37
245.729	-1.02
245.946	50.18
246.163	19.46
246.38	39.94
246.597	187.39
246.814	62.46
247.031	37.89
247.248	-29.7
247.464	19.46
247.681	41.98
247.898	62.46
248.115	82.94
248.332	-52.22
248.549	121.85
248.766	87.04
248.983	58.37
249.2	15.36
249.417	125.95
249.633	62.46
249.85	7.17
250.067	31.74
250.284	62.46
250.501	21.5
250.717	-19.46
250.934	-7.17
251.151	-35.84
251.368	54.27
251.585	62.46
251.801	89.09
252.018	-35.84
252.235	130.05
252.451	-1.02
252.668	29.7
252.885	138.24
253.102	105.47
253.318	-66.56
253.535	-39.94
253.752	9.22
253.968	15.36
254.185	-76.8
254.401	35.84
254.618	-19.46
254.835	-74.75
255.051	130.05
255.268	37.89
255.484	99.33
255.701	56.32
255.917	97.28
256.134	-128
256.351	39.94
256.567	-87.04
256.784	-27.65
257	-84.99
257.217	82.94
257.433	101.37
257.65	27.65
257.866	119.81
258.082	-84.99
258.299	-19.46
258.515	29.7
258.732	25.6
258.948	-82.94
259.165	41.98
259.381	-33.79
259.597	101.37
259.814	48.13
260.03	-64.51
260.246	-9.22
260.463	162.81
260.679	162.81
260.895	-15.36
261.112	29.7
261.328	107.52
261.544	-66.56
261.761	136.19
261.977	13.31
262.193	13.31
262.409	78.85
262.626	9.22
262.842	7.17
263.058	-23.55
263.274	136.19
263.49	-15.36
263.707	78.85
263.923	78.85
264.139	-52.22
264.355	7.17
264.571	105.47
264.787	60.42
265.004	109.57
265.22	-15.36
265.436	41.98
265.652	39.94
265.868	29.7
266.084	-62.46
266.3	128
266.516	-76.8
266.732	5.12
266.948	44.03
267.164	31.74
267.38	115.71
267.596	-35.84
267.812	166.91
268.028	50.18
268.244	23.55
268.46	50.18
268.676	3.07
268.892	-84.99
269.108	-44.03
269.324	111.61
269.54	-25.6
269.756	33.79
269.972	-7.17
270.188	-25.6
270.403	-62.46
270.619	-41.98
270.835	95.23
271.051	66.56
271.267	25.6
271.483	39.94
271.698	37.89
271.914	95.23
272.13	21.5
272.346	-29.7
272.562	33.79
272.777	132.09
272.993	93.18
273.209	-9.22
273.425	105.47
273.64	-5.12
273.856	72.7
274.072	-3.07
274.287	62.46
274.503	9.22
274.719	58.37
274.934	19.46
275.15	-9.22
275.366	-50.18
275.581	27.65
275.797	-13.31
276.012	44.03
276.228	3.07
276.444	7.17
276.659	91.13
276.875	-115.71
277.09	-29.7
277.306	-78.85
277.521	58.37
277.737	-46.08
277.952	109.57
278.168	-29.7
278.383	17.41
278.599	70.65
278.814	87.04
279.03	3.07
279.245	95.23
279.461	41.98
279.676	54.27
279.892	-82.94
280.107	-9.22
280.322	-72.7
280.538	39.94
280.753	-72.7
280.969	31.74
281.184	-48.13
281.399	154.62
281.615	9.22
281.83	3.07
282.045	-56.32
282.26	-25.6
282.476	13.31
282.691	76.8
282.906	46.08
283.122	25.6
283.337	-46.08
283.552	-48.13
283.767	21.5
283.983	58.37
284.198	37.89
284.413	52.22
284.628	-64.51
284.843	68.61
285.058	56.32
285.274	-11.26
285.489	11.26
285.704	66.56
285.919	-17.41
286.134	5.12
286.349	-3.07
286.564	-21.5
286.779	201.72
286.995	17.41
287.21	-70.65
287.425	76.8
287.64	52.22
287.855	78.85
288.07	-52.22
288.285	97.28
288.5	84.99
288.715	89.09
288.93	-21.5
289.145	11.26
289.36	91.13
289.575	39.94
289.79	105.47
290.004	-58.37
290.219	64.51
290.434	-80.89
290.649	-1.02
290.864	60.42
291.079	5.12
291.294	72.7
291.509	58.37
291.724	-21.5
291.938	-35.84
292.153	68.61
292.368	-58.37
292.583	136.19
292.798	123.9
293.012	119.81
293.227	62.46
293.442	-19.46
293.657	107.52
293.871	95.23
294.086	95.23
294.301	95.23
294.516	128
294.73	70.65
294.945	31.74
295.16	46.08
295.374	171.01
295.589	99.33
295.804	35.84
296.018	46.08
296.233	109.57
296.447	72.7
296.662	-35.84
296.877	97.28
297.091	107.52
297.306	-3.07
297.52	50.18
297.735	109.57
297.949	17.41
298.164	41.98
298.378	72.7
298.593	-56.32
298.807	-19.46
299.022	-52.22
299.236	91.13
299.451	-62.46
299.665	11.26
299.88	-48.13
300.094	101.37
300.309	-50.18
300.523	11.26
300.737	35.84
300.952	76.8
301.166	39.94
301.381	-15.36
301.595	-15.36
301.809	25.6
302.024	-29.7
302.238	-25.6
302.452	142.33
302.667	3.07
302.881	164.86
303.095	1.02
303.309	72.7
303.524	-48.13
303.738	-25.6
303.952	-21.5
304.166	48.13
304.381	-58.37
304.595	205.82
304.809	-5.12
305.023	-17.41
305.237	74.75
305.452	3.07
305.666	31.74
305.88	60.42
306.094	117.76
306.308	91.13
306.522	11.26
306.736	140.29
306.95	78.85
307.164	-21.5
307.379	31.74
307.593	105.47
307.807	48.13
308.021	140.29
308.235	35.84
308.449	-35.84
308.663	78.85
308.877	183.29
309.091	60.42
309.305	13.31
309.519	-111.61
309.733	97.28
309.947	-68.61
310.161	87.04
310.374	195.58
310.588	142.33
310.802	-25.6
311.016	-50.18
311.23	-21.5
311.444	-15.36
311.658	15.36
311.872	66.56
312.085	146.43
312.299	95.23
312.513	87.04
312.727	64.51
312.941	-1.02
313.154	87.04
313.368	5.12
313.582	-46.08
313.796	31.74
314.009	54.27
314.223	148.48
314.437	-17.41
314.651	44.03
314.864	-11.26
315.078	-80.89
315.292	-17.41
315.505	25.6
315.719	25.6
315.933	60.42
316.146	11.26
316.36	-33.79
316.573	148.48
316.787	5.12
317.001	41.98
317.214	-82.94
317.428	37.89
317.641	-62.46
317.855	-19.46
318.068	80.89
318.282	50.18
318.495	201.72
318.709	29.7
318.922	5.12
319.136	37.89
319.349	115.71
319.563	-11.26
319.776	7.17
319.99	-58.37
320.203	76.8
320.417	11.26
320.63	78.85
320.843	183.29
321.057	56.32
321.27	68.61
321.483	29.7
321.697	134.14
321.91	60.42
322.124	101.37
322.337	37.89
322.55	-27.65
322.763	44.03
322.977	17.41
323.19	5.12
323.403	138.24
323.617	68.61
323.83	103.42
324.043	70.65
324.256	39.94
324.469	-46.08
324.683	101.37
324.896	-37.89
325.109	-5.12
325.322	11.26
325.535	113.66
325.748	95.23
325.962	25.6
326.175	54.27
326.388	119.81
326.601	37.89
326.814	29.7
327.027	15.36
327.24	109.57
327.453	-84.99
327.666	48.13
327.879	82.94
328.092	105.47
328.305	72.7
328.518	-3.07
328.731	-7.17
328.944	93.18
329.157	9.22
329.37	11.26
329.583	175.1
329.796	113.66
330.009	-33.79
330.222	11.26
330.435	115.71
330.648	-3.07
330.861	3.07
331.073	62.46
331.286	72.7
331.499	50.18
331.712	-115.71
331.925	37.89
332.138	-9.22
332.35	140.29
332.563	44.03
332.776	97.28
332.989	-17.41
333.202	31.74
333.414	-1.02
333.627	21.5
333.84	11.26
334.053	134.14
334.265	-31.74
334.478	-39.94
334.691	5.12
334.903	-15.36
335.116	-29.7
335.329	25.6
335.541	-7.17
335.754	168.96
335.966	23.55
336.179	27.65
336.392	7.17
336.604	-29.7
336.817	5.12
337.029	97.28
337.242	78.85
337.454	39.94
337.667	1.02
337.88	125.95
338.092	56.32
338.305	87.04
338.517	-60.42
338.729	103.42
338.942	160.77
339.154	1.02
339.367	9.22
339.579	60.42
339.792	27.65
340.004	128
340.217	17.41
340.429	46.08
340.641	-17.41
340.854	-1.02
341.066	-78.85
341.278	117.76
341.491	121.85
341.703	101.37
341.915	-91.13
342.128	93.18
342.34	5.12
342.552	-54.27
342.764	78.85
342.977	54.27
343.189	76.8
343.401	44.03
343.613	-91.13
343.826	52.22
344.038	56.32
344.25	93.18
344.462	7.17
344.674	25.6
344.886	15.36
345.099	113.66
345.311	93.18
345.523	-35.84
345.735	-37.89
345.947	1.02
346.159	-7.17
346.371	37.89
346.583	27.65
346.795	175.1
347.007	15.36
347.219	97.28
347.431	9.22
347.643	128
347.855	66.56
348.067	185.34
348.279	-31.74
348.491	39.94
348.703	27.65
348.915	21.5
349.127	-62.46
349.339	7.17
349.551	39.94
349.763	80.89
349.975	21.5
350.187	119.81
350.399	140.29
350.61	105.47
350.822	25.6
351.034	27.65
351.246	46.08
351.458	87.04
351.669	60.42
351.881	132.09
352.093	74.75
352.305	-19.46
352.517	84.99
352.728	60.42
352.94	-21.5
353.152	121.85
353.363	23.55
353.575	72.7
353.787	173.05
353.999	35.84
354.21	168.96
354.422	-50.18
354.633	-39.94
354.845	-25.6
355.057	111.61
355.268	-25.6
355.48	48.13
355.692	-46.08
355.903	7.17
356.115	5.12
356.326	-89.09
356.538	99.33
356.749	27.65
356.961	171.01
357.172	39.94
357.384	82.94
357.595	175.1
357.807	37.89
358.018	5.12
358.23	95.23
358.441	152.57
358.653	11.26
358.864	54.27
359.075	-7.17
359.287	105.47
359.498	52.22
359.709	80.89
359.921	66.56
360.132	56.32
360.344	41.98
360.555	52.22
360.766	33.79
360.977	-27.65
361.189	115.71
361.4	41.98
361.611	93.18
361.823	130.05
362.034	46.08
362.245	-39.94
362.456	48.13
362.667	62.46
362.879	37.89
363.09	39.94
363.301	44.03
363.512	-3.07
363.723	-72.7
363.935	44.03
364.146	-11.26
364.357	-113.66
364.568	130.05
364.779	-56.32
364.99	80.89
365.201	-58.37
365.412	76.8
365.623	-87.04
365.834	15.36
366.045	25.6
366.256	76.8
366.467	105.47
366.678	-13.31
366.889	7.17
367.1	-19.46
367.311	142.33
367.522	13.31
367.733	52.22
367.944	134.14
368.155	62.46
368.366	95.23
368.577	70.65
368.788	121.85
368.999	-39.94
369.209	134.14
369.42	158.72
369.631	261.12
369.842	111.61
370.053	-19.46
370.264	162.81
370.474	29.7
370.685	35.84
370.896	-29.7
371.107	70.65
371.317	99.33
371.528	82.94
371.739	113.66
371.95	27.65
372.16	91.13
372.371	-48.13
372.582	-50.18
372.792	70.65
373.003	64.51
373.214	56.32
373.424	95.23
373.635	-44.03
373.846	101.37
374.056	-7.17
374.267	-27.65
374.477	119.81
374.688	35.84
374.898	27.65
375.109	31.74
375.319	115.71
375.53	125.95
375.74	7.17
375.951	-9.22
376.161	54.27
376.372	125.95
376.582	-5.12
376.793	-15.36
377.003	-58.37
377.214	-5.12
377.424	27.65
377.635	35.84
377.845	1.02
378.055	148.48
378.266	7.17
378.476	46.08
378.686	117.76
378.897	52.22
379.107	-3.07
379.317	3.07
379.528	48.13
379.738	185.34
379.948	-9.22
380.158	80.89
380.369	29.7
380.579	62.46
380.789	56.32
380.999	91.13
381.21	107.52
381.42	162.81
381.63	9.22
381.84	19.46
382.05	9.22
382.261	134.14
382.471	162.81
382.681	-54.27
382.891	150.53
383.101	1.02
383.311	21.5
383.521	25.6
383.731	125.95
383.941	130.05
384.151	46.08
384.361	46.08
384.571	107.52
384.781	-3.07
384.991	160.77
385.201	109.57
385.411	111.61
385.621	54.27
385.831	-15.36
386.041	39.94
386.251	33.79
386.461	125.95
386.671	62.46
386.881	74.75
387.091	31.74
387.301	101.37
387.511	95.23
387.72	48.13
387.93	89.09
388.14	9.22
388.35	13.31
388.56	101.37
388.769	91.13
388.979	-29.7
389.189	-35.84
389.399	148.48
389.609	146.43
389.818	84.99
390.028	52.22
390.238	11.26
390.447	3.07
390.657	41.98
390.867	-13.31
391.076	-54.27
391.286	64.51
391.496	113.66
391.705	101.37
391.915	105.47
392.125	136.19
392.334	5.12
392.544	128
392.753	11.26
392.963	-50.18
393.172	125.95
393.382	-13.31
393.591	250.88
393.801	11.26
394.01	148.48
394.22	113.66
394.429	-25.6
394.639	56.32
394.848	52.22
395.058	93.18
395.267	48.13
395.477	158.72
395.686	97.28
395.895	160.77
396.105	205.82
396.314	13.31
396.524	64.51
396.733	-7.17
396.942	97.28
397.152	-11.26
397.361	109.57
397.57	50.18
397.78	60.42
397.989	76.8
398.198	218.11
398.407	13.31
398.617	37.89
398.826	64.51
399.035	-25.6
399.244	132.09
399.453	7.17
399.663	-25.6
399.872	52.22
400.081	-54.27
400.29	117.76
400.499	13.31
400.708	54.27
400.917	5.12
401.127	3.07
401.336	-17.41
401.545	164.86
401.754	115.71
401.963	121.85
402.172	58.37
402.381	52.22
402.59	84.99
402.799	17.41
403.008	76.8
403.217	50.18
403.426	109.57
403.635	-162.81
403.844	29.7
404.053	44.03
404.262	39.94
404.471	80.89
404.68	62.46
404.888	-17.41
405.097	17.41
405.306	95.23
405.515	66.56
405.724	9.22
405.933	134.14
406.142	175.1
406.35	156.67
406.559	46.08
406.768	119.81
406.977	37.89
407.185	87.04
407.394	62.46
407.603	-1.02
407.812	105.47
408.02	103.42
408.229	91.13
408.438	125.95
408.646	-103.42
408.855	1.02
409.064	142.33
409.272	-37.89
409.481	58.37
409.69	39.94
409.898	-27.65
410.107	91.13
410.315	119.81
410.524	-33.79
410.733	89.09
410.941	17.41
411.15	93.18
411.358	113.66
411.567	162.81
411.775	82.94
411.984	70.65
412.192	132.09
412.401	9.22
412.609	179.2
412.818	130.05
413.026	166.91
413.234	-1.02
413.443	-21.5
413.651	-72.7
413.86	58.37
414.068	111.61
414.276	136.19
414.485	-46.08
414.693	146.43
414.901	191.49
415.11	82.94
415.318	60.42
415.526	33.79
415.734	35.84
415.943	31.74
416.151	179.2
416.359	117.76
416.567	62.46
416.776	134.14
416.984	87.04
417.192	142.33
417.4	-39.94
417.608	-17.41
417.817	-23.55
418.025	76.8
418.233	228.35
418.441	13.31
418.649	17.41
418.857	46.08
419.065	66.56
419.273	-23.55
419.481	44.03
419.689	44.03
419.897	-1.02
420.105	-13.31
420.313	87.04
420.521	119.81
420.729	134.14
420.937	-5.12
421.145	-62.46
421.353	95.23
421.561	168.96
421.769	41.98
421.977	9.22
422.185	95.23
422.393	72.7
422.601	121.85
422.809	115.71
423.017	109.57
423.224	91.13
423.432	197.63
423.64	33.79
423.848	64.51
424.056	37.89
424.263	142.33
424.471	13.31
424.679	154.62
424.887	-25.6
425.094	123.9
425.302	173.05
425.51	54.27
425.718	64.51
425.925	91.13
426.133	60.42
426.341	211.96
426.548	87.04
426.756	29.7
426.964	117.76
427.171	23.55
427.379	82.94
427.586	13.31
427.794	144.38
428.001	193.53
428.209	128
428.417	171.01
428.624	97.28
428.832	84.99
429.039	99.33
429.247	142.33
429.454	199.68
429.662	218.11
429.869	128
430.076	117.76
430.284	181.25
430.491	187.39
430.699	183.29
430.906	205.82
431.114	140.29
431.321	123.9
431.528	152.57
431.736	134.14
431.943	144.38
432.15	179.2
432.358	214.01
432.565	285.69
432.772	39.94
432.979	224.25
433.187	140.29
433.394	228.35
433.601	156.67
433.808	248.83
434.016	283.64
434.223	236.54
434.43	232.44
434.637	271.36
434.844	205.82
435.052	287.74
435.259	308.22
435.466	304.12
435.673	222.2
435.88	238.59
436.087	273.4
436.294	293.88
436.501	373.75
436.708	261.12
436.915	357.37
437.122	410.62
437.329	322.56
437.537	310.27
437.743	420.86
437.95	457.72
438.157	412.67
438.364	388.09
438.571	449.53
438.778	441.34
438.985	496.63
439.192	576.5
439.399	506.87
439.606	519.16
439.813	619.51
440.02	668.66
440.227	678.9
440.433	619.51
440.64	687.09
440.847	545.78
441.054	697.33
441.261	834.55
441.467	621.56
441.674	525.3
441.881	775.16
442.088	764.92
442.294	799.73
442.501	855.03
442.708	855.03
442.914	887.79
443.121	889.84
443.328	883.7
443.534	1068.02
443.741	1018.86
443.948	918.51
444.154	1127.41
444.361	1336.3
444.568	1129.45
444.774	1158.13
444.981	1106.93
445.187	1338.35
445.394	1373.16
445.6	1244.14
445.807	1655.78
446.013	1471.47
446.22	1324.01
446.426	1571.82
446.633	1754.09
446.839	1883.11
447.046	1653.73
447.252	1913.83
447.459	1741.8
447.665	1891.3
447.871	1979.36
448.078	2200.54
448.284	2194.4
448.491	2327.52
448.697	2221.02
448.903	2554.84
449.11	2485.21
449.316	2499.55
449.522	2737.11
449.728	2896.85
449.935	2880.47
450.141	2896.85
450.347	3132.37
450.553	3169.23
450.76	3101.65
450.966	3376.08
451.172	3337.17
451.378	3513.29
451.584	3683.27
451.791	4010.95
451.997	3886.02
452.203	4131.78
452.409	4361.15
452.615	4518.84
452.821	4352.96
453.027	4463.55
453.233	5004.21
453.44	4854.71
453.646	5104.56
453.852	5264.3
454.058	5555.12
454.264	5602.22
454.47	6175.65
454.676	6214.56
454.882	6644.63
455.088	6157.22
455.294	6656.92
455.5	7136.15
455.705	7570.32
455.911	7707.53
456.117	7773.07
456.323	8248.19
456.529	8153.99
456.735	8952.7
456.941	9184.12
457.147	9335.67
457.352	9732.97
457.558	9900.9
457.764	10449.76
457.97	10869.59
458.176	11191.13
458.381	11846.48
458.587	11957.07
458.793	12585.79
458.999	12540.74
459.204	14086.95
459.41	14740.26
459.616	14471.97
459.821	15373.08
460.027	15809.29
460.233	16603.91
460.438	16872.19
460.644	17818.35
460.85	17664.75
461.055	18420.45
461.261	19450.58
461.466	18993.89
461.672	19213.02
461.878	21789.36
462.083	21375.67
462.289	22047.41
462.494	22878.88
462.7	23122.59
462.905	23161.5
463.111	24937.09
463.316	26143.35
463.522	26858.09
463.727	27595.35
463.932	28676.68
464.138	29606.46
464.343	30622.25
464.549	30886.44
464.754	33098.25
464.959	34111.99
465.165	35006.95
465.37	34472.43
465.575	34550.26
465.781	36907.47
465.986	38080.95
466.191	37441.99
466.397	37771.71
466.602	36942.28
466.807	38511.03
467.012	39567.78
467.218	40432.02
467.423	40294.81
467.628	41652.61
467.833	43348.33
468.038	42779
468.244	42031.49
468.449	44562.78
468.654	43444.59
468.859	43411.82
469.064	43600.23
469.269	42267
469.474	42627.45
469.679	43979.1
469.885	42754.42
470.09	43432.3
470.295	43837.8
470.5	42312.06
470.705	42979.7
470.91	41378.18
471.115	41232.78
471.32	41972.1
471.525	41542.02
471.73	40354.2
471.935	40458.65
472.139	38367.67
472.344	39326.12
472.549	38623.67
472.754	37657.03
472.959	37212.62
473.164	36035.03
473.369	35656.16
473.574	36164.06
473.778	35424.74
473.983	34826.73
474.188	34570.74
474.393	32598.54
474.598	32602.64
474.802	32111.13
475.007	31646.24
475.212	31449.63
475.417	30005.81
475.621	29663.8
475.826	29250.11
476.031	28869.19
476.235	28338.77
476.44	28219.99
476.645	27443.81
476.849	27087.46
477.054	26727.02
477.259	26401.39
477.463	25782.9
477.668	25262.72
477.872	25260.67
478.077	24838.79
478.282	24013.46
478.486	23835.28
478.691	23630.49
478.895	23585.43
479.1	23272.09
479.304	23159.45
479.509	22246.06
479.713	22645.41
479.918	22135.47
480.122	21344.95
480.326	21988.02
480.531	21662.39
480.735	21476.02
480.94	21041.85
481.144	21656.25
481.348	20622.02
481.553	20560.58
481.757	20077.26
481.961	20519.62
482.166	20603.59
482.37	20312.78
482.574	19704.53
482.778	19985.1
482.983	20042.45
483.187	19555.03
483.391	19475.16
483.595	19223.26
483.8	18760.42
484.004	19098.33
484.208	19043.04
484.412	18584.29
484.616	18676.45
484.821	18416.36
485.025	17642.23
485.229	17769.2
485.433	17220.35
485.637	17617.65
485.841	17126.14
486.045	16775.94
486.249	16993.02
486.453	16268.04
486.657	16440.07
486.861	16096.01
487.065	15567.63
487.269	15788.82
487.473	15086.36
487.677	15133.47
487.881	15121.18
488.085	14734.11
488.289	14502.69
488.493	14107.43
488.697	14050.09
488.901	13769.52
489.105	13245.24
489.309	13200.18
489.512	13161.27
489.716	12802.88
489.92	12698.43
490.124	12327.75
490.328	12485.44
490.531	11916.11
490.735	11952.97
490.939	11561.81
491.143	11357.01
491.346	11184.98
491.55	11203.41
491.754	10947.42
491.958	10842.97
492.161	10660.7
492.365	10357.6
492.569	10335.07
492.772	10140.52
492.976	10013.54
493.18	9732.97
493.383	9741.16
493.587	9642.86
493.79	9649
493.994	9165.68
494.197	9196.4
494.401	9206.64
494.605	8934.26
494.808	8866.68
495.012	8917.88
495.215	8838.01
495.419	8817.53
495.622	8659.84
495.825	8729.47
496.029	8622.97
496.232	8584.06
496.436	8448.9
496.639	8809.34
496.843	8487.81
497.046	8539.01
497.249	8577.92
497.453	8418.18
497.656	8594.3
497.859	8534.91
498.063	8610.68
498.266	8819.58
498.469	8518.53
498.673	8596.35
498.876	8901.5
499.079	8739.71
499.282	8784.76
499.485	9089.91
499.689	8911.74
499.892	8997.75
500.095	8776.57
500.298	9089.91
500.501	9061.24
500.705	9268.08
500.908	9169.78
501.111	9268.08
501.314	9401.2
501.517	9743.21
501.72	9624.43
501.923	9575.28
502.126	9859.95
502.329	9919.34
502.532	9999.21
502.735	9923.43
502.938	10285.92
503.141	10552.16
503.344	10550.11
503.547	10808.16
503.75	10652.51
503.953	10840.92
504.156	11133.78
504.359	11098.97
504.562	11283.28
504.765	11639.63
504.968	11821.9
505.17	11758.41
505.373	12100.42
505.576	12522.3
505.779	12532.54
505.982	12559.17
506.185	13069.11
506.387	13257.53
506.59	13329.2
506.793	13634.35
506.996	13830.96
507.198	14426.92
507.401	14248.74
507.604	14730.02
507.807	14930.72
508.009	15461.14
508.212	15389.46
508.415	15704.85
508.617	16093.96
508.82	16427.78
509.022	16540.42
509.225	17457.91
509.428	17490.68
509.63	17670.9
509.833	18004.72
510.035	19034.85
510.238	18787.04
510.44	19602.13
510.643	19899.09
510.845	20239.05
511.048	20679.36
511.25	21023.42
511.453	21482.17
511.655	22604.46
511.858	22657.7
512.06	23048.86
512.262	23823
512.465	23995.03
512.667	24455.82
512.87	25121.41
513.072	25350.78
513.274	26491.5
513.477	27118.18
513.679	27026.02
513.881	28295.76
514.084	28820.04
514.286	29194.82
514.488	29971
514.69	31011.37
514.893	31373.86
515.095	31996.44
515.297	32602.64
515.499	32995.85
515.701	33882.62
515.904	34574.83
516.106	35529.19
516.308	36123.1
516.51	36815.31
516.712	37544.39
516.914	38390.2
517.116	39522.72
517.318	39367.08
517.52	40339.86
517.722	40675.73
517.925	41728.39
518.127	42496.38
518.329	43571.56
518.531	43397.48
518.733	44675.41
518.935	45070.67
519.136	45764.93
519.338	46524.73
519.54	47636.78
519.742	48167.2
519.944	48537.88
520.146	49467.66
520.348	50221.31
520.55	50106.63
520.752	51161.33
520.954	52742.36
521.155	52437.22
521.357	53174.48
521.559	53551.31
521.761	54984.89
521.963	54669.5
522.164	55124.15
522.366	55709.87
522.568	56336.55
522.77	56740
522.971	57622.67
523.173	57178.26
523.375	57612.43
523.576	57774.22
523.778	57866.38
523.98	58675.33
524.181	58691.71
524.383	58884.22
524.584	59359.35
524.786	59082.87
524.988	59191.42
525.189	60010.6
525.391	59891.82
525.592	60160.11
525.794	60457.06
525.995	59947.12
526.197	59732.08
526.398	59953.26
526.6	60102.76
526.801	59191.42
527.003	59562.1
527.204	59113.59
527.406	59535.48
527.607	58800.25
527.808	58998.91
528.01	58015.88
528.211	58044.55
528.412	58255.5
528.614	57888.91
528.815	57192.6
529.016	57405.59
529.218	56418.47
529.419	56434.85
529.62	55707.82
529.822	55204.02
530.023	54622.4
530.224	54354.11
530.425	53416.14
530.626	53151.96
530.828	52379.87
531.029	53072.09
531.23	51368.18
531.431	51060.98
531.632	50526.46
531.833	50118.92
532.035	49631.5
532.236	49017.11
532.437	48714.01
532.638	48062.75
532.839	47167.79
533.04	46602.55
533.241	46010.69
533.442	46281.02
533.643	45013.33
533.844	44435.8
534.045	44200.29
534.246	42944.88
534.447	42807.67
534.648	42152.32
534.849	41720.2
535.05	41017.74
535.251	40792.47
535.451	40108.44
535.652	39532.96
535.853	38658.48
536.054	38496.69
536.255	37872.06
536.456	36950.48
536.657	37650.88
536.857	36293.08
537.058	35793.37
537.259	35619.3
537.46	35164.65
537.66	34523.63
537.861	34247.16
538.062	33391.11
538.263	33516.03
538.463	32973.32
538.664	32313.87
538.865	32012.82
539.065	31435.3
539.266	31158.82
539.466	31439.39
539.667	30175.8
539.868	30595.63
540.068	29690.43
540.269	29272.64
540.469	29258.31
540.67	28834.38
540.87	28525.13
541.071	28291.66
541.271	28062.29
541.472	27857.49
541.672	27038.31
541.873	26550.89
542.073	26407.53
542.274	26600.04
542.474	25967.22
542.675	25500.28
542.875	25459.32
543.075	25180.8
543.276	24666.76
543.476	25232
543.676	24261.26
543.877	23761.56
544.077	23796.37
544.277	23612.06
544.478	23108.26
544.678	22919.84
544.878	22772.39
545.078	22608.55
545.279	22147.76
545.479	21879.47
545.679	21664.44
545.879	21537.46
546.079	21308.09
546.28	20740.8
546.48	20622.02
546.68	20605.64
546.88	20067.02
547.08	19956.43
547.28	19747.54
547.48	19348.18
547.68	19593.94
547.88	19174.11
548.081	18985.69
548.281	18457.32
548.481	18111.21
548.681	18316.01
548.881	17810.16
549.081	17521.4
549.28	17396.47
549.48	17117.95
549.68	16814.85
549.88	16900.86
550.08	16513.8
550.28	16476.93
550.48	16204.55
550.68	15741.71
550.88	15563.54
551.08	15168.28
551.279	15373.08
551.479	14865.18
551.679	14711.58
551.879	14437.16
552.079	14299.94
552.278	14125.86
552.478	13986.6
552.678	13869.87
552.878	13857.58
553.077	13310.77
553.277	12870.46
553.477	13032.25
553.676	12497.73
553.876	12579.65
554.076	12276.55
554.275	12245.83
554.475	11912.01
554.674	11891.53
554.874	11604.81
555.074	11420.5
555.273	11443.03
555.473	11025.24
555.672	10941.27
555.872	10578.78
556.071	10662.75
556.271	10568.54
556.47	10181.48
556.67	9976.68
556.869	9780.07
557.068	9741.16
557.268	9655.15
557.467	9388.91
557.667	9403.25
557.866	9034.61
558.065	8958.84
558.265	8803.19
558.464	8672.12
558.663	8596.35
558.863	8364.93
559.062	8307.59
559.261	8131.46
559.461	7969.67
559.66	8010.63
559.859	7777.16
560.058	7541.64
560.258	7439.25
560.457	7420.81
560.656	7486.35
560.855	7197.59
561.054	7261.07
561.253	7011.22
561.453	6917.01
561.652	6683.55
561.851	6708.12
562.05	6695.83
562.249	6202.27
562.448	6370.21
562.647	6050.72
562.846	5929.89
563.045	6286.24
563.244	6081.44
563.443	5880.74
563.642	5721
563.841	5804.97
564.04	5708.71
564.239	5510.06
564.438	5467.05
564.637	5323.69
564.836	5393.33
565.035	5112.75
565.234	5225.39
565.432	5116.85
565.631	4991.92
565.83	5049.27
566.029	4883.38
566.228	4875.19
566.427	4875.19
566.625	4516.8
566.824	4514.75
567.023	4561.85
567.222	4324.29
567.42	4332.48
567.619	4369.34
567.818	4268.99
568.016	4432.83
568.215	4260.8
568.414	4279.23
568.612	4039.62
568.811	3892.16
569.01	3914.69
569.208	3752.9
569.407	3916.74
569.605	3812.29
569.804	3697.61
570.002	3658.7
570.201	3484.62
570.4	3599.31
570.598	3439.56
570.797	3480.52
570.995	3253.2
571.193	3310.54
571.392	3427.28
571.59	3273.68
571.789	3242.96
571.987	3218.38
572.186	3251.15
572.384	2898.9
572.582	3052.5
572.781	2978.77
572.979	2730.97
573.177	2839.51
573.376	2763.73
573.574	2882.52
573.772	2814.93
573.971	2638.81
574.169	2485.21
574.367	2739.16
574.565	2532.31
574.763	2628.57
574.962	2464.73
575.16	2335.71
575.358	2423.77
575.556	2341.85
575.754	2356.19
575.952	2282.46
576.151	2362.33
576.349	2300.89
576.547	2102.24
576.745	2294.75
576.943	2198.49
577.141	2102.24
577.339	2079.71
577.537	2112.48
577.735	2137.06
577.933	2057.18
578.131	1821.67
578.329	2036.7
578.527	1879.01
578.725	1924.07
578.923	1733.61
579.121	1897.44
579.319	1649.64
579.516	1809.38
579.714	1962.98
579.912	1688.55
580.11	1512.42
580.308	1663.97
580.506	1567.72
580.704	1477.61
580.901	1395.69
581.099	1596.39
581.297	1575.91
581.495	1608.68
581.692	1489.9
581.89	1485.8
582.088	1485.8
582.285	1317.87
582.483	1428.46
582.681	1321.96
582.878	1389.55
583.076	1291.24
583.274	1393.64
583.471	1405.93
583.669	1238
583.866	1225.71
584.064	1188.85
584.262	1121.26
584.459	1102.83
584.657	1131.5
584.854	1225.71
585.052	1160.17
585.249	1231.85
585.447	1137.65
585.644	1072.11
585.841	1180.65
586.039	1182.7
586.236	1143.79
586.434	1000.43
586.631	961.52
586.828	1027.06
587.026	953.33
587.223	996.34
587.42	875.51
587.618	965.62
587.815	1068.02
588.012	891.89
588.21	883.7
588.407	965.62
588.604	992.24
588.801	848.88
588.999	920.56
589.196	1045.49
589.393	945.14
589.59	1022.96
589.787	859.12
589.984	918.51
590.182	883.7
590.379	750.58
590.576	879.6
590.773	787.44
590.97	818.16
591.167	926.71
591.364	830.45
591.561	746.48
591.758	900.08
591.955	834.55
592.152	838.64
592.349	783.35
592.546	693.24
592.743	769.01
592.94	769.01
593.137	836.6
593.334	842.74
593.531	863.22
593.727	826.36
593.924	850.93
594.121	672.76
594.318	793.59
594.515	826.36
594.712	922.61
594.908	898.03
595.105	777.2
595.302	932.85
595.499	881.65
595.696	949.23
595.892	793.59
596.089	1041.39
596.286	922.61
596.482	1031.15
596.679	1004.53
596.876	797.68
597.072	1100.78
597.269	988.14
597.466	994.29
597.662	1033.2
597.859	1092.59
598.055	1102.83
598.252	1223.66
598.448	1305.58
598.645	1293.29
598.841	1328.11
599.038	1500.14
599.234	1473.51
599.431	1516.52
599.627	1426.41
599.824	1623.02
600.02	1698.79
600.217	1637.35
600.413	1836
600.609	1915.87
600.806	2200.54
601.002	1977.31
601.198	1940.45
601.395	2218.97
601.591	2175.97
601.787	2257.89
601.984	2286.56
602.18	2477.02
602.376	2481.11
602.572	2835.41
602.769	2796.5
602.965	2765.78
603.161	2827.22
603.357	2964.43
603.553	3066.83
603.75	3169.23
603.946	3294.16
604.142	3482.57
604.338	3511.24
604.534	3664.84
604.73	3779.53
604.926	3873.73
605.122	4125.63
605.318	4074.43
605.514	4408.25
605.71	4305.85
605.906	4643.77
606.102	4735.93
606.298	4918.2
606.494	5170.1
606.69	5211.06
606.886	5217.2
607.082	5389.23
607.278	5329.84
607.474	5772.2
607.67	5989.28
607.866	5831.59
608.062	6163.36
608.257	6415.26
608.453	6327.2
608.649	6638.49
608.845	6798.23
609.041	7046.04
609.236	7363.47
609.432	7562.12
609.628	7777.16
609.824	8049.54
610.019	7873.42
610.215	8207.23
610.411	8547.2
610.606	8729.47
610.802	8958.84
610.998	9208.69
611.193	9638.76
611.389	9630.57
611.584	9892.71
611.78	10169.19
611.976	10150.76
612.171	10775.39
612.367	11045.72
612.562	11377.49
612.758	11402.07
612.953	11549.52
613.149	12073.8
613.344	12368.71
613.539	12675.9
613.735	13017.91
613.93	13564.72
614.126	13800.24
614.321	14371.62
614.517	14568.23
614.712	14918.43
614.907	15356.69
615.103	15606.55
615.298	15948.56
615.493	16767.74
615.688	16710.4
615.884	17439.48
616.079	17644.27
616.274	18610.92
616.47	18692.83
616.665	19339.99
616.86	19479.25
617.055	19989.2
617.25	20415.18
617.445	21400.25
617.641	21066.43
617.836	22090.41
618.031	22262.44
618.226	23554.71
618.421	23739.03
618.616	24398.48
618.811	24189.58
619.006	25303.68
619.201	25479.8
619.396	26276.46
619.591	26776.17
619.786	27632.22
619.981	27804.25
620.176	28817.99
620.371	29166.15
620.566	29833.78
620.761	30417.46
620.956	31042.09
621.151	31533.6
621.346	32410.13
621.541	32567.82
621.735	33763.84
621.93	34294.26
622.125	34613.74
622.32	35049.96
622.515	36297.17
622.709	36798.93
622.904	37089.74
623.099	38074.81
623.294	38783.41
623.488	39291.3
623.683	39981.47
623.878	39993.76
624.072	41089.42
624.267	41963.9
624.462	42097.02
624.656	42764.66
624.851	43913.57
625.046	44140.89
625.24	44740.95
625.435	45142.35
625.629	46178.62
625.824	46260.54
626.018	46782.77
626.213	47018.29
626.407	48480.54
626.602	47851.81
626.796	49086.74
626.991	49813.77
627.185	49715.47
627.38	50143.49
627.574	50106.63
627.768	50573.56
627.963	50741.5
628.157	50925.81
628.352	51419.38
628.546	50759.93
628.74	51716.33
628.935	50905.34
629.129	51683.56
629.323	51095.8
629.517	50796.79
629.712	50583.8
629.906	50417.92
630.1	49770.76
630.294	49705.23
630.489	48359.71
630.683	48728.34
630.877	46969.14
631.071	46819.64
631.265	46481.72
631.459	45168.97
631.653	44384.6
631.848	43503.98
632.042	42078.59
632.236	41451.91
632.43	40102.3
632.624	39815.58
632.818	38582.71
633.012	37206.47
633.206	36057.56
633.4	34871.79
633.594	33640.96
633.788	32707.08
633.982	31924.76
634.176	30480.94
634.369	29459.01
634.563	28412.49
634.757	27333.21
634.951	26727.02
635.145	25201.28
635.339	24521.35
635.533	23042.72
635.726	22848.16
635.92	21193.4
636.114	20757.19
636.308	19534.55
636.501	19088.09
636.695	18148.08
636.889	17351.42
637.083	16894.72
637.276	16040.72
637.47	15368.98
637.664	14672.67
637.857	14191.4
638.051	13566.77
638.244	13099.83
638.438	12671.81
638.632	12317.51
638.825	11541.33
639.019	11236.18
639.212	10441.57
639.406	10359.65
639.599	9720.68
639.793	9458.54
639.986	9038.71
640.18	8618.88
640.373	8788.86
640.567	7955.33
640.76	7795.59
640.954	7379.86
641.147	7033.75
641.34	7000.98
641.534	6755.22
641.727	6552.48
641.92	6142.88
642.114	5921.7
642.307	5690.28
642.5	5686.19
642.694	5192.62
642.887	5188.53
643.08	4948.92
643.273	4709.3
643.467	4586.43
643.66	4297.66
643.853	4246.46
644.046	4025.28
644.239	3892.16
644.432	3687.37
644.626	3445.71
644.819	3580.87
645.012	3249.1
645.205	3265.49
645.398	3247.05
645.591	2980.82
645.784	2802.65
645.977	2552.79
646.17	2644.95
646.363	2474.97
646.556	2345.95
646.749	2221.02
646.942	2264.03
647.135	2229.21
647.328	2026.47
647.521	2132.96
647.714	1874.92
647.907	1850.34
648.099	1807.33
648.292	1786.85
648.485	1623.02
648.678	1639.4
648.871	1448.94
649.064	1526.76
649.256	1256.43
649.449	1389.55
649.642	1158.13
649.835	1252.33
650.027	1147.89
650.22	1299.44
650.413	1162.22
650.605	1154.03
650.798	1002.48
650.991	1039.34
651.183	1078.26
651.376	977.91
651.568	988.14
651.761	920.56
651.954	928.75
652.146	760.82
652.339	898.03
652.531	842.74
652.724	732.15
652.916	691.19
653.109	666.61
653.301	719.86
653.494	642.04
653.686	660.47
653.879	646.13
654.071	658.42
654.263	678.9
654.456	543.74
654.648	609.27
654.84	568.31
655.033	543.74
655.225	613.37
655.417	371.71
655.61	646.13
655.802	527.35
655.994	576.5
656.186	392.19
656.379	504.82
656.571	398.33
656.763	467.96
656.955	347.13
657.148	343.03
657.34	467.96
657.532	439.29
657.724	359.42
657.916	375.8
658.108	457.72
658.3	359.42
658.492	334.84
658.684	310.27
658.876	359.42
659.068	338.94
659.26	121.85
659.452	300.03
659.644	340.99
659.836	375.8
660.028	230.4
660.22	293.88
660.412	289.79
660.604	181.25
660.796	250.88
660.988	336.89
661.18	220.16
661.372	271.36
661.563	250.88
661.755	228.35
661.947	201.72
662.139	195.58
662.331	269.31
662.522	191.49
662.714	103.42
662.906	173.05
663.097	248.83
663.289	148.48
663.481	109.57
663.673	207.87
663.864	166.91
664.056	214.01
664.247	119.81
664.439	287.74
664.631	220.16
664.822	234.49
665.014	168.96
665.205	164.86
665.397	154.62
665.588	191.49
665.78	134.14
665.971	179.2
666.163	146.43
666.354	179.2
666.546	179.2
666.737	103.42
666.929	128
667.12	111.61
667.311	183.29
667.503	111.61
667.694	175.1
667.885	185.34
668.077	173.05
668.268	68.61
668.459	130.05
668.651	164.86
668.842	166.91
669.033	130.05
669.224	125.95
669.416	361.47
669.607	68.61
669.798	31.74
669.989	236.54
670.18	103.42
670.371	128
670.563	150.53
670.754	162.81
670.945	173.05
671.136	183.29
671.327	107.52
671.518	220.16
671.709	283.64
671.9	140.29
672.091	168.96
672.282	142.33
672.473	97.28
672.664	-5.12
672.855	93.18
673.046	146.43
673.237	181.25
673.428	146.43
673.619	263.16
673.809	113.66
674	234.49
674.191	128
674.382	84.99
674.573	128
674.764	105.47
674.954	216.06
675.145	60.42
675.336	109.57
675.527	128
675.717	130.05
675.908	31.74
676.099	119.81
676.289	199.68
676.48	13.31
676.671	89.09
676.861	101.37
677.052	130.05
677.243	56.32
677.433	154.62
677.624	191.49
677.814	119.81
678.005	64.51
678.195	158.72
678.386	7.17
678.576	183.29
678.767	82.94
678.957	138.24
679.148	181.25
679.338	173.05
679.529	125.95
679.719	60.42
679.909	211.96
680.1	105.47
680.29	218.11
680.481	48.13
680.671	54.27
680.861	156.67
681.052	156.67
681.242	107.52
681.432	187.39
681.622	175.1
681.813	58.37
682.003	160.77
682.193	76.8
682.383	142.33
682.573	99.33
682.764	111.61
682.954	168.96
683.144	193.53
683.334	109.57
683.524	209.92
683.714	152.57
683.904	134.14
684.094	181.25
684.284	136.19
684.474	232.44
684.664	222.2
684.854	146.43
685.044	187.39
685.234	166.91
685.424	132.09
685.614	99.33
685.804	357.37
685.994	140.29
686.184	123.9
686.374	207.87
686.564	150.53
686.753	154.62
686.943	31.74
687.133	181.25
687.323	171.01
687.513	224.25
687.702	177.15
687.892	95.23
688.082	189.44
688.272	261.12
688.461	171.01
688.651	263.16
688.841	156.67
689.03	193.53
689.22	130.05
689.41	201.72
689.599	150.53
689.789	89.09
689.979	312.32
690.168	168.96
690.358	261.12
690.547	226.3
690.737	162.81
690.926	140.29
691.116	136.19
691.305	207.87
691.495	203.77
691.684	78.85
691.874	162.81
692.063	93.18
692.252	144.38
692.442	326.65
692.631	164.86
692.82	144.38
693.01	166.91
693.199	146.43
693.388	130.05
693.578	168.96
693.767	248.83
693.956	179.2
694.146	72.7
694.335	234.49
694.524	197.63
694.713	203.77
694.902	191.49
695.092	93.18
695.281	214.01
695.47	175.1
695.659	160.77
695.848	128
696.037	105.47
696.226	181.25
696.415	211.96
696.604	240.64
696.793	275.45
696.982	175.1
697.171	283.64
697.36	95.23
697.549	68.61
697.738	21.5
697.927	154.62
698.116	164.86
698.305	228.35
698.494	166.91
698.683	50.18
698.872	267.26
699.061	201.72
699.25	103.42
699.438	234.49
699.627	130.05
699.816	355.32
700.005	37.89
700.193	138.24
700.382	259.07
700.571	183.29
700.76	146.43
700.948	218.11
701.137	199.68
701.326	302.08
701.514	171.01
701.703	136.19
701.892	181.25
702.08	281.6
702.269	50.18
702.457	60.42
702.646	185.34
702.834	125.95
703.023	197.63
703.212	218.11
703.4	236.54
703.589	128
703.777	166.91
703.965	181.25
704.154	105.47
704.342	140.29
704.531	130.05
704.719	179.2
704.907	179.2
705.096	134.14
705.284	25.6
705.472	201.72
705.661	236.54
705.849	216.06
706.037	246.78
706.226	168.96
706.414	142.33
706.602	64.51
706.79	166.91
706.979	175.1
707.167	119.81
707.355	-1.02
707.543	289.79
707.731	156.67
707.919	154.62
708.107	146.43
708.296	76.8
708.484	25.6
708.672	130.05
708.86	205.82
709.048	154.62
709.236	64.51
709.424	171.01
709.612	203.77
709.8	138.24
709.988	162.81
710.176	183.29
710.364	257.02
710.551	97.28
710.739	115.71
710.927	158.72
711.115	97.28
711.303	220.16
711.491	261.12
711.679	66.56
711.866	160.77
712.054	168.96
712.242	140.29
712.43	162.81
712.617	238.59
712.805	201.72
712.993	228.35
713.181	5.12
713.368	244.73
713.556	128
713.744	64.51
713.931	381.95
714.119	261.12
714.306	84.99
714.494	97.28
714.682	236.54
714.869	117.76
715.057	111.61
715.244	13.31
715.432	156.67
715.619	101.37
715.807	109.57
715.994	142.33
716.182	195.58
716.369	222.2
716.556	195.58
716.744	84.99
716.931	130.05
717.119	140.29
717.306	191.49
717.493	179.2
717.681	56.32
717.868	125.95
718.055	224.25
718.242	175.1
718.43	238.59
718.617	250.88
718.804	123.9
718.991	232.44
719.179	222.2
719.366	246.78
719.553	216.06
719.74	177.15
719.927	193.53
720.114	171.01
720.301	64.51
720.488	132.09
720.676	111.61
720.863	234.49
721.05	345.08
721.237	269.31
721.424	173.05
721.611	203.77
721.798	46.08
721.985	132.09
722.172	78.85
722.358	203.77
722.545	214.01
722.732	152.57
722.919	265.21
723.106	232.44
723.293	160.77
723.48	230.4
723.667	177.15
723.853	242.68
724.04	263.16
724.227	297.98
724.414	209.92
724.6	230.4
724.787	304.12
724.974	246.78
725.161	226.3
725.347	101.37
725.534	207.87
725.72	222.2
725.907	232.44
726.094	250.88
726.28	218.11
726.467	168.96
726.653	82.94
726.84	242.68
727.027	252.92
727.213	207.87
727.4	242.68
727.586	158.72
727.773	175.1
727.959	240.64
728.145	218.11
728.332	148.48
728.518	199.68
728.705	232.44
728.891	164.86
729.077	236.54
729.264	138.24
729.45	226.3
729.636	283.64
729.823	195.58
730.009	287.74
730.195	271.36
730.382	349.18
730.568	101.37
730.754	179.2
730.94	234.49
731.126	195.58
731.313	207.87
731.499	185.34
731.685	252.92
731.871	271.36
732.057	250.88
732.243	166.91
732.429	152.57
732.615	318.46
732.801	257.02
732.987	160.77
733.173	207.87
733.359	89.09
733.545	189.44
733.731	189.44
733.917	357.37
734.103	228.35
734.289	218.11
734.475	150.53
734.661	394.23
734.847	226.3
735.033	187.39
735.219	297.98
735.404	193.53
735.59	222.2
735.776	199.68
735.962	220.16
736.148	246.78
736.333	267.26
736.519	267.26
736.705	244.73
736.89	164.86
737.076	218.11
737.262	89.09
737.447	142.33
737.633	189.44
737.819	246.78
738.004	193.53
738.19	250.88
738.375	166.91
738.561	318.46
738.747	230.4
738.932	164.86
739.118	308.22
739.303	224.25
739.489	254.97
739.674	80.89
739.859	140.29
740.045	269.31
740.23	244.73
740.416	15.36
740.601	216.06
740.786	171.01
740.972	226.3
741.157	130.05
741.342	109.57
741.528	140.29
741.713	214.01
741.898	117.76
742.084	191.49
742.269	166.91
742.454	246.78
742.639	175.1
742.824	277.5
743.01	267.26
743.195	287.74
743.38	183.29
743.565	187.39
743.75	224.25
743.935	297.98
744.12	211.96
744.305	66.56
744.49	209.92
744.675	144.38
744.86	144.38
745.045	211.96
745.23	193.53
745.415	189.44
745.6	201.72
745.785	105.47
745.97	302.08
746.155	142.33
746.34	295.93
746.525	87.04
746.71	252.92
746.895	93.18
747.079	101.37
747.264	175.1
747.449	171.01
747.634	310.27
747.819	183.29
748.003	220.16
748.188	171.01
748.373	134.14
748.557	181.25
748.742	209.92
748.927	148.48
749.111	125.95
749.296	154.62
749.481	254.97
749.665	132.09
749.85	191.49
750.034	209.92
750.219	160.77
750.404	29.7
750.588	148.48
750.773	109.57
750.957	160.77
751.141	175.1
751.326	199.68
751.51	5.12
751.695	113.66
751.879	113.66
752.064	181.25
752.248	162.81
752.432	179.2
752.617	130.05
752.801	271.36
752.985	111.61
753.17	164.86
753.354	146.43
753.538	160.77
753.722	50.18
753.907	189.44
754.091	171.01
754.275	242.68
754.459	62.46
754.643	72.7
754.828	72.7
755.012	218.11
755.196	-1.02
755.38	109.57
755.564	117.76
755.748	95.23
755.932	156.67
756.116	173.05
756.3	130.05
756.484	11.26
756.668	173.05
756.852	41.98
757.036	113.66
757.22	93.18
757.404	56.32
757.588	44.03
757.772	115.71
757.956	50.18
758.14	197.63
758.323	7.17
758.507	173.05
758.691	80.89
758.875	175.1
759.059	240.64
759.242	-52.22
759.426	87.04
759.61	138.24
759.794	62.46
759.977	128
760.161	302.08
760.345	66.56
760.528	166.91
760.712	87.04
760.895	72.7
761.079	101.37
761.263	31.74
761.446	-44.03
761.63	101.37
761.813	162.81
761.997	37.89
762.18	52.22
762.364	84.99
762.547	-123.9
762.731	107.52
762.914	41.98
763.098	181.25
763.281	44.03
763.464	17.41
763.648	97.28
763.831	29.7
764.015	46.08
764.198	105.47
764.381	82.94
764.564	-7.17
764.748	-23.55
764.931	109.57
765.114	72.7
765.297	136.19
765.481	-37.89
765.664	82.94
765.847	105.47
766.03	181.25
766.213	-9.22
766.397	121.85
766.58	-60.42
766.763	211.96
766.946	93.18
767.129	23.55
767.312	25.6
767.495	76.8
767.678	41.98
767.861	115.71
768.044	72.7
768.227	48.13
768.41	68.61
768.593	70.65
768.776	105.47
768.959	-9.22
769.142	105.47
769.324	39.94
769.507	29.7
769.69	41.98
769.873	27.65
770.056	242.68
770.239	72.7
770.421	72.7
770.604	68.61
770.787	46.08
770.97	87.04
771.152	62.46
771.335	13.31
771.518	-17.41
771.7	177.15
771.883	201.72
772.066	27.65
772.248	123.9
772.431	41.98
772.613	197.63
772.796	95.23
772.978	97.28
773.161	158.72
773.343	35.84
773.526	76.8
773.708	-74.75
773.891	-39.94
774.073	84.99
774.256	46.08
774.438	158.72
774.621	91.13
774.803	148.48
774.985	29.7
775.168	132.09
775.35	41.98
775.532	56.32
775.715	15.36
775.897	60.42
776.079	39.94
776.261	162.81
776.444	25.6
776.626	44.03
776.808	-15.36
776.99	-29.7
777.173	5.12
777.355	3.07
777.537	19.46
777.719	50.18
777.901	27.65
778.083	-1.02
778.265	-54.27
778.447	113.66
778.629	-66.56
778.811	27.65
778.993	154.62
779.175	156.67
779.357	48.13
779.539	-27.65
779.721	72.7
779.903	99.33
780.085	37.89
780.267	39.94
780.449	41.98
780.631	13.31
780.812	119.81
780.994	11.26
781.176	58.37
781.358	19.46
781.54	97.28
781.721	93.18
781.903	123.9
782.085	-41.98
782.267	150.53
782.448	-99.33
782.63	82.94
782.812	-78.85
782.993	33.79
783.175	101.37
783.357	-25.6
783.538	80.89
783.72	1.02
783.901	64.51
784.083	82.94
784.264	21.5
784.446	-17.41
784.627	-39.94
784.809	37.89
784.99	1.02
785.172	95.23
785.353	7.17
785.535	54.27
785.716	3.07
785.897	9.22
786.079	-37.89
786.26	21.5
786.441	74.75
786.623	-173.05
786.804	7.17
786.985	-46.08
787.167	113.66
787.348	35.84
787.529	-23.55
787.71	121.85
787.891	-9.22
788.073	-13.31
788.254	-11.26
788.435	160.77
788.616	82.94
788.797	-52.22
788.978	33.79
789.159	-7.17
789.34	95.23
789.522	-62.46
789.703	-21.5
789.884	-29.7
790.065	158.72
790.246	250.88
790.427	-11.26
790.607	140.29
790.788	113.66
790.969	-60.42
791.15	-3.07
791.331	-31.74
791.512	13.31
791.693	-113.66
791.874	-54.27
792.054	160.77
792.235	56.32
792.416	-19.46
792.597	-3.07
792.778	25.6
792.958	5.12
793.139	-3.07
793.32	-25.6
793.5	-33.79
793.681	138.24
793.862	64.51
794.042	-3.07
794.223	-33.79
794.404	15.36
794.584	-66.56
794.765	31.74
794.945	3.07
795.126	31.74
795.306	76.8
795.487	-15.36
795.667	13.31
795.848	25.6
796.028	-41.98
796.209	54.27
796.389	82.94
796.57	66.56
796.75	-50.18
796.93	39.94
797.111	37.89
797.291	-9.22
797.471	-7.17
797.652	3.07
797.832	-89.09
798.012	62.46
798.192	-35.84
798.373	-80.89
798.553	39.94
798.733	9.22
798.913	-78.85
799.093	-58.37
799.274	27.65
799.454	-5.12
799.634	37.89
799.814	78.85
799.994	41.98
800.174	84.99
800.354	-37.89
800.534	-48.13
800.714	50.18
800.894	-33.79
801.074	-103.42
801.254	-13.31
801.434	119.81
801.614	27.65
801.794	-33.79
801.974	1715.17
802.154	-50.18
802.334	23.55
802.514	-37.89
802.693	17.41
802.873	-48.13
803.053	95.23
803.233	37.89
803.413	-13.31
803.592	-54.27
803.772	-48.13
803.952	35.84
804.131	-130.05
804.311	68.61
804.491	99.33
804.67	-19.46
804.85	-70.65
805.03	52.22
805.209	27.65
805.389	-3.07
805.568	-27.65
805.748	19.46
805.928	-62.46
806.107	70.65
806.287	-3.07
806.466	37.89
806.646	9.22
806.825	39.94
807.004	-23.55
807.184	21.5
807.363	13.31
807.543	11.26
807.722	-37.89
807.901	50.18
808.081	23.55
808.26	-84.99
808.439	54.27
808.619	68.61
808.798	-97.28
808.977	50.18
809.156	123.9
809.336	31.74
809.515	70.65
809.694	-60.42
809.873	-11.26
810.052	-15.36
810.231	76.8
810.411	60.42
810.59	66.56
810.769	-46.08
810.948	54.27
811.127	-95.23
811.306	-37.89
811.485	-15.36
811.664	130.05
811.843	15.36
812.022	-50.18
812.201	33.79
812.38	-58.37
812.559	-41.98
812.737	93.18
812.916	-162.81
813.095	-97.28
813.274	-23.55
813.453	35.84
813.632	68.61
813.811	1.02
813.989	-93.18
814.168	-19.46
814.347	-64.51
814.526	-39.94
814.704	72.7
814.883	166.91
815.062	-76.8
815.24	9.22
815.419	-58.37
815.598	-11.26
815.776	-111.61
815.955	84.99
816.133	-144.38
816.312	-19.46
816.49	-41.98
816.669	-13.31
816.847	25.6
817.026	37.89
817.204	-1.02
817.383	-11.26
817.561	-78.85
817.74	50.18
817.918	50.18
818.097	3.07
818.275	-25.6
818.453	41.98
818.632	52.22
818.81	3.07
818.988	-13.31
819.167	-76.8
819.345	23.55
819.523	-91.13
819.701	99.33
819.879	39.94
820.058	11.26
820.236	84.99
820.414	17.41
820.592	-23.55
820.77	-56.32
820.948	-23.55
821.127	-97.28
821.305	33.79
821.483	-136.19
821.661	78.85
821.839	-21.5
822.017	21.5
822.195	-50.18
822.373	46.08
822.551	17.41
822.729	64.51
822.907	-15.36
823.085	-44.03
823.262	-21.5
823.44	-17.41
823.618	7.17
823.796	-23.55
823.974	-37.89
824.152	1.02
824.329	-21.5
824.507	44.03
824.685	37.89
824.863	-64.51
825.04	13.31
825.218	-29.7
825.396	9.22
825.574	1.02
825.751	9.22
825.929	39.94
826.107	-41.98
826.284	35.84
826.462	13.31
826.639	-136.19
826.817	-80.89
826.994	-21.5
827.172	-103.42
827.349	56.32
827.527	-3.07
827.704	46.08
827.882	11.26
828.059	-11.26
828.237	-15.36
828.414	15.36
828.591	-156.67
828.769	9.22
828.946	-91.13
829.124	128
829.301	64.51
829.478	-13.31
829.655	19.46
829.833	-11.26
830.01	-72.7
830.187	5.12
830.364	-27.65
830.542	39.94
830.719	84.99
830.896	72.7
831.073	62.46
831.25	13.31
831.427	82.94
831.604	-48.13
831.782	-93.18
831.959	5.12
832.136	-70.65
832.313	39.94
832.49	-44.03
832.667	3.07
832.844	-105.47
833.021	-9.22
833.198	68.61
833.374	-1.02
833.551	64.51
833.728	-138.24
833.905	62.46
834.082	-76.8
834.259	39.94
834.436	33.79
834.612	-142.33
834.789	54.27
834.966	19.46
835.143	29.7
835.319	-121.85
835.496	84.99
835.673	74.75
835.85	31.74
836.026	111.61
836.203	27.65
836.38	-142.33
836.556	-5.12
836.733	-58.37
836.909	115.71
837.086	-46.08
837.262	-117.76
837.439	64.51
837.616	-113.66
837.792	-3.07
837.968	-44.03
838.145	-209.92
838.321	-37.89
838.498	31.74
838.674	103.42
838.851	-46.08
839.027	-87.04
839.203	29.7
839.38	19.46
839.556	7.17
839.732	171.01
839.909	-5.12
840.085	44.03
840.261	-132.09
840.437	17.41
840.614	31.74
840.79	107.52
840.966	60.42
841.142	-7.17
841.318	-48.13
841.494	60.42
841.671	15.36
841.847	7.17
842.023	-103.42
842.199	-17.41
842.375	91.13
842.551	-138.24
842.727	-132.09
842.903	103.42
843.079	-117.76
843.255	7.17
843.431	62.46
843.607	48.13
843.783	-164.86
843.959	41.98
844.134	-68.61
844.31	56.32
844.486	-21.5
844.662	-29.7
844.838	-68.61
845.013	13.31
845.189	60.42
845.365	23.55
845.541	111.61
845.716	5.12
845.892	48.13
846.068	5.12
846.244	37.89
846.419	-1.02
846.595	-142.33
846.77	-19.46
846.946	23.55
847.122	-29.7
847.297	-29.7
847.473	142.33
847.648	-29.7
847.824	64.51
847.999	-173.05
848.175	-50.18
848.35	72.7
848.526	101.37
848.701	35.84
848.876	87.04
849.052	15.36
849.227	-9.22
849.403	-17.41
849.578	31.74
849.753	27.65
849.929	74.75
850.104	-80.89
850.279	-23.55
850.454	-21.5
850.63	-11.26
850.805	-37.89
850.98	-68.61
851.155	-60.42
851.33	41.98
851.505	-72.7
851.681	111.61
851.856	-48.13
852.031	35.84
852.206	13.31
852.381	-132.09
852.556	-7.17
852.731	44.03
852.906	84.99
853.081	15.36
853.256	125.95
853.431	-125.95
853.606	-7.17
853.781	-52.22
853.956	-82.94
854.131	-50.18
854.305	-41.98
854.48	-1.02
854.655	-95.23
854.83	3.07
855.005	-3.07
855.18	17.41
855.354	37.89
855.529	7.17
855.704	-19.46
855.879	23.55
856.053	-37.89
856.228	15.36
856.403	-87.04
856.577	-33.79
856.752	-72.7
856.926	-54.27
857.101	-54.27
857.276	-105.47
857.45	-29.7
857.625	50.18
857.799	15.36
857.974	46.08
858.148	-148.48
858.323	19.46
858.497	-19.46
858.672	-41.98
858.846	-109.57
859.02	66.56
859.195	-54.27
859.369	-46.08
859.543	93.18
859.718	-54.27
859.892	35.84
860.066	1.02
860.241	-58.37
860.415	-19.46
860.589	23.55
860.763	-44.03
860.938	-125.95
861.112	52.22
861.286	-74.75
861.46	-54.27
861.634	-115.71
861.808	33.79
861.982	-66.56
862.157	-162.81
862.331	-39.94
862.505	-97.28
862.679	-132.09
862.853	-64.51
863.027	-37.89
863.201	103.42
863.375	-95.23
863.549	11.26
863.722	78.85
863.896	87.04
864.07	-58.37
864.244	-48.13
864.418	31.74
864.592	-31.74
864.766	-31.74
864.939	-58.37
865.113	-29.7
865.287	103.42
865.461	-105.47
865.634	41.98
865.808	-9.22
865.982	-99.33
866.156	-52.22
866.329	-84.99
866.503	-29.7
866.676	78.85
866.85	35.84
867.024	-52.22
867.197	107.52
867.371	13.31
867.544	7.17
867.718	-99.33
867.891	78.85
868.065	-50.18
868.238	-13.31
868.412	111.61
868.585	74.75
868.759	-56.32
868.932	-111.61
869.105	-82.94
869.279	-74.75
869.452	13.31
869.625	-17.41
869.799	23.55
869.972	-138.24
870.145	3.07
870.319	70.65
870.492	-58.37
870.665	-68.61
870.838	-91.13
871.011	-166.91
871.185	-15.36
871.358	-103.42
871.531	-21.5
871.704	-78.85
871.877	-7.17
872.05	-29.7
872.223	5.12
872.396	78.85
872.569	7.17
872.742	-168.96
872.915	23.55
873.088	-138.24
873.261	-173.05
873.434	99.33
873.607	-130.05
873.78	52.22
873.953	-66.56
874.126	44.03
874.299	19.46
874.471	-33.79
874.644	-70.65
874.817	70.65
874.99	99.33
875.163	-89.09
875.335	-54.27
875.508	-103.42
875.681	105.47
875.853	-7.17
876.026	-56.32
876.199	31.74
876.371	7.17
876.544	15.36
876.717	31.74
876.889	-91.13
877.062	-64.51
877.234	-62.46
877.407	-125.95
877.579	27.65
877.752	-3.07
877.924	68.61
878.097	72.7
878.269	-74.75
878.442	13.31
878.614	105.47
878.786	9.22
878.959	13.31
879.131	-21.5
879.303	-87.04
879.476	-29.7
879.648	19.46
879.82	-41.98
879.993	-31.74
880.165	5.12
880.337	-164.86
880.509	35.84
880.681	-146.43
880.854	-44.03
881.026	19.46
881.198	160.77
881.37	13.31
881.542	21.5
881.714	-97.28
881.886	-58.37
882.058	-46.08
882.23	-52.22
882.402	-80.89
882.574	-5.12
882.746	11.26
882.918	76.8
883.09	35.84
883.262	-76.8
883.434	35.84
883.606	-138.24
883.778	-41.98
883.95	134.14
884.122	-113.66
884.293	101.37
884.465	-21.5
884.637	91.13
884.809	-39.94
884.98	1.02
885.152	66.56
885.324	-78.85
885.496	-62.46
885.667	-50.18
885.839	-46.08
886.011	111.61
886.182	-41.98
886.354	56.32
886.525	52.22
886.697	25.6
886.869	-50.18
887.04	-58.37
887.212	148.48
887.383	179.2
887.555	-19.46
887.726	-13.31
887.897	-48.13
888.069	-9.22
888.24	-21.5
888.412	-41.98
888.583	-35.84
888.754	-41.98
888.926	-105.47
889.097	-17.41
889.268	-95.23
889.44	-52.22
889.611	-95.23
889.782	-33.79
889.953	-146.43
890.125	33.79
890.296	-56.32
890.467	-48.13
890.638	-39.94
890.809	19.46
890.98	-101.37
891.151	72.7
891.323	62.46
891.494	-5.12
891.665	3.07
891.836	-70.65
892.007	-31.74
892.178	-3.07
892.349	37.89
892.52	-66.56
892.691	11.26
892.862	-21.5
893.032	-95.23
893.203	-11.26
893.374	-50.18
893.545	91.13
893.716	-41.98
893.887	60.42
894.057	-66.56
894.228	-52.22
894.399	11.26
894.57	-7.17
894.74	-7.17
894.911	-33.79
895.082	-93.18
895.253	-70.65
895.423	37.89
895.594	-7.17
895.764	-35.84
895.935	-125.95
896.106	-11.26
896.276	-76.8
896.447	-7.17
896.617	-80.89
896.788	-74.75
896.958	-72.7
897.129	-1.02
897.299	-103.42
897.47	115.71
897.64	41.98
897.81	-29.7
897.981	-13.31
898.151	-119.81
898.322	-39.94
898.492	15.36
898.662	-54.27
898.832	-74.75
899.003	-37.89
899.173	97.28
899.343	-136.19
899.513	-119.81
