Data from USB4F104151__298__11-21-26-326.txt Node

Date: Wed Feb 26 11:21:26 EST 2025
User: louis
Spectrometer: USB4F10415
Trigger mode: 4
Integration Time (sec): 1.000000E-1
Scans to average: 1
Electric dark correction enabled: true
Nonlinearity correction enabled: false
Boxcar width: 0
XAxis mode: Wavelengths
Number of Pixels in Spectrum: 3648
>>>>>Begin Spectral Data<<<<<
178.204	-426.32
178.424	-426.32
178.644	-426.32
178.864	-422.22
179.084	-381.26
179.304	46.76
179.524	-29.01
179.744	-69.97
179.964	-0.34
180.184	38.57
180.404	114.34
180.624	-8.53
180.844	18.09
181.064	-76.12
181.283	11.95
181.503	-67.92
181.723	22.19
181.943	-139.6
182.163	157.35
182.383	13.99
182.602	32.43
182.822	220.84
183.042	79.53
183.262	-39.25
183.482	63.15
183.701	9.9
183.921	16.04
184.141	-41.3
184.361	28.33
184.58	18.09
184.8	48.81
185.02	-33.11
185.239	128.68
185.459	5.8
185.679	153.26
185.898	-137.56
186.118	18.09
186.338	52.91
186.557	136.87
186.777	-26.96
186.997	-24.92
187.216	59.05
187.436	116.39
187.655	32.43
187.875	151.21
188.095	-16.73
188.314	120.49
188.534	132.78
188.753	1.71
188.973	116.39
189.192	222.89
189.412	36.52
189.631	-16.73
189.851	75.43
190.07	93.87
190.29	-4.44
190.509	-49.49
190.729	61.1
190.948	165.54
191.168	231.08
191.387	112.3
191.607	48.81
191.826	59.05
192.045	16.04
192.265	75.43
192.484	65.19
192.704	52.91
192.923	-98.64
193.142	145.06
193.362	73.39
193.581	124.58
193.8	95.91
194.02	83.63
194.239	-8.53
194.458	149.16
194.678	-16.73
194.897	11.95
195.116	16.04
195.335	59.05
195.555	108.2
195.774	34.47
195.993	59.05
196.212	54.95
196.432	-49.49
196.651	22.19
196.87	-2.39
197.089	214.7
197.308	54.95
197.528	63.15
197.747	-108.88
197.966	67.24
198.185	93.87
198.404	-14.68
198.623	138.92
198.842	73.39
199.062	134.82
199.281	30.38
199.5	20.14
199.719	65.19
199.938	106.15
200.157	52.91
200.376	93.87
200.595	138.92
200.814	50.86
201.033	-22.87
201.252	59.05
201.471	73.39
201.69	40.62
201.909	-26.96
202.128	40.62
202.347	42.67
202.566	26.28
202.785	-6.49
203.004	48.81
203.223	153.26
203.442	-10.58
203.661	-69.97
203.879	11.95
204.098	81.58
204.317	-49.49
204.536	118.44
204.755	67.24
204.974	126.63
205.193	-49.49
205.411	126.63
205.63	95.91
205.849	75.43
206.068	42.67
206.287	-0.34
206.505	87.72
206.724	26.28
206.943	-59.73
207.162	-26.96
207.381	95.91
207.599	26.28
207.818	-14.68
208.037	-88.4
208.255	40.62
208.474	1.71
208.693	-49.49
208.911	-24.92
209.13	52.91
209.349	100.01
209.567	104.11
209.786	116.39
210.005	108.2
210.223	38.57
210.442	-141.65
210.661	91.82
210.879	24.23
211.098	-4.44
211.316	85.67
211.535	100.01
211.753	1.71
211.972	155.3
212.191	-22.87
212.409	48.81
212.628	40.62
212.846	-29.01
213.065	9.9
213.283	91.82
213.502	22.19
213.72	59.05
213.938	-47.44
214.157	9.9
214.375	20.14
214.594	3.75
214.812	42.67
215.031	-49.49
215.249	34.47
215.467	32.43
215.686	44.71
215.904	38.57
216.122	5.8
216.341	149.16
216.559	93.87
216.778	181.93
216.996	97.96
217.214	-92.5
217.432	87.72
217.651	-41.3
217.869	44.71
218.087	75.43
218.306	-39.25
218.524	-6.49
218.742	22.19
218.96	54.95
219.179	-20.82
219.397	-16.73
219.615	218.79
219.833	77.48
220.051	-63.83
220.27	97.96
220.488	106.15
220.706	9.9
220.924	-29.01
221.142	28.33
221.36	-6.49
221.578	69.29
221.796	54.95
222.015	106.15
222.233	13.99
222.451	226.98
222.669	-18.77
222.887	61.1
223.105	3.75
223.323	7.85
223.541	20.14
223.759	11.95
223.977	102.06
224.195	198.31
224.413	132.78
224.631	106.15
224.849	89.77
225.067	274.09
225.285	-29.01
225.503	28.33
225.721	-160.08
225.939	-6.49
226.157	71.34
226.375	241.32
226.592	50.86
226.81	-24.92
227.028	69.29
227.246	104.11
227.464	75.43
227.682	34.47
227.9	44.71
228.117	63.15
228.335	-0.34
228.553	-41.3
228.771	95.91
228.989	18.09
229.206	52.91
229.424	79.53
229.642	36.52
229.86	-12.63
230.077	126.63
230.295	67.24
230.513	124.58
230.731	46.76
230.948	118.44
231.166	181.93
231.384	-74.07
231.601	28.33
231.819	163.5
232.037	-10.58
232.254	-59.73
232.472	46.76
232.689	-33.11
232.907	136.87
233.125	-102.74
233.342	-39.25
233.56	-16.73
233.777	-74.07
233.995	7.85
234.213	93.87
234.43	196.26
234.648	-33.11
234.865	-12.63
235.083	-2.39
235.3	-24.92
235.518	48.81
235.735	89.77
235.953	110.25
236.17	-22.87
236.388	26.28
236.605	34.47
236.822	110.25
237.04	73.39
237.257	38.57
237.475	-10.58
237.692	69.29
237.909	48.81
238.127	48.81
238.344	61.1
238.562	65.19
238.779	-33.11
238.996	-4.44
239.214	-14.68
239.431	18.09
239.648	42.67
239.865	26.28
240.083	-14.68
240.3	18.09
240.517	-82.26
240.735	-33.11
240.952	120.49
241.169	-10.58
241.386	79.53
241.603	22.19
241.821	1.71
242.038	175.78
242.255	85.67
242.472	-49.49
242.689	71.34
242.907	116.39
243.124	1.71
243.341	44.71
243.558	-10.58
243.775	-22.87
243.992	-53.59
244.209	61.1
244.426	161.45
244.643	73.39
244.86	36.52
245.078	48.81
245.295	118.44
245.512	-16.73
245.729	-33.11
245.946	52.91
246.163	79.53
246.38	28.33
246.597	104.11
246.814	40.62
247.031	42.67
247.248	65.19
247.464	59.05
247.681	24.23
247.898	-37.2
248.115	13.99
248.332	-47.44
248.549	136.87
248.766	120.49
248.983	104.11
249.2	57
249.417	54.95
249.633	-18.77
249.85	63.15
250.067	54.95
250.284	114.34
250.501	73.39
250.717	100.01
250.934	-63.83
251.151	40.62
251.368	48.81
251.585	42.67
251.801	75.43
252.018	-51.54
252.235	108.2
252.451	-72.02
252.668	-45.4
252.885	83.63
253.102	75.43
253.318	57
253.535	-53.59
253.752	59.05
253.968	42.67
254.185	-4.44
254.401	91.82
254.618	61.1
254.835	9.9
255.051	136.87
255.268	42.67
255.484	118.44
255.701	-67.92
255.917	-29.01
256.134	-43.35
256.351	-2.39
256.567	-35.16
256.784	13.99
257	-51.54
257.217	91.82
257.433	202.41
257.65	-31.06
257.866	134.82
258.082	-67.92
258.299	-16.73
258.515	-35.16
258.732	32.43
258.948	-39.25
259.165	97.96
259.381	9.9
259.597	42.67
259.814	151.21
260.03	7.85
260.246	-8.53
260.463	69.29
260.679	104.11
260.895	26.28
261.112	36.52
261.328	-10.58
261.544	11.95
261.761	194.22
261.977	-86.36
262.193	-18.77
262.409	42.67
262.626	30.38
262.842	34.47
263.058	7.85
263.274	-33.11
263.49	75.43
263.707	30.38
263.923	44.71
264.139	11.95
264.355	71.34
264.571	118.44
264.787	-10.58
265.004	140.97
265.22	7.85
265.436	-24.92
265.652	-16.73
265.868	136.87
266.084	-47.44
266.3	50.86
266.516	-106.84
266.732	-43.35
266.948	143.02
267.164	-78.16
267.38	57
267.596	163.5
267.812	79.53
268.028	73.39
268.244	40.62
268.46	46.76
268.676	-63.83
268.892	34.47
269.108	-20.82
269.324	54.95
269.54	-43.35
269.756	24.23
269.972	-33.11
270.188	-33.11
270.403	-117.08
270.619	-8.53
270.835	-35.16
271.051	34.47
271.267	-4.44
271.483	-18.77
271.698	85.67
271.914	36.52
272.13	-8.53
272.346	-33.11
272.562	54.95
272.777	122.54
272.993	-6.49
273.209	-2.39
273.425	50.86
273.64	-61.78
273.856	102.06
274.072	-20.82
274.287	13.99
274.503	44.71
274.719	32.43
274.934	5.8
275.15	-72.02
275.366	-37.2
275.581	-53.59
275.797	-6.49
276.012	18.09
276.228	-16.73
276.444	7.85
276.659	95.91
276.875	9.9
277.09	3.75
277.306	-10.58
277.521	87.72
277.737	-8.53
277.952	69.29
278.168	-2.39
278.383	65.19
278.599	3.75
278.814	69.29
279.03	38.57
279.245	100.01
279.461	13.99
279.676	134.82
279.892	-96.6
280.107	-78.16
280.322	-98.64
280.538	73.39
280.753	-67.92
280.969	46.76
281.184	42.67
281.399	161.45
281.615	77.48
281.83	42.67
282.045	-59.73
282.26	26.28
282.476	16.04
282.691	108.2
282.906	61.1
283.122	108.2
283.337	-4.44
283.552	54.95
283.767	-37.2
283.983	85.67
284.198	5.8
284.413	54.95
284.628	-12.63
284.843	59.05
285.058	91.82
285.274	5.8
285.489	-49.49
285.704	75.43
285.919	-22.87
286.134	-35.16
286.349	48.81
286.564	20.14
286.779	59.05
286.995	50.86
287.21	-49.49
287.425	16.04
287.64	-43.35
287.855	63.15
288.07	-61.78
288.285	93.87
288.5	75.43
288.715	-16.73
288.93	13.99
289.145	-53.59
289.36	79.53
289.575	36.52
289.79	108.2
290.004	79.53
290.219	77.48
290.434	11.95
290.649	-55.64
290.864	87.72
291.079	-6.49
291.294	65.19
291.509	48.81
291.724	75.43
291.938	24.23
292.153	30.38
292.368	18.09
292.583	91.82
292.798	153.26
293.012	102.06
293.227	95.91
293.442	-31.06
293.657	57
293.871	153.26
294.086	32.43
294.301	149.16
294.516	179.88
294.73	20.14
294.945	48.81
295.16	-16.73
295.374	93.87
295.589	87.72
295.804	-57.68
296.018	13.99
296.233	116.39
296.447	83.63
296.662	-6.49
296.877	138.92
297.091	91.82
297.306	112.3
297.52	65.19
297.735	16.04
297.949	-16.73
298.164	18.09
298.378	40.62
298.593	-53.59
298.807	-41.3
299.022	-2.39
299.236	75.43
299.451	38.57
299.665	-2.39
299.88	5.8
300.094	97.96
300.309	46.76
300.523	93.87
300.737	77.48
300.952	30.38
301.166	73.39
301.381	-8.53
301.595	-35.16
301.809	-31.06
302.024	-4.44
302.238	-14.68
302.452	95.91
302.667	7.85
302.881	106.15
303.095	126.63
303.309	59.05
303.524	-16.73
303.738	59.05
303.952	73.39
304.166	46.76
304.381	-100.69
304.595	157.35
304.809	38.57
305.023	136.87
305.237	83.63
305.452	-33.11
305.666	73.39
305.88	-0.34
306.094	134.82
306.308	110.25
306.522	38.57
306.736	48.81
306.95	79.53
307.164	11.95
307.379	-35.16
307.593	65.19
307.807	13.99
308.021	100.01
308.235	210.6
308.449	-100.69
308.663	-6.49
308.877	218.79
309.091	22.19
309.305	87.72
309.519	-82.26
309.733	106.15
309.947	-82.26
310.161	57
310.374	93.87
310.588	110.25
310.802	-10.58
311.016	11.95
311.23	104.11
311.444	-90.45
311.658	50.86
311.872	140.97
312.085	59.05
312.299	122.54
312.513	136.87
312.727	52.91
312.941	-53.59
313.154	22.19
313.368	52.91
313.582	-10.58
313.796	-16.73
314.009	11.95
314.223	93.87
314.437	95.91
314.651	20.14
314.864	59.05
315.078	1.71
315.292	-33.11
315.505	63.15
315.719	93.87
315.933	81.58
316.146	-76.12
316.36	18.09
316.573	204.46
316.787	48.81
317.001	22.19
317.214	-45.4
317.428	-2.39
317.641	-96.6
317.855	67.24
318.068	44.71
318.282	136.87
318.495	153.26
318.709	71.34
318.922	83.63
319.136	89.77
319.349	81.58
319.563	-14.68
319.776	59.05
319.99	-76.12
320.203	106.15
320.417	48.81
320.63	91.82
320.843	259.75
321.057	7.85
321.27	7.85
321.483	110.25
321.697	206.5
321.91	38.57
322.124	75.43
322.337	32.43
322.55	-49.49
322.763	83.63
322.977	50.86
323.19	69.29
323.403	-14.68
323.617	79.53
323.83	79.53
324.043	-63.83
324.256	-55.64
324.469	-29.01
324.683	118.44
324.896	-14.68
325.109	87.72
325.322	-72.02
325.535	110.25
325.748	91.82
325.962	63.15
326.175	57
326.388	-33.11
326.601	136.87
326.814	26.28
327.027	-37.2
327.24	147.11
327.453	-2.39
327.666	69.29
327.879	95.91
328.092	89.77
328.305	59.05
328.518	-88.4
328.731	93.87
328.944	9.9
329.157	81.58
329.37	-39.25
329.583	126.63
329.796	73.39
330.009	-98.64
330.222	61.1
330.435	52.91
330.648	134.82
330.861	93.87
331.073	79.53
331.286	126.63
331.499	71.34
331.712	-59.73
331.925	16.04
332.138	-10.58
332.35	67.24
332.563	-0.34
332.776	132.78
332.989	-14.68
333.202	3.75
333.414	-33.11
333.627	32.43
333.84	22.19
334.053	42.67
334.265	-10.58
334.478	-55.64
334.691	-2.39
334.903	48.81
335.116	9.9
335.329	3.75
335.541	151.21
335.754	155.3
335.966	38.57
336.179	-24.92
336.392	-18.77
336.604	-51.54
336.817	63.15
337.029	59.05
337.242	57
337.454	134.82
337.667	83.63
337.88	177.83
338.092	97.96
338.305	151.21
338.517	-8.53
338.729	69.29
338.942	130.73
339.154	-16.73
339.367	-53.59
339.579	108.2
339.792	-35.16
340.004	36.52
340.217	1.71
340.429	24.23
340.641	-16.73
340.854	-24.92
341.066	71.34
341.278	75.43
341.491	210.6
341.703	-14.68
341.915	3.75
342.128	118.44
342.34	26.28
342.552	-53.59
342.764	50.86
342.977	-57.68
343.189	147.11
343.401	42.67
343.613	-76.12
343.826	5.8
344.038	-16.73
344.25	20.14
344.462	-31.06
344.674	71.34
344.886	3.75
345.099	100.01
345.311	22.19
345.523	18.09
345.735	-94.55
345.947	69.29
346.159	77.48
346.371	7.85
346.583	9.9
346.795	190.12
347.007	20.14
347.219	71.34
347.431	1.71
347.643	114.34
347.855	-35.16
348.067	77.48
348.279	-65.88
348.491	1.71
348.703	22.19
348.915	20.14
349.127	-2.39
349.339	73.39
349.551	-2.39
349.763	75.43
349.975	34.47
350.187	13.99
350.399	138.92
350.61	34.47
350.822	22.19
351.034	48.81
351.246	83.63
351.458	122.54
351.669	50.86
351.881	161.45
352.093	93.87
352.305	97.96
352.517	110.25
352.728	165.54
352.94	81.58
353.152	50.86
353.363	18.09
353.575	9.9
353.787	87.72
353.999	36.52
354.21	124.58
354.422	-72.02
354.633	42.67
354.845	69.29
355.057	59.05
355.268	-26.96
355.48	30.38
355.692	-31.06
355.903	42.67
356.115	-47.44
356.326	-55.64
356.538	157.35
356.749	36.52
356.961	89.77
357.172	-24.92
357.384	26.28
357.595	220.84
357.807	71.34
358.018	-67.92
358.23	102.06
358.441	128.68
358.653	95.91
358.864	89.77
359.075	7.85
359.287	108.2
359.498	122.54
359.709	26.28
359.921	5.8
360.132	1.71
360.344	-26.96
360.555	44.71
360.766	91.82
360.977	13.99
361.189	134.82
361.4	34.47
361.611	167.59
361.823	134.82
362.034	9.9
362.245	-92.5
362.456	40.62
362.667	69.29
362.879	40.62
363.09	20.14
363.301	42.67
363.512	-16.73
363.723	1.71
363.935	-26.96
364.146	130.73
364.357	-2.39
364.568	110.25
364.779	-82.26
364.99	85.67
365.201	-33.11
365.412	42.67
365.623	-63.83
365.834	28.33
366.045	61.1
366.256	20.14
366.467	108.2
366.678	-16.73
366.889	18.09
367.1	-78.16
367.311	161.45
367.522	18.09
367.733	22.19
367.944	48.81
368.155	95.91
368.366	89.77
368.577	57
368.788	122.54
368.999	-18.77
369.209	24.23
369.42	245.41
369.631	288.42
369.842	116.39
370.053	61.1
370.264	165.54
370.474	-45.4
370.685	7.85
370.896	11.95
371.107	138.92
371.317	24.23
371.528	34.47
371.739	77.48
371.95	38.57
372.16	106.15
372.371	-8.53
372.582	7.85
372.792	59.05
373.003	102.06
373.214	52.91
373.424	28.33
373.635	7.85
373.846	128.68
374.056	40.62
374.267	5.8
374.477	93.87
374.688	-41.3
374.898	57
375.109	97.96
375.319	83.63
375.53	124.58
375.74	112.3
375.951	-18.77
376.161	89.77
376.372	120.49
376.582	-2.39
376.793	128.68
377.003	32.43
377.214	-0.34
377.424	42.67
377.635	-2.39
377.845	9.9
378.055	89.77
378.266	26.28
378.476	-4.44
378.686	89.77
378.897	83.63
379.107	108.2
379.317	22.19
379.528	-2.39
379.738	57
379.948	-61.78
380.158	149.16
380.369	30.38
380.579	112.3
380.789	-4.44
380.999	102.06
381.21	157.35
381.42	183.98
381.63	57
381.84	114.34
382.05	48.81
382.261	75.43
382.471	206.5
382.681	-8.53
382.891	95.91
383.101	36.52
383.311	16.04
383.521	-72.02
383.731	81.58
383.941	159.4
384.151	34.47
384.361	32.43
384.571	48.81
384.781	46.76
384.991	196.26
385.201	173.74
385.411	73.39
385.621	89.77
385.831	71.34
386.041	75.43
386.251	-98.64
386.461	169.64
386.671	87.72
386.881	132.78
387.091	1.71
387.301	173.74
387.511	-4.44
387.72	69.29
387.93	93.87
388.14	-65.88
388.35	11.95
388.56	153.26
388.769	122.54
388.979	24.23
389.189	5.8
389.399	26.28
389.609	48.81
389.818	63.15
390.028	22.19
390.238	110.25
390.447	-2.39
390.657	87.72
390.867	7.85
391.076	-55.64
391.286	34.47
391.496	-41.3
391.705	83.63
391.915	136.87
392.125	87.72
392.334	-33.11
392.544	140.97
392.753	22.19
392.963	-31.06
393.172	63.15
393.382	-6.49
393.591	138.92
393.801	7.85
394.01	140.97
394.22	122.54
394.429	11.95
394.639	11.95
394.848	52.91
395.058	52.91
395.267	9.9
395.477	93.87
395.686	28.33
395.895	95.91
396.105	204.46
396.314	73.39
396.524	63.15
396.733	-18.77
396.942	163.5
397.152	97.96
397.361	102.06
397.57	61.1
397.78	134.82
397.989	122.54
398.198	222.89
398.407	87.72
398.617	59.05
398.826	65.19
399.035	32.43
399.244	167.59
399.453	-0.34
399.663	-10.58
399.872	67.24
400.081	-45.4
400.29	81.58
400.499	13.99
400.708	173.74
400.917	-53.59
401.127	-2.39
401.336	-24.92
401.545	261.8
401.754	130.73
401.963	93.87
402.172	7.85
402.381	-33.11
402.59	-12.63
402.799	100.01
403.008	54.95
403.217	-18.77
403.426	63.15
403.635	44.71
403.844	54.95
404.053	-61.78
404.262	28.33
404.471	155.3
404.68	26.28
404.888	46.76
405.097	-37.2
405.306	30.38
405.515	108.2
405.724	28.33
405.933	71.34
406.142	9.9
406.35	126.63
406.559	52.91
406.768	59.05
406.977	95.91
407.185	13.99
407.394	36.52
407.603	-10.58
407.812	73.39
408.02	46.76
408.229	65.19
408.438	48.81
408.646	-131.41
408.855	38.57
409.064	36.52
409.272	-6.49
409.481	40.62
409.69	48.81
409.898	-45.4
410.107	73.39
410.315	83.63
410.524	-47.44
410.733	46.76
410.941	-0.34
411.15	-10.58
411.358	134.82
411.567	192.17
411.775	38.57
411.984	95.91
412.192	59.05
412.401	46.76
412.609	183.98
412.818	210.6
413.026	110.25
413.234	42.67
413.443	20.14
413.651	-78.16
413.86	-8.53
414.068	132.78
414.276	202.41
414.485	-16.73
414.693	114.34
414.901	167.59
415.11	75.43
415.318	36.52
415.526	18.09
415.734	122.54
415.943	9.9
416.151	138.92
416.359	42.67
416.567	26.28
416.776	20.14
416.984	81.58
417.192	130.73
417.4	20.14
417.608	-24.92
417.817	-4.44
418.025	69.29
418.233	140.97
418.441	-61.78
418.649	18.09
418.857	97.96
419.065	140.97
419.273	106.15
419.481	-16.73
419.689	7.85
419.897	40.62
420.105	-43.35
420.313	116.39
420.521	177.83
420.729	143.02
420.937	9.9
421.145	-33.11
421.353	128.68
421.561	124.58
421.769	36.52
421.977	-6.49
422.185	79.53
422.393	61.1
422.601	124.58
422.809	97.96
423.017	65.19
423.224	-6.49
423.432	130.73
423.64	81.58
423.848	122.54
424.056	40.62
424.263	165.54
424.471	18.09
424.679	102.06
424.887	16.04
425.094	124.58
425.302	75.43
425.51	87.72
425.718	147.11
425.925	67.24
426.133	-39.25
426.341	124.58
426.548	22.19
426.756	83.63
426.964	73.39
427.171	11.95
427.379	59.05
427.586	52.91
427.794	3.75
428.001	124.58
428.209	89.77
428.417	136.87
428.624	222.89
428.832	83.63
429.039	77.48
429.247	36.52
429.454	85.67
429.662	151.21
429.869	220.84
430.076	93.87
430.284	97.96
430.491	204.46
430.699	102.06
430.906	206.5
431.114	157.35
431.321	59.05
431.528	83.63
431.736	210.6
431.943	95.91
432.15	190.12
432.358	175.78
432.565	202.41
432.772	52.91
432.979	163.5
433.187	106.15
433.394	210.6
433.601	85.67
433.808	210.6
434.016	235.18
434.223	247.46
434.43	140.97
434.637	298.66
434.844	196.26
435.052	161.45
435.259	243.37
435.466	231.08
435.673	220.84
435.88	292.52
436.087	351.91
436.294	257.7
436.501	341.67
436.708	233.13
436.915	259.75
437.122	298.66
437.329	288.42
437.537	310.95
437.743	247.46
437.95	454.31
438.157	313
438.364	337.57
438.571	329.38
438.778	415.4
438.985	489.12
439.192	384.68
439.399	456.36
439.606	403.11
439.813	495.27
440.02	591.52
440.227	609.95
440.433	609.95
440.64	532.13
440.847	437.92
441.054	581.28
441.261	636.58
441.467	528.03
441.674	622.24
441.881	628.39
442.088	614.05
442.294	708.26
442.501	718.5
442.708	786.08
442.914	675.49
443.121	779.93
443.328	806.56
443.534	818.85
443.741	827.04
443.948	642.72
444.154	925.34
444.361	1105.56
444.568	855.71
444.774	927.39
444.981	908.96
445.187	1027.74
445.394	1064.6
445.6	1089.18
445.807	1195.67
446.013	1111.71
446.22	1080.99
446.426	1302.17
446.633	1351.32
446.839	1517.2
447.046	1265.3
447.252	1539.73
447.459	1574.55
447.665	1427.09
447.871	1697.42
448.078	1730.19
448.284	1748.62
448.491	1758.86
448.697	2004.62
448.903	1984.14
449.11	1902.22
449.316	1982.09
449.522	2270.86
449.728	2199.18
449.935	2363.01
450.141	2295.43
450.347	2516.61
450.553	2385.54
450.76	2553.48
450.966	2729.6
451.172	2829.95
451.378	2963.07
451.584	2911.87
451.791	3161.72
451.997	3137.15
452.203	3210.87
452.409	3530.36
452.615	3632.76
452.821	3407.48
453.027	3520.12
453.233	3976.81
453.44	3841.65
453.646	4132.46
453.852	4165.23
454.058	4486.76
454.264	4572.77
454.47	4863.58
454.676	4953.7
454.882	5301.85
455.088	5078.62
455.294	5412.44
455.5	5725.78
455.705	5885.52
455.911	6059.6
456.117	6243.92
456.323	6321.74
456.529	6426.18
456.735	6942.27
456.941	7067.2
457.147	7413.31
457.352	7734.84
457.558	7710.26
457.764	8355.37
457.97	8472.11
458.176	8906.27
458.381	9291.29
458.587	9477.66
458.793	9899.54
458.999	10042.9
459.204	11068.93
459.41	11519.48
459.616	11412.99
459.821	12101.11
460.027	12543.47
460.233	13133.28
460.438	13276.64
460.644	13823.45
460.85	14007.76
461.055	14585.29
461.261	15234.5
461.466	15138.24
461.672	15121.86
461.878	17128.87
462.083	16991.66
462.289	17360.29
462.494	17984.92
462.7	18148.76
462.905	18464.14
463.111	19662.21
463.316	20899.18
463.522	21167.46
463.727	22021.47
463.932	22865.23
464.138	23354.69
464.343	24436.02
464.549	24524.08
464.754	26473.75
464.959	26795.28
465.165	27315.47
465.37	27251.98
465.575	27157.77
465.781	28695.8
465.986	30469.34
466.191	29394.15
466.397	29727.97
466.602	29328.62
466.807	30899.41
467.012	31124.69
467.218	31718.6
467.423	31837.38
467.628	33184.94
467.833	34503.84
468.038	33954.98
468.244	33420.46
468.449	35167.38
468.654	34462.88
468.859	34329.76
469.064	34391.2
469.269	33365.17
469.474	33676.46
469.679	34700.44
469.885	33887.4
470.09	34145.44
470.295	34565.28
470.5	33205.42
470.705	34069.67
470.91	32957.62
471.115	32709.82
471.32	33414.32
471.525	33115.31
471.73	32228.54
471.935	31702.21
472.139	30725.33
472.344	31012.05
472.549	30627.03
472.754	29852.9
472.959	29388.01
473.164	28126.46
473.369	28022.02
473.574	28972.27
473.778	28026.11
473.983	27356.43
474.188	27395.34
474.393	25867.55
474.598	25738.53
474.802	25210.15
475.007	24972.59
475.212	24448.31
475.417	23385.41
475.621	23610.69
475.826	23235.91
476.031	22689.1
476.235	22299.99
476.44	22187.35
476.645	21540.19
476.849	21359.97
477.054	21194.09
477.259	20358.52
477.463	20602.22
477.668	19731.84
477.872	19955.07
478.077	19244.42
478.282	18771.34
478.486	18666.89
478.691	18410.9
478.895	18296.21
479.1	18206.1
479.304	18056.6
479.509	17403.3
479.713	17618.33
479.918	17196.45
480.122	16723.37
480.326	16786.86
480.531	16934.31
480.735	16723.37
480.94	16186.8
481.144	16956.84
481.348	16151.99
481.553	16211.38
481.757	15578.56
481.961	16039.35
482.166	15904.18
482.37	15947.19
482.574	15320.51
482.778	15273.41
482.983	15762.87
483.187	15183.3
483.391	15095.24
483.595	14923.21
483.8	14515.66
484.004	14927.3
484.208	14691.79
484.412	14392.78
484.616	14177.75
484.821	14278.1
485.025	13880.79
485.229	14009.81
485.433	13325.79
485.637	13522.4
485.841	13426.14
486.045	13227.49
486.249	13247.97
486.453	12432.88
486.657	12449.26
486.861	12324.33
487.065	11933.17
487.269	12086.77
487.473	11689.46
487.677	11798.01
487.881	11730.42
488.085	11314.69
488.289	11357.69
488.493	10833.41
488.697	11070.98
488.901	10548.75
489.105	10339.85
489.309	10384.91
489.512	10092.05
489.716	9989.65
489.92	9838.1
490.124	9453.08
490.328	9491.99
490.531	9156.13
490.735	9086.5
490.939	8871.46
491.143	8738.34
491.346	8547.88
491.55	8422.95
491.754	8465.96
491.958	8185.39
492.161	7802.42
492.365	8029.74
492.569	7777.84
492.772	7654.97
492.976	7577.14
493.18	7444.03
493.383	7534.14
493.587	7366.2
493.79	7323.19
493.994	6946.37
494.197	7177.79
494.401	7153.21
494.605	6870.59
494.808	6968.9
495.012	6850.11
495.215	6878.79
495.419	6766.15
495.622	6735.43
495.825	6473.29
496.029	6532.68
496.232	6692.42
496.436	6309.45
496.639	6626.89
496.843	6432.33
497.046	6534.73
497.249	6544.97
497.453	6446.66
497.656	6594.12
497.859	6579.78
498.063	6432.33
498.266	6622.79
498.469	6286.92
498.673	6483.53
498.876	6512.2
499.079	6305.35
499.282	6700.61
499.485	6944.32
499.689	6594.12
499.892	6823.49
500.095	6786.63
500.298	6782.53
500.501	6673.99
500.705	6821.44
500.908	6774.34
501.111	6878.79
501.314	7149.12
501.517	7360.06
501.72	7165.5
501.923	7032.38
502.126	7188.03
502.329	7589.43
502.532	7579.19
502.735	7626.29
502.938	7591.48
503.141	7700.02
503.344	7761.46
503.547	8095.28
503.75	7896.63
503.953	8042.03
504.156	7994.93
504.359	8277.55
504.562	8404.52
504.765	8465.96
504.968	8625.7
505.17	8953.38
505.373	8941.09
505.576	9182.75
505.779	9145.89
505.982	9176.61
506.185	9584.15
506.387	9586.2
506.59	9795.09
506.793	10173.97
506.996	9979.41
507.198	10427.92
507.401	10622.47
507.604	11054.59
507.807	11040.26
508.009	11179.52
508.212	11304.45
508.415	11429.37
508.617	11601.4
508.82	12097.01
509.022	12008.95
509.225	12619.24
509.428	12996.07
509.63	13063.65
509.833	13135.33
510.035	13719
510.238	13872.6
510.44	14200.27
510.643	14642.64
510.845	14939.59
511.048	15197.63
511.25	15472.06
511.453	15687.1
511.655	16491.95
511.858	16436.66
512.06	16891.3
512.262	17155.49
512.465	17505.7
512.667	18109.85
512.87	18187.67
513.072	18824.59
513.274	19312
513.477	19590.53
513.679	20180.34
513.881	20852.08
514.084	20911.47
514.286	21445.99
514.488	21798.24
514.69	22588.75
514.893	22979.92
515.095	23158.09
515.297	23735.62
515.499	24282.42
515.701	25025.84
515.904	25623.84
516.106	26107.16
516.308	26309.91
516.51	27061.52
516.712	27385.1
516.914	28267.77
517.116	28755.19
517.318	29385.96
517.52	29652.2
517.722	30211.29
517.925	30819.54
518.127	31565
518.329	32253.12
518.531	31855.81
518.733	33199.28
518.935	33875.11
519.136	34141.35
519.338	34585.75
519.54	35001.49
519.742	35579.02
519.944	35890.31
520.146	36883.58
520.348	37426.29
520.55	37543.02
520.752	38132.84
520.954	39345.23
521.155	39105.62
521.357	39801.93
521.559	40242.24
521.761	41382.96
521.963	40868.92
522.164	41317.43
522.366	41671.73
522.568	42601.5
522.77	42572.83
522.971	43084.83
523.173	42787.87
523.375	43375.64
523.576	43828.24
523.778	43777.04
523.98	44403.72
524.181	44590.08
524.383	44422.15
524.584	45048.83
524.786	44710.91
524.988	44600.32
525.189	45165.56
525.391	45345.78
525.592	45331.45
525.794	45356.02
525.995	45378.55
526.197	45452.28
526.398	45255.67
526.6	45548.53
526.801	45325.3
527.003	44821.5
527.204	45212.66
527.406	44964.86
527.607	44739.58
527.808	44633.09
528.01	44098.57
528.211	44256.26
528.412	44669.95
528.614	43873.29
528.815	43559.95
529.016	43721.74
529.218	43127.83
529.419	43189.27
529.62	42548.26
529.822	41770.03
530.023	41493.55
530.224	41174.07
530.425	40459.33
530.626	40143.94
530.828	39644.24
531.029	40373.31
531.23	39328.85
531.431	38630.49
531.632	38458.46
531.833	38216.8
532.035	37930.09
532.236	37497.97
532.437	37215.35
532.638	35724.43
532.839	35921.03
533.04	36027.52
533.241	34495.64
533.442	35069.08
533.643	34323.61
533.844	33619.11
534.045	33545.39
534.246	32955.57
534.447	32605.37
534.648	32257.21
534.849	31904.96
535.05	31198.41
535.251	30629.08
535.451	30004.45
535.652	30112.99
535.853	29695.21
536.054	29279.47
536.255	28726.52
536.456	28132.61
536.657	28474.62
536.857	27706.63
537.058	27286.79
537.259	27268.36
537.46	26582.29
537.66	26314.01
537.861	26086.68
538.062	25693.47
538.263	25318.7
538.463	25095.47
538.664	25001.26
538.865	24333.62
539.065	24128.83
539.266	23682.37
539.466	23719.23
539.667	23100.75
539.868	23426.37
540.068	22748.5
540.269	22388.05
540.469	22246.74
540.67	21845.34
540.87	21646.69
541.071	21550.43
541.271	21177.7
541.472	20966.76
541.672	20680.05
541.873	20235.64
542.073	20006.27
542.274	20241.78
542.474	19987.83
542.675	19424.64
542.875	19647.87
543.075	19115.4
543.276	18410.9
543.476	18574.74
543.676	18269.59
543.877	18185.62
544.077	18021.78
544.277	17722.78
544.478	17851.8
544.678	17372.58
544.878	17165.73
545.078	17171.88
545.279	16563.63
545.479	16471.47
545.679	16356.79
545.879	16541.1
546.079	16168.37
546.28	15930.81
546.48	15756.73
546.68	15793.59
546.88	15490.49
547.08	15257.03
547.28	15144.39
547.48	14435.79
547.68	14755.27
547.88	14382.54
548.081	14425.55
548.281	14071.25
548.481	13964.76
548.681	13956.57
548.881	13780.44
549.081	13530.59
549.28	13184.48
549.48	13084.13
549.68	12991.97
549.88	12914.15
550.08	12500.46
550.28	12508.65
550.48	12459.5
550.68	12084.72
550.88	11916.79
551.08	11535.87
551.279	11558.39
551.479	11382.27
551.679	11038.21
551.879	11087.36
552.079	11081.22
552.278	10784.26
552.478	10802.69
552.678	10487.31
552.878	10495.5
553.077	10227.21
553.277	9956.88
553.477	9877.01
553.676	9621.02
553.876	9707.03
554.076	9412.12
554.275	9240.09
554.475	9035.3
554.674	9160.22
554.874	8885.8
555.074	8607.27
555.273	8513.06
555.473	8637.99
555.672	8230.45
555.872	8140.33
556.071	7996.98
556.271	7949.87
556.47	7804.47
556.67	7507.51
556.869	7425.59
557.068	7394.87
557.268	7323.19
557.467	7126.59
557.667	7085.63
557.866	6874.69
558.065	7034.43
558.265	6637.13
558.464	6479.43
558.663	6624.84
558.863	6370.89
559.062	6604.36
559.261	6166.09
559.461	6311.5
559.66	6012.49
559.859	5783.12
560.058	5717.59
560.258	5658.2
560.457	5826.13
560.656	5713.49
560.855	5168.73
561.054	5346.91
561.253	5383.77
561.453	5199.45
561.652	5000.8
561.851	5082.72
562.05	4869.73
562.249	4822.63
562.448	4779.62
562.647	4646.5
562.846	4685.41
563.045	4568.68
563.244	4400.74
563.443	4419.18
563.642	4445.8
563.841	4310.63
564.04	4263.53
564.239	4367.98
564.438	4048.49
564.637	4058.73
564.836	3939.95
565.035	3950.19
565.234	3952.24
565.432	3665.52
565.631	3700.34
565.83	3761.78
566.029	3585.65
566.228	3626.61
566.427	3720.82
566.625	3360.38
566.824	3481.21
567.023	3520.12
567.222	3262.07
567.42	3288.7
567.619	3247.74
567.818	3292.79
568.016	3249.79
568.215	3139.19
568.414	3153.53
568.612	3036.8
568.811	3036.8
569.01	2946.69
569.208	2850.43
569.407	2950.78
569.605	2836.1
569.804	2762.37
570.002	2713.22
570.201	2602.63
570.4	2756.22
570.598	2504.32
570.797	2598.53
570.995	2537.09
571.193	2561.67
571.392	2442.89
571.59	2360.97
571.789	2510.47
571.987	2469.51
572.186	2348.68
572.384	2223.75
572.582	2236.04
572.781	2270.86
572.979	2029.2
573.177	2141.83
573.376	2236.04
573.574	2147.98
573.772	2023.05
573.971	2039.44
574.169	1916.56
574.367	2115.21
574.565	1885.84
574.763	1902.22
574.962	1824.4
575.16	1844.88
575.358	1678.99
575.556	1853.07
575.754	1683.09
575.952	1709.71
576.151	1779.34
576.349	1711.76
576.547	1527.44
576.745	1619.6
576.943	1652.37
577.141	1609.36
577.339	1373.85
577.537	1476.24
577.735	1623.7
577.933	1533.59
578.131	1478.29
578.329	1478.29
578.527	1466
578.725	1408.66
578.923	1330.84
579.121	1408.66
579.319	1287.83
579.516	1195.67
579.714	1453.72
579.912	1201.82
580.11	1189.53
580.308	1126.04
580.506	1185.43
580.704	1054.36
580.901	1052.31
581.099	1253.02
581.297	1123.99
581.495	1150.62
581.692	1052.31
581.89	1218.2
582.088	1031.83
582.285	1005.21
582.483	988.83
582.681	986.78
582.878	1037.98
583.076	947.87
583.274	1048.22
583.471	1097.37
583.669	976.54
583.866	937.63
584.064	859.81
584.262	843.42
584.459	804.51
584.657	931.48
584.854	884.38
585.052	851.61
585.249	870.05
585.447	851.61
585.644	675.49
585.841	978.59
586.039	984.73
586.236	876.19
586.434	812.7
586.631	673.44
586.828	652.96
587.026	755.36
587.223	642.72
587.42	720.54
587.618	724.64
587.815	816.8
588.012	698.02
588.21	738.98
588.407	775.84
588.604	738.98
588.801	544.42
588.999	661.15
589.196	720.54
589.393	562.85
589.59	614.05
589.787	714.4
589.984	745.12
590.182	644.77
590.379	493.22
590.576	605.86
590.773	685.73
590.97	507.55
591.167	624.29
591.364	616.1
591.561	485.03
591.758	659.1
591.955	675.49
592.152	571.04
592.349	552.61
592.546	542.37
592.743	562.85
592.94	587.43
593.137	646.82
593.334	589.47
593.531	655.01
593.727	626.34
593.924	579.23
594.121	554.66
594.318	521.89
594.515	614.05
594.712	708.26
594.908	675.49
595.105	478.88
595.302	659.1
595.499	601.76
595.696	683.68
595.892	517.79
596.089	730.78
596.286	650.91
596.482	849.57
596.679	710.3
596.876	638.62
597.072	798.37
597.269	847.52
597.466	767.65
597.662	728.74
597.859	743.07
598.055	968.35
598.252	919.2
598.448	872.09
598.645	951.96
598.841	954.01
599.038	1128.09
599.234	1097.37
599.431	1148.57
599.627	1132.19
599.824	1173.14
600.02	1066.65
600.217	1091.23
600.413	1263.26
600.609	1324.69
600.806	1533.59
601.002	1455.76
601.198	1375.89
601.395	1523.35
601.591	1468.05
601.787	1646.23
601.984	1656.47
602.18	1601.17
602.376	1844.88
602.572	1871.5
602.769	2014.86
602.965	1918.61
603.161	2061.96
603.357	2184.84
603.553	2272.9
603.75	2133.64
603.946	2291.34
604.142	2522.76
604.338	2565.76
604.534	2541.19
604.73	2629.25
604.926	2702.98
605.122	3028.6
605.318	2913.92
605.514	2946.69
605.71	3057.28
605.906	3186.3
606.102	3190.39
606.298	3458.68
606.494	3419.77
606.69	3708.53
606.886	3606.13
607.082	3839.6
607.278	3827.31
607.474	3946.09
607.67	4048.49
607.866	4114.03
608.062	4445.8
608.257	4410.98
608.453	4425.32
608.649	4623.97
608.845	4814.43
609.041	4951.65
609.236	5052
609.432	5054.05
609.628	5197.4
609.824	5394.01
610.019	5553.75
610.215	5758.55
610.411	5901.9
610.606	6256.2
610.802	6188.62
610.998	6516.3
611.193	6626.89
611.389	6616.65
611.584	6604.36
611.78	6934.08
611.976	7181.89
612.171	7583.29
612.367	7614.01
612.562	7700.02
612.758	7933.49
612.953	8046.13
613.149	8498.73
613.344	8666.66
613.539	8926.75
613.735	9098.78
613.93	9080.35
614.126	9467.42
614.321	10059.28
614.517	10006.03
614.712	10151.44
614.907	10319.37
615.103	10620.42
615.298	11044.35
615.493	11337.21
615.688	11386.36
615.884	12127.73
616.079	11988.47
616.274	12445.16
616.47	12533.23
616.665	12942.82
616.86	13331.94
617.055	13741.53
617.25	13870.55
617.445	14415.31
617.641	14638.54
617.836	15187.39
618.031	15166.92
618.226	15687.1
618.421	16223.67
618.616	16524.72
618.811	16747.95
619.006	17292.71
619.201	17577.37
619.396	18052.5
619.591	18138.52
619.786	18863.5
619.981	18855.31
620.176	19705.21
620.371	19815.8
620.566	20434.29
620.761	20766.06
620.956	21271.91
621.151	21284.2
621.346	22123.87
621.541	22066.52
621.735	23158.09
621.93	23022.92
622.125	23706.94
622.32	23475.52
622.515	24290.62
622.709	24612.15
622.904	25326.89
623.099	25664.8
623.294	26758.42
623.488	26305.82
623.683	27116.81
623.878	27497.74
624.072	28038.4
624.267	28294.39
624.462	28800.24
624.656	28929.27
624.851	29682.92
625.046	30182.62
625.24	30506.2
625.435	30741.72
625.629	31423.69
625.824	31562.95
626.018	32652.47
626.213	32060.61
626.407	32814.26
626.602	32996.53
626.796	33625.26
626.991	33799.33
627.185	34041
627.38	34385.05
627.574	34323.61
627.768	34718.87
627.963	34815.13
628.157	34720.92
628.352	35343.5
628.546	34772.12
628.74	35536.01
628.935	34923.67
629.129	35562.64
629.323	35042.45
629.517	34751.64
629.712	34391.2
629.906	34258.08
630.1	34077.86
630.294	34075.81
630.489	33266.86
630.683	33275.05
630.877	32072.9
631.071	31894.72
631.265	31628.49
631.459	30833.88
631.653	30579.93
631.848	29818.08
632.042	29107.44
632.236	28605.69
632.43	27628.81
632.624	26746.13
632.818	26129.69
633.012	25310.5
633.206	24483.13
633.4	23913.79
633.594	23027.02
633.788	22408.53
633.982	21675.36
634.176	20977
634.369	19840.38
634.563	19551.62
634.757	18412.95
634.951	18072.98
635.145	17178.02
635.339	16555.44
635.533	15930.81
635.726	15414.72
635.92	14624.2
636.114	14058.96
636.308	13442.53
636.501	12899.81
636.695	12453.36
636.889	12092.91
637.083	11234.82
637.276	10864.13
637.47	10329.61
637.664	10100.24
637.857	9637.4
638.051	9446.94
638.244	9100.83
638.438	8697.38
638.632	8234.54
638.825	7773.75
639.019	7589.43
639.212	7192.12
639.406	6919.75
639.599	6645.32
639.793	6401.61
639.986	6069.84
640.18	5977.68
640.373	5731.92
640.567	5537.37
640.76	5383.77
640.954	5330.52
641.147	4761.19
641.34	4689.51
641.534	4564.58
641.727	4537.96
641.92	4429.42
642.114	4138.6
642.307	4023.92
642.5	3862.13
642.694	3563.12
642.887	3475.06
643.08	3495.54
643.273	3329.66
643.467	2983.55
643.66	2981.5
643.853	2764.42
644.046	2866.81
644.239	2709.12
644.432	2606.72
644.626	2315.91
644.819	2430.6
645.012	2209.42
645.205	2203.27
645.398	2229.9
645.591	2018.96
645.784	1795.73
645.977	1785.49
646.17	1801.87
646.363	1640.08
646.556	1648.27
646.749	1539.73
646.942	1531.54
647.135	1562.26
647.328	1494.68
647.521	1388.18
647.714	1306.26
647.907	1363.61
648.099	1263.26
648.292	1291.93
648.485	1160.86
648.678	1040.03
648.871	1042.07
649.064	1058.46
649.256	935.58
649.449	794.27
649.642	802.46
649.835	855.71
650.027	845.47
650.22	896.67
650.413	802.46
650.605	810.65
650.798	730.78
650.991	706.21
651.183	644.77
651.376	659.1
651.568	749.22
651.761	571.04
651.954	581.28
652.146	499.36
652.339	657.06
652.531	609.95
652.724	464.55
652.916	417.44
653.109	431.78
653.301	605.86
653.494	558.75
653.686	464.55
653.879	614.05
654.071	501.41
654.263	372.39
654.456	444.07
654.648	485.03
654.84	442.02
655.033	259.75
655.225	439.97
655.417	251.56
655.61	497.32
655.802	439.97
655.994	419.49
656.186	257.7
656.379	437.92
656.571	267.94
656.763	315.05
656.955	302.76
657.148	294.57
657.34	347.81
657.532	222.89
657.724	220.84
657.916	323.24
658.108	282.28
658.3	341.67
658.492	229.03
658.684	190.12
658.876	360.1
659.068	110.25
659.26	224.94
659.452	241.32
659.644	229.03
659.836	296.61
660.028	321.19
660.22	192.17
660.412	257.7
660.604	237.22
660.796	163.5
660.988	310.95
661.18	202.41
661.372	286.37
661.563	214.7
661.755	241.32
661.947	157.35
662.139	106.15
662.331	194.22
662.522	138.92
662.714	167.59
662.906	173.74
663.097	257.7
663.289	149.16
663.481	38.57
663.673	200.36
663.864	173.74
664.056	163.5
664.247	155.3
664.439	226.98
664.631	188.07
664.822	220.84
665.014	126.63
665.205	134.82
665.397	95.91
665.588	239.27
665.78	208.55
665.971	216.74
666.163	102.06
666.354	171.69
666.546	87.72
666.737	143.02
666.929	140.97
667.12	65.19
667.311	222.89
667.503	120.49
667.694	163.5
667.885	233.13
668.077	257.7
668.268	-16.73
668.459	151.21
668.651	140.97
668.842	145.06
669.033	81.58
669.224	5.8
669.416	374.44
669.607	183.98
669.798	54.95
669.989	192.17
670.18	194.22
670.371	235.18
670.563	100.01
670.754	214.7
670.945	179.88
671.136	231.08
671.327	126.63
671.518	212.65
671.709	263.85
671.9	177.83
672.091	249.51
672.282	220.84
672.473	198.31
672.664	134.82
672.855	151.21
673.046	231.08
673.237	302.76
673.428	210.6
673.619	218.79
673.809	140.97
674	204.46
674.191	308.9
674.382	108.2
674.573	169.64
674.764	253.61
674.954	366.25
675.145	159.4
675.336	163.5
675.527	77.48
675.717	153.26
675.908	140.97
676.099	204.46
676.289	239.27
676.48	89.77
676.671	157.35
676.861	194.22
677.052	175.78
677.243	288.42
677.433	130.73
677.624	235.18
677.814	249.51
678.005	226.98
678.195	286.37
678.386	159.4
678.576	239.27
678.767	143.02
678.957	218.79
679.148	306.85
679.338	376.48
679.529	263.85
679.719	247.46
679.909	313
680.1	267.94
680.29	278.18
680.481	243.37
680.671	300.71
680.861	196.26
681.052	284.33
681.242	214.7
681.432	224.94
681.622	274.09
681.813	255.65
682.003	247.46
682.193	226.98
682.383	372.39
682.573	229.03
682.764	310.95
682.954	278.18
683.144	378.53
683.334	210.6
683.524	335.53
683.714	331.43
683.904	288.42
684.094	335.53
684.284	298.66
684.474	413.35
684.664	372.39
684.854	401.06
685.044	310.95
685.234	323.24
685.424	286.37
685.614	224.94
685.804	462.5
685.994	405.16
686.184	300.71
686.374	317.09
686.564	308.9
686.753	329.38
686.943	243.37
687.133	319.14
687.323	294.57
687.513	261.8
687.702	333.48
687.892	370.34
688.082	388.77
688.272	476.84
688.461	333.48
688.651	384.68
688.841	351.91
689.03	300.71
689.22	325.29
689.41	380.58
689.599	282.28
689.789	349.86
689.979	444.07
690.168	210.6
690.358	368.29
690.547	259.75
690.737	351.91
690.926	302.76
691.116	366.25
691.305	380.58
691.495	382.63
691.684	175.78
691.874	366.25
692.063	288.42
692.252	411.3
692.442	341.67
692.631	245.41
692.82	188.07
693.01	222.89
693.199	282.28
693.388	263.85
693.578	315.05
693.767	345.77
693.956	302.76
694.146	235.18
694.335	374.44
694.524	259.75
694.713	370.34
694.902	267.94
695.092	280.23
695.281	290.47
695.47	274.09
695.659	284.33
695.848	306.85
696.037	249.51
696.226	286.37
696.415	249.51
696.604	333.48
696.793	317.09
696.982	372.39
697.171	435.88
697.36	282.28
697.549	169.64
697.738	222.89
697.927	265.89
698.116	222.89
698.305	274.09
698.494	298.66
698.683	267.94
698.872	349.86
699.061	269.99
699.25	151.21
699.438	272.04
699.627	147.11
699.816	413.35
700.005	120.49
700.193	171.69
700.382	366.25
700.571	308.9
700.76	261.8
700.948	351.91
701.137	224.94
701.326	345.77
701.514	235.18
701.703	206.5
701.892	237.22
702.08	417.44
702.269	339.62
702.457	210.6
702.646	300.71
702.834	239.27
703.023	259.75
703.212	296.61
703.4	329.38
703.589	181.93
703.777	247.46
703.965	91.82
704.154	222.89
704.342	147.11
704.531	226.98
704.719	325.29
704.907	304.81
705.096	204.46
705.284	181.93
705.472	282.28
705.661	288.42
705.849	337.57
706.037	327.33
706.226	296.61
706.414	353.96
706.602	140.97
706.79	323.24
706.979	233.13
707.167	212.65
707.355	136.87
707.543	241.32
707.731	288.42
707.919	288.42
708.107	194.22
708.296	181.93
708.484	87.72
708.672	335.53
708.86	351.91
709.048	183.98
709.236	159.4
709.424	308.9
709.612	290.47
709.8	110.25
709.988	251.56
710.176	282.28
710.364	396.96
710.551	249.51
710.739	247.46
710.927	263.85
711.115	198.31
711.303	224.94
711.491	360.1
711.679	269.99
711.866	345.77
712.054	224.94
712.242	294.57
712.43	302.76
712.617	175.78
712.805	331.43
712.993	212.65
713.181	112.3
713.368	321.19
713.556	241.32
713.744	196.26
713.931	366.25
714.119	267.94
714.306	261.8
714.494	325.29
714.682	179.88
714.869	222.89
715.057	208.55
715.244	130.73
715.432	372.39
715.619	224.94
715.807	204.46
715.994	194.22
716.182	286.37
716.369	347.81
716.556	274.09
716.744	136.87
716.931	192.17
717.119	310.95
717.306	241.32
717.493	288.42
717.681	261.8
717.868	263.85
718.055	337.57
718.242	226.98
718.43	327.33
718.617	327.33
718.804	212.65
718.991	308.9
719.179	251.56
719.366	323.24
719.553	243.37
719.74	321.19
719.927	243.37
720.114	257.7
720.301	208.55
720.488	171.69
720.676	202.41
720.863	349.86
721.05	403.11
721.237	329.38
721.424	325.29
721.611	345.77
721.798	204.46
721.985	337.57
722.172	261.8
722.358	229.03
722.545	366.25
722.732	280.23
722.919	374.44
723.106	239.27
723.293	274.09
723.48	251.56
723.667	255.65
723.853	321.19
724.04	362.15
724.227	384.68
724.414	245.41
724.6	368.29
724.787	444.07
724.974	489.12
725.161	272.04
725.347	229.03
725.534	351.91
725.72	292.52
725.907	431.78
726.094	392.87
726.28	161.45
726.467	353.96
726.653	255.65
726.84	413.35
727.027	399.01
727.213	278.18
727.4	308.9
727.586	321.19
727.773	331.43
727.959	302.76
728.145	317.09
728.332	224.94
728.518	313
728.705	380.58
728.891	269.99
729.077	364.2
729.264	192.17
729.45	298.66
729.636	284.33
729.823	263.85
730.009	446.12
730.195	435.88
730.382	351.91
730.568	313
730.754	251.56
730.94	327.33
731.126	411.3
731.313	335.53
731.499	276.13
731.685	269.99
731.871	442.02
732.057	345.77
732.243	376.48
732.429	313
732.615	472.74
732.801	364.2
732.987	243.37
733.173	349.86
733.359	284.33
733.545	341.67
733.731	296.61
733.917	401.06
734.103	380.58
734.289	368.29
734.475	239.27
734.661	603.81
734.847	329.38
735.033	423.59
735.219	454.31
735.404	347.81
735.59	319.14
735.776	358.05
735.962	349.86
736.148	476.84
736.333	415.4
736.519	294.57
736.705	347.81
736.89	366.25
737.076	329.38
737.262	308.9
737.447	212.65
737.633	300.71
737.819	511.65
738.004	321.19
738.19	302.76
738.375	390.82
738.561	407.2
738.747	439.97
738.932	247.46
739.118	458.4
739.303	435.88
739.489	347.81
739.674	204.46
739.859	288.42
740.045	407.2
740.23	315.05
740.416	247.46
740.601	399.01
740.786	425.64
740.972	257.7
741.157	239.27
741.342	267.94
741.528	335.53
741.713	429.73
741.898	278.18
742.084	267.94
742.269	325.29
742.454	345.77
742.639	427.68
742.824	308.9
743.01	360.1
743.195	439.97
743.38	341.67
743.565	335.53
743.75	392.87
743.935	370.34
744.12	480.93
744.305	241.32
744.49	335.53
744.675	233.13
744.86	263.85
745.045	403.11
745.23	362.15
745.415	298.66
745.6	407.2
745.785	269.99
745.97	429.73
746.155	390.82
746.34	435.88
746.525	298.66
746.71	323.24
746.895	218.79
747.079	278.18
747.264	333.48
747.449	353.96
747.634	313
747.819	358.05
748.003	261.8
748.188	188.07
748.373	392.87
748.557	263.85
748.742	263.85
748.927	403.11
749.111	194.22
749.296	276.13
749.481	351.91
749.665	374.44
749.85	190.12
750.034	267.94
750.219	349.86
750.404	321.19
750.588	360.1
750.773	220.84
750.957	202.41
751.141	253.61
751.326	292.52
751.51	224.94
751.695	237.22
751.879	224.94
752.064	372.39
752.248	161.45
752.432	329.38
752.617	319.14
752.801	339.62
752.985	183.98
753.17	310.95
753.354	276.13
753.538	310.95
753.722	245.41
753.907	224.94
754.091	196.26
754.275	206.5
754.459	143.02
754.643	140.97
754.828	226.98
755.012	253.61
755.196	165.54
755.38	181.93
755.564	147.11
755.748	274.09
755.932	241.32
756.116	235.18
756.3	296.61
756.484	179.88
756.668	276.13
756.852	110.25
757.036	140.97
757.22	147.11
757.404	188.07
757.588	214.7
757.772	237.22
757.956	249.51
758.14	362.15
758.323	95.91
758.507	149.16
758.691	138.92
758.875	231.08
759.059	280.23
759.242	155.3
759.426	214.7
759.61	169.64
759.794	183.98
759.977	276.13
760.161	341.67
760.345	243.37
760.528	265.89
760.712	145.06
760.895	202.41
761.079	159.4
761.263	50.86
761.446	77.48
761.63	190.12
761.813	267.94
761.997	93.87
762.18	120.49
762.364	224.94
762.547	89.77
762.731	167.59
762.914	130.73
763.098	126.63
763.281	181.93
763.464	93.87
763.648	190.12
763.831	136.87
764.015	91.82
764.198	265.89
764.381	75.43
764.564	202.41
764.748	165.54
764.931	177.83
765.114	194.22
765.297	204.46
765.481	-0.34
765.664	120.49
765.847	140.97
766.03	276.13
766.213	63.15
766.397	136.87
766.58	42.67
766.763	75.43
766.946	114.34
767.129	57
767.312	126.63
767.495	30.38
767.678	-2.39
767.861	179.88
768.044	73.39
768.227	171.69
768.41	79.53
768.593	114.34
768.776	89.77
768.959	-12.63
769.142	241.32
769.324	40.62
769.507	73.39
769.69	118.44
769.873	67.24
770.056	226.98
770.239	122.54
770.421	155.3
770.604	97.96
770.787	110.25
770.97	132.78
771.152	32.43
771.335	138.92
771.518	38.57
771.7	116.39
771.883	190.12
772.066	118.44
772.248	136.87
772.431	186.02
772.613	247.46
772.796	134.82
772.978	204.46
773.161	140.97
773.343	83.63
773.526	38.57
773.708	77.48
773.891	-39.25
774.073	91.82
774.256	44.71
774.438	237.22
774.621	26.28
774.803	81.58
774.985	16.04
775.168	89.77
775.35	79.53
775.532	73.39
775.715	-31.06
775.897	87.72
776.079	38.57
776.261	114.34
776.444	124.58
776.626	75.43
776.808	97.96
776.99	-29.01
777.173	44.71
777.355	116.39
777.537	67.24
777.719	46.76
777.901	124.58
778.083	48.81
778.265	-22.87
778.447	136.87
778.629	42.67
778.811	130.73
778.993	46.76
779.175	102.06
779.357	118.44
779.539	-2.39
779.721	100.01
779.903	118.44
780.085	52.91
780.267	57
780.449	91.82
780.631	155.3
780.812	196.26
780.994	97.96
781.176	112.3
781.358	50.86
781.54	11.95
781.721	59.05
781.903	87.72
782.085	7.85
782.267	95.91
782.448	13.99
782.63	69.29
782.812	138.92
782.993	151.21
783.175	132.78
783.357	24.23
783.538	65.19
783.72	-18.77
783.901	50.86
784.083	110.25
784.264	-20.82
784.446	-31.06
784.627	-22.87
784.809	50.86
784.99	46.76
785.172	120.49
785.353	95.91
785.535	48.81
785.716	-18.77
785.897	44.71
786.079	40.62
786.26	75.43
786.441	116.39
786.623	-10.58
786.804	-6.49
786.985	-26.96
787.167	85.67
787.348	57
787.529	34.47
787.71	202.41
787.891	59.05
788.073	54.95
788.254	-20.82
788.435	122.54
788.616	-2.39
788.797	-112.98
788.978	-31.06
789.159	59.05
789.34	26.28
789.522	93.87
789.703	-29.01
789.884	-18.77
790.065	-33.11
790.246	190.12
790.427	-39.25
790.607	218.79
790.788	102.06
790.969	-14.68
791.15	136.87
791.331	-6.49
791.512	9.9
791.693	-26.96
791.874	9.9
792.054	220.84
792.235	118.44
792.416	-6.49
792.597	-0.34
792.778	89.77
792.958	83.63
793.139	73.39
793.32	34.47
793.5	-53.59
793.681	118.44
793.862	61.1
794.042	-18.77
794.223	-82.26
794.404	-49.49
794.584	-22.87
794.765	40.62
794.945	3.75
795.126	116.39
795.306	106.15
795.487	44.71
795.667	-51.54
795.848	61.1
796.028	120.49
796.209	-20.82
796.389	44.71
796.57	28.33
796.75	-35.16
796.93	40.62
797.111	16.04
797.291	-45.4
797.471	34.47
797.652	18.09
797.832	-37.2
798.012	26.28
798.192	-0.34
798.373	-100.69
798.553	-18.77
798.733	54.95
798.913	7.85
799.093	7.85
799.274	5.8
799.454	59.05
799.634	95.91
799.814	110.25
799.994	63.15
800.174	50.86
800.354	13.99
800.534	-49.49
800.714	13.99
800.894	-43.35
801.074	-53.59
801.254	42.67
801.434	18.09
801.614	-2.39
801.794	-96.6
801.974	1926.8
802.154	28.33
802.334	143.02
802.514	-115.03
802.693	89.77
802.873	-29.01
803.053	155.3
803.233	87.72
803.413	40.62
803.592	-22.87
803.772	77.48
803.952	5.8
804.131	-55.64
804.311	28.33
804.491	61.1
804.67	-80.21
804.85	-55.64
805.03	42.67
805.209	63.15
805.389	-31.06
805.568	11.95
805.748	40.62
805.928	-18.77
806.107	1.71
806.287	100.01
806.466	63.15
806.646	79.53
806.825	24.23
807.004	9.9
807.184	44.71
807.363	87.72
807.543	38.57
807.722	-86.36
807.901	73.39
808.081	-0.34
808.26	-129.36
808.439	59.05
808.619	50.86
808.798	28.33
808.977	16.04
809.156	67.24
809.336	36.52
809.515	130.73
809.694	-49.49
809.873	-18.77
810.052	67.24
810.231	48.81
810.411	52.91
810.59	106.15
810.769	-53.59
810.948	57
811.127	-65.88
811.306	-6.49
811.485	-86.36
811.664	147.11
811.843	-16.73
812.022	18.09
812.201	102.06
812.38	-12.63
812.559	-12.63
812.737	97.96
812.916	-123.22
813.095	-82.26
813.274	-8.53
813.453	-65.88
813.632	24.23
813.811	9.9
813.989	-78.16
814.168	1.71
814.347	44.71
814.526	11.95
814.704	65.19
814.883	52.91
815.062	-61.78
815.24	24.23
815.419	-74.07
815.598	81.58
815.776	-110.93
815.955	-12.63
816.133	-182.61
816.312	52.91
816.49	-63.83
816.669	-106.84
816.847	-10.58
817.026	7.85
817.204	9.9
817.383	26.28
817.561	-74.07
817.74	132.78
817.918	-6.49
818.097	-94.55
818.275	22.19
818.453	42.67
818.632	126.63
818.81	-24.92
818.988	-67.92
819.167	-4.44
819.345	40.62
819.523	-35.16
819.701	-45.4
819.879	48.81
820.058	-14.68
820.236	24.23
820.414	7.85
820.592	-37.2
820.77	-65.88
820.948	-33.11
821.127	-59.73
821.305	20.14
821.483	-57.68
821.661	-24.92
821.839	52.91
822.017	-39.25
822.195	-51.54
822.373	26.28
822.551	38.57
822.729	102.06
822.907	-4.44
823.085	24.23
823.262	-33.11
823.44	-6.49
823.618	-16.73
823.796	108.2
823.974	16.04
824.152	-22.87
824.329	-67.92
824.507	-8.53
824.685	59.05
824.863	11.95
825.04	75.43
825.218	32.43
825.396	42.67
825.574	-12.63
825.751	-24.92
825.929	77.48
826.107	22.19
826.284	-57.68
826.462	71.34
826.639	-45.4
826.817	-26.96
826.994	-43.35
827.172	-78.16
827.349	91.82
827.527	46.76
827.704	61.1
827.882	130.73
828.059	30.38
828.237	-31.06
828.414	36.52
828.591	-88.4
828.769	16.04
828.946	-12.63
829.124	-10.58
829.301	77.48
829.478	-39.25
829.655	73.39
829.833	-24.92
830.01	-170.32
830.187	136.87
830.364	1.71
830.542	11.95
830.719	73.39
830.896	32.43
831.073	-37.2
831.25	18.09
831.427	36.52
831.604	30.38
831.782	44.71
831.959	100.01
832.136	-4.44
832.313	79.53
832.49	-67.92
832.667	36.52
832.844	-31.06
833.021	140.97
833.198	-16.73
833.374	-94.55
833.551	32.43
833.728	-115.03
833.905	48.81
834.082	-155.99
834.259	7.85
834.436	122.54
834.612	-8.53
834.789	67.24
834.966	-24.92
835.143	44.71
835.319	-67.92
835.496	-0.34
835.673	-20.82
835.85	57
836.026	7.85
836.203	100.01
836.38	-102.74
836.556	-26.96
836.733	-82.26
836.909	179.88
837.086	-41.3
837.262	-98.64
837.439	59.05
837.616	-6.49
837.792	-4.44
837.968	-74.07
838.145	-72.02
838.321	-53.59
838.498	67.24
838.674	165.54
838.851	9.9
839.027	-31.06
839.203	9.9
839.38	26.28
839.556	50.86
839.732	22.19
839.909	-14.68
840.085	-16.73
840.261	-88.4
840.437	20.14
840.614	-31.06
840.79	-57.68
840.966	28.33
841.142	61.1
841.318	-63.83
841.494	57
841.671	-18.77
841.847	-18.77
842.023	-143.7
842.199	28.33
842.375	147.11
842.551	-69.97
842.727	-12.63
842.903	130.73
843.079	-174.42
843.255	95.91
843.431	-16.73
843.607	46.76
843.783	-158.03
843.959	32.43
844.134	13.99
844.31	71.34
844.486	-51.54
844.662	-49.49
844.838	18.09
845.013	-8.53
845.189	93.87
845.365	-45.4
845.541	54.95
845.716	40.62
845.892	89.77
846.068	-143.7
846.244	-49.49
846.419	-6.49
846.595	-33.11
846.77	-67.92
846.946	100.01
847.122	-69.97
847.297	5.8
847.473	136.87
847.648	-108.88
847.824	-55.64
847.999	-119.12
848.175	-86.36
848.35	24.23
848.526	91.82
848.701	30.38
848.876	46.76
849.052	69.29
849.227	30.38
849.403	-78.16
849.578	85.67
849.753	-90.45
849.929	28.33
850.104	-129.36
850.279	22.19
850.454	-37.2
850.63	-16.73
850.805	24.23
850.98	32.43
851.155	-84.31
851.33	-16.73
851.505	-88.4
851.681	147.11
851.856	1.71
852.031	79.53
852.206	73.39
852.381	-76.12
852.556	-22.87
852.731	-8.53
852.906	40.62
853.081	54.95
853.256	124.58
853.431	-33.11
853.606	-98.64
853.781	-112.98
853.956	-98.64
854.131	5.8
854.305	-10.58
854.48	-47.44
854.655	-14.68
854.83	-4.44
855.005	-63.83
855.18	26.28
855.354	-51.54
855.529	-47.44
855.704	-55.64
855.879	18.09
856.053	-176.47
856.228	46.76
856.403	-108.88
856.577	30.38
856.752	-53.59
856.926	11.95
857.101	22.19
857.276	-78.16
857.45	-8.53
857.625	5.8
857.799	-0.34
857.974	-4.44
858.148	-145.75
858.323	-0.34
858.497	-20.82
858.672	-49.49
858.846	5.8
859.02	83.63
859.195	-14.68
859.369	-14.68
859.543	-18.77
859.718	-45.4
859.892	-2.39
860.066	38.57
860.241	-10.58
860.415	-78.16
860.589	-16.73
860.763	-49.49
860.938	18.09
861.112	34.47
861.286	-29.01
861.46	1.71
861.634	-63.83
861.808	54.95
861.982	-80.21
862.157	-74.07
862.331	-14.68
862.505	-106.84
862.679	-69.97
862.853	-69.97
863.027	-22.87
863.201	136.87
863.375	-43.35
863.549	30.38
863.722	-2.39
863.896	44.71
864.07	-16.73
864.244	-35.16
864.418	89.77
864.592	-69.97
864.766	-55.64
864.939	46.76
865.113	-35.16
865.287	59.05
865.461	-78.16
865.634	28.33
865.808	-8.53
865.982	-39.25
866.156	-90.45
866.329	-51.54
866.503	50.86
866.676	1.71
866.85	77.48
867.024	-61.78
867.197	110.25
867.371	42.67
867.544	67.24
867.718	-106.84
867.891	97.96
868.065	-112.98
868.238	-33.11
868.412	44.71
868.585	20.14
868.759	-55.64
868.932	-47.44
869.105	-82.26
869.279	-47.44
869.452	-16.73
869.625	3.75
869.799	50.86
869.972	-84.31
870.145	-39.25
870.319	18.09
870.492	-33.11
870.665	-37.2
870.838	-59.73
871.011	-145.75
871.185	-47.44
871.358	-53.59
871.531	81.58
871.704	-37.2
871.877	1.71
872.05	-61.78
872.223	-88.4
872.396	16.04
872.569	18.09
872.742	-74.07
872.915	-47.44
873.088	-63.83
873.261	-94.55
873.434	149.16
873.607	-0.34
873.78	87.72
873.953	-88.4
874.126	7.85
874.299	-24.92
874.471	11.95
874.644	30.38
874.817	11.95
874.99	79.53
875.163	-4.44
875.335	36.52
875.508	44.71
875.681	93.87
875.853	-115.03
876.026	-35.16
876.199	85.67
876.371	11.95
876.544	-4.44
876.717	-78.16
876.889	-63.83
877.062	52.91
877.234	-112.98
877.407	-57.68
877.579	-26.96
877.752	11.95
877.924	73.39
878.097	-12.63
878.269	67.24
878.442	7.85
878.614	-65.88
878.786	30.38
878.959	-6.49
879.131	-22.87
879.303	-135.51
879.476	-33.11
879.648	118.44
879.82	-92.5
879.993	-37.2
880.165	-57.68
880.337	-133.46
880.509	-37.2
880.681	-108.88
880.854	-51.54
881.026	147.11
881.198	112.3
881.37	50.86
881.542	-43.35
881.714	-31.06
881.886	-88.4
882.058	13.99
882.23	50.86
882.402	-26.96
882.574	5.8
882.746	9.9
882.918	85.67
883.09	71.34
883.262	3.75
883.434	30.38
883.606	-94.55
883.778	-4.44
883.95	38.57
884.122	-72.02
884.293	91.82
884.465	-31.06
884.637	65.19
884.809	-57.68
884.98	22.19
885.152	61.1
885.324	22.19
885.496	-78.16
885.667	-35.16
885.839	-82.26
886.011	97.96
886.182	32.43
886.354	-6.49
886.525	-26.96
886.697	-0.34
886.869	-51.54
887.04	7.85
887.212	32.43
887.383	104.11
887.555	91.82
887.726	-35.16
887.897	-76.12
888.069	-49.49
888.24	5.8
888.412	-59.73
888.583	63.15
888.754	24.23
888.926	-102.74
889.097	-69.97
889.268	-35.16
889.44	-31.06
889.611	-119.12
889.782	-65.88
889.953	3.75
890.125	120.49
890.296	-127.32
890.467	-39.25
890.638	-67.92
890.809	30.38
890.98	-80.21
891.151	5.8
891.323	71.34
891.494	30.38
891.665	5.8
891.836	-41.3
892.007	-78.16
892.178	50.86
892.349	26.28
892.52	-115.03
892.691	-16.73
892.862	-29.01
893.032	-149.84
893.203	-43.35
893.374	83.63
893.545	-72.02
893.716	-80.21
893.887	69.29
894.057	-84.31
894.228	-12.63
894.399	-31.06
894.57	13.99
894.74	-53.59
894.911	-10.58
895.082	-22.87
895.253	16.04
895.423	44.71
895.594	140.97
895.764	42.67
895.935	-96.6
896.106	52.91
896.276	32.43
896.447	-22.87
896.617	-69.97
896.788	-102.74
896.958	-0.34
897.129	5.8
897.299	-88.4
897.47	79.53
897.64	30.38
897.81	11.95
897.981	40.62
898.151	-170.32
898.322	54.95
898.492	-84.31
898.662	-129.36
898.832	-14.68
899.003	-59.73
899.173	79.53
899.343	-43.35
899.513	-12.63
