Data from USB4F104151__35__10-42-33-882.txt Node

Date: Wed Feb 26 10:42:33 EST 2025
User: louis
Spectrometer: USB4F10415
Trigger mode: 4
Integration Time (sec): 1.000000E-1
Scans to average: 1
Electric dark correction enabled: true
Nonlinearity correction enabled: false
Boxcar width: 0
XAxis mode: Wavelengths
Number of Pixels in Spectrum: 3648
>>>>>Begin Spectral Data<<<<<
178.204	-402.6
178.424	-402.6
178.644	-402.6
178.864	-390.31
179.084	-398.5
179.304	-64.68
179.524	-3.24
179.744	-44.2
179.964	31.57
180.184	11.09
180.404	19.29
180.624	-25.77
180.844	23.38
181.064	-85.16
181.283	74.58
181.503	-23.72
181.723	86.87
181.943	-183.46
182.163	115.54
182.383	-42.15
182.602	93.01
182.822	82.77
183.042	27.48
183.262	-9.39
183.482	-56.49
183.701	-7.34
183.921	-79.02
184.141	9.05
184.361	140.12
184.58	50
184.8	-1.19
185.02	-23.72
185.239	82.77
185.459	68.44
185.679	121.68
185.898	-62.63
186.118	99.16
186.338	52.05
186.557	156.5
186.777	-31.91
186.997	-17.58
187.216	-38.06
187.436	195.41
187.655	138.07
187.875	84.82
188.095	45.91
188.314	93.01
188.534	136.02
188.753	-15.53
188.973	181.07
189.192	205.65
189.412	-13.48
189.631	33.62
189.851	-1.19
190.07	183.12
190.29	15.19
190.509	33.62
190.729	9.05
190.948	74.58
191.168	205.65
191.387	39.76
191.607	52.05
191.826	58.2
192.045	13.14
192.265	-7.34
192.484	68.44
192.704	35.67
192.923	-25.77
193.142	219.99
193.362	148.31
193.581	113.49
193.8	27.48
194.02	66.39
194.239	127.83
194.458	-7.34
194.678	-3.24
194.897	-7.34
195.116	72.53
195.335	56.15
195.555	29.52
195.774	9.05
195.993	82.77
196.212	-13.48
196.432	-9.39
196.651	-27.82
196.87	29.52
197.089	185.17
197.308	37.72
197.528	82.77
197.747	-91.31
197.966	60.24
198.185	189.27
198.404	-48.3
198.623	131.92
198.842	138.07
199.062	88.92
199.281	84.82
199.5	9.05
199.719	70.48
199.938	2.9
200.157	97.11
200.376	183.12
200.595	105.3
200.814	86.87
201.033	27.48
201.252	144.21
201.471	88.92
201.69	56.15
201.909	138.07
202.128	146.26
202.347	29.52
202.566	52.05
202.785	-17.58
203.004	2.9
203.223	185.17
203.442	88.92
203.661	-74.92
203.879	72.53
204.098	103.25
204.317	-68.78
204.536	101.2
204.755	58.2
204.974	58.2
205.193	-52.39
205.411	181.07
205.63	121.68
205.849	123.73
206.068	27.48
206.287	-17.58
206.505	150.36
206.724	95.06
206.943	-3.24
207.162	-3.24
207.381	107.35
207.599	-1.19
207.818	-15.53
208.037	-23.72
208.255	76.63
208.474	60.24
208.693	39.76
208.911	-15.53
209.13	133.97
209.349	90.96
209.567	43.86
209.786	47.96
210.005	39.76
210.223	66.39
210.442	-107.69
210.661	68.44
210.879	-3.24
211.098	56.15
211.316	33.62
211.535	119.64
211.753	-19.63
211.972	27.48
212.191	-50.35
212.409	47.96
212.628	27.48
212.846	41.81
213.065	19.29
213.283	80.72
213.502	35.67
213.72	39.76
213.938	37.72
214.157	50
214.375	101.2
214.594	-33.96
214.812	41.81
215.031	56.15
215.249	23.38
215.467	117.59
215.686	64.34
215.904	25.43
216.122	-5.29
216.341	90.96
216.559	9.05
216.778	72.53
216.996	99.16
217.214	37.72
217.432	39.76
217.651	-31.91
217.869	62.29
218.087	58.2
218.306	-13.48
218.524	17.24
218.742	-31.91
218.96	170.83
219.179	70.48
219.397	9.05
219.615	150.36
219.833	88.92
220.051	2.9
220.27	66.39
220.488	58.2
220.706	39.76
220.924	47.96
221.142	15.19
221.36	101.2
221.578	164.69
221.796	-36.01
222.015	66.39
222.233	-19.63
222.451	207.7
222.669	25.43
222.887	64.34
223.105	7
223.323	35.67
223.541	-13.48
223.759	101.2
223.977	113.49
224.195	123.73
224.413	160.59
224.631	107.35
224.849	121.68
225.067	187.22
225.285	23.38
225.503	2.9
225.721	-56.49
225.939	56.15
226.157	90.96
226.375	242.51
226.592	37.72
226.81	41.81
227.028	58.2
227.246	101.2
227.464	-27.82
227.682	72.53
227.9	84.82
228.117	19.29
228.335	127.83
228.553	60.24
228.771	121.68
228.989	172.88
229.206	107.35
229.424	66.39
229.642	21.33
229.86	2.9
230.077	64.34
230.295	52.05
230.513	62.29
230.731	123.73
230.948	129.88
231.166	105.3
231.384	-27.82
231.601	-29.87
231.819	181.07
232.037	-40.11
232.254	-74.92
232.472	37.72
232.689	37.72
232.907	146.26
233.125	66.39
233.342	-66.73
233.56	13.14
233.777	-11.43
233.995	-7.34
234.213	140.12
234.43	160.59
234.648	-27.82
234.865	-54.44
235.083	58.2
235.3	86.87
235.518	170.83
235.735	131.92
235.953	54.1
236.17	-52.39
236.388	58.2
236.605	68.44
236.822	195.41
237.04	101.2
237.257	123.73
237.475	-76.97
237.692	76.63
237.909	78.68
238.127	82.77
238.344	45.91
238.562	-42.15
238.779	-54.44
238.996	-66.73
239.214	19.29
239.431	90.96
239.648	11.09
239.865	76.63
240.083	56.15
240.3	43.86
240.517	19.29
240.735	41.81
240.952	152.4
241.169	70.48
241.386	109.4
241.603	23.38
241.821	-95.4
242.038	103.25
242.255	82.77
242.472	-40.11
242.689	119.64
242.907	58.2
243.124	27.48
243.341	-52.39
243.558	-21.67
243.775	-36.01
243.992	-42.15
244.209	58.2
244.426	170.83
244.643	54.1
244.86	9.05
245.078	70.48
245.295	123.73
245.512	45.91
245.729	-17.58
245.946	68.44
246.163	2.9
246.38	2.9
246.597	95.06
246.814	21.33
247.031	35.67
247.248	-27.82
247.464	88.92
247.681	64.34
247.898	9.05
248.115	19.29
248.332	25.43
248.549	82.77
248.766	123.73
248.983	82.77
249.2	-9.39
249.417	105.3
249.633	-25.77
249.85	95.06
250.067	29.52
250.284	136.02
250.501	15.19
250.717	21.33
250.934	-13.48
251.151	-5.29
251.368	52.05
251.585	115.54
251.801	80.72
252.018	11.09
252.235	136.02
252.451	-7.34
252.668	101.2
252.885	86.87
253.102	33.62
253.318	13.14
253.535	37.72
253.752	-3.24
253.968	-17.58
254.185	-40.11
254.401	127.83
254.618	4.95
254.835	-83.11
255.051	140.12
255.268	142.16
255.484	86.87
255.701	15.19
255.917	33.62
256.134	45.91
256.351	21.33
256.567	-60.59
256.784	70.48
257	-64.68
257.217	84.82
257.433	99.16
257.65	84.82
257.866	172.88
258.082	-103.59
258.299	-7.34
258.515	64.34
258.732	35.67
258.948	-17.58
259.165	68.44
259.381	-19.63
259.597	109.4
259.814	68.44
260.03	19.29
260.246	-23.72
260.463	127.83
260.679	148.31
260.895	39.76
261.112	119.64
261.328	97.11
261.544	-60.59
261.761	148.31
261.977	-62.63
262.193	-13.48
262.409	183.12
262.626	80.72
262.842	99.16
263.058	-11.43
263.274	131.92
263.49	76.63
263.707	21.33
263.923	68.44
264.139	-91.31
264.355	58.2
264.571	113.49
264.787	31.57
265.004	113.49
265.22	35.67
265.436	37.72
265.652	66.39
265.868	99.16
266.084	-76.97
266.3	31.57
266.516	-11.43
266.732	37.72
266.948	-38.06
267.164	-17.58
267.38	101.2
267.596	80.72
267.812	172.88
268.028	-1.19
268.244	15.19
268.46	13.14
268.676	15.19
268.892	9.05
269.108	-46.25
269.324	-1.19
269.54	-17.58
269.756	150.36
269.972	-42.15
270.188	29.52
270.403	41.81
270.619	27.48
270.835	109.4
271.051	23.38
271.267	60.24
271.483	17.24
271.698	111.44
271.914	88.92
272.13	56.15
272.346	0.85
272.562	0.85
272.777	70.48
272.993	-15.53
273.209	-25.77
273.425	72.53
273.64	-13.48
273.856	97.11
274.072	-29.87
274.287	2.9
274.503	64.34
274.719	60.24
274.934	11.09
275.15	-95.4
275.366	52.05
275.581	29.52
275.797	-68.78
276.012	60.24
276.228	25.43
276.444	68.44
276.659	228.18
276.875	43.86
277.09	58.2
277.306	0.85
277.521	127.83
277.737	115.54
277.952	107.35
278.168	47.96
278.383	47.96
278.599	45.91
278.814	76.63
279.03	9.05
279.245	99.16
279.461	101.2
279.676	129.88
279.892	-11.43
280.107	-21.67
280.322	-5.29
280.538	25.43
280.753	56.15
280.969	50
281.184	9.05
281.399	191.31
281.615	21.33
281.83	56.15
282.045	-79.02
282.26	37.72
282.476	47.96
282.691	93.01
282.906	105.3
283.122	-1.19
283.337	43.86
283.552	101.2
283.767	-52.39
283.983	117.59
284.198	31.57
284.413	125.78
284.628	-40.11
284.843	62.29
285.058	47.96
285.274	-3.24
285.489	27.48
285.704	121.68
285.919	-29.87
286.134	11.09
286.349	15.19
286.564	78.68
286.779	213.84
286.995	68.44
287.21	-113.83
287.425	101.2
287.64	45.91
287.855	74.58
288.07	-36.01
288.285	66.39
288.5	54.1
288.715	99.16
288.93	56.15
289.145	21.33
289.36	138.07
289.575	-21.67
289.79	97.11
290.004	-15.53
290.219	99.16
290.434	47.96
290.649	4.95
290.864	-17.58
291.079	19.29
291.294	99.16
291.509	131.92
291.724	33.62
291.938	-9.39
292.153	82.77
292.368	43.86
292.583	58.2
292.798	35.67
293.012	99.16
293.227	93.01
293.442	-21.67
293.657	97.11
293.871	111.44
294.086	80.72
294.301	168.79
294.516	142.16
294.73	21.33
294.945	-1.19
295.16	56.15
295.374	45.91
295.589	101.2
295.804	-17.58
296.018	50
296.233	127.83
296.447	56.15
296.662	31.57
296.877	107.35
297.091	160.59
297.306	39.76
297.52	2.9
297.735	84.82
297.949	105.3
298.164	-13.48
298.378	39.76
298.593	35.67
298.807	-13.48
299.022	21.33
299.236	88.92
299.451	47.96
299.665	-29.87
299.88	35.67
300.094	72.53
300.309	-33.96
300.523	88.92
300.737	-58.54
300.952	4.95
301.166	72.53
301.381	-5.29
301.595	-21.67
301.809	4.95
302.024	11.09
302.238	-3.24
302.452	205.65
302.667	23.38
302.881	123.73
303.095	142.16
303.309	129.88
303.524	-25.77
303.738	15.19
303.952	-7.34
304.166	50
304.381	-50.35
304.595	84.82
304.809	43.86
305.023	50
305.237	4.95
305.452	80.72
305.666	154.45
305.88	21.33
306.094	129.88
306.308	-36.01
306.522	54.1
306.736	70.48
306.95	136.02
307.164	68.44
307.379	17.24
307.593	142.16
307.807	140.12
308.021	78.68
308.235	125.78
308.449	-101.55
308.663	70.48
308.877	154.45
309.091	43.86
309.305	90.96
309.519	-91.31
309.733	189.27
309.947	-13.48
310.161	78.68
310.374	154.45
310.588	181.07
310.802	-38.06
311.016	-21.67
311.23	90.96
311.444	-70.83
311.658	19.29
311.872	172.88
312.085	84.82
312.299	117.59
312.513	160.59
312.727	60.24
312.941	-29.87
313.154	90.96
313.368	2.9
313.582	41.81
313.796	56.15
314.009	31.57
314.223	146.26
314.437	140.12
314.651	95.06
314.864	-58.54
315.078	19.29
315.292	27.48
315.505	43.86
315.719	0.85
315.933	54.1
316.146	11.09
316.36	17.24
316.573	72.53
316.787	78.68
317.001	78.68
317.214	13.14
317.428	37.72
317.641	-58.54
317.855	4.95
318.068	76.63
318.282	11.09
318.495	242.51
318.709	99.16
318.922	101.2
319.136	70.48
319.349	64.34
319.563	-44.2
319.776	-33.96
319.99	-68.78
320.203	41.81
320.417	50
320.63	105.3
320.843	179.03
321.057	47.96
321.27	45.91
321.483	95.06
321.697	189.27
321.91	0.85
322.124	39.76
322.337	66.39
322.55	-7.34
322.763	54.1
322.977	31.57
323.19	-15.53
323.403	-9.39
323.617	64.34
323.83	142.16
324.043	-9.39
324.256	62.29
324.469	-31.91
324.683	70.48
324.896	41.81
325.109	17.24
325.322	-33.96
325.535	90.96
325.748	64.34
325.962	47.96
326.175	45.91
326.388	15.19
326.601	125.78
326.814	15.19
327.027	125.78
327.24	168.79
327.453	-91.31
327.666	47.96
327.879	84.82
328.092	189.27
328.305	82.77
328.518	39.76
328.731	-19.63
328.944	60.24
329.157	35.67
329.37	58.2
329.583	172.88
329.796	111.44
330.009	-83.11
330.222	64.34
330.435	76.63
330.648	97.11
330.861	37.72
331.073	9.05
331.286	125.78
331.499	68.44
331.712	35.67
331.925	101.2
332.138	17.24
332.35	80.72
332.563	-64.68
332.776	68.44
332.989	-93.35
333.202	-1.19
333.414	78.68
333.627	27.48
333.84	-11.43
334.053	56.15
334.265	43.86
334.478	62.29
334.691	-68.78
334.903	-13.48
335.116	43.86
335.329	25.43
335.541	25.43
335.754	269.14
335.966	-7.34
336.179	25.43
336.392	27.48
336.604	-9.39
336.817	93.01
337.029	62.29
337.242	25.43
337.454	142.16
337.667	90.96
337.88	146.26
338.092	109.4
338.305	111.44
338.517	13.14
338.729	125.78
338.942	154.45
339.154	-74.92
339.367	-70.83
339.579	39.76
339.792	-87.21
340.004	131.92
340.217	56.15
340.429	62.29
340.641	-23.72
340.854	2.9
341.066	-3.24
341.278	111.44
341.491	107.35
341.703	45.91
341.915	-9.39
342.128	105.3
342.34	-11.43
342.552	-27.82
342.764	82.77
342.977	-5.29
343.189	-23.72
343.401	99.16
343.613	-25.77
343.826	68.44
344.038	60.24
344.25	11.09
344.462	-29.87
344.674	47.96
344.886	15.19
345.099	90.96
345.311	70.48
345.523	37.72
345.735	-79.02
345.947	33.62
346.159	54.1
346.371	101.2
346.583	56.15
346.795	281.43
347.007	84.82
347.219	66.39
347.431	15.19
347.643	156.5
347.855	2.9
348.067	199.51
348.279	-38.06
348.491	129.88
348.703	90.96
348.915	-9.39
349.127	23.38
349.339	56.15
349.551	-97.45
349.763	76.63
349.975	72.53
350.187	93.01
350.399	80.72
350.61	113.49
350.822	-5.29
351.034	39.76
351.246	74.58
351.458	35.67
351.669	74.58
351.881	31.57
352.093	138.07
352.305	84.82
352.517	113.49
352.728	93.01
352.94	19.29
353.152	68.44
353.363	-29.87
353.575	80.72
353.787	74.58
353.999	84.82
354.21	164.69
354.422	-13.48
354.633	99.16
354.845	-36.01
355.057	0.85
355.268	191.31
355.48	45.91
355.692	-17.58
355.903	56.15
356.115	-17.58
356.326	-3.24
356.538	113.49
356.749	156.5
356.961	189.27
357.172	17.24
357.384	19.29
357.595	162.64
357.807	7
358.018	7
358.23	52.05
358.441	158.55
358.653	52.05
358.864	50
359.075	-64.68
359.287	11.09
359.498	109.4
359.709	109.4
359.921	45.91
360.132	80.72
360.344	11.09
360.555	9.05
360.766	41.81
360.977	-1.19
361.189	95.06
361.4	9.05
361.611	152.4
361.823	115.54
362.034	58.2
362.245	-83.11
362.456	52.05
362.667	27.48
362.879	-9.39
363.09	39.76
363.301	93.01
363.512	82.77
363.723	-15.53
363.935	4.95
364.146	138.07
364.357	25.43
364.568	80.72
364.779	-138.41
364.99	111.44
365.201	-7.34
365.412	93.01
365.623	-103.59
365.834	66.39
366.045	33.62
366.256	72.53
366.467	66.39
366.678	93.01
366.889	9.05
367.1	50
367.311	105.3
367.522	35.67
367.733	88.92
367.944	52.05
368.155	93.01
368.366	39.76
368.577	168.79
368.788	121.68
368.999	-23.72
369.209	43.86
369.42	238.42
369.631	232.27
369.842	33.62
370.053	45.91
370.264	78.68
370.474	-19.63
370.685	64.34
370.896	56.15
371.107	136.02
371.317	152.4
371.528	-50.35
371.739	66.39
371.95	95.06
372.16	60.24
372.371	-105.64
372.582	47.96
372.792	52.05
373.003	56.15
373.214	23.38
373.424	131.92
373.635	4.95
373.846	78.68
374.056	25.43
374.267	50
374.477	0.85
374.688	-79.02
374.898	56.15
375.109	15.19
375.319	84.82
375.53	82.77
375.74	156.5
375.951	-60.59
376.161	119.64
376.372	88.92
376.582	-48.3
376.793	25.43
377.003	23.38
377.214	-1.19
377.424	140.12
377.635	-13.48
377.845	52.05
378.055	187.22
378.266	23.38
378.476	41.81
378.686	68.44
378.897	17.24
379.107	41.81
379.317	84.82
379.528	-11.43
379.738	62.29
379.948	-50.35
380.158	179.03
380.369	78.68
380.579	109.4
380.789	19.29
380.999	123.73
381.21	88.92
381.42	107.35
381.63	35.67
381.84	125.78
382.05	50
382.261	107.35
382.471	121.68
382.681	60.24
382.891	199.51
383.101	9.05
383.311	105.3
383.521	4.95
383.731	31.57
383.941	111.44
384.151	80.72
384.361	15.19
384.571	109.4
384.781	54.1
384.991	144.21
385.201	168.79
385.411	101.2
385.621	64.34
385.831	109.4
386.041	76.63
386.251	72.53
386.461	113.49
386.671	-40.11
386.881	58.2
387.091	50
387.301	172.88
387.511	-23.72
387.72	95.06
387.93	80.72
388.14	-1.19
388.35	52.05
388.56	0.85
388.769	133.97
388.979	11.09
389.189	17.24
389.399	27.48
389.609	99.16
389.818	117.59
390.028	47.96
390.238	99.16
390.447	25.43
390.657	99.16
390.867	11.09
391.076	-31.91
391.286	115.54
391.496	76.63
391.705	-17.58
391.915	138.07
392.125	23.38
392.334	11.09
392.544	189.27
392.753	17.24
392.963	-7.34
393.172	56.15
393.382	37.72
393.591	164.69
393.801	58.2
394.01	150.36
394.22	58.2
394.429	-9.39
394.639	54.1
394.848	9.05
395.058	47.96
395.267	74.58
395.477	111.44
395.686	119.64
395.895	236.37
396.105	246.61
396.314	17.24
396.524	86.87
396.733	-5.29
396.942	86.87
397.152	136.02
397.361	131.92
397.57	64.34
397.78	90.96
397.989	97.11
398.198	170.83
398.407	56.15
398.617	35.67
398.826	-38.06
399.035	64.34
399.244	123.73
399.453	-27.82
399.663	23.38
399.872	125.78
400.081	-21.67
400.29	95.06
400.499	-3.24
400.708	101.2
400.917	58.2
401.127	86.87
401.336	29.52
401.545	240.47
401.754	29.52
401.963	88.92
402.172	-5.29
402.381	-95.4
402.59	-15.53
402.799	-29.87
403.008	140.12
403.217	101.2
403.426	129.88
403.635	-31.91
403.844	17.24
404.053	47.96
404.262	-33.96
404.471	154.45
404.68	27.48
404.888	4.95
405.097	19.29
405.306	13.14
405.515	56.15
405.724	95.06
405.933	80.72
406.142	62.29
406.35	95.06
406.559	93.01
406.768	125.78
406.977	95.06
407.185	58.2
407.394	78.68
407.603	4.95
407.812	90.96
408.02	119.64
408.229	-62.63
408.438	133.97
408.646	4.95
408.855	11.09
409.064	-15.53
409.272	-33.96
409.481	43.86
409.69	-62.63
409.898	7
410.107	140.12
410.315	64.34
410.524	-13.48
410.733	70.48
410.941	58.2
411.15	109.4
411.358	68.44
411.567	172.88
411.775	123.73
411.984	19.29
412.192	80.72
412.401	50
412.609	158.55
412.818	172.88
413.026	45.91
413.234	84.82
413.443	50
413.651	27.48
413.86	-3.24
414.068	166.74
414.276	164.69
414.485	86.87
414.693	148.31
414.901	164.69
415.11	76.63
415.318	-5.29
415.526	9.05
415.734	105.3
415.943	17.24
416.151	162.64
416.359	37.72
416.567	-19.63
416.776	33.62
416.984	162.64
417.192	183.12
417.4	29.52
417.608	21.33
417.817	-64.68
418.025	88.92
418.233	166.74
418.441	2.9
418.649	2.9
418.857	60.24
419.065	244.56
419.273	-29.87
419.481	39.76
419.689	45.91
419.897	29.52
420.105	-1.19
420.313	101.2
420.521	244.56
420.729	148.31
420.937	35.67
421.145	0.85
421.353	168.79
421.561	154.45
421.769	95.06
421.977	52.05
422.185	179.03
422.393	109.4
422.601	111.44
422.809	138.07
423.017	45.91
423.224	76.63
423.432	152.4
423.64	37.72
423.848	99.16
424.056	84.82
424.263	140.12
424.471	-23.72
424.679	195.41
424.887	-60.59
425.094	152.4
425.302	150.36
425.51	90.96
425.718	136.02
425.925	88.92
426.133	35.67
426.341	189.27
426.548	72.53
426.756	-11.43
426.964	115.54
427.171	39.76
427.379	109.4
427.586	170.83
427.794	228.18
428.001	140.12
428.209	181.07
428.417	207.7
428.624	101.2
428.832	176.98
429.039	95.06
429.247	97.11
429.454	95.06
429.662	224.08
429.869	140.12
430.076	172.88
430.284	140.12
430.491	228.18
430.699	109.4
430.906	238.42
431.114	113.49
431.321	185.17
431.528	146.26
431.736	129.88
431.943	293.71
432.15	205.65
432.358	228.18
432.565	260.95
432.772	88.92
432.979	236.37
433.187	133.97
433.394	295.76
433.601	158.55
433.808	289.62
434.016	265.04
434.223	271.19
434.43	179.03
434.637	279.38
434.844	336.72
435.052	283.47
435.259	299.86
435.466	324.43
435.673	340.82
435.88	367.44
436.087	346.96
436.294	394.06
436.501	359.25
436.708	297.81
436.915	367.44
437.122	357.2
437.329	334.67
437.537	328.53
437.743	484.17
437.95	531.28
438.157	455.5
438.364	416.59
438.571	492.37
438.778	619.34
438.985	512.85
439.192	602.96
439.399	475.98
439.606	609.1
439.813	664.4
440.02	668.49
440.227	854.86
440.433	740.17
440.64	729.93
440.847	719.69
441.054	736.07
441.261	881.48
441.467	799.56
441.674	807.75
441.881	936.78
442.088	863.05
442.294	901.96
442.501	1004.36
442.708	1008.45
442.914	983.88
443.121	1129.28
443.328	1125.19
443.534	1133.38
443.741	1166.15
443.948	1063.75
444.154	1213.25
444.361	1493.82
444.568	1291.07
444.774	1291.07
444.981	1231.68
445.187	1473.34
445.394	1524.54
445.6	1473.34
445.807	1764.15
446.013	1676.09
446.22	1637.18
446.426	1878.84
446.633	1774.39
446.839	2022.2
447.046	1790.78
447.252	2128.69
447.459	2132.79
447.665	2198.32
447.871	2276.15
448.078	2462.51
448.284	2364.21
448.491	2478.9
448.697	2616.11
448.903	2853.67
449.11	2751.28
449.316	2765.61
449.522	3070.76
449.728	3074.85
449.935	3193.64
450.141	3336.99
450.347	3455.78
450.553	3328.8
450.76	3486.5
450.966	3719.96
451.172	3808.03
451.378	3998.49
451.584	4160.28
451.791	4229.91
451.997	4518.67
452.203	4670.22
452.409	4827.92
452.615	5073.67
452.821	4989.71
453.027	5120.78
453.233	5612.29
453.44	5298.95
453.646	5681.92
453.852	5989.11
454.058	6202.1
454.264	6398.71
454.47	6722.29
454.676	6884.08
454.882	7473.89
455.088	6968.04
455.294	7631.58
455.5	8037.08
455.705	8606.42
455.911	8487.64
456.117	8784.59
456.323	9161.42
456.529	9050.83
456.735	9843.39
456.941	10191.55
457.147	10515.12
457.352	10592.95
457.558	11055.79
457.764	11762.34
457.97	12360.34
458.176	12362.39
458.381	13222.54
458.587	13310.6
458.793	13951.62
458.999	14224
459.204	15993.44
459.41	16380.51
459.616	16120.42
459.821	17222.22
460.027	17865.28
460.233	18698.81
460.438	18620.99
460.644	19565.1
460.85	20191.78
461.055	20652.57
461.261	22061.57
461.466	21344.78
461.672	21711.37
461.878	24367.59
462.083	23812.59
462.289	24394.21
462.494	25762.25
462.7	25672.14
462.905	26079.69
463.111	28297.64
463.316	29690.26
463.522	30226.82
463.727	31271.29
463.932	32416.1
464.138	33102.17
464.343	34496.84
464.549	34636.1
464.754	37064.99
464.959	38201.61
465.165	38957.31
465.37	38373.64
465.575	38709.51
465.781	40947.94
465.986	42260.69
466.191	41707.74
466.397	42010.84
466.602	41058.53
466.807	43727.03
467.012	44060.85
467.218	45076.65
467.423	45252.77
467.628	46678.16
467.833	48590.96
468.038	47745.15
468.244	46708.88
468.449	49639.52
468.654	48570.48
468.859	48154.74
469.064	48674.93
469.269	47442.05
469.474	47319.17
469.679	49004.65
469.885	47882.36
470.09	48267.38
470.295	48541.81
470.5	47327.36
470.705	47548.54
470.91	46633.1
471.115	45928.6
471.32	46932.11
471.525	46508.18
471.73	45205.67
471.935	44746.92
472.139	43487.42
472.344	43460.8
472.549	43176.13
472.754	42053.84
472.959	41564.38
473.164	39971.06
473.369	39416.06
473.574	40413.42
473.778	39557.37
473.983	39379.2
474.188	38525.19
474.393	36548.9
474.598	36321.58
474.802	35828.02
475.007	35393.85
475.212	35195.2
475.417	33808.72
475.621	32878.94
475.826	33034.59
476.031	31854.96
476.235	31781.23
476.44	31363.45
476.645	30603.65
476.849	30671.23
477.054	30042.51
477.259	29110.68
477.463	29276.57
477.668	28133.8
477.872	28662.18
478.077	27787.69
478.282	26692.03
478.486	26567.1
478.691	26186.18
478.895	26069.45
479.1	26081.74
479.304	25962.95
479.509	24840.67
479.713	25258.45
479.918	24924.63
480.122	24048.1
480.326	24097.25
480.531	23949.8
480.735	23634.41
480.94	23626.22
481.144	24183.27
481.348	23128.56
481.553	23063.03
481.757	22626.81
481.961	22979.06
482.166	23028.21
482.37	22452.73
482.574	22170.12
482.778	22235.65
482.983	22258.18
483.187	22176.26
483.391	21654.03
483.595	21504.53
483.8	20953.62
484.004	20967.96
484.208	20922.9
484.412	20877.85
484.616	20654.62
484.821	20556.32
485.025	19708.46
485.229	20116
485.433	19503.66
485.637	19266.1
485.841	18948.66
486.045	18840.12
486.249	18893.37
486.453	18530.87
486.657	18399.8
486.861	17947.2
487.065	17001.04
487.269	17377.87
487.473	16800.34
487.677	16962.13
487.881	16716.37
488.085	16253.53
488.289	16376.41
488.493	15686.25
488.697	15575.66
488.901	15319.66
489.105	14948.98
489.309	14799.48
489.512	14631.54
489.716	14187.13
489.92	13933.18
490.124	13675.14
490.328	13568.65
490.531	12890.77
490.735	12911.25
490.939	12747.41
491.143	12681.88
491.346	12300.95
491.55	12257.95
491.754	11877.02
491.958	11952.8
492.161	11557.54
492.365	11498.15
492.569	11162.28
492.772	10990.25
492.976	10980.01
493.18	10861.23
493.383	10697.39
493.587	10529.46
493.79	10609.33
493.994	10087.1
494.197	10128.06
494.401	10101.44
494.605	9960.13
494.808	9925.31
495.012	9808.58
495.215	9814.72
495.419	9886.4
495.622	9362.12
495.825	9571.01
496.029	9278.15
496.232	9579.2
496.436	9333.45
496.639	9618.11
496.843	9403.08
497.046	9335.49
497.249	9376.45
497.453	9337.54
497.656	9118.41
497.859	9302.73
498.063	9296.58
498.266	9544.39
498.469	9321.16
498.673	9368.26
498.876	9546.44
499.079	9349.83
499.282	9398.98
499.485	9732.8
499.689	9347.78
499.892	9677.51
500.095	9710.27
500.298	9839.3
500.501	9730.75
500.705	9945.79
500.908	9974.46
501.111	10074.81
501.314	10269.37
501.517	10193.59
501.72	10367.67
501.923	10425.01
502.126	10670.77
502.329	10631.86
502.532	10789.55
502.735	10779.31
502.938	11076.27
503.141	11174.57
503.344	11405.99
503.547	11270.83
503.75	11430.57
503.953	11653.8
504.156	11942.56
504.359	11909.79
504.562	12042.91
504.765	12137.12
504.968	12259.99
505.17	12393.11
505.373	12642.96
505.576	13097.61
505.779	13238.92
505.982	13333.13
506.185	13582.98
506.387	13941.38
506.59	13992.58
506.793	14553.72
506.996	14369.4
507.198	14953.07
507.401	14932.59
507.604	15348.33
507.807	15626.85
508.009	15841.89
508.212	16095.84
508.415	16587.35
508.617	16773.72
508.82	17234.51
509.022	17095.25
509.225	17832.52
509.428	18324.03
509.63	18500.16
509.833	18778.68
510.035	19610.15
510.238	19647.02
510.44	20105.76
510.643	20709.91
510.845	21041.68
511.048	21369.36
511.25	21912.07
511.453	22163.97
511.655	23292.4
511.858	23501.29
512.06	24037.86
512.262	24424.93
512.465	24416.74
512.667	25649.61
512.87	25946.57
513.072	26515.9
513.274	27355.57
513.477	27896.24
513.679	28391.84
513.881	28991.9
514.084	29745.55
514.286	29933.96
514.488	30753.15
514.69	31824.24
514.893	31719.79
515.095	32256.36
515.297	33321.3
515.499	34210.12
515.701	34715.97
515.904	35666.23
516.106	36634.92
516.308	36806.95
516.51	37888.28
516.712	38430.99
516.914	39016.71
517.116	40095.99
517.318	40212.72
517.52	41148.64
517.722	41566.43
517.925	42352.85
518.127	43610.3
518.329	43778.23
518.531	44505.26
518.733	45160.61
518.935	46254.23
519.136	46422.16
519.338	47190.15
519.54	48130.17
519.742	48984.17
519.944	49420.39
520.146	50421.84
520.348	51112.01
520.55	51689.54
520.752	52240.44
520.954	53030.96
521.155	52643.89
521.357	54073.37
521.559	54411.29
521.761	55339.02
521.963	55648.26
522.164	55891.97
522.366	56057.85
522.568	56852.47
522.77	57067.5
522.971	58085.34
523.173	57516.01
523.375	58286.04
523.576	58470.36
523.778	58339.29
523.98	58986.45
524.181	59359.18
524.383	59473.87
524.584	60037.06
524.786	59832.26
524.988	59363.28
525.189	60080.06
525.391	60305.34
525.592	60293.05
525.794	60219.33
525.995	60338.11
526.197	59774.92
526.398	59903.94
526.6	59867.08
526.801	59750.34
527.003	59856.84
527.204	59146.19
527.406	59658.18
527.607	59154.38
527.808	59488.2
528.01	58206.17
528.211	58533.85
528.412	58767.32
528.614	58492.89
528.815	57499.62
529.016	57300.97
529.218	56489.98
529.419	56500.22
529.62	55803.91
529.822	55271.43
530.023	54595.6
530.224	54388.76
530.425	53542.95
530.626	52809.78
530.828	52289.59
531.029	53094.44
531.23	51294.28
531.431	51144.78
531.632	50688.08
531.833	50411.6
532.035	49832.03
532.236	49057.9
532.437	48996.46
532.638	47943.8
532.839	47818.88
533.04	47437.95
533.241	45797.53
533.442	46432.4
533.643	45080.74
533.844	44607.66
534.045	43876.54
534.246	43311.3
534.447	43223.23
534.648	42545.36
534.849	41357.53
535.05	40970.47
535.251	40753.38
535.451	39960.82
535.652	39565.56
535.853	38799.62
536.054	38654.22
536.255	37730.58
536.456	37622.04
536.657	37548.31
536.857	36714.79
537.058	35873.07
537.259	35717.43
537.46	35336.51
537.66	34369.86
537.861	34222.41
538.062	33775.95
538.263	33171.8
538.463	33141.08
538.664	32495.97
538.865	32346.47
539.065	31674.74
539.266	31084.92
539.466	31125.88
539.667	30351.75
539.868	30685.57
540.068	29946.25
540.269	29366.68
540.469	29313.43
540.67	28719.52
540.87	28465.57
541.071	28262.82
541.271	28019.11
541.472	27568.56
541.672	27156.92
541.873	26927.55
542.073	26548.67
542.274	26489.28
542.474	26436.03
542.675	25543.12
542.875	25678.29
543.075	25436.63
543.276	24654.3
543.476	24900.06
543.676	24142.31
543.877	24093.16
544.077	24048.1
544.277	23710.19
544.478	23331.31
544.678	23106.04
544.878	22653.44
545.078	22671.87
545.279	21846.54
545.479	21971.46
545.679	21950.98
545.879	21312.02
546.079	21228.05
546.28	20978.2
546.48	20668.95
546.68	20802.07
546.88	20333.09
547.08	20140.58
547.28	19915.3
547.48	19520.04
547.68	19524.14
547.88	19114.55
548.081	18797.11
548.281	18416.19
548.481	18170.43
548.681	18332.22
548.881	18049.6
549.081	17721.93
549.28	17404.49
549.48	17453.64
549.68	17189.46
549.88	17132.11
550.08	16429.66
550.28	16276.06
550.48	16306.78
550.68	16001.63
550.88	15606.38
551.08	15614.57
551.279	15284.84
551.479	15018.61
551.679	15270.51
551.879	14547.58
552.079	14506.62
552.278	14338.68
552.478	13898.37
552.678	13800.07
552.878	13468.3
553.077	13695.62
553.277	12868.24
553.477	13060.75
553.676	12665.49
553.876	12788.37
554.076	12374.68
554.275	12143.26
554.475	11842.21
554.674	11874.98
554.874	11424.42
555.074	11309.74
555.273	11422.38
555.473	11100.84
555.672	10937.01
555.872	10658.48
556.071	10668.72
556.271	10357.43
556.47	10302.14
556.67	9976.51
556.869	9919.17
557.068	9755.33
557.268	9630.4
557.467	9315.02
557.667	9429.7
557.866	9214.66
558.065	9073.35
558.265	8790.74
558.464	8624.85
558.663	8704.72
558.863	8377.05
559.062	8428.24
559.261	8131.29
559.461	8131.29
559.66	7912.16
559.859	7742.18
560.058	7635.68
560.258	7643.87
560.457	7500.51
560.656	7596.77
560.855	7109.35
561.054	7291.62
561.253	7058.15
561.453	6980.33
561.652	6793.97
561.851	6777.58
562.05	6392.56
562.249	6394.61
562.448	6449.91
562.647	6241.01
562.846	6148.86
563.045	6175.48
563.244	5962.49
563.443	5991.16
563.642	5722.88
563.841	5751.55
564.04	5673.73
564.239	5575.42
564.438	5344
564.637	5362.44
564.836	5430.02
565.035	5192.45
565.234	5210.89
565.432	5147.4
565.631	5118.73
565.83	5139.21
566.029	4956.94
566.228	4903.69
566.427	4789
566.625	4723.47
566.824	4639.5
567.023	4604.69
567.222	4395.79
567.42	4320.02
567.619	4207.38
567.818	4205.33
568.016	4332.31
568.215	4184.85
568.414	4178.71
568.612	4064.02
568.811	3975.96
569.01	3943.19
569.208	3941.15
569.407	3861.27
569.605	3824.41
569.804	3742.49
570.002	3810.08
570.201	3709.72
570.4	3621.66
570.598	3531.55
570.797	3431.2
570.995	3496.74
571.193	3384.1
571.392	3326.75
571.59	3189.54
571.789	3212.07
571.987	3369.76
572.186	3175.2
572.384	3076.9
572.582	3025.7
572.781	3111.72
572.979	2874.15
573.177	3097.38
573.376	2972.46
573.574	2759.47
573.772	2712.36
573.971	2693.93
574.169	2599.73
574.367	2577.2
574.565	2566.96
574.763	2585.39
574.962	2489.14
575.16	2390.83
575.358	2356.02
575.556	2392.88
575.754	2380.59
575.952	2366.26
576.151	2421.55
576.349	2360.11
576.547	2159.41
576.745	2298.67
576.943	2134.84
577.141	2085.69
577.339	2124.6
577.537	2126.64
577.735	1966.9
577.933	2067.25
578.131	1891.13
578.329	2124.6
578.527	1858.36
578.725	1999.67
578.923	1749.82
579.121	1772.35
579.319	1696.57
579.516	1776.44
579.714	1981.24
579.912	1774.39
580.11	1643.32
580.308	1682.24
580.506	1528.64
580.704	1456.96
580.901	1545.02
581.099	1745.72
581.297	1483.58
581.495	1614.65
581.692	1553.21
581.89	1571.65
582.088	1524.54
582.285	1456.96
582.483	1413.95
582.681	1448.77
582.878	1379.14
583.076	1407.81
583.274	1272.64
583.471	1471.29
583.669	1385.28
583.866	1157.96
584.064	1356.61
584.262	1235.78
584.459	1112.9
584.657	1252.16
584.854	1307.46
585.052	1223.49
585.249	1237.83
585.447	1203.01
585.644	1014.6
585.841	1256.26
586.039	1186.63
586.236	1194.82
586.434	1076.04
586.631	1049.41
586.828	981.83
587.026	1131.33
587.223	930.63
587.42	998.21
587.618	1006.41
587.815	936.78
588.012	973.64
588.21	918.34
588.407	1082.18
588.604	1069.89
588.801	879.43
588.999	918.34
589.196	936.78
589.393	926.54
589.59	932.68
589.787	1039.17
589.984	926.54
590.182	990.02
590.379	881.48
590.576	869.19
590.773	838.47
590.97	871.24
591.167	805.71
591.364	785.23
591.561	879.43
591.758	842.57
591.955	858.95
592.152	865.1
592.349	746.31
592.546	772.94
592.743	719.69
592.94	820.04
593.137	869.19
593.334	883.53
593.531	865.1
593.727	838.47
593.924	891.72
594.121	846.66
594.318	922.44
594.515	873.29
594.712	912.2
594.908	1010.5
595.105	781.13
595.302	858.95
595.499	926.54
595.696	936.78
595.892	838.47
596.089	1102.66
596.286	824.14
596.482	1098.56
596.679	985.93
596.876	940.87
597.072	1114.95
597.269	1133.38
597.466	1114.95
597.662	1106.76
597.859	1143.62
598.055	1213.25
598.252	1219.39
598.448	1289.03
598.645	1416
598.841	1364.8
599.038	1555.26
599.234	1557.31
599.431	1540.93
599.627	1491.77
599.824	1682.24
600.02	1616.7
600.217	1678.14
600.413	1844.03
600.609	1825.59
600.806	2128.69
601.002	1981.24
601.198	2020.15
601.395	2196.28
601.591	2290.48
601.787	2421.55
601.984	2407.22
602.18	2472.75
602.376	2620.21
602.572	2738.99
602.769	2888.49
602.965	2843.43
603.161	3072.81
603.357	3029.8
603.553	3189.54
603.75	3369.76
603.946	3529.5
604.142	3496.74
604.338	3744.54
604.534	3810.08
604.73	3875.61
604.926	4012.82
605.122	4346.64
605.318	4336.4
605.514	4569.87
605.71	4582.16
605.906	4723.47
606.102	4664.08
606.298	5016.33
606.494	5214.98
606.69	5468.93
606.886	5411.59
607.082	5526.27
607.278	5804.8
607.474	6015.74
607.67	6253.3
607.866	6109.94
608.062	6630.13
608.257	6773.49
608.453	6652.66
608.649	7133.93
608.845	7197.42
609.041	7348.97
609.236	7609.06
609.432	7744.22
609.628	8243.93
609.824	8055.51
610.019	8389.33
610.215	8831.69
610.411	8909.52
610.606	9216.71
610.802	9349.83
610.998	9722.56
611.193	10031.8
611.389	9939.65
611.584	10420.92
611.78	10592.95
611.976	10807.98
612.171	11346.6
612.367	11682.47
612.562	11915.94
612.758	11932.32
612.953	12380.82
613.149	12804.75
613.344	13056.65
613.539	13664.9
613.735	13603.46
613.93	14191.23
614.126	14353.02
614.321	14811.76
614.517	15327.85
614.712	15565.42
614.907	16163.42
615.103	16699.99
615.298	16894.55
615.493	17330.76
615.688	17330.76
615.884	18549.31
616.079	18627.13
616.274	19388.97
616.47	19542.57
616.665	20251.17
616.86	20492.83
617.055	21090.84
617.25	21791.24
617.445	22432.26
617.641	22860.28
617.836	23405.04
618.031	23468.53
618.226	24572.38
618.421	25072.09
618.616	25745.87
618.811	26048.97
619.006	27027.9
619.201	26943.93
619.396	28236.2
619.591	27976.11
619.786	29200.79
619.981	29606.29
620.176	30783.87
620.371	30777.73
620.566	32039.28
620.761	32086.38
620.956	33169.76
621.151	33702.23
621.346	34439.5
621.541	34373.96
621.735	35916.08
621.93	36124.97
622.125	36778.28
622.32	37087.52
622.515	38117.65
622.709	38787.33
622.904	39829.75
623.099	40214.77
623.294	40988.9
623.488	41335.01
623.683	42623.18
623.878	42184.91
624.072	43542.72
624.267	44224.69
624.462	44966.06
624.656	45392.03
624.851	46504.08
625.046	47284.36
625.24	47423.62
625.435	48005.24
625.629	48527.47
625.824	49287.27
626.018	49963.1
626.213	49752.16
626.407	50823.25
626.602	50896.97
626.796	52365.37
626.991	52584.5
627.185	52916.27
627.38	53475.37
627.574	53362.73
627.768	53667.87
627.963	53874.72
628.157	54063.13
628.352	54573.08
628.546	54149.15
628.74	54831.12
628.935	54431.77
629.129	54976.53
629.323	53870.62
629.517	53954.59
629.712	53661.73
629.906	53125.16
630.1	52723.76
630.294	52690.99
630.489	51738.69
630.683	51718.21
630.877	50059.35
631.071	49866.84
631.265	48967.79
631.459	47995
631.653	46811.28
631.848	46221.46
632.042	45154.47
632.236	44818.6
632.43	42643.66
632.624	42252.5
632.818	40689.9
633.012	39377.15
633.206	38564.1
633.4	37474.59
633.594	35170.62
633.788	35039.55
633.982	33483.09
634.176	32590.18
634.369	30839.17
634.563	30140.81
634.757	28828.06
634.951	28164.52
635.145	26685.89
635.339	26067.4
635.533	24936.92
635.726	24103.4
635.92	22778.36
636.114	21821.96
636.308	21232.15
636.501	20183.59
636.695	19673.64
636.889	18860.6
637.083	18014.79
637.276	17078.86
637.47	16366.17
637.664	15571.56
637.857	15274.6
638.051	14717.56
638.244	14086.78
638.438	13173.39
638.632	13019.79
638.825	12397.21
639.019	11969.18
639.212	11422.38
639.406	10969.77
639.599	10840.75
639.793	10216.12
639.986	9845.44
640.18	9597.63
640.373	9083.59
640.567	8733.39
640.76	8434.39
640.954	8057.56
641.147	7764.7
641.34	7404.26
641.534	7138.02
641.727	6925.04
641.92	6617.84
642.114	6447.86
642.307	6177.53
642.5	6089.46
642.694	5630.72
642.887	5507.84
643.08	5292.8
643.273	5171.97
643.467	4915.98
643.66	4694.8
643.853	4578.06
644.046	4418.32
644.239	4240.15
644.432	4041.5
644.626	3668.77
644.819	3738.4
645.012	3666.72
645.205	3586.85
645.398	3386.15
645.591	3177.25
645.784	3072.81
645.977	2886.44
646.17	2915.11
646.363	2683.69
646.556	2595.63
646.749	2444.08
646.942	2415.41
647.135	2308.91
647.328	2222.9
647.521	2202.42
647.714	2046.77
647.907	2007.86
648.099	1979.19
648.292	1942.33
648.485	1985.34
648.678	1647.42
648.871	1688.38
649.064	1712.96
649.256	1413.95
649.449	1524.54
649.642	1280.83
649.835	1440.58
650.027	1231.68
650.22	1334.08
650.413	1227.59
650.605	1303.36
650.798	1100.61
650.991	1084.23
651.183	1088.32
651.376	1102.66
651.568	1041.22
651.761	934.73
651.954	979.78
652.146	861
652.339	899.91
652.531	963.4
652.724	736.07
652.916	768.84
653.109	729.93
653.301	795.47
653.494	817.99
653.686	709.45
653.879	865.1
654.071	727.88
654.263	746.31
654.456	635.72
654.648	666.44
654.84	639.82
655.033	592.72
655.225	723.79
655.417	471.89
655.61	668.49
655.802	494.41
655.994	648.01
656.186	424.78
656.379	461.65
656.571	461.65
656.763	465.74
656.955	469.84
657.148	422.73
657.34	572.24
657.532	445.26
657.724	396.11
657.916	445.26
658.108	428.88
658.3	426.83
658.492	328.53
658.684	246.61
658.876	443.21
659.068	287.57
659.26	232.27
659.452	242.51
659.644	324.43
659.836	473.93
660.028	359.25
660.22	265.04
660.412	314.19
660.604	373.58
660.796	277.33
660.988	404.3
661.18	306
661.372	357.2
661.563	242.51
661.755	232.27
661.947	199.51
662.139	207.7
662.331	224.08
662.522	283.47
662.714	230.23
662.906	240.47
663.097	244.56
663.289	236.37
663.481	113.49
663.673	267.09
663.864	191.31
664.056	320.34
664.247	127.83
664.439	238.42
664.631	262.99
664.822	222.03
665.014	211.79
665.205	123.73
665.397	150.36
665.588	185.17
665.78	129.88
665.971	232.27
666.163	136.02
666.354	228.18
666.546	164.69
666.737	80.72
666.929	179.03
667.12	197.46
667.311	185.17
667.503	125.78
667.694	232.27
667.885	236.37
668.077	181.07
668.268	133.97
668.459	201.55
668.651	150.36
668.842	146.26
669.033	123.73
669.224	111.44
669.416	326.48
669.607	88.92
669.798	111.44
669.989	291.66
670.18	138.07
670.371	127.83
670.563	95.06
670.754	213.84
670.945	236.37
671.136	172.88
671.327	45.91
671.518	181.07
671.709	238.42
671.9	146.26
672.091	312.14
672.282	219.99
672.473	224.08
672.664	105.3
672.855	174.93
673.046	109.4
673.237	215.89
673.428	199.51
673.619	219.99
673.809	199.51
674	193.36
674.191	293.71
674.382	205.65
674.573	244.56
674.764	207.7
674.954	162.64
675.145	90.96
675.336	97.11
675.527	113.49
675.717	109.4
675.908	146.26
676.099	146.26
676.289	129.88
676.48	45.91
676.671	181.07
676.861	162.64
677.052	146.26
677.243	136.02
677.433	174.93
677.624	179.03
677.814	115.54
678.005	176.98
678.195	226.13
678.386	72.53
678.576	123.73
678.767	80.72
678.957	164.69
679.148	267.09
679.338	318.29
679.529	207.7
679.719	133.97
679.909	211.79
680.1	260.95
680.29	191.31
680.481	86.87
680.671	244.56
680.861	201.55
681.052	117.59
681.242	90.96
681.432	217.94
681.622	314.19
681.813	56.15
682.003	205.65
682.193	90.96
682.383	174.93
682.573	193.36
682.764	166.74
682.954	269.14
683.144	265.04
683.334	176.98
683.524	193.36
683.714	322.38
683.904	355.15
684.094	209.75
684.284	250.71
684.474	340.82
684.664	238.42
684.854	267.09
685.044	254.8
685.234	154.45
685.424	226.13
685.614	269.14
685.804	439.12
685.994	244.56
686.184	207.7
686.374	232.27
686.564	207.7
686.753	232.27
686.943	109.4
687.133	174.93
687.323	187.22
687.513	262.99
687.702	142.16
687.892	226.13
688.082	267.09
688.272	207.7
688.461	209.75
688.651	324.43
688.841	236.37
689.03	209.75
689.22	279.38
689.41	287.57
689.599	265.04
689.789	174.93
689.979	316.24
690.168	156.5
690.358	306
690.547	256.85
690.737	236.37
690.926	195.41
691.116	224.08
691.305	275.28
691.495	340.82
691.684	101.2
691.874	191.31
692.063	183.12
692.252	265.04
692.442	252.75
692.631	181.07
692.82	179.03
693.01	250.71
693.199	176.98
693.388	219.99
693.578	236.37
693.767	281.43
693.956	238.42
694.146	168.79
694.335	197.46
694.524	142.16
694.713	291.66
694.902	191.31
695.092	174.93
695.281	164.69
695.47	174.93
695.659	191.31
695.848	213.84
696.037	213.84
696.226	191.31
696.415	144.21
696.604	240.47
696.793	236.37
696.982	215.89
697.171	338.77
697.36	105.3
697.549	162.64
697.738	95.06
697.927	215.89
698.116	174.93
698.305	222.03
698.494	142.16
698.683	207.7
698.872	324.43
699.061	174.93
699.25	232.27
699.438	121.68
699.627	144.21
699.816	256.85
700.005	215.89
700.193	150.36
700.382	234.32
700.571	226.13
700.76	193.36
700.948	209.75
701.137	271.19
701.326	207.7
701.514	54.1
701.703	242.51
701.892	219.99
702.08	299.86
702.269	195.41
702.457	238.42
702.646	201.55
702.834	195.41
703.023	250.71
703.212	232.27
703.4	222.03
703.589	160.59
703.777	162.64
703.965	148.31
704.154	154.45
704.342	158.55
704.531	150.36
704.719	205.65
704.907	265.04
705.096	113.49
705.284	66.39
705.472	189.27
705.661	275.28
705.849	265.04
706.037	244.56
706.226	258.9
706.414	207.7
706.602	162.64
706.79	287.57
706.979	238.42
707.167	252.75
707.355	13.14
707.543	238.42
707.731	222.03
707.919	152.4
708.107	181.07
708.296	127.83
708.484	115.54
708.672	174.93
708.86	183.12
709.048	244.56
709.236	109.4
709.424	228.18
709.612	140.12
709.8	101.2
709.988	154.45
710.176	279.38
710.364	289.62
710.551	236.37
710.739	154.45
710.927	197.46
711.115	232.27
711.303	226.13
711.491	248.66
711.679	170.83
711.866	293.71
712.054	238.42
712.242	269.14
712.43	219.99
712.617	136.02
712.805	172.88
712.993	193.36
713.181	99.16
713.368	207.7
713.556	166.74
713.744	195.41
713.931	314.19
714.119	285.52
714.306	211.79
714.494	187.22
714.682	222.03
714.869	86.87
715.057	168.79
715.244	74.58
715.432	207.7
715.619	138.07
715.807	156.5
715.994	244.56
716.182	244.56
716.369	363.34
716.556	256.85
716.744	119.64
716.931	170.83
717.119	318.29
717.306	125.78
717.493	342.86
717.681	115.54
717.868	170.83
718.055	289.62
718.242	213.84
718.43	215.89
718.617	219.99
718.804	213.84
718.991	254.8
719.179	283.47
719.366	246.61
719.553	199.51
719.74	207.7
719.927	285.52
720.114	224.08
720.301	181.07
720.488	101.2
720.676	174.93
720.863	351.06
721.05	334.67
721.237	287.57
721.424	265.04
721.611	287.57
721.798	136.02
721.985	111.44
722.172	213.84
722.358	127.83
722.545	291.66
722.732	234.32
722.919	287.57
723.106	351.06
723.293	183.12
723.48	246.61
723.667	136.02
723.853	303.95
724.04	215.89
724.227	312.14
724.414	172.88
724.6	226.13
724.787	377.68
724.974	465.74
725.161	252.75
725.347	142.16
725.534	193.36
725.72	299.86
725.907	281.43
726.094	248.66
726.28	211.79
726.467	168.79
726.653	176.98
726.84	275.28
727.027	310.1
727.213	275.28
727.4	279.38
727.586	262.99
727.773	324.43
727.959	179.03
728.145	281.43
728.332	297.81
728.518	162.64
728.705	236.37
728.891	359.25
729.077	242.51
729.264	133.97
729.45	285.52
729.636	353.1
729.823	312.14
730.009	273.23
730.195	301.9
730.382	279.38
730.568	242.51
730.754	248.66
730.94	256.85
731.126	185.17
731.313	310.1
731.499	252.75
731.685	375.63
731.871	297.81
732.057	279.38
732.243	287.57
732.429	373.58
732.615	422.73
732.801	308.05
732.987	228.18
733.173	326.48
733.359	222.03
733.545	226.13
733.731	234.32
733.917	371.54
734.103	320.34
734.289	279.38
734.475	115.54
734.661	457.55
734.847	265.04
735.033	285.52
735.219	289.62
735.404	355.15
735.59	258.9
735.776	260.95
735.962	308.05
736.148	314.19
736.333	349.01
736.519	252.75
736.705	287.57
736.89	262.99
737.076	271.19
737.262	248.66
737.447	201.55
737.633	226.13
737.819	375.63
738.004	226.13
738.19	240.47
738.375	273.23
738.561	306
738.747	199.51
738.932	267.09
739.118	367.44
739.303	332.62
739.489	359.25
739.674	244.56
739.859	164.69
740.045	299.86
740.23	320.34
740.416	123.73
740.601	275.28
740.786	310.1
740.972	238.42
741.157	240.47
741.342	170.83
741.528	176.98
741.713	369.49
741.898	232.27
742.084	236.37
742.269	279.38
742.454	297.81
742.639	402.26
742.824	232.27
743.01	340.82
743.195	404.3
743.38	287.57
743.565	256.85
743.75	256.85
743.935	318.29
744.12	328.53
744.305	246.61
744.49	199.51
744.675	248.66
744.86	271.19
745.045	275.28
745.23	230.23
745.415	222.03
745.6	359.25
745.785	228.18
745.97	275.28
746.155	287.57
746.34	310.1
746.525	205.65
746.71	387.92
746.895	222.03
747.079	201.55
747.264	293.71
747.449	230.23
747.634	273.23
747.819	287.57
748.003	254.8
748.188	170.83
748.373	306
748.557	228.18
748.742	244.56
748.927	301.9
749.111	219.99
749.296	287.57
749.481	267.09
749.665	250.71
749.85	160.59
750.034	293.71
750.219	183.12
750.404	236.37
750.588	310.1
750.773	238.42
750.957	217.94
751.141	297.81
751.326	273.23
751.51	152.4
751.695	170.83
751.879	197.46
752.064	301.9
752.248	244.56
752.432	312.14
752.617	289.62
752.801	283.47
752.985	187.22
753.17	283.47
753.354	179.03
753.538	207.7
753.722	140.12
753.907	168.79
754.091	211.79
754.275	258.9
754.459	90.96
754.643	197.46
754.828	222.03
755.012	217.94
755.196	97.11
755.38	197.46
755.564	131.92
755.748	133.97
755.932	203.6
756.116	258.9
756.3	226.13
756.484	68.44
756.668	273.23
756.852	123.73
757.036	111.44
757.22	174.93
757.404	123.73
757.588	111.44
757.772	80.72
757.956	160.59
758.14	289.62
758.323	123.73
758.507	269.14
758.691	140.12
758.875	224.08
759.059	265.04
759.242	203.6
759.426	123.73
759.61	99.16
759.794	41.81
759.977	136.02
760.161	385.87
760.345	232.27
760.528	338.77
760.712	136.02
760.895	138.07
761.079	78.68
761.263	39.76
761.446	183.12
761.63	133.97
761.813	138.07
761.997	88.92
762.18	95.06
762.364	199.51
762.547	29.52
762.731	88.92
762.914	121.68
763.098	109.4
763.281	113.49
763.464	82.77
763.648	113.49
763.831	113.49
764.015	172.88
764.198	176.98
764.381	97.11
764.564	47.96
764.748	203.6
764.931	119.64
765.114	111.44
765.297	213.84
765.481	7
765.664	95.06
765.847	35.67
766.03	222.03
766.213	45.91
766.397	107.35
766.58	-38.06
766.763	170.83
766.946	129.88
767.129	58.2
767.312	35.67
767.495	117.59
767.678	64.34
767.861	131.92
768.044	125.78
768.227	2.9
768.41	-1.19
768.593	162.64
768.776	140.12
768.959	74.58
769.142	156.5
769.324	68.44
769.507	158.55
769.69	45.91
769.873	142.16
770.056	293.71
770.239	158.55
770.421	195.41
770.604	119.64
770.787	148.31
770.97	111.44
771.152	52.05
771.335	172.88
771.518	17.24
771.7	158.55
771.883	176.98
772.066	29.52
772.248	156.5
772.431	170.83
772.613	97.11
772.796	66.39
772.978	82.77
773.161	181.07
773.343	101.2
773.526	33.62
773.708	-7.34
773.891	-33.96
774.073	50
774.256	54.1
774.438	148.31
774.621	7
774.803	146.26
774.985	68.44
775.168	60.24
775.35	37.72
775.532	140.12
775.715	54.1
775.897	109.4
776.079	-31.91
776.261	-5.29
776.444	105.3
776.626	52.05
776.808	-52.39
776.99	-66.73
777.173	86.87
777.355	58.2
777.537	72.53
777.719	88.92
777.901	119.64
778.083	-23.72
778.265	-33.96
778.447	105.3
778.629	90.96
778.811	64.34
778.993	115.54
779.175	158.55
779.357	66.39
779.539	-17.58
779.721	84.82
779.903	125.78
780.085	43.86
780.267	35.67
780.449	142.16
780.631	125.78
780.812	254.8
780.994	78.68
781.176	74.58
781.358	-13.48
781.54	70.48
781.721	107.35
781.903	74.58
782.085	4.95
782.267	103.25
782.448	-15.53
782.63	-9.39
782.812	56.15
782.993	107.35
783.175	17.24
783.357	19.29
783.538	31.57
783.72	-17.58
783.901	133.97
784.083	117.59
784.264	82.77
784.446	-52.39
784.627	-33.96
784.809	111.44
784.99	-60.59
785.172	27.48
785.353	54.1
785.535	84.82
785.716	-13.48
785.897	-72.87
786.079	62.29
786.26	60.24
786.441	33.62
786.623	-31.91
786.804	-3.24
786.985	-19.63
787.167	152.4
787.348	66.39
787.529	86.87
787.71	183.12
787.891	129.88
788.073	93.01
788.254	7
788.435	240.47
788.616	-38.06
788.797	-1.19
788.978	-74.92
789.159	29.52
789.34	72.53
789.522	68.44
789.703	-19.63
789.884	11.09
790.065	70.48
790.246	115.54
790.427	15.19
790.607	111.44
790.788	35.67
790.969	7
791.15	45.91
791.331	-3.24
791.512	-5.29
791.693	7
791.874	25.43
792.054	199.51
792.235	142.16
792.416	7
792.597	-3.24
792.778	76.63
792.958	88.92
793.139	99.16
793.32	68.44
793.5	-31.91
793.681	111.44
793.862	62.29
794.042	35.67
794.223	-81.07
794.404	-42.15
794.584	-46.25
794.765	-44.2
794.945	-27.82
795.126	60.24
795.306	4.95
795.487	-5.29
795.667	50
795.848	68.44
796.028	35.67
796.209	-1.19
796.389	76.63
796.57	-19.63
796.75	-1.19
796.93	93.01
797.111	-76.97
797.291	-44.2
797.471	52.05
797.652	-38.06
797.832	-58.54
798.012	107.35
798.192	7
798.373	-23.72
798.553	-7.34
798.733	86.87
798.913	-44.2
799.093	101.2
799.274	58.2
799.454	88.92
799.634	84.82
799.814	47.96
799.994	86.87
800.174	-13.48
800.354	-19.63
800.534	-52.39
800.714	78.68
800.894	-40.11
801.074	-89.26
801.254	-1.19
801.434	90.96
801.614	-48.3
801.794	-50.35
801.974	1770.3
802.154	13.14
802.334	52.05
802.514	-48.3
802.693	39.76
802.873	-13.48
803.053	109.4
803.233	-1.19
803.413	-29.87
803.592	70.48
803.772	0.85
803.952	11.09
804.131	-134.31
804.311	127.83
804.491	121.68
804.67	-54.44
804.85	35.67
805.03	33.62
805.209	52.05
805.389	-3.24
805.568	35.67
805.748	-9.39
805.928	-5.29
806.107	93.01
806.287	37.72
806.466	95.06
806.646	-1.19
806.825	33.62
807.004	43.86
807.184	60.24
807.363	105.3
807.543	74.58
807.722	0.85
807.901	90.96
808.081	58.2
808.26	-117.93
808.439	17.24
808.619	13.14
808.798	-27.82
808.977	31.57
809.156	86.87
809.336	39.76
809.515	33.62
809.694	-76.97
809.873	15.19
810.052	41.81
810.231	31.57
810.411	52.05
810.59	82.77
810.769	-68.78
810.948	54.1
811.127	-68.78
811.306	-38.06
811.485	-13.48
811.664	148.31
811.843	64.34
812.022	-44.2
812.201	11.09
812.38	31.57
812.559	19.29
812.737	31.57
812.916	-50.35
813.095	-58.54
813.274	37.72
813.453	2.9
813.632	37.72
813.811	58.2
813.989	-58.54
814.168	25.43
814.347	-38.06
814.526	-15.53
814.704	136.02
814.883	54.1
815.062	47.96
815.24	123.73
815.419	-93.35
815.598	25.43
815.776	-93.35
815.955	113.49
816.133	-122.02
816.312	4.95
816.49	-68.78
816.669	23.38
816.847	-13.48
817.026	99.16
817.204	-46.25
817.383	-89.26
817.561	-15.53
817.74	-25.77
817.918	105.3
818.097	17.24
818.275	11.09
818.453	4.95
818.632	-31.91
818.81	2.9
818.988	-27.82
819.167	-83.11
819.345	19.29
819.523	-54.44
819.701	-3.24
819.879	50
820.058	23.38
820.236	0.85
820.414	13.14
820.592	-58.54
820.77	9.05
820.948	56.15
821.127	-36.01
821.305	43.86
821.483	-60.59
821.661	117.59
821.839	19.29
822.017	-64.68
822.195	-29.87
822.373	90.96
822.551	2.9
822.729	47.96
822.907	0.85
823.085	86.87
823.262	113.49
823.44	2.9
823.618	-33.96
823.796	-83.11
823.974	-33.96
824.152	19.29
824.329	27.48
824.507	60.24
824.685	58.2
824.863	-58.54
825.04	21.33
825.218	82.77
825.396	43.86
825.574	25.43
825.751	-11.43
825.929	84.82
826.107	-15.53
826.284	31.57
826.462	39.76
826.639	-87.21
826.817	-60.59
826.994	13.14
827.172	-76.97
827.349	131.92
827.527	64.34
827.704	33.62
827.882	78.68
828.059	-11.43
828.237	-31.91
828.414	93.01
828.591	-140.46
828.769	41.81
828.946	-68.78
829.124	158.55
829.301	195.41
829.478	-27.82
829.655	60.24
829.833	68.44
830.01	-117.93
830.187	82.77
830.364	-56.49
830.542	35.67
830.719	172.88
830.896	62.29
831.073	-36.01
831.25	25.43
831.427	4.95
831.604	64.34
831.782	-62.63
831.959	76.63
832.136	-21.67
832.313	2.9
832.49	-64.68
832.667	0.85
832.844	-58.54
833.021	84.82
833.198	-17.58
833.374	33.62
833.551	84.82
833.728	-44.2
833.905	19.29
834.082	-107.69
834.259	21.33
834.436	47.96
834.612	-29.87
834.789	47.96
834.966	7
835.143	4.95
835.319	-107.69
835.496	-7.34
835.673	74.58
835.85	56.15
836.026	-3.24
836.203	29.52
836.38	-138.41
836.556	-46.25
836.733	-13.48
836.909	62.29
837.086	-74.92
837.262	-93.35
837.439	11.09
837.616	-56.49
837.792	2.9
837.968	31.57
838.145	-111.78
838.321	50
838.498	56.15
838.674	58.2
838.851	-21.67
839.027	-38.06
839.203	27.48
839.38	13.14
839.556	-111.78
839.732	60.24
839.909	-15.53
840.085	23.38
840.261	-31.91
840.437	15.19
840.614	-64.68
840.79	58.2
840.966	21.33
841.142	19.29
841.318	-44.2
841.494	29.52
841.671	-1.19
841.847	-48.3
842.023	-101.55
842.199	45.91
842.375	86.87
842.551	-158.89
842.727	-36.01
842.903	19.29
843.079	-7.34
843.255	9.05
843.431	-21.67
843.607	35.67
843.783	-115.88
843.959	37.72
844.134	-62.63
844.31	115.54
844.486	-29.87
844.662	-27.82
844.838	-9.39
845.013	170.83
845.189	78.68
845.365	74.58
845.541	17.24
845.716	2.9
845.892	86.87
846.068	-29.87
846.244	-107.69
846.419	-3.24
846.595	-29.87
846.77	0.85
846.946	84.82
847.122	-91.31
847.297	-40.11
847.473	105.3
847.648	-105.64
847.824	-3.24
847.999	-103.59
848.175	-1.19
848.35	103.25
848.526	68.44
848.701	-7.34
848.876	45.91
849.052	35.67
849.227	-29.87
849.403	37.72
849.578	-42.15
849.753	66.39
849.929	127.83
850.104	-167.08
850.279	-25.77
850.454	-1.19
850.63	23.38
850.805	17.24
850.98	13.14
851.155	60.24
851.33	7
851.505	-83.11
851.681	101.2
851.856	-54.44
852.031	2.9
852.206	0.85
852.381	-50.35
852.556	-19.63
852.731	45.91
852.906	68.44
853.081	-17.58
853.256	86.87
853.431	-5.29
853.606	-5.29
853.781	-46.25
853.956	-132.26
854.131	125.78
854.305	-60.59
854.48	-89.26
854.655	-97.45
854.83	-56.49
855.005	0.85
855.18	9.05
855.354	-21.67
855.529	15.19
855.704	-27.82
855.879	7
856.053	-64.68
856.228	-15.53
856.403	-66.73
856.577	47.96
856.752	-124.07
856.926	-9.39
857.101	-46.25
857.276	-48.3
857.45	23.38
857.625	62.29
857.799	23.38
857.974	2.9
858.148	-113.83
858.323	-19.63
858.497	-52.39
858.672	-58.54
858.846	-111.78
859.02	72.53
859.195	-23.72
859.369	-62.63
859.543	-60.59
859.718	11.09
859.892	-25.77
860.066	27.48
860.241	-76.97
860.415	-1.19
860.589	-54.44
860.763	-46.25
860.938	-79.02
861.112	-36.01
861.286	-50.35
861.46	-9.39
861.634	31.57
861.808	121.68
861.982	-72.87
862.157	-130.22
862.331	-89.26
862.505	-15.53
862.679	-89.26
862.853	-89.26
863.027	-42.15
863.201	72.53
863.375	-64.68
863.549	29.52
863.722	37.72
863.896	166.74
864.07	-42.15
864.244	4.95
864.418	54.1
864.592	39.76
864.766	-25.77
864.939	-21.67
865.113	-58.54
865.287	33.62
865.461	-21.67
865.634	-29.87
865.808	-1.19
865.982	-50.35
866.156	-99.5
866.329	-81.07
866.503	37.72
866.676	35.67
866.85	84.82
867.024	35.67
867.197	60.24
867.371	56.15
867.544	70.48
867.718	-62.63
867.891	-36.01
868.065	-128.17
868.238	-50.35
868.412	123.73
868.585	9.05
868.759	-48.3
868.932	-11.43
869.105	-107.69
869.279	7
869.452	-60.59
869.625	78.68
869.799	-44.2
869.972	-40.11
870.145	35.67
870.319	31.57
870.492	-91.31
870.665	-17.58
870.838	-64.68
871.011	-93.35
871.185	-15.53
871.358	-3.24
871.531	62.29
871.704	-19.63
871.877	21.33
872.05	-68.78
872.223	-70.83
872.396	-3.24
872.569	68.44
872.742	-140.46
872.915	11.09
873.088	-72.87
873.261	-58.54
873.434	136.02
873.607	-91.31
873.78	115.54
873.953	-74.92
874.126	-13.48
874.299	-23.72
874.471	-31.91
874.644	-29.87
874.817	9.05
874.99	82.77
875.163	39.76
875.335	4.95
875.508	15.19
875.681	60.24
875.853	-103.59
876.026	-81.07
876.199	17.24
876.371	-13.48
876.544	-76.97
876.717	-29.87
876.889	-17.58
877.062	41.81
877.234	-13.48
877.407	50
877.579	-15.53
877.752	101.2
877.924	41.81
878.097	-25.77
878.269	-25.77
878.442	68.44
878.614	19.29
878.786	13.14
878.959	-40.11
879.131	-46.25
879.303	-83.11
879.476	-60.59
879.648	123.73
879.82	72.53
879.993	-38.06
880.165	-52.39
880.337	-150.7
880.509	17.24
880.681	-122.02
880.854	-15.53
881.026	74.58
881.198	95.06
881.37	13.14
881.542	15.19
881.714	-38.06
881.886	9.05
882.058	13.14
882.23	23.38
882.402	47.96
882.574	-5.29
882.746	86.87
882.918	43.86
883.09	64.34
883.262	-36.01
883.434	33.62
883.606	-144.55
883.778	-113.83
883.95	187.22
884.122	-62.63
884.293	86.87
884.465	-60.59
884.637	41.81
884.809	-46.25
884.98	68.44
885.152	60.24
885.324	-3.24
885.496	-38.06
885.667	-21.67
885.839	-38.06
886.011	37.72
886.182	15.19
886.354	4.95
886.525	2.9
886.697	-58.54
886.869	-58.54
887.04	-46.25
887.212	95.06
887.383	121.68
887.555	64.34
887.726	-70.83
887.897	-1.19
888.069	37.72
888.24	2.9
888.412	-23.72
888.583	58.2
888.754	15.19
888.926	-52.39
889.097	-29.87
889.268	-132.26
889.44	35.67
889.611	-44.2
889.782	-42.15
889.953	-111.78
890.125	97.11
890.296	-76.97
890.467	45.91
890.638	-81.07
890.809	29.52
890.98	0.85
891.151	37.72
891.323	37.72
891.494	35.67
891.665	2.9
891.836	0.85
892.007	2.9
892.178	-9.39
892.349	86.87
892.52	-62.63
892.691	-13.48
892.862	-132.26
893.032	-87.21
893.203	-119.98
893.374	4.95
893.545	84.82
893.716	-70.83
893.887	45.91
894.057	-21.67
894.228	47.96
894.399	-54.44
894.57	119.64
894.74	-46.25
894.911	31.57
895.082	-70.83
895.253	-83.11
895.423	43.86
895.594	54.1
895.764	158.55
895.935	-23.72
896.106	15.19
896.276	-66.73
896.447	-31.91
896.617	-68.78
896.788	-60.59
896.958	-138.41
897.129	23.38
897.299	-38.06
897.47	125.78
897.64	4.95
897.81	-89.26
897.981	-17.58
898.151	-79.02
898.322	0.85
898.492	11.09
898.662	-91.31
898.832	4.95
899.003	-79.02
899.173	64.34
899.343	-27.82
899.513	-122.02
