Data from USB4F104151__33__10-42-30-382.txt Node

Date: Wed Feb 26 10:42:30 EST 2025
User: louis
Spectrometer: USB4F10415
Trigger mode: 4
Integration Time (sec): 1.000000E-1
Scans to average: 1
Electric dark correction enabled: true
Nonlinearity correction enabled: false
Boxcar width: 0
XAxis mode: Wavelengths
Number of Pixels in Spectrum: 3648
>>>>>Begin Spectral Data<<<<<
178.204	-356.69
178.424	-356.69
178.644	-356.69
178.864	-391.5
179.084	-465.23
179.304	3.75
179.524	-22.87
179.744	75.43
179.964	-20.82
180.184	-24.92
180.404	24.23
180.624	-41.3
180.844	-76.12
181.064	42.67
181.283	69.29
181.503	-33.11
181.723	3.75
181.943	-51.54
182.163	108.2
182.383	7.85
182.602	93.87
182.822	186.02
183.042	52.91
183.262	-51.54
183.482	11.95
183.701	38.57
183.921	9.9
184.141	69.29
184.361	77.48
184.58	65.19
184.8	116.39
185.02	-16.73
185.239	130.73
185.459	30.38
185.679	157.35
185.898	-63.83
186.118	104.11
186.338	104.11
186.557	81.58
186.777	-4.44
186.997	32.43
187.216	11.95
187.436	265.89
187.655	102.06
187.875	42.67
188.095	-26.96
188.314	77.48
188.534	157.35
188.753	-14.68
188.973	173.74
189.192	171.69
189.412	26.28
189.631	-35.16
189.851	57
190.07	173.74
190.29	-12.63
190.509	11.95
190.729	38.57
190.948	183.98
191.168	214.7
191.387	95.91
191.607	75.43
191.826	128.68
192.045	30.38
192.265	-6.49
192.484	34.47
192.704	38.57
192.923	-51.54
193.142	265.89
193.362	153.26
193.581	104.11
193.8	116.39
194.02	161.45
194.239	85.67
194.458	79.53
194.678	112.3
194.897	5.8
195.116	67.24
195.335	32.43
195.555	134.82
195.774	-20.82
195.993	134.82
196.212	73.39
196.432	1.71
196.651	-59.73
196.87	5.8
197.089	231.08
197.308	16.04
197.528	69.29
197.747	16.04
197.966	-31.06
198.185	132.78
198.404	7.85
198.623	65.19
198.842	22.19
199.062	110.25
199.281	112.3
199.5	102.06
199.719	32.43
199.938	26.28
200.157	69.29
200.376	118.44
200.595	157.35
200.814	83.63
201.033	-8.53
201.252	190.12
201.471	106.15
201.69	42.67
201.909	9.9
202.128	59.05
202.347	32.43
202.566	-12.63
202.785	-74.07
203.004	22.19
203.223	181.93
203.442	3.75
203.661	-63.83
203.879	130.73
204.098	93.87
204.317	-78.16
204.536	48.81
204.755	108.2
204.974	32.43
205.193	28.33
205.411	83.63
205.63	122.54
205.849	120.49
206.068	54.95
206.287	-22.87
206.505	81.58
206.724	13.99
206.943	-24.92
207.162	18.09
207.381	87.72
207.599	71.34
207.818	59.05
208.037	-53.59
208.255	97.96
208.474	69.29
208.693	77.48
208.911	67.24
209.13	100.01
209.349	71.34
209.567	71.34
209.786	16.04
210.005	91.82
210.223	102.06
210.442	-119.12
210.661	34.47
210.879	116.39
211.098	3.75
211.316	67.24
211.535	112.3
211.753	87.72
211.972	46.76
212.191	-0.34
212.409	9.9
212.628	102.06
212.846	-0.34
213.065	5.8
213.283	163.5
213.502	73.39
213.72	145.06
213.938	57
214.157	-0.34
214.375	147.11
214.594	-16.73
214.812	77.48
215.031	5.8
215.249	102.06
215.467	77.48
215.686	13.99
215.904	65.19
216.122	1.71
216.341	200.36
216.559	42.67
216.778	130.73
216.996	247.46
217.214	3.75
217.432	11.95
217.651	-26.96
217.869	116.39
218.087	75.43
218.306	28.33
218.524	73.39
218.742	9.9
218.96	155.3
219.179	52.91
219.397	61.1
219.615	163.5
219.833	54.95
220.051	-41.3
220.27	134.82
220.488	155.3
220.706	112.3
220.924	5.8
221.142	28.33
221.36	-0.34
221.578	87.72
221.796	63.15
222.015	81.58
222.233	134.82
222.451	134.82
222.669	38.57
222.887	132.78
223.105	-2.39
223.323	71.34
223.541	40.62
223.759	34.47
223.977	71.34
224.195	214.7
224.413	87.72
224.631	24.23
224.849	110.25
225.067	255.65
225.285	26.28
225.503	69.29
225.721	-153.94
225.939	95.91
226.157	54.95
226.375	249.51
226.592	-6.49
226.81	32.43
227.028	134.82
227.246	198.31
227.464	83.63
227.682	48.81
227.9	63.15
228.117	118.44
228.335	155.3
228.553	52.91
228.771	63.15
228.989	65.19
229.206	114.34
229.424	-94.55
229.642	65.19
229.86	-45.4
230.077	114.34
230.295	-6.49
230.513	59.05
230.731	143.02
230.948	186.02
231.166	198.31
231.384	52.91
231.601	54.95
231.819	202.41
232.037	11.95
232.254	26.28
232.472	149.16
232.689	30.38
232.907	132.78
233.125	75.43
233.342	18.09
233.56	11.95
233.777	46.76
233.995	93.87
234.213	130.73
234.43	132.78
234.648	75.43
234.865	-59.73
235.083	63.15
235.3	122.54
235.518	75.43
235.735	63.15
235.953	81.58
236.17	42.67
236.388	22.19
236.605	-6.49
236.822	145.06
237.04	122.54
237.257	104.11
237.475	-0.34
237.692	75.43
237.909	71.34
238.127	24.23
238.344	149.16
238.562	9.9
238.779	-2.39
238.996	7.85
239.214	11.95
239.431	108.2
239.648	-37.2
239.865	40.62
240.083	75.43
240.3	3.75
240.517	-31.06
240.735	18.09
240.952	65.19
241.169	71.34
241.386	130.73
241.603	50.86
241.821	-67.92
242.038	116.39
242.255	157.35
242.472	16.04
242.689	102.06
242.907	118.44
243.124	-12.63
243.341	-18.77
243.558	44.71
243.775	-45.4
243.992	-69.97
244.209	77.48
244.426	196.26
244.643	-12.63
244.86	7.85
245.078	124.58
245.295	65.19
245.512	77.48
245.729	-67.92
245.946	30.38
246.163	40.62
246.38	77.48
246.597	118.44
246.814	61.1
247.031	40.62
247.248	87.72
247.464	112.3
247.681	-18.77
247.898	159.4
248.115	104.11
248.332	57
248.549	22.19
248.766	155.3
248.983	116.39
249.2	136.87
249.417	210.6
249.633	22.19
249.85	122.54
250.067	-2.39
250.284	75.43
250.501	22.19
250.717	128.68
250.934	-12.63
251.151	38.57
251.368	-0.34
251.585	93.87
251.801	-24.92
252.018	-78.16
252.235	87.72
252.451	26.28
252.668	11.95
252.885	143.02
253.102	46.76
253.318	57
253.535	-22.87
253.752	20.14
253.968	28.33
254.185	36.52
254.401	24.23
254.618	97.96
254.835	32.43
255.051	77.48
255.268	132.78
255.484	89.77
255.701	73.39
255.917	38.57
256.134	7.85
256.351	73.39
256.567	7.85
256.784	9.9
257	-57.68
257.217	77.48
257.433	198.31
257.65	28.33
257.866	151.21
258.082	-2.39
258.299	11.95
258.515	104.11
258.732	-16.73
258.948	1.71
259.165	59.05
259.381	-39.25
259.597	110.25
259.814	20.14
260.03	11.95
260.246	11.95
260.463	110.25
260.679	110.25
260.895	65.19
261.112	30.38
261.328	91.82
261.544	65.19
261.761	192.17
261.977	-20.82
262.193	-82.26
262.409	175.78
262.626	118.44
262.842	61.1
263.058	75.43
263.274	97.96
263.49	32.43
263.707	167.59
263.923	81.58
264.139	-18.77
264.355	22.19
264.571	89.77
264.787	143.02
265.004	145.06
265.22	54.95
265.436	7.85
265.652	85.67
265.868	87.72
266.084	-45.4
266.3	61.1
266.516	28.33
266.732	69.29
266.948	48.81
267.164	9.9
267.38	143.02
267.596	75.43
267.812	140.97
268.028	124.58
268.244	-6.49
268.46	50.86
268.676	38.57
268.892	54.95
269.108	-39.25
269.324	40.62
269.54	11.95
269.756	91.82
269.972	36.52
270.188	11.95
270.403	26.28
270.619	-22.87
270.835	83.63
271.051	95.91
271.267	46.76
271.483	-57.68
271.698	9.9
271.914	128.68
272.13	89.77
272.346	1.71
272.562	18.09
272.777	140.97
272.993	16.04
273.209	-55.64
273.425	91.82
273.64	-12.63
273.856	59.05
274.072	-10.58
274.287	-0.34
274.503	102.06
274.719	89.77
274.934	22.19
275.15	-80.21
275.366	-18.77
275.581	22.19
275.797	3.75
276.012	42.67
276.228	-10.58
276.444	46.76
276.659	118.44
276.875	24.23
277.09	54.95
277.306	34.47
277.521	108.2
277.737	-43.35
277.952	75.43
278.168	38.57
278.383	46.76
278.599	118.44
278.814	18.09
279.03	67.24
279.245	83.63
279.461	106.15
279.676	161.45
279.892	-47.44
280.107	46.76
280.322	18.09
280.538	95.91
280.753	-78.16
280.969	38.57
281.184	61.1
281.399	140.97
281.615	44.71
281.83	136.87
282.045	-24.92
282.26	34.47
282.476	89.77
282.691	120.49
282.906	118.44
283.122	81.58
283.337	9.9
283.552	38.57
283.767	-33.11
283.983	46.76
284.198	61.1
284.413	102.06
284.628	-39.25
284.843	40.62
285.058	71.34
285.274	3.75
285.489	-6.49
285.704	40.62
285.919	57
286.134	-22.87
286.349	34.47
286.564	40.62
286.779	97.96
286.995	11.95
287.21	-51.54
287.425	95.91
287.64	26.28
287.855	42.67
288.07	-29.01
288.285	95.91
288.5	100.01
288.715	104.11
288.93	81.58
289.145	-31.06
289.36	116.39
289.575	67.24
289.79	206.5
290.004	-4.44
290.219	112.3
290.434	44.71
290.649	13.99
290.864	59.05
291.079	20.14
291.294	46.76
291.509	50.86
291.724	50.86
291.938	-8.53
292.153	69.29
292.368	9.9
292.583	106.15
292.798	69.29
293.012	147.11
293.227	59.05
293.442	-86.36
293.657	75.43
293.871	155.3
294.086	22.19
294.301	151.21
294.516	110.25
294.73	83.63
294.945	-39.25
295.16	87.72
295.374	110.25
295.589	167.59
295.804	32.43
296.018	108.2
296.233	231.08
296.447	75.43
296.662	-49.49
296.877	192.17
297.091	91.82
297.306	-0.34
297.52	-4.44
297.735	95.91
297.949	81.58
298.164	83.63
298.378	24.23
298.593	34.47
298.807	7.85
299.022	26.28
299.236	124.58
299.451	20.14
299.665	54.95
299.88	7.85
300.094	61.1
300.309	83.63
300.523	128.68
300.737	36.52
300.952	87.72
301.166	102.06
301.381	24.23
301.595	9.9
301.809	79.53
302.024	20.14
302.238	-49.49
302.452	122.54
302.667	81.58
302.881	183.98
303.095	130.73
303.309	63.15
303.524	7.85
303.738	120.49
303.952	-16.73
304.166	54.95
304.381	-108.88
304.595	104.11
304.809	-39.25
305.023	7.85
305.237	9.9
305.452	22.19
305.666	79.53
305.88	91.82
306.094	147.11
306.308	67.24
306.522	175.78
306.736	30.38
306.95	63.15
307.164	-12.63
307.379	118.44
307.593	194.22
307.807	104.11
308.021	128.68
308.235	52.91
308.449	-0.34
308.663	32.43
308.877	169.64
309.091	63.15
309.305	100.01
309.519	-47.44
309.733	93.87
309.947	-18.77
310.161	46.76
310.374	106.15
310.588	208.55
310.802	9.9
311.016	-18.77
311.23	75.43
311.444	1.71
311.658	30.38
311.872	52.91
312.085	50.86
312.299	79.53
312.513	128.68
312.727	42.67
312.941	-72.02
313.154	42.67
313.368	95.91
313.582	13.99
313.796	97.96
314.009	173.74
314.223	151.21
314.437	42.67
314.651	157.35
314.864	-57.68
315.078	79.53
315.292	-20.82
315.505	87.72
315.719	104.11
315.933	42.67
316.146	-8.53
316.36	59.05
316.573	124.58
316.787	85.67
317.001	50.86
317.214	-4.44
317.428	69.29
317.641	-29.01
317.855	40.62
318.068	3.75
318.282	36.52
318.495	198.31
318.709	50.86
318.922	1.71
319.136	155.3
319.349	120.49
319.563	-33.11
319.776	155.3
319.99	-65.88
320.203	57
320.417	75.43
320.63	136.87
320.843	196.26
321.057	75.43
321.27	9.9
321.483	163.5
321.697	100.01
321.91	106.15
322.124	97.96
322.337	36.52
322.55	28.33
322.763	24.23
322.977	73.39
323.19	77.48
323.403	89.77
323.617	-2.39
323.83	106.15
324.043	11.95
324.256	91.82
324.469	-78.16
324.683	81.58
324.896	28.33
325.109	9.9
325.322	-51.54
325.535	159.4
325.748	159.4
325.962	-0.34
326.175	61.1
326.388	59.05
326.601	134.82
326.814	28.33
327.027	28.33
327.24	192.17
327.453	-125.27
327.666	36.52
327.879	108.2
328.092	61.1
328.305	63.15
328.518	9.9
328.731	28.33
328.944	83.63
329.157	122.54
329.37	38.57
329.583	226.98
329.796	138.92
330.009	-0.34
330.222	63.15
330.435	61.1
330.648	91.82
330.861	54.95
331.073	42.67
331.286	128.68
331.499	32.43
331.712	87.72
331.925	48.81
332.138	30.38
332.35	231.08
332.563	71.34
332.776	149.16
332.989	-35.16
333.202	48.81
333.414	38.57
333.627	97.96
333.84	-0.34
334.053	63.15
334.265	44.71
334.478	-2.39
334.691	38.57
334.903	100.01
335.116	11.95
335.329	61.1
335.541	65.19
335.754	186.02
335.966	26.28
336.179	71.34
336.392	46.76
336.604	87.72
336.817	143.02
337.029	89.77
337.242	61.1
337.454	136.87
337.667	67.24
337.88	206.5
338.092	116.39
338.305	167.59
338.517	-14.68
338.729	63.15
338.942	177.83
339.154	5.8
339.367	32.43
339.579	48.81
339.792	-0.34
340.004	100.01
340.217	71.34
340.429	118.44
340.641	-2.39
340.854	-2.39
341.066	59.05
341.278	196.26
341.491	198.31
341.703	69.29
341.915	-14.68
342.128	128.68
342.34	89.77
342.552	-2.39
342.764	61.1
342.977	100.01
343.189	108.2
343.401	7.85
343.613	-115.03
343.826	104.11
344.038	-4.44
344.25	104.11
344.462	24.23
344.674	85.67
344.886	52.91
345.099	91.82
345.311	85.67
345.523	-26.96
345.735	-88.4
345.947	16.04
346.159	52.91
346.371	54.95
346.583	-20.82
346.795	138.92
347.007	-12.63
347.219	118.44
347.431	22.19
347.643	112.3
347.855	71.34
348.067	165.54
348.279	-31.06
348.491	85.67
348.703	71.34
348.915	46.76
349.127	34.47
349.339	20.14
349.551	-8.53
349.763	112.3
349.975	7.85
350.187	140.97
350.399	147.11
350.61	5.8
350.822	5.8
351.034	59.05
351.246	97.96
351.458	87.72
351.669	106.15
351.881	69.29
352.093	124.58
352.305	54.95
352.517	1.71
352.728	202.41
352.94	-16.73
353.152	63.15
353.363	34.47
353.575	87.72
353.787	183.98
353.999	79.53
354.21	208.55
354.422	69.29
354.633	38.57
354.845	-20.82
355.057	75.43
355.268	100.01
355.48	118.44
355.692	5.8
355.903	20.14
356.115	40.62
356.326	-63.83
356.538	124.58
356.749	102.06
356.961	52.91
357.172	-35.16
357.384	46.76
357.595	247.46
357.807	38.57
358.018	13.99
358.23	20.14
358.441	169.64
358.653	81.58
358.864	63.15
359.075	-12.63
359.287	38.57
359.498	188.07
359.709	126.63
359.921	81.58
360.132	95.91
360.344	52.91
360.555	7.85
360.766	112.3
360.977	18.09
361.189	108.2
361.4	-24.92
361.611	165.54
361.823	140.97
362.034	38.57
362.245	-4.44
362.456	5.8
362.667	91.82
362.879	-4.44
363.09	114.34
363.301	102.06
363.512	16.04
363.723	-10.58
363.935	83.63
364.146	165.54
364.357	46.76
364.568	114.34
364.779	-14.68
364.99	128.68
365.201	-24.92
365.412	155.3
365.623	-24.92
365.834	32.43
366.045	73.39
366.256	102.06
366.467	73.39
366.678	24.23
366.889	34.47
367.1	1.71
367.311	116.39
367.522	-8.53
367.733	59.05
367.944	42.67
368.155	65.19
368.366	183.98
368.577	112.3
368.788	63.15
368.999	-31.06
369.209	75.43
369.42	181.93
369.631	224.94
369.842	145.06
370.053	57
370.264	24.23
370.474	-31.06
370.685	30.38
370.896	57
371.107	100.01
371.317	71.34
371.528	38.57
371.739	136.87
371.95	81.58
372.16	153.26
372.371	-12.63
372.582	3.75
372.792	108.2
373.003	32.43
373.214	93.87
373.424	95.91
373.635	-10.58
373.846	102.06
374.056	46.76
374.267	44.71
374.477	116.39
374.688	-45.4
374.898	87.72
375.109	116.39
375.319	57
375.53	138.92
375.74	57
375.951	5.8
376.161	106.15
376.372	173.74
376.582	69.29
376.793	134.82
377.003	20.14
377.214	-37.2
377.424	175.78
377.635	38.57
377.845	-29.01
378.055	95.91
378.266	-26.96
378.476	65.19
378.686	85.67
378.897	69.29
379.107	118.44
379.317	108.2
379.528	77.48
379.738	97.96
379.948	-37.2
380.158	149.16
380.369	65.19
380.579	69.29
380.789	18.09
380.999	85.67
381.21	118.44
381.42	181.93
381.63	106.15
381.84	112.3
382.05	134.82
382.261	122.54
382.471	116.39
382.681	3.75
382.891	169.64
383.101	95.91
383.311	3.75
383.521	9.9
383.731	59.05
383.941	134.82
384.151	63.15
384.361	126.63
384.571	9.9
384.781	71.34
384.991	231.08
385.201	83.63
385.411	89.77
385.621	100.01
385.831	87.72
386.041	-24.92
386.251	75.43
386.461	159.4
386.671	-12.63
386.881	87.72
387.091	-22.87
387.301	87.72
387.511	38.57
387.72	167.59
387.93	122.54
388.14	24.23
388.35	44.71
388.56	153.26
388.769	77.48
388.979	77.48
389.189	-86.36
389.399	48.81
389.609	233.13
389.818	120.49
390.028	59.05
390.238	100.01
390.447	22.19
390.657	79.53
390.867	7.85
391.076	44.71
391.286	97.96
391.496	57
391.705	87.72
391.915	194.22
392.125	175.78
392.334	63.15
392.544	118.44
392.753	95.91
392.963	-39.25
393.172	9.9
393.382	-31.06
393.591	155.3
393.801	57
394.01	210.6
394.22	145.06
394.429	42.67
394.639	59.05
394.848	147.11
395.058	46.76
395.267	-0.34
395.477	-14.68
395.686	85.67
395.895	226.98
396.105	188.07
396.314	73.39
396.524	-31.06
396.733	36.52
396.942	175.78
397.152	124.58
397.361	159.4
397.57	91.82
397.78	-31.06
397.989	147.11
398.198	206.5
398.407	38.57
398.617	77.48
398.826	79.53
399.035	69.29
399.244	102.06
399.453	102.06
399.663	81.58
399.872	157.35
400.081	28.33
400.29	161.45
400.499	13.99
400.708	210.6
400.917	57
401.127	32.43
401.336	46.76
401.545	165.54
401.754	147.11
401.963	24.23
402.172	151.21
402.381	11.95
402.59	11.95
402.799	69.29
403.008	106.15
403.217	136.87
403.426	91.82
403.635	-20.82
403.844	85.67
404.053	3.75
404.262	54.95
404.471	231.08
404.68	24.23
404.888	95.91
405.097	83.63
405.306	110.25
405.515	134.82
405.724	7.85
405.933	75.43
406.142	9.9
406.35	118.44
406.559	42.67
406.768	54.95
406.977	204.46
407.185	147.11
407.394	192.17
407.603	-49.49
407.812	192.17
408.02	171.69
408.229	30.38
408.438	28.33
408.646	95.91
408.855	85.67
409.064	106.15
409.272	42.67
409.481	171.69
409.69	-39.25
409.898	48.81
410.107	112.3
410.315	171.69
410.524	67.24
410.733	102.06
410.941	149.16
411.15	61.1
411.358	83.63
411.567	73.39
411.775	36.52
411.984	120.49
412.192	89.77
412.401	13.99
412.609	216.74
412.818	169.64
413.026	79.53
413.234	46.76
413.443	179.88
413.651	-0.34
413.86	-4.44
414.068	188.07
414.276	253.61
414.485	18.09
414.693	204.46
414.901	218.79
415.11	93.87
415.318	50.86
415.526	161.45
415.734	112.3
415.943	87.72
416.151	214.7
416.359	79.53
416.567	122.54
416.776	229.03
416.984	175.78
417.192	165.54
417.4	18.09
417.608	48.81
417.817	52.91
418.025	143.02
418.233	229.03
418.441	-43.35
418.649	57
418.857	59.05
419.065	91.82
419.273	42.67
419.481	75.43
419.689	59.05
419.897	38.57
420.105	-2.39
420.313	161.45
420.521	155.3
420.729	124.58
420.937	69.29
421.145	-20.82
421.353	67.24
421.561	149.16
421.769	93.87
421.977	30.38
422.185	186.02
422.393	108.2
422.601	130.73
422.809	57
423.017	128.68
423.224	36.52
423.432	138.92
423.64	59.05
423.848	169.64
424.056	61.1
424.263	147.11
424.471	79.53
424.679	216.74
424.887	-2.39
425.094	165.54
425.302	87.72
425.51	50.86
425.718	200.36
425.925	177.83
426.133	91.82
426.341	149.16
426.548	87.72
426.756	63.15
426.964	102.06
427.171	50.86
427.379	46.76
427.586	108.2
427.794	173.74
428.001	159.4
428.209	85.67
428.417	249.51
428.624	124.58
428.832	157.35
429.039	81.58
429.247	73.39
429.454	143.02
429.662	263.85
429.869	188.07
430.076	186.02
430.284	198.31
430.491	237.22
430.699	229.03
430.906	257.7
431.114	190.12
431.321	212.65
431.528	102.06
431.736	212.65
431.943	224.94
432.15	224.94
432.358	218.79
432.565	343.72
432.772	40.62
432.979	251.56
433.187	218.79
433.394	194.22
433.601	108.2
433.808	231.08
434.016	325.29
434.223	388.77
434.43	263.85
434.637	317.09
434.844	308.9
435.052	347.81
435.259	331.43
435.466	435.88
435.673	313
435.88	411.3
436.087	450.21
436.294	345.77
436.501	427.68
436.708	304.81
436.915	450.21
437.122	460.45
437.329	265.89
437.537	390.82
437.743	431.78
437.95	534.18
438.157	579.23
438.364	478.88
438.571	460.45
438.778	528.03
438.985	564.9
439.192	558.75
439.399	487.08
439.606	640.67
439.813	683.68
440.02	693.92
440.227	870.05
440.433	652.96
440.64	661.15
440.847	702.11
441.054	634.53
441.261	925.34
441.467	784.03
441.674	781.98
441.881	968.35
442.088	923.29
442.294	1064.6
442.501	1089.18
442.708	990.88
442.914	1031.83
443.121	1011.36
443.328	1185.43
443.534	1152.67
443.741	1171.1
443.948	1160.86
444.154	1328.79
444.361	1466
444.568	1394.33
444.774	1406.61
444.981	1255.06
445.187	1549.97
445.394	1545.88
445.6	1590.93
445.807	1783.44
446.013	1726.1
446.22	1627.79
446.426	1853.07
446.633	1906.32
446.839	2061.96
447.046	1910.41
447.252	2154.12
447.459	2182.79
447.665	2201.23
447.871	2420.36
448.078	2512.52
448.284	2444.93
448.491	2576
448.697	2819.71
448.903	2866.81
449.11	2840.19
449.316	2961.02
449.522	3219.07
449.728	3270.26
449.935	3370.62
450.141	3358.33
450.347	3583.6
450.553	3589.75
450.76	3614.32
450.966	3919.47
451.172	3958.38
451.378	4107.88
451.584	4361.83
451.791	4660.84
451.997	4607.59
452.203	4675.17
452.409	5105.24
452.615	5201.5
452.821	5148.25
453.027	5027.42
453.233	5748.31
453.44	5604.95
453.646	6016.59
453.852	5951.06
454.058	6389.32
454.264	6370.89
454.47	7009.86
454.676	7067.2
454.882	7730.74
455.088	7341.63
455.294	7505.46
455.5	8134.19
455.705	8621.61
455.911	8826.4
456.117	8848.93
456.323	9448.99
456.529	9188.89
456.735	10264.08
456.941	10264.08
457.147	10821.13
457.352	11021.83
457.558	11484.67
457.764	12121.59
457.97	12447.21
458.176	12836.33
458.381	13508.06
458.587	13719
458.793	14351.82
458.999	14509.52
459.204	16401.84
459.41	16680.36
459.616	16569.77
459.821	17427.87
460.027	18308.5
460.233	19107.21
460.438	18883.98
460.644	20319.6
460.85	19873.15
461.055	21099.88
461.261	22480.21
461.466	21683.55
461.672	22689.1
461.878	24851.76
462.083	24384.82
462.289	24911.15
462.494	26209.56
462.7	26434.84
462.905	26795.28
463.111	28759.28
463.316	30256.35
463.522	31167.7
463.727	32003.27
463.932	33260.72
464.138	34346.14
464.343	35394.7
464.549	35339.41
464.754	38294.63
464.959	39259.22
465.165	39543.89
465.37	39148.63
465.575	39603.28
465.781	42191.91
465.986	43142.17
466.191	42814.49
466.397	43375.64
466.602	41944.11
466.807	44176.39
467.012	45468.66
467.218	45992.94
467.423	46234.6
467.628	47277.02
467.833	49570.74
468.038	48489.41
468.244	47731.67
468.449	50013.1
468.654	49408.95
468.859	49458.1
469.064	49673.14
469.269	48059.34
469.474	48602.05
469.679	49927.09
469.885	48778.18
470.09	49429.43
470.295	49238.97
470.5	48557
470.705	48911.3
470.91	47301.59
471.115	47014.88
471.32	47911.89
471.525	47569.88
471.73	46095.34
471.935	45835.25
472.139	43854.86
472.344	44375.05
472.549	43801.61
472.754	43265.05
472.959	42236.97
473.164	40696.89
473.369	40365.12
473.574	41458.74
473.778	40799.29
473.983	39472.21
474.188	39517.26
474.393	37291.12
474.598	37280.88
474.802	36304
475.007	36119.68
475.212	35654.79
475.417	34610.33
475.621	33868.97
475.826	33658.03
476.031	33172.66
476.235	32425.15
476.44	32251.07
476.645	31114.45
476.849	31034.58
477.054	30452.95
477.259	29961.44
477.463	29734.12
477.668	29011.18
477.872	28882.16
478.077	28423.42
478.282	27346.19
478.486	27147.53
478.691	26924.3
478.895	26608.92
479.1	26680.6
479.304	26557.72
479.509	25470.25
479.713	26035.49
479.918	25281.83
480.122	24595.76
480.326	24923.44
480.531	25222.44
480.735	24372.53
480.94	24153.4
481.144	24880.43
481.348	23432.52
481.553	23612.74
481.757	23006.54
481.961	23260.49
482.166	23334.21
482.37	23184.71
482.574	22668.62
482.778	22588.75
482.983	23209.29
483.187	22347.09
483.391	22154.58
483.595	22189.4
483.8	21431.65
484.004	21650.78
484.208	21738.85
484.412	21337.45
484.616	21237.09
484.821	20669.81
485.025	20258.17
485.229	20489.59
485.433	20149.62
485.637	20084.09
485.841	19725.69
486.045	19363.2
486.249	19412.35
486.453	18679.18
486.657	18777.48
486.861	18460.05
487.065	17911.19
487.269	17782.17
487.473	17302.95
487.677	17288.61
487.881	17386.91
488.085	16702.89
488.289	16565.68
488.493	16084.41
488.697	16149.94
488.901	15424.96
489.105	15381.95
489.309	15205.83
489.512	14996.93
489.716	14656.97
489.92	14233.04
490.124	14048.72
490.328	14140.88
490.531	13512.16
490.735	13512.16
490.939	13227.49
491.143	12574.19
491.346	12647.91
491.55	12672.49
491.754	12340.72
491.958	12162.55
492.161	11834.87
492.365	11728.38
492.569	11314.69
492.772	11431.42
492.976	11429.37
493.18	11050.5
493.383	11066.88
493.587	10911.24
493.79	10769.93
493.994	10393.1
494.197	10196.5
494.401	10247.69
494.605	10044.95
494.808	10055.19
495.012	10096.14
495.215	9983.51
495.419	9711.13
495.622	9600.54
495.825	9795.09
496.029	9657.88
496.232	9588.25
496.436	9586.2
496.639	9745.94
496.843	9448.99
497.046	9621.02
497.249	9498.14
497.453	9477.66
497.656	9446.94
497.859	9481.75
498.063	9661.98
498.266	9475.61
498.469	9291.29
498.673	9276.96
498.876	9520.67
499.079	9586.2
499.282	9500.19
499.485	9752.09
499.689	9598.49
499.892	9752.09
500.095	9727.51
500.298	9768.47
500.501	9643.54
500.705	10171.92
500.908	10243.6
501.111	10051.09
501.314	10251.79
501.517	10376.72
501.72	10311.18
501.923	10331.66
502.126	10653.19
502.329	10841.61
502.532	10743.3
502.735	10655.24
502.938	10946.05
503.141	11011.59
503.344	11353.6
503.547	11380.22
503.75	11535.87
503.953	11591.16
504.156	11791.86
504.359	11945.46
504.562	12017.14
504.765	12242.42
504.968	12426.73
505.17	12617.19
505.373	12713.45
505.576	12985.83
505.779	13139.43
505.982	13329.89
506.185	13520.35
506.387	13833.69
506.59	13970.9
506.793	14259.67
506.996	14247.38
507.198	14765.51
507.401	15062.47
507.604	15146.44
507.807	15881.66
508.009	15666.62
508.212	16141.75
508.415	16532.91
508.617	16657.84
508.82	17114.53
509.022	17141.16
509.225	17956.25
509.428	18001.3
509.63	18355.6
509.833	19006.86
510.035	19393.92
510.238	19385.73
510.44	20004.22
510.643	20491.63
510.845	20847.98
511.048	20878.7
511.25	21620.06
511.453	21796.19
511.655	23225.67
511.858	22947.15
512.06	23635.27
512.262	24284.47
512.465	24151.35
512.667	25171.24
512.87	25576.74
513.072	25840.93
513.274	26873.1
513.477	27268.36
513.679	27854.08
513.881	28724.47
514.084	29324.52
514.286	29457.64
514.488	30467.29
514.69	31503.56
514.893	31597.77
515.095	32367.8
515.297	32675
515.499	33313.97
515.701	34294.94
515.904	34712.73
516.106	35513.48
516.308	36174.98
516.51	37313.65
516.712	37420.14
516.914	38687.84
517.116	39210.07
517.318	40059.98
517.52	40453.19
517.722	41241.65
517.925	42028.07
518.127	43281.43
518.329	43258.9
518.531	43645.97
518.733	44993.53
518.935	45403.13
519.136	46169.07
519.338	46719.97
519.54	47549.4
519.742	48135.12
519.944	48425.93
520.146	50013.1
520.348	50265
520.55	50789.28
520.752	50922.4
520.954	52106.13
521.155	52149.13
521.357	53289.85
521.559	53820.28
521.761	54512.49
521.963	54539.11
522.164	55071.59
522.366	55432.03
522.568	56038.23
522.77	56200.02
522.971	56951.62
523.173	56300.37
523.375	57793.34
523.576	57420.61
523.778	57592.64
523.98	58325.81
524.181	58493.74
524.383	57985.85
524.584	58698.54
524.786	58999.59
524.988	58487.6
525.189	59456.29
525.391	59650.84
525.592	59343.65
525.794	59284.26
525.995	59030.31
526.197	59097.89
526.398	59290.4
526.6	59282.21
526.801	58725.16
527.003	58872.62
527.204	58678.06
527.406	58725.16
527.607	58217.27
527.808	58067.76
528.01	56933.19
528.211	57064.26
528.412	57899.83
528.614	56816.46
528.815	56722.25
529.016	56585.04
529.218	55825.24
529.419	55200.61
529.62	55057.25
529.822	54084.47
530.023	53867.38
530.224	53216.13
530.425	52804.48
530.626	51901.33
530.828	51657.62
531.029	52056.98
531.23	50772.9
531.431	50226.09
531.632	49845.17
531.833	49533.88
532.035	48587.72
532.236	48192.46
532.437	47969.23
532.638	46953.44
532.839	46812.13
533.04	46349.29
533.241	44907.52
533.442	45460.47
533.643	44022.79
533.844	43559.95
534.045	43166.74
534.246	42099.75
534.447	42232.87
534.648	41344.05
534.849	40877.11
535.05	40352.83
535.251	39593.04
535.451	38825.05
535.652	38433.89
535.853	38276.19
536.054	37657.71
536.255	37147.76
536.456	36205.7
536.657	36365.44
536.857	35918.98
537.058	35087.51
537.259	35267.73
537.46	34311.33
537.66	34043.04
537.861	33682.6
538.062	33225.9
538.263	32568.51
538.463	31878.34
538.664	31673.54
538.865	31325.39
539.065	31542.47
539.266	30178.53
539.466	30336.22
539.667	29424.87
539.868	29682.92
540.068	29486.31
540.269	29211.88
540.469	28732.66
540.67	28179.71
540.87	27936
541.071	27600.13
541.271	27544.84
541.472	27282.7
541.672	26596.63
541.873	26107.16
542.073	25574.69
542.274	25865.5
542.474	25222.44
542.675	25226.54
542.875	25081.13
543.075	24216.89
543.276	24005.95
543.476	24298.81
543.676	23594.31
543.877	23506.24
544.077	23072.07
544.277	23031.12
544.478	22789.45
544.678	22703.44
544.878	22418.77
545.078	22150.49
545.279	21831.01
545.479	21368.16
545.679	21126.5
545.879	20874.6
546.079	21089.64
546.28	20280.69
546.48	19983.74
546.68	20196.73
546.88	19950.97
547.08	19490.18
547.28	19604.86
547.48	18922.89
547.68	19002.76
547.88	18447.76
548.081	18462.1
548.281	18161.05
548.481	17761.69
548.681	17714.59
548.881	17528.22
549.081	17130.92
549.28	17005.99
549.48	17055.14
549.68	16752.04
549.88	16657.84
550.08	16002.49
550.28	15828.41
550.48	15646.14
550.68	15388.1
550.88	15197.63
551.08	15310.27
551.279	15140.29
551.479	14785.99
551.679	14431.69
551.879	14173.65
552.079	14171.6
552.278	13829.59
552.478	13798.87
552.678	13338.08
552.878	13268.45
553.077	12977.64
553.277	12717.54
553.477	12781.03
553.676	12502.51
553.876	12258.8
554.076	12172.78
554.275	11916.79
554.475	11630.07
554.674	11625.98
554.874	11394.56
555.074	11019.78
555.273	10888.71
555.473	10978.82
555.672	10548.75
555.872	10540.55
556.071	10239.5
556.271	10294.8
556.47	9942.55
556.67	9608.73
556.869	9711.13
557.068	9467.42
557.268	9223.71
557.467	9479.71
557.667	9199.13
557.866	9039.39
558.065	8848.93
558.265	8646.18
558.464	8470.06
558.663	8506.92
558.863	8160.81
559.062	8300.08
559.261	7804.47
559.461	7999.02
559.66	7747.12
559.859	7450.17
560.058	7388.73
560.258	7245.37
560.457	7190.08
560.656	7169.6
560.855	6970.94
561.054	6964.8
561.253	6749.76
561.453	6567.49
561.652	6684.23
561.851	6663.75
562.05	6422.09
562.249	6223.44
562.448	6241.87
562.647	5989.97
562.846	5959.25
563.045	6053.45
563.244	5865.04
563.443	5967.44
563.642	5713.49
563.841	5670.48
564.04	5574.23
564.239	5547.61
564.438	5428.82
564.637	5273.18
564.836	5166.68
565.035	5207.64
565.234	5260.89
565.432	5060.19
565.631	4990.56
565.83	4863.58
566.029	4781.67
566.228	4609.64
566.427	4714.08
566.625	4521.57
566.824	4525.67
567.023	4476.52
567.222	4314.73
567.42	4521.57
567.619	4372.07
567.818	4286.06
568.016	4329.06
568.215	4144.75
568.414	4107.88
568.612	4124.27
568.811	3952.24
569.01	3817.07
569.208	3796.59
569.407	3692.15
569.605	3798.64
569.804	3655.28
570.002	3659.38
570.201	3647.09
570.4	3575.41
570.598	3315.32
570.797	3409.53
570.995	3278.46
571.193	3348.09
571.392	3337.85
571.59	3227.26
571.789	3214.97
571.987	3120.76
572.186	3149.43
572.384	3018.36
572.582	3012.22
572.781	3069.56
572.979	2838.14
573.177	2733.7
573.376	2838.14
573.574	2815.62
573.772	2608.77
573.971	2696.83
574.169	2616.96
574.367	2657.92
574.565	2436.74
574.763	2477.7
574.962	2520.71
575.16	2262.66
575.358	2389.64
575.556	2444.93
575.754	2336.39
575.952	2358.92
576.151	2332.3
576.349	2289.29
576.547	2053.77
576.745	2291.34
576.943	2207.37
577.141	2057.87
577.339	1967.76
577.537	2055.82
577.735	2080.39
577.933	2010.76
578.131	1951.37
578.329	1928.85
578.527	1853.07
578.725	1863.31
578.923	1795.73
579.121	1820.3
579.319	1656.47
579.516	1742.48
579.714	1885.84
579.912	1808.02
580.11	1605.27
580.308	1730.19
580.506	1597.07
580.704	1488.53
580.901	1554.07
581.099	1693.33
581.297	1470.1
581.495	1529.49
581.692	1394.33
581.89	1521.3
582.088	1466
582.285	1451.67
582.483	1369.75
582.681	1371.8
582.878	1384.09
583.076	1330.84
583.274	1328.79
583.471	1480.34
583.669	1291.93
583.866	1185.43
584.064	1285.78
584.262	1179.29
584.459	1136.28
584.657	1189.53
584.854	1220.25
585.052	1263.26
585.249	1212.06
585.447	1210.01
585.644	917.15
585.841	1177.24
586.039	1181.34
586.236	1103.51
586.434	976.54
586.631	1040.03
586.828	990.88
587.026	1029.79
587.223	956.06
587.42	1025.69
587.618	956.06
587.815	966.3
588.012	980.64
588.21	984.73
588.407	1056.41
588.604	978.59
588.801	868
588.999	960.16
589.196	872.09
589.393	822.94
589.59	954.01
589.787	917.15
589.984	894.62
590.182	863.9
590.379	829.09
590.576	939.68
590.773	892.57
590.97	751.26
591.167	937.63
591.364	872.09
591.561	810.65
591.758	913.05
591.955	915.1
592.152	837.28
592.349	755.36
592.546	868
592.743	747.17
592.94	724.64
593.137	802.46
593.334	900.76
593.531	827.04
593.727	884.38
593.924	886.43
594.121	839.33
594.318	794.27
594.515	841.37
594.712	949.92
594.908	1044.12
595.105	769.69
595.302	870.05
595.499	958.11
595.696	1105.56
595.892	956.06
596.089	1007.26
596.286	906.91
596.482	1087.13
596.679	1011.36
596.876	962.2
597.072	1179.29
597.269	1023.64
597.466	982.68
597.662	1015.45
597.859	1134.23
598.055	1234.58
598.252	1345.17
598.448	1224.34
598.645	1427.09
598.841	1457.81
599.038	1568.4
599.234	1642.13
599.431	1547.92
599.627	1672.85
599.824	1689.23
600.02	1683.09
600.217	1726.1
600.413	1844.88
600.609	2053.77
600.806	2332.3
601.002	2090.63
601.198	2111.11
601.395	2297.48
601.591	2254.47
601.787	2487.94
601.984	2424.45
602.18	2537.09
602.376	2770.56
602.572	2844.29
602.769	2915.97
602.965	2958.97
603.161	3296.89
603.357	3276.41
603.553	3411.57
603.75	3346.04
603.946	3653.23
604.142	3679.86
604.338	3929.71
604.534	3866.22
604.73	4077.16
604.926	4144.75
605.122	4341.35
605.318	4462.18
605.514	4556.39
605.71	4666.98
605.906	5033.57
606.102	4851.3
606.298	5199.45
606.494	5338.71
606.69	5492.31
606.886	5637.72
607.082	5705.3
607.278	5862.99
607.474	6078.03
607.67	6252.11
607.866	6192.72
608.062	6733.38
608.257	6846.02
608.453	6833.73
608.649	7282.24
608.845	7343.67
609.041	7540.28
609.236	7925.3
609.432	8078.9
609.628	8228.4
609.824	8402.47
610.019	8629.8
610.215	8828.45
610.411	9156.13
610.606	9442.84
610.802	9639.45
610.998	9784.85
611.193	10024.47
611.389	10204.69
611.584	10542.6
611.78	10675.72
611.976	11191.81
612.171	11836.92
612.367	11740.66
612.562	12107.25
612.758	12365.29
612.953	12695.02
613.149	13098.47
613.344	13133.28
613.539	13876.69
613.735	14194.13
613.93	14542.28
614.126	14708.17
614.321	15392.19
614.517	15824.31
614.712	16127.41
614.907	16342.45
615.103	17061.29
615.298	17110.44
615.493	17524.13
615.688	17931.67
615.884	18974.09
616.079	18898.31
616.274	19574.14
616.47	19709.31
616.665	20559.22
616.86	21110.12
617.055	21605.73
617.25	21820.77
617.445	22744.4
617.641	23061.83
617.836	23872.83
618.031	23993.66
618.226	24999.21
618.421	25615.65
618.616	26090.78
618.811	26463.51
619.006	27462.92
619.201	27589.89
619.396	28646.65
619.591	28595.45
619.786	29764.84
619.981	30061.79
620.176	31333.58
620.371	31237.33
620.566	32072.9
620.761	32505.02
620.956	33608.87
621.151	33727.66
621.346	35013.78
621.541	34835.61
621.735	36428.93
621.93	36228.23
622.125	37203.06
622.32	37645.42
622.515	38812.76
622.709	38976.6
622.904	39568.46
623.099	40453.19
623.294	41419.83
623.488	41518.13
623.683	42785.82
623.878	43142.17
624.072	44016.65
624.267	44243.98
624.462	45194.23
624.656	45423.61
624.851	46572.52
625.046	47117.28
625.24	47217.63
625.435	48053.2
625.629	48655.3
625.824	49380.28
626.018	50172.85
626.213	49734.58
626.407	51125.15
626.602	51172.25
626.796	52349.84
626.991	52487.05
627.185	52953.99
627.38	52730.76
627.574	53310.33
627.768	53343.1
627.963	54111.09
628.157	53998.45
628.352	54827.88
628.546	53791.61
628.74	54811.49
628.935	53996.4
629.129	54432.62
629.323	53871.48
629.517	53658.49
629.712	53443.45
629.906	53224.32
630.1	52458.38
630.294	52388.75
630.489	51434.39
630.683	51467.16
630.877	49939.38
631.071	49822.64
631.265	49077.18
631.459	47969.23
631.653	46652.39
631.848	45902.83
632.042	44516.36
632.236	44033.03
632.43	42429.48
632.624	41561.14
632.818	40090.69
633.012	39013.46
633.206	37756.01
633.4	36928.63
633.594	35296.4
633.788	34524.32
633.982	33492.14
634.176	32679.1
634.369	30383.32
634.563	29902.05
634.757	28417.27
634.951	27849.99
635.145	26746.13
635.339	25435.43
635.533	24866.1
635.726	23907.65
635.92	22523.22
636.114	21794.14
636.308	20663.66
636.501	20082.04
636.695	19250.56
636.889	18355.6
637.083	17835.42
637.276	16788.91
637.47	16401.84
637.664	15685.05
637.857	15054.28
638.051	14486.99
638.244	13753.82
638.438	13286.88
638.632	12948.97
638.825	12074.48
639.019	11820.53
639.212	11081.22
639.406	10794.5
639.599	10284.56
639.793	10100.24
639.986	9504.28
640.18	9272.86
640.373	8953.38
640.567	8519.21
640.76	8134.19
640.954	7872.05
641.147	7511.61
641.34	7378.49
641.534	7079.49
641.727	6909.51
641.92	6624.84
642.114	6258.25
642.307	5987.92
642.5	5901.9
642.694	5598.81
642.887	5371.48
643.08	5178.97
643.273	4982.37
643.467	4879.97
643.66	4552.29
643.853	4372.07
644.046	4333.16
644.239	4011.63
644.432	3923.57
644.626	3636.85
644.819	3567.22
645.012	3665.52
645.205	3548.79
645.398	3270.26
645.591	3135.1
645.784	2965.12
645.977	2813.57
646.17	2756.22
646.363	2586.24
646.556	2584.2
646.749	2395.78
646.942	2295.43
647.135	2277
647.328	2248.33
647.521	2139.79
647.714	2100.87
647.907	1980.04
648.099	1916.56
648.292	1824.4
648.485	1781.39
648.678	1754.77
648.871	1623.7
649.064	1668.75
649.256	1500.82
649.449	1382.04
649.642	1373.85
649.835	1404.57
650.027	1302.17
650.22	1314.45
650.413	1195.67
650.605	1197.72
650.798	1080.99
650.991	1117.85
651.183	1101.47
651.376	1037.98
651.568	1017.5
651.761	972.44
651.954	1029.79
652.146	882.33
652.339	904.86
652.531	876.19
652.724	736.93
652.916	812.7
653.109	706.21
653.301	904.86
653.494	853.66
653.686	712.35
653.879	868
654.071	800.41
654.263	669.34
654.456	734.88
654.648	716.45
654.84	667.3
655.033	579.23
655.225	706.21
655.417	466.6
655.61	704.16
655.802	652.96
655.994	642.72
656.186	525.99
656.379	599.71
656.571	511.65
656.763	482.98
656.955	421.54
657.148	491.17
657.34	491.17
657.532	394.92
657.724	427.68
657.916	392.87
658.108	419.49
658.3	507.55
658.492	470.69
658.684	282.28
658.876	411.3
659.068	323.24
659.26	321.19
659.452	267.94
659.644	403.11
659.836	515.75
660.028	425.64
660.22	214.7
660.412	315.05
660.604	335.53
660.796	286.37
660.988	329.38
661.18	233.13
661.372	378.53
661.563	302.76
661.755	247.46
661.947	181.93
662.139	243.37
662.331	171.69
662.522	284.33
662.714	267.94
662.906	259.75
663.097	220.84
663.289	218.79
663.481	140.97
663.673	216.74
663.864	204.46
664.056	233.13
664.247	143.02
664.439	269.99
664.631	272.04
664.822	345.77
665.014	267.94
665.205	216.74
665.397	169.64
665.588	245.41
665.78	210.6
665.971	204.46
666.163	134.82
666.354	265.89
666.546	171.69
666.737	235.18
666.929	143.02
667.12	183.98
667.311	194.22
667.503	161.45
667.694	222.89
667.885	241.32
668.077	263.85
668.268	95.91
668.459	145.06
668.651	161.45
668.842	237.22
669.033	85.67
669.224	104.11
669.416	290.47
669.607	239.27
669.798	108.2
669.989	349.86
670.18	210.6
670.371	249.51
670.563	108.2
670.754	257.7
670.945	200.36
671.136	210.6
671.327	175.78
671.518	263.85
671.709	304.81
671.9	231.08
672.091	274.09
672.282	167.59
672.473	247.46
672.664	63.15
672.855	159.4
673.046	231.08
673.237	278.18
673.428	188.07
673.619	210.6
673.809	173.74
674	288.42
674.191	179.88
674.382	198.31
674.573	190.12
674.764	204.46
674.954	331.43
675.145	163.5
675.336	183.98
675.527	126.63
675.717	212.65
675.908	229.03
676.099	163.5
676.289	102.06
676.48	87.72
676.671	204.46
676.861	251.56
677.052	239.27
677.243	147.11
677.433	114.34
677.624	261.8
677.814	183.98
678.005	214.7
678.195	233.13
678.386	214.7
678.576	153.26
678.767	167.59
678.957	210.6
679.148	280.23
679.338	347.81
679.529	210.6
679.719	210.6
679.909	245.41
680.1	296.61
680.29	243.37
680.481	83.63
680.671	249.51
680.861	304.81
681.052	278.18
681.242	208.55
681.432	216.74
681.622	233.13
681.813	204.46
682.003	210.6
682.193	165.54
682.383	251.56
682.573	159.4
682.764	272.04
682.954	335.53
683.144	376.48
683.334	261.8
683.524	167.59
683.714	339.62
683.904	259.75
684.094	226.98
684.284	200.36
684.474	323.24
684.664	317.09
684.854	278.18
685.044	255.65
685.234	298.66
685.424	257.7
685.614	190.12
685.804	370.34
685.994	306.85
686.184	261.8
686.374	290.47
686.564	315.05
686.753	237.22
686.943	208.55
687.133	239.27
687.323	222.89
687.513	269.99
687.702	249.51
687.892	247.46
688.082	278.18
688.272	347.81
688.461	323.24
688.651	380.58
688.841	255.65
689.03	276.13
689.22	218.79
689.41	296.61
689.599	263.85
689.789	192.17
689.979	337.57
690.168	259.75
690.358	241.32
690.547	278.18
690.737	269.99
690.926	257.7
691.116	239.27
691.305	317.09
691.495	282.28
691.684	298.66
691.874	204.46
692.063	272.04
692.252	276.13
692.442	390.82
692.631	186.02
692.82	226.98
693.01	284.33
693.199	261.8
693.388	278.18
693.578	233.13
693.767	265.89
693.956	269.99
694.146	198.31
694.335	190.12
694.524	226.98
694.713	272.04
694.902	206.5
695.092	220.84
695.281	313
695.47	255.65
695.659	118.44
695.848	188.07
696.037	157.35
696.226	288.42
696.415	308.9
696.604	308.9
696.793	251.56
696.982	269.99
697.171	274.09
697.36	284.33
697.549	245.41
697.738	229.03
697.927	290.47
698.116	155.3
698.305	255.65
698.494	319.14
698.683	269.99
698.872	386.72
699.061	179.88
699.25	204.46
699.438	188.07
699.627	188.07
699.816	411.3
700.005	93.87
700.193	173.74
700.382	272.04
700.571	261.8
700.76	194.22
700.948	263.85
701.137	300.71
701.326	319.14
701.514	210.6
701.703	226.98
701.892	173.74
702.08	429.73
702.269	239.27
702.457	106.15
702.646	282.28
702.834	220.84
703.023	362.15
703.212	251.56
703.4	208.55
703.589	216.74
703.777	161.45
703.965	247.46
704.154	269.99
704.342	138.92
704.531	274.09
704.719	167.59
704.907	351.91
705.096	175.78
705.284	165.54
705.472	177.83
705.661	276.13
705.849	329.38
706.037	372.39
706.226	274.09
706.414	249.51
706.602	192.17
706.79	302.76
706.979	208.55
707.167	245.41
707.355	140.97
707.543	218.79
707.731	253.61
707.919	194.22
708.107	269.99
708.296	143.02
708.484	118.44
708.672	259.75
708.86	186.02
709.048	319.14
709.236	202.41
709.424	382.63
709.612	245.41
709.8	124.58
709.988	149.16
710.176	353.96
710.364	313
710.551	155.3
710.739	212.65
710.927	194.22
711.115	292.52
711.303	255.65
711.491	368.29
711.679	265.89
711.866	216.74
712.054	220.84
712.242	292.52
712.43	335.53
712.617	226.98
712.805	339.62
712.993	194.22
713.181	143.02
713.368	337.57
713.556	241.32
713.744	237.22
713.931	462.5
714.119	335.53
714.306	249.51
714.494	179.88
714.682	272.04
714.869	186.02
715.057	308.9
715.244	116.39
715.432	306.85
715.619	175.78
715.807	190.12
715.994	175.78
716.182	282.28
716.369	282.28
716.556	313
716.744	102.06
716.931	116.39
717.119	304.81
717.306	255.65
717.493	253.61
717.681	171.69
717.868	315.05
718.055	200.36
718.242	251.56
718.43	267.94
718.617	245.41
718.804	269.99
718.991	325.29
719.179	292.52
719.366	347.81
719.553	370.34
719.74	196.26
719.927	290.47
720.114	302.76
720.301	194.22
720.488	124.58
720.676	157.35
720.863	360.1
721.05	409.25
721.237	347.81
721.424	341.67
721.611	290.47
721.798	222.89
721.985	235.18
722.172	239.27
722.358	173.74
722.545	276.13
722.732	356.01
722.919	433.83
723.106	304.81
723.293	259.75
723.48	272.04
723.667	231.08
723.853	300.71
724.04	257.7
724.227	337.57
724.414	202.41
724.6	267.94
724.787	349.86
724.974	519.84
725.161	253.61
725.347	235.18
725.534	313
725.72	308.9
725.907	306.85
726.094	378.53
726.28	247.46
726.467	282.28
726.653	278.18
726.84	358.05
727.027	394.92
727.213	274.09
727.4	321.19
727.586	274.09
727.773	339.62
727.959	339.62
728.145	280.23
728.332	343.72
728.518	171.69
728.705	284.33
728.891	333.48
729.077	337.57
729.264	315.05
729.45	186.02
729.636	419.49
729.823	366.25
730.009	317.09
730.195	323.24
730.382	329.38
730.568	212.65
730.754	364.2
730.94	214.7
731.126	249.51
731.313	374.44
731.499	214.7
731.685	364.2
731.871	321.19
732.057	292.52
732.243	358.05
732.429	255.65
732.615	411.3
732.801	253.61
732.987	304.81
733.173	310.95
733.359	200.36
733.545	331.43
733.731	188.07
733.917	331.43
734.103	278.18
734.289	394.92
734.475	206.5
734.661	446.12
734.847	317.09
735.033	315.05
735.219	384.68
735.404	313
735.59	229.03
735.776	345.77
735.962	302.76
736.148	366.25
736.333	341.67
736.519	313
736.705	376.48
736.89	413.35
737.076	345.77
737.262	253.61
737.447	255.65
737.633	224.94
737.819	331.43
738.004	302.76
738.19	370.34
738.375	407.2
738.561	339.62
738.747	356.01
738.932	214.7
739.118	462.5
739.303	360.1
739.489	356.01
739.674	241.32
739.859	233.13
740.045	329.38
740.23	235.18
740.416	210.6
740.601	300.71
740.786	337.57
740.972	196.26
741.157	276.13
741.342	231.08
741.528	153.26
741.713	308.9
741.898	231.08
742.084	206.5
742.269	321.19
742.454	403.11
742.639	356.01
742.824	253.61
743.01	382.63
743.195	362.15
743.38	267.94
743.565	286.37
743.75	247.46
743.935	339.62
744.12	386.72
744.305	167.59
744.49	347.81
744.675	237.22
744.86	343.72
745.045	356.01
745.23	243.37
745.415	210.6
745.6	358.05
745.785	243.37
745.97	392.87
746.155	325.29
746.34	325.29
746.525	300.71
746.71	405.16
746.895	278.18
747.079	192.17
747.264	190.12
747.449	399.01
747.634	347.81
747.819	216.74
748.003	249.51
748.188	245.41
748.373	288.42
748.557	245.41
748.742	308.9
748.927	343.72
749.111	253.61
749.296	188.07
749.481	345.77
749.665	208.55
749.85	175.78
750.034	372.39
750.219	304.81
750.404	253.61
750.588	226.98
750.773	171.69
750.957	140.97
751.141	216.74
751.326	343.72
751.51	177.83
751.695	245.41
751.879	249.51
752.064	290.47
752.248	194.22
752.432	325.29
752.617	284.33
752.801	329.38
752.985	233.13
753.17	310.95
753.354	241.32
753.538	257.7
753.722	138.92
753.907	198.31
754.091	157.35
754.275	325.29
754.459	93.87
754.643	173.74
754.828	274.09
755.012	143.02
755.196	134.82
755.38	151.21
755.564	206.5
755.748	245.41
755.932	218.79
756.116	249.51
756.3	210.6
756.484	102.06
756.668	308.9
756.852	67.24
757.036	151.21
757.22	183.98
757.404	81.58
757.588	134.82
757.772	282.28
757.956	165.54
758.14	222.89
758.323	28.33
758.507	136.87
758.691	143.02
758.875	243.37
759.059	368.29
759.242	126.63
759.426	196.26
759.61	179.88
759.794	44.71
759.977	167.59
760.161	282.28
760.345	274.09
760.528	194.22
760.712	210.6
760.895	157.35
761.079	155.3
761.263	102.06
761.446	95.91
761.63	222.89
761.813	290.47
761.997	132.78
762.18	93.87
762.364	159.4
762.547	48.81
762.731	120.49
762.914	136.87
763.098	155.3
763.281	143.02
763.464	108.2
763.648	210.6
763.831	116.39
764.015	153.26
764.198	169.64
764.381	128.68
764.564	151.21
764.748	112.3
764.931	186.02
765.114	44.71
765.297	253.61
765.481	52.91
765.664	69.29
765.847	81.58
766.03	179.88
766.213	151.21
766.397	91.82
766.58	83.63
766.763	241.32
766.946	128.68
767.129	46.76
767.312	48.81
767.495	44.71
767.678	57
767.861	130.73
768.044	167.59
768.227	161.45
768.41	93.87
768.593	149.16
768.776	114.34
768.959	71.34
769.142	226.98
769.324	114.34
769.507	91.82
769.69	161.45
769.873	42.67
770.056	292.52
770.239	77.48
770.421	196.26
770.604	124.58
770.787	81.58
770.97	122.54
771.152	24.23
771.335	159.4
771.518	75.43
771.7	85.67
771.883	278.18
772.066	93.87
772.248	100.01
772.431	224.94
772.613	147.11
772.796	91.82
772.978	118.44
773.161	206.5
773.343	52.91
773.526	30.38
773.708	-72.02
773.891	-6.49
774.073	59.05
774.256	52.91
774.438	220.84
774.621	93.87
774.803	79.53
774.985	-4.44
775.168	239.27
775.35	40.62
775.532	95.91
775.715	28.33
775.897	69.29
776.079	77.48
776.261	147.11
776.444	67.24
776.626	95.91
776.808	65.19
776.99	-10.58
777.173	71.34
777.355	112.3
777.537	63.15
777.719	147.11
777.901	13.99
778.083	40.62
778.265	-10.58
778.447	130.73
778.629	5.8
778.811	87.72
778.993	153.26
779.175	95.91
779.357	149.16
779.539	-31.06
779.721	30.38
779.903	75.43
780.085	87.72
780.267	63.15
780.449	63.15
780.631	75.43
780.812	112.3
780.994	38.57
781.176	54.95
781.358	106.15
781.54	97.96
781.721	71.34
781.903	85.67
782.085	-2.39
782.267	153.26
782.448	20.14
782.63	34.47
782.812	77.48
782.993	104.11
783.175	18.09
783.357	11.95
783.538	30.38
783.72	28.33
783.901	34.47
784.083	48.81
784.264	50.86
784.446	-4.44
784.627	-37.2
784.809	20.14
784.99	50.86
785.172	128.68
785.353	106.15
785.535	83.63
785.716	1.71
785.897	30.38
786.079	67.24
786.26	136.87
786.441	97.96
786.623	-37.2
786.804	5.8
786.985	22.19
787.167	75.43
787.348	40.62
787.529	85.67
787.71	110.25
787.891	143.02
788.073	-16.73
788.254	-84.31
788.435	198.31
788.616	48.81
788.797	-10.58
788.978	46.76
789.159	59.05
789.34	89.77
789.522	67.24
789.703	16.04
789.884	114.34
790.065	100.01
790.246	173.74
790.427	63.15
790.607	126.63
790.788	108.2
790.969	79.53
791.15	83.63
791.331	-2.39
791.512	-14.68
791.693	48.81
791.874	-31.06
792.054	231.08
792.235	138.92
792.416	-33.11
792.597	18.09
792.778	77.48
792.958	130.73
793.139	126.63
793.32	40.62
793.5	-110.93
793.681	85.67
793.862	87.72
794.042	67.24
794.223	-39.25
794.404	-51.54
794.584	-33.11
794.765	93.87
794.945	52.91
795.126	118.44
795.306	173.74
795.487	59.05
795.667	36.52
795.848	57
796.028	-4.44
796.209	24.23
796.389	106.15
796.57	-35.16
796.75	-41.3
796.93	79.53
797.111	16.04
797.291	61.1
797.471	91.82
797.652	3.75
797.832	-31.06
798.012	63.15
798.192	9.9
798.373	-67.92
798.553	-16.73
798.733	79.53
798.913	-6.49
799.093	-6.49
799.274	89.77
799.454	67.24
799.634	153.26
799.814	153.26
799.994	79.53
800.174	54.95
800.354	40.62
800.534	-24.92
800.714	95.91
800.894	1.71
801.074	-76.12
801.254	30.38
801.434	91.82
801.614	26.28
801.794	-2.39
801.974	1674.9
802.154	-10.58
802.334	81.58
802.514	-59.73
802.693	67.24
802.873	9.9
803.053	108.2
803.233	67.24
803.413	40.62
803.592	85.67
803.772	-20.82
803.952	104.11
804.131	-92.5
804.311	9.9
804.491	151.21
804.67	-69.97
804.85	-90.45
805.03	108.2
805.209	143.02
805.389	44.71
805.568	38.57
805.748	-6.49
805.928	-4.44
806.107	3.75
806.287	42.67
806.466	118.44
806.646	7.85
806.825	44.71
807.004	-43.35
807.184	169.64
807.363	5.8
807.543	20.14
807.722	-82.26
807.901	77.48
808.081	104.11
808.26	-170.32
808.439	18.09
808.619	65.19
808.798	-49.49
808.977	36.52
809.156	97.96
809.336	-18.77
809.515	79.53
809.694	-59.73
809.873	-4.44
810.052	120.49
810.231	140.97
810.411	48.81
810.59	5.8
810.769	-2.39
810.948	65.19
811.127	-80.21
811.306	-45.4
811.485	-43.35
811.664	167.59
811.843	75.43
812.022	48.81
812.201	-16.73
812.38	-29.01
812.559	46.76
812.737	50.86
812.916	-96.6
813.095	42.67
813.274	38.57
813.453	69.29
813.632	38.57
813.811	59.05
813.989	52.91
814.168	77.48
814.347	-39.25
814.526	71.34
814.704	155.3
814.883	104.11
815.062	-80.21
815.24	36.52
815.419	-24.92
815.598	85.67
815.776	-74.07
815.955	-26.96
816.133	-133.46
816.312	-2.39
816.49	-24.92
816.669	20.14
816.847	32.43
817.026	1.71
817.204	-55.64
817.383	-16.73
817.561	-29.01
817.74	52.91
817.918	59.05
818.097	9.9
818.275	-41.3
818.453	85.67
818.632	87.72
818.81	32.43
818.988	-10.58
819.167	26.28
819.345	32.43
819.523	-63.83
819.701	48.81
819.879	54.95
820.058	5.8
820.236	36.52
820.414	7.85
820.592	-88.4
820.77	3.75
820.948	-22.87
821.127	-8.53
821.305	32.43
821.483	-92.5
821.661	124.58
821.839	13.99
822.017	3.75
822.195	16.04
822.373	100.01
822.551	3.75
822.729	30.38
822.907	48.81
823.085	87.72
823.262	75.43
823.44	-12.63
823.618	-24.92
823.796	5.8
823.974	-6.49
824.152	5.8
824.329	-18.77
824.507	73.39
824.685	75.43
824.863	16.04
825.04	-33.11
825.218	61.1
825.396	-18.77
825.574	44.71
825.751	79.53
825.929	50.86
826.107	-67.92
826.284	-0.34
826.462	89.77
826.639	-10.58
826.817	-22.87
826.994	-20.82
827.172	-55.64
827.349	159.4
827.527	22.19
827.704	24.23
827.882	67.24
828.059	-61.78
828.237	-6.49
828.414	75.43
828.591	-137.56
828.769	-37.2
828.946	-69.97
829.124	54.95
829.301	132.78
829.478	54.95
829.655	13.99
829.833	-51.54
830.01	-104.79
830.187	26.28
830.364	42.67
830.542	30.38
830.719	128.68
830.896	-31.06
831.073	-8.53
831.25	16.04
831.427	22.19
831.604	-14.68
831.782	-35.16
831.959	59.05
832.136	36.52
832.313	50.86
832.49	-24.92
832.667	-12.63
832.844	-51.54
833.021	106.15
833.198	16.04
833.374	20.14
833.551	24.23
833.728	-16.73
833.905	40.62
834.082	-47.44
834.259	32.43
834.436	143.02
834.612	-26.96
834.789	95.91
834.966	13.99
835.143	73.39
835.319	-100.69
835.496	89.77
835.673	40.62
835.85	16.04
836.026	28.33
836.203	42.67
836.38	-63.83
836.556	1.71
836.733	-41.3
836.909	79.53
837.086	-47.44
837.262	-72.02
837.439	-10.58
837.616	-47.44
837.792	-51.54
837.968	1.71
838.145	-96.6
838.321	-41.3
838.498	-59.73
838.674	46.76
838.851	-8.53
839.027	-53.59
839.203	48.81
839.38	50.86
839.556	-43.35
839.732	61.1
839.909	13.99
840.085	3.75
840.261	-59.73
840.437	-0.34
840.614	-47.44
840.79	44.71
840.966	26.28
841.142	57
841.318	-31.06
841.494	-2.39
841.671	100.01
841.847	1.71
842.023	-110.93
842.199	77.48
842.375	167.59
842.551	-127.32
842.727	-51.54
842.903	79.53
843.079	-92.5
843.255	151.21
843.431	5.8
843.607	54.95
843.783	-69.97
843.959	67.24
844.134	48.81
844.31	104.11
844.486	-100.69
844.662	52.91
844.838	28.33
845.013	65.19
845.189	52.91
845.365	3.75
845.541	-4.44
845.716	-18.77
845.892	93.87
846.068	-4.44
846.244	-43.35
846.419	102.06
846.595	-104.79
846.77	-26.96
846.946	73.39
847.122	-29.01
847.297	-49.49
847.473	128.68
847.648	-96.6
847.824	44.71
847.999	-78.16
848.175	-0.34
848.35	24.23
848.526	-0.34
848.701	108.2
848.876	65.19
849.052	128.68
849.227	44.71
849.403	-24.92
849.578	61.1
849.753	26.28
849.929	65.19
850.104	-123.22
850.279	-59.73
850.454	112.3
850.63	79.53
850.805	13.99
850.98	-8.53
851.155	24.23
851.33	100.01
851.505	-94.55
851.681	155.3
851.856	-43.35
852.031	126.63
852.206	87.72
852.381	-72.02
852.556	24.23
852.731	57
852.906	48.81
853.081	116.39
853.256	97.96
853.431	-31.06
853.606	-86.36
853.781	63.15
853.956	-110.93
854.131	7.85
854.305	-14.68
854.48	-74.07
854.655	34.47
854.83	-6.49
855.005	22.19
855.18	5.8
855.354	18.09
855.529	-0.34
855.704	-24.92
855.879	-51.54
856.053	-45.4
856.228	59.05
856.403	-98.64
856.577	73.39
856.752	-100.69
856.926	28.33
857.101	46.76
857.276	-24.92
857.45	69.29
857.625	69.29
857.799	11.95
857.974	-41.3
858.148	-86.36
858.323	48.81
858.497	-67.92
858.672	-49.49
858.846	-14.68
859.02	-18.77
859.195	26.28
859.369	-72.02
859.543	1.71
859.718	-8.53
859.892	54.95
860.066	5.8
860.241	-31.06
860.415	-37.2
860.589	-49.49
860.763	89.77
860.938	-10.58
861.112	24.23
861.286	-2.39
861.46	-69.97
861.634	1.71
861.808	177.83
861.982	-43.35
862.157	-129.36
862.331	-18.77
862.505	-115.03
862.679	-12.63
862.853	11.95
863.027	-57.68
863.201	106.15
863.375	-24.92
863.549	9.9
863.722	67.24
863.896	149.16
864.07	-106.84
864.244	-24.92
864.418	13.99
864.592	-14.68
864.766	-24.92
864.939	38.57
865.113	-39.25
865.287	42.67
865.461	-12.63
865.634	-45.4
865.808	71.34
865.982	-22.87
866.156	-29.01
866.329	-94.55
866.503	24.23
866.676	9.9
866.85	65.19
867.024	-8.53
867.197	42.67
867.371	28.33
867.544	38.57
867.718	-88.4
867.891	52.91
868.065	-39.25
868.238	-4.44
868.412	81.58
868.585	79.53
868.759	-16.73
868.932	-47.44
869.105	-80.21
869.279	81.58
869.452	-14.68
869.625	83.63
869.799	11.95
869.972	-168.27
870.145	28.33
870.319	22.19
870.492	-35.16
870.665	-39.25
870.838	-67.92
871.011	-137.56
871.185	-51.54
871.358	-55.64
871.531	30.38
871.704	-0.34
871.877	30.38
872.05	73.39
872.223	-180.56
872.396	26.28
872.569	85.67
872.742	-41.3
872.915	59.05
873.088	-24.92
873.261	-45.4
873.434	91.82
873.607	-33.11
873.78	73.39
873.953	-67.92
874.126	46.76
874.299	11.95
874.471	7.85
874.644	-72.02
874.817	-10.58
874.99	120.49
875.163	-4.44
875.335	67.24
875.508	-98.64
875.681	114.34
875.853	-67.92
876.026	-6.49
876.199	24.23
876.371	34.47
876.544	-43.35
876.717	3.75
876.889	-72.02
877.062	22.19
877.234	-108.88
877.407	28.33
877.579	22.19
877.752	-47.44
877.924	-22.87
878.097	20.14
878.269	22.19
878.442	-18.77
878.614	34.47
878.786	34.47
878.959	24.23
879.131	18.09
879.303	-90.45
879.476	77.48
879.648	69.29
879.82	34.47
879.993	13.99
880.165	-16.73
880.337	-76.12
880.509	44.71
880.681	-45.4
880.854	-20.82
881.026	91.82
881.198	97.96
881.37	20.14
881.542	-2.39
881.714	-31.06
881.886	3.75
882.058	20.14
882.23	-22.87
882.402	-31.06
882.574	36.52
882.746	54.95
882.918	93.87
883.09	81.58
883.262	-16.73
883.434	46.76
883.606	-112.98
883.778	-43.35
883.95	202.41
884.122	-102.74
884.293	42.67
884.465	5.8
884.637	22.19
884.809	-49.49
884.98	-31.06
885.152	36.52
885.324	24.23
885.496	-29.01
885.667	-33.11
885.839	-22.87
886.011	95.91
886.182	42.67
886.354	91.82
886.525	-0.34
886.697	-26.96
886.869	-67.92
887.04	-22.87
887.212	151.21
887.383	128.68
887.555	1.71
887.726	-26.96
887.897	-18.77
888.069	-41.3
888.24	61.1
888.412	-12.63
888.583	-57.68
888.754	-67.92
888.926	-100.69
889.097	-29.01
889.268	-102.74
889.44	48.81
889.611	-92.5
889.782	-119.12
889.953	-59.73
890.125	108.2
890.296	-33.11
890.467	-31.06
890.638	-6.49
890.809	20.14
890.98	20.14
891.151	9.9
891.323	38.57
891.494	-61.78
891.665	11.95
891.836	11.95
892.007	-41.3
892.178	44.71
892.349	-24.92
892.52	-84.31
892.691	-63.83
892.862	-78.16
893.032	-67.92
893.203	-43.35
893.374	-4.44
893.545	116.39
893.716	-12.63
893.887	89.77
894.057	-35.16
894.228	11.95
894.399	-69.97
894.57	36.52
894.74	-22.87
894.911	97.96
895.082	-65.88
895.253	-51.54
895.423	34.47
895.594	57
895.764	63.15
895.935	-86.36
896.106	52.91
896.276	-16.73
896.447	24.23
896.617	-137.56
896.788	-65.88
896.958	-43.35
897.129	-26.96
897.299	-45.4
897.47	57
897.64	140.97
897.81	-72.02
897.981	79.53
898.151	-26.96
898.322	79.53
898.492	85.67
898.662	3.75
898.832	-31.06
899.003	-35.16
899.173	165.54
899.343	-147.8
899.513	-43.35
