Data from USB4F104151__41__10-42-51-579.txt Node

Date: Wed Feb 26 10:42:51 EST 2025
User: louis
Spectrometer: USB4F10415
Trigger mode: 4
Integration Time (sec): 1.000000E-1
Scans to average: 1
Electric dark correction enabled: true
Nonlinearity correction enabled: false
Boxcar width: 0
XAxis mode: Wavelengths
Number of Pixels in Spectrum: 3648
>>>>>Begin Spectral Data<<<<<
178.204	-351.4
178.424	-351.4
178.644	-351.4
178.864	-439.46
179.084	-357.54
179.304	-17.58
179.524	-68.78
179.744	-31.91
179.964	-33.96
180.184	68.44
180.404	41.81
180.624	-38.06
180.844	21.33
181.064	-36.01
181.283	56.15
181.503	31.57
181.723	7
181.943	-40.11
182.163	238.42
182.383	64.34
182.602	101.2
182.822	160.59
183.042	66.39
183.262	72.53
183.482	54.1
183.701	27.48
183.921	29.52
184.141	-58.54
184.361	93.01
184.58	189.27
184.8	78.68
185.02	19.29
185.239	125.78
185.459	101.2
185.679	164.69
185.898	19.29
186.118	66.39
186.338	-15.53
186.557	179.03
186.777	-46.25
186.997	-5.29
187.216	62.29
187.436	197.46
187.655	45.91
187.875	105.3
188.095	35.67
188.314	181.07
188.534	117.59
188.753	-17.58
188.973	140.12
189.192	183.12
189.412	-5.29
189.631	-17.58
189.851	70.48
190.07	154.45
190.29	-85.16
190.509	43.86
190.729	35.67
190.948	181.07
191.168	189.27
191.387	101.2
191.607	50
191.826	47.96
192.045	47.96
192.265	27.48
192.484	62.29
192.704	13.14
192.923	-29.87
193.142	205.65
193.362	150.36
193.581	97.11
193.8	66.39
194.02	154.45
194.239	19.29
194.458	13.14
194.678	11.09
194.897	31.57
195.116	74.58
195.335	97.11
195.555	154.45
195.774	58.2
195.993	154.45
196.212	0.85
196.432	-64.68
196.651	-42.15
196.87	-1.19
197.089	258.9
197.308	123.73
197.528	86.87
197.747	-93.35
197.966	74.58
198.185	205.65
198.404	-144.55
198.623	60.24
198.842	76.63
199.062	80.72
199.281	125.78
199.5	60.24
199.719	37.72
199.938	150.36
200.157	99.16
200.376	121.68
200.595	45.91
200.814	43.86
201.033	52.05
201.252	131.92
201.471	131.92
201.69	72.53
201.909	52.05
202.128	29.52
202.347	50
202.566	-11.43
202.785	-7.34
203.004	-17.58
203.223	250.71
203.442	58.2
203.661	-40.11
203.879	21.33
204.098	93.01
204.317	-11.43
204.536	95.06
204.755	117.59
204.974	129.88
205.193	86.87
205.411	156.5
205.63	136.02
205.849	115.54
206.068	-40.11
206.287	72.53
206.505	101.2
206.724	0.85
206.943	-42.15
207.162	-23.72
207.381	62.29
207.599	-5.29
207.818	66.39
208.037	25.43
208.255	-23.72
208.474	88.92
208.693	13.14
208.911	60.24
209.13	127.83
209.349	97.11
209.567	144.21
209.786	125.78
210.005	117.59
210.223	43.86
210.442	-25.77
210.661	43.86
210.879	15.19
211.098	76.63
211.316	27.48
211.535	144.21
211.753	60.24
211.972	103.25
212.191	76.63
212.409	72.53
212.628	74.58
212.846	23.38
213.065	74.58
213.283	109.4
213.502	52.05
213.72	50
213.938	76.63
214.157	86.87
214.375	95.06
214.594	-19.63
214.812	88.92
215.031	0.85
215.249	93.01
215.467	19.29
215.686	68.44
215.904	19.29
216.122	70.48
216.341	127.83
216.559	138.07
216.778	80.72
216.996	195.41
217.214	7
217.432	15.19
217.651	39.76
217.869	68.44
218.087	113.49
218.306	-52.39
218.524	15.19
218.742	35.67
218.96	148.31
219.179	-13.48
219.397	45.91
219.615	195.41
219.833	117.59
220.051	-68.78
220.27	144.21
220.488	70.48
220.706	11.09
220.924	-36.01
221.142	15.19
221.36	62.29
221.578	7
221.796	62.29
222.015	156.5
222.233	107.35
222.451	131.92
222.669	13.14
222.887	60.24
223.105	7
223.323	7
223.541	-31.91
223.759	43.86
223.977	0.85
224.195	236.37
224.413	144.21
224.631	93.01
224.849	60.24
225.067	248.66
225.285	52.05
225.503	-36.01
225.721	-58.54
225.939	95.06
226.157	39.76
226.375	295.76
226.592	33.62
226.81	56.15
227.028	99.16
227.246	154.45
227.464	45.91
227.682	129.88
227.9	4.95
228.117	-7.34
228.335	107.35
228.553	58.2
228.771	45.91
228.989	27.48
229.206	109.4
229.424	43.86
229.642	-19.63
229.86	-5.29
230.077	84.82
230.295	21.33
230.513	140.12
230.731	58.2
230.948	60.24
231.166	195.41
231.384	-29.87
231.601	41.81
231.819	224.08
232.037	4.95
232.254	-17.58
232.472	64.34
232.689	-21.67
232.907	187.22
233.125	11.09
233.342	-36.01
233.56	29.52
233.777	54.1
233.995	17.24
234.213	101.2
234.43	33.62
234.648	72.53
234.865	56.15
235.083	37.72
235.3	70.48
235.518	97.11
235.735	107.35
235.953	125.78
236.17	-3.24
236.388	50
236.605	127.83
236.822	93.01
237.04	117.59
237.257	97.11
237.475	-9.39
237.692	50
237.909	72.53
238.127	11.09
238.344	136.02
238.562	52.05
238.779	-17.58
238.996	-9.39
239.214	9.05
239.431	140.12
239.648	4.95
239.865	115.54
240.083	35.67
240.3	41.81
240.517	84.82
240.735	174.93
240.952	140.12
241.169	78.68
241.386	45.91
241.603	60.24
241.821	-93.35
242.038	97.11
242.255	88.92
242.472	-19.63
242.689	58.2
242.907	72.53
243.124	66.39
243.341	-58.54
243.558	33.62
243.775	-81.07
243.992	-101.55
244.209	64.34
244.426	144.21
244.643	13.14
244.86	23.38
245.078	60.24
245.295	35.67
245.512	29.52
245.729	58.2
245.946	95.06
246.163	58.2
246.38	11.09
246.597	29.52
246.814	-36.01
247.031	29.52
247.248	4.95
247.464	148.31
247.681	39.76
247.898	54.1
248.115	56.15
248.332	15.19
248.549	166.74
248.766	142.16
248.983	168.79
249.2	-7.34
249.417	54.1
249.633	-5.29
249.85	93.01
250.067	95.06
250.284	17.24
250.501	121.68
250.717	86.87
250.934	17.24
251.151	-25.77
251.368	43.86
251.585	45.91
251.801	52.05
252.018	-15.53
252.235	131.92
252.451	-58.54
252.668	-40.11
252.885	107.35
253.102	-7.34
253.318	11.09
253.535	-3.24
253.752	27.48
253.968	-36.01
254.185	-15.53
254.401	99.16
254.618	-9.39
254.835	-33.96
255.051	197.46
255.268	125.78
255.484	62.29
255.701	0.85
255.917	66.39
256.134	13.14
256.351	9.05
256.567	-76.97
256.784	138.07
257	-79.02
257.217	29.52
257.433	138.07
257.65	17.24
257.866	144.21
258.082	-60.59
258.299	15.19
258.515	50
258.732	50
258.948	-15.53
259.165	47.96
259.381	9.05
259.597	131.92
259.814	97.11
260.03	37.72
260.246	86.87
260.463	127.83
260.679	111.44
260.895	123.73
261.112	111.44
261.328	80.72
261.544	54.1
261.761	121.68
261.977	-13.48
262.193	-38.06
262.409	39.76
262.626	33.62
262.842	43.86
263.058	21.33
263.274	84.82
263.49	58.2
263.707	136.02
263.923	60.24
264.139	60.24
264.355	68.44
264.571	142.16
264.787	95.06
265.004	138.07
265.22	105.3
265.436	-15.53
265.652	25.43
265.868	-17.58
266.084	-23.72
266.3	80.72
266.516	25.43
266.732	56.15
266.948	-11.43
267.164	15.19
267.38	148.31
267.596	68.44
267.812	181.07
268.028	82.77
268.244	15.19
268.46	39.76
268.676	4.95
268.892	17.24
269.108	-48.3
269.324	31.57
269.54	-19.63
269.756	138.07
269.972	-21.67
270.188	7
270.403	-11.43
270.619	11.09
270.835	50
271.051	39.76
271.267	68.44
271.483	50
271.698	150.36
271.914	-52.39
272.13	21.33
272.346	39.76
272.562	39.76
272.777	160.59
272.993	35.67
273.209	29.52
273.425	70.48
273.64	13.14
273.856	105.3
274.072	-23.72
274.287	-19.63
274.503	203.6
274.719	66.39
274.934	41.81
275.15	-91.31
275.366	88.92
275.581	-58.54
275.797	88.92
276.012	56.15
276.228	50
276.444	84.82
276.659	123.73
276.875	50
277.09	50
277.306	66.39
277.521	131.92
277.737	41.81
277.952	172.88
278.168	76.63
278.383	66.39
278.599	99.16
278.814	82.77
279.03	-9.39
279.245	95.06
279.461	19.29
279.676	82.77
279.892	-23.72
280.107	4.95
280.322	-31.91
280.538	107.35
280.753	-15.53
280.969	129.88
281.184	99.16
281.399	84.82
281.615	78.68
281.83	103.25
282.045	-27.82
282.26	64.34
282.476	21.33
282.691	109.4
282.906	86.87
283.122	125.78
283.337	11.09
283.552	2.9
283.767	-60.59
283.983	84.82
284.198	70.48
284.413	82.77
284.628	-70.83
284.843	123.73
285.058	154.45
285.274	21.33
285.489	-5.29
285.704	168.79
285.919	-93.35
286.134	78.68
286.349	99.16
286.564	27.48
286.779	207.7
286.995	29.52
287.21	-76.97
287.425	99.16
287.64	-40.11
287.855	80.72
288.07	-7.34
288.285	150.36
288.5	82.77
288.715	58.2
288.93	-9.39
289.145	50
289.36	164.69
289.575	-27.82
289.79	62.29
290.004	56.15
290.219	93.01
290.434	9.05
290.649	60.24
290.864	-15.53
291.079	76.63
291.294	41.81
291.509	113.49
291.724	45.91
291.938	-11.43
292.153	82.77
292.368	-1.19
292.583	58.2
292.798	95.06
293.012	111.44
293.227	111.44
293.442	21.33
293.657	111.44
293.871	33.62
294.086	97.11
294.301	199.51
294.516	109.4
294.73	56.15
294.945	7
295.16	37.72
295.374	162.64
295.589	193.36
295.804	-11.43
296.018	86.87
296.233	142.16
296.447	54.1
296.662	-27.82
296.877	62.29
297.091	95.06
297.306	47.96
297.52	41.81
297.735	58.2
297.949	35.67
298.164	47.96
298.378	72.53
298.593	-23.72
298.807	4.95
299.022	13.14
299.236	150.36
299.451	56.15
299.665	80.72
299.88	27.48
300.094	111.44
300.309	31.57
300.523	39.76
300.737	105.3
300.952	127.83
301.166	154.45
301.381	-15.53
301.595	37.72
301.809	58.2
302.024	50
302.238	-105.64
302.452	160.59
302.667	76.63
302.881	207.7
303.095	119.64
303.309	58.2
303.524	35.67
303.738	25.43
303.952	25.43
304.166	-3.24
304.381	-76.97
304.595	170.83
304.809	7
305.023	41.81
305.237	27.48
305.452	54.1
305.666	58.2
305.88	121.68
306.094	103.25
306.308	52.05
306.522	82.77
306.736	140.12
306.95	136.02
307.164	-11.43
307.379	82.77
307.593	162.64
307.807	164.69
308.021	179.03
308.235	209.75
308.449	-29.87
308.663	74.58
308.877	228.18
309.091	60.24
309.305	125.78
309.519	-93.35
309.733	150.36
309.947	-60.59
310.161	82.77
310.374	23.38
310.588	209.75
310.802	-148.65
311.016	41.81
311.23	95.06
311.444	-48.3
311.658	66.39
311.872	52.05
312.085	148.31
312.299	136.02
312.513	84.82
312.727	93.01
312.941	11.09
313.154	105.3
313.368	60.24
313.582	21.33
313.796	9.05
314.009	109.4
314.223	121.68
314.437	90.96
314.651	52.05
314.864	27.48
315.078	23.38
315.292	-68.78
315.505	54.1
315.719	62.29
315.933	31.57
316.146	35.67
316.36	35.67
316.573	154.45
316.787	140.12
317.001	50
317.214	-5.29
317.428	119.64
317.641	-29.87
317.855	7
318.068	93.01
318.282	29.52
318.495	90.96
318.709	76.63
318.922	15.19
319.136	164.69
319.349	174.93
319.563	4.95
319.776	109.4
319.99	-42.15
320.203	127.83
320.417	76.63
320.63	119.64
320.843	142.16
321.057	95.06
321.27	-23.72
321.483	74.58
321.697	121.68
321.91	39.76
322.124	62.29
322.337	86.87
322.55	-7.34
322.763	37.72
322.977	23.38
323.19	-46.25
323.403	-31.91
323.617	78.68
323.83	29.52
324.043	58.2
324.256	90.96
324.469	-3.24
324.683	207.7
324.896	-3.24
325.109	15.19
325.322	-68.78
325.535	111.44
325.748	111.44
325.962	21.33
326.175	123.73
326.388	86.87
326.601	19.29
326.814	25.43
327.027	72.53
327.24	228.18
327.453	-13.48
327.666	52.05
327.879	127.83
328.092	86.87
328.305	115.54
328.518	-13.48
328.731	17.24
328.944	54.1
329.157	144.21
329.37	-1.19
329.583	262.99
329.796	205.65
330.009	-42.15
330.222	138.07
330.435	86.87
330.648	0.85
330.861	148.31
331.073	50
331.286	105.3
331.499	47.96
331.712	-25.77
331.925	74.58
332.138	90.96
332.35	97.11
332.563	43.86
332.776	203.6
332.989	-44.2
333.202	-56.49
333.414	66.39
333.627	-21.67
333.84	27.48
334.053	76.63
334.265	-60.59
334.478	25.43
334.691	-21.67
334.903	101.2
335.116	-3.24
335.329	-25.77
335.541	25.43
335.754	160.59
335.966	4.95
336.179	-36.01
336.392	-54.44
336.604	0.85
336.817	105.3
337.029	37.72
337.242	-46.25
337.454	66.39
337.667	76.63
337.88	193.36
338.092	54.1
338.305	142.16
338.517	11.09
338.729	37.72
338.942	160.59
339.154	-33.96
339.367	13.14
339.579	41.81
339.792	-15.53
340.004	52.05
340.217	62.29
340.429	15.19
340.641	17.24
340.854	-13.48
341.066	115.54
341.278	187.22
341.491	187.22
341.703	68.44
341.915	23.38
342.128	95.06
342.34	113.49
342.552	-15.53
342.764	17.24
342.977	68.44
343.189	50
343.401	76.63
343.613	37.72
343.826	76.63
344.038	-29.87
344.25	50
344.462	-31.91
344.674	115.54
344.886	45.91
345.099	125.78
345.311	123.73
345.523	17.24
345.735	-128.17
345.947	37.72
346.159	90.96
346.371	62.29
346.583	27.48
346.795	222.03
347.007	29.52
347.219	68.44
347.431	13.14
347.643	97.11
347.855	80.72
348.067	138.07
348.279	-58.54
348.491	99.16
348.703	144.21
348.915	31.57
349.127	13.14
349.339	62.29
349.551	-36.01
349.763	72.53
349.975	0.85
350.187	82.77
350.399	152.4
350.61	123.73
350.822	54.1
351.034	68.44
351.246	140.12
351.458	103.25
351.669	103.25
351.881	78.68
352.093	136.02
352.305	160.59
352.517	86.87
352.728	97.11
352.94	115.54
353.152	82.77
353.363	-19.63
353.575	23.38
353.787	189.27
353.999	78.68
354.21	197.46
354.422	-48.3
354.633	31.57
354.845	17.24
355.057	72.53
355.268	88.92
355.48	72.53
355.692	-27.82
355.903	88.92
356.115	-9.39
356.326	-83.11
356.538	136.02
356.749	129.88
356.961	144.21
357.172	107.35
357.384	56.15
357.595	217.94
357.807	-27.82
358.018	-52.39
358.23	74.58
358.441	152.4
358.653	138.07
358.864	52.05
359.075	17.24
359.287	82.77
359.498	162.64
359.709	52.05
359.921	37.72
360.132	123.73
360.344	47.96
360.555	17.24
360.766	123.73
360.977	-29.87
361.189	90.96
361.4	-62.63
361.611	148.31
361.823	144.21
362.034	35.67
362.245	2.9
362.456	41.81
362.667	144.21
362.879	-1.19
363.09	127.83
363.301	105.3
363.512	62.29
363.723	-68.78
363.935	-13.48
364.146	150.36
364.357	84.82
364.568	101.2
364.779	-95.4
364.99	207.7
365.201	-66.73
365.412	162.64
365.623	35.67
365.834	95.06
366.045	7
366.256	125.78
366.467	154.45
366.678	7
366.889	86.87
367.1	-7.34
367.311	93.01
367.522	-31.91
367.733	80.72
367.944	74.58
368.155	80.72
368.366	74.58
368.577	45.91
368.788	201.55
368.999	35.67
369.209	84.82
369.42	207.7
369.631	222.03
369.842	72.53
370.053	21.33
370.264	138.07
370.474	-25.77
370.685	109.4
370.896	-5.29
371.107	113.49
371.317	58.2
371.528	17.24
371.739	156.5
371.95	133.97
372.16	140.12
372.371	21.33
372.582	-13.48
372.792	107.35
373.003	99.16
373.214	25.43
373.424	23.38
373.635	-58.54
373.846	125.78
374.056	17.24
374.267	15.19
374.477	74.58
374.688	-9.39
374.898	56.15
375.109	33.62
375.319	105.3
375.53	150.36
375.74	88.92
375.951	-5.29
376.161	23.38
376.372	158.55
376.582	86.87
376.793	70.48
377.003	-7.34
377.214	19.29
377.424	164.69
377.635	13.14
377.845	0.85
378.055	160.59
378.266	29.52
378.476	78.68
378.686	86.87
378.897	129.88
379.107	107.35
379.317	72.53
379.528	9.05
379.738	109.4
379.948	11.09
380.158	99.16
380.369	23.38
380.579	156.5
380.789	142.16
380.999	109.4
381.21	88.92
381.42	189.27
381.63	52.05
381.84	176.98
382.05	90.96
382.261	152.4
382.471	80.72
382.681	0.85
382.891	154.45
383.101	27.48
383.311	-7.34
383.521	-48.3
383.731	109.4
383.941	152.4
384.151	60.24
384.361	101.2
384.571	93.01
384.781	152.4
384.991	158.55
385.201	164.69
385.411	88.92
385.621	95.06
385.831	146.26
386.041	45.91
386.251	23.38
386.461	146.26
386.671	68.44
386.881	41.81
387.091	66.39
387.301	144.21
387.511	74.58
387.72	19.29
387.93	209.75
388.14	-11.43
388.35	54.1
388.56	90.96
388.769	78.68
388.979	4.95
389.189	31.57
389.399	31.57
389.609	176.98
389.818	144.21
390.028	76.63
390.238	11.09
390.447	35.67
390.657	80.72
390.867	119.64
391.076	-21.67
391.286	52.05
391.496	62.29
391.705	-1.19
391.915	166.74
392.125	131.92
392.334	84.82
392.544	70.48
392.753	125.78
392.963	-38.06
393.172	31.57
393.382	11.09
393.591	160.59
393.801	41.81
394.01	154.45
394.22	70.48
394.429	9.05
394.639	19.29
394.848	97.11
395.058	62.29
395.267	90.96
395.477	39.76
395.686	93.01
395.895	256.85
396.105	181.07
396.314	31.57
396.524	17.24
396.733	0.85
396.942	117.59
397.152	107.35
397.361	199.51
397.57	99.16
397.78	13.14
397.989	125.78
398.198	205.65
398.407	-11.43
398.617	72.53
398.826	17.24
399.035	17.24
399.244	95.06
399.453	129.88
399.663	68.44
399.872	111.44
400.081	-15.53
400.29	136.02
400.499	7
400.708	123.73
400.917	90.96
401.127	21.33
401.336	-9.39
401.545	209.75
401.754	111.44
401.963	62.29
402.172	35.67
402.381	54.1
402.59	31.57
402.799	9.05
403.008	133.97
403.217	119.64
403.426	131.92
403.635	-21.67
403.844	43.86
404.053	35.67
404.262	-25.77
404.471	160.59
404.68	45.91
404.888	66.39
405.097	68.44
405.306	43.86
405.515	93.01
405.724	-23.72
405.933	97.11
406.142	109.4
406.35	133.97
406.559	50
406.768	15.19
406.977	129.88
407.185	121.68
407.394	142.16
407.603	4.95
407.812	13.14
408.02	76.63
408.229	54.1
408.438	19.29
408.646	-3.24
408.855	66.39
409.064	35.67
409.272	-5.29
409.481	138.07
409.69	-5.29
409.898	41.81
410.107	2.9
410.315	52.05
410.524	56.15
410.733	27.48
410.941	119.64
411.15	111.44
411.358	86.87
411.567	185.17
411.775	80.72
411.984	56.15
412.192	33.62
412.401	9.05
412.609	185.17
412.818	174.93
413.026	33.62
413.234	99.16
413.443	99.16
413.651	29.52
413.86	25.43
414.068	148.31
414.276	164.69
414.485	45.91
414.693	203.6
414.901	207.7
415.11	-42.15
415.318	99.16
415.526	47.96
415.734	119.64
415.943	115.54
416.151	215.89
416.359	27.48
416.567	95.06
416.776	133.97
416.984	121.68
417.192	230.23
417.4	23.38
417.608	41.81
417.817	-46.25
418.025	144.21
418.233	105.3
418.441	41.81
418.649	-74.92
418.857	58.2
419.065	160.59
419.273	72.53
419.481	95.06
419.689	148.31
419.897	-54.44
420.105	41.81
420.313	93.01
420.521	138.07
420.729	168.79
420.937	68.44
421.145	-13.48
421.353	86.87
421.561	140.12
421.769	205.65
421.977	31.57
422.185	111.44
422.393	101.2
422.601	123.73
422.809	115.54
423.017	60.24
423.224	121.68
423.432	119.64
423.64	103.25
423.848	109.4
424.056	-27.82
424.263	197.46
424.471	13.14
424.679	115.54
424.887	60.24
425.094	119.64
425.302	211.79
425.51	54.1
425.718	131.92
425.925	84.82
426.133	88.92
426.341	162.64
426.548	76.63
426.756	97.11
426.964	174.93
427.171	-1.19
427.379	140.12
427.586	74.58
427.794	115.54
428.001	150.36
428.209	84.82
428.417	158.55
428.624	187.22
428.832	156.5
429.039	123.73
429.247	76.63
429.454	203.6
429.662	199.51
429.869	90.96
430.076	119.64
430.284	197.46
430.491	293.71
430.699	160.59
430.906	213.84
431.114	123.73
431.321	222.03
431.528	201.55
431.736	148.31
431.943	197.46
432.15	168.79
432.358	287.57
432.565	283.47
432.772	15.19
432.979	230.23
433.187	152.4
433.394	275.28
433.601	181.07
433.808	199.51
434.016	228.18
434.223	215.89
434.43	164.69
434.637	248.66
434.844	248.66
435.052	217.94
435.259	224.08
435.466	363.34
435.673	238.42
435.88	232.27
436.087	359.25
436.294	373.58
436.501	293.71
436.708	267.09
436.915	306
437.122	387.92
437.329	279.38
437.537	385.87
437.743	269.14
437.95	473.93
438.157	459.6
438.364	340.82
438.571	369.49
438.778	469.84
438.985	463.69
439.192	549.71
439.399	441.17
439.606	406.35
439.813	523.09
440.02	512.85
440.227	621.39
440.433	533.33
440.64	426.83
440.847	490.32
441.054	580.43
441.261	783.18
441.467	664.4
441.674	580.43
441.881	791.37
442.088	613.2
442.294	654.16
442.501	680.78
442.708	856.9
442.914	879.43
443.121	897.86
443.328	848.71
443.534	1012.55
443.741	1004.36
443.948	809.8
444.154	910.15
444.361	1145.67
444.568	963.4
444.774	1112.9
444.981	897.86
445.187	1184.58
445.394	1147.72
445.6	1131.33
445.807	1344.32
446.013	1219.39
446.22	1248.07
446.426	1399.62
446.633	1495.87
446.839	1585.98
447.046	1284.93
447.252	1577.79
447.459	1710.91
447.665	1592.13
447.871	1784.63
448.078	1864.5
448.284	1805.11
448.491	1948.47
448.697	2147.12
448.903	2143.03
449.11	2169.65
449.316	2054.97
449.522	2366.26
449.728	2366.26
449.935	2544.43
450.141	2423.6
450.347	2771.76
450.553	2599.73
450.76	2802.47
450.966	2900.78
451.172	2847.53
451.378	3234.6
451.584	3201.83
451.791	3523.36
451.997	3539.74
452.203	3504.93
452.409	3681.05
452.615	3910.43
452.821	3863.32
453.027	3699.48
453.233	4344.6
453.44	4184.85
453.646	4428.56
453.852	4625.17
454.058	4879.11
454.264	4946.7
454.47	5214.98
454.676	5301
454.882	5927.67
455.088	5458.69
455.294	5880.57
455.5	6181.62
455.705	6486.77
455.911	6591.22
456.117	6681.33
456.323	6714.09
456.529	6853.36
456.735	7631.58
456.941	7625.44
457.147	7949.02
457.352	8221.4
457.558	8600.27
457.764	9036.49
457.97	9257.67
458.176	9388.74
458.381	10132.15
458.587	10173.11
458.793	10676.91
458.999	10721.97
459.204	12233.37
459.41	12651.16
459.616	12257.95
459.821	13003.41
460.027	13564.55
460.233	14514.81
460.438	14283.39
460.644	15110.77
460.85	15454.83
461.055	15825.51
461.261	16751.19
461.466	16081.5
461.672	16757.33
461.878	18629.18
462.083	18174.53
462.289	18483.77
462.494	19526.19
462.7	19819.05
462.905	19976.74
463.111	21447.18
463.316	22536.7
463.522	22903.29
463.727	23757.29
463.932	24556
464.138	25092.57
464.343	26675.65
464.549	26366.4
464.754	28496.29
464.959	29114.78
465.165	29632.91
465.37	29295
465.575	29594
465.781	31570.29
465.986	32389.48
466.191	32102.76
466.397	32399.72
466.602	31320.44
466.807	33513.81
467.012	33691.99
467.218	34511.17
467.423	34341.19
467.628	35526.97
467.833	37257.5
468.038	36577.58
468.244	36266.28
468.449	37765.4
468.654	37290.27
468.859	36991.26
469.064	37067.04
469.269	36354.35
469.474	36641.06
469.679	37667.09
469.885	36690.21
470.09	36886.82
470.295	37353.76
470.5	36335.91
470.705	36600.1
470.91	35709.24
471.115	35283.26
471.32	35840.31
471.525	35760.44
471.73	34564.42
471.935	34488.65
472.139	32989.53
472.344	33233.24
472.549	32999.77
472.754	32561.51
472.959	31689.07
473.164	30507.4
473.369	29993.36
473.574	30994.81
473.778	30544.26
473.983	29677.97
474.188	29133.21
474.393	27967.91
474.598	27890.09
474.802	27584.94
475.007	27320.76
475.212	27034.04
475.417	25686.48
475.621	25520.59
475.826	25301.46
476.031	24713.69
476.235	23941.61
476.44	24203.75
476.645	23525.87
476.849	23134.71
477.054	22798.84
477.259	22385.15
477.463	22438.4
477.668	21604.88
477.872	21746.19
478.077	21365.26
478.282	20724.25
478.486	20458.01
478.691	20208.16
478.895	19700.26
479.1	19728.94
479.304	19814.95
479.509	19073.59
479.713	19477.04
479.918	18418.24
480.122	18410.04
480.326	18524.73
480.531	18530.87
480.735	18358.85
480.94	18059.84
481.144	18397.76
481.348	17539.66
481.553	17513.03
481.757	17197.65
481.961	17435.21
482.166	17332.81
482.37	17396.3
482.574	16775.77
482.778	17111.63
482.983	17154.64
483.187	16607.83
483.391	16808.53
483.595	16323.16
483.8	15948.39
484.004	16245.34
484.208	16456.28
484.412	15813.22
484.616	15987.3
484.821	15551.08
485.025	15037.04
485.229	15061.62
485.433	14885.49
485.637	14805.62
485.841	14555.77
486.045	14269.05
486.249	14441.08
486.453	14025.34
486.657	14039.68
486.861	13556.36
487.065	13206.16
487.269	13402.76
487.473	12808.85
487.677	13148.81
487.881	12935.82
488.085	12382.87
488.289	12372.63
488.493	11817.63
488.697	12184.22
488.901	11754.15
489.105	11475.62
489.309	11449
489.512	11176.62
489.716	10844.85
489.92	10801.84
490.124	10582.71
490.328	10439.35
490.531	9953.98
490.735	10080.96
490.939	9931.45
491.143	9663.17
491.346	9415.37
491.55	9337.54
491.754	9243.34
491.958	8979.15
492.161	8901.33
492.365	8946.38
492.569	8596.18
492.772	8602.32
492.976	8538.84
493.18	8237.78
493.383	8159.96
493.587	8043.23
493.79	8180.44
493.994	7912.16
494.197	7842.53
494.401	7658.21
494.605	7498.47
494.808	7643.87
495.012	7682.78
495.215	7615.2
495.419	7652.06
495.622	7381.73
495.825	7412.45
496.029	7357.16
496.232	7342.82
496.436	6990.57
496.639	7209.7
496.843	7224.04
497.046	7162.6
497.249	7279.33
497.453	7258.85
497.656	7262.95
497.859	7240.42
498.063	7336.68
498.266	7371.49
498.469	7240.42
498.673	7195.37
498.876	7150.31
499.079	7267.05
499.282	7336.68
499.485	7815.9
499.689	7402.21
499.892	7285.48
500.095	7566.05
500.298	7459.56
500.501	7379.68
500.705	7604.96
500.908	7764.7
501.111	7738.08
501.314	8250.07
501.517	8110.81
501.72	8078.04
501.923	7877.34
502.126	8217.3
502.329	8418
502.532	8350.42
502.735	8411.86
502.938	8682.19
503.141	8557.27
503.344	8651.47
503.547	8991.44
503.75	8913.61
503.953	9120.46
504.156	9312.97
504.359	9321.16
504.562	9315.02
504.765	9511.62
504.968	9681.6
505.17	9886.4
505.373	9910.97
505.576	10267.32
505.779	10439.35
505.982	10388.15
506.185	10953.39
506.387	10861.23
506.59	11274.92
506.793	11176.62
506.996	11354.79
507.198	12104.35
507.401	11831.97
507.604	12280.47
507.807	12362.39
508.009	12530.33
508.212	12759.7
508.415	12974.74
508.617	13345.42
508.82	13732.48
509.022	13585.03
509.225	14094.97
509.428	14639.73
509.63	14746.23
509.833	14729.84
510.035	15641.19
510.238	15327.85
510.44	15778.4
510.643	16556.63
510.845	16613.98
511.048	16826.96
511.25	17144.4
511.453	17726.02
511.655	18731.58
511.858	18539.07
512.06	19098.16
512.262	19266.1
512.465	19823.14
512.667	19925.54
512.87	20623.9
513.072	20750.87
513.274	21697.03
513.477	22499.84
513.679	22608.38
513.881	23153.14
514.084	23585.26
514.286	23974.38
514.488	24678.88
514.69	25526.74
514.893	25539.02
515.095	26286.53
515.297	26675.65
515.499	27273.65
515.701	27642.29
515.904	28332.45
516.106	29190.55
516.308	29469.08
516.51	30192.01
516.712	30570.88
516.914	31414.65
517.116	32092.52
517.318	32549.22
517.52	33061.21
517.722	33681.75
517.925	34386.25
518.127	35055.93
518.329	35580.21
518.531	35889.46
518.733	36763.94
518.935	37497.11
519.136	37648.66
519.338	38484.23
519.54	38938.88
519.742	39639.29
519.944	40462.57
520.146	40958.18
520.348	41488.6
520.55	42045.65
520.752	42195.15
520.954	42846.41
521.155	42698.95
521.357	43995.32
521.559	44746.92
521.761	45414.56
521.963	45361.31
522.164	45555.87
522.366	45994.14
522.568	46735.5
522.77	46520.46
522.971	47667.33
523.173	47413.38
523.375	48207.99
523.576	48251
523.778	48158.84
523.98	48953.45
524.181	49266.79
524.383	48830.57
524.584	49563.75
524.786	49672.29
524.988	49328.23
525.189	49616.99
525.391	50337.88
525.592	49993.82
525.794	49903.71
525.995	49844.32
526.197	49377.38
526.398	49848.41
526.6	50026.59
526.801	49700.96
527.003	49459.3
527.204	49180.77
527.406	49766.49
527.607	49510.5
527.808	49188.97
528.01	48076.92
528.211	48470.13
528.412	49014.89
528.614	48183.41
528.815	47839.36
529.016	47636.61
529.218	47292.55
529.419	47100.04
529.62	46504.08
529.822	45996.18
530.023	45545.63
530.224	45234.34
530.425	45039.78
530.626	43937.97
530.828	43448.51
531.029	43882.68
531.23	43241.67
531.431	42408.14
531.632	42301.65
531.833	41752.79
532.035	41492.7
532.236	40700.14
532.437	40589.55
532.638	39835.89
532.839	39295.23
533.04	39602.43
533.241	38447.37
533.442	38480.14
533.643	37574.94
533.844	37136.67
534.045	36389.16
534.246	36073.77
534.447	35864.88
534.648	35170.62
534.849	34666.82
535.05	33962.32
535.251	33749.33
535.451	33098.08
535.652	33143.13
535.853	32215.4
536.054	32041.32
536.255	31838.58
536.456	31095.16
536.657	31160.7
536.857	30468.48
537.058	29936.01
537.259	29622.67
537.46	29411.73
537.66	28740
537.861	28717.47
538.062	27914.67
538.263	27806.13
538.463	27376.05
538.664	26741.18
538.865	26581.44
539.065	26558.91
539.266	26057.16
539.466	25782.73
539.667	25237.97
539.868	25672.14
540.068	24607.2
540.269	24515.04
540.469	24289.76
540.67	23982.57
540.87	23722.48
541.071	23613.93
541.271	23296.5
541.472	23142.9
541.672	22624.76
541.873	22186.5
542.073	21934.6
542.274	22069.76
542.474	21690.89
542.675	21510.67
542.875	21430.8
543.075	20896.28
543.276	20546.08
543.476	20773.4
543.676	20288.03
543.877	20027.94
544.077	19470.89
544.277	19616.3
544.478	19194.42
544.678	19122.74
544.878	18793.01
545.078	18784.82
545.279	18084.42
545.479	18217.54
545.679	18197.06
545.879	17871.43
546.079	18100.8
546.28	17408.59
546.48	17480.27
546.68	17224.27
546.88	16734.81
547.08	16716.37
547.28	16429.66
547.48	16241.25
547.68	16056.93
547.88	15864.42
548.081	15680.1
548.281	15526.5
548.481	15313.52
548.681	15145.58
548.881	14951.03
549.081	14742.13
549.28	14516.86
549.48	14436.99
549.68	14013.06
549.88	14248.57
550.08	13589.13
550.28	13554.31
550.48	13421.19
550.68	13429.38
550.88	13095.57
551.08	12561.05
551.279	12855.95
551.479	12565.14
551.679	12393.11
551.879	12112.54
552.079	12157.6
552.278	11911.84
552.478	11848.35
552.678	11551.4
552.878	11440.81
553.077	11072.17
553.277	10738.35
553.477	10971.82
553.676	10877.62
553.876	10490.55
554.076	10396.34
554.275	10257.08
554.475	9753.28
554.674	9935.55
554.874	9714.37
555.074	9657.03
555.273	9521.86
555.473	9132.75
555.672	8938.19
555.872	9108.17
556.071	8823.5
556.271	8829.65
556.47	8516.31
556.67	8205.02
556.869	8436.44
557.068	8202.97
557.268	7914.2
557.467	7903.96
557.667	7660.26
557.866	7856.86
558.065	7611.11
558.265	7250.66
558.464	7125.74
558.663	7332.58
558.863	7035.63
559.062	6955.76
559.261	6619.89
559.461	6736.62
559.66	6550.26
559.859	6427.38
560.058	6423.28
560.258	6060.79
560.457	6167.29
560.656	6247.16
560.855	5782.27
561.054	6064.89
561.253	5739.26
561.453	5819.13
561.652	5628.67
561.851	5569.28
562.05	5501.7
562.249	5298.95
562.448	5182.21
562.647	5337.86
562.846	5200.65
563.045	5108.49
563.244	5001.99
563.443	5128.97
563.642	4852.49
563.841	4961.03
564.04	4672.27
564.239	4619.02
564.438	4549.39
564.637	4469.52
564.836	4403.99
565.035	4315.92
565.234	4180.76
565.432	4162.33
565.631	4338.45
565.83	4215.57
566.029	4027.16
566.228	3986.2
566.427	4143.89
566.625	3808.03
566.824	3760.92
567.023	3793.69
567.222	3672.86
567.42	3592.99
567.619	3607.33
567.818	3664.67
568.016	3521.31
568.215	3535.65
568.414	3515.17
568.612	3343.14
568.811	3273.51
569.01	3269.41
569.208	3242.79
569.407	3179.3
569.605	3201.83
569.804	3078.95
570.002	3031.85
570.201	2863.91
570.4	2921.26
570.598	2980.65
570.797	2913.06
570.995	2665.26
571.193	2894.63
571.392	2847.53
571.59	2560.81
571.789	2804.52
571.987	2687.79
572.186	2634.54
572.384	2569.01
572.582	2474.8
572.781	2609.97
572.979	2423.6
573.177	2380.59
573.376	2345.78
573.574	2419.5
573.772	2200.37
573.971	2218.8
574.169	2100.02
574.367	2151.22
574.565	2048.82
574.763	2065.21
574.962	2059.06
575.16	2069.3
575.358	2009.91
575.556	1958.71
575.754	1971
575.952	1844.03
576.151	2011.96
576.349	1860.41
576.547	1760.06
576.745	1966.9
576.943	1796.92
577.141	1780.54
577.339	1641.28
577.537	1772.35
577.735	1737.53
577.933	1702.72
578.131	1631.04
578.329	1694.52
578.527	1575.74
578.725	1594.17
578.923	1430.34
579.121	1577.79
579.319	1454.91
579.516	1557.31
579.714	1628.99
579.912	1385.28
580.11	1352.51
580.308	1389.38
580.506	1250.11
580.704	1225.54
580.901	1207.11
581.099	1329.99
581.297	1272.64
581.495	1307.46
581.692	1172.29
581.89	1362.75
582.088	1203.01
582.285	1129.28
582.483	1186.63
582.681	1172.29
582.878	1174.34
583.076	1139.52
583.274	1151.81
583.471	1114.95
583.669	1149.76
583.866	922.44
584.064	1065.8
584.262	901.96
584.459	979.78
584.657	1004.36
584.854	1086.28
585.052	1026.89
585.249	979.78
585.447	891.72
585.644	936.78
585.841	936.78
586.039	977.73
586.236	1010.5
586.434	836.42
586.631	869.19
586.828	912.2
587.026	912.2
587.223	779.08
587.42	777.03
587.618	836.42
587.815	928.58
588.012	799.56
588.21	633.68
588.407	797.51
588.604	813.9
588.801	676.68
588.999	807.75
589.196	811.85
589.393	738.12
589.59	725.83
589.787	729.93
589.984	750.41
590.182	625.48
590.379	623.44
590.576	697.16
590.773	717.64
590.97	635.72
591.167	633.68
591.364	691.02
591.561	668.49
591.758	762.7
591.955	762.7
592.152	639.82
592.349	629.58
592.546	656.2
592.743	619.34
592.94	668.49
593.137	619.34
593.334	719.69
593.531	678.73
593.727	676.68
593.924	688.97
594.121	709.45
594.318	639.82
594.515	742.22
594.712	758.6
594.908	795.47
595.105	627.53
595.302	779.08
595.499	678.73
595.696	836.42
595.892	641.87
596.089	826.18
596.286	797.51
596.482	934.73
596.679	820.04
596.876	795.47
597.072	856.9
597.269	856.9
597.466	947.01
597.662	826.18
597.859	817.99
598.055	901.96
598.252	1121.09
598.448	1100.61
598.645	1073.99
598.841	1069.89
599.038	1225.54
599.234	1272.64
599.431	1155.91
599.627	1276.74
599.824	1397.57
600.02	1262.4
600.217	1334.08
600.413	1483.58
600.609	1485.63
600.806	1702.72
601.002	1659.71
601.198	1590.08
601.395	1733.43
601.591	1663.8
601.787	1839.93
601.984	1960.76
602.18	1993.53
602.376	1960.76
602.572	2147.12
602.769	2302.77
602.965	2270
603.161	2280.24
603.357	2409.26
603.553	2583.34
603.75	2601.77
603.946	2650.92
604.142	2712.36
604.338	2941.74
604.534	2902.83
604.73	3060.52
604.926	3031.85
605.122	3355.43
605.318	3386.15
605.514	3363.62
605.71	3396.39
605.906	3898.14
606.102	3660.57
606.298	3939.1
606.494	4111.13
606.69	4258.58
606.886	4287.25
607.082	4322.07
607.278	4479.76
607.474	4541.2
607.67	4807.44
607.866	4721.42
608.062	5143.3
608.257	5069.58
608.453	5237.51
608.649	5374.72
608.845	5509.89
609.041	5546.75
609.236	5968.63
609.432	5858.04
609.628	5978.87
609.824	6298.36
610.019	6384.37
610.215	6609.65
610.411	7009
610.606	7027.43
610.802	7133.93
610.998	7322.34
611.193	7705.31
611.389	7572.19
611.584	7826.14
611.78	8069.85
611.976	8309.46
612.171	8833.74
612.367	8778.45
612.562	8833.74
612.758	9071.31
612.953	9222.86
613.149	9630.4
613.344	10015.42
613.539	10285.75
613.735	10488.5
613.93	10902.19
614.126	11168.43
614.321	11465.38
614.517	11647.65
614.712	11938.46
614.907	11979.42
615.103	12511.89
615.298	12817.04
615.493	13040.27
615.688	13140.62
615.884	14066.3
616.079	14074.49
616.274	14260.86
616.47	14514.81
616.665	15041.14
616.86	15442.54
617.055	15991.39
617.25	16233.05
617.445	16816.72
617.641	16806.48
617.836	17580.62
618.031	17482.31
618.226	18330.17
618.421	18612.79
618.616	19575.34
618.811	19370.54
619.006	19984.93
619.201	20142.63
619.396	20716.06
619.591	21148.18
619.786	21981.7
619.981	22047.24
620.176	22888.95
620.371	23370.22
620.566	23728.62
620.761	24025.57
620.956	24836.57
621.151	25106.9
621.346	25749.96
621.541	25909.71
621.735	26845.63
621.93	26530.24
622.125	27468.21
622.32	27705.77
622.515	28703.14
622.709	28754.33
622.904	29385.11
623.099	29727.12
623.294	30515.59
623.488	31213.95
623.683	31246.71
623.878	31639.92
624.072	32299.37
624.267	33169.76
624.462	33513.81
624.656	33612.12
624.851	34617.67
625.046	34740.55
625.24	35365.18
625.435	35615.03
625.629	36309.29
625.824	36854.05
626.018	37413.15
626.213	36682.02
626.407	38314.25
626.602	38050.06
626.796	38877.44
626.991	39307.52
627.185	39682.3
627.38	39450.88
627.574	39764.21
627.768	40190.19
627.963	40274.16
628.157	40259.82
628.352	40976.61
628.546	40446.19
628.74	41031.91
628.935	40472.81
629.129	40648.94
629.323	40005.87
629.517	40216.82
629.712	40067.31
629.906	39919.86
630.1	39319.81
630.294	39166.21
630.489	38652.17
630.683	38873.35
630.877	37280.03
631.071	36749.6
631.265	36722.98
631.459	35522.87
631.653	34832.71
631.848	34173.26
632.042	33411.42
632.236	32473.45
632.43	31783.28
632.624	31164.79
632.818	30208.39
633.012	29262.23
633.206	28348.84
633.4	27752.88
633.594	26388.93
633.788	25823.69
633.982	24748.51
634.176	24207.84
634.369	22934.01
634.563	21959.17
634.757	21160.47
634.951	20896.28
635.145	19718.7
635.339	18950.71
635.533	18281.02
635.726	17531.47
635.92	16640.6
636.114	16054.88
636.308	15174.25
636.501	15102.57
636.695	14350.97
636.889	13963.9
637.083	13259.4
637.276	12542.61
637.47	12047.01
637.664	11432.61
637.857	11322.02
638.051	10646.19
638.244	10279.61
638.438	9974.46
638.632	9708.23
638.825	8841.93
639.019	8721.1
639.212	8336.09
639.406	8229.59
639.599	7801.57
639.793	7406.31
639.986	7146.22
640.18	6843.12
640.373	6494.96
640.567	6421.24
640.76	6140.66
640.954	5872.38
641.147	5579.52
641.34	5389.06
641.534	5298.95
641.727	5055.24
641.92	4895.5
642.114	4649.74
642.307	4371.22
642.5	4342.55
642.694	3963.67
642.887	3904.28
643.08	3908.38
643.273	3644.19
643.467	3517.22
643.66	3453.73
643.853	3296.04
644.046	3164.97
644.239	3087.14
644.432	2841.39
644.626	2788.14
644.819	2685.74
645.012	2605.87
645.205	2460.46
645.398	2534.19
645.591	2313.01
645.784	2274.1
645.977	2081.59
646.17	2104.12
646.363	2044.73
646.556	1776.44
646.749	1780.54
646.942	1774.39
647.135	1809.21
647.328	1702.72
647.521	1553.21
647.714	1555.26
647.907	1467.2
648.099	1381.18
648.292	1485.63
648.485	1401.66
648.678	1217.35
648.871	1160
649.064	1166.15
649.256	1022.79
649.449	1069.89
649.642	918.34
649.835	1080.13
650.027	1008.45
650.22	963.4
650.413	906.06
650.605	930.63
650.798	789.32
650.991	807.75
651.183	836.42
651.376	863.05
651.568	809.8
651.761	768.84
651.954	785.23
652.146	758.6
652.339	709.45
652.531	645.96
652.724	551.76
652.916	547.66
653.109	426.83
653.301	621.39
653.494	637.77
653.686	627.53
653.879	562
654.071	559.95
654.263	373.58
654.456	439.12
654.648	582.48
654.84	508.75
655.033	406.35
655.225	537.42
655.417	369.49
655.61	478.03
655.802	494.41
655.994	498.51
656.186	246.61
656.379	453.45
656.571	322.38
656.763	424.78
656.955	424.78
657.148	349.01
657.34	473.93
657.532	297.81
657.724	346.96
657.916	338.77
658.108	369.49
658.3	299.86
658.492	357.2
658.684	262.99
658.876	410.45
659.068	219.99
659.26	176.98
659.452	271.19
659.644	244.56
659.836	318.29
660.028	318.29
660.22	267.09
660.412	277.33
660.604	187.22
660.796	240.47
660.988	357.2
661.18	236.37
661.372	318.29
661.563	299.86
661.755	209.75
661.947	156.5
662.139	156.5
662.331	174.93
662.522	244.56
662.714	166.74
662.906	203.6
663.097	226.13
663.289	232.27
663.481	97.11
663.673	240.47
663.864	213.84
664.056	267.09
664.247	197.46
664.439	275.28
664.631	213.84
664.822	293.71
665.014	179.03
665.205	215.89
665.397	90.96
665.588	179.03
665.78	131.92
665.971	312.14
666.163	115.54
666.354	185.17
666.546	185.17
666.737	185.17
666.929	189.27
667.12	172.88
667.311	164.69
667.503	123.73
667.694	148.31
667.885	146.26
668.077	281.43
668.268	62.29
668.459	205.65
668.651	164.69
668.842	230.23
669.033	107.35
669.224	129.88
669.416	369.49
669.607	84.82
669.798	140.12
669.989	281.43
670.18	179.03
670.371	230.23
670.563	72.53
670.754	224.08
670.945	156.5
671.136	275.28
671.327	113.49
671.518	308.05
671.709	226.13
671.9	195.41
672.091	289.62
672.282	193.36
672.473	78.68
672.664	148.31
672.855	193.36
673.046	195.41
673.237	203.6
673.428	213.84
673.619	250.71
673.809	95.06
674	375.63
674.191	213.84
674.382	174.93
674.573	238.42
674.764	119.64
674.954	228.18
675.145	64.34
675.336	189.27
675.527	146.26
675.717	142.16
675.908	226.13
676.099	144.21
676.289	258.9
676.48	125.78
676.671	205.65
676.861	158.55
677.052	136.02
677.243	181.07
677.433	121.68
677.624	295.76
677.814	217.94
678.005	176.98
678.195	238.42
678.386	166.74
678.576	254.8
678.767	203.6
678.957	234.32
679.148	269.14
679.338	344.91
679.529	273.23
679.719	217.94
679.909	238.42
680.1	310.1
680.29	226.13
680.481	99.16
680.671	256.85
680.861	217.94
681.052	211.79
681.242	209.75
681.432	357.2
681.622	254.8
681.813	215.89
682.003	246.61
682.193	250.71
682.383	312.14
682.573	230.23
682.764	234.32
682.954	258.9
683.144	342.86
683.334	201.55
683.524	256.85
683.714	353.1
683.904	297.81
684.094	273.23
684.284	242.51
684.474	287.57
684.664	277.33
684.854	238.42
685.044	238.42
685.234	287.57
685.424	269.14
685.614	291.66
685.804	387.92
685.994	289.62
686.184	207.7
686.374	279.38
686.564	289.62
686.753	246.61
686.943	158.55
687.133	228.18
687.323	316.24
687.513	326.48
687.702	222.03
687.892	213.84
688.082	346.96
688.272	258.9
688.461	242.51
688.651	392.02
688.841	369.49
689.03	258.9
689.22	215.89
689.41	312.14
689.599	340.82
689.789	205.65
689.979	439.12
690.168	271.19
690.358	287.57
690.547	248.66
690.737	291.66
690.926	230.23
691.116	262.99
691.305	265.04
691.495	285.52
691.684	117.59
691.874	242.51
692.063	275.28
692.252	234.32
692.442	285.52
692.631	154.45
692.82	291.66
693.01	242.51
693.199	262.99
693.388	359.25
693.578	234.32
693.767	295.76
693.956	246.61
694.146	168.79
694.335	271.19
694.524	183.12
694.713	408.4
694.902	248.66
695.092	262.99
695.281	330.58
695.47	248.66
695.659	189.27
695.848	287.57
696.037	195.41
696.226	338.77
696.415	191.31
696.604	269.14
696.793	252.75
696.982	240.47
697.171	303.95
697.36	150.36
697.549	271.19
697.738	133.97
697.927	244.56
698.116	197.46
698.305	332.62
698.494	250.71
698.683	179.03
698.872	359.25
699.061	295.76
699.25	246.61
699.438	176.98
699.627	183.12
699.816	322.38
700.005	80.72
700.193	150.36
700.382	283.47
700.571	371.54
700.76	224.08
700.948	273.23
701.137	281.43
701.326	271.19
701.514	262.99
701.703	275.28
701.892	222.03
702.08	338.77
702.269	291.66
702.457	156.5
702.646	273.23
702.834	248.66
703.023	260.95
703.212	301.9
703.4	283.47
703.589	113.49
703.777	240.47
703.965	144.21
704.154	207.7
704.342	121.68
704.531	181.07
704.719	260.95
704.907	250.71
705.096	84.82
705.284	117.59
705.472	222.03
705.661	316.24
705.849	369.49
706.037	277.33
706.226	209.75
706.414	322.38
706.602	152.4
706.79	295.76
706.979	193.36
707.167	226.13
707.355	152.4
707.543	244.56
707.731	265.04
707.919	271.19
708.107	252.75
708.296	189.27
708.484	162.64
708.672	330.58
708.86	324.43
709.048	232.27
709.236	162.64
709.424	219.99
709.612	252.75
709.8	146.26
709.988	201.55
710.176	297.81
710.364	316.24
710.551	295.76
710.739	279.38
710.927	238.42
711.115	256.85
711.303	303.95
711.491	322.38
711.679	193.36
711.866	361.3
712.054	195.41
712.242	267.09
712.43	322.38
712.617	240.47
712.805	295.76
712.993	203.6
713.181	148.31
713.368	320.34
713.556	242.51
713.744	174.93
713.931	437.07
714.119	244.56
714.306	195.41
714.494	140.12
714.682	217.94
714.869	121.68
715.057	207.7
715.244	164.69
715.432	277.33
715.619	179.03
715.807	199.51
715.994	211.79
716.182	215.89
716.369	246.61
716.556	295.76
716.744	119.64
716.931	199.51
717.119	248.66
717.306	209.75
717.493	332.62
717.681	168.79
717.868	236.37
718.055	250.71
718.242	269.14
718.43	387.92
718.617	297.81
718.804	185.17
718.991	355.15
719.179	258.9
719.366	236.37
719.553	224.08
719.74	197.46
719.927	242.51
720.114	289.62
720.301	295.76
720.488	215.89
720.676	185.17
720.863	355.15
721.05	310.1
721.237	301.9
721.424	258.9
721.611	283.47
721.798	246.61
721.985	271.19
722.172	258.9
722.358	244.56
722.545	342.86
722.732	228.18
722.919	289.62
723.106	252.75
723.293	262.99
723.48	256.85
723.667	181.07
723.853	355.15
724.04	299.86
724.227	318.29
724.414	262.99
724.6	279.38
724.787	402.26
724.974	402.26
725.161	262.99
725.347	222.03
725.534	256.85
725.72	344.91
725.907	330.58
726.094	385.87
726.28	295.76
726.467	265.04
726.653	246.61
726.84	467.79
727.027	443.21
727.213	240.47
727.4	256.85
727.586	320.34
727.773	277.33
727.959	271.19
728.145	236.37
728.332	346.96
728.518	256.85
728.705	349.01
728.891	349.01
729.077	267.09
729.264	211.79
729.45	244.56
729.636	314.19
729.823	375.63
730.009	353.1
730.195	287.57
730.382	299.86
730.568	217.94
730.754	332.62
730.94	295.76
731.126	267.09
731.313	254.8
731.499	281.43
731.685	301.9
731.871	312.14
732.057	371.54
732.243	463.69
732.429	324.43
732.615	389.97
732.801	367.44
732.987	287.57
733.173	303.95
733.359	224.08
733.545	349.01
733.731	236.37
733.917	449.36
734.103	297.81
734.289	312.14
734.475	277.33
734.661	396.11
734.847	256.85
735.033	320.34
735.219	303.95
735.404	295.76
735.59	209.75
735.776	355.15
735.962	312.14
736.148	297.81
736.333	398.16
736.519	306
736.705	287.57
736.89	215.89
737.076	287.57
737.262	291.66
737.447	250.71
737.633	267.09
737.819	420.69
738.004	361.3
738.19	306
738.375	422.73
738.561	404.3
738.747	293.71
738.932	185.17
739.118	381.78
739.303	281.43
739.489	344.91
739.674	312.14
739.859	275.28
740.045	308.05
740.23	320.34
740.416	207.7
740.601	273.23
740.786	291.66
740.972	322.38
741.157	271.19
741.342	269.14
741.528	293.71
741.713	359.25
741.898	291.66
742.084	314.19
742.269	299.86
742.454	338.77
742.639	306
742.824	281.43
743.01	467.79
743.195	369.49
743.38	275.28
743.565	269.14
743.75	435.02
743.935	387.92
744.12	281.43
744.305	248.66
744.49	258.9
744.675	258.9
744.86	224.08
745.045	314.19
745.23	349.01
745.415	258.9
745.6	308.05
745.785	308.05
745.97	275.28
746.155	287.57
746.34	414.54
746.525	340.82
746.71	398.16
746.895	244.56
747.079	154.45
747.264	219.99
747.449	283.47
747.634	375.63
747.819	369.49
748.003	306
748.188	303.95
748.373	344.91
748.557	271.19
748.742	289.62
748.927	275.28
749.111	215.89
749.296	281.43
749.481	312.14
749.665	244.56
749.85	172.88
750.034	242.51
750.219	240.47
750.404	166.74
750.588	273.23
750.773	185.17
750.957	228.18
751.141	242.51
751.326	240.47
751.51	222.03
751.695	158.55
751.879	166.74
752.064	420.69
752.248	168.79
752.432	338.77
752.617	283.47
752.801	269.14
752.985	252.75
753.17	310.1
753.354	217.94
753.538	222.03
753.722	164.69
753.907	209.75
754.091	213.84
754.275	324.43
754.459	160.59
754.643	174.93
754.828	244.56
755.012	269.14
755.196	115.54
755.38	219.99
755.564	193.36
755.748	197.46
755.932	275.28
756.116	156.5
756.3	258.9
756.484	183.12
756.668	219.99
756.852	117.59
757.036	129.88
757.22	199.51
757.404	97.11
757.588	215.89
757.772	240.47
757.956	176.98
758.14	265.04
758.323	133.97
758.507	232.27
758.691	174.93
758.875	248.66
759.059	199.51
759.242	144.21
759.426	144.21
759.61	111.44
759.794	90.96
759.977	166.74
760.161	318.29
760.345	291.66
760.528	215.89
760.712	127.83
760.895	205.65
761.079	109.4
761.263	105.3
761.446	103.25
761.63	154.45
761.813	217.94
761.997	158.55
762.18	144.21
762.364	181.07
762.547	35.67
762.731	168.79
762.914	131.92
763.098	99.16
763.281	111.44
763.464	35.67
763.648	119.64
763.831	62.29
764.015	152.4
764.198	238.42
764.381	115.54
764.564	97.11
764.748	234.32
764.931	144.21
765.114	62.29
765.297	189.27
765.481	148.31
765.664	93.01
765.847	162.64
766.03	201.55
766.213	119.64
766.397	140.12
766.58	35.67
766.763	164.69
766.946	39.76
767.129	123.73
767.312	97.11
767.495	152.4
767.678	35.67
767.861	129.88
768.044	176.98
768.227	80.72
768.41	64.34
768.593	93.01
768.776	219.99
768.959	154.45
769.142	191.31
769.324	97.11
769.507	129.88
769.69	111.44
769.873	140.12
770.056	275.28
770.239	138.07
770.421	256.85
770.604	172.88
770.787	52.05
770.97	148.31
771.152	127.83
771.335	88.92
771.518	80.72
771.7	201.55
771.883	230.23
772.066	43.86
772.248	183.12
772.431	119.64
772.613	54.1
772.796	136.02
772.978	136.02
773.161	142.16
773.343	56.15
773.526	99.16
773.708	-3.24
773.891	4.95
774.073	88.92
774.256	58.2
774.438	209.75
774.621	74.58
774.803	121.68
774.985	144.21
775.168	54.1
775.35	86.87
775.532	97.11
775.715	45.91
775.897	33.62
776.079	107.35
776.261	41.81
776.444	82.77
776.626	70.48
776.808	105.3
776.99	27.48
777.173	127.83
777.355	58.2
777.537	103.25
777.719	131.92
777.901	0.85
778.083	50
778.265	11.09
778.447	97.11
778.629	62.29
778.811	-5.29
778.993	78.68
779.175	111.44
779.357	-3.24
779.539	54.1
779.721	68.44
779.903	136.02
780.085	70.48
780.267	76.63
780.449	99.16
780.631	45.91
780.812	152.4
780.994	84.82
781.176	111.44
781.358	-17.58
781.54	17.24
781.721	64.34
781.903	195.41
782.085	33.62
782.267	162.64
782.448	-9.39
782.63	45.91
782.812	21.33
782.993	123.73
783.175	68.44
783.357	43.86
783.538	33.62
783.72	15.19
783.901	45.91
784.083	113.49
784.264	105.3
784.446	9.05
784.627	-74.92
784.809	72.53
784.99	41.81
785.172	136.02
785.353	129.88
785.535	101.2
785.716	54.1
785.897	-29.87
786.079	29.52
786.26	13.14
786.441	121.68
786.623	-23.72
786.804	50
786.985	-7.34
787.167	70.48
787.348	82.77
787.529	21.33
787.71	170.83
787.891	111.44
788.073	33.62
788.254	-101.55
788.435	181.07
788.616	39.76
788.797	-17.58
788.978	17.24
789.159	-36.01
789.34	121.68
789.522	11.09
789.703	15.19
789.884	78.68
790.065	15.19
790.246	174.93
790.427	-19.63
790.607	166.74
790.788	123.73
790.969	-17.58
791.15	123.73
791.331	-7.34
791.512	-33.96
791.693	-70.83
791.874	47.96
792.054	195.41
792.235	136.02
792.416	2.9
792.597	-11.43
792.778	64.34
792.958	50
793.139	86.87
793.32	66.39
793.5	-76.97
793.681	136.02
793.862	101.2
794.042	19.29
794.223	-5.29
794.404	0.85
794.584	-25.77
794.765	19.29
794.945	82.77
795.126	111.44
795.306	127.83
795.487	0.85
795.667	21.33
795.848	90.96
796.028	62.29
796.209	84.82
796.389	101.2
796.57	56.15
796.75	-15.53
796.93	17.24
797.111	-13.48
797.291	-5.29
797.471	56.15
797.652	-1.19
797.832	50
798.012	74.58
798.192	-5.29
798.373	-70.83
798.553	50
798.733	70.48
798.913	-85.16
799.093	58.2
799.274	41.81
799.454	50
799.634	86.87
799.814	164.69
799.994	45.91
800.174	43.86
800.354	119.64
800.534	-56.49
800.714	72.53
800.894	-56.49
801.074	17.24
801.254	31.57
801.434	90.96
801.614	-9.39
801.794	-52.39
801.974	1669.95
802.154	-23.72
802.334	160.59
802.514	-58.54
802.693	39.76
802.873	-42.15
803.053	54.1
803.233	70.48
803.413	27.48
803.592	-33.96
803.772	0.85
803.952	35.67
804.131	-64.68
804.311	152.4
804.491	154.45
804.67	45.91
804.85	-44.2
805.03	68.44
805.209	105.3
805.389	17.24
805.568	-31.91
805.748	35.67
805.928	-9.39
806.107	58.2
806.287	19.29
806.466	84.82
806.646	2.9
806.825	68.44
807.004	50
807.184	4.95
807.363	-17.58
807.543	33.62
807.722	7
807.901	115.54
808.081	86.87
808.26	-103.59
808.439	27.48
808.619	41.81
808.798	-31.91
808.977	13.14
809.156	50
809.336	54.1
809.515	27.48
809.694	-64.68
809.873	7
810.052	17.24
810.231	136.02
810.411	19.29
810.59	197.46
810.769	-19.63
810.948	62.29
811.127	-158.89
811.306	-13.48
811.485	21.33
811.664	162.64
811.843	-19.63
812.022	74.58
812.201	4.95
812.38	15.19
812.559	0.85
812.737	119.64
812.916	-124.07
813.095	-23.72
813.274	68.44
813.453	39.76
813.632	43.86
813.811	80.72
813.989	-46.25
814.168	-5.29
814.347	-13.48
814.526	25.43
814.704	109.4
814.883	105.3
815.062	7
815.24	27.48
815.419	-68.78
815.598	88.92
815.776	-56.49
815.955	52.05
816.133	-19.63
816.312	-9.39
816.49	-44.2
816.669	33.62
816.847	-3.24
817.026	78.68
817.204	19.29
817.383	13.14
817.561	-44.2
817.74	56.15
817.918	29.52
818.097	23.38
818.275	-25.77
818.453	41.81
818.632	58.2
818.81	15.19
818.988	-52.39
819.167	17.24
819.345	0.85
819.523	-9.39
819.701	56.15
819.879	72.53
820.058	99.16
820.236	39.76
820.414	15.19
820.592	23.38
820.77	17.24
820.948	-11.43
821.127	-40.11
821.305	-3.24
821.483	0.85
821.661	129.88
821.839	41.81
822.017	21.33
822.195	-25.77
822.373	50
822.551	21.33
822.729	-60.59
822.907	58.2
823.085	29.52
823.262	-50.35
823.44	-76.97
823.618	0.85
823.796	50
823.974	23.38
824.152	-3.24
824.329	2.9
824.507	93.01
824.685	131.92
824.863	-76.97
825.04	21.33
825.218	86.87
825.396	11.09
825.574	23.38
825.751	-33.96
825.929	99.16
826.107	-33.96
826.284	7
826.462	-25.77
826.639	2.9
826.817	-60.59
826.994	21.33
827.172	-60.59
827.349	140.12
827.527	25.43
827.704	-9.39
827.882	123.73
828.059	27.48
828.237	-17.58
828.414	95.06
828.591	-122.02
828.769	9.05
828.946	-52.39
829.124	25.43
829.301	99.16
829.478	-23.72
829.655	93.01
829.833	-70.83
830.01	-165.03
830.187	56.15
830.364	23.38
830.542	-7.34
830.719	113.49
830.896	60.24
831.073	43.86
831.25	45.91
831.427	56.15
831.604	-3.24
831.782	-103.59
831.959	84.82
832.136	-23.72
832.313	37.72
832.49	-11.43
832.667	74.58
832.844	-52.39
833.021	64.34
833.198	-1.19
833.374	21.33
833.551	41.81
833.728	-1.19
833.905	111.44
834.082	-81.07
834.259	64.34
834.436	50
834.612	-31.91
834.789	133.97
834.966	0.85
835.143	17.24
835.319	-44.2
835.496	29.52
835.673	70.48
835.85	78.68
836.026	47.96
836.203	144.21
836.38	-21.67
836.556	21.33
836.733	-23.72
836.909	146.26
837.086	31.57
837.262	-79.02
837.439	-5.29
837.616	23.38
837.792	11.09
837.968	41.81
838.145	-60.59
838.321	33.62
838.498	64.34
838.674	23.38
838.851	-13.48
839.027	-146.6
839.203	-64.68
839.38	4.95
839.556	17.24
839.732	82.77
839.909	-60.59
840.085	-3.24
840.261	-85.16
840.437	13.14
840.614	-40.11
840.79	162.64
840.966	76.63
841.142	50
841.318	-25.77
841.494	64.34
841.671	82.77
841.847	-58.54
842.023	-81.07
842.199	41.81
842.375	103.25
842.551	-130.22
842.727	-44.2
842.903	66.39
843.079	-52.39
843.255	21.33
843.431	2.9
843.607	9.05
843.783	-175.27
843.959	-19.63
844.134	13.14
844.31	170.83
844.486	-38.06
844.662	-11.43
844.838	-9.39
845.013	23.38
845.189	80.72
845.365	52.05
845.541	31.57
845.716	-62.63
845.892	111.44
846.068	-70.83
846.244	-40.11
846.419	-1.19
846.595	-89.26
846.77	-58.54
846.946	99.16
847.122	-72.87
847.297	-44.2
847.473	95.06
847.648	-79.02
847.824	35.67
847.999	-103.59
848.175	-76.97
848.35	86.87
848.526	47.96
848.701	58.2
848.876	93.01
849.052	123.73
849.227	7
849.403	-33.96
849.578	25.43
849.753	21.33
849.929	125.78
850.104	-97.45
850.279	-74.92
850.454	-11.43
850.63	50
850.805	15.19
850.98	0.85
851.155	13.14
851.33	4.95
851.505	-31.91
851.681	88.92
851.856	-64.68
852.031	74.58
852.206	52.05
852.381	-83.11
852.556	-40.11
852.731	74.58
852.906	56.15
853.081	101.2
853.256	84.82
853.431	39.76
853.606	21.33
853.781	-70.83
853.956	-44.2
854.131	9.05
854.305	-31.91
854.48	50
854.655	-76.97
854.83	-15.53
855.005	-40.11
855.18	90.96
855.354	-25.77
855.529	33.62
855.704	-40.11
855.879	-5.29
856.053	-44.2
856.228	-64.68
856.403	-89.26
856.577	19.29
856.752	-87.21
856.926	25.43
857.101	43.86
857.276	-7.34
857.45	7
857.625	-31.91
857.799	66.39
857.974	4.95
858.148	-74.92
858.323	11.09
858.497	19.29
858.672	-36.01
858.846	-23.72
859.02	138.07
859.195	-97.45
859.369	-38.06
859.543	56.15
859.718	11.09
859.892	-36.01
860.066	4.95
860.241	-56.49
860.415	13.14
860.589	-3.24
860.763	-13.48
860.938	43.86
861.112	29.52
861.286	-48.3
861.46	58.2
861.634	-15.53
861.808	95.06
861.982	-74.92
862.157	-97.45
862.331	-7.34
862.505	-60.59
862.679	-167.08
862.853	-7.34
863.027	33.62
863.201	166.74
863.375	-27.82
863.549	29.52
863.722	23.38
863.896	154.45
864.07	29.52
864.244	-11.43
864.418	2.9
864.592	-19.63
864.766	-1.19
864.939	17.24
865.113	-109.74
865.287	72.53
865.461	-81.07
865.634	-9.39
865.808	52.05
865.982	9.05
866.156	-9.39
866.329	-111.78
866.503	37.72
866.676	-31.91
866.85	21.33
867.024	-3.24
867.197	-17.58
867.371	84.82
867.544	37.72
867.718	-33.96
867.891	166.74
868.065	-11.43
868.238	15.19
868.412	72.53
868.585	13.14
868.759	-70.83
868.932	-68.78
869.105	-66.73
869.279	-11.43
869.452	15.19
869.625	41.81
869.799	-17.58
869.972	-74.92
870.145	-11.43
870.319	29.52
870.492	-79.02
870.665	21.33
870.838	-130.22
871.011	-27.82
871.185	-13.48
871.358	-13.48
871.531	56.15
871.704	-52.39
871.877	-11.43
872.05	70.48
872.223	-44.2
872.396	68.44
872.569	23.38
872.742	-68.78
872.915	43.86
873.088	-13.48
873.261	-64.68
873.434	17.24
873.607	-19.63
873.78	62.29
873.953	-60.59
874.126	13.14
874.299	2.9
874.471	-13.48
874.644	-81.07
874.817	27.48
874.99	109.4
875.163	-11.43
875.335	17.24
875.508	2.9
875.681	93.01
875.853	-36.01
876.026	-29.87
876.199	-1.19
876.371	29.52
876.544	-7.34
876.717	-40.11
876.889	-36.01
877.062	27.48
877.234	-27.82
877.407	-66.73
877.579	-27.82
877.752	27.48
877.924	66.39
878.097	7
878.269	-46.25
878.442	17.24
878.614	31.57
878.786	-29.87
878.959	29.52
879.131	47.96
879.303	-52.39
879.476	-7.34
879.648	7
879.82	64.34
879.993	-19.63
880.165	-19.63
880.337	-83.11
880.509	39.76
880.681	-74.92
880.854	0.85
881.026	138.07
881.198	103.25
881.37	33.62
881.542	-7.34
881.714	47.96
881.886	-9.39
882.058	-54.44
882.23	25.43
882.402	-58.54
882.574	-33.96
882.746	127.83
882.918	150.36
883.09	35.67
883.262	-15.53
883.434	-27.82
883.606	-81.07
883.778	15.19
883.95	123.73
884.122	25.43
884.293	54.1
884.465	41.81
884.637	95.06
884.809	0.85
884.98	60.24
885.152	45.91
885.324	23.38
885.496	-15.53
885.667	-38.06
885.839	-7.34
886.011	58.2
886.182	17.24
886.354	50
886.525	121.68
886.697	-17.58
886.869	4.95
887.04	15.19
887.212	166.74
887.383	144.21
887.555	56.15
887.726	-56.49
887.897	-5.29
888.069	23.38
888.24	54.1
888.412	-7.34
888.583	56.15
888.754	70.48
888.926	-68.78
889.097	-146.6
889.268	-58.54
889.44	-66.73
889.611	-101.55
889.782	-9.39
889.953	-31.91
890.125	82.77
890.296	-44.2
890.467	-83.11
890.638	-1.19
890.809	47.96
890.98	13.14
891.151	99.16
891.323	37.72
891.494	0.85
891.665	2.9
891.836	58.2
892.007	-3.24
892.178	27.48
892.349	62.29
892.52	-46.25
892.691	-99.5
892.862	-27.82
893.032	-83.11
893.203	58.2
893.374	74.58
893.545	90.96
893.716	-11.43
893.887	86.87
894.057	-64.68
894.228	-50.35
894.399	-56.49
894.57	64.34
894.74	52.05
894.911	88.92
895.082	4.95
895.253	17.24
895.423	35.67
895.594	-7.34
895.764	13.14
895.935	-95.4
896.106	82.77
896.276	-60.59
896.447	0.85
896.617	-81.07
896.788	-79.02
896.958	41.81
897.129	-97.45
897.299	-66.73
897.47	45.91
897.64	33.62
897.81	11.09
897.981	11.09
898.151	27.48
898.322	-21.67
898.492	56.15
898.662	-54.44
898.832	-72.87
899.003	-156.84
899.173	17.24
899.343	15.19
899.513	-101.55
