Data from USB4F104151__291__11-21-11-428.txt Node

Date: Wed Feb 26 11:21:11 EST 2025
User: louis
Spectrometer: USB4F10415
Trigger mode: 4
Integration Time (sec): 1.000000E-1
Scans to average: 1
Electric dark correction enabled: true
Nonlinearity correction enabled: false
Boxcar width: 0
XAxis mode: Wavelengths
Number of Pixels in Spectrum: 3648
>>>>>Begin Spectral Data<<<<<
178.204	-416.59
178.424	-416.59
178.644	-416.59
178.864	-389.97
179.084	-369.49
179.304	-9.05
179.524	-27.48
179.744	46.25
179.964	3.24
180.184	9.39
180.404	-27.48
180.624	-21.33
180.844	38.06
181.064	-90.96
181.283	3.24
181.503	-54.1
181.723	130.22
181.943	-95.06
182.163	132.26
182.383	23.72
182.602	15.53
182.822	95.4
183.042	52.39
183.262	-37.72
183.482	-50
183.701	64.68
183.921	-50
184.141	15.53
184.361	-23.38
184.58	19.63
184.8	83.11
185.02	-45.91
185.239	72.87
185.459	124.07
185.679	173.22
185.898	-156.5
186.118	93.35
186.338	23.72
186.557	179.37
186.777	-15.19
186.997	50.35
187.216	29.87
187.436	160.94
187.655	13.48
187.875	107.69
188.095	93.35
188.314	158.89
188.534	117.93
188.753	-43.86
188.973	66.73
189.192	193.7
189.412	1.19
189.631	36.01
189.851	89.26
190.07	205.99
190.29	-43.86
190.509	50.35
190.729	91.31
190.948	117.93
191.168	195.75
191.387	40.11
191.607	-17.24
191.826	95.4
192.045	42.15
192.265	-25.43
192.484	-4.95
192.704	13.48
192.923	-50
193.142	171.18
193.362	46.25
193.581	95.4
193.8	48.3
194.02	134.31
194.239	25.77
194.458	31.91
194.678	74.92
194.897	-119.64
195.116	93.35
195.335	58.54
195.555	89.26
195.774	11.43
195.993	72.87
196.212	-7
196.432	-131.92
196.651	27.82
196.87	29.87
197.089	214.18
197.308	140.46
197.528	160.94
197.747	-45.91
197.966	81.07
198.185	124.07
198.404	-68.44
198.623	122.02
198.842	64.68
199.062	113.83
199.281	54.44
199.5	9.39
199.719	134.31
199.938	72.87
200.157	85.16
200.376	91.31
200.595	115.88
200.814	185.51
201.033	5.29
201.252	144.55
201.471	93.35
201.69	169.13
201.909	85.16
202.128	124.07
202.347	93.35
202.566	33.96
202.785	-76.63
203.004	-58.2
203.223	322.73
203.442	40.11
203.661	11.43
203.879	74.92
204.098	136.36
204.317	33.96
204.536	130.22
204.755	97.45
204.974	171.18
205.193	50.35
205.411	136.36
205.63	136.36
205.849	115.88
206.068	9.39
206.287	-47.96
206.505	189.61
206.724	36.01
206.943	9.39
207.162	15.53
207.381	105.64
207.599	19.63
207.818	23.72
208.037	-11.09
208.255	7.34
208.474	101.55
208.693	62.63
208.911	-29.52
209.13	119.98
209.349	66.73
209.567	154.79
209.786	81.07
210.005	74.92
210.223	87.21
210.442	-162.64
210.661	23.72
210.879	105.64
211.098	-17.24
211.316	19.63
211.535	72.87
211.753	42.15
211.972	81.07
212.191	-72.53
212.409	3.24
212.628	79.02
212.846	7.34
213.065	64.68
213.283	113.83
213.502	72.87
213.72	15.53
213.938	-35.67
214.157	40.11
214.375	177.32
214.594	-29.52
214.812	158.89
215.031	31.91
215.249	89.26
215.467	83.11
215.686	56.49
215.904	70.83
216.122	83.11
216.341	130.22
216.559	48.3
216.778	130.22
216.996	187.56
217.214	44.2
217.432	-43.86
217.651	-11.09
217.869	79.02
218.087	23.72
218.306	-0.85
218.524	81.07
218.742	-4.95
218.96	38.06
219.179	-9.05
219.397	7.34
219.615	150.7
219.833	85.16
220.051	-90.96
220.27	150.7
220.488	134.31
220.706	52.39
220.924	-64.34
221.142	-7
221.36	70.83
221.578	21.67
221.796	66.73
222.015	46.25
222.233	58.54
222.451	150.7
222.669	-9.05
222.887	81.07
223.105	15.53
223.323	81.07
223.541	-33.62
223.759	31.91
223.977	72.87
224.195	165.03
224.413	74.92
224.631	48.3
224.849	36.01
225.067	220.33
225.285	-21.33
225.503	64.68
225.721	-99.16
225.939	56.49
226.157	46.25
226.375	197.8
226.592	7.34
226.81	33.96
227.028	54.44
227.246	87.21
227.464	19.63
227.682	25.77
227.9	79.02
228.117	66.73
228.335	54.44
228.553	107.69
228.771	58.54
228.989	-15.19
229.206	66.73
229.424	93.35
229.642	40.11
229.86	11.43
230.077	183.46
230.295	111.78
230.513	111.78
230.731	70.83
230.948	105.64
231.166	95.4
231.384	9.39
231.601	31.91
231.819	150.7
232.037	33.96
232.254	7.34
232.472	74.92
232.689	9.39
232.907	66.73
233.125	17.58
233.342	7.34
233.56	11.43
233.777	31.91
233.995	58.54
234.213	68.78
234.43	66.73
234.648	25.77
234.865	101.55
235.083	52.39
235.3	36.01
235.518	97.45
235.735	48.3
235.953	72.87
236.17	66.73
236.388	144.55
236.605	54.44
236.822	97.45
237.04	128.17
237.257	101.55
237.475	-41.81
237.692	79.02
237.909	52.39
238.127	40.11
238.344	62.63
238.562	1.19
238.779	-4.95
238.996	62.63
239.214	91.31
239.431	81.07
239.648	46.25
239.865	81.07
240.083	113.83
240.3	-31.57
240.517	-41.81
240.735	40.11
240.952	97.45
241.169	89.26
241.386	136.36
241.603	70.83
241.821	-27.48
242.038	85.16
242.255	152.74
242.472	-25.43
242.689	93.35
242.907	36.01
243.124	19.63
243.341	76.97
243.558	3.24
243.775	-52.05
243.992	-160.59
244.209	107.69
244.426	165.03
244.643	101.55
244.86	29.87
245.078	117.93
245.295	81.07
245.512	33.96
245.729	27.82
245.946	81.07
246.163	-45.91
246.38	-23.38
246.597	99.5
246.814	40.11
247.031	23.72
247.248	48.3
247.464	50.35
247.681	-33.62
247.898	93.35
248.115	115.88
248.332	13.48
248.549	195.75
248.766	130.22
248.983	7.34
249.2	142.5
249.417	99.5
249.633	58.54
249.85	-4.95
250.067	46.25
250.284	97.45
250.501	126.12
250.717	134.31
250.934	-56.15
251.151	17.58
251.368	11.43
251.585	132.26
251.801	9.39
252.018	15.53
252.235	91.31
252.451	-50
252.668	74.92
252.885	160.94
253.102	64.68
253.318	13.48
253.535	-64.34
253.752	9.39
253.968	5.29
254.185	-131.92
254.401	99.5
254.618	74.92
254.835	19.63
255.051	128.17
255.268	44.2
255.484	68.78
255.701	103.59
255.917	44.2
256.134	21.67
256.351	101.55
256.567	33.96
256.784	-2.9
257	-82.77
257.217	124.07
257.433	29.87
257.65	93.35
257.866	261.29
258.082	-84.82
258.299	-0.85
258.515	36.01
258.732	-7
258.948	-41.81
259.165	58.54
259.381	-17.24
259.597	66.73
259.814	11.43
260.03	91.31
260.246	17.58
260.463	60.59
260.679	140.46
260.895	15.53
261.112	93.35
261.328	-2.9
261.544	50.35
261.761	169.13
261.977	40.11
262.193	-70.48
262.409	60.59
262.626	91.31
262.842	44.2
263.058	58.54
263.274	165.03
263.49	101.55
263.707	81.07
263.923	109.74
264.139	-64.34
264.355	46.25
264.571	113.83
264.787	27.82
265.004	72.87
265.22	36.01
265.436	-19.29
265.652	-7
265.868	156.84
266.084	-27.48
266.3	58.54
266.516	15.53
266.732	31.91
266.948	36.01
267.164	68.78
267.38	156.84
267.596	74.92
267.812	134.31
268.028	7.34
268.244	25.77
268.46	54.44
268.676	11.43
268.892	-21.33
269.108	-39.76
269.324	-97.11
269.54	-54.1
269.756	93.35
269.972	-64.34
270.188	134.31
270.403	-60.24
270.619	-9.05
270.835	126.12
271.051	42.15
271.267	23.72
271.483	-62.29
271.698	93.35
271.914	48.3
272.13	21.67
272.346	54.44
272.562	76.97
272.777	56.49
272.993	7.34
273.209	21.67
273.425	124.07
273.64	-15.19
273.856	58.54
274.072	42.15
274.287	19.63
274.503	48.3
274.719	132.26
274.934	-45.91
275.15	-41.81
275.366	19.63
275.581	-39.76
275.797	27.82
276.012	62.63
276.228	7.34
276.444	101.55
276.659	191.66
276.875	13.48
277.09	56.49
277.306	-27.48
277.521	85.16
277.737	46.25
277.952	136.36
278.168	-0.85
278.383	87.21
278.599	138.41
278.814	105.64
279.03	56.49
279.245	212.14
279.461	44.2
279.676	150.7
279.892	-33.62
280.107	-37.72
280.322	-2.9
280.538	105.64
280.753	-2.9
280.969	31.91
281.184	19.63
281.399	130.22
281.615	56.49
281.83	119.98
282.045	-31.57
282.26	-41.81
282.476	9.39
282.691	99.5
282.906	93.35
283.122	-2.9
283.337	-41.81
283.552	60.59
283.767	-0.85
283.983	119.98
284.198	52.39
284.413	74.92
284.628	-101.2
284.843	60.59
285.058	95.4
285.274	17.58
285.489	31.91
285.704	179.37
285.919	-54.1
286.134	-17.24
286.349	19.63
286.564	48.3
286.779	113.83
286.995	42.15
287.21	3.24
287.425	74.92
287.64	11.43
287.855	81.07
288.07	-76.63
288.285	144.55
288.5	103.59
288.715	130.22
288.93	93.35
289.145	33.96
289.36	169.13
289.575	21.67
289.79	95.4
290.004	19.63
290.219	124.07
290.434	13.48
290.649	-17.24
290.864	19.63
291.079	44.2
291.294	29.87
291.509	46.25
291.724	21.67
291.938	31.91
292.153	81.07
292.368	56.49
292.583	66.73
292.798	113.83
293.012	54.44
293.227	31.91
293.442	9.39
293.657	124.07
293.871	119.98
294.086	40.11
294.301	111.78
294.516	136.36
294.73	33.96
294.945	-68.44
295.16	83.11
295.374	146.6
295.589	107.69
295.804	1.19
296.018	15.53
296.233	179.37
296.447	11.43
296.662	-2.9
296.877	122.02
297.091	122.02
297.306	19.63
297.52	138.41
297.735	62.63
297.949	52.39
298.164	68.78
298.378	93.35
298.593	-25.43
298.807	-39.76
299.022	-19.29
299.236	101.55
299.451	33.96
299.665	-9.05
299.88	-29.52
300.094	142.5
300.309	40.11
300.523	95.4
300.737	-15.19
300.952	83.11
301.166	124.07
301.381	-7
301.595	-17.24
301.809	48.3
302.024	-11.09
302.238	19.63
302.452	126.12
302.667	-58.2
302.881	122.02
303.095	150.7
303.309	66.73
303.524	-15.19
303.738	44.2
303.952	-15.19
304.166	66.73
304.381	-101.2
304.595	191.66
304.809	23.72
305.023	38.06
305.237	7.34
305.452	-0.85
305.666	146.6
305.88	101.55
306.094	119.98
306.308	50.35
306.522	140.46
306.736	146.6
306.95	101.55
307.164	15.53
307.379	60.59
307.593	115.88
307.807	177.32
308.021	101.55
308.235	142.5
308.449	3.24
308.663	83.11
308.877	199.85
309.091	-17.24
309.305	87.21
309.519	-95.06
309.733	152.74
309.947	-17.24
310.161	3.24
310.374	50.35
310.588	134.31
310.802	-17.24
311.016	83.11
311.23	23.72
311.444	-27.48
311.658	11.43
311.872	144.55
312.085	50.35
312.299	150.7
312.513	122.02
312.727	36.01
312.941	-52.05
313.154	134.31
313.368	50.35
313.582	31.91
313.796	68.78
314.009	60.59
314.223	101.55
314.437	29.87
314.651	72.87
314.864	46.25
315.078	93.35
315.292	-47.96
315.505	31.91
315.719	91.31
315.933	58.54
316.146	-11.09
316.36	-19.29
316.573	195.75
316.787	81.07
317.001	38.06
317.214	-2.9
317.428	48.3
317.641	17.58
317.855	17.58
318.068	81.07
318.282	101.55
318.495	218.28
318.709	64.68
318.922	31.91
319.136	91.31
319.349	89.26
319.563	27.82
319.776	54.44
319.99	-47.96
320.203	97.45
320.417	62.63
320.63	50.35
320.843	109.74
321.057	52.39
321.27	46.25
321.483	54.44
321.697	201.9
321.91	46.25
322.124	72.87
322.337	128.17
322.55	11.43
322.763	7.34
322.977	60.59
323.19	11.43
323.403	48.3
323.617	54.44
323.83	74.92
324.043	23.72
324.256	93.35
324.469	-64.34
324.683	66.73
324.896	15.53
325.109	23.72
325.322	-7
325.535	144.55
325.748	91.31
325.962	42.15
326.175	7.34
326.388	52.39
326.601	195.75
326.814	76.97
327.027	5.29
327.24	144.55
327.453	-21.33
327.666	83.11
327.879	128.17
328.092	36.01
328.305	85.16
328.518	-4.95
328.731	21.67
328.944	-33.62
329.157	48.3
329.37	54.44
329.583	187.56
329.796	162.98
330.009	-29.52
330.222	46.25
330.435	42.15
330.648	148.65
330.861	23.72
331.073	103.59
331.286	124.07
331.499	11.43
331.712	-23.38
331.925	11.43
332.138	17.58
332.35	113.83
332.563	7.34
332.776	148.65
332.989	-39.76
333.202	-7
333.414	33.96
333.627	-0.85
333.84	46.25
334.053	46.25
334.265	15.53
334.478	-19.29
334.691	119.98
334.903	64.68
335.116	-19.29
335.329	23.72
335.541	38.06
335.754	142.5
335.966	33.96
336.179	97.45
336.392	5.29
336.604	113.83
336.817	111.78
337.029	66.73
337.242	42.15
337.454	70.83
337.667	48.3
337.88	140.46
338.092	124.07
338.305	60.59
338.517	50.35
338.729	89.26
338.942	130.22
339.154	3.24
339.367	-13.14
339.579	68.78
339.792	-33.62
340.004	93.35
340.217	58.54
340.429	40.11
340.641	36.01
340.854	19.63
341.066	76.97
341.278	144.55
341.491	122.02
341.703	42.15
341.915	48.3
342.128	148.65
342.34	40.11
342.552	-33.62
342.764	72.87
342.977	19.63
343.189	72.87
343.401	1.19
343.613	44.2
343.826	46.25
344.038	11.43
344.25	29.87
344.462	11.43
344.674	101.55
344.886	19.63
345.099	38.06
345.311	85.16
345.523	33.96
345.735	-58.2
345.947	48.3
346.159	177.32
346.371	25.77
346.583	25.77
346.795	218.28
347.007	11.43
347.219	162.98
347.431	44.2
347.643	50.35
347.855	44.2
348.067	185.51
348.279	19.63
348.491	7.34
348.703	173.22
348.915	9.39
349.127	-115.54
349.339	31.91
349.551	1.19
349.763	122.02
349.975	21.67
350.187	107.69
350.399	140.46
350.61	79.02
350.822	97.45
351.034	66.73
351.246	117.93
351.458	91.31
351.669	72.87
351.881	93.35
352.093	150.7
352.305	148.65
352.517	171.18
352.728	122.02
352.94	-2.9
353.152	140.46
353.363	-45.91
353.575	107.69
353.787	205.99
353.999	81.07
354.21	146.6
354.422	-21.33
354.633	25.77
354.845	23.72
355.057	175.27
355.268	87.21
355.48	60.59
355.692	-27.48
355.903	5.29
356.115	29.87
356.326	-68.44
356.538	95.4
356.749	56.49
356.961	185.51
357.172	11.43
357.384	-68.44
357.595	195.75
357.807	46.25
358.018	-41.81
358.23	72.87
358.441	208.04
358.653	50.35
358.864	-37.72
359.075	-21.33
359.287	58.54
359.498	89.26
359.709	42.15
359.921	27.82
360.132	134.31
360.344	21.67
360.555	-15.19
360.766	85.16
360.977	5.29
361.189	117.93
361.4	52.39
361.611	185.51
361.823	74.92
362.034	29.87
362.245	13.48
362.456	64.68
362.667	115.88
362.879	31.91
363.09	89.26
363.301	89.26
363.512	36.01
363.723	33.96
363.935	-31.57
364.146	165.03
364.357	60.59
364.568	74.92
364.779	-21.33
364.99	62.63
365.201	-21.33
365.412	15.53
365.623	-15.19
365.834	40.11
366.045	117.93
366.256	44.2
366.467	113.83
366.678	46.25
366.889	3.24
367.1	-31.57
367.311	128.17
367.522	23.72
367.733	134.31
367.944	109.74
368.155	11.43
368.366	40.11
368.577	126.12
368.788	181.42
368.999	-2.9
369.209	19.63
369.42	189.61
369.631	261.29
369.842	142.5
370.053	-0.85
370.264	150.7
370.474	15.53
370.685	109.74
370.896	5.29
371.107	130.22
371.317	105.64
371.528	81.07
371.739	128.17
371.95	93.35
372.16	36.01
372.371	7.34
372.582	9.39
372.792	83.11
373.003	-2.9
373.214	58.54
373.424	-17.24
373.635	-72.53
373.846	205.99
374.056	38.06
374.267	11.43
374.477	36.01
374.688	27.82
374.898	44.2
375.109	113.83
375.319	50.35
375.53	95.4
375.74	199.85
375.951	87.21
376.161	68.78
376.372	146.6
376.582	38.06
376.793	76.97
377.003	-52.05
377.214	-52.05
377.424	162.98
377.635	5.29
377.845	50.35
378.055	148.65
378.266	-15.19
378.476	1.19
378.686	89.26
378.897	101.55
379.107	130.22
379.317	93.35
379.528	-2.9
379.738	70.83
379.948	-56.15
380.158	93.35
380.369	130.22
380.579	122.02
380.789	38.06
380.999	29.87
381.21	140.46
381.42	212.14
381.63	25.77
381.84	148.65
382.05	144.55
382.261	142.5
382.471	144.55
382.681	31.91
382.891	167.08
383.101	109.74
383.311	-105.3
383.521	-0.85
383.731	56.49
383.941	177.32
384.151	117.93
384.361	109.74
384.571	91.31
384.781	146.6
384.991	210.09
385.201	273.57
385.411	167.08
385.621	177.32
385.831	103.59
386.041	72.87
386.251	74.92
386.461	113.83
386.671	-4.95
386.881	-11.09
387.091	46.25
387.301	146.6
387.511	81.07
387.72	126.12
387.93	165.03
388.14	-56.15
388.35	9.39
388.56	74.92
388.769	128.17
388.979	1.19
389.189	7.34
389.399	76.97
389.609	144.55
389.818	187.56
390.028	72.87
390.238	23.72
390.447	1.19
390.657	27.82
390.867	25.77
391.076	-50
391.286	89.26
391.496	46.25
391.705	31.91
391.915	154.79
392.125	103.59
392.334	72.87
392.544	169.13
392.753	103.59
392.963	3.24
393.172	40.11
393.382	-33.62
393.591	193.7
393.801	-13.14
394.01	142.5
394.22	136.36
394.429	-41.81
394.639	1.19
394.848	103.59
395.058	119.98
395.267	68.78
395.477	113.83
395.686	89.26
395.895	234.66
396.105	154.79
396.314	19.63
396.524	122.02
396.733	-35.67
396.942	89.26
397.152	93.35
397.361	126.12
397.57	89.26
397.78	64.68
397.989	109.74
398.198	210.09
398.407	44.2
398.617	58.54
398.826	130.22
399.035	42.15
399.244	138.41
399.453	87.21
399.663	56.49
399.872	87.21
400.081	-21.33
400.29	140.46
400.499	97.45
400.708	113.83
400.917	48.3
401.127	-0.85
401.336	23.72
401.545	124.07
401.754	158.89
401.963	76.97
402.172	-25.43
402.381	48.3
402.59	-45.91
402.799	72.87
403.008	138.41
403.217	48.3
403.426	87.21
403.635	44.2
403.844	87.21
404.053	9.39
404.262	-39.76
404.471	193.7
404.68	74.92
404.888	156.84
405.097	7.34
405.306	33.96
405.515	160.94
405.724	54.44
405.933	91.31
406.142	122.02
406.35	191.66
406.559	97.45
406.768	99.5
406.977	246.95
407.185	97.45
407.394	152.74
407.603	-82.77
407.812	89.26
408.02	105.64
408.229	58.54
408.438	60.59
408.646	62.63
408.855	13.48
409.064	119.98
409.272	60.59
409.481	109.74
409.69	36.01
409.898	-37.72
410.107	62.63
410.315	72.87
410.524	81.07
410.733	93.35
410.941	62.63
411.15	122.02
411.358	132.26
411.567	132.26
411.775	107.69
411.984	60.59
412.192	62.63
412.401	48.3
412.609	148.65
412.818	160.94
413.026	124.07
413.234	29.87
413.443	64.68
413.651	-25.43
413.86	-13.14
414.068	144.55
414.276	228.52
414.485	11.43
414.693	179.37
414.901	218.28
415.11	3.24
415.318	70.83
415.526	93.35
415.734	117.93
415.943	115.88
416.151	130.22
416.359	81.07
416.567	111.78
416.776	150.7
416.984	193.7
417.192	230.57
417.4	-21.33
417.608	130.22
417.817	15.53
418.025	72.87
418.233	79.02
418.441	31.91
418.649	-35.67
418.857	29.87
419.065	150.7
419.273	-17.24
419.481	111.78
419.689	17.58
419.897	27.82
420.105	-25.43
420.313	136.36
420.521	187.56
420.729	105.64
420.937	54.44
421.145	-37.72
421.353	122.02
421.561	212.14
421.769	146.6
421.977	-11.09
422.185	101.55
422.393	48.3
422.601	111.78
422.809	119.98
423.017	60.59
423.224	79.02
423.432	115.88
423.64	42.15
423.848	107.69
424.056	-41.81
424.263	113.83
424.471	87.21
424.679	162.98
424.887	36.01
425.094	183.46
425.302	142.5
425.51	113.83
425.718	134.31
425.925	150.7
426.133	89.26
426.341	273.57
426.548	138.41
426.756	97.45
426.964	134.31
427.171	40.11
427.379	130.22
427.586	142.5
427.794	244.9
428.001	249
428.209	144.55
428.417	177.32
428.624	95.4
428.832	210.09
429.039	109.74
429.247	95.4
429.454	136.36
429.662	246.95
429.869	222.38
430.076	93.35
430.284	244.9
430.491	152.74
430.699	205.99
430.906	216.23
431.114	214.18
431.321	203.94
431.528	113.83
431.736	146.6
431.943	234.66
432.15	138.41
432.358	263.33
432.565	283.81
432.772	130.22
432.979	261.29
433.187	201.9
433.394	269.48
433.601	187.56
433.808	236.71
434.016	283.81
434.223	304.29
434.43	226.47
434.637	335.01
434.844	277.67
435.052	249
435.259	357.54
435.466	357.54
435.673	285.86
435.88	382.12
436.087	402.6
436.294	361.64
436.501	355.49
436.708	343.21
436.915	439.46
437.122	490.66
437.329	332.97
437.537	439.46
437.743	396.45
437.95	529.57
438.157	474.28
438.364	425.12
438.571	509.09
438.778	578.72
438.985	568.48
439.192	586.91
439.399	539.81
439.606	468.13
439.813	593.06
440.02	797.85
440.227	783.52
440.433	705.7
440.64	670.88
440.847	646.3
441.054	691.36
441.261	861.34
441.467	726.18
441.674	752.8
441.881	908.44
442.088	795.81
442.294	949.4
442.501	949.4
442.708	1014.94
442.914	973.98
443.121	1019.04
443.328	1096.86
443.534	1178.78
443.741	1080.47
443.948	926.88
444.154	1277.08
444.361	1367.19
444.568	1295.51
444.774	1375.38
444.981	1191.06
445.187	1547.41
445.394	1297.56
445.6	1485.97
445.807	1662.1
446.013	1520.79
446.22	1588.37
446.426	1787.02
446.633	1815.69
446.839	1989.77
447.046	1809.55
447.252	2022.54
447.459	1997.96
447.665	2090.12
447.871	2153.61
448.078	2325.64
448.284	2469
448.491	2598.02
448.697	2579.59
448.903	2681.99
449.11	2817.15
449.316	2739.33
449.522	2935.93
449.728	3056.76
449.935	3271.8
450.141	3193.98
450.347	3556.47
450.553	3296.38
450.76	3433.59
450.966	3687.54
451.172	3687.54
451.378	3882.1
451.584	3980.4
451.791	4252.78
451.997	4293.74
452.203	4406.38
452.409	4625.51
452.615	4766.82
452.821	4844.64
453.027	4891.74
453.233	5485.65
453.44	5293.15
453.646	5590.1
453.852	5921.87
454.058	6151.24
454.264	5993.55
454.47	6577.22
454.676	6716.48
454.882	7416.89
455.088	6892.61
455.294	7502.9
455.5	7840.82
455.705	8217.65
455.911	8197.17
456.117	8432.68
456.323	8760.36
456.529	8893.47
456.735	9710.61
456.941	9708.57
457.147	10400.78
457.352	10380.3
457.558	10775.56
457.764	11480.06
457.97	11758.58
458.176	12190.7
458.381	12659.69
458.587	12979.17
458.793	13646.81
458.999	13558.75
459.204	15627.2
459.41	15809.47
459.616	15608.76
459.821	16364.46
460.027	17531.81
460.233	18160.53
460.438	17972.12
460.644	19110.79
460.85	19395.46
461.055	20126.58
461.261	21033.83
461.466	20452.21
461.672	21166.95
461.878	23505.73
462.083	23233.35
462.289	23530.31
462.494	24711.99
462.7	24748.85
462.905	25387.82
463.111	26884.88
463.316	28789.49
463.522	29397.74
463.727	30257.88
463.932	31765.19
464.138	32561.85
464.343	33514.16
464.549	33508.01
464.754	36053.64
464.959	36905.59
465.165	37649
465.37	37425.78
465.575	37335.66
465.781	40002.12
465.986	40874.55
466.191	40405.57
466.397	40983.1
466.602	39965.26
466.807	42275.37
467.012	42691.1
467.218	43498
467.423	43575.83
467.628	45308.41
467.833	47268.31
468.038	46651.87
468.244	45726.19
468.449	47839.7
468.654	46924.25
468.859	46780.9
469.064	46612.96
469.269	46154.22
469.474	46084.59
469.679	47129.05
469.885	46318.06
470.09	46844.38
470.295	46723.55
470.5	45834.74
470.705	46273
470.91	45253.11
471.115	44462.6
471.32	45433.33
471.525	44798.46
471.73	43590.16
471.935	43315.73
472.139	42023.47
472.344	42195.49
472.549	41898.54
472.754	40907.32
472.959	39979.59
473.164	38777.43
473.369	38277.73
473.574	39531.09
473.778	38646.36
473.983	37597.8
474.188	37069.43
474.393	35246.74
474.598	35156.63
474.802	34411.17
475.007	34214.56
475.212	33579.69
475.417	32486.07
475.621	32291.52
475.826	32244.41
476.031	31150.8
476.235	30348
476.44	30675.67
476.645	29485.8
476.849	29446.89
477.054	28857.07
477.259	28027.65
477.463	28183.29
477.668	27507.46
477.872	27675.4
478.077	26610.45
478.282	25875.23
478.486	25664.29
478.691	25348.9
478.895	25031.47
479.1	25068.33
479.304	24834.86
479.509	24261.43
479.713	24247.1
479.918	23821.12
480.122	23444.29
480.326	23495.49
480.531	23495.49
480.735	23257.93
480.94	22932.3
481.144	23432.01
481.348	22100.83
481.553	22229.85
481.757	21652.32
481.961	21998.43
482.166	22367.06
482.37	21961.56
482.574	21431.14
482.778	21459.81
482.983	21707.62
483.187	21351.27
483.391	21252.97
483.595	20898.67
483.8	20386.68
484.004	20726.64
484.208	20169.59
484.412	20271.99
484.616	20132.73
484.821	19733.37
485.025	19047.3
485.229	19407.75
485.433	18652.05
485.637	18815.88
485.841	18459.54
486.045	18264.98
486.249	18181.01
486.453	17898.39
486.657	17591.2
486.861	17353.63
487.065	16733.1
487.269	16737.2
487.473	16157.62
487.677	16348.08
487.881	16149.43
488.085	15645.63
488.289	15559.61
488.493	15330.24
488.697	15516.61
488.901	14861.26
489.105	14445.52
489.309	14259.15
489.512	14267.34
489.716	13638.62
489.92	13388.77
490.124	13392.86
490.328	13288.42
490.531	12704.74
490.735	12708.84
490.939	12618.73
491.143	12051.44
491.346	11967.48
491.55	11883.51
491.754	11619.32
491.958	11572.22
492.161	11369.47
492.365	11097.09
492.569	10787.85
492.772	10656.78
492.976	10820.61
493.18	10415.12
493.383	10527.75
493.587	10349.58
493.79	10318.86
493.994	9915.41
494.197	9917.46
494.401	9704.47
494.605	9675.8
494.808	9606.17
495.012	9663.51
495.215	9657.37
495.419	9673.75
495.622	9221.15
495.825	9120.8
496.029	9100.32
496.232	9284.64
496.436	9018.4
496.639	9415.71
496.843	9065.5
497.046	9141.28
497.249	9221.15
497.453	9131.04
497.656	9176.09
497.859	9131.04
498.063	9104.42
498.266	9192.48
498.469	9102.37
498.673	9280.54
498.876	9141.28
499.079	8983.59
499.282	9204.77
499.485	9587.74
499.689	9397.28
499.892	9427.99
500.095	9323.55
500.298	9733.14
500.501	9413.66
500.705	9720.85
500.908	10040.34
501.111	9987.09
501.314	9942.03
501.517	10253.33
501.72	10052.63
501.923	10069.01
502.126	10157.07
502.329	10466.31
502.532	10384.4
502.735	10679.3
502.938	10671.11
503.141	10814.47
503.344	10773.51
503.547	11279.36
503.75	11172.86
503.953	11308.03
504.156	11541.5
504.359	11635.71
504.562	11906.04
504.765	11965.43
504.968	12098.55
505.17	12491.76
505.373	12299.25
505.576	12868.58
505.779	12960.74
505.982	13149.15
506.185	13130.72
506.387	13605.85
506.59	13673.43
506.793	14250.96
506.996	14169.04
507.198	14607.31
507.401	14732.23
507.604	15307.71
507.807	15272.9
508.009	15766.46
508.212	15821.75
508.415	16335.79
508.617	16571.31
508.82	16726.96
509.022	17085.35
509.225	17603.49
509.428	18008.98
509.63	17933.21
509.833	18365.33
510.035	19643.26
510.238	19078.02
510.44	19659.65
510.643	20378.48
510.845	20689.77
511.048	20990.83
511.25	21543.78
511.453	21932.89
511.655	23012.17
511.858	23014.22
512.06	23579.46
512.262	24011.58
512.465	24218.43
512.667	25109.29
512.87	25254.7
513.072	25744.16
513.274	26979.09
513.477	27370.25
513.679	28093.18
513.881	28734.2
514.084	28922.61
514.286	29514.47
514.488	30251.74
514.69	31390.41
514.893	31773.38
515.095	32117.44
515.297	33086.13
515.499	33493.68
515.701	34065.06
515.904	34759.32
516.106	35678.86
516.308	36543.1
516.51	37347.95
516.712	37882.47
516.914	38216.29
517.116	39465.55
517.318	39840.33
517.52	40673.85
517.722	41093.69
517.925	42041.9
518.127	42856.99
518.329	43188.76
518.531	43559.44
518.733	44777.98
518.935	45332.98
519.136	45781.49
519.338	46948.83
519.54	47356.38
519.742	48212.43
519.944	48536.01
520.146	49506.74
520.348	50114.99
520.55	50594.21
520.752	51079.58
520.954	52138.38
521.155	52201.87
521.357	52674.95
521.559	53698.94
521.761	54448.49
521.963	54651.24
522.164	54997.35
522.366	55452
522.568	56181.07
522.77	56011.09
522.971	56918.34
523.173	56830.28
523.375	57563.45
523.576	57221.44
523.778	57538.88
523.98	58274.1
524.181	58601.77
524.383	57950.52
524.584	59097.38
524.786	58724.65
524.988	58736.94
525.189	59523.36
525.391	59044.13
525.592	59439.39
525.794	59390.24
525.995	59056.42
526.197	58738.99
526.398	59187.49
526.6	59437.34
526.801	58822.95
527.003	59019.56
527.204	58657.07
527.406	58757.42
527.607	58394.93
527.808	58306.86
528.01	57381.18
528.211	57504.06
528.412	57540.92
528.614	57293.12
528.815	56553.8
529.016	56680.78
529.218	55730.52
529.419	55632.22
529.62	55112.03
529.822	54253.93
530.023	54028.66
530.224	53522.81
530.425	53410.17
530.626	52242.83
530.828	51753.36
531.029	52562.31
531.23	50835.87
531.431	50297.26
531.632	50100.65
531.833	49537.46
532.035	49271.23
532.236	48138.7
532.437	48132.56
532.638	47342.04
532.839	46535.14
533.04	46256.62
533.241	45292.02
533.442	45642.23
533.643	44296.71
533.844	43536.91
534.045	43604.5
534.246	42668.58
534.447	42226.21
534.648	41734.7
534.849	40989.24
535.05	40104.52
535.251	39760.46
535.451	39375.44
535.652	39017.05
535.853	38373.99
536.054	37712.49
536.255	37573.23
536.456	36598.4
536.657	36944.5
536.857	35822.22
537.058	35525.26
537.259	34808.47
537.46	34886.29
537.66	33985.19
537.861	33964.71
538.062	32840.37
538.263	32682.68
538.463	32588.47
538.664	32041.67
538.865	31601.35
539.065	31384.27
539.266	30753.49
539.466	30794.45
539.667	30106.34
539.868	29762.28
540.068	29162.22
540.269	28988.14
540.469	28930.8
540.67	28562.17
540.87	28072.7
541.071	27515.65
541.271	27853.57
541.472	26872.59
541.672	26684.18
541.873	26262.3
542.073	26014.49
542.274	25983.77
542.474	25795.36
542.675	25256.75
542.875	25170.73
543.075	24470.33
543.276	24415.03
543.476	24423.22
543.676	23847.74
543.877	23681.86
544.077	23462.72
544.277	22883.15
544.478	22842.19
544.678	22461.27
544.878	22201.18
545.078	22135.64
545.279	21758.81
545.479	21541.73
545.679	21357.41
545.879	20994.92
546.079	20919.15
546.28	20556.66
546.48	20216.69
546.68	20304.76
546.88	20030.33
547.08	19970.94
547.28	19499.91
547.48	18910.09
547.68	19321.73
547.88	18543.5
548.081	18439.06
548.281	18111.38
548.481	17699.74
548.681	17836.95
548.881	17560.48
549.081	17202.08
549.28	17290.15
549.48	16749.48
549.68	16589.74
549.88	16796.59
550.08	16077.75
550.28	16010.17
550.48	15952.82
550.68	15772.6
550.88	15217.6
551.08	15197.12
551.279	14965.7
551.479	14724.04
551.679	14836.68
551.879	14183.38
552.079	14250.96
552.278	13741.02
552.478	13874.13
552.678	13589.47
552.878	13532.12
553.077	13106.15
553.277	12710.89
553.477	13032.42
553.676	12487.66
553.876	12315.63
554.076	11969.52
554.275	11922.42
554.475	11770.87
554.674	11746.3
554.874	11330.56
555.074	11152.38
555.273	11068.42
555.473	10834.95
555.672	10574.86
555.872	10515.47
556.071	10380.3
556.271	10476.55
556.47	9913.36
556.67	9690.13
556.869	9808.92
557.068	9458.71
557.268	9305.12
557.467	9251.87
557.667	9153.57
557.866	8956.96
558.065	8789.03
558.265	8555.56
558.464	8387.63
558.663	8328.24
558.863	8291.37
559.062	8111.15
559.261	7879.73
559.461	7978.03
559.66	7713.84
559.859	7584.82
560.058	7461.94
560.258	7273.53
560.457	7189.56
560.656	7244.86
560.855	6876.23
561.054	6931.52
561.253	6812.74
561.453	6736.96
561.652	6734.92
561.851	6634.57
562.05	6392.91
562.249	6222.92
562.448	6394.95
562.647	6110.29
562.846	6085.71
563.045	6046.8
563.244	5866.58
563.443	5739.6
563.642	5543
563.841	5639.25
564.04	5565.53
564.239	5571.67
564.438	5413.98
564.637	5262.43
564.836	5416.02
565.035	5254.23
565.234	5172.32
565.432	4981.85
565.631	5090.4
565.83	4834.4
566.029	4596.84
566.228	4734.05
566.427	4783.2
566.625	4551.78
566.824	4555.88
567.023	4539.49
567.222	4263.02
567.42	4275.31
567.619	4217.96
567.818	4281.45
568.016	4404.33
568.215	4172.91
568.414	4101.23
568.612	3918.96
568.811	4000.88
569.01	3968.11
569.208	3855.47
569.407	3841.14
569.605	3685.49
569.804	3648.63
570.002	3687.54
570.201	3511.41
570.4	3624.05
570.598	3406.97
570.797	3398.77
570.995	3247.23
571.193	3314.81
571.392	3349.62
571.59	3181.69
571.789	3294.33
571.987	3155.07
572.186	3163.26
572.384	2956.41
572.582	3058.81
572.781	3118.2
572.979	2823.3
573.177	2849.92
573.376	2880.64
573.574	2890.88
573.772	2827.39
573.971	2700.42
574.169	2536.58
574.367	2710.66
574.565	2548.87
574.763	2608.26
574.962	2442.37
575.16	2421.89
575.358	2305.16
575.556	2321.54
575.754	2374.79
575.952	2270.34
576.151	2292.87
576.349	2202.76
576.547	2114.7
576.745	2174.09
576.943	2174.09
577.141	2110.6
577.339	2010.25
577.537	2112.65
577.735	2036.88
577.933	2049.16
578.131	1809.55
578.329	2000.01
578.527	2038.92
578.725	1860.75
578.923	1721.49
579.121	1774.74
579.319	1750.16
579.516	1756.3
579.714	1813.65
579.912	1651.86
580.11	1658
580.308	1643.67
580.506	1582.23
580.704	1490.07
580.901	1549.46
581.099	1594.51
581.297	1533.08
581.495	1578.13
581.692	1488.02
581.89	1651.86
582.088	1475.73
582.285	1373.33
582.483	1393.81
582.681	1346.71
582.878	1359
583.076	1393.81
583.274	1326.23
583.471	1416.34
583.669	1238.17
583.866	1205.4
584.064	1307.8
584.262	1168.54
584.459	1244.31
584.657	1281.18
584.854	1295.51
585.052	1246.36
585.249	1154.2
585.447	1123.48
585.644	1027.23
585.841	1135.77
586.039	1143.96
586.236	1131.67
586.434	1041.56
586.631	998.56
586.828	1070.23
587.026	955.55
587.223	912.54
587.42	1023.13
587.618	1053.85
587.815	1080.47
588.012	1008.8
588.21	892.06
588.407	1025.18
588.604	984.22
588.801	875.68
588.999	890.01
589.196	1043.61
589.393	908.44
589.59	930.97
589.787	855.2
589.984	918.68
590.182	844.96
590.379	775.33
590.576	863.39
590.773	910.49
590.97	736.42
591.167	836.77
591.364	777.37
591.561	877.73
591.758	945.31
591.955	900.25
592.152	787.61
592.349	732.32
592.546	881.82
592.743	806.05
592.94	840.86
593.137	935.07
593.334	986.27
593.531	824.48
593.727	976.03
593.924	859.29
594.121	795.81
594.318	832.67
594.515	789.66
594.712	883.87
594.908	943.26
595.105	806.05
595.302	908.44
595.499	806.05
595.696	1051.8
595.892	806.05
596.089	1043.61
596.286	910.49
596.482	1053.85
596.679	967.84
596.876	1010.84
597.072	1184.92
597.269	1019.04
597.466	1045.66
597.662	1121.43
597.859	1129.63
598.055	1125.53
598.252	1270.94
598.448	1260.7
598.645	1365.14
598.841	1346.71
599.038	1432.72
599.234	1576.08
599.431	1498.26
599.627	1488.02
599.824	1725.58
600.02	1678.48
600.217	1619.09
600.413	1827.98
600.609	1885.33
600.806	2210.95
601.002	2024.59
601.198	2051.21
601.395	2213
601.591	2137.23
601.787	2339.97
601.984	2495.62
602.18	2493.57
602.376	2634.88
602.572	2811.01
602.769	2854.02
602.965	2837.63
603.161	2923.65
603.357	3050.62
603.553	3239.03
603.75	3220.6
603.946	3386.49
604.142	3595.38
604.338	3791.98
604.534	3505.27
604.73	3669.11
604.926	3927.15
605.122	4193.39
605.318	4088.94
605.514	4486.25
605.71	4367.46
605.906	4648.04
606.102	4705.38
606.298	5020.77
606.494	5155.93
606.69	5336.15
606.886	5362.78
607.082	5321.82
607.278	5622.87
607.474	5864.53
607.67	6069.33
607.866	6165.58
608.062	6501.45
608.257	6478.92
608.453	6599.75
608.649	6900.8
608.845	7068.73
609.041	7115.84
609.236	7296.06
609.432	7732.28
609.628	7871.54
609.824	8094.77
610.019	8119.34
610.215	8410.15
610.411	8813.6
610.606	9061.41
610.802	9139.23
610.998	9471
611.193	9774.1
611.389	9952.27
611.584	10195.98
611.78	10451.98
611.976	10828.81
612.171	11271.17
612.367	11324.41
612.562	11488.25
612.758	11721.72
612.953	12145.65
613.149	12598.25
613.344	12874.73
613.539	13272.03
613.735	13554.65
613.93	14017.49
614.126	14304.21
614.321	14808.01
614.517	15080.39
614.712	15406.02
614.907	15801.27
615.103	16221.11
615.298	16575.41
615.493	17150.88
615.688	17245.09
615.884	18174.87
616.079	18101.14
616.274	18846.6
616.47	19282.82
616.665	19633.02
616.86	20065.14
617.055	20644.72
617.25	21285.73
617.445	21830.49
617.641	22080.35
617.836	22829.9
618.031	23296.84
618.226	24316.73
618.421	24435.51
618.616	25375.53
618.811	25342.76
619.006	26542.87
619.201	26536.73
619.396	27521.8
619.591	27699.97
619.786	28881.65
619.981	28717.81
620.176	29811.43
620.371	30454.49
620.566	31544.01
620.761	31881.92
620.956	32488.12
621.151	32821.94
621.346	33503.92
621.541	33716.9
621.735	35166.87
621.93	35132.05
622.125	36563.58
622.32	36092.55
622.515	37274.23
622.709	37964.39
622.904	38634.08
623.099	39375.44
623.294	40360.51
623.488	40450.63
623.683	41681.45
623.878	41740.85
624.072	42463.78
624.267	43731.47
624.462	44456.45
624.656	44206.6
624.851	45359.61
625.046	45863.41
625.24	46641.63
625.435	46821.86
625.629	47983.05
625.824	48337.35
626.018	48894.4
626.213	48974.27
626.407	50008.5
626.602	50426.28
626.796	51257.76
626.991	51806.61
627.185	51749.27
627.38	52205.97
627.574	52117.9
627.768	52576.65
627.963	53236.09
628.157	52928.9
628.352	53621.11
628.546	52777.35
628.74	53987.7
628.935	53068.16
629.129	54002.03
629.323	53307.77
629.517	53215.61
629.712	53254.53
629.906	52957.57
630.1	51833.24
630.294	51784.08
630.489	50983.33
630.683	50876.83
630.877	49312.19
631.071	48652.74
631.265	48673.22
631.459	47112.67
631.653	46391.78
631.848	45457.91
632.042	44612.1
632.236	43811.34
632.43	42095.14
632.624	41742.89
632.818	40141.38
633.012	38863.45
633.206	37796.46
633.4	36842.1
633.594	34988.69
633.788	34501.28
633.982	33149.62
634.176	32033.47
634.369	30657.24
634.563	29481.7
634.757	28265.21
634.951	27742.98
635.145	26673.94
635.339	25656.1
635.533	24302.39
635.726	24148.79
635.92	22326.1
636.114	21914.46
636.308	20730.73
636.501	20300.66
636.695	19258.24
636.889	18318.23
637.083	17460.13
637.276	16968.62
637.47	16227.25
637.664	15489.98
637.857	15066.05
638.051	14351.31
638.244	13853.66
638.438	13151.2
638.632	12749.8
638.825	12231.66
639.019	11643.9
639.212	11236.35
639.406	10918.92
639.599	10128.4
639.793	10015.76
639.986	9548.82
640.18	9290.78
640.373	8637.48
640.567	8410.15
640.76	8133.68
640.954	7984.18
641.147	7586.87
641.34	7111.74
641.534	6997.06
641.727	6968.38
641.92	6566.98
642.114	6313.03
642.307	6126.67
642.5	5979.22
642.694	5411.93
642.887	5399.64
643.08	5196.89
643.273	5037.15
643.467	4813.92
643.66	4607.08
643.853	4500.58
644.046	4301.93
644.239	4103.28
644.432	3806.32
644.626	3802.22
644.819	3755.12
645.012	3396.73
645.205	3431.54
645.398	3380.34
645.591	3167.35
645.784	2950.27
645.977	2772.1
646.17	2753.66
646.363	2751.62
646.556	2512
646.749	2358.41
646.942	2405.51
647.135	2356.36
647.328	2202.76
647.521	2149.51
647.714	2069.64
647.907	2069.64
648.099	1815.69
648.292	1889.42
648.485	1805.46
648.678	1707.15
648.871	1541.27
649.064	1725.58
649.256	1549.46
649.449	1365.14
649.642	1412.25
649.835	1367.19
650.027	1287.32
650.22	1434.77
650.413	1154.2
650.605	1279.13
650.798	1191.06
650.991	986.27
651.183	1008.8
651.376	1008.8
651.568	1012.89
651.761	982.17
651.954	949.4
652.146	869.53
652.339	980.12
652.531	910.49
652.724	763.04
652.916	756.9
653.109	638.11
653.301	818.33
653.494	820.38
653.686	717.98
653.879	746.66
654.071	744.61
654.263	591.01
654.456	631.97
654.648	728.22
654.84	642.21
655.033	615.59
655.225	650.4
655.417	490.66
655.61	672.93
655.802	656.54
655.994	552.1
656.186	466.08
656.379	523.43
656.571	457.89
656.763	433.32
656.955	474.28
657.148	464.04
657.34	554.15
657.532	447.65
657.724	480.42
657.916	423.08
658.108	511.14
658.3	392.36
658.492	459.94
658.684	337.06
658.876	490.66
659.068	271.53
659.26	283.81
659.452	289.96
659.644	382.12
659.836	457.89
660.028	408.74
660.22	267.43
660.412	365.73
660.604	218.28
660.796	394.4
660.988	328.87
661.18	351.4
661.372	316.58
661.563	287.91
661.755	326.82
661.947	177.32
662.139	205.99
662.331	214.18
662.522	249
662.714	191.66
662.906	181.42
663.097	267.43
663.289	169.13
663.481	115.88
663.673	324.77
663.864	119.98
664.056	267.43
664.247	136.36
664.439	259.24
664.631	220.33
664.822	257.19
665.014	242.85
665.205	160.94
665.397	236.71
665.588	236.71
665.78	150.7
665.971	281.77
666.163	179.37
666.354	228.52
666.546	158.89
666.737	119.98
666.929	208.04
667.12	142.5
667.311	148.65
667.503	328.87
667.694	234.66
667.885	191.66
668.077	154.79
668.268	7.34
668.459	185.51
668.651	160.94
668.842	216.23
669.033	130.22
669.224	54.44
669.416	335.01
669.607	181.42
669.798	83.11
669.989	363.69
670.18	222.38
670.371	199.85
670.563	128.17
670.754	257.19
670.945	255.14
671.136	193.7
671.327	171.18
671.518	249
671.709	312.49
671.9	208.04
672.091	249
672.282	273.57
672.473	224.42
672.664	132.26
672.855	111.78
673.046	201.9
673.237	169.13
673.428	115.88
673.619	181.42
673.809	107.69
674	230.57
674.191	224.42
674.382	140.46
674.573	138.41
674.764	193.7
674.954	320.68
675.145	60.59
675.336	167.08
675.527	224.42
675.717	224.42
675.908	103.59
676.099	201.9
676.289	191.66
676.48	85.16
676.671	156.84
676.861	169.13
677.052	193.7
677.243	191.66
677.433	152.74
677.624	273.57
677.814	242.85
678.005	177.32
678.195	292.01
678.386	119.98
678.576	203.94
678.767	81.07
678.957	171.18
679.148	214.18
679.338	312.49
679.529	230.57
679.719	165.03
679.909	212.14
680.1	273.57
680.29	210.09
680.481	111.78
680.671	316.58
680.861	298.15
681.052	263.33
681.242	144.55
681.432	259.24
681.622	216.23
681.813	122.02
682.003	171.18
682.193	173.22
682.383	312.49
682.573	201.9
682.764	173.22
682.954	267.43
683.144	300.2
683.334	230.57
683.524	261.29
683.714	267.43
683.904	279.72
684.094	240.81
684.284	240.81
684.474	335.01
684.664	294.05
684.854	281.77
685.044	232.62
685.234	187.56
685.424	230.57
685.614	165.03
685.804	384.16
685.994	294.05
686.184	277.67
686.374	265.38
686.564	285.86
686.753	240.81
686.943	238.76
687.133	205.99
687.323	269.48
687.513	261.29
687.702	249
687.892	169.13
688.082	259.24
688.272	279.72
688.461	242.85
688.651	359.59
688.841	318.63
689.03	259.24
689.22	273.57
689.41	296.1
689.599	214.18
689.789	234.66
689.979	251.05
690.168	257.19
690.358	349.35
690.547	201.9
690.737	208.04
690.926	302.25
691.116	253.09
691.305	193.7
691.495	283.81
691.684	152.74
691.874	232.62
692.063	191.66
692.252	238.76
692.442	302.25
692.631	238.76
692.82	146.6
693.01	289.96
693.199	212.14
693.388	271.53
693.578	232.62
693.767	259.24
693.956	255.14
694.146	242.85
694.335	249
694.524	271.53
694.713	285.86
694.902	212.14
695.092	271.53
695.281	310.44
695.47	171.18
695.659	144.55
695.848	162.98
696.037	240.81
696.226	212.14
696.415	255.14
696.604	330.92
696.793	281.77
696.982	179.37
697.171	304.29
697.36	224.42
697.549	187.56
697.738	89.26
697.927	138.41
698.116	191.66
698.305	271.53
698.494	244.9
698.683	193.7
698.872	367.78
699.061	130.22
699.25	181.42
699.438	203.94
699.627	210.09
699.816	357.54
700.005	74.92
700.193	193.7
700.382	228.52
700.571	228.52
700.76	294.05
700.948	255.14
701.137	212.14
701.326	199.85
701.514	189.61
701.703	292.01
701.892	197.8
702.08	330.92
702.269	138.41
702.457	140.46
702.646	265.38
702.834	128.17
703.023	230.57
703.212	242.85
703.4	240.81
703.589	138.41
703.777	144.55
703.965	181.42
704.154	111.78
704.342	72.87
704.531	292.01
704.719	181.42
704.907	216.23
705.096	119.98
705.284	158.89
705.472	201.9
705.661	249
705.849	292.01
706.037	294.05
706.226	140.46
706.414	218.28
706.602	158.89
706.79	273.57
706.979	162.98
707.167	306.34
707.355	160.94
707.543	300.2
707.731	283.81
707.919	144.55
708.107	244.9
708.296	197.8
708.484	177.32
708.672	162.98
708.86	255.14
709.048	242.85
709.236	117.93
709.424	277.67
709.612	249
709.8	165.03
709.988	218.28
710.176	283.81
710.364	269.48
710.551	210.09
710.739	183.46
710.927	222.38
711.115	185.51
711.303	236.71
711.491	228.52
711.679	150.7
711.866	240.81
712.054	187.56
712.242	195.75
712.43	283.81
712.617	205.99
712.805	335.01
712.993	132.26
713.181	101.55
713.368	310.44
713.556	156.84
713.744	212.14
713.931	402.6
714.119	300.2
714.306	228.52
714.494	357.54
714.682	240.81
714.869	214.18
715.057	197.8
715.244	115.88
715.432	205.99
715.619	122.02
715.807	224.42
715.994	244.9
716.182	226.47
716.369	308.39
716.556	230.57
716.744	160.94
716.931	109.74
717.119	277.67
717.306	296.1
717.493	246.95
717.681	142.5
717.868	140.46
718.055	367.78
718.242	160.94
718.43	249
718.617	240.81
718.804	261.29
718.991	306.34
719.179	238.76
719.366	292.01
719.553	328.87
719.74	203.94
719.927	189.61
720.114	181.42
720.301	126.12
720.488	83.11
720.676	281.77
720.863	339.11
721.05	382.12
721.237	201.9
721.424	386.21
721.611	298.15
721.798	87.21
721.985	224.42
722.172	210.09
722.358	246.95
722.545	341.16
722.732	318.63
722.919	351.4
723.106	302.25
723.293	294.05
723.48	216.23
723.667	212.14
723.853	318.63
724.04	359.59
724.227	332.97
724.414	322.73
724.6	244.9
724.787	367.78
724.974	425.12
725.161	265.38
725.347	230.57
725.534	277.67
725.72	253.09
725.907	296.1
726.094	294.05
726.28	228.52
726.467	218.28
726.653	199.85
726.84	296.1
727.027	378.02
727.213	136.36
727.4	294.05
727.586	277.67
727.773	289.96
727.959	255.14
728.145	320.68
728.332	244.9
728.518	244.9
728.705	224.42
728.891	322.73
729.077	261.29
729.264	191.66
729.45	249
729.636	367.78
729.823	314.53
730.009	302.25
730.195	273.57
730.382	257.19
730.568	181.42
730.754	328.87
730.94	249
731.126	294.05
731.313	349.35
731.499	216.23
731.685	330.92
731.871	359.59
732.057	330.92
732.243	320.68
732.429	337.06
732.615	308.39
732.801	244.9
732.987	230.57
733.173	253.09
733.359	273.57
733.545	214.18
733.731	240.81
733.917	412.84
734.103	279.72
734.289	427.17
734.475	314.53
734.661	443.56
734.847	296.1
735.033	263.33
735.219	332.97
735.404	259.24
735.59	236.71
735.776	285.86
735.962	222.38
736.148	382.12
736.333	306.34
736.519	203.94
736.705	275.62
736.89	351.4
737.076	275.62
737.262	220.33
737.447	304.29
737.633	271.53
737.819	345.25
738.004	275.62
738.19	300.2
738.375	306.34
738.561	427.17
738.747	421.03
738.932	236.71
739.118	359.59
739.303	343.21
739.489	257.19
739.674	296.1
739.859	244.9
740.045	316.58
740.23	263.33
740.416	193.7
740.601	261.29
740.786	289.96
740.972	216.23
741.157	195.75
741.342	156.84
741.528	177.32
741.713	302.25
741.898	289.96
742.084	273.57
742.269	259.24
742.454	339.11
742.639	406.69
742.824	300.2
743.01	359.59
743.195	394.4
743.38	322.73
743.565	232.62
743.75	375.97
743.935	324.77
744.12	351.4
744.305	253.09
744.49	263.33
744.675	146.6
744.86	242.85
745.045	304.29
745.23	300.2
745.415	275.62
745.6	335.01
745.785	261.29
745.97	277.67
746.155	259.24
746.34	345.25
746.525	277.67
746.71	347.3
746.895	189.61
747.079	193.7
747.264	162.98
747.449	203.94
747.634	294.05
747.819	271.53
748.003	216.23
748.188	179.37
748.373	253.09
748.557	289.96
748.742	246.95
748.927	365.73
749.111	275.62
749.296	234.66
749.481	257.19
749.665	273.57
749.85	255.14
750.034	318.63
750.219	265.38
750.404	199.85
750.588	351.4
750.773	236.71
750.957	216.23
751.141	169.13
751.326	298.15
751.51	171.18
751.695	197.8
751.879	191.66
752.064	384.16
752.248	212.14
752.432	367.78
752.617	298.15
752.801	238.76
752.985	232.62
753.17	273.57
753.354	205.99
753.538	216.23
753.722	242.85
753.907	199.85
754.091	130.22
754.275	347.3
754.459	193.7
754.643	122.02
754.828	242.85
755.012	240.81
755.196	169.13
755.38	261.29
755.564	115.88
755.748	208.04
755.932	283.81
756.116	240.81
756.3	150.7
756.484	146.6
756.668	212.14
756.852	124.07
757.036	195.75
757.22	183.46
757.404	72.87
757.588	95.4
757.772	269.48
757.956	138.41
758.14	314.53
758.323	152.74
758.507	234.66
758.691	132.26
758.875	232.62
759.059	310.44
759.242	103.59
759.426	212.14
759.61	208.04
759.794	167.08
759.977	201.9
760.161	402.6
760.345	312.49
760.528	144.55
760.712	214.18
760.895	183.46
761.079	91.31
761.263	144.55
761.446	138.41
761.63	130.22
761.813	173.22
761.997	44.2
762.18	128.17
762.364	154.79
762.547	21.67
762.731	142.5
762.914	222.38
763.098	132.26
763.281	115.88
763.464	119.98
763.648	156.84
763.831	111.78
764.015	87.21
764.198	201.9
764.381	126.12
764.564	111.78
764.748	156.84
764.931	128.17
765.114	130.22
765.297	146.6
765.481	54.44
765.664	154.79
765.847	107.69
766.03	228.52
766.213	85.16
766.397	103.59
766.58	62.63
766.763	257.19
766.946	167.08
767.129	160.94
767.312	101.55
767.495	48.3
767.678	-17.24
767.861	97.45
768.044	165.03
768.227	140.46
768.41	115.88
768.593	179.37
768.776	85.16
768.959	99.5
769.142	142.5
769.324	156.84
769.507	56.49
769.69	50.35
769.873	107.69
770.056	242.85
770.239	128.17
770.421	193.7
770.604	171.18
770.787	91.31
770.97	146.6
771.152	52.39
771.335	105.64
771.518	21.67
771.7	122.02
771.883	197.8
772.066	58.54
772.248	122.02
772.431	220.33
772.613	214.18
772.796	89.26
772.978	115.88
773.161	265.38
773.343	48.3
773.526	126.12
773.708	-13.14
773.891	-25.43
774.073	115.88
774.256	99.5
774.438	122.02
774.621	58.54
774.803	152.74
774.985	66.73
775.168	179.37
775.35	85.16
775.532	193.7
775.715	117.93
775.897	85.16
776.079	68.78
776.261	85.16
776.444	-31.57
776.626	52.39
776.808	132.26
776.99	-2.9
777.173	31.91
777.355	85.16
777.537	103.59
777.719	152.74
777.901	-2.9
778.083	122.02
778.265	48.3
778.447	93.35
778.629	52.39
778.811	17.58
778.993	197.8
779.175	126.12
779.357	132.26
779.539	-0.85
779.721	101.55
779.903	83.11
780.085	44.2
780.267	76.97
780.449	15.53
780.631	83.11
780.812	97.45
780.994	11.43
781.176	9.39
781.358	46.25
781.54	56.49
781.721	142.5
781.903	113.83
782.085	64.68
782.267	210.09
782.448	-17.24
782.63	5.29
782.812	79.02
782.993	52.39
783.175	124.07
783.357	79.02
783.538	56.49
783.72	-4.95
783.901	54.44
784.083	142.5
784.264	111.78
784.446	-13.14
784.627	-76.63
784.809	70.83
784.99	-25.43
785.172	66.73
785.353	52.39
785.535	27.82
785.716	-23.38
785.897	31.91
786.079	87.21
786.26	54.44
786.441	56.49
786.623	-33.62
786.804	5.29
786.985	15.53
787.167	31.91
787.348	132.26
787.529	25.77
787.71	107.69
787.891	44.2
788.073	15.53
788.254	19.63
788.435	197.8
788.616	81.07
788.797	-64.34
788.978	-17.24
789.159	-25.43
789.34	148.65
789.522	52.39
789.703	42.15
789.884	105.64
790.065	74.92
790.246	140.46
790.427	7.34
790.607	208.04
790.788	97.45
790.969	33.96
791.15	119.98
791.331	-66.39
791.512	-0.85
791.693	-15.19
791.874	-13.14
792.054	249
792.235	126.12
792.416	-2.9
792.597	-80.72
792.778	15.53
792.958	76.97
793.139	60.59
793.32	15.53
793.5	-27.48
793.681	144.55
793.862	130.22
794.042	38.06
794.223	-43.86
794.404	-21.33
794.584	-68.44
794.765	54.44
794.945	56.49
795.126	97.45
795.306	48.3
795.487	-41.81
795.667	31.91
795.848	103.59
796.028	9.39
796.209	101.55
796.389	111.78
796.57	-58.2
796.75	60.59
796.93	-21.33
797.111	-21.33
797.291	66.73
797.471	23.72
797.652	38.06
797.832	-103.25
798.012	93.35
798.192	19.63
798.373	-0.85
798.553	-37.72
798.733	31.91
798.913	-23.38
799.093	-21.33
799.274	60.59
799.454	91.31
799.634	76.97
799.814	-0.85
799.994	70.83
800.174	95.4
800.354	7.34
800.534	-50
800.714	74.92
800.894	-13.14
801.074	-105.3
801.254	7.34
801.434	156.84
801.614	-27.48
801.794	-76.63
801.974	1784.98
802.154	23.72
802.334	68.78
802.514	-52.05
802.693	-39.76
802.873	-17.24
803.053	210.09
803.233	-0.85
803.413	48.3
803.592	-11.09
803.772	-29.52
803.952	103.59
804.131	-72.53
804.311	142.5
804.491	74.92
804.67	-11.09
804.85	-50
805.03	48.3
805.209	48.3
805.389	13.48
805.568	15.53
805.748	-0.85
805.928	-19.29
806.107	-0.85
806.287	72.87
806.466	-4.95
806.646	-9.05
806.825	-23.38
807.004	-47.96
807.184	91.31
807.363	134.31
807.543	58.54
807.722	-54.1
807.901	68.78
808.081	58.54
808.26	-97.11
808.439	54.44
808.619	17.58
808.798	5.29
808.977	70.83
809.156	42.15
809.336	13.48
809.515	54.44
809.694	-19.29
809.873	-78.68
810.052	103.59
810.231	66.73
810.411	81.07
810.59	113.83
810.769	91.31
810.948	107.69
811.127	-62.29
811.306	58.54
811.485	-2.9
811.664	138.41
811.843	50.35
812.022	9.39
812.201	44.2
812.38	-2.9
812.559	-41.81
812.737	87.21
812.916	-62.29
813.095	21.67
813.274	54.44
813.453	29.87
813.632	58.54
813.811	56.49
813.989	-68.44
814.168	13.48
814.347	11.43
814.526	50.35
814.704	117.93
814.883	85.16
815.062	-54.1
815.24	81.07
815.419	-21.33
815.598	15.53
815.776	-142.16
815.955	21.67
816.133	-23.38
816.312	44.2
816.49	23.72
816.669	23.72
816.847	-4.95
817.026	38.06
817.204	21.67
817.383	-54.1
817.561	-7
817.74	46.25
817.918	62.63
818.097	-78.68
818.275	-33.62
818.453	-0.85
818.632	85.16
818.81	-99.16
818.988	-37.72
819.167	-43.86
819.345	52.39
819.523	-27.48
819.701	115.88
819.879	7.34
820.058	62.63
820.236	29.87
820.414	62.63
820.592	11.43
820.77	15.53
820.948	-39.76
821.127	-35.67
821.305	-0.85
821.483	-47.96
821.661	122.02
821.839	54.44
822.017	-41.81
822.195	27.82
822.373	74.92
822.551	31.91
822.729	62.63
822.907	-2.9
823.085	1.19
823.262	44.2
823.44	-80.72
823.618	-31.57
823.796	5.29
823.974	21.67
824.152	7.34
824.329	13.48
824.507	81.07
824.685	58.54
824.863	-56.15
825.04	31.91
825.218	42.15
825.396	-35.67
825.574	85.16
825.751	1.19
825.929	81.07
826.107	-68.44
826.284	21.67
826.462	74.92
826.639	-78.68
826.817	-111.44
826.994	-52.05
827.172	-35.67
827.349	156.84
827.527	44.2
827.704	87.21
827.882	17.58
828.059	13.48
828.237	-11.09
828.414	36.01
828.591	-101.2
828.769	-13.14
828.946	-39.76
829.124	160.94
829.301	-13.14
829.478	13.48
829.655	3.24
829.833	5.29
830.01	-138.07
830.187	105.64
830.364	-29.52
830.542	58.54
830.719	185.51
830.896	79.02
831.073	79.02
831.25	44.2
831.427	42.15
831.604	40.11
831.782	-95.06
831.959	-43.86
832.136	-0.85
832.313	21.67
832.49	-47.96
832.667	27.82
832.844	-23.38
833.021	48.3
833.198	-29.52
833.374	33.96
833.551	-2.9
833.728	-39.76
833.905	-19.29
834.082	-52.05
834.259	60.59
834.436	58.54
834.612	-29.52
834.789	162.98
834.966	11.43
835.143	56.49
835.319	-39.76
835.496	23.72
835.673	56.49
835.85	107.69
836.026	13.48
836.203	38.06
836.38	-31.57
836.556	-25.43
836.733	-25.43
836.909	165.03
837.086	-27.48
837.262	-99.16
837.439	-11.09
837.616	-35.67
837.792	38.06
837.968	-33.62
838.145	-62.29
838.321	-11.09
838.498	38.06
838.674	79.02
838.851	-19.29
839.027	-70.48
839.203	74.92
839.38	93.35
839.556	-23.38
839.732	33.96
839.909	1.19
840.085	81.07
840.261	-111.44
840.437	-17.24
840.614	-13.14
840.79	58.54
840.966	60.59
841.142	52.39
841.318	-2.9
841.494	56.49
841.671	158.89
841.847	-74.58
842.023	-60.24
842.199	124.07
842.375	76.97
842.551	-113.49
842.727	-136.02
842.903	83.11
843.079	7.34
843.255	38.06
843.431	56.49
843.607	46.25
843.783	-109.4
843.959	11.43
844.134	-82.77
844.31	103.59
844.486	-66.39
844.662	-80.72
844.838	9.39
845.013	76.97
845.189	64.68
845.365	70.83
845.541	50.35
845.716	-9.05
845.892	95.4
846.068	-62.29
846.244	1.19
846.419	-23.38
846.595	-82.77
846.77	-41.81
846.946	62.63
847.122	-47.96
847.297	-80.72
847.473	117.93
847.648	-23.38
847.824	9.39
847.999	-99.16
848.175	-99.16
848.35	62.63
848.526	95.4
848.701	83.11
848.876	33.96
849.052	105.64
849.227	-52.05
849.403	54.44
849.578	13.48
849.753	13.48
849.929	13.48
850.104	-43.86
850.279	23.72
850.454	-2.9
850.63	-17.24
850.805	-19.29
850.98	81.07
851.155	-39.76
851.33	23.72
851.505	-13.14
851.681	109.74
851.856	21.67
852.031	46.25
852.206	-70.48
852.381	5.29
852.556	-31.57
852.731	76.97
852.906	91.31
853.081	11.43
853.256	-7
853.431	-21.33
853.606	25.77
853.781	-109.4
853.956	-86.87
854.131	54.44
854.305	-41.81
854.48	-31.57
854.655	-13.14
854.83	-41.81
855.005	-56.15
855.18	-23.38
855.354	38.06
855.529	-21.33
855.704	-27.48
855.879	9.39
856.053	-125.78
856.228	21.67
856.403	-93.01
856.577	31.91
856.752	-125.78
856.926	-43.86
857.101	11.43
857.276	-158.55
857.45	-35.67
857.625	7.34
857.799	-23.38
857.974	-31.57
858.148	-129.88
858.323	83.11
858.497	-43.86
858.672	-21.33
858.846	-11.09
859.02	66.73
859.195	-84.82
859.369	-9.05
859.543	-29.52
859.718	-101.2
859.892	83.11
860.066	31.91
860.241	25.77
860.415	-47.96
860.589	27.82
860.763	-45.91
860.938	3.24
861.112	85.16
861.286	-39.76
861.46	-19.29
861.634	13.48
861.808	128.17
861.982	7.34
862.157	-90.96
862.331	-33.62
862.505	-103.25
862.679	-33.62
862.853	-21.33
863.027	-2.9
863.201	111.78
863.375	-2.9
863.549	68.78
863.722	27.82
863.896	109.74
864.07	-21.33
864.244	-19.29
864.418	60.59
864.592	9.39
864.766	48.3
864.939	5.29
865.113	-74.58
865.287	85.16
865.461	3.24
865.634	-13.14
865.808	-56.15
865.982	-27.48
866.156	-0.85
866.329	-62.29
866.503	-74.58
866.676	138.41
866.85	83.11
867.024	-64.34
867.197	58.54
867.371	15.53
867.544	9.39
867.718	-97.11
867.891	23.72
868.065	-123.73
868.238	-4.95
868.412	74.92
868.585	23.72
868.759	-52.05
868.932	1.19
869.105	-156.5
869.279	13.48
869.452	-60.24
869.625	-7
869.799	-27.48
869.972	-82.77
870.145	-66.39
870.319	128.17
870.492	-58.2
870.665	-33.62
870.838	-60.24
871.011	-115.54
871.185	40.11
871.358	-29.52
871.531	81.07
871.704	-39.76
871.877	-29.52
872.05	33.96
872.223	-88.92
872.396	95.4
872.569	21.67
872.742	-68.44
872.915	23.72
873.088	31.91
873.261	-35.67
873.434	93.35
873.607	9.39
873.78	142.5
873.953	-119.64
874.126	50.35
874.299	62.63
874.471	-41.81
874.644	58.54
874.817	-7
874.99	111.78
875.163	-35.67
875.335	31.91
875.508	-64.34
875.681	179.37
875.853	-76.63
876.026	44.2
876.199	70.83
876.371	-2.9
876.544	-103.25
876.717	56.49
876.889	-54.1
877.062	52.39
877.234	-113.49
877.407	-0.85
877.579	-2.9
877.752	27.82
877.924	-7
878.097	21.67
878.269	-58.2
878.442	19.63
878.614	-4.95
878.786	46.25
878.959	52.39
879.131	-52.05
879.303	-119.64
879.476	-21.33
879.648	122.02
879.82	19.63
879.993	-37.72
880.165	31.91
880.337	-82.77
880.509	-21.33
880.681	-111.44
880.854	11.43
881.026	76.97
881.198	154.79
881.37	-52.05
881.542	-45.91
881.714	-93.01
881.886	-39.76
882.058	-27.48
882.23	-7
882.402	-70.48
882.574	-52.05
882.746	13.48
882.918	89.26
883.09	93.35
883.262	-13.14
883.434	-21.33
883.606	-78.68
883.778	-4.95
883.95	140.46
884.122	-15.19
884.293	64.68
884.465	50.35
884.637	11.43
884.809	-52.05
884.98	-7
885.152	50.35
885.324	1.19
885.496	-56.15
885.667	-56.15
885.839	48.3
886.011	107.69
886.182	-4.95
886.354	23.72
886.525	79.02
886.697	76.97
886.869	-31.57
887.04	13.48
887.212	48.3
887.383	87.21
887.555	21.67
887.726	-52.05
887.897	-64.34
888.069	31.91
888.24	101.55
888.412	-17.24
888.583	23.72
888.754	9.39
888.926	-133.97
889.097	-33.62
889.268	-125.78
889.44	-25.43
889.611	-58.2
889.782	-93.01
889.953	-19.29
890.125	33.96
890.296	-64.34
890.467	-97.11
890.638	76.97
890.809	21.67
890.98	-74.58
891.151	85.16
891.323	175.27
891.494	-41.81
891.665	-11.09
891.836	-17.24
892.007	52.39
892.178	-41.81
892.349	72.87
892.52	-17.24
892.691	105.64
892.862	-21.33
893.032	-127.83
893.203	-9.05
893.374	-54.1
893.545	31.91
893.716	-58.2
893.887	62.63
894.057	-21.33
894.228	-54.1
894.399	-84.82
894.57	40.11
894.74	11.43
894.911	-27.48
895.082	-56.15
895.253	-88.92
895.423	-17.24
895.594	68.78
895.764	-39.76
895.935	-90.96
896.106	44.2
896.276	-33.62
896.447	1.19
896.617	-125.78
896.788	-88.92
896.958	-56.15
897.129	-21.33
897.299	-58.2
897.47	132.26
897.64	89.26
897.81	25.77
897.981	13.48
898.151	-39.76
898.322	7.34
898.492	68.78
898.662	-17.24
898.832	-2.9
899.003	-23.38
899.173	-0.85
899.343	-21.33
899.513	-76.63
