Data from USB4F104151__87__10-44-28-870.txt Node

Date: Wed Feb 26 10:44:28 EST 2025
User: louis
Spectrometer: USB4F10415
Trigger mode: 4
Integration Time (sec): 1.000000E-1
Scans to average: 1
Electric dark correction enabled: true
Nonlinearity correction enabled: false
Boxcar width: 0
XAxis mode: Wavelengths
Number of Pixels in Spectrum: 3648
>>>>>Begin Spectral Data<<<<<
178.204	-386.9
178.424	-386.9
178.644	-386.9
178.864	-425.81
179.084	-378.7
179.304	-14.17
179.524	-42.84
179.744	34.99
179.964	16.55
180.184	8.36
180.404	37.03
180.624	-5.97
180.844	-3.93
181.064	-87.89
181.283	32.94
181.503	-28.5
181.723	53.42
181.943	-100.18
182.163	84.14
182.383	-3.93
182.602	102.57
182.822	47.27
183.042	32.94
183.262	51.37
183.482	-53.08
183.701	-8.02
183.921	16.55
184.141	-40.79
184.361	88.23
184.58	110.76
184.8	112.81
185.02	-40.79
185.239	104.62
185.459	37.03
185.679	116.9
185.898	-42.84
186.118	92.33
186.338	61.61
186.557	65.71
186.777	-46.93
186.997	49.32
187.216	32.94
187.436	90.28
187.655	12.46
187.875	77.99
188.095	24.75
188.314	108.71
188.534	161.96
188.753	-16.21
188.973	174.25
189.192	133.29
189.412	-3.93
189.631	22.7
189.851	100.52
190.07	161.96
190.29	-48.98
190.509	18.6
190.729	98.47
190.948	176.3
191.168	250.02
191.387	28.84
191.607	55.47
191.826	86.19
192.045	37.03
192.265	22.7
192.484	59.56
192.704	49.32
192.923	-14.17
193.142	135.34
193.362	49.32
193.581	102.57
193.8	77.99
194.02	65.71
194.239	18.6
194.458	16.55
194.678	-24.4
194.897	41.13
195.116	106.67
195.335	4.27
195.555	129.19
195.774	-65.36
195.993	16.55
196.212	61.61
196.432	22.7
196.651	-75.6
196.87	32.94
197.089	178.34
197.308	43.18
197.528	102.57
197.747	-12.12
197.966	137.38
198.185	104.62
198.404	-18.26
198.623	104.62
198.842	86.19
199.062	90.28
199.281	123.05
199.5	80.04
199.719	73.9
199.938	47.27
200.157	75.95
200.376	166.06
200.595	123.05
200.814	84.14
201.033	-34.64
201.252	96.43
201.471	75.95
201.69	67.75
201.909	41.13
202.128	104.62
202.347	118.95
202.566	67.75
202.785	-48.98
203.004	-59.22
203.223	217.26
203.442	63.66
203.661	-10.07
203.879	67.75
204.098	168.1
204.317	-32.6
204.536	125.1
204.755	41.13
204.974	118.95
205.193	-38.74
205.411	65.71
205.63	57.51
205.849	49.32
206.068	2.22
206.287	12.46
206.505	166.06
206.724	16.55
206.943	10.41
207.162	-26.45
207.381	71.85
207.599	61.61
207.818	26.79
208.037	-38.74
208.255	53.42
208.474	73.9
208.693	77.99
208.911	-36.69
209.13	125.1
209.349	129.19
209.567	88.23
209.786	18.6
210.005	231.59
210.223	65.71
210.442	-81.75
210.661	84.14
210.879	39.08
211.098	59.56
211.316	0.17
211.535	16.55
211.753	-1.88
211.972	6.31
212.191	-3.93
212.409	-14.17
212.628	135.34
212.846	-63.32
213.065	49.32
213.283	141.48
213.502	49.32
213.72	-10.07
213.938	51.37
214.157	-36.69
214.375	141.48
214.594	80.04
214.812	94.38
215.031	14.51
215.249	-8.02
215.467	61.61
215.686	37.03
215.904	55.47
216.122	-28.5
216.341	131.24
216.559	43.18
216.778	43.18
216.996	100.52
217.214	24.75
217.432	16.55
217.651	20.65
217.869	55.47
218.087	34.99
218.306	-20.31
218.524	67.75
218.742	-14.17
218.96	100.52
219.179	-69.46
219.397	49.32
219.615	290.98
219.833	71.85
220.051	-18.26
220.27	114.86
220.488	34.99
220.706	121
220.924	-40.79
221.142	-10.07
221.36	37.03
221.578	73.9
221.796	59.56
222.015	88.23
222.233	61.61
222.451	161.96
222.669	-24.4
222.887	98.47
223.105	-1.88
223.323	-3.93
223.541	-63.32
223.759	71.85
223.977	-5.97
224.195	209.06
224.413	65.71
224.631	-10.07
224.849	55.47
225.067	198.82
225.285	49.32
225.503	16.55
225.721	-75.6
225.939	12.46
226.157	39.08
226.375	278.69
226.592	-83.8
226.81	143.53
227.028	112.81
227.246	88.23
227.464	94.38
227.682	90.28
227.9	12.46
228.117	96.43
228.335	43.18
228.553	51.37
228.771	39.08
228.989	28.84
229.206	123.05
229.424	24.75
229.642	-20.31
229.86	-36.69
230.077	110.76
230.295	-40.79
230.513	129.19
230.731	47.27
230.948	71.85
231.166	129.19
231.384	-12.12
231.601	2.22
231.819	168.1
232.037	-1.88
232.254	12.46
232.472	41.13
232.689	45.23
232.907	145.58
233.125	-16.21
233.342	24.75
233.56	53.42
233.777	86.19
233.995	45.23
234.213	61.61
234.43	45.23
234.648	2.22
234.865	-24.4
235.083	127.14
235.3	30.89
235.518	63.66
235.735	75.95
235.953	67.75
236.17	28.84
236.388	-36.69
236.605	-10.07
236.822	61.61
237.04	219.3
237.257	8.36
237.475	24.75
237.692	55.47
237.909	41.13
238.127	28.84
238.344	24.75
238.562	123.05
238.779	-67.41
238.996	-81.75
239.214	6.31
239.431	41.13
239.648	-38.74
239.865	32.94
240.083	-3.93
240.3	-5.97
240.517	37.03
240.735	96.43
240.952	114.86
241.169	112.81
241.386	65.71
241.603	57.51
241.821	-83.8
242.038	65.71
242.255	71.85
242.472	-65.36
242.689	16.55
242.907	32.94
243.124	-8.02
243.341	12.46
243.558	-40.79
243.775	-65.36
243.992	-65.36
244.209	-3.93
244.426	100.52
244.643	26.79
244.86	39.08
245.078	145.58
245.295	92.33
245.512	26.79
245.729	4.27
245.946	86.19
246.163	63.66
246.38	10.41
246.597	65.71
246.814	-5.97
247.031	-14.17
247.248	16.55
247.464	100.52
247.681	129.19
247.898	59.56
248.115	123.05
248.332	28.84
248.549	110.76
248.766	182.44
248.983	20.65
249.2	147.62
249.417	26.79
249.633	53.42
249.85	80.04
250.067	53.42
250.284	57.51
250.501	34.99
250.717	90.28
250.934	-30.55
251.151	-5.97
251.368	39.08
251.585	92.33
251.801	112.81
252.018	-67.41
252.235	112.81
252.451	-75.6
252.668	6.31
252.885	155.82
253.102	57.51
253.318	8.36
253.535	49.32
253.752	37.03
253.968	-5.97
254.185	-65.36
254.401	39.08
254.618	43.18
254.835	-16.21
255.051	49.32
255.268	43.18
255.484	77.99
255.701	88.23
255.917	102.57
256.134	-40.79
256.351	-38.74
256.567	-5.97
256.784	65.71
257	-108.37
257.217	-8.02
257.433	123.05
257.65	164.01
257.866	108.71
258.082	-81.75
258.299	37.03
258.515	34.99
258.732	-18.26
258.948	-20.31
259.165	0.17
259.381	-8.02
259.597	141.48
259.814	20.65
260.03	16.55
260.246	16.55
260.463	145.58
260.679	100.52
260.895	102.57
261.112	6.31
261.328	20.65
261.544	-42.84
261.761	129.19
261.977	-1.88
262.193	41.13
262.409	30.89
262.626	88.23
262.842	-20.31
263.058	-48.98
263.274	108.71
263.49	-48.98
263.707	129.19
263.923	75.95
264.139	-102.23
264.355	22.7
264.571	63.66
264.787	22.7
265.004	106.67
265.22	41.13
265.436	-10.07
265.652	0.17
265.868	-28.5
266.084	2.22
266.3	8.36
266.516	-36.69
266.732	2.22
266.948	61.61
267.164	53.42
267.38	110.76
267.596	88.23
267.812	153.77
268.028	-3.93
268.244	65.71
268.46	75.95
268.676	61.61
268.892	188.58
269.108	-100.18
269.324	0.17
269.54	-26.45
269.756	127.14
269.972	-24.4
270.188	20.65
270.403	-3.93
270.619	65.71
270.835	106.67
271.051	47.27
271.267	18.6
271.483	-55.12
271.698	73.9
271.914	61.61
272.13	39.08
272.346	-20.31
272.562	55.47
272.777	151.72
272.993	-10.07
273.209	0.17
273.425	102.57
273.64	-24.4
273.856	2.22
274.072	18.6
274.287	39.08
274.503	77.99
274.719	92.33
274.934	-20.31
275.15	-53.08
275.366	2.22
275.581	-32.6
275.797	71.85
276.012	59.56
276.228	16.55
276.444	63.66
276.659	123.05
276.875	-14.17
277.09	18.6
277.306	2.22
277.521	59.56
277.737	69.8
277.952	22.7
278.168	34.99
278.383	-1.88
278.599	26.79
278.814	112.81
279.03	16.55
279.245	88.23
279.461	59.56
279.676	131.24
279.892	-32.6
280.107	12.46
280.322	-28.5
280.538	102.57
280.753	22.7
280.969	100.52
281.184	34.99
281.399	164.01
281.615	20.65
281.83	-12.12
282.045	-42.84
282.26	4.27
282.476	39.08
282.691	49.32
282.906	2.22
283.122	82.09
283.337	-10.07
283.552	71.85
283.767	-1.88
283.983	102.57
284.198	94.38
284.413	55.47
284.628	-57.17
284.843	53.42
285.058	153.77
285.274	-26.45
285.489	71.85
285.704	108.71
285.919	12.46
286.134	-71.51
286.349	37.03
286.564	-18.26
286.779	108.71
286.995	61.61
287.21	-48.98
287.425	73.9
287.64	-22.36
287.855	106.67
288.07	-94.04
288.285	188.58
288.5	145.58
288.715	8.36
288.93	57.51
289.145	51.37
289.36	-12.12
289.575	39.08
289.79	172.2
290.004	-1.88
290.219	118.95
290.434	14.51
290.649	-34.64
290.864	-36.69
291.079	0.17
291.294	67.75
291.509	110.76
291.724	51.37
291.938	24.75
292.153	67.75
292.368	34.99
292.583	112.81
292.798	82.09
293.012	30.89
293.227	53.42
293.442	-67.41
293.657	16.55
293.871	147.62
294.086	39.08
294.301	159.91
294.516	129.19
294.73	28.84
294.945	-40.79
295.16	-65.36
295.374	67.75
295.589	86.19
295.804	2.22
296.018	82.09
296.233	137.38
296.447	-3.93
296.662	45.23
296.877	133.29
297.091	96.43
297.306	30.89
297.52	-1.88
297.735	10.41
297.949	118.95
298.164	100.52
298.378	32.94
298.593	-53.08
298.807	8.36
299.022	-36.69
299.236	123.05
299.451	45.23
299.665	34.99
299.88	-8.02
300.094	61.61
300.309	37.03
300.523	86.19
300.737	-14.17
300.952	127.14
301.166	61.61
301.381	-36.69
301.595	14.51
301.809	28.84
302.024	-10.07
302.238	4.27
302.452	125.1
302.667	-1.88
302.881	170.15
303.095	86.19
303.309	88.23
303.524	-73.56
303.738	61.61
303.952	0.17
304.166	43.18
304.381	-57.17
304.595	159.91
304.809	24.75
305.023	32.94
305.237	-10.07
305.452	88.23
305.666	-12.12
305.88	84.14
306.094	102.57
306.308	104.62
306.522	77.99
306.736	-5.97
306.95	61.61
307.164	55.47
307.379	8.36
307.593	137.38
307.807	174.25
308.021	139.43
308.235	104.62
308.449	0.17
308.663	96.43
308.877	161.96
309.091	-3.93
309.305	69.8
309.519	-98.13
309.733	121
309.947	-67.41
310.161	145.58
310.374	80.04
310.588	116.9
310.802	-65.36
311.016	-1.88
311.23	96.43
311.444	-36.69
311.658	-18.26
311.872	116.9
312.085	192.68
312.299	147.62
312.513	139.43
312.727	82.09
312.941	-83.8
313.154	65.71
313.368	43.18
313.582	16.55
313.796	65.71
314.009	18.6
314.223	112.81
314.437	65.71
314.651	26.79
314.864	90.28
315.078	-30.55
315.292	-26.45
315.505	24.75
315.719	47.27
315.933	20.65
316.146	47.27
316.36	-91.99
316.573	77.99
316.787	125.1
317.001	90.28
317.214	-32.6
317.428	71.85
317.641	-55.12
317.855	-36.69
318.068	34.99
318.282	-14.17
318.495	194.73
318.709	88.23
318.922	24.75
319.136	157.86
319.349	145.58
319.563	-81.75
319.776	28.84
319.99	-65.36
320.203	57.51
320.417	-8.02
320.63	55.47
320.843	186.54
321.057	82.09
321.27	65.71
321.483	16.55
321.697	141.48
321.91	12.46
322.124	10.41
322.337	94.38
322.55	12.46
322.763	61.61
322.977	-40.79
323.19	-55.12
323.403	12.46
323.617	80.04
323.83	63.66
324.043	49.32
324.256	41.13
324.469	12.46
324.683	86.19
324.896	71.85
325.109	86.19
325.322	-57.17
325.535	100.52
325.748	84.14
325.962	12.46
326.175	32.94
326.388	18.6
326.601	90.28
326.814	14.51
327.027	-32.6
327.24	125.1
327.453	-61.27
327.666	116.9
327.879	80.04
328.092	112.81
328.305	37.03
328.518	-26.45
328.731	30.89
328.944	28.84
329.157	65.71
329.37	-40.79
329.583	180.39
329.796	108.71
330.009	45.23
330.222	157.86
330.435	65.71
330.648	49.32
330.861	59.56
331.073	86.19
331.286	213.16
331.499	6.31
331.712	-28.5
331.925	30.89
332.138	22.7
332.35	145.58
332.563	-30.55
332.776	145.58
332.989	-40.79
333.202	39.08
333.414	2.22
333.627	6.31
333.84	4.27
334.053	61.61
334.265	-28.5
334.478	69.8
334.691	-20.31
334.903	73.9
335.116	-16.21
335.329	14.51
335.541	53.42
335.754	125.1
335.966	39.08
336.179	10.41
336.392	-1.88
336.604	43.18
336.817	118.95
337.029	-40.79
337.242	-26.45
337.454	63.66
337.667	20.65
337.88	215.21
338.092	116.9
338.305	106.67
338.517	-1.88
338.729	55.47
338.942	139.43
339.154	22.7
339.367	-40.79
339.579	88.23
339.792	-22.36
340.004	8.36
340.217	43.18
340.429	90.28
340.641	-116.56
340.854	49.32
341.066	-34.64
341.278	164.01
341.491	157.86
341.703	82.09
341.915	-28.5
342.128	65.71
342.34	53.42
342.552	-81.75
342.764	26.79
342.977	43.18
343.189	45.23
343.401	32.94
343.613	-63.32
343.826	22.7
344.038	-3.93
344.25	45.23
344.462	53.42
344.674	53.42
344.886	34.99
345.099	55.47
345.311	10.41
345.523	-48.98
345.735	-85.84
345.947	59.56
346.159	53.42
346.371	41.13
346.583	47.27
346.795	204.97
347.007	4.27
347.219	26.79
347.431	-22.36
347.643	86.19
347.855	32.94
348.067	106.67
348.279	-24.4
348.491	-28.5
348.703	51.37
348.915	22.7
349.127	16.55
349.339	41.13
349.551	34.99
349.763	49.32
349.975	-22.36
350.187	67.75
350.399	108.71
350.61	63.66
350.822	2.22
351.034	55.47
351.246	67.75
351.458	67.75
351.669	16.55
351.881	123.05
352.093	51.37
352.305	135.34
352.517	20.65
352.728	164.01
352.94	53.42
353.152	90.28
353.363	14.51
353.575	106.67
353.787	200.87
353.999	55.47
354.21	149.67
354.422	-20.31
354.633	-8.02
354.845	-16.21
355.057	24.75
355.268	-1.88
355.48	63.66
355.692	14.51
355.903	63.66
356.115	-40.79
356.326	-30.55
356.538	108.71
356.749	41.13
356.961	153.77
357.172	-40.79
357.384	-14.17
357.595	260.26
357.807	-38.74
358.018	-16.21
358.23	-14.17
358.441	139.43
358.653	53.42
358.864	65.71
359.075	-8.02
359.287	59.56
359.498	98.47
359.709	94.38
359.921	34.99
360.132	100.52
360.344	14.51
360.555	-5.97
360.766	26.79
360.977	-22.36
361.189	125.1
361.4	0.17
361.611	143.53
361.823	125.1
362.034	-24.4
362.245	-81.75
362.456	18.6
362.667	71.85
362.879	-51.03
363.09	100.52
363.301	69.8
363.512	2.22
363.723	47.27
363.935	47.27
364.146	215.21
364.357	-63.32
364.568	-12.12
364.779	-34.64
364.99	69.8
365.201	-10.07
365.412	69.8
365.623	-91.99
365.834	47.27
366.045	67.75
366.256	43.18
366.467	121
366.678	16.55
366.889	-16.21
367.1	28.84
367.311	43.18
367.522	-28.5
367.733	37.03
367.944	71.85
368.155	20.65
368.366	106.67
368.577	161.96
368.788	53.42
368.999	-10.07
369.209	75.95
369.42	219.3
369.631	272.55
369.842	80.04
370.053	65.71
370.264	32.94
370.474	-57.17
370.685	49.32
370.896	47.27
371.107	217.26
371.317	61.61
371.528	30.89
371.739	116.9
371.95	123.05
372.16	51.37
372.371	-20.31
372.582	-65.36
372.792	104.62
373.003	80.04
373.214	65.71
373.424	75.95
373.635	-24.4
373.846	71.85
374.056	8.36
374.267	37.03
374.477	82.09
374.688	-14.17
374.898	39.08
375.109	84.14
375.319	98.47
375.53	106.67
375.74	67.75
375.951	-75.6
376.161	-10.07
376.372	104.62
376.582	-57.17
376.793	0.17
377.003	-5.97
377.214	-38.74
377.424	98.47
377.635	24.75
377.845	-10.07
378.055	198.82
378.266	37.03
378.476	24.75
378.686	2.22
378.897	104.62
379.107	198.82
379.317	41.13
379.528	63.66
379.738	57.51
379.948	-24.4
380.158	182.44
380.369	8.36
380.579	88.23
380.789	69.8
380.999	30.89
381.21	149.67
381.42	143.53
381.63	24.75
381.84	94.38
382.05	69.8
382.261	71.85
382.471	143.53
382.681	6.31
382.891	180.39
383.101	28.84
383.311	-36.69
383.521	71.85
383.731	86.19
383.941	43.18
384.151	80.04
384.361	-48.98
384.571	22.7
384.781	102.57
384.991	139.43
385.201	182.44
385.411	118.95
385.621	41.13
385.831	73.9
386.041	39.08
386.251	18.6
386.461	127.14
386.671	0.17
386.881	112.81
387.091	12.46
387.301	61.61
387.511	61.61
387.72	24.75
387.93	65.71
388.14	-104.28
388.35	-18.26
388.56	112.81
388.769	184.49
388.979	10.41
389.189	8.36
389.399	45.23
389.609	82.09
389.818	61.61
390.028	22.7
390.238	112.81
390.447	-8.02
390.657	84.14
390.867	-38.74
391.076	-59.22
391.286	-22.36
391.496	30.89
391.705	45.23
391.915	147.62
392.125	157.86
392.334	18.6
392.544	135.34
392.753	8.36
392.963	-5.97
393.172	61.61
393.382	55.47
393.591	151.72
393.801	-18.26
394.01	194.73
394.22	73.9
394.429	-5.97
394.639	63.66
394.848	47.27
395.058	88.23
395.267	12.46
395.477	98.47
395.686	100.52
395.895	194.73
396.105	135.34
396.314	61.61
396.524	106.67
396.733	20.65
396.942	4.27
397.152	92.33
397.361	71.85
397.57	84.14
397.78	20.65
397.989	55.47
398.198	174.25
398.407	-36.69
398.617	10.41
398.826	4.27
399.035	63.66
399.244	92.33
399.453	75.95
399.663	77.99
399.872	43.18
400.081	-44.88
400.29	69.8
400.499	34.99
400.708	84.14
400.917	43.18
401.127	6.31
401.336	69.8
401.545	147.62
401.754	61.61
401.963	2.22
402.172	-73.56
402.381	12.46
402.59	67.75
402.799	112.81
403.008	137.38
403.217	6.31
403.426	114.86
403.635	-34.64
403.844	77.99
404.053	12.46
404.262	4.27
404.471	172.2
404.68	69.8
404.888	49.32
405.097	32.94
405.306	73.9
405.515	75.95
405.724	-51.03
405.933	106.67
406.142	49.32
406.35	166.06
406.559	37.03
406.768	80.04
406.977	57.51
407.185	61.61
407.394	77.99
407.603	-57.17
407.812	116.9
408.02	129.19
408.229	37.03
408.438	86.19
408.646	8.36
408.855	39.08
409.064	22.7
409.272	96.43
409.481	198.82
409.69	-79.7
409.898	-12.12
410.107	106.67
410.315	141.48
410.524	26.79
410.733	49.32
410.941	39.08
411.15	143.53
411.358	32.94
411.567	26.79
411.775	12.46
411.984	32.94
412.192	94.38
412.401	28.84
412.609	182.44
412.818	118.95
413.026	108.71
413.234	-32.6
413.443	41.13
413.651	-55.12
413.86	65.71
414.068	112.81
414.276	172.2
414.485	24.75
414.693	131.24
414.901	69.8
415.11	43.18
415.318	86.19
415.526	-22.36
415.734	45.23
415.943	151.72
416.151	178.34
416.359	55.47
416.567	71.85
416.776	84.14
416.984	34.99
417.192	176.3
417.4	12.46
417.608	-10.07
417.817	-1.88
418.025	112.81
418.233	233.64
418.441	18.6
418.649	18.6
418.857	82.09
419.065	159.91
419.273	118.95
419.481	57.51
419.689	69.8
419.897	-46.93
420.105	-20.31
420.313	88.23
420.521	155.82
420.729	178.34
420.937	6.31
421.145	-24.4
421.353	26.79
421.561	69.8
421.769	61.61
421.977	-1.88
422.185	147.62
422.393	80.04
422.601	143.53
422.809	108.71
423.017	43.18
423.224	96.43
423.432	77.99
423.64	-8.02
423.848	151.72
424.056	-46.93
424.263	149.67
424.471	-1.88
424.679	139.43
424.887	28.84
425.094	96.43
425.302	59.56
425.51	53.42
425.718	155.82
425.925	-10.07
426.133	6.31
426.341	174.25
426.548	43.18
426.756	61.61
426.964	92.33
427.171	59.56
427.379	69.8
427.586	24.75
427.794	168.1
428.001	172.2
428.209	139.43
428.417	143.53
428.624	102.57
428.832	116.9
429.039	82.09
429.247	112.81
429.454	102.57
429.662	223.4
429.869	135.34
430.076	147.62
430.284	143.53
430.491	260.26
430.699	96.43
430.906	153.77
431.114	161.96
431.321	155.82
431.528	118.95
431.736	110.76
431.943	106.67
432.15	194.73
432.358	231.59
432.565	282.79
432.772	-36.69
432.979	90.28
433.187	77.99
433.394	166.06
433.601	202.92
433.808	131.24
434.016	200.87
434.223	196.78
434.43	186.54
434.637	225.45
434.844	288.93
435.052	262.31
435.259	274.6
435.466	245.93
435.673	241.83
435.88	225.45
436.087	243.88
436.294	342.18
436.501	309.41
436.708	260.26
436.915	299.17
437.122	354.47
437.329	301.22
437.537	317.61
437.743	284.84
437.95	467.11
438.157	379.04
438.364	290.98
438.571	354.47
438.778	415.91
438.985	487.59
439.192	491.68
439.399	430.24
439.606	407.72
439.813	546.98
440.02	581.79
440.227	600.23
440.433	587.94
440.64	524.45
440.847	530.59
441.054	571.55
441.261	680.1
441.467	602.27
441.674	592.03
441.881	798.88
442.088	608.42
442.294	710.82
442.501	710.82
442.708	843.93
442.914	737.44
443.121	727.2
443.328	850.08
443.534	882.85
443.741	868.51
443.948	841.89
444.154	1005.72
444.361	1144.99
444.568	979.1
444.774	999.58
444.981	876.7
445.187	1159.32
445.394	1099.93
445.6	1097.88
445.807	1341.59
446.013	1159.32
446.22	1136.79
446.426	1372.31
446.633	1464.47
446.839	1642.64
447.046	1347.73
447.252	1609.87
447.459	1521.81
447.665	1685.65
447.871	1771.66
448.078	1767.57
448.284	1812.62
448.491	1953.93
448.697	2093.19
448.903	2060.43
449.11	2019.47
449.316	2119.82
449.522	2300.04
449.728	2353.29
449.935	2431.11
450.141	2431.11
450.347	2676.87
450.553	2685.06
450.76	2621.57
450.966	2844.8
451.172	2924.67
451.378	3039.36
451.584	3182.71
451.791	3448.95
451.997	3500.15
452.203	3598.45
452.409	3657.84
452.615	3856.5
452.821	3711.09
453.027	3668.08
453.233	4268.14
453.44	4061.29
453.646	4218.99
453.852	4548.71
454.058	4702.31
454.264	4819.04
454.47	5154.91
454.676	5251.16
454.882	5591.13
455.088	5466.2
455.294	5691.48
455.5	6144.08
455.705	6348.87
455.911	6299.72
456.117	6631.49
456.323	6668.36
456.529	6662.21
456.735	7366.71
456.941	7419.96
457.147	7749.68
457.352	8175.66
457.558	8382.51
457.764	9003.04
457.97	9074.72
458.176	9506.84
458.381	9865.24
458.587	10047.51
458.793	10598.41
458.999	10463.24
459.204	11831.29
459.41	12048.37
459.616	12105.71
459.821	12896.23
460.027	13348.83
460.233	14059.48
460.438	14161.87
460.644	14944.2
460.85	15028.17
461.055	15445.95
461.261	16375.73
461.466	15968.18
461.672	16267.19
461.878	18345.87
462.083	18110.36
462.289	18362.26
462.494	19277.7
462.7	19445.63
462.905	19728.25
463.111	21395.3
463.316	22210.39
463.522	22591.31
463.727	23531.33
463.932	24010.56
464.138	24969.01
464.343	26052.38
464.549	26044.19
464.754	28217.08
464.959	28978.93
465.165	29325.04
465.37	29169.39
465.575	29284.08
465.781	31258.32
465.986	31897.28
466.191	31807.17
466.397	31704.77
466.602	31057.62
466.807	32843.45
467.012	33152.69
467.218	34152.1
467.423	34197.15
467.628	35255.95
467.833	36826.74
468.038	36349.57
468.244	35616.4
468.449	37367.41
468.654	36595.32
468.859	36380.29
469.064	36640.38
469.269	35608.2
469.474	36005.51
469.679	37076.6
469.885	36124.29
470.09	36779.64
470.295	36859.51
470.5	35911.3
470.705	36497.02
470.91	35421.84
471.115	34782.87
471.32	35450.51
471.525	35366.54
471.73	34369.18
471.935	33871.53
472.139	32804.53
472.344	32872.12
472.549	32566.97
472.754	31983.3
472.959	31289.04
473.164	30234.33
473.369	29626.09
473.574	30607.06
473.778	30199.52
473.983	29632.23
474.188	29230.83
474.393	27686.66
474.598	27694.85
474.802	27064.08
475.007	26732.31
475.212	26365.72
475.417	25202.47
475.621	25016.11
475.826	25116.46
476.031	24317.75
476.235	23844.67
476.44	23652.16
476.645	23459.65
476.849	22843.21
477.054	22300.5
477.259	21938.01
477.463	21841.76
477.668	21321.57
477.872	21313.38
478.077	20795.25
478.282	20266.87
478.486	19908.47
478.691	19787.64
478.895	19863.42
479.1	19462.02
479.304	19449.73
479.509	18534.29
479.713	19154.82
479.918	18427.79
480.122	18020.25
480.326	18431.89
480.531	18251.67
480.735	18134.93
480.94	17741.72
481.144	18302.87
481.348	17196.96
481.553	17356.71
481.757	17035.17
481.961	17168.29
482.166	17276.84
482.37	17082.28
482.574	16531.37
482.778	16578.48
482.983	16637.87
483.187	16359.35
483.391	16443.31
483.595	16072.63
483.8	15994.81
484.004	15808.44
484.208	15824.83
484.412	15613.88
484.616	15771.58
484.821	15304.64
485.025	14692.3
485.229	15122.37
485.433	14563.28
485.637	14542.8
485.841	14323.66
486.045	14372.82
486.249	14149.59
486.453	13789.14
486.657	13860.82
486.861	13412.32
487.065	12797.93
487.269	13053.92
487.473	12580.84
487.677	12781.54
487.881	12916.71
488.085	12161.01
488.289	12044.27
488.493	11597.82
488.697	11892.73
488.901	11456.51
489.105	11161.6
489.309	11091.97
489.512	10858.5
489.716	10745.86
489.92	10383.37
490.124	10188.82
490.328	10018.83
490.531	10043.41
490.735	9865.24
490.939	9652.25
491.143	9320.48
491.346	9359.39
491.55	9381.92
491.754	8921.12
491.958	8822.82
492.161	8742.95
492.365	8726.57
492.569	8273.96
492.772	8321.07
492.976	8306.73
493.18	8005.68
493.383	7999.54
493.587	7745.59
493.79	7735.35
493.994	7548.98
494.197	7606.33
494.401	7544.89
494.605	7364.67
494.808	7206.97
495.012	7579.7
495.215	7323.71
495.419	7440.44
495.622	7151.68
495.825	6993.98
496.029	6996.03
496.232	7114.81
496.436	6930.5
496.639	7211.07
496.843	6897.73
497.046	6944.83
497.249	7229.5
497.453	7069.76
497.656	6910.02
497.859	6897.73
498.063	7092.29
498.266	7120.96
498.469	7127.1
498.673	6895.68
498.876	7229.5
499.079	7188.54
499.282	6961.22
499.485	7370.81
499.689	7163.97
499.892	7424.06
500.095	7331.9
500.298	7374.91
500.501	7204.92
500.705	7403.58
500.908	7594.04
501.111	7559.22
501.314	7546.94
501.517	7733.3
501.72	7737.4
501.923	7790.64
502.126	7809.08
502.329	7936.05
502.532	8077.36
502.735	8052.78
502.938	8402.99
503.141	8276.01
503.344	8544.3
503.547	8476.71
503.75	8513.58
503.953	8585.26
504.156	9048.1
504.359	8859.68
504.562	8853.54
504.765	9150.5
504.968	9283.61
505.17	9297.95
505.373	9541.66
505.576	9863.19
505.779	10008.59
505.982	9971.73
506.185	10227.73
506.387	10246.16
506.59	10459.15
506.793	10702.86
506.996	10874.88
507.198	11345.92
507.401	11216.9
507.604	11614.2
507.807	11577.34
508.009	12025.84
508.212	12226.54
508.415	12650.47
508.617	12670.95
508.82	13049.83
509.022	12929
509.225	13535.2
509.428	13803.48
509.63	14108.63
509.833	14006.23
510.035	14886.86
510.238	14499.79
510.44	15011.78
510.643	15644.6
510.845	15888.31
511.048	15978.42
511.25	16332.72
511.453	16920.49
511.655	17668
511.858	17700.76
512.06	17981.34
512.262	18333.59
512.465	18855.82
512.667	19232.65
512.87	19552.13
513.072	19998.59
513.274	20856.68
513.477	20797.29
513.679	21544.8
513.881	22093.66
514.084	22386.52
514.286	22454.1
514.488	23115.59
514.69	24110.91
514.893	24227.64
515.095	24753.97
515.297	25800.48
515.499	25941.79
515.701	26199.83
515.904	27084.56
516.106	27596.55
516.308	28274.43
516.51	28913.39
516.712	29157.1
516.914	30011.1
517.116	30615.26
517.318	30959.31
517.52	31327.95
517.722	32169.66
517.925	32630.46
518.127	33470.12
518.329	33996.45
518.531	33805.99
518.733	34948.76
518.935	35567.24
519.136	35735.18
519.338	36736.63
519.54	37330.55
519.742	37709.42
519.944	37944.94
520.146	39028.31
520.348	39317.07
520.55	39724.62
520.752	39855.69
520.954	41119.29
521.155	40937.02
521.357	41758.25
521.559	42253.86
521.761	43224.6
521.963	42903.07
522.164	43382.29
522.366	43689.49
522.568	44701.18
522.77	44889.6
522.971	45174.27
523.173	44957.18
523.375	45770.22
523.576	45454.84
523.778	45594.1
523.98	46366.18
524.181	46609.89
524.383	46319.08
524.584	46757.35
524.786	46867.94
524.988	46530.02
525.189	47240.67
525.391	47467.99
525.592	47343.06
525.794	47154.65
525.995	47252.95
526.197	46796.26
526.398	47349.21
526.6	47224.28
526.801	47396.31
527.003	47080.92
527.204	47314.39
527.406	46982.62
527.607	46691.81
527.808	46826.98
528.01	45469.17
528.211	45751.79
528.412	45878.77
528.614	45653.49
528.815	45342.2
529.016	45893.1
529.218	44410.37
529.419	44570.11
529.62	43949.58
529.822	43464.21
530.023	43515.41
530.224	42929.69
530.425	42667.55
530.626	42008.11
530.828	41137.72
531.029	41872.94
531.23	40721.98
531.431	40382.02
531.632	40394.31
531.833	39638.61
532.035	38800.99
532.236	38674.01
532.437	38729.31
532.638	37713.52
532.839	37748.33
533.04	37062.26
533.241	35919.49
533.442	36372.1
533.643	35581.58
533.844	35079.83
534.045	34848.41
534.246	33787.56
534.447	33457.84
534.648	33517.23
534.849	33085.11
535.05	32368.32
535.251	32042.69
535.451	31782.6
535.652	31018.71
535.853	30537.43
536.054	30258.91
536.255	29898.47
536.456	29337.32
536.657	29417.19
536.857	28688.12
537.058	28215.04
537.259	28382.97
537.46	27465.48
537.66	27146
537.861	26941.2
538.062	26636.05
538.263	26197.79
538.463	25790.24
538.664	25618.21
538.865	25282.34
539.065	25034.54
539.266	24426.29
539.466	24637.23
539.667	24047.42
539.868	23914.3
540.068	23611.2
540.269	23252.81
540.469	23234.38
540.67	22579.03
540.87	22464.34
541.071	22138.71
541.271	21995.36
541.472	21694.3
541.672	21444.45
541.873	21297
542.073	20377.46
542.274	20672.37
542.474	20518.77
542.675	19996.54
542.875	20244.34
543.075	19756.93
543.276	19416.96
543.476	19584.9
543.676	19281.8
543.877	19175.3
544.077	18968.46
544.277	18579.34
544.478	18165.65
544.678	18128.79
544.878	17852.31
545.078	17911.71
545.279	17368.99
545.479	17190.82
545.679	17172.39
545.879	16881.58
546.079	16711.6
546.28	16549.81
546.48	16168.88
546.68	16209.84
546.88	16156.6
547.08	15861.69
547.28	15927.22
547.48	15417.28
547.68	15464.38
547.88	15062.98
548.081	15036.36
548.281	14649.29
548.481	14487.5
548.681	14516.17
548.881	14391.25
549.081	14155.73
549.28	13776.86
549.48	13649.88
549.68	13504.48
549.88	13514.72
550.08	12877.8
550.28	12838.89
550.48	12906.47
550.68	12875.75
550.88	12427.25
551.08	12029.94
551.279	12122.1
551.479	11857.91
551.679	11884.53
551.879	11345.92
552.079	11341.82
552.278	11141.12
552.478	11030.53
552.678	10758.15
552.878	10954.76
553.077	10704.9
553.277	10438.67
553.477	10403.85
553.676	9951.25
553.876	10016.79
554.076	9687.06
554.275	9388.06
554.475	9359.39
554.674	9707.54
554.874	9173.02
555.074	8876.07
555.273	9009.19
555.473	8863.78
555.672	8734.76
555.872	8544.3
556.071	8302.64
556.271	8515.62
556.47	8138.8
556.67	7913.52
556.869	7847.99
557.068	7696.44
557.268	7591.99
557.467	7335.99
557.667	7446.59
557.866	7196.73
558.065	6961.22
558.265	7129.15
558.464	6819.91
558.663	6733.89
558.863	6688.84
559.062	6666.31
559.261	6467.66
559.461	6479.94
559.66	6078.54
559.859	5982.29
560.058	5957.71
560.258	5857.36
560.457	5943.38
560.656	5888.08
560.855	5537.88
561.054	5630.04
561.253	5376.09
561.453	5503.06
561.652	5443.67
561.851	5371.99
562.05	5206.11
562.249	5048.41
562.448	5167.2
562.647	4909.15
562.846	4784.23
563.045	4860
563.244	4683.88
563.443	4808.8
563.642	4487.27
563.841	4589.67
564.04	4540.52
564.239	4331.62
564.438	4257.9
564.637	4223.08
564.836	4235.37
565.035	4169.84
565.234	4083.82
565.432	4079.72
565.631	4044.91
565.83	3999.85
566.029	3836.02
566.228	3750
566.427	3997.81
566.625	3571.83
566.824	3786.86
567.023	3616.88
567.222	3330.17
567.42	3524.72
567.619	3455.09
567.818	3455.09
568.016	3614.84
568.215	3281.02
568.414	3262.58
568.612	3258.49
568.811	3129.47
569.01	3127.42
569.208	3096.7
569.407	3192.95
569.605	3037.31
569.804	2885.76
570.002	2979.97
570.201	2842.75
570.4	2764.93
570.598	2685.06
570.797	2707.59
570.995	2558.08
571.193	2711.68
571.392	2572.42
571.59	2527.36
571.789	2504.84
571.987	2578.56
572.186	2566.28
572.384	2437.25
572.582	2474.12
572.781	2490.5
572.979	2254.98
573.177	2226.31
573.376	2089.1
573.574	2334.86
573.772	2128.01
573.971	2125.96
574.169	2013.32
574.367	2072.72
574.565	2099.34
574.763	1919.12
574.962	1964.17
575.16	1972.36
575.358	1908.88
575.556	1841.29
575.754	1880.21
575.952	1749.14
576.151	1786
576.349	1839.25
576.547	1618.07
576.745	1788.05
576.943	1771.66
577.141	1607.83
577.339	1577.11
577.537	1626.26
577.735	1640.59
577.933	1579.15
578.131	1474.71
578.329	1607.83
578.527	1511.57
578.725	1564.82
578.923	1415.32
579.121	1425.56
579.319	1265.82
579.516	1390.74
579.714	1648.79
579.912	1388.69
580.11	1212.57
580.308	1228.95
580.506	1259.67
580.704	1228.95
580.901	1212.57
581.099	1333.4
581.297	1106.07
581.495	1175.7
581.692	1222.81
581.89	1300.63
582.088	1140.89
582.285	1083.55
582.483	1128.6
582.681	1124.51
582.878	1022.11
583.076	1077.4
583.274	1089.69
583.471	1126.55
583.669	964.76
583.866	899.23
584.064	929.95
584.262	845.98
584.459	864.41
584.657	983.2
584.854	1011.87
585.052	972.96
585.249	839.84
585.447	903.32
585.644	821.41
585.841	880.8
586.039	921.76
586.236	870.56
586.434	774.3
586.631	811.17
586.828	710.82
587.026	780.45
587.223	624.8
587.42	800.93
587.618	739.49
587.815	888.99
588.012	788.64
588.21	667.81
588.407	841.89
588.604	792.73
588.801	727.2
588.999	676
589.196	762.02
589.393	669.86
589.59	651.42
589.787	721.06
589.984	753.82
590.182	706.72
590.379	598.18
590.576	676
590.773	657.57
590.97	661.66
591.167	733.34
591.364	745.63
591.561	653.47
591.758	702.62
591.955	716.96
592.152	653.47
592.349	585.89
592.546	510.11
592.743	536.74
592.94	589.99
593.137	592.03
593.334	774.3
593.531	729.25
593.727	676
593.924	665.76
594.121	698.53
594.318	637.09
594.515	659.62
594.712	704.67
594.908	776.35
595.105	581.79
595.302	762.02
595.499	743.58
595.696	686.24
595.892	667.81
596.089	753.82
596.286	729.25
596.482	860.32
596.679	886.94
596.876	782.49
597.072	766.11
597.269	809.12
597.466	917.66
597.662	837.79
597.859	725.15
598.055	964.76
598.252	893.09
598.448	1044.63
598.645	1050.78
598.841	1089.69
599.038	1216.66
599.234	1185.94
599.431	1165.46
599.627	1278.1
599.824	1294.49
600.02	1259.67
600.217	1370.26
600.413	1425.56
600.609	1450.13
600.806	1777.81
601.002	1650.83
601.198	1544.34
601.395	1589.39
601.591	1734.8
601.787	1781.9
601.984	1880.21
602.18	1937.55
602.376	2015.37
602.572	2168.97
602.769	2185.35
602.965	2154.63
603.161	2510.98
603.357	2506.88
603.553	2510.98
603.75	2582.66
603.946	2648.19
604.142	2820.22
604.338	2967.68
604.534	3020.92
604.73	3006.59
604.926	3082.36
605.122	3446.9
605.318	3389.56
605.514	3489.91
605.71	3641.46
605.906	3672.18
606.102	3723.38
606.298	3969.13
606.494	4030.57
606.69	4286.57
606.886	4175.98
607.082	4307.05
607.278	4440.17
607.474	4522.09
607.67	4722.79
607.866	4835.42
608.062	4972.64
608.257	5159
608.453	5179.48
608.649	5355.61
608.845	5429.34
609.041	5584.98
609.236	5795.92
609.432	5779.54
609.628	6070.35
609.824	6228.04
610.019	6285.39
610.215	6678.6
610.411	6787.14
610.606	7147.58
610.802	7163.97
610.998	7518.26
611.193	7759.92
611.389	7618.61
611.584	8069.17
611.78	7989.3
611.976	8355.88
612.171	8656.93
612.367	8896.55
612.562	9140.26
612.758	9228.32
612.953	9469.98
613.149	9775.13
613.344	9938.96
613.539	10340.36
613.735	10539.02
613.93	10987.52
614.126	10799.11
614.321	11280.38
614.517	11683.83
614.712	11868.15
614.907	12376.05
615.103	12638.19
615.298	12716.01
615.493	13365.21
615.688	13291.49
615.884	14215.12
616.079	13987.8
616.274	14366.67
616.47	14772.17
616.665	15394.75
616.86	15497.15
617.055	16056.25
617.25	16340.91
617.445	16887.72
617.641	16875.43
617.836	17534.88
618.031	17993.62
618.226	18585.49
618.421	18792.33
618.616	19439.49
618.811	19550.08
619.006	20316.02
619.201	20612.98
619.396	21229.41
619.591	21280.61
619.786	22282.07
619.981	22368.09
620.176	22867.79
620.371	23271.24
620.566	23947.07
620.761	24260.41
620.956	25106.22
621.151	25132.84
621.346	26214.17
621.541	26302.23
621.735	27121.42
621.93	27100.94
622.125	27701
622.32	27989.76
622.515	28690.16
622.709	29439.72
622.904	30029.54
623.099	30127.84
623.294	31151.82
623.488	31547.08
623.683	31983.3
623.878	31901.38
624.072	32837.3
624.267	33838.76
624.462	33816.23
624.656	34102.95
624.851	34954.9
625.046	35192.47
625.24	35733.13
625.435	36019.85
625.629	36818.55
625.824	37439.09
626.018	37719.66
626.213	37609.07
626.407	38581.85
626.602	38663.77
626.796	39310.93
626.991	39913.03
627.185	39953.99
627.38	39966.28
627.574	40525.38
627.768	40476.23
627.963	41139.77
628.157	40957.5
628.352	41272.88
628.546	40973.88
628.74	41465.39
628.935	40998.46
629.129	41705.01
629.323	40805.95
629.517	41109.05
629.712	40627.77
629.906	40379.97
630.1	39689.81
630.294	39816.78
630.489	39024.22
630.683	38925.91
630.877	37891.69
631.071	37111.41
631.265	37146.23
631.459	36580.99
631.653	35536.52
631.848	34406.05
632.042	33547.95
632.236	33119.92
632.43	31971.01
632.624	31461.07
632.818	30711.51
633.012	29343.47
633.206	28573.43
633.4	27731.72
633.594	26818.32
633.788	26177.31
633.982	25036.59
634.176	24606.52
634.369	23490.37
634.563	22572.88
634.757	21493.6
634.951	20926.32
635.145	19894.14
635.339	19261.32
635.533	18743.18
635.726	18069.4
635.92	17139.62
636.114	16199.6
636.308	15845.3
636.501	15011.78
636.695	14366.67
636.889	13770.71
637.083	13414.37
637.276	12736.49
637.47	12189.68
637.664	11642.87
637.857	11329.53
638.051	10831.88
638.244	10500.11
638.438	9912.34
638.632	9873.43
638.825	9158.69
639.019	8935.46
639.212	8325.16
639.406	8392.75
639.599	7688.25
639.793	7553.08
639.986	7163.97
640.18	7022.66
640.373	6619.21
640.567	6477.9
640.76	6187.08
640.954	5937.23
641.147	5775.44
641.34	5464.15
641.534	5351.51
641.727	5187.68
641.92	4946.02
642.114	4636.77
642.307	4456.55
642.5	4440.17
642.694	4044.91
642.887	3997.81
643.08	4008.05
643.273	3885.17
643.467	3543.16
643.66	3465.33
643.853	3367.03
644.046	3201.15
644.239	3117.18
644.432	2861.18
644.626	2809.98
644.819	2687.11
645.012	2560.13
645.205	2687.11
645.398	2576.52
645.591	2371.72
645.784	2162.83
645.977	2107.53
646.17	2017.42
646.363	2162.83
646.556	1831.05
646.749	1808.53
646.942	1779.86
647.135	1765.52
647.328	1675.41
647.521	1589.39
647.714	1544.34
647.907	1495.19
648.099	1403.03
648.292	1558.67
648.485	1384.6
648.678	1388.69
648.871	1214.62
649.064	1142.94
649.256	1093.79
649.449	1093.79
649.642	1001.63
649.835	1013.92
650.027	954.52
650.22	985.24
650.413	927.9
650.605	938.14
650.798	809.12
650.991	854.17
651.183	835.74
651.376	837.79
651.568	745.63
651.761	643.23
651.954	788.64
652.146	657.57
652.339	659.62
652.531	741.54
652.724	581.79
652.916	561.31
653.109	430.24
653.301	665.76
653.494	655.52
653.686	526.5
653.879	563.36
654.071	549.03
654.263	495.78
654.456	489.64
654.648	540.83
654.84	544.93
655.033	438.44
655.225	571.55
655.417	311.46
655.61	454.82
655.802	534.69
655.994	506.02
656.186	299.17
656.379	454.82
656.571	290.98
656.763	342.18
656.955	372.9
657.148	288.93
657.34	422.05
657.532	323.75
657.724	290.98
657.916	317.61
658.108	458.92
658.3	309.41
658.492	333.99
658.684	268.45
658.876	389.28
659.068	127.14
659.26	174.25
659.452	161.96
659.644	319.65
659.836	381.09
660.028	293.03
660.22	241.83
660.412	209.06
660.604	190.63
660.796	297.13
660.988	323.75
661.18	194.73
661.372	272.55
661.563	219.3
661.755	340.13
661.947	278.69
662.139	186.54
662.331	219.3
662.522	241.83
662.714	168.1
662.906	133.29
663.097	118.95
663.289	77.99
663.481	37.03
663.673	252.07
663.864	147.62
664.056	243.88
664.247	207.02
664.439	227.5
664.631	223.4
664.822	213.16
665.014	127.14
665.205	225.45
665.397	219.3
665.588	145.58
665.78	172.2
665.971	254.12
666.163	196.78
666.354	135.34
666.546	100.52
666.737	166.06
666.929	133.29
667.12	131.24
667.311	229.54
667.503	186.54
667.694	127.14
667.885	198.82
668.077	194.73
668.268	28.84
668.459	217.26
668.651	202.92
668.842	159.91
669.033	118.95
669.224	77.99
669.416	323.75
669.607	127.14
669.798	90.28
669.989	241.83
670.18	131.24
670.371	159.91
670.563	108.71
670.754	229.54
670.945	180.39
671.136	198.82
671.327	55.47
671.518	256.17
671.709	323.75
671.9	264.36
672.091	239.78
672.282	190.63
672.473	170.15
672.664	98.47
672.855	82.09
673.046	104.62
673.237	168.1
673.428	112.81
673.619	239.78
673.809	151.72
674	235.69
674.191	245.93
674.382	202.92
674.573	213.16
674.764	133.29
674.954	286.89
675.145	88.23
675.336	121
675.527	112.81
675.717	86.19
675.908	118.95
676.099	112.81
676.289	207.02
676.48	67.75
676.671	135.34
676.861	145.58
677.052	209.06
677.243	121
677.433	123.05
677.624	192.68
677.814	100.52
678.005	110.76
678.195	319.65
678.386	98.47
678.576	153.77
678.767	108.71
678.957	125.1
679.148	211.11
679.338	340.13
679.529	266.41
679.719	178.34
679.909	260.26
680.1	194.73
680.29	241.83
680.481	49.32
680.671	276.65
680.861	198.82
681.052	223.4
681.242	213.16
681.432	211.11
681.622	207.02
681.813	145.58
682.003	192.68
682.193	110.76
682.383	186.54
682.573	215.21
682.764	202.92
682.954	235.69
683.144	340.13
683.334	231.59
683.524	207.02
683.714	301.22
683.904	254.12
684.094	260.26
684.284	213.16
684.474	243.88
684.664	295.08
684.854	243.88
685.044	241.83
685.234	231.59
685.424	317.61
685.614	237.74
685.804	385.19
685.994	264.36
686.184	245.93
686.374	288.93
686.564	209.06
686.753	235.69
686.943	159.91
687.133	217.26
687.323	200.87
687.513	282.79
687.702	270.5
687.892	170.15
688.082	278.69
688.272	338.09
688.461	164.01
688.651	313.51
688.841	245.93
689.03	235.69
689.22	254.12
689.41	272.55
689.599	276.65
689.789	221.35
689.979	295.08
690.168	219.3
690.358	256.17
690.547	194.73
690.737	184.49
690.926	159.91
691.116	256.17
691.305	204.97
691.495	256.17
691.684	180.39
691.874	159.91
692.063	317.61
692.252	217.26
692.442	180.39
692.631	223.4
692.82	256.17
693.01	233.64
693.199	168.1
693.388	188.58
693.578	217.26
693.767	258.21
693.956	256.17
694.146	180.39
694.335	266.41
694.524	182.44
694.713	254.12
694.902	204.97
695.092	131.24
695.281	202.92
695.47	241.83
695.659	164.01
695.848	176.3
696.037	198.82
696.226	301.22
696.415	217.26
696.604	213.16
696.793	237.74
696.982	170.15
697.171	325.8
697.36	217.26
697.549	143.53
697.738	94.38
697.927	137.38
698.116	133.29
698.305	198.82
698.494	250.02
698.683	184.49
698.872	370.85
699.061	196.78
699.25	192.68
699.438	241.83
699.627	172.2
699.816	286.89
700.005	61.61
700.193	178.34
700.382	243.88
700.571	161.96
700.76	288.93
700.948	254.12
701.137	301.22
701.326	288.93
701.514	131.24
701.703	252.07
701.892	262.31
702.08	362.66
702.269	147.62
702.457	164.01
702.646	188.58
702.834	209.06
703.023	207.02
703.212	280.74
703.4	164.01
703.589	151.72
703.777	100.52
703.965	114.86
704.154	219.3
704.342	88.23
704.531	125.1
704.719	211.11
704.907	301.22
705.096	178.34
705.284	116.9
705.472	290.98
705.661	180.39
705.849	207.02
706.037	288.93
706.226	145.58
706.414	252.07
706.602	176.3
706.79	219.3
706.979	153.77
707.167	221.35
707.355	104.62
707.543	235.69
707.731	237.74
707.919	121
708.107	194.73
708.296	141.48
708.484	127.14
708.672	221.35
708.86	178.34
709.048	282.79
709.236	145.58
709.424	252.07
709.612	164.01
709.8	65.71
709.988	217.26
710.176	256.17
710.364	284.84
710.551	184.49
710.739	137.38
710.927	77.99
711.115	235.69
711.303	282.79
711.491	293.03
711.679	127.14
711.866	266.41
712.054	256.17
712.242	170.15
712.43	268.45
712.617	176.3
712.805	225.45
712.993	219.3
713.181	135.34
713.368	182.44
713.556	204.97
713.744	159.91
713.931	346.28
714.119	284.84
714.306	178.34
714.494	180.39
714.682	182.44
714.869	86.19
715.057	243.88
715.244	118.95
715.432	213.16
715.619	100.52
715.807	147.62
715.994	178.34
716.182	219.3
716.369	252.07
716.556	241.83
716.744	135.34
716.931	112.81
717.119	174.25
717.306	168.1
717.493	182.44
717.681	245.93
717.868	172.2
718.055	188.58
718.242	258.21
718.43	202.92
718.617	200.87
718.804	127.14
718.991	256.17
719.179	170.15
719.366	266.41
719.553	274.6
719.74	118.95
719.927	188.58
720.114	211.11
720.301	155.82
720.488	198.82
720.676	92.33
720.863	372.9
721.05	319.65
721.237	301.22
721.424	227.5
721.611	131.24
721.798	174.25
721.985	202.92
722.172	168.1
722.358	192.68
722.545	288.93
722.732	336.04
722.919	311.46
723.106	260.26
723.293	280.74
723.48	276.65
723.667	204.97
723.853	278.69
724.04	329.89
724.227	319.65
724.414	186.54
724.6	245.93
724.787	297.13
724.974	331.94
725.161	233.64
725.347	192.68
725.534	274.6
725.72	190.63
725.907	264.36
726.094	235.69
726.28	112.81
726.467	194.73
726.653	184.49
726.84	278.69
727.027	323.75
727.213	209.06
727.4	282.79
727.586	225.45
727.773	260.26
727.959	200.87
728.145	194.73
728.332	213.16
728.518	209.06
728.705	260.26
728.891	215.21
729.077	202.92
729.264	125.1
729.45	180.39
729.636	276.65
729.823	313.51
730.009	241.83
730.195	250.02
730.382	297.13
730.568	172.2
730.754	254.12
730.94	174.25
731.126	309.41
731.313	268.45
731.499	233.64
731.685	290.98
731.871	280.74
732.057	295.08
732.243	290.98
732.429	290.98
732.615	391.33
732.801	331.94
732.987	268.45
733.173	202.92
733.359	139.43
733.545	239.78
733.731	190.63
733.917	319.65
734.103	297.13
734.289	256.17
734.475	166.06
734.661	356.52
734.847	239.78
735.033	229.54
735.219	286.89
735.404	227.5
735.59	219.3
735.776	223.4
735.962	286.89
736.148	282.79
736.333	370.85
736.519	239.78
736.705	268.45
736.89	344.23
737.076	284.84
737.262	219.3
737.447	180.39
737.633	221.35
737.819	241.83
738.004	241.83
738.19	250.02
738.375	331.94
738.561	368.81
738.747	176.3
738.932	215.21
739.118	358.57
739.303	266.41
739.489	323.75
739.674	243.88
739.859	227.5
740.045	233.64
740.23	354.47
740.416	82.09
740.601	336.04
740.786	233.64
740.972	227.5
741.157	182.44
741.342	207.02
741.528	186.54
741.713	389.28
741.898	202.92
742.084	264.36
742.269	250.02
742.454	305.32
742.639	313.51
742.824	229.54
743.01	377
743.195	397.48
743.38	266.41
743.565	223.4
743.75	286.89
743.935	268.45
744.12	344.23
744.305	137.38
744.49	231.59
744.675	233.64
744.86	157.86
745.045	227.5
745.23	184.49
745.415	260.26
745.6	364.71
745.785	209.06
745.97	301.22
746.155	311.46
746.34	354.47
746.525	329.89
746.71	288.93
746.895	252.07
747.079	176.3
747.264	237.74
747.449	235.69
747.634	239.78
747.819	213.16
748.003	223.4
748.188	141.48
748.373	270.5
748.557	250.02
748.742	258.21
748.927	213.16
749.111	211.11
749.296	92.33
749.481	209.06
749.665	219.3
749.85	110.76
750.034	192.68
750.219	233.64
750.404	159.91
750.588	280.74
750.773	174.25
750.957	102.57
751.141	301.22
751.326	254.12
751.51	110.76
751.695	131.24
751.879	86.19
752.064	319.65
752.248	207.02
752.432	258.21
752.617	200.87
752.801	223.4
752.985	168.1
753.17	266.41
753.354	266.41
753.538	155.82
753.722	221.35
753.907	137.38
754.091	137.38
754.275	276.65
754.459	94.38
754.643	108.71
754.828	198.82
755.012	245.93
755.196	32.94
755.38	235.69
755.564	149.67
755.748	137.38
755.932	233.64
756.116	233.64
756.3	166.06
756.484	164.01
756.668	186.54
756.852	14.51
757.036	118.95
757.22	241.83
757.404	151.72
757.588	151.72
757.772	143.53
757.956	149.67
758.14	270.5
758.323	112.81
758.507	190.63
758.691	147.62
758.875	123.05
759.059	184.49
759.242	55.47
759.426	180.39
759.61	151.72
759.794	98.47
759.977	207.02
760.161	331.94
760.345	200.87
760.528	217.26
760.712	141.48
760.895	174.25
761.079	86.19
761.263	84.14
761.446	118.95
761.63	94.38
761.813	186.54
761.997	106.67
762.18	108.71
762.364	180.39
762.547	20.65
762.731	100.52
762.914	178.34
763.098	174.25
763.281	34.99
763.464	57.51
763.648	51.37
763.831	153.77
764.015	28.84
764.198	186.54
764.381	98.47
764.564	98.47
764.748	174.25
764.931	139.43
765.114	80.04
765.297	176.3
765.481	30.89
765.664	10.41
765.847	102.57
766.03	143.53
766.213	94.38
766.397	121
766.58	53.42
766.763	196.78
766.946	16.55
767.129	98.47
767.312	71.85
767.495	114.86
767.678	139.43
767.861	24.75
768.044	28.84
768.227	67.75
768.41	51.37
768.593	98.47
768.776	104.62
768.959	43.18
769.142	114.86
769.324	39.08
769.507	102.57
769.69	41.13
769.873	67.75
770.056	243.88
770.239	84.14
770.421	153.77
770.604	86.19
770.787	39.08
770.97	75.95
771.152	-55.12
771.335	129.19
771.518	-14.17
771.7	114.86
771.883	131.24
772.066	53.42
772.248	55.47
772.431	143.53
772.613	118.95
772.796	147.62
772.978	180.39
773.161	219.3
773.343	6.31
773.526	55.47
773.708	-73.56
773.891	-12.12
774.073	96.43
774.256	82.09
774.438	256.17
774.621	59.56
774.803	80.04
774.985	55.47
775.168	77.99
775.35	14.51
775.532	168.1
775.715	47.27
775.897	96.43
776.079	108.71
776.261	86.19
776.444	22.7
776.626	88.23
776.808	24.75
776.99	14.51
777.173	61.61
777.355	65.71
777.537	94.38
777.719	112.81
777.901	22.7
778.083	65.71
778.265	59.56
778.447	51.37
778.629	-24.4
778.811	69.8
778.993	135.34
779.175	182.44
779.357	30.89
779.539	-28.5
779.721	100.52
779.903	71.85
780.085	55.47
780.267	77.99
780.449	61.61
780.631	170.15
780.812	168.1
780.994	24.75
781.176	-20.31
781.358	-20.31
781.54	-24.4
781.721	153.77
781.903	92.33
782.085	-32.6
782.267	112.81
782.448	-53.08
782.63	47.27
782.812	45.23
782.993	135.34
783.175	108.71
783.357	55.47
783.538	0.17
783.72	-38.74
783.901	51.37
784.083	137.38
784.264	73.9
784.446	-44.88
784.627	-51.03
784.809	82.09
784.99	4.27
785.172	82.09
785.353	49.32
785.535	69.8
785.716	-5.97
785.897	-46.93
786.079	20.65
786.26	123.05
786.441	22.7
786.623	-104.28
786.804	24.75
786.985	57.51
787.167	102.57
787.348	4.27
787.529	73.9
787.71	213.16
787.891	63.66
788.073	-104.28
788.254	-26.45
788.435	112.81
788.616	82.09
788.797	-61.27
788.978	-44.88
789.159	22.7
789.34	94.38
789.522	-18.26
789.703	-1.88
789.884	57.51
790.065	-46.93
790.246	184.49
790.427	12.46
790.607	147.62
790.788	143.53
790.969	30.89
791.15	59.56
791.331	22.7
791.512	47.27
791.693	-5.97
791.874	61.61
792.054	186.54
792.235	86.19
792.416	37.03
792.597	-65.36
792.778	57.51
792.958	59.56
793.139	63.66
793.32	-14.17
793.5	-65.36
793.681	188.58
793.862	49.32
794.042	88.23
794.223	-46.93
794.404	6.31
794.584	-61.27
794.765	8.36
794.945	49.32
795.126	22.7
795.306	45.23
795.487	-30.55
795.667	26.79
795.848	77.99
796.028	10.41
796.209	41.13
796.389	102.57
796.57	53.42
796.75	45.23
796.93	26.79
797.111	-22.36
797.291	4.27
797.471	28.84
797.652	-69.46
797.832	-59.22
798.012	69.8
798.192	-91.99
798.373	-65.36
798.553	-59.22
798.733	4.27
798.913	-40.79
799.093	-20.31
799.274	10.41
799.454	94.38
799.634	84.14
799.814	53.42
799.994	45.23
800.174	37.03
800.354	16.55
800.534	-77.65
800.714	-36.69
800.894	-91.99
801.074	-63.32
801.254	6.31
801.434	135.34
801.614	32.94
801.794	-102.23
801.974	1507.48
802.154	-48.98
802.334	106.67
802.514	-38.74
802.693	71.85
802.873	-34.64
803.053	82.09
803.233	-38.74
803.413	16.55
803.592	6.31
803.772	-67.41
803.952	-55.12
804.131	-26.45
804.311	69.8
804.491	90.28
804.67	-42.84
804.85	-53.08
805.03	43.18
805.209	12.46
805.389	-10.07
805.568	-38.74
805.748	14.51
805.928	53.42
806.107	65.71
806.287	20.65
806.466	24.75
806.646	32.94
806.825	49.32
807.004	-104.28
807.184	39.08
807.363	45.23
807.543	0.17
807.722	-40.79
807.901	51.37
808.081	2.22
808.26	-55.12
808.439	14.51
808.619	57.51
808.798	-69.46
808.977	-16.21
809.156	24.75
809.336	39.08
809.515	24.75
809.694	-34.64
809.873	24.75
810.052	41.13
810.231	131.24
810.411	-14.17
810.59	114.86
810.769	32.94
810.948	43.18
811.127	-65.36
811.306	-44.88
811.485	-42.84
811.664	82.09
811.843	32.94
812.022	28.84
812.201	-14.17
812.38	37.03
812.559	8.36
812.737	118.95
812.916	-85.84
813.095	-53.08
813.274	82.09
813.453	-46.93
813.632	71.85
813.811	6.31
813.989	-57.17
814.168	-55.12
814.347	-40.79
814.526	28.84
814.704	129.19
814.883	104.62
815.062	-40.79
815.24	63.66
815.419	-96.08
815.598	55.47
815.776	-151.38
815.955	37.03
816.133	-155.47
816.312	51.37
816.49	39.08
816.669	-81.75
816.847	-30.55
817.026	57.51
817.204	-34.64
817.383	-36.69
817.561	-139.09
817.74	39.08
817.918	-10.07
818.097	-83.8
818.275	-16.21
818.453	30.89
818.632	30.89
818.81	-24.4
818.988	-40.79
819.167	-34.64
819.345	-63.32
819.523	-85.84
819.701	49.32
819.879	49.32
820.058	-1.88
820.236	104.62
820.414	26.79
820.592	16.55
820.77	16.55
820.948	-96.08
821.127	-53.08
821.305	-30.55
821.483	-96.08
821.661	39.08
821.839	-12.12
822.017	-34.64
822.195	-24.4
822.373	69.8
822.551	69.8
822.729	94.38
822.907	-36.69
823.085	94.38
823.262	24.75
823.44	-32.6
823.618	-26.45
823.796	34.99
823.974	-42.84
824.152	-22.36
824.329	-26.45
824.507	82.09
824.685	49.32
824.863	-59.22
825.04	-3.93
825.218	-22.36
825.396	-22.36
825.574	88.23
825.751	59.56
825.929	84.14
826.107	-100.18
826.284	61.61
826.462	65.71
826.639	-20.31
826.817	-110.42
826.994	-44.88
827.172	-77.65
827.349	63.66
827.527	67.75
827.704	-24.4
827.882	-28.5
828.059	41.13
828.237	-5.97
828.414	41.13
828.591	-61.27
828.769	-44.88
828.946	-104.28
829.124	39.08
829.301	30.89
829.478	-22.36
829.655	30.89
829.833	69.8
830.01	-22.36
830.187	39.08
830.364	34.99
830.542	77.99
830.719	125.1
830.896	82.09
831.073	100.52
831.25	32.94
831.427	71.85
831.604	57.51
831.782	-59.22
831.959	49.32
832.136	-71.51
832.313	53.42
832.49	-59.22
832.667	30.89
832.844	32.94
833.021	123.05
833.198	26.79
833.374	4.27
833.551	10.41
833.728	-40.79
833.905	106.67
834.082	-143.19
834.259	49.32
834.436	84.14
834.612	-73.56
834.789	16.55
834.966	24.75
835.143	0.17
835.319	-61.27
835.496	53.42
835.673	24.75
835.85	63.66
836.026	77.99
836.203	45.23
836.38	-22.36
836.556	-26.45
836.733	-108.37
836.909	86.19
837.086	-38.74
837.262	-87.89
837.439	8.36
837.616	-51.03
837.792	12.46
837.968	18.6
838.145	-132.95
838.321	37.03
838.498	73.9
838.674	65.71
838.851	18.6
839.027	-28.5
839.203	20.65
839.38	24.75
839.556	-18.26
839.732	16.55
839.909	0.17
840.085	63.66
840.261	-96.08
840.437	10.41
840.614	-65.36
840.79	65.71
840.966	125.1
841.142	43.18
841.318	-102.23
841.494	-1.88
841.671	43.18
841.847	-63.32
842.023	-36.69
842.199	-22.36
842.375	26.79
842.551	-98.13
842.727	-114.52
842.903	116.9
843.079	-51.03
843.255	114.86
843.431	-20.31
843.607	45.23
843.783	-130.9
843.959	12.46
844.134	-98.13
844.31	-44.88
844.486	-57.17
844.662	-28.5
844.838	59.56
845.013	28.84
845.189	63.66
845.365	32.94
845.541	61.61
845.716	-30.55
845.892	65.71
846.068	-38.74
846.244	-26.45
846.419	-73.56
846.595	-147.28
846.77	-104.28
846.946	73.9
847.122	-75.6
847.297	-106.32
847.473	104.62
847.648	-63.32
847.824	-30.55
847.999	-135
848.175	-10.07
848.35	32.94
848.526	164.01
848.701	20.65
848.876	110.76
849.052	57.51
849.227	-55.12
849.403	-85.84
849.578	-46.93
849.753	2.22
849.929	55.47
850.104	-91.99
850.279	-8.02
850.454	-38.74
850.63	67.75
850.805	37.03
850.98	6.31
851.155	18.6
851.33	18.6
851.505	-135
851.681	108.71
851.856	12.46
852.031	-3.93
852.206	-5.97
852.381	-118.61
852.556	4.27
852.731	82.09
852.906	49.32
853.081	47.27
853.256	102.57
853.431	71.85
853.606	-128.85
853.781	-79.7
853.956	-91.99
854.131	32.94
854.305	-135
854.48	-61.27
854.655	12.46
854.83	-40.79
855.005	-77.65
855.18	8.36
855.354	-83.8
855.529	22.7
855.704	-28.5
855.879	57.51
856.053	-51.03
856.228	0.17
856.403	-69.46
856.577	65.71
856.752	-167.76
856.926	28.84
857.101	10.41
857.276	-67.41
857.45	18.6
857.625	2.22
857.799	26.79
857.974	32.94
858.148	-22.36
858.323	14.51
858.497	2.22
858.672	-114.52
858.846	-53.08
859.02	28.84
859.195	-89.94
859.369	-81.75
859.543	77.99
859.718	-48.98
859.892	18.6
860.066	20.65
860.241	-53.08
860.415	-67.41
860.589	20.65
860.763	-32.6
860.938	-94.04
861.112	-16.21
861.286	6.31
861.46	-102.23
861.634	-3.93
861.808	71.85
861.982	-79.7
862.157	-77.65
862.331	10.41
862.505	-51.03
862.679	-143.19
862.853	-38.74
863.027	16.55
863.201	161.96
863.375	-14.17
863.549	-38.74
863.722	51.37
863.896	61.61
864.07	-110.42
864.244	-51.03
864.418	-28.5
864.592	-34.64
864.766	22.7
864.939	20.65
865.113	-10.07
865.287	65.71
865.461	-75.6
865.634	53.42
865.808	0.17
865.982	-24.4
866.156	-36.69
866.329	-118.61
866.503	22.7
866.676	2.22
866.85	-20.31
867.024	-135
867.197	61.61
867.371	-14.17
867.544	20.65
867.718	-83.8
867.891	51.37
868.065	-110.42
868.238	22.7
868.412	86.19
868.585	-48.98
868.759	-20.31
868.932	-28.5
869.105	-114.52
869.279	22.7
869.452	-65.36
869.625	47.27
869.799	24.75
869.972	-63.32
870.145	10.41
870.319	110.76
870.492	-71.51
870.665	-26.45
870.838	-94.04
871.011	-161.62
871.185	32.94
871.358	-98.13
871.531	-10.07
871.704	-55.12
871.877	2.22
872.05	-40.79
872.223	-89.94
872.396	-5.97
872.569	0.17
872.742	-120.66
872.915	26.79
873.088	-30.55
873.261	-135
873.434	30.89
873.607	-51.03
873.78	98.47
873.953	-44.88
874.126	8.36
874.299	61.61
874.471	-48.98
874.644	34.99
874.817	88.23
874.99	77.99
875.163	6.31
875.335	-16.21
875.508	-32.6
875.681	57.51
875.853	-12.12
876.026	26.79
876.199	26.79
876.371	-16.21
876.544	12.46
876.717	-73.56
876.889	-28.5
877.062	22.7
877.234	-61.27
877.407	-53.08
877.579	67.75
877.752	8.36
877.924	28.84
878.097	4.27
878.269	-46.93
878.442	18.6
878.614	-1.88
878.786	-28.5
878.959	0.17
879.131	41.13
879.303	-53.08
879.476	14.51
879.648	139.43
879.82	-32.6
879.993	-12.12
880.165	-104.28
880.337	-57.17
880.509	22.7
880.681	-73.56
880.854	-112.47
881.026	-34.64
881.198	202.92
881.37	-55.12
881.542	-18.26
881.714	-8.02
881.886	-42.84
882.058	96.43
882.23	-51.03
882.402	-34.64
882.574	-28.5
882.746	73.9
882.918	159.91
883.09	45.23
883.262	47.27
883.434	34.99
883.606	-22.36
883.778	-30.55
883.95	131.24
884.122	-38.74
884.293	43.18
884.465	59.56
884.637	112.81
884.809	-81.75
884.98	0.17
885.152	34.99
885.324	28.84
885.496	-40.79
885.667	-30.55
885.839	-143.19
886.011	92.33
886.182	37.03
886.354	2.22
886.525	61.61
886.697	12.46
886.869	-165.71
887.04	-77.65
887.212	20.65
887.383	121
887.555	6.31
887.726	-16.21
887.897	-16.21
888.069	-5.97
888.24	10.41
888.412	8.36
888.583	-24.4
888.754	49.32
888.926	-106.32
889.097	-20.31
889.268	-143.19
889.44	8.36
889.611	-79.7
889.782	-79.7
889.953	-137.04
890.125	100.52
890.296	-114.52
890.467	-79.7
890.638	-22.36
890.809	-63.32
890.98	-20.31
891.151	-8.02
891.323	75.95
891.494	43.18
891.665	8.36
891.836	-77.65
892.007	-24.4
892.178	20.65
892.349	6.31
892.52	-102.23
892.691	0.17
892.862	-106.32
893.032	-137.04
893.203	-102.23
893.374	-61.27
893.545	30.89
893.716	-53.08
893.887	75.95
894.057	-65.36
894.228	-69.46
894.399	-8.02
894.57	22.7
894.74	-24.4
894.911	37.03
895.082	14.51
895.253	-114.52
895.423	-3.93
895.594	45.23
895.764	51.37
895.935	-98.13
896.106	-48.98
896.276	-53.08
896.447	28.84
896.617	-137.04
896.788	-57.17
896.958	-8.02
897.129	-55.12
897.299	-132.95
897.47	43.18
897.64	10.41
897.81	-10.07
897.981	-36.69
898.151	-65.36
898.322	20.65
898.492	47.27
898.662	-85.84
898.832	-48.98
899.003	-51.03
899.173	28.84
899.343	-89.94
899.513	-32.6
