Data from USB4F104151__22__10-42-00-486.txt Node

Date: Wed Feb 26 10:42:00 EST 2025
User: louis
Spectrometer: USB4F10415
Trigger mode: 4
Integration Time (sec): 1.000000E-1
Scans to average: 1
Electric dark correction enabled: true
Nonlinearity correction enabled: false
Boxcar width: 0
XAxis mode: Wavelengths
Number of Pixels in Spectrum: 3648
>>>>>Begin Spectral Data<<<<<
178.204	-388.43
178.424	-388.43
178.644	-388.43
178.864	-423.25
179.084	-355.66
179.304	82.6
179.524	-11.61
179.744	-54.61
179.964	0.68
180.184	35.5
180.404	66.22
180.624	-64.85
180.844	-25.94
181.064	-66.9
181.283	15.02
181.503	17.07
181.723	6.83
181.943	-105.81
182.163	168.62
182.383	4.78
182.602	94.89
182.822	131.75
183.042	33.45
183.262	-9.56
183.482	-25.94
183.701	55.98
183.921	-3.41
184.141	-44.37
184.361	144.04
184.58	82.6
184.8	160.42
185.02	-48.47
185.239	123.56
185.459	76.46
185.679	166.57
185.898	-46.42
186.118	51.88
186.338	80.55
186.557	64.17
186.777	-71
186.997	-19.8
187.216	58.03
187.436	174.76
187.655	86.7
187.875	113.32
188.095	111.27
188.314	129.7
188.534	168.62
188.753	-3.41
188.973	144.04
189.192	156.33
189.412	55.98
189.631	-1.37
189.851	84.65
190.07	146.09
190.29	-66.9
190.509	29.35
190.729	45.74
190.948	174.76
191.168	252.58
191.387	53.93
191.607	39.59
191.826	-11.61
192.045	58.03
192.265	-15.7
192.484	109.23
192.704	105.13
192.923	-85.33
193.142	131.75
193.362	66.22
193.581	156.33
193.8	101.03
194.02	66.22
194.239	82.6
194.458	15.02
194.678	-3.41
194.897	29.35
195.116	88.75
195.335	27.31
195.555	72.36
195.774	-64.85
195.993	164.52
196.212	58.03
196.432	-27.99
196.651	-60.76
196.87	72.36
197.089	316.07
197.308	105.13
197.528	12.97
197.747	-32.08
197.966	70.31
198.185	166.57
198.404	-71
198.623	141.99
198.842	121.51
199.062	148.14
199.281	55.98
199.5	-25.94
199.719	103.08
199.938	133.8
200.157	43.69
200.376	107.18
200.595	168.62
200.814	86.7
201.033	17.07
201.252	148.14
201.471	60.07
201.69	12.97
201.909	55.98
202.128	164.52
202.347	101.03
202.566	29.35
202.785	-62.8
203.004	51.88
203.223	250.53
203.442	-17.75
203.661	-79.19
203.879	107.18
204.098	168.62
204.317	-9.56
204.536	125.61
204.755	72.36
204.974	101.03
205.193	15.02
205.411	172.71
205.63	158.38
205.849	33.45
206.068	66.22
206.287	-64.85
206.505	141.99
206.724	35.5
206.943	6.83
207.162	-25.94
207.381	78.51
207.599	37.55
207.818	49.83
208.037	-32.08
208.255	146.09
208.474	51.88
208.693	133.8
208.911	-21.84
209.13	47.79
209.349	35.5
209.567	33.45
209.786	107.18
210.005	148.14
210.223	19.11
210.442	-32.08
210.661	55.98
210.879	113.32
211.098	-30.04
211.316	111.27
211.535	51.88
211.753	31.4
211.972	21.16
212.191	-3.41
212.409	29.35
212.628	45.74
212.846	17.07
213.065	70.31
213.283	37.55
213.502	78.51
213.72	92.84
213.938	70.31
214.157	10.92
214.375	45.74
214.594	58.03
214.812	39.59
215.031	-9.56
215.249	72.36
215.467	90.79
215.686	47.79
215.904	58.03
216.122	117.42
216.341	166.57
216.559	66.22
216.778	137.9
216.996	133.8
217.214	-11.61
217.432	0.68
217.651	-25.94
217.869	96.94
218.087	-1.37
218.306	-9.56
218.524	139.94
218.742	35.5
218.96	68.27
219.179	8.87
219.397	33.45
219.615	258.73
219.833	23.21
220.051	21.16
220.27	111.27
220.488	98.99
220.706	68.27
220.924	-7.51
221.142	72.36
221.36	23.21
221.578	64.17
221.796	62.12
222.015	90.79
222.233	49.83
222.451	234.15
222.669	-52.56
222.887	74.41
223.105	6.83
223.323	-7.51
223.541	-13.65
223.759	74.41
223.977	70.31
224.195	135.85
224.413	84.65
224.631	152.23
224.849	117.42
225.067	180.9
225.285	66.22
225.503	2.73
225.721	-114
225.939	84.65
226.157	15.02
226.375	271.01
226.592	6.83
226.81	-5.46
227.028	160.42
227.246	139.94
227.464	53.93
227.682	117.42
227.9	103.08
228.117	72.36
228.335	74.41
228.553	-1.37
228.771	51.88
228.989	19.11
229.206	29.35
229.424	53.93
229.642	35.5
229.86	-95.57
230.077	166.57
230.295	-11.61
230.513	166.57
230.731	58.03
230.948	150.18
231.166	191.14
231.384	-30.04
231.601	0.68
231.819	242.34
232.037	6.83
232.254	-17.75
232.472	66.22
232.689	-19.8
232.907	103.08
233.125	-40.28
233.342	17.07
233.56	35.5
233.777	31.4
233.995	-21.84
234.213	80.55
234.43	101.03
234.648	-1.37
234.865	43.69
235.083	21.16
235.3	31.4
235.518	123.56
235.735	119.46
235.953	80.55
236.17	72.36
236.388	80.55
236.605	80.55
236.822	98.99
237.04	107.18
237.257	76.46
237.475	62.12
237.692	55.98
237.909	189.1
238.127	8.87
238.344	35.5
238.562	139.94
238.779	-91.48
238.996	-21.84
239.214	-1.37
239.431	15.02
239.648	29.35
239.865	70.31
240.083	49.83
240.3	-11.61
240.517	-32.08
240.735	4.78
240.952	133.8
241.169	62.12
241.386	35.5
241.603	82.6
241.821	-85.33
242.038	111.27
242.255	152.23
242.472	-25.94
242.689	103.08
242.907	72.36
243.124	111.27
243.341	-44.37
243.558	21.16
243.775	-66.9
243.992	6.83
244.209	144.04
244.426	139.94
244.643	148.14
244.86	45.74
245.078	88.75
245.295	105.13
245.512	-17.75
245.729	10.92
245.946	64.17
246.163	-11.61
246.38	21.16
246.597	60.07
246.814	80.55
247.031	49.83
247.248	-3.41
247.464	33.45
247.681	35.5
247.898	53.93
248.115	43.69
248.332	-15.7
248.549	105.13
248.766	174.76
248.983	15.02
249.2	68.27
249.417	74.41
249.633	29.35
249.85	113.32
250.067	58.03
250.284	78.51
250.501	88.75
250.717	29.35
250.934	-3.41
251.151	-17.75
251.368	6.83
251.585	78.51
251.801	17.07
252.018	-32.08
252.235	170.66
252.451	-27.99
252.668	37.55
252.885	101.03
253.102	64.17
253.318	15.02
253.535	-15.7
253.752	-60.76
253.968	4.78
254.185	-25.94
254.401	94.89
254.618	96.94
254.835	58.03
255.051	121.51
255.268	58.03
255.484	152.23
255.701	92.84
255.917	123.56
256.134	33.45
256.351	-9.56
256.567	-36.18
256.784	78.51
257	-73.04
257.217	33.45
257.433	58.03
257.65	121.51
257.866	123.56
258.082	-58.71
258.299	-3.41
258.515	58.03
258.732	2.73
258.948	-34.13
259.165	58.03
259.381	2.73
259.597	68.27
259.814	31.4
260.03	39.59
260.246	4.78
260.463	144.04
260.679	115.37
260.895	31.4
261.112	12.97
261.328	31.4
261.544	23.21
261.761	185
261.977	51.88
262.193	-54.61
262.409	58.03
262.626	35.5
262.842	33.45
263.058	-19.8
263.274	123.56
263.49	12.97
263.707	168.62
263.923	111.27
264.139	-118.1
264.355	23.21
264.571	125.61
264.787	131.75
265.004	94.89
265.22	94.89
265.436	-36.18
265.652	78.51
265.868	47.79
266.084	-52.56
266.3	51.88
266.516	-19.8
266.732	17.07
266.948	12.97
267.164	19.11
267.38	94.89
267.596	125.61
267.812	195.24
268.028	39.59
268.244	88.75
268.46	66.22
268.676	72.36
268.892	84.65
269.108	-109.91
269.324	0.68
269.54	-34.13
269.756	25.26
269.972	-46.42
270.188	12.97
270.403	-11.61
270.619	74.41
270.835	84.65
271.051	76.46
271.267	6.83
271.483	-13.65
271.698	72.36
271.914	86.7
272.13	-42.32
272.346	49.83
272.562	94.89
272.777	80.55
272.993	21.16
273.209	-52.56
273.425	133.8
273.64	-42.32
273.856	156.33
274.072	-27.99
274.287	47.79
274.503	88.75
274.719	158.38
274.934	2.73
275.15	-101.72
275.366	-15.7
275.581	-23.89
275.797	12.97
276.012	10.92
276.228	-34.13
276.444	80.55
276.659	58.03
276.875	-27.99
277.09	84.65
277.306	47.79
277.521	70.31
277.737	39.59
277.952	51.88
278.168	64.17
278.383	2.73
278.599	0.68
278.814	45.74
279.03	90.79
279.245	162.47
279.461	21.16
279.676	103.08
279.892	-1.37
280.107	80.55
280.322	-1.37
280.538	119.46
280.753	-11.61
280.969	55.98
281.184	74.41
281.399	172.71
281.615	64.17
281.83	29.35
282.045	-7.51
282.26	-68.95
282.476	37.55
282.691	53.93
282.906	64.17
283.122	23.21
283.337	31.4
283.552	131.75
283.767	41.64
283.983	90.79
284.198	60.07
284.413	168.62
284.628	-34.13
284.843	31.4
285.058	58.03
285.274	47.79
285.489	10.92
285.704	133.8
285.919	17.07
286.134	41.64
286.349	45.74
286.564	-1.37
286.779	182.95
286.995	19.11
287.21	-60.76
287.425	70.31
287.64	37.55
287.855	72.36
288.07	-54.61
288.285	127.66
288.5	27.31
288.715	150.18
288.93	101.03
289.145	39.59
289.36	49.83
289.575	90.79
289.79	127.66
290.004	41.64
290.219	70.31
290.434	-44.37
290.649	-19.8
290.864	-52.56
291.079	-1.37
291.294	-3.41
291.509	25.26
291.724	-48.47
291.938	-5.46
292.153	45.74
292.368	55.98
292.583	121.51
292.798	172.71
293.012	105.13
293.227	84.65
293.442	-15.7
293.657	60.07
293.871	109.23
294.086	127.66
294.301	195.24
294.516	160.42
294.73	90.79
294.945	-44.37
295.16	82.6
295.374	125.61
295.589	103.08
295.804	-73.04
296.018	-40.28
296.233	119.46
296.447	64.17
296.662	-38.23
296.877	123.56
297.091	66.22
297.306	62.12
297.52	41.64
297.735	107.18
297.949	123.56
298.164	33.45
298.378	113.32
298.593	-50.52
298.807	-66.9
299.022	82.6
299.236	176.81
299.451	-7.51
299.665	-36.18
299.88	60.07
300.094	60.07
300.309	47.79
300.523	47.79
300.737	47.79
300.952	27.31
301.166	129.7
301.381	6.83
301.595	6.83
301.809	55.98
302.024	23.21
302.238	-34.13
302.452	113.32
302.667	66.22
302.881	37.55
303.095	121.51
303.309	86.7
303.524	43.69
303.738	47.79
303.952	90.79
304.166	84.65
304.381	-44.37
304.595	174.76
304.809	90.79
305.023	-34.13
305.237	55.98
305.452	115.37
305.666	150.18
305.88	76.46
306.094	131.75
306.308	135.85
306.522	58.03
306.736	72.36
306.95	135.85
307.164	55.98
307.379	25.26
307.593	144.04
307.807	205.48
308.021	41.64
308.235	82.6
308.449	-13.65
308.663	105.13
308.877	258.73
309.091	74.41
309.305	33.45
309.519	-85.33
309.733	154.28
309.947	-89.43
310.161	64.17
310.374	111.27
310.588	152.23
310.802	-75.09
311.016	-15.7
311.23	10.92
311.444	8.87
311.658	25.26
311.872	66.22
312.085	146.09
312.299	127.66
312.513	129.7
312.727	105.13
312.941	-21.84
313.154	19.11
313.368	29.35
313.582	109.23
313.796	58.03
314.009	33.45
314.223	141.99
314.437	-19.8
314.651	156.33
314.864	-32.08
315.078	4.78
315.292	-42.32
315.505	-42.32
315.719	33.45
315.933	8.87
316.146	21.16
316.36	-11.61
316.573	146.09
316.787	109.23
317.001	-13.65
317.214	33.45
317.428	49.83
317.641	-60.76
317.855	-23.89
318.068	92.84
318.282	51.88
318.495	228.01
318.709	72.36
318.922	53.93
319.136	137.9
319.349	27.31
319.563	80.55
319.776	25.26
319.99	-1.37
320.203	47.79
320.417	37.55
320.63	101.03
320.843	172.71
321.057	94.89
321.27	68.27
321.483	58.03
321.697	125.61
321.91	51.88
322.124	111.27
322.337	94.89
322.55	15.02
322.763	82.6
322.977	70.31
323.19	-27.99
323.403	107.18
323.617	123.56
323.83	176.81
324.043	53.93
324.256	43.69
324.469	-85.33
324.683	47.79
324.896	111.27
325.109	25.26
325.322	-38.23
325.535	135.85
325.748	113.32
325.962	-7.51
326.175	33.45
326.388	47.79
326.601	117.42
326.814	86.7
327.027	103.08
327.24	182.95
327.453	-56.66
327.666	68.27
327.879	146.09
328.092	-1.37
328.305	70.31
328.518	158.38
328.731	-60.76
328.944	-30.04
329.157	35.5
329.37	15.02
329.583	152.23
329.796	113.32
330.009	-48.47
330.222	74.41
330.435	31.4
330.648	2.73
330.861	154.28
331.073	31.4
331.286	51.88
331.499	29.35
331.712	-73.04
331.925	17.07
332.138	23.21
332.35	101.03
332.563	10.92
332.776	195.24
332.989	-48.47
333.202	15.02
333.414	86.7
333.627	-81.24
333.84	33.45
334.053	103.08
334.265	8.87
334.478	25.26
334.691	10.92
334.903	29.35
335.116	-38.23
335.329	19.11
335.541	62.12
335.754	162.47
335.966	21.16
336.179	-7.51
336.392	27.31
336.604	74.41
336.817	78.51
337.029	121.51
337.242	98.99
337.454	94.89
337.667	17.07
337.88	135.85
338.092	21.16
338.305	12.97
338.517	-19.8
338.729	103.08
338.942	133.8
339.154	-25.94
339.367	29.35
339.579	70.31
339.792	-17.75
340.004	90.79
340.217	0.68
340.429	111.27
340.641	0.68
340.854	35.5
341.066	78.51
341.278	60.07
341.491	152.23
341.703	41.64
341.915	39.59
342.128	150.18
342.34	60.07
342.552	33.45
342.764	-19.8
342.977	-81.24
343.189	141.99
343.401	12.97
343.613	-27.99
343.826	70.31
344.038	-85.33
344.25	60.07
344.462	51.88
344.674	119.46
344.886	21.16
345.099	96.94
345.311	76.46
345.523	10.92
345.735	-3.41
345.947	60.07
346.159	105.13
346.371	76.46
346.583	-64.85
346.795	131.75
347.007	31.4
347.219	103.08
347.431	2.73
347.643	123.56
347.855	27.31
348.067	80.55
348.279	41.64
348.491	35.5
348.703	107.18
348.915	-27.99
349.127	39.59
349.339	78.51
349.551	-44.37
349.763	55.98
349.975	64.17
350.187	68.27
350.399	185
350.61	98.99
350.822	80.55
351.034	78.51
351.246	-7.51
351.458	74.41
351.669	98.99
351.881	82.6
352.093	113.32
352.305	135.85
352.517	55.98
352.728	197.29
352.94	43.69
353.152	53.93
353.363	0.68
353.575	6.83
353.787	115.37
353.999	107.18
354.21	223.91
354.422	-9.56
354.633	-17.75
354.845	66.22
355.057	74.41
355.268	19.11
355.48	160.42
355.692	-52.56
355.903	70.31
356.115	29.35
356.326	-120.15
356.538	125.61
356.749	103.08
356.961	84.65
357.172	10.92
357.384	41.64
357.595	221.86
357.807	-11.61
358.018	-23.89
358.23	82.6
358.441	160.42
358.653	64.17
358.864	12.97
359.075	-83.28
359.287	66.22
359.498	121.51
359.709	92.84
359.921	84.65
360.132	82.6
360.344	53.93
360.555	90.79
360.766	101.03
360.977	-5.46
361.189	193.19
361.4	119.46
361.611	86.7
361.823	86.7
362.034	150.18
362.245	-140.63
362.456	-40.28
362.667	76.46
362.879	-34.13
363.09	39.59
363.301	23.21
363.512	35.5
363.723	60.07
363.935	8.87
364.146	72.36
364.357	35.5
364.568	92.84
364.779	-48.47
364.99	176.81
365.201	29.35
365.412	154.28
365.623	-75.09
365.834	119.46
366.045	33.45
366.256	74.41
366.467	70.31
366.678	51.88
366.889	-7.51
367.1	-25.94
367.311	160.42
367.522	25.26
367.733	68.27
367.944	90.79
368.155	68.27
368.366	148.14
368.577	152.23
368.788	156.33
368.999	-5.46
369.209	82.6
369.42	244.39
369.631	213.67
369.842	133.8
370.053	-9.56
370.264	117.42
370.474	-46.42
370.685	158.38
370.896	-23.89
371.107	160.42
371.317	19.11
371.528	53.93
371.739	156.33
371.95	86.7
372.16	68.27
372.371	21.16
372.582	72.36
372.792	43.69
373.003	66.22
373.214	60.07
373.424	80.55
373.635	23.21
373.846	101.03
374.056	135.85
374.267	29.35
374.477	49.83
374.688	6.83
374.898	160.42
375.109	-11.61
375.319	103.08
375.53	164.52
375.74	127.66
375.951	2.73
376.161	123.56
376.372	185
376.582	-5.46
376.793	45.74
377.003	-19.8
377.214	41.64
377.424	47.79
377.635	29.35
377.845	-30.04
378.055	160.42
378.266	-38.23
378.476	4.78
378.686	133.8
378.897	101.03
379.107	111.27
379.317	60.07
379.528	117.42
379.738	135.85
379.948	-103.76
380.158	152.23
380.369	51.88
380.579	88.75
380.789	68.27
380.999	170.66
381.21	33.45
381.42	180.9
381.63	113.32
381.84	121.51
382.05	43.69
382.261	133.8
382.471	178.86
382.681	-38.23
382.891	199.34
383.101	78.51
383.311	-19.8
383.521	0.68
383.731	96.94
383.941	123.56
384.151	98.99
384.361	-7.51
384.571	66.22
384.781	31.4
384.991	111.27
385.201	205.48
385.411	72.36
385.621	43.69
385.831	68.27
386.041	2.73
386.251	-17.75
386.461	117.42
386.671	37.55
386.881	101.03
387.091	8.87
387.301	78.51
387.511	49.83
387.72	84.65
387.93	107.18
388.14	-89.43
388.35	111.27
388.56	154.28
388.769	123.56
388.979	115.37
389.189	29.35
389.399	41.64
389.609	131.75
389.818	23.21
390.028	10.92
390.238	74.41
390.447	-44.37
390.657	162.47
390.867	86.7
391.076	-11.61
391.286	47.79
391.496	19.11
391.705	146.09
391.915	160.42
392.125	105.13
392.334	25.26
392.544	144.04
392.753	78.51
392.963	-93.52
393.172	39.59
393.382	17.07
393.591	158.38
393.801	53.93
394.01	174.76
394.22	88.75
394.429	72.36
394.639	74.41
394.848	98.99
395.058	25.26
395.267	25.26
395.477	162.47
395.686	80.55
395.895	199.34
396.105	213.67
396.314	123.56
396.524	39.59
396.733	49.83
396.942	103.08
397.152	105.13
397.361	74.41
397.57	4.78
397.78	78.51
397.989	141.99
398.198	129.7
398.407	39.59
398.617	64.17
398.826	41.64
399.035	60.07
399.244	80.55
399.453	12.97
399.663	70.31
399.872	72.36
400.081	-36.18
400.29	127.66
400.499	31.4
400.708	78.51
400.917	-1.37
401.127	101.03
401.336	4.78
401.545	197.29
401.754	78.51
401.963	96.94
402.172	-62.8
402.381	-60.76
402.59	2.73
402.799	-7.51
403.008	88.75
403.217	139.94
403.426	53.93
403.635	-101.72
403.844	-44.37
404.053	27.31
404.262	23.21
404.471	164.52
404.68	107.18
404.888	90.79
405.097	53.93
405.306	39.59
405.515	109.23
405.724	72.36
405.933	193.19
406.142	94.89
406.35	131.75
406.559	53.93
406.768	37.55
406.977	133.8
407.185	107.18
407.394	10.92
407.603	-9.56
407.812	146.09
408.02	156.33
408.229	43.69
408.438	72.36
408.646	12.97
408.855	82.6
409.064	168.62
409.272	55.98
409.481	135.85
409.69	29.35
409.898	27.31
410.107	74.41
410.315	105.13
410.524	27.31
410.733	98.99
410.941	-19.8
411.15	82.6
411.358	115.37
411.567	221.86
411.775	127.66
411.984	94.89
412.192	113.32
412.401	0.68
412.609	127.66
412.818	144.04
413.026	94.89
413.234	90.79
413.443	23.21
413.651	-52.56
413.86	53.93
414.068	160.42
414.276	203.43
414.485	35.5
414.693	133.8
414.901	223.91
415.11	131.75
415.318	94.89
415.526	45.74
415.734	139.94
415.943	123.56
416.151	152.23
416.359	72.36
416.567	27.31
416.776	182.95
416.984	107.18
417.192	195.24
417.4	43.69
417.608	12.97
417.817	29.35
418.025	105.13
418.233	174.76
418.441	84.65
418.649	17.07
418.857	47.79
419.065	107.18
419.273	15.02
419.481	66.22
419.689	35.5
419.897	-1.37
420.105	-56.66
420.313	53.93
420.521	119.46
420.729	168.62
420.937	70.31
421.145	-32.08
421.353	125.61
421.561	174.76
421.769	96.94
421.977	31.4
422.185	55.98
422.393	31.4
422.601	115.37
422.809	55.98
423.017	115.37
423.224	88.75
423.432	139.94
423.64	94.89
423.848	160.42
424.056	68.27
424.263	133.8
424.471	68.27
424.679	123.56
424.887	-27.99
425.094	156.33
425.302	170.66
425.51	45.74
425.718	103.08
425.925	119.46
426.133	72.36
426.341	195.24
426.548	53.93
426.756	88.75
426.964	109.23
427.171	37.55
427.379	152.23
427.586	121.51
427.794	64.17
428.001	70.31
428.209	158.38
428.417	191.14
428.624	182.95
428.832	70.31
429.039	217.77
429.247	78.51
429.454	164.52
429.662	250.53
429.869	221.86
430.076	170.66
430.284	240.3
430.491	180.9
430.699	223.91
430.906	197.29
431.114	139.94
431.321	262.82
431.528	191.14
431.736	111.27
431.943	189.1
432.15	209.58
432.358	211.62
432.565	240.3
432.772	107.18
432.979	283.3
433.187	146.09
433.394	273.06
433.601	172.71
433.808	357.03
434.016	260.77
434.223	228.01
434.43	275.11
434.637	287.4
434.844	305.83
435.052	258.73
435.259	291.49
435.466	436.9
435.673	271.01
435.88	299.69
436.087	404.13
436.294	365.22
436.501	320.17
436.708	213.67
436.915	363.17
437.122	451.24
437.329	363.17
437.537	383.65
437.743	402.08
437.95	531.11
438.157	397.99
438.364	512.67
438.571	484
438.778	527.01
438.985	533.15
439.192	543.39
439.399	563.87
439.606	559.78
439.813	578.21
440.02	678.56
440.227	662.18
440.433	676.51
440.64	701.09
440.847	541.35
441.054	778.91
441.261	856.73
441.467	711.33
441.674	795.29
441.881	852.64
442.088	801.44
442.294	950.94
442.501	866.97
442.708	996
442.914	993.95
443.121	1026.71
443.328	1006.24
443.534	1122.97
443.741	1030.81
443.948	1004.19
444.154	1180.31
444.361	1417.88
444.568	1276.57
444.774	1333.91
444.981	1168.02
445.187	1469.08
445.394	1383.06
445.6	1417.88
445.807	1538.71
446.013	1563.28
446.22	1587.86
446.426	1751.7
446.633	1913.49
446.839	1915.53
447.046	1655.44
447.252	2022.03
447.459	1876.62
447.665	1966.73
447.871	2165.39
448.078	2343.56
448.284	2273.93
448.491	2433.67
448.697	2505.35
448.903	2644.61
449.11	2634.37
449.316	2689.67
449.522	2937.47
449.728	3033.72
449.935	3158.65
450.141	2982.53
450.347	3318.39
450.553	3302.01
450.76	3381.88
450.966	3601.01
451.172	3627.64
451.378	3857.01
451.584	4067.95
451.791	4239.98
451.997	4227.69
452.203	4254.31
452.409	4575.84
452.615	4788.83
452.821	4668
453.027	4741.73
453.233	5259.87
453.44	5044.83
453.646	5388.89
453.852	5612.12
454.058	5933.65
454.264	6029.9
454.47	6320.71
454.676	6455.88
454.882	7000.64
455.088	6752.84
455.294	6992.45
455.5	7526.97
455.705	8008.24
455.911	7932.47
456.117	8159.79
456.323	8370.73
456.529	8489.51
456.735	9396.76
456.941	9513.5
457.147	9921.04
457.352	10191.38
457.558	10367.5
457.764	11026.95
457.97	11448.83
458.176	11803.13
458.381	12122.61
458.587	12538.35
458.793	13265.38
458.999	13273.57
459.204	14944.71
459.41	15520.19
459.616	14936.52
459.821	16023.99
460.027	16775.59
460.233	17426.85
460.438	17441.18
460.644	18647.44
460.85	18516.37
461.055	19706.24
461.261	20590.96
461.466	20212.09
461.672	20345.2
461.878	22864.21
462.083	22466.9
462.289	22987.08
462.494	24369.46
462.7	24090.94
462.905	24369.46
463.111	26716.43
463.316	27724.04
463.522	28393.72
463.727	29311.21
463.932	30355.68
464.138	31258.83
464.343	32577.72
464.549	32858.29
464.754	34965.65
464.959	35477.65
465.165	36796.54
465.37	35944.58
465.575	36561.02
465.781	38637.66
465.986	39786.57
466.191	39329.87
466.397	39565.39
466.602	38772.83
466.807	40720.45
467.012	41054.26
467.218	42043.43
467.423	42123.3
467.628	43667.47
467.833	45778.93
468.038	44851.2
468.244	44384.26
468.449	46133.23
468.654	45332.47
468.859	44941.31
469.064	45287.42
469.269	44308.49
469.474	44337.16
469.679	45553.65
469.885	44857.34
470.09	45707.25
470.295	45498.36
470.5	44466.18
470.705	44752.9
470.91	43833.36
471.115	42960.92
471.32	43794.45
471.525	43745.3
471.73	42311.72
471.935	42111.02
472.139	40345.67
472.344	40761.4
472.549	40159.3
472.754	39438.42
472.959	38838.36
473.164	37517.42
473.369	37021.81
473.574	37904.49
473.778	36956.28
473.983	36546.68
474.188	36071.56
474.393	34197.66
474.598	34386.08
474.802	32960.69
475.007	32743.61
475.212	32581.82
475.417	31097.04
475.621	31273.17
475.826	30517.46
476.031	29921.51
476.235	29202.67
476.44	29204.72
476.645	28684.53
476.849	28305.66
477.054	28211.45
477.259	26943.76
477.463	26960.14
477.668	26163.48
477.872	26573.08
478.077	25669.92
478.282	25008.43
478.486	24795.44
478.691	24523.06
478.895	24420.66
479.1	24256.82
479.304	24011.07
479.509	23382.34
479.713	23513.41
479.918	22847.82
480.122	22600.02
480.326	22765.9
480.531	22716.75
480.735	22669.65
480.94	21979.48
481.144	22567.25
481.348	21416.29
481.553	21651.81
481.757	21449.06
481.961	21191.02
482.166	21363.04
482.37	20879.72
482.574	20775.28
482.778	20552.05
482.983	20640.11
483.187	20390.26
483.391	20148.6
483.595	20115.83
483.8	19585.41
484.004	20064.63
484.208	19732.86
484.412	19505.54
484.616	19112.33
484.821	19138.95
485.025	18622.86
485.229	18788.75
485.433	18438.55
485.637	18215.32
485.841	17650.08
486.045	17748.38
486.249	17408.42
486.453	16923.05
486.657	17205.67
486.861	16710.06
487.065	16200.12
487.269	16277.94
487.473	15880.63
487.677	15958.46
487.881	15739.32
488.085	15251.91
488.289	15202.75
488.493	14715.34
488.697	14750.15
488.901	14387.66
489.105	13910.49
489.309	13920.73
489.512	13816.28
489.716	13267.42
489.92	13152.74
490.124	12978.66
490.328	12802.54
490.531	12515.82
490.735	12628.46
490.939	12259.82
491.143	11774.45
491.346	11772.41
491.55	11524.6
491.754	11221.5
491.958	11059.71
492.161	10998.27
492.365	10856.97
492.569	10605.06
492.772	10193.42
492.976	10371.6
493.18	10113.55
493.383	10170.9
493.587	10002.96
493.79	9976.34
493.994	9619.99
494.197	9472.54
494.401	9568.79
494.605	9572.89
494.808	9521.69
495.012	9277.98
495.215	9316.89
495.419	9431.58
495.622	9058.85
495.825	9101.86
496.029	9153.06
496.232	9073.18
496.436	8968.74
496.639	9155.1
496.843	8819.24
497.046	9062.94
497.249	8960.55
497.453	8950.31
497.656	8972.83
497.859	8909.35
498.063	9058.85
498.266	9064.99
498.469	8983.07
498.673	9148.96
498.876	9140.77
499.079	9216.54
499.282	9085.47
499.485	9366.04
499.689	9378.33
499.892	9536.03
500.095	9247.26
500.298	9695.77
500.501	9509.4
500.705	9601.56
500.908	9789.97
501.111	9970.19
501.314	10109.46
501.517	9945.62
501.72	10109.46
501.923	10144.27
502.126	10209.81
502.329	10437.13
502.532	10590.73
502.735	10621.45
502.938	10879.49
503.141	10912.26
503.344	11010.56
503.547	11274.75
503.75	11235.84
503.953	11313.66
504.156	11629.05
504.359	11721.21
504.562	11663.86
504.765	12122.61
504.968	12562.92
505.17	12399.09
505.373	12640.75
505.576	12986.85
505.779	13126.11
505.982	13072.87
506.185	13459.93
506.387	13885.91
506.59	13996.5
506.793	14416.33
506.996	14250.45
507.198	14793.16
507.401	15086.02
507.604	15276.48
507.807	15630.78
508.009	15694.27
508.212	16159.16
508.415	16380.34
508.617	16998.82
508.82	16884.14
509.022	17166.76
509.225	17871.26
509.428	18157.97
509.63	18592.14
509.833	18803.08
510.035	19726.72
510.238	19726.72
510.44	20476.27
510.643	20810.09
510.845	21113.19
511.048	21266.79
511.25	21805.41
511.453	22321.49
511.655	23435.59
511.858	23755.07
512.06	24009.02
512.262	24510.77
512.465	25127.21
512.667	25659.68
512.87	26102.04
513.072	26849.55
513.274	27539.72
513.477	27625.73
513.679	28768.5
513.881	29331.69
514.084	29855.97
514.286	30267.61
514.488	30503.13
514.69	31799.49
514.893	32342.21
515.095	32825.53
515.297	33734.82
515.499	34052.26
515.701	35033.24
515.904	35707.02
516.106	36737.15
516.308	37292.15
516.51	38074.47
516.712	38176.87
516.914	39563.34
517.116	40292.42
517.318	40521.79
517.52	41658.42
517.722	42313.76
517.925	42653.73
518.127	44021.77
518.329	44472.32
518.531	45293.56
518.733	46077.93
518.935	46809.06
519.136	47583.19
519.338	48316.36
519.54	48859.07
519.742	49510.33
519.944	49768.37
520.146	51304.35
520.348	51595.16
520.55	52227.98
520.752	52281.23
520.954	54007.67
521.155	53798.77
521.357	54564.71
521.559	55326.56
521.761	56088.4
521.963	56067.92
522.164	56751.94
522.366	56932.17
522.568	57939.77
522.77	57495.36
522.971	58765.1
523.173	58197.81
523.375	59447.07
523.576	59023.14
523.778	59561.76
523.98	59682.59
524.181	60114.71
524.383	60294.93
524.584	60722.96
524.786	60520.21
524.988	60372.75
525.189	60937.99
525.391	61308.68
525.592	61161.22
525.794	60897.03
525.995	61112.07
526.197	60606.22
526.398	60684.04
526.6	60589.84
526.801	60997.38
527.003	61089.54
527.204	60135.19
527.406	60491.54
527.607	59739.93
527.808	59954.97
528.01	59021.09
528.211	58992.42
528.412	59178.79
528.614	58306.35
528.815	58588.97
529.016	58748.71
529.218	57399.1
529.419	56956.74
529.62	56575.82
529.822	55940.95
530.023	55658.33
530.224	55357.28
530.425	54456.17
530.626	53878.64
530.828	53223.29
531.029	53989.23
531.23	52424.59
531.431	51992.47
531.632	51529.62
531.833	51324.83
532.035	50169.77
532.236	49903.54
532.437	49686.45
532.638	48496.58
532.839	48216.01
533.04	48007.12
533.241	46553.06
533.442	47208.41
533.643	45631.47
533.844	45066.24
534.045	44820.48
534.246	43319.32
534.447	43857.93
534.648	42903.58
534.849	42725.41
535.05	41740.33
535.251	41101.37
535.451	40317
535.652	40392.77
535.853	39336.02
536.054	39188.56
536.255	38692.96
536.456	37767.27
536.657	37693.55
536.857	36739.19
537.058	36495.49
537.259	36122.76
537.46	35686.54
537.66	35168.4
537.861	34840.73
538.062	33974.44
538.263	34226.34
538.463	33185.97
538.664	32766.13
538.865	32495.8
539.065	32319.68
539.266	31510.73
539.466	31785.16
539.667	30750.93
539.868	30603.48
540.068	30361.82
540.269	29933.79
540.469	29245.68
540.67	29503.72
540.87	28874.99
541.071	28147.97
541.271	28109.05
541.472	28061.95
541.672	27269.39
541.873	27261.19
542.073	26693.91
542.274	26667.28
542.474	26143
542.675	26075.42
542.875	25991.45
543.075	25514.28
543.276	24863.02
543.476	24996.14
543.676	24435
543.877	24402.23
544.077	23976.25
544.277	23759.17
544.478	23613.76
544.678	23429.45
544.878	22911.31
545.078	22907.21
545.279	22473.04
545.479	22382.93
545.679	22122.84
545.879	21690.72
546.079	21578.08
546.28	21399.91
546.48	20967.79
546.68	20724.08
546.88	20619.63
547.08	20343.16
547.28	20236.66
547.48	19300.74
547.68	19741.05
547.88	19194.25
548.081	18966.92
548.281	18942.35
548.481	18690.45
548.681	18379.15
548.881	18018.71
549.081	17940.89
549.28	17510.82
549.48	17279.4
549.68	17150.37
549.88	17146.28
550.08	16460.21
550.28	16515.5
550.48	16353.71
550.68	16187.83
550.88	15897.02
551.08	15585.72
551.279	15264.19
551.479	14889.42
551.679	14952.9
551.879	14758.35
552.079	14528.97
552.278	14299.6
552.478	14131.67
552.678	14037.46
552.878	13691.35
553.077	13683.16
553.277	13214.18
553.477	13238.75
553.676	12988.9
553.876	12878.31
554.076	12501.48
554.275	12331.5
554.475	11950.58
554.674	11983.35
554.874	11821.56
555.074	11289.09
555.273	11416.06
555.473	11225.6
555.672	10899.97
555.872	10891.78
556.071	10832.39
556.271	10562.06
556.47	10326.54
556.67	10131.98
556.869	10213.9
557.068	10000.91
557.268	9619.99
557.467	9488.92
557.667	9456.15
557.866	9284.12
558.065	9212.45
558.265	9165.34
558.464	8669.73
558.663	8741.41
558.863	8487.47
559.062	8358.44
559.261	8213.04
559.461	8200.75
559.66	7754.29
559.859	7907.89
560.058	7643.7
560.258	7590.45
560.457	7486.01
560.656	7539.26
560.855	7023.17
561.054	7158.33
561.253	6910.53
561.453	6967.87
561.652	6885.95
561.851	6871.62
562.05	6449.74
562.249	6529.61
562.448	6660.68
562.647	6271.56
562.846	6113.87
563.045	6109.77
563.244	6034
563.443	6144.59
563.642	5620.31
563.841	5831.25
564.04	5718.61
564.239	5741.14
564.438	5577.3
564.637	5335.64
564.836	5464.66
565.035	5261.91
565.234	5411.42
565.432	5132.89
565.631	5057.12
565.83	4950.62
566.029	4866.66
566.228	4792.93
566.427	4893.28
566.625	4418.15
566.824	4739.68
567.023	4598.37
567.222	4543.08
567.42	4498.02
567.619	4508.26
567.818	4399.72
568.016	4448.87
568.215	4309.61
568.414	4248.17
568.612	4227.69
568.811	4207.21
569.01	4168.3
569.208	3947.12
569.407	3924.59
569.605	3838.58
569.804	3818.1
570.002	3687.03
570.201	3533.43
570.4	3656.31
570.598	3547.76
570.797	3400.31
570.995	3351.16
571.193	3383.93
571.392	3428.98
571.59	3158.65
571.789	3357.3
571.987	3279.48
572.186	3285.62
572.384	3246.71
572.582	3115.64
572.781	2986.62
572.979	2839.17
573.177	2790.02
573.376	2837.12
573.574	2851.46
573.772	2826.88
573.971	2646.66
574.169	2544.26
574.367	2699.91
574.565	2742.91
574.763	2613.89
574.962	2501.25
575.16	2572.93
575.358	2476.68
575.556	2509.44
575.754	2339.46
575.952	2345.61
576.151	2210.44
576.349	2445.96
576.547	2128.52
576.745	2179.72
576.943	2263.69
577.141	2042.51
577.339	2050.7
577.537	2001.55
577.735	2196.11
577.933	2011.79
578.131	1917.58
578.329	2130.57
578.527	1860.24
578.725	1878.67
578.923	1850
579.121	1825.42
579.319	1632.91
579.516	1835.66
579.714	1989.26
579.912	1718.93
580.11	1659.54
580.308	1643.15
580.506	1602.19
580.704	1598.1
580.901	1538.71
581.099	1686.16
581.297	1618.58
581.495	1475.22
581.692	1458.84
581.89	1694.35
582.088	1501.84
582.285	1378.97
582.483	1421.97
582.681	1434.26
582.878	1460.88
583.076	1391.25
583.274	1317.53
583.471	1434.26
583.669	1374.87
583.866	1254.04
584.064	1254.04
584.262	1188.5
584.459	1188.5
584.657	1202.84
584.854	1307.29
585.052	1192.6
585.249	1247.9
585.447	1071.77
585.644	1024.67
585.841	1278.62
586.039	1190.55
586.236	1108.63
586.434	1118.87
586.631	987.8
586.828	1036.95
587.026	989.85
587.223	1051.29
587.42	916.12
587.618	975.52
587.815	1061.53
588.012	1039
588.21	926.36
588.407	977.56
588.604	981.66
588.801	924.32
588.999	869.02
589.196	963.23
589.393	848.54
589.59	1010.33
589.787	860.83
589.984	918.17
590.182	883.36
590.379	797.34
590.576	854.69
590.773	869.02
590.97	811.68
591.167	858.78
591.364	817.82
591.561	840.35
591.758	918.17
591.955	817.82
592.152	856.73
592.349	791.2
592.546	828.06
592.743	803.49
592.94	864.93
593.137	932.51
593.334	873.12
593.531	877.21
593.727	836.25
593.924	866.97
594.121	819.87
594.318	916.12
594.515	877.21
594.712	905.88
594.908	942.75
595.105	725.66
595.302	903.84
595.499	942.75
595.696	996
595.892	866.97
596.089	987.8
596.286	926.36
596.482	1020.57
596.679	991.9
596.876	1079.96
597.072	1178.26
597.269	1069.72
597.466	1032.86
597.662	1069.72
597.859	1084.06
598.055	1180.31
598.252	1188.5
598.448	1243.8
598.645	1335.96
598.841	1340.05
599.038	1409.69
599.234	1573.52
599.431	1464.98
599.627	1602.19
599.824	1493.65
600.02	1538.71
600.217	1671.83
600.413	1792.66
600.609	1843.85
600.806	2097.8
601.002	1952.4
601.198	2038.41
601.395	2097.8
601.591	2216.58
601.787	2321.03
601.984	2335.37
602.18	2419.33
602.376	2527.88
602.572	2648.71
602.769	2812.54
602.965	2710.15
603.161	2935.42
603.357	3054.2
603.553	3224.19
603.75	3183.23
603.946	3177.08
604.142	3365.5
604.338	3680.88
604.534	3670.64
604.73	3746.42
604.926	3875.44
605.122	4117.1
605.318	4051.56
605.514	4373.1
605.71	4434.53
605.906	4545.13
606.102	4414.06
606.298	4794.98
606.494	5055.07
606.69	5218.91
606.886	5313.11
607.082	5325.4
607.278	5481.05
607.474	5632.6
607.67	5784.15
607.866	5898.83
608.062	6183.5
608.257	6439.5
608.453	6398.54
608.649	6566.47
608.845	6787.65
609.041	6967.87
609.236	7303.74
609.432	7434.81
609.628	7811.64
609.824	7797.3
610.019	7963.19
610.215	8088.11
610.411	8411.69
610.606	8729.13
610.802	8770.08
610.998	9171.49
611.193	9538.07
611.389	9681.43
611.584	9839.12
611.78	9871.89
611.976	10326.54
612.171	10750.47
612.367	11110.91
612.562	11246.08
612.758	11473.4
612.953	11444.73
613.149	11969.01
613.344	12487.15
613.539	12538.35
613.735	13023.72
613.93	13427.17
614.126	13525.47
614.321	14199.25
614.517	14629.32
614.712	14782.92
614.907	15000.01
615.103	15641.02
615.298	15694.27
615.493	16660.91
615.688	16640.43
615.884	17676.7
616.079	17504.67
616.274	18264.47
616.47	18760.08
616.665	19353.99
616.86	19609.98
617.055	19763.58
617.25	20498.8
617.445	21231.97
617.641	21184.87
617.836	22139.22
618.031	22270.29
618.226	23456.07
618.421	23654.72
618.616	24064.32
618.811	24269.11
619.006	25471.27
619.201	25573.67
619.396	26355.99
619.591	26474.77
619.786	27840.77
619.981	27715.84
620.176	28723.44
620.371	28969.2
620.566	29688.04
620.761	30226.65
620.956	31185.1
621.151	31144.14
621.346	32090.31
621.541	32313.53
621.735	33874.09
621.93	33829.03
622.125	34607.26
622.32	34836.63
622.515	35805.32
622.709	36198.53
622.904	37036.15
623.099	37345.39
623.294	38643.81
623.488	38520.93
623.683	39884.87
623.878	40108.1
624.072	40968.25
624.267	41605.17
624.462	41758.77
624.656	42260.52
624.851	43196.44
625.046	43972.62
625.24	44402.69
625.435	44697.6
625.629	45840.37
625.824	46153.71
626.018	46768.1
626.213	46428.13
626.407	47781.84
626.602	47423.45
626.796	48633.8
626.991	49491.9
627.185	49551.29
627.38	49573.81
627.574	50153.39
627.768	50132.91
627.963	50542.5
628.157	49794.99
628.352	51074.98
628.546	50130.86
628.74	50919.33
628.935	50481.06
629.129	50837.41
629.323	49991.6
629.517	50266.03
629.712	49840.05
629.906	49737.65
630.1	49096.64
630.294	48828.35
630.489	47896.53
630.683	47749.07
630.877	46757.86
631.071	46161.9
631.265	45135.87
631.459	44486.66
631.653	43345.94
631.848	42575.9
632.042	41734.19
632.236	41408.56
632.43	39610.45
632.624	38844.51
632.818	37542
633.012	36126.85
633.206	35332.24
633.4	34224.29
633.594	32833.72
633.788	32217.28
633.982	31185.1
634.176	30034.14
634.369	28496.12
634.563	27859.2
634.757	26386.71
634.951	25610.53
635.145	24946.99
635.339	23761.22
635.533	22876.49
635.726	21789.02
635.92	20932.97
636.114	20109.69
636.308	19261.83
636.501	18913.67
636.695	17955.22
636.889	16843.18
637.083	16486.83
637.276	15690.17
637.47	14870.98
637.664	14481.87
637.857	13869.53
638.051	13263.33
638.244	12800.49
638.438	12186.1
638.632	11874.81
638.825	11174.4
639.019	10988.03
639.212	10420.75
639.406	10070.55
639.599	9751.06
639.793	9364
639.986	8671.78
640.18	8614.44
640.373	8264.24
640.567	7871.03
640.76	7803.44
640.954	7277.12
641.147	7037.5
641.34	6795.84
641.534	6545.99
641.727	6210.12
641.92	6140.49
642.114	5870.16
642.307	5522.01
642.5	5542.49
642.694	5014.11
642.887	4944.48
643.08	4883.04
643.273	4639.33
643.467	4385.38
643.66	4242.03
643.853	4153.96
644.046	3922.54
644.239	3873.39
644.432	3601.01
644.626	3422.84
644.819	3365.5
645.012	3189.37
645.205	3168.89
645.398	3265.14
645.591	2929.28
645.784	2663.04
645.977	2699.91
646.17	2581.12
646.363	2405
646.556	2316.94
646.749	2286.22
646.942	2140.81
647.135	2173.58
647.328	1987.21
647.521	2062.99
647.714	1909.39
647.907	1907.34
648.099	1663.63
648.292	1766.03
648.485	1663.63
648.678	1606.29
648.871	1432.21
649.064	1489.56
649.256	1381.01
649.449	1356.44
649.642	1274.52
649.835	1241.75
650.027	1211.03
650.22	1254.04
650.413	1182.36
650.605	1129.11
650.798	1149.59
650.991	973.47
651.183	938.65
651.376	909.98
651.568	918.17
651.761	883.36
651.954	909.98
652.146	846.49
652.339	864.93
652.531	860.83
652.724	672.42
652.916	735.9
653.109	619.17
653.301	721.57
653.494	737.95
653.686	598.69
653.879	666.27
654.071	635.55
654.263	590.5
654.456	574.11
654.648	719.52
654.84	570.02
655.033	547.49
655.225	711.33
655.417	436.9
655.61	680.61
655.802	553.63
655.994	680.61
656.186	357.03
656.379	516.77
656.571	406.18
656.763	330.41
656.955	453.28
657.148	412.32
657.34	545.44
657.532	424.61
657.724	389.8
657.916	295.59
658.108	395.94
658.3	426.66
658.492	391.84
658.684	303.78
658.876	438.95
659.068	268.97
659.26	174.76
659.452	203.43
659.644	365.22
659.836	463.52
660.028	228.01
660.22	225.96
660.412	225.96
660.604	277.16
660.796	293.54
660.988	266.92
661.18	279.21
661.372	387.75
661.563	324.26
661.755	283.3
661.947	201.38
662.139	185
662.331	223.91
662.522	228.01
662.714	197.29
662.906	223.91
663.097	156.33
663.289	205.48
663.481	131.75
663.673	221.86
663.864	174.76
664.056	258.73
664.247	223.91
664.439	242.34
664.631	242.34
664.822	225.96
665.014	162.47
665.205	176.81
665.397	176.81
665.588	201.38
665.78	217.77
665.971	242.34
666.163	127.66
666.354	170.66
666.546	125.61
666.737	195.24
666.929	123.56
667.12	109.23
667.311	250.53
667.503	113.32
667.694	154.28
667.885	215.72
668.077	273.06
668.268	125.61
668.459	225.96
668.651	205.48
668.842	180.9
669.033	66.22
669.224	144.04
669.416	367.27
669.607	146.09
669.798	148.14
669.989	238.25
670.18	189.1
670.371	236.2
670.563	66.22
670.754	225.96
670.945	217.77
671.136	203.43
671.327	111.27
671.518	228.01
671.709	135.85
671.9	152.23
672.091	287.4
672.282	164.52
672.473	205.48
672.664	58.03
672.855	158.38
673.046	217.77
673.237	191.14
673.428	146.09
673.619	170.66
673.809	228.01
674	254.63
674.191	238.25
674.382	232.1
674.573	164.52
674.764	170.66
674.954	234.15
675.145	187.05
675.336	103.08
675.527	109.23
675.717	166.57
675.908	107.18
676.099	209.58
676.289	205.48
676.48	103.08
676.671	297.64
676.861	144.04
677.052	141.99
677.243	182.95
677.433	152.23
677.624	297.64
677.814	262.82
678.005	223.91
678.195	367.27
678.386	197.29
678.576	236.2
678.767	154.28
678.957	221.86
679.148	164.52
679.338	293.54
679.529	223.91
679.719	166.57
679.909	309.93
680.1	248.49
680.29	219.82
680.481	121.51
680.671	320.17
680.861	230.06
681.052	295.59
681.242	156.33
681.432	291.49
681.622	283.3
681.813	148.14
682.003	223.91
682.193	180.9
682.383	328.36
682.573	187.05
682.764	234.15
682.954	205.48
683.144	318.12
683.334	219.82
683.524	256.68
683.714	195.24
683.904	322.21
684.094	254.63
684.284	246.44
684.474	418.47
684.664	301.73
684.854	297.64
685.044	299.69
685.234	266.92
685.424	236.2
685.614	287.4
685.804	338.6
685.994	260.77
686.184	293.54
686.374	244.39
686.564	258.73
686.753	250.53
686.943	199.34
687.133	289.45
687.323	273.06
687.513	295.59
687.702	346.79
687.892	201.38
688.082	350.89
688.272	338.6
688.461	199.34
688.651	412.32
688.841	246.44
689.03	221.86
689.22	262.82
689.41	258.73
689.599	289.45
689.789	273.06
689.979	420.52
690.168	271.01
690.358	336.55
690.547	264.87
690.737	207.53
690.926	262.82
691.116	287.4
691.305	305.83
691.495	221.86
691.684	205.48
691.874	180.9
692.063	209.58
692.252	299.69
692.442	223.91
692.631	219.82
692.82	285.35
693.01	293.54
693.199	193.19
693.388	197.29
693.578	277.16
693.767	297.64
693.956	338.6
694.146	174.76
694.335	354.98
694.524	258.73
694.713	430.76
694.902	268.97
695.092	150.18
695.281	271.01
695.47	201.38
695.659	232.1
695.848	307.88
696.037	268.97
696.226	266.92
696.415	187.05
696.604	369.32
696.793	350.89
696.982	285.35
697.171	383.65
697.36	156.33
697.549	293.54
697.738	131.75
697.927	256.68
698.116	111.27
698.305	262.82
698.494	291.49
698.683	187.05
698.872	432.8
699.061	228.01
699.25	131.75
699.438	283.3
699.627	168.62
699.816	320.17
700.005	127.66
700.193	248.49
700.382	303.78
700.571	252.58
700.76	318.12
700.948	223.91
701.137	277.16
701.326	357.03
701.514	139.94
701.703	254.63
701.892	180.9
702.08	365.22
702.269	248.49
702.457	223.91
702.646	180.9
702.834	131.75
703.023	271.01
703.212	250.53
703.4	256.68
703.589	174.76
703.777	209.58
703.965	131.75
704.154	219.82
704.342	180.9
704.531	230.06
704.719	252.58
704.907	236.2
705.096	182.95
705.284	160.42
705.472	248.49
705.661	240.3
705.849	354.98
706.037	291.49
706.226	299.69
706.414	180.9
706.602	248.49
706.79	219.82
706.979	248.49
707.167	232.1
707.355	180.9
707.543	307.88
707.731	199.34
707.919	252.58
708.107	246.44
708.296	211.62
708.484	133.8
708.672	166.57
708.86	207.53
709.048	252.58
709.236	117.42
709.424	213.67
709.612	291.49
709.8	152.23
709.988	273.06
710.176	326.31
710.364	250.53
710.551	258.73
710.739	207.53
710.927	199.34
711.115	195.24
711.303	307.88
711.491	289.45
711.679	174.76
711.866	252.58
712.054	174.76
712.242	254.63
712.43	287.4
712.617	234.15
712.805	248.49
712.993	230.06
713.181	119.46
713.368	285.35
713.556	283.3
713.744	201.38
713.931	352.93
714.119	285.35
714.306	250.53
714.494	174.76
714.682	254.63
714.869	131.75
715.057	203.43
715.244	150.18
715.432	160.42
715.619	174.76
715.807	162.47
715.994	146.09
716.182	324.26
716.369	242.34
716.556	348.84
716.744	12.97
716.931	133.8
717.119	189.1
717.306	248.49
717.493	250.53
717.681	189.1
717.868	213.67
718.055	307.88
718.242	215.72
718.43	316.07
718.617	326.31
718.804	205.48
718.991	395.94
719.179	228.01
719.366	248.49
719.553	354.98
719.74	250.53
719.927	283.3
720.114	279.21
720.301	180.9
720.488	146.09
720.676	225.96
720.863	328.36
721.05	455.33
721.237	230.06
721.424	266.92
721.611	346.79
721.798	195.24
721.985	162.47
722.172	283.3
722.358	242.34
722.545	365.22
722.732	334.5
722.919	324.26
723.106	311.97
723.293	291.49
723.48	268.97
723.667	279.21
723.853	348.84
724.04	234.15
724.227	375.46
724.414	287.4
724.6	281.25
724.787	385.7
724.974	283.3
725.161	266.92
725.347	164.52
725.534	223.91
725.72	361.13
725.907	387.75
726.094	285.35
726.28	213.67
726.467	283.3
726.653	191.14
726.84	418.47
727.027	395.94
727.213	191.14
727.4	408.23
727.586	357.03
727.773	330.41
727.959	238.25
728.145	281.25
728.332	275.11
728.518	207.53
728.705	293.54
728.891	234.15
729.077	309.93
729.264	137.9
729.45	213.67
729.636	334.5
729.823	248.49
730.009	326.31
730.195	320.17
730.382	350.89
730.568	275.11
730.754	314.02
730.94	293.54
731.126	301.73
731.313	361.13
731.499	332.45
731.685	393.89
731.871	359.08
732.057	199.34
732.243	375.46
732.429	383.65
732.615	455.33
732.801	299.69
732.987	193.19
733.173	344.74
733.359	264.87
733.545	330.41
733.731	266.92
733.917	432.8
734.103	342.69
734.289	230.06
734.475	238.25
734.661	348.84
734.847	346.79
735.033	273.06
735.219	408.23
735.404	223.91
735.59	293.54
735.776	297.64
735.962	283.3
736.148	352.93
736.333	434.85
736.519	303.78
736.705	189.1
736.89	287.4
737.076	328.36
737.262	268.97
737.447	193.19
737.633	289.45
737.819	303.78
738.004	295.59
738.19	326.31
738.375	332.45
738.561	324.26
738.747	314.02
738.932	256.68
739.118	500.39
739.303	293.54
739.489	367.27
739.674	303.78
739.859	195.24
740.045	373.41
740.23	320.17
740.416	191.14
740.601	248.49
740.786	225.96
740.972	320.17
741.157	250.53
741.342	131.75
741.528	262.82
741.713	367.27
741.898	316.07
742.084	330.41
742.269	369.32
742.454	328.36
742.639	336.55
742.824	303.78
743.01	385.7
743.195	346.79
743.38	318.12
743.565	293.54
743.75	275.11
743.935	254.63
744.12	342.69
744.305	256.68
744.49	299.69
744.675	266.92
744.86	232.1
745.045	346.79
745.23	311.97
745.415	185
745.6	418.47
745.785	281.25
745.97	334.5
746.155	357.03
746.34	332.45
746.525	182.95
746.71	375.46
746.895	144.04
747.079	121.51
747.264	260.77
747.449	320.17
747.634	285.35
747.819	346.79
748.003	244.39
748.188	176.81
748.373	303.78
748.557	209.58
748.742	242.34
748.927	271.01
749.111	240.3
749.296	209.58
749.481	326.31
749.665	207.53
749.85	232.1
750.034	211.62
750.219	225.96
750.404	236.2
750.588	238.25
750.773	195.24
750.957	264.87
751.141	285.35
751.326	258.73
751.51	127.66
751.695	281.25
751.879	207.53
752.064	324.26
752.248	260.77
752.432	352.93
752.617	246.44
752.801	326.31
752.985	275.11
753.17	283.3
753.354	258.73
753.538	303.78
753.722	115.37
753.907	139.94
754.091	98.99
754.275	223.91
754.459	101.03
754.643	223.91
754.828	148.14
755.012	279.21
755.196	156.33
755.38	182.95
755.564	150.18
755.748	260.77
755.932	242.34
756.116	180.9
756.3	205.48
756.484	137.9
756.668	213.67
756.852	39.59
757.036	154.28
757.22	201.38
757.404	144.04
757.588	117.42
757.772	223.91
757.956	178.86
758.14	228.01
758.323	64.17
758.507	185
758.691	139.94
758.875	170.66
759.059	277.16
759.242	117.42
759.426	146.09
759.61	154.28
759.794	131.75
759.977	250.53
760.161	377.51
760.345	324.26
760.528	187.05
760.712	189.1
760.895	162.47
761.079	176.81
761.263	53.93
761.446	166.57
761.63	88.75
761.813	152.23
761.997	49.83
762.18	150.18
762.364	117.42
762.547	-17.75
762.731	101.03
762.914	129.7
763.098	109.23
763.281	121.51
763.464	111.27
763.648	156.33
763.831	109.23
764.015	27.31
764.198	240.3
764.381	72.36
764.564	64.17
764.748	107.18
764.931	176.81
765.114	103.08
765.297	185
765.481	-21.84
765.664	60.07
765.847	92.84
766.03	64.17
766.213	39.59
766.397	154.28
766.58	49.83
766.763	115.37
766.946	74.41
767.129	88.75
767.312	88.75
767.495	187.05
767.678	88.75
767.861	135.85
768.044	88.75
768.227	107.18
768.41	86.7
768.593	168.62
768.776	125.61
768.959	62.12
769.142	211.62
769.324	156.33
769.507	92.84
769.69	29.35
769.873	35.5
770.056	283.3
770.239	60.07
770.421	215.72
770.604	180.9
770.787	127.66
770.97	125.61
771.152	-40.28
771.335	105.13
771.518	29.35
771.7	195.24
771.883	256.68
772.066	131.75
772.248	41.64
772.431	150.18
772.613	133.8
772.796	119.46
772.978	117.42
773.161	154.28
773.343	31.4
773.526	29.35
773.708	-13.65
773.891	33.45
774.073	101.03
774.256	53.93
774.438	336.55
774.621	49.83
774.803	160.42
774.985	101.03
775.168	92.84
775.35	62.12
775.532	107.18
775.715	-3.41
775.897	88.75
776.079	64.17
776.261	146.09
776.444	31.4
776.626	70.31
776.808	129.7
776.99	10.92
777.173	27.31
777.355	64.17
777.537	84.65
777.719	111.27
777.901	19.11
778.083	150.18
778.265	-3.41
778.447	146.09
778.629	-23.89
778.811	107.18
778.993	78.51
779.175	137.9
779.357	117.42
779.539	60.07
779.721	133.8
779.903	152.23
780.085	51.88
780.267	19.11
780.449	76.46
780.631	178.86
780.812	121.51
780.994	107.18
781.176	90.79
781.358	101.03
781.54	62.12
781.721	107.18
781.903	168.62
782.085	43.69
782.267	234.15
782.448	-40.28
782.63	25.26
782.812	51.88
782.993	64.17
783.175	121.51
783.357	58.03
783.538	35.5
783.72	31.4
783.901	43.69
784.083	53.93
784.264	12.97
784.446	25.26
784.627	66.22
784.809	103.08
784.99	-44.37
785.172	111.27
785.353	-3.41
785.535	58.03
785.716	64.17
785.897	-11.61
786.079	25.26
786.26	70.31
786.441	35.5
786.623	-52.56
786.804	62.12
786.985	115.37
787.167	88.75
787.348	29.35
787.529	78.51
787.71	197.29
787.891	29.35
788.073	35.5
788.254	-13.65
788.435	193.19
788.616	94.89
788.797	-19.8
788.978	72.36
789.159	15.02
789.34	49.83
789.522	51.88
789.703	41.64
789.884	90.79
790.065	-17.75
790.246	228.01
790.427	66.22
790.607	168.62
790.788	150.18
790.969	-3.41
791.15	49.83
791.331	-13.65
791.512	-11.61
791.693	-25.94
791.874	-13.65
792.054	154.28
792.235	117.42
792.416	-13.65
792.597	4.78
792.778	6.83
792.958	45.74
793.139	58.03
793.32	98.99
793.5	-1.37
793.681	86.7
793.862	62.12
794.042	82.6
794.223	-75.09
794.404	0.68
794.584	-116.05
794.765	-25.94
794.945	-3.41
795.126	33.45
795.306	113.32
795.487	19.11
795.667	-21.84
795.848	58.03
796.028	-11.61
796.209	19.11
796.389	103.08
796.57	51.88
796.75	0.68
796.93	64.17
797.111	-15.7
797.291	31.4
797.471	94.89
797.652	-34.13
797.832	-32.08
798.012	103.08
798.192	43.69
798.373	-89.43
798.553	-15.7
798.733	94.89
798.913	-36.18
799.093	-7.51
799.274	15.02
799.454	15.02
799.634	41.64
799.814	125.61
799.994	154.28
800.174	19.11
800.354	-9.56
800.534	-77.14
800.714	8.87
800.894	-52.56
801.074	-75.09
801.254	-105.81
801.434	115.37
801.614	-58.71
801.794	-34.13
801.974	1819.28
802.154	-27.99
802.334	68.27
802.514	-73.04
802.693	-73.04
802.873	-40.28
803.053	131.75
803.233	70.31
803.413	49.83
803.592	-25.94
803.772	-34.13
803.952	4.78
804.131	-38.23
804.311	0.68
804.491	96.94
804.67	51.88
804.85	-32.08
805.03	-17.75
805.209	51.88
805.389	-23.89
805.568	-30.04
805.748	-58.71
805.928	47.79
806.107	25.26
806.287	8.87
806.466	37.55
806.646	-3.41
806.825	92.84
807.004	43.69
807.184	66.22
807.363	113.32
807.543	0.68
807.722	-42.32
807.901	105.13
808.081	92.84
808.26	-73.04
808.439	-17.75
808.619	-11.61
808.798	-13.65
808.977	103.08
809.156	60.07
809.336	31.4
809.515	29.35
809.694	-27.99
809.873	-101.72
810.052	33.45
810.231	15.02
810.411	55.98
810.59	76.46
810.769	45.74
810.948	84.65
811.127	-91.48
811.306	-97.62
811.485	-21.84
811.664	68.27
811.843	33.45
812.022	17.07
812.201	-68.95
812.38	-3.41
812.559	-64.85
812.737	115.37
812.916	-77.14
813.095	15.02
813.274	-38.23
813.453	37.55
813.632	103.08
813.811	96.94
813.989	-9.56
814.168	53.93
814.347	-40.28
814.526	-13.65
814.704	137.9
814.883	156.33
815.062	-27.99
815.24	92.84
815.419	-9.56
815.598	70.31
815.776	-44.37
815.955	17.07
816.133	-122.2
816.312	-83.28
816.49	15.02
816.669	29.35
816.847	-21.84
817.026	15.02
817.204	45.74
817.383	58.03
817.561	-50.52
817.74	2.73
817.918	25.26
818.097	-38.23
818.275	-27.99
818.453	19.11
818.632	92.84
818.81	19.11
818.988	-101.72
819.167	-11.61
819.345	-50.52
819.523	-73.04
819.701	23.21
819.879	98.99
820.058	21.16
820.236	15.02
820.414	23.21
820.592	-60.76
820.77	68.27
820.948	-25.94
821.127	-15.7
821.305	15.02
821.483	-77.14
821.661	62.12
821.839	-17.75
822.017	-48.47
822.195	8.87
822.373	-11.61
822.551	53.93
822.729	62.12
822.907	-58.71
823.085	96.94
823.262	41.64
823.44	-11.61
823.618	-13.65
823.796	43.69
823.974	-101.72
824.152	-1.37
824.329	31.4
824.507	66.22
824.685	84.65
824.863	55.98
825.04	33.45
825.218	121.51
825.396	53.93
825.574	43.69
825.751	90.79
825.929	47.79
826.107	-71
826.284	41.64
826.462	-7.51
826.639	-21.84
826.817	-101.72
826.994	60.07
827.172	-93.52
827.349	125.61
827.527	43.69
827.704	68.27
827.882	115.37
828.059	21.16
828.237	-40.28
828.414	8.87
828.591	-111.96
828.769	21.16
828.946	-38.23
829.124	84.65
829.301	123.56
829.478	58.03
829.655	37.55
829.833	49.83
830.01	-146.77
830.187	10.92
830.364	41.64
830.542	33.45
830.719	103.08
830.896	113.32
831.073	17.07
831.25	49.83
831.427	51.88
831.604	25.26
831.782	-9.56
831.959	45.74
832.136	-15.7
832.313	-56.66
832.49	-7.51
832.667	-1.37
832.844	-50.52
833.021	10.92
833.198	64.17
833.374	-13.65
833.551	-13.65
833.728	12.97
833.905	92.84
834.082	-140.63
834.259	-17.75
834.436	115.37
834.612	33.45
834.789	78.51
834.966	-21.84
835.143	74.41
835.319	-83.28
835.496	25.26
835.673	17.07
835.85	129.7
836.026	58.03
836.203	76.46
836.38	-34.13
836.556	23.21
836.733	-9.56
836.909	68.27
837.086	70.31
837.262	-167.25
837.439	60.07
837.616	-21.84
837.792	68.27
837.968	-101.72
838.145	-114
838.321	-21.84
838.498	2.73
838.674	70.31
838.851	12.97
839.027	29.35
839.203	-13.65
839.38	41.64
839.556	39.59
839.732	113.32
839.909	21.16
840.085	66.22
840.261	-77.14
840.437	88.75
840.614	-19.8
840.79	119.46
840.966	49.83
841.142	-9.56
841.318	-52.56
841.494	-11.61
841.671	74.41
841.847	-68.95
842.023	-93.52
842.199	12.97
842.375	98.99
842.551	-116.05
842.727	-79.19
842.903	164.52
843.079	8.87
843.255	121.51
843.431	6.83
843.607	94.89
843.783	-95.57
843.959	-27.99
844.134	-32.08
844.31	90.79
844.486	-7.51
844.662	-68.95
844.838	10.92
845.013	25.26
845.189	68.27
845.365	66.22
845.541	-34.13
845.716	35.5
845.892	94.89
846.068	-36.18
846.244	-7.51
846.419	31.4
846.595	-19.8
846.77	-77.14
846.946	111.27
847.122	-19.8
847.297	-60.76
847.473	131.75
847.648	-58.71
847.824	-1.37
847.999	-85.33
848.175	-40.28
848.35	58.03
848.526	0.68
848.701	80.55
848.876	98.99
849.052	92.84
849.227	25.26
849.403	2.73
849.578	-5.46
849.753	6.83
849.929	12.97
850.104	-13.65
850.279	53.93
850.454	31.4
850.63	109.23
850.805	-52.56
850.98	10.92
851.155	-50.52
851.33	-46.42
851.505	-99.67
851.681	90.79
851.856	-7.51
852.031	76.46
852.206	55.98
852.381	35.5
852.556	19.11
852.731	58.03
852.906	17.07
853.081	39.59
853.256	121.51
853.431	-85.33
853.606	-48.47
853.781	-120.15
853.956	-77.14
854.131	-62.8
854.305	29.35
854.48	-25.94
854.655	-19.8
854.83	-25.94
855.005	-36.18
855.18	86.7
855.354	-93.52
855.529	-38.23
855.704	-21.84
855.879	76.46
856.053	-95.57
856.228	41.64
856.403	-71
856.577	-3.41
856.752	-42.32
856.926	-21.84
857.101	25.26
857.276	-85.33
857.45	21.16
857.625	37.55
857.799	19.11
857.974	35.5
858.148	-1.37
858.323	-7.51
858.497	21.16
858.672	-7.51
858.846	-40.28
859.02	27.31
859.195	-23.89
859.369	35.5
859.543	-23.89
859.718	-7.51
859.892	0.68
860.066	0.68
860.241	-48.47
860.415	-50.52
860.589	-27.99
860.763	6.83
860.938	-1.37
861.112	-9.56
861.286	43.69
861.46	6.83
861.634	-81.24
861.808	98.99
861.982	-42.32
862.157	-62.8
862.331	-50.52
862.505	-42.32
862.679	-77.14
862.853	-7.51
863.027	12.97
863.201	199.34
863.375	-17.75
863.549	70.31
863.722	60.07
863.896	25.26
864.07	-36.18
864.244	-25.94
864.418	33.45
864.592	64.17
864.766	66.22
864.939	15.02
865.113	-48.47
865.287	72.36
865.461	-48.47
865.634	-36.18
865.808	-56.66
865.982	-38.23
866.156	-3.41
866.329	43.69
866.503	-15.7
866.676	-66.9
866.85	-36.18
867.024	-36.18
867.197	21.16
867.371	62.12
867.544	-27.99
867.718	-75.09
867.891	121.51
868.065	-44.37
868.238	2.73
868.412	53.93
868.585	47.79
868.759	-54.61
868.932	-17.75
869.105	-111.96
869.279	-23.89
869.452	-87.38
869.625	8.87
869.799	-52.56
869.972	-68.95
870.145	-42.32
870.319	127.66
870.492	-21.84
870.665	10.92
870.838	-89.43
871.011	-171.35
871.185	-13.65
871.358	4.78
871.531	4.78
871.704	-60.76
871.877	12.97
872.05	-15.7
872.223	-62.8
872.396	51.88
872.569	4.78
872.742	-5.46
872.915	-11.61
873.088	2.73
873.261	-17.75
873.434	33.45
873.607	39.59
873.78	68.27
873.953	-58.71
874.126	21.16
874.299	-15.7
874.471	-23.89
874.644	58.03
874.817	17.07
874.99	125.61
875.163	10.92
875.335	58.03
875.508	-25.94
875.681	8.87
875.853	-114
876.026	49.83
876.199	-40.28
876.371	55.98
876.544	17.07
876.717	-32.08
876.889	-71
877.062	15.02
877.234	-116.05
877.407	-15.7
877.579	-34.13
877.752	2.73
877.924	94.89
878.097	-25.94
878.269	-32.08
878.442	-15.7
878.614	-7.51
878.786	35.5
878.959	64.17
879.131	-42.32
879.303	-87.38
879.476	-7.51
879.648	41.64
879.82	-13.65
879.993	-40.28
880.165	25.26
880.337	-103.76
880.509	39.59
880.681	-30.04
880.854	49.83
881.026	17.07
881.198	207.53
881.37	-34.13
881.542	-68.95
881.714	-34.13
881.886	31.4
882.058	-17.75
882.23	-17.75
882.402	4.78
882.574	-9.56
882.746	129.7
882.918	121.51
883.09	78.51
883.262	-62.8
883.434	-15.7
883.606	-46.42
883.778	17.07
883.95	137.9
884.122	-60.76
884.293	47.79
884.465	31.4
884.637	17.07
884.809	-17.75
884.98	-11.61
885.152	70.31
885.324	12.97
885.496	-81.24
885.667	-23.89
885.839	-15.7
886.011	94.89
886.182	-64.85
886.354	68.27
886.525	60.07
886.697	39.59
886.869	-27.99
887.04	15.02
887.212	80.55
887.383	137.9
887.555	66.22
887.726	-25.94
887.897	-9.56
888.069	-5.46
888.24	4.78
888.412	-25.94
888.583	-38.23
888.754	-44.37
888.926	-77.14
889.097	-36.18
889.268	-97.62
889.44	6.83
889.611	-93.52
889.782	-71
889.953	-40.28
890.125	141.99
890.296	-128.34
890.467	10.92
890.638	-44.37
890.809	-19.8
890.98	-62.8
891.151	27.31
891.323	53.93
891.494	-38.23
891.665	39.59
891.836	-48.47
892.007	29.35
892.178	78.51
892.349	25.26
892.52	-21.84
892.691	-54.61
892.862	-1.37
893.032	-109.91
893.203	33.45
893.374	27.31
893.545	33.45
893.716	-95.57
893.887	55.98
894.057	-79.19
894.228	-23.89
894.399	-42.32
894.57	60.07
894.74	-89.43
894.911	-9.56
895.082	17.07
895.253	-23.89
895.423	-32.08
895.594	58.03
895.764	17.07
895.935	-52.56
896.106	29.35
896.276	-71
896.447	101.03
896.617	-50.52
896.788	-68.95
896.958	-48.47
897.129	10.92
897.299	-27.99
897.47	60.07
897.64	55.98
897.81	-23.89
897.981	2.73
898.151	37.55
898.322	-34.13
898.492	94.89
898.662	-54.61
898.832	-21.84
899.003	-48.47
899.173	27.31
899.343	-101.72
899.513	-157.01
