Data from USB4F104151__94__10-45-04-465.txt Node

Date: Wed Feb 26 10:45:04 EST 2025
User: louis
Spectrometer: USB4F10415
Trigger mode: 4
Integration Time (sec): 1.000000E-1
Scans to average: 1
Electric dark correction enabled: true
Nonlinearity correction enabled: false
Boxcar width: 0
XAxis mode: Wavelengths
Number of Pixels in Spectrum: 3648
>>>>>Begin Spectral Data<<<<<
178.204	-383.65
178.424	-383.65
178.644	-383.65
178.864	-416.42
179.084	-314.02
179.304	-19.11
179.524	-111.27
179.744	60.76
179.964	56.66
180.184	25.94
180.404	60.76
180.624	-29.35
180.844	3.41
181.064	-103.08
181.283	109.91
181.503	-74.41
181.723	19.8
181.943	-127.66
182.163	208.21
182.383	-60.07
182.602	46.42
182.822	154.96
183.042	62.8
183.262	40.28
183.482	1.37
183.701	5.46
183.921	11.61
184.141	15.7
184.361	132.44
184.58	27.99
184.8	68.95
185.02	-29.35
185.239	128.34
185.459	95.57
185.679	148.82
185.898	-158.38
186.118	66.9
186.338	11.61
186.557	77.14
186.777	-41.64
186.997	-10.92
187.216	44.37
187.436	114
187.655	97.62
187.875	-31.4
188.095	-47.79
188.314	109.91
188.534	165.2
188.753	-6.83
188.973	105.81
189.192	202.07
189.412	19.8
189.631	68.95
189.851	146.77
190.07	181.59
190.29	-96.94
190.509	9.56
190.729	-10.92
190.948	91.48
191.168	224.59
191.387	38.23
191.607	44.37
191.826	144.72
192.045	-12.97
192.265	73.04
192.484	105.81
192.704	32.08
192.923	-21.16
193.142	189.78
193.362	89.43
193.581	62.8
193.8	48.47
194.02	154.96
194.239	66.9
194.458	32.08
194.678	36.18
194.897	-41.64
195.116	58.71
195.335	62.8
195.555	9.56
195.774	-58.03
195.993	124.24
196.212	-39.59
196.432	32.08
196.651	21.85
196.87	21.85
197.089	175.44
197.308	81.24
197.528	66.9
197.747	-62.12
197.966	36.18
198.185	128.34
198.404	3.41
198.623	73.04
198.842	97.62
199.062	77.14
199.281	136.53
199.5	73.04
199.719	152.91
199.938	34.13
200.157	56.66
200.376	136.53
200.595	140.63
200.814	15.7
201.033	19.8
201.252	206.16
201.471	42.32
201.69	109.91
201.909	25.94
202.128	97.62
202.347	136.53
202.566	83.28
202.785	-72.36
203.004	-0.68
203.223	206.16
203.442	52.56
203.661	-15.02
203.879	83.28
204.098	136.53
204.317	42.32
204.536	85.33
204.755	64.85
204.974	114
205.193	-27.31
205.411	175.44
205.63	116.05
205.849	89.43
206.068	58.71
206.287	-4.78
206.505	105.81
206.724	21.85
206.943	5.46
207.162	64.85
207.381	97.62
207.599	32.08
207.818	19.8
208.037	-8.87
208.255	54.61
208.474	93.52
208.693	97.62
208.911	25.94
209.13	148.82
209.349	95.57
209.567	42.32
209.786	73.04
210.005	142.68
210.223	-6.83
210.442	-115.37
210.661	27.99
210.879	95.57
211.098	89.43
211.316	97.62
211.535	91.48
211.753	68.95
211.972	42.32
212.191	25.94
212.409	-29.35
212.628	159.06
212.846	-15.02
213.065	146.77
213.283	122.2
213.502	27.99
213.72	44.37
213.938	21.85
214.157	-10.92
214.375	89.43
214.594	52.56
214.812	120.15
215.031	1.37
215.249	-19.11
215.467	-10.92
215.686	52.56
215.904	66.9
216.122	27.99
216.341	163.15
216.559	87.38
216.778	62.8
216.996	144.72
217.214	81.24
217.432	-39.59
217.651	-10.92
217.869	75.09
218.087	111.96
218.306	46.42
218.524	42.32
218.742	-33.45
218.96	87.38
219.179	75.09
219.397	83.28
219.615	300.37
219.833	154.96
220.051	-12.97
220.27	73.04
220.488	122.2
220.706	75.09
220.924	-60.07
221.142	30.04
221.36	64.85
221.578	167.25
221.796	30.04
222.015	9.56
222.233	-6.83
222.451	134.48
222.669	-27.31
222.887	77.14
223.105	-4.78
223.323	11.61
223.541	-2.73
223.759	21.85
223.977	73.04
224.195	195.92
224.413	64.85
224.631	54.61
224.849	-15.02
225.067	230.74
225.285	21.85
225.503	-62.12
225.721	-60.07
225.939	19.8
226.157	50.52
226.375	165.2
226.592	21.85
226.81	114
227.028	107.86
227.246	165.2
227.464	146.77
227.682	62.8
227.9	114
228.117	19.8
228.335	73.04
228.553	32.08
228.771	30.04
228.989	25.94
229.206	126.29
229.424	3.41
229.642	93.52
229.86	-62.12
230.077	177.49
230.295	85.33
230.513	157.01
230.731	38.23
230.948	173.39
231.166	93.52
231.384	-19.11
231.601	-25.26
231.819	165.2
232.037	38.23
232.254	-10.92
232.472	54.61
232.689	17.75
232.907	150.87
233.125	36.18
233.342	40.28
233.56	40.28
233.777	-2.73
233.995	9.56
234.213	114
234.43	30.04
234.648	81.24
234.865	40.28
235.083	85.33
235.3	77.14
235.518	144.72
235.735	81.24
235.953	91.48
236.17	46.42
236.388	81.24
236.605	-37.55
236.822	91.48
237.04	179.54
237.257	81.24
237.475	7.51
237.692	21.85
237.909	58.71
238.127	-43.69
238.344	134.48
238.562	36.18
238.779	-39.59
238.996	-58.03
239.214	-15.02
239.431	105.81
239.648	85.33
239.865	42.32
240.083	114
240.3	-15.02
240.517	-31.4
240.735	34.13
240.952	191.83
241.169	34.13
241.386	50.52
241.603	7.51
241.821	15.7
242.038	126.29
242.255	105.81
242.472	-62.12
242.689	103.76
242.907	50.52
243.124	40.28
243.341	38.23
243.558	-12.97
243.775	-72.36
243.992	-84.65
244.209	154.96
244.426	214.35
244.643	64.85
244.86	56.66
245.078	58.71
245.295	13.65
245.512	32.08
245.729	21.85
245.946	105.81
246.163	-17.07
246.38	36.18
246.597	64.85
246.814	73.04
247.031	32.08
247.248	-19.11
247.464	50.52
247.681	91.48
247.898	60.76
248.115	150.87
248.332	50.52
248.549	109.91
248.766	87.38
248.983	126.29
249.2	97.62
249.417	167.25
249.633	27.99
249.85	68.95
250.067	42.32
250.284	30.04
250.501	120.15
250.717	138.58
250.934	7.51
251.151	97.62
251.368	-29.35
251.585	93.52
251.801	44.37
252.018	-19.11
252.235	120.15
252.451	-37.55
252.668	75.09
252.885	85.33
253.102	66.9
253.318	-25.26
253.535	34.13
253.752	73.04
253.968	120.15
254.185	-113.32
254.401	71
254.618	109.91
254.835	73.04
255.051	95.57
255.268	93.52
255.484	-8.87
255.701	64.85
255.917	32.08
256.134	-33.45
256.351	27.99
256.567	-58.03
256.784	-41.64
257	-84.65
257.217	120.15
257.433	109.91
257.65	83.28
257.866	87.38
258.082	-27.31
258.299	-12.97
258.515	66.9
258.732	62.8
258.948	85.33
259.165	42.32
259.381	-12.97
259.597	122.2
259.814	77.14
260.03	38.23
260.246	-2.73
260.463	204.11
260.679	228.69
260.895	34.13
261.112	68.95
261.328	62.8
261.544	-27.31
261.761	175.44
261.977	-27.31
262.193	5.46
262.409	34.13
262.626	25.94
262.842	42.32
263.058	44.37
263.274	116.05
263.49	95.57
263.707	93.52
263.923	68.95
264.139	-25.26
264.355	46.42
264.571	185.68
264.787	122.2
265.004	109.91
265.22	11.61
265.436	-19.11
265.652	40.28
265.868	126.29
266.084	11.61
266.3	124.24
266.516	-0.68
266.732	42.32
266.948	68.95
267.164	17.75
267.38	142.68
267.596	9.56
267.812	210.26
268.028	62.8
268.244	60.76
268.46	34.13
268.676	-43.69
268.892	87.38
269.108	-21.16
269.324	-45.74
269.54	-74.41
269.756	118.1
269.972	-45.74
270.188	3.41
270.403	58.71
270.619	25.94
270.835	60.76
271.051	9.56
271.267	34.13
271.483	15.7
271.698	77.14
271.914	-8.87
272.13	58.71
272.346	7.51
272.562	83.28
272.777	103.76
272.993	50.52
273.209	68.95
273.425	25.94
273.64	-29.35
273.856	183.63
274.072	-49.83
274.287	-23.21
274.503	54.61
274.719	42.32
274.934	40.28
275.15	-33.45
275.366	101.72
275.581	-43.69
275.797	58.71
276.012	-25.26
276.228	40.28
276.444	83.28
276.659	167.25
276.875	5.46
277.09	19.8
277.306	13.65
277.521	89.43
277.737	83.28
277.952	44.37
278.168	91.48
278.383	73.04
278.599	107.86
278.814	95.57
279.03	-0.68
279.245	114
279.461	15.7
279.676	91.48
279.892	-51.88
280.107	1.37
280.322	1.37
280.538	44.37
280.753	36.18
280.969	46.42
281.184	58.71
281.399	146.77
281.615	77.14
281.83	101.72
282.045	-78.51
282.26	-21.16
282.476	122.2
282.691	130.39
282.906	1.37
283.122	105.81
283.337	-12.97
283.552	40.28
283.767	11.61
283.983	68.95
284.198	60.76
284.413	17.75
284.628	-58.03
284.843	23.89
285.058	103.76
285.274	9.56
285.489	-6.83
285.704	122.2
285.919	1.37
286.134	116.05
286.349	25.94
286.564	-2.73
286.779	136.53
286.995	21.85
287.21	-55.98
287.425	120.15
287.64	21.85
287.855	27.99
288.07	-53.93
288.285	116.05
288.5	124.24
288.715	111.96
288.93	157.01
289.145	-45.74
289.36	75.09
289.575	32.08
289.79	130.39
290.004	-2.73
290.219	130.39
290.434	-6.83
290.649	-72.36
290.864	34.13
291.079	21.85
291.294	40.28
291.509	79.19
291.724	-4.78
291.938	95.57
292.153	60.76
292.368	7.51
292.583	111.96
292.798	109.91
293.012	75.09
293.227	-6.83
293.442	-23.21
293.657	116.05
293.871	140.63
294.086	68.95
294.301	122.2
294.516	103.76
294.73	46.42
294.945	5.46
295.16	42.32
295.374	34.13
295.589	105.81
295.804	56.66
296.018	23.89
296.233	159.06
296.447	71
296.662	-25.26
296.877	79.19
297.091	66.9
297.306	56.66
297.52	17.75
297.735	107.86
297.949	-19.11
298.164	75.09
298.378	56.66
298.593	-17.07
298.807	-64.17
299.022	89.43
299.236	163.15
299.451	75.09
299.665	11.61
299.88	-4.78
300.094	99.67
300.309	77.14
300.523	103.76
300.737	36.18
300.952	81.24
301.166	11.61
301.381	-21.16
301.595	27.99
301.809	58.71
302.024	87.38
302.238	-27.31
302.452	130.39
302.667	97.62
302.881	71
303.095	91.48
303.309	36.18
303.524	9.56
303.738	68.95
303.952	-21.16
304.166	89.43
304.381	-107.18
304.595	193.87
304.809	19.8
305.023	36.18
305.237	-4.78
305.452	1.37
305.666	109.91
305.88	64.85
306.094	126.29
306.308	71
306.522	87.38
306.736	60.76
306.95	114
307.164	-29.35
307.379	64.85
307.593	93.52
307.807	157.01
308.021	111.96
308.235	89.43
308.449	-17.07
308.663	-0.68
308.877	200.02
309.091	7.51
309.305	128.34
309.519	-119.46
309.733	109.91
309.947	-60.07
310.161	97.62
310.374	103.76
310.588	124.24
310.802	-12.97
311.016	-4.78
311.23	85.33
311.444	-0.68
311.658	-25.26
311.872	89.43
312.085	200.02
312.299	212.31
312.513	144.72
312.727	9.56
312.941	-2.73
313.154	32.08
313.368	68.95
313.582	62.8
313.796	-17.07
314.009	54.61
314.223	118.1
314.437	68.95
314.651	124.24
314.864	60.76
315.078	21.85
315.292	-78.51
315.505	-62.12
315.719	19.8
315.933	-27.31
316.146	-25.26
316.36	9.56
316.573	91.48
316.787	126.29
317.001	17.75
317.214	-17.07
317.428	79.19
317.641	-37.55
317.855	27.99
318.068	62.8
318.282	50.52
318.495	154.96
318.709	32.08
318.922	-21.16
319.136	208.21
319.349	146.77
319.563	58.71
319.776	52.56
319.99	-66.22
320.203	157.01
320.417	54.61
320.63	48.47
320.843	187.73
321.057	83.28
321.27	-8.87
321.483	101.72
321.697	116.05
321.91	71
322.124	77.14
322.337	40.28
322.55	-60.07
322.763	50.52
322.977	42.32
323.19	19.8
323.403	36.18
323.617	54.61
323.83	109.91
324.043	81.24
324.256	120.15
324.469	-82.6
324.683	103.76
324.896	44.37
325.109	89.43
325.322	-4.78
325.535	126.29
325.748	85.33
325.962	-25.26
326.175	120.15
326.388	44.37
326.601	87.38
326.814	-47.79
327.027	44.37
327.24	146.77
327.453	25.94
327.666	-12.97
327.879	120.15
328.092	25.94
328.305	56.66
328.518	21.85
328.731	105.81
328.944	46.42
329.157	75.09
329.37	-19.11
329.583	167.25
329.796	114
330.009	-4.78
330.222	64.85
330.435	79.19
330.648	48.47
330.861	167.25
331.073	126.29
331.286	58.71
331.499	44.37
331.712	21.85
331.925	73.04
332.138	68.95
332.35	38.23
332.563	-4.78
332.776	109.91
332.989	21.85
333.202	38.23
333.414	34.13
333.627	1.37
333.84	44.37
334.053	91.48
334.265	-4.78
334.478	-33.45
334.691	15.7
334.903	38.23
335.116	-82.6
335.329	77.14
335.541	132.44
335.754	159.06
335.966	85.33
336.179	68.95
336.392	1.37
336.604	79.19
336.817	116.05
337.029	93.52
337.242	-6.83
337.454	195.92
337.667	19.8
337.88	81.24
338.092	44.37
338.305	154.96
338.517	71
338.729	124.24
338.942	202.07
339.154	13.65
339.367	-82.6
339.579	-8.87
339.792	-12.97
340.004	83.28
340.217	68.95
340.429	1.37
340.641	5.46
340.854	-37.55
341.066	60.76
341.278	167.25
341.491	157.01
341.703	56.66
341.915	-19.11
342.128	122.2
342.34	73.04
342.552	-31.4
342.764	42.32
342.977	32.08
343.189	50.52
343.401	79.19
343.613	-58.03
343.826	73.04
344.038	-4.78
344.25	71
344.462	-55.98
344.674	75.09
344.886	56.66
345.099	44.37
345.311	77.14
345.523	-12.97
345.735	-15.02
345.947	34.13
346.159	48.47
346.371	118.1
346.583	34.13
346.795	189.78
347.007	56.66
347.219	122.2
347.431	27.99
347.643	68.95
347.855	44.37
348.067	167.25
348.279	-146.09
348.491	17.75
348.703	56.66
348.915	-0.68
349.127	7.51
349.339	60.76
349.551	21.85
349.763	81.24
349.975	79.19
350.187	68.95
350.399	85.33
350.61	32.08
350.822	-33.45
351.034	9.56
351.246	60.76
351.458	32.08
351.669	87.38
351.881	54.61
352.093	138.58
352.305	144.72
352.517	154.96
352.728	93.52
352.94	75.09
353.152	81.24
353.363	-8.87
353.575	60.76
353.787	103.76
353.999	68.95
354.21	173.39
354.422	15.7
354.633	62.8
354.845	-2.73
355.057	60.76
355.268	75.09
355.48	93.52
355.692	13.65
355.903	21.85
356.115	34.13
356.326	-60.07
356.538	173.39
356.749	17.75
356.961	107.86
357.172	54.61
357.384	15.7
357.595	204.11
357.807	128.34
358.018	-25.26
358.23	17.75
358.441	138.58
358.653	-12.97
358.864	44.37
359.075	-45.74
359.287	19.8
359.498	132.44
359.709	109.91
359.921	83.28
360.132	11.61
360.344	-6.83
360.555	71
360.766	21.85
360.977	56.66
361.189	171.35
361.4	5.46
361.611	136.53
361.823	136.53
362.034	50.52
362.245	-31.4
362.456	17.75
362.667	68.95
362.879	21.85
363.09	85.33
363.301	27.99
363.512	52.56
363.723	19.8
363.935	-47.79
364.146	93.52
364.357	32.08
364.568	114
364.779	-94.89
364.99	101.72
365.201	42.32
365.412	68.95
365.623	-51.88
365.834	50.52
366.045	111.96
366.256	79.19
366.467	66.9
366.678	23.89
366.889	60.76
367.1	5.46
367.311	179.54
367.522	71
367.733	134.48
367.944	-19.11
368.155	68.95
368.366	64.85
368.577	87.38
368.788	101.72
368.999	-27.31
369.209	81.24
369.42	154.96
369.631	267.6
369.842	97.62
370.053	38.23
370.264	58.71
370.474	-86.7
370.685	111.96
370.896	77.14
371.107	58.71
371.317	71
371.528	-41.64
371.739	71
371.95	136.53
372.16	134.48
372.371	-64.17
372.582	11.61
372.792	64.85
373.003	-6.83
373.214	-2.73
373.424	111.96
373.635	13.65
373.846	122.2
374.056	27.99
374.267	48.47
374.477	97.62
374.688	3.41
374.898	34.13
375.109	36.18
375.319	38.23
375.53	114
375.74	120.15
375.951	91.48
376.161	50.52
376.372	136.53
376.582	-0.68
376.793	60.76
377.003	17.75
377.214	-68.27
377.424	-39.59
377.635	7.51
377.845	-33.45
378.055	150.87
378.266	-86.7
378.476	13.65
378.686	95.57
378.897	64.85
379.107	107.86
379.317	109.91
379.528	1.37
379.738	85.33
379.948	-86.7
380.158	146.77
380.369	30.04
380.579	116.05
380.789	120.15
380.999	109.91
381.21	9.56
381.42	161.11
381.63	101.72
381.84	124.24
382.05	105.81
382.261	68.95
382.471	122.2
382.681	19.8
382.891	132.44
383.101	103.76
383.311	-4.78
383.521	-58.03
383.731	99.67
383.941	56.66
384.151	44.37
384.361	9.56
384.571	-23.21
384.781	89.43
384.991	204.11
385.201	173.39
385.411	77.14
385.621	36.18
385.831	36.18
386.041	83.28
386.251	13.65
386.461	77.14
386.671	-17.07
386.881	13.65
387.091	66.9
387.301	73.04
387.511	83.28
387.72	87.38
387.93	109.91
388.14	19.8
388.35	71
388.56	120.15
388.769	101.72
388.979	50.52
389.189	-80.55
389.399	23.89
389.609	132.44
389.818	42.32
390.028	124.24
390.238	93.52
390.447	-29.35
390.657	87.38
390.867	64.85
391.076	-2.73
391.286	54.61
391.496	21.85
391.705	83.28
391.915	71
392.125	50.52
392.334	60.76
392.544	140.63
392.753	73.04
392.963	36.18
393.172	-29.35
393.382	25.94
393.591	175.44
393.801	-53.93
394.01	126.29
394.22	48.47
394.429	17.75
394.639	3.41
394.848	71
395.058	50.52
395.267	-6.83
395.477	109.91
395.686	5.46
395.895	154.96
396.105	208.21
396.314	85.33
396.524	-6.83
396.733	75.09
396.942	101.72
397.152	85.33
397.361	66.9
397.57	114
397.78	-19.11
397.989	122.2
398.198	208.21
398.407	13.65
398.617	40.28
398.826	5.46
399.035	34.13
399.244	138.58
399.453	91.48
399.663	62.8
399.872	27.99
400.081	-12.97
400.29	144.72
400.499	3.41
400.708	126.29
400.917	36.18
401.127	5.46
401.336	-47.79
401.545	189.78
401.754	136.53
401.963	124.24
402.172	75.09
402.381	1.37
402.59	81.24
402.799	-6.83
403.008	97.62
403.217	79.19
403.426	171.35
403.635	-49.83
403.844	38.23
404.053	-2.73
404.262	-19.11
404.471	124.24
404.68	44.37
404.888	32.08
405.097	75.09
405.306	36.18
405.515	75.09
405.724	23.89
405.933	167.25
406.142	27.99
406.35	134.48
406.559	77.14
406.768	27.99
406.977	222.55
407.185	75.09
407.394	99.67
407.603	-25.26
407.812	140.63
408.02	200.02
408.229	44.37
408.438	64.85
408.646	-35.5
408.855	23.89
409.064	111.96
409.272	48.47
409.481	85.33
409.69	42.32
409.898	21.85
410.107	1.37
410.315	81.24
410.524	5.46
410.733	73.04
410.941	103.76
411.15	165.2
411.358	58.71
411.567	179.54
411.775	52.56
411.984	44.37
412.192	48.47
412.401	36.18
412.609	173.39
412.818	136.53
413.026	91.48
413.234	27.99
413.443	60.76
413.651	-60.07
413.86	97.62
414.068	144.72
414.276	154.96
414.485	44.37
414.693	200.02
414.901	130.39
415.11	111.96
415.318	-23.21
415.526	75.09
415.734	126.29
415.943	109.91
416.151	206.16
416.359	120.15
416.567	85.33
416.776	116.05
416.984	130.39
417.192	150.87
417.4	13.65
417.608	58.71
417.817	-55.98
418.025	146.77
418.233	195.92
418.441	11.61
418.649	56.66
418.857	64.85
419.065	163.15
419.273	97.62
419.481	73.04
419.689	93.52
419.897	79.19
420.105	34.13
420.313	165.2
420.521	167.25
420.729	240.98
420.937	-49.83
421.145	42.32
421.353	218.45
421.561	154.96
421.769	138.58
421.977	3.41
422.185	116.05
422.393	-19.11
422.601	157.01
422.809	103.76
423.017	111.96
423.224	79.19
423.432	159.06
423.64	32.08
423.848	105.81
424.056	-25.26
424.263	93.52
424.471	77.14
424.679	130.39
424.887	-6.83
425.094	144.72
425.302	77.14
425.51	71
425.718	163.15
425.925	105.81
426.133	21.85
426.341	212.31
426.548	40.28
426.756	58.71
426.964	163.15
427.171	17.75
427.379	77.14
427.586	71
427.794	124.24
428.001	134.48
428.209	62.8
428.417	161.11
428.624	62.8
428.832	87.38
429.039	52.56
429.247	114
429.454	58.71
429.662	200.02
429.869	134.48
430.076	101.72
430.284	95.57
430.491	277.84
430.699	154.96
430.906	234.83
431.114	181.59
431.321	171.35
431.528	89.43
431.736	165.2
431.943	142.68
432.15	122.2
432.358	179.54
432.565	308.56
432.772	77.14
432.979	218.45
433.187	111.96
433.394	294.22
433.601	142.68
433.808	263.51
434.016	275.79
434.223	220.5
434.43	290.13
434.637	273.75
434.844	296.27
435.052	271.7
435.259	316.75
435.466	275.79
435.673	312.66
435.88	290.13
436.087	347.47
436.294	294.22
436.501	347.47
436.708	316.75
436.915	331.09
437.122	408.91
437.329	234.83
437.537	359.76
437.743	390.48
437.95	507.21
438.157	423.25
438.364	382.29
438.571	408.91
438.778	480.59
438.985	523.6
439.192	527.69
439.399	488.78
439.606	523.6
439.813	513.36
440.02	587.08
440.227	787.79
440.433	640.33
440.64	599.37
440.847	556.36
441.054	662.86
441.261	707.91
441.467	677.2
441.674	636.24
441.881	793.93
442.088	658.76
442.294	808.26
442.501	871.75
442.708	943.43
442.914	851.27
443.121	863.56
443.328	931.14
443.534	1084.74
443.741	984.39
443.948	814.41
444.154	1058.12
444.361	1181
444.568	1031.49
444.774	1058.12
444.981	1054.02
445.187	1314.11
445.394	1183.04
445.6	1224
445.807	1338.69
446.013	1334.59
446.22	1303.87
446.426	1447.23
446.633	1623.36
446.839	1678.65
447.046	1563.97
447.252	1668.41
447.459	1715.52
447.665	1754.43
447.871	1916.22
448.078	2090.29
448.284	1887.54
448.491	2159.92
448.697	2266.42
448.903	2235.7
449.11	2362.67
449.316	2313.52
449.522	2495.79
449.728	2598.19
449.935	2637.1
450.141	2682.16
450.347	2919.72
450.553	2854.19
450.76	2948.39
450.966	3136.81
451.172	3149.09
451.378	3405.09
451.584	3446.05
451.791	3738.91
451.997	3781.92
452.203	3884.31
452.409	3935.51
452.615	4089.11
452.821	4054.3
453.027	4136.21
453.233	4709.65
453.44	4510.99
453.646	4728.08
453.852	4951.31
454.058	5287.17
454.264	5213.45
454.47	5573.89
454.676	5561.6
454.882	5999.87
455.088	5979.39
455.294	6178.04
455.5	6399.22
455.705	7064.81
455.911	7044.33
456.117	7111.91
456.323	7402.72
456.529	7437.54
456.735	8215.77
456.941	8361.17
457.147	8778.96
457.352	8858.83
457.558	9188.55
457.764	9669.83
457.97	10054.84
458.176	10249.4
458.381	10566.84
458.587	11125.93
458.793	11644.07
458.999	11709.6
459.204	12735.64
459.41	13468.81
459.616	13231.24
459.821	13958.27
460.027	14556.28
460.233	15301.74
460.438	15443.05
460.644	16151.65
460.85	16327.77
461.055	16880.72
461.261	17933.38
461.466	17333.32
461.672	17859.65
461.878	19969.06
462.083	20012.07
462.289	20071.46
462.494	20808.73
462.7	21353.49
462.905	21476.37
463.111	23077.88
463.316	24179.68
463.522	24859.61
463.727	25367.51
463.932	26639.29
464.138	27016.12
464.343	28271.53
464.549	28427.17
464.754	30454.66
464.959	31392.63
465.165	31693.68
465.37	31535.99
465.575	31947.63
465.781	33880.91
465.986	35121.98
466.191	34499.4
466.397	34366.28
466.602	33911.63
466.807	35377.98
467.012	36313.9
467.218	37182.24
467.423	36940.58
467.628	38175.5
467.833	40076.02
468.038	39035.65
468.244	38552.33
468.449	40569.58
468.654	39930.61
468.859	39398.14
469.064	39715.58
469.269	38863.62
469.474	38875.91
469.679	40391.4
469.885	39027.46
470.09	39856.89
470.295	39967.48
470.5	39058.18
470.705	39252.73
470.91	38032.15
471.115	38015.76
471.32	38611.72
471.525	38062.86
471.73	37335.84
471.935	36891.43
472.139	35347.26
472.344	36057.9
472.549	35060.54
472.754	34450.25
472.959	34016.08
473.164	32983.9
473.369	32265.06
473.574	33395.54
473.778	32389.99
473.983	32119.66
474.188	31443.83
474.393	30051.21
474.598	30032.78
474.802	29217.69
475.007	28990.36
475.212	28447.65
475.417	27571.12
475.621	27210.68
475.826	27059.13
476.031	26358.72
476.235	26057.67
476.44	25949.13
476.645	25158.61
476.849	24720.35
477.054	24294.37
477.259	23798.76
477.463	23849.96
477.668	23211
477.872	22836.22
478.077	22735.87
478.282	21933.06
478.486	21636.11
478.691	21464.08
478.895	21656.59
479.1	21117.97
479.304	21376.02
479.509	20376.61
479.713	20620.31
479.918	19999.78
480.122	19702.82
480.326	19842.09
480.531	19948.58
480.735	19498.03
480.94	19280.94
481.144	19876.9
481.348	18746.42
481.553	18832.44
481.757	18517.05
481.961	18445.37
482.166	18519.1
482.37	18521.15
482.574	18084.93
482.778	17939.52
482.983	18203.71
483.187	17955.91
483.391	17742.92
483.595	17507.4
483.8	17273.93
484.004	17405
484.208	17548.36
484.412	16776.28
484.616	17093.71
484.821	16782.42
485.025	16278.62
485.229	16526.43
485.433	15815.78
485.637	16139.36
485.841	15565.93
486.045	15504.49
486.249	15498.34
486.453	15166.57
486.657	15078.51
486.861	14728.31
487.065	14015.62
487.269	14314.62
487.473	13720.71
487.677	13773.96
487.881	13945.98
488.085	13261.96
488.289	13192.33
488.493	12805.27
488.697	12817.55
488.901	12625.04
489.105	12182.68
489.309	12065.95
489.512	11887.78
489.716	11738.27
489.92	11322.54
490.124	11211.95
490.328	11076.78
490.531	10865.84
490.735	10919.09
490.939	10560.69
491.143	10413.24
491.346	10132.67
491.55	10087.61
491.754	9794.75
491.958	9583.81
492.161	9653.44
492.365	9333.96
492.569	9247.94
492.772	8922.32
492.976	8879.31
493.18	8754.38
493.383	8846.54
493.587	8613.07
493.79	8457.43
493.994	8266.97
494.197	8436.95
494.401	8326.36
494.605	8027.35
494.808	8023.26
495.012	8060.12
495.215	8008.92
495.419	7986.4
495.622	7679.2
495.825	7867.61
496.029	7701.73
496.232	7867.61
496.436	7496.93
496.639	7814.37
496.843	7480.55
497.046	7658.72
497.249	7644.38
497.453	7687.39
497.656	7474.4
497.859	7535.84
498.063	7754.98
498.266	7628
498.469	7435.49
498.673	7605.47
498.876	7685.34
499.079	7666.91
499.282	7558.37
499.485	7943.39
499.689	7939.29
499.892	7955.68
500.095	7828.7
500.298	8023.26
500.501	7804.13
500.705	8213.72
500.908	8162.52
501.111	8199.38
501.314	8299.73
501.517	8477.91
501.72	8463.57
501.923	8492.24
502.126	8494.29
502.329	8764.62
502.532	8719.57
502.735	8746.19
502.938	8875.21
503.141	9018.57
503.344	9188.55
503.547	9436.36
503.75	9391.3
503.953	9497.8
504.156	9604.29
504.359	9647.3
504.562	9704.64
504.765	9872.57
504.968	10124.47
505.17	10448.05
505.373	10564.79
505.576	10482.87
505.779	10818.74
505.982	10953.9
506.185	10923.18
506.387	11232.43
506.59	11707.55
506.793	11668.64
506.996	11795.62
507.198	12149.92
507.401	12266.65
507.604	12434.58
507.807	12756.11
508.009	13116.56
508.212	13130.89
508.415	13548.68
508.617	13960.32
508.82	13919.36
509.022	13943.94
509.225	14771.32
509.428	14783.6
509.63	15115.37
509.833	15445.1
510.035	16088.16
510.238	15897.7
510.44	16403.55
510.643	16819.28
510.845	17019.99
511.048	17108.05
511.25	17849.41
511.453	18373.69
511.655	18897.97
511.858	19078.19
512.06	19559.47
512.262	19864.61
512.465	20143.14
512.667	20552.73
512.87	21253.14
513.072	22010.89
513.274	22584.32
513.477	22426.62
513.679	22973.43
513.881	23718.89
514.084	24183.78
514.286	24484.83
514.488	25179.09
514.69	26102.73
514.893	26084.3
515.095	26723.26
515.297	27474.87
515.499	28001.19
515.701	28365.73
515.904	29229.98
516.106	29764.5
516.308	29997.96
516.51	31101.82
516.712	31200.12
516.914	31908.72
517.116	32879.46
517.318	33182.55
517.52	33846.1
517.722	34421.58
517.925	34894.66
518.127	35722.04
518.329	36639.53
518.531	36623.14
518.733	37571.35
518.935	37784.34
519.136	38677.26
519.338	39189.25
519.54	39570.17
519.742	40364.78
519.944	40731.37
520.146	41509.6
520.348	42345.17
520.55	42398.41
520.752	42930.89
520.954	44024.5
521.155	43918.01
521.357	44720.81
521.559	45173.41
521.761	46121.62
521.963	46195.35
522.164	46400.15
522.366	46543.5
522.568	47127.17
522.77	47510.14
522.971	48216.69
523.173	48138.87
523.375	48589.42
523.576	48800.36
523.778	48390.77
523.98	49142.38
524.181	49717.85
524.383	49701.47
524.584	50201.18
524.786	49619.55
524.988	49672.8
525.189	50416.21
525.391	50299.48
525.592	50397.78
525.794	50487.89
525.995	50682.45
526.197	49861.21
526.398	50082.39
526.6	50242.13
526.801	49912.41
527.003	50023
527.204	49908.32
527.406	49963.61
527.607	49341.03
527.808	49433.19
528.01	48544.37
528.211	48577.14
528.412	48853.61
528.614	48487.03
528.815	48192.12
529.016	48077.43
529.218	47053.45
529.419	47006.34
529.62	46236.31
529.822	46330.51
530.023	45511.33
530.224	45359.78
530.425	45036.2
530.626	43997.88
530.828	43236.03
531.029	44233.39
531.23	43123.4
531.431	42394.32
531.632	42363.6
531.833	41845.46
532.035	41265.89
532.236	40780.52
532.437	40549.1
532.638	40084.21
532.839	39721.72
533.04	39271.17
533.241	38236.94
533.442	38482.7
533.643	37597.98
533.844	37182.24
534.045	36330.28
534.246	35957.55
534.447	35615.54
534.648	34970.43
534.849	34685.76
535.05	34138.96
535.251	33481.56
535.451	33536.85
535.652	32754.53
535.853	32418.66
536.054	32050.03
536.255	31888.24
536.456	30968.7
536.657	30966.65
536.857	30417.8
537.058	30002.06
537.259	29606.8
537.46	29262.74
537.66	28947.36
537.861	28365.73
538.062	27691.95
538.263	27833.26
538.463	27098.04
538.664	26854.33
538.865	26553.28
539.065	26674.11
539.266	25617.36
539.466	25801.68
539.667	25293.78
539.868	25523.15
540.068	24839.13
540.269	24634.33
540.469	24345.57
540.67	23960.55
540.87	23860.2
541.071	23536.62
541.271	23278.58
541.472	22961.14
541.672	22486.01
541.873	22144
542.073	21791.75
542.274	21928.97
542.474	21617.68
542.675	21416.97
542.875	21146.64
543.075	21038.1
543.276	20667.42
543.476	20513.82
543.676	20231.2
543.877	19743.78
544.077	19817.51
544.277	19563.56
544.478	19059.76
544.678	19452.97
544.878	18678.84
545.078	18617.4
545.279	18601.02
545.479	17976.39
545.679	18048.07
545.879	17892.42
546.079	17521.74
546.28	17292.37
546.48	17046.61
546.68	17196.11
546.88	16929.88
547.08	16591.96
547.28	16647.26
547.48	16082.02
547.68	16098.4
547.88	15938.66
548.081	15805.54
548.281	15365.23
548.481	15031.41
548.681	15236.2
548.881	15066.22
549.081	14847.09
549.28	14396.54
549.48	14474.36
549.68	14247.04
549.88	14136.45
550.08	13665.41
550.28	13657.22
550.48	13427.85
550.68	13149.32
550.88	12993.68
551.08	12737.68
551.279	12745.87
551.479	12567.7
551.679	12428.44
551.879	12145.82
552.079	11867.3
552.278	11850.91
552.478	11654.31
552.678	11510.95
552.878	11570.34
553.077	11136.17
553.277	10755.25
553.477	10982.57
553.676	10632.37
553.876	10480.82
554.076	10241.21
554.275	10058.94
554.475	9968.83
554.674	9860.29
554.874	9749.7
555.074	9462.98
555.273	9342.15
555.473	9465.03
555.672	8920.27
555.872	8776.91
556.071	8678.61
556.271	8635.6
556.47	8469.72
556.67	8258.78
556.869	7994.59
557.068	8176.86
557.268	7849.18
557.467	8015.07
557.667	7840.99
557.866	7634.14
558.065	7335.14
558.265	7273.7
558.464	7128.3
558.663	7320.81
558.863	6927.6
559.062	6923.5
559.261	6606.06
559.461	6837.49
559.66	6513.91
559.859	6487.28
560.058	6276.34
560.258	6120.7
560.457	6087.93
560.656	6210.81
560.855	5868.8
561.054	6135.03
561.253	5696.77
561.453	5719.29
561.652	5664
561.851	5625.09
562.05	5526.78
562.249	5274.88
562.448	5408
562.647	5078.28
562.846	5096.71
563.045	5223.69
563.244	4953.35
563.443	4939.02
563.642	4875.53
563.841	4713.74
564.04	4621.58
564.239	4691.21
564.438	4486.42
564.637	4420.88
564.836	4547.86
565.035	4336.92
565.234	4332.82
565.432	4128.02
565.631	4046.1
565.83	4082.97
566.029	4042.01
566.228	3990.81
566.427	4080.92
566.625	3781.92
566.824	3806.49
567.023	3656.99
567.222	3810.59
567.42	3560.73
567.619	3798.3
567.818	3489.06
568.016	3767.58
568.215	3505.44
568.414	3398.95
568.612	3276.07
568.811	3317.03
569.01	3208.48
569.208	3173.67
569.407	3261.73
569.605	3251.49
569.804	3149.09
570.002	3056.93
570.201	2954.54
570.4	2944.3
570.598	2899.24
570.797	2882.86
570.995	2731.31
571.193	2923.82
571.392	2786.6
571.59	2508.08
571.789	2751.79
571.987	2557.23
572.186	2712.88
572.384	2600.24
572.582	2573.61
572.781	2596.14
572.979	2471.22
573.177	2483.5
573.376	2481.46
573.574	2424.11
573.772	2264.37
573.971	2247.99
574.169	2108.73
574.367	2293.04
574.565	2108.73
574.763	2180.4
574.962	2059.57
575.16	2039.09
575.358	1948.98
575.556	2067.77
575.754	1975.61
575.952	1887.54
576.151	1879.35
576.349	1977.66
576.547	1690.94
576.745	1752.38
576.943	1766.71
577.141	1731.9
577.339	1682.75
577.537	1791.29
577.735	1791.29
577.933	1654.08
578.131	1715.52
578.329	1705.28
578.527	1580.35
578.725	1551.68
578.923	1473.85
579.121	1480
579.319	1383.74
579.516	1393.98
579.714	1637.69
579.912	1426.75
580.11	1406.27
580.308	1314.11
580.506	1461.57
580.704	1203.52
580.901	1322.31
581.099	1385.79
581.297	1262.91
581.495	1353.02
581.692	1211.71
581.89	1426.75
582.088	1240.39
582.285	1248.58
582.483	1133.89
582.681	1092.93
582.878	1164.61
583.076	1168.71
583.274	1158.47
583.471	1176.9
583.669	1211.71
583.866	1078.6
584.064	1011.01
584.262	959.81
584.459	984.39
584.657	994.63
584.854	1068.36
585.052	1033.54
585.249	1023.3
585.447	992.58
585.644	845.13
585.841	1011.01
586.039	1027.4
586.236	935.24
586.434	920.9
586.631	884.04
586.828	863.56
587.026	927.05
587.223	826.7
587.42	918.86
587.618	828.74
587.815	847.18
588.012	808.26
588.21	806.22
588.407	941.38
588.604	847.18
588.801	712.01
588.999	777.55
589.196	902.47
589.393	818.5
589.59	779.59
589.787	720.2
589.984	818.5
590.182	845.13
590.379	611.66
590.576	744.78
590.773	662.86
590.97	683.34
591.167	808.26
591.364	681.29
591.561	675.15
591.758	787.79
591.955	767.31
592.152	701.77
592.349	531.79
592.546	695.63
592.743	650.57
592.94	677.2
593.137	712.01
593.334	771.4
593.531	701.77
593.727	705.87
593.924	728.39
594.121	691.53
594.318	652.62
594.515	755.02
594.712	902.47
594.908	832.84
595.105	716.11
595.302	656.72
595.499	720.2
595.696	939.34
595.892	763.21
596.089	916.81
596.286	765.26
596.482	941.38
596.679	802.12
596.876	902.47
597.072	910.66
597.269	902.47
597.466	947.53
597.662	904.52
597.859	916.81
598.055	931.14
598.252	988.49
598.448	1172.8
598.645	1228.1
598.841	1146.18
599.038	1264.96
599.234	1414.46
599.431	1379.65
599.627	1242.43
599.824	1383.74
600.02	1420.61
600.217	1361.22
600.413	1539.39
600.609	1506.62
600.806	1797.43
601.002	1692.99
601.198	1705.28
601.395	1961.27
601.591	1754.43
601.787	1942.84
601.984	2014.52
602.18	2209.08
602.376	2006.33
602.572	2411.82
602.769	2471.22
602.965	2417.97
603.161	2583.85
603.357	2630.96
603.553	2848.04
603.75	2653.48
603.946	2880.81
604.142	2977.06
604.338	3153.19
604.534	3128.61
604.73	3249.44
604.926	3386.66
605.122	3423.52
605.318	3468.58
605.514	3712.28
605.71	3906.84
605.906	3988.76
606.102	3949.85
606.298	4287.76
606.494	4373.78
606.69	4580.62
606.886	4586.77
607.082	4642.06
607.278	4738.32
607.474	4877.58
607.67	5205.25
607.866	5043.46
608.062	5575.94
608.257	5659.9
608.453	5885.18
608.649	5944.57
608.845	5848.32
609.041	6110.46
609.236	6497.52
609.432	6550.77
609.628	6692.08
609.824	6984.94
610.019	7046.38
610.215	7335.14
610.411	7584.99
610.606	7589.09
610.802	7797.98
610.998	8006.88
611.193	8631.51
611.389	8385.75
611.584	8754.38
611.78	8905.93
611.976	9315.53
612.171	9520.32
612.367	9786.56
612.562	9956.54
612.758	10099.9
612.953	10149.05
613.149	10826.93
613.344	10865.84
613.539	11302.06
613.735	11619.49
613.93	11873.44
614.126	12084.38
614.321	12422.3
614.517	12956.82
614.712	13190.28
614.907	13528.2
615.103	13819.01
615.298	13855.87
615.493	14513.27
615.688	14582.9
615.884	15340.65
616.079	15539.3
616.274	16448.6
616.47	16428.12
616.665	16702.55
616.86	17243.21
617.055	17732.68
617.25	17951.81
617.445	18705.46
617.641	18791.48
617.836	19469.36
618.031	19649.58
618.226	20587.55
618.421	20929.56
618.616	21482.51
618.811	21765.13
619.006	22389.76
619.201	22594.56
619.396	23456.75
619.591	23495.66
619.786	24529.89
619.981	24603.61
620.176	25318.35
620.371	25713.61
620.566	26792.89
620.761	26899.39
620.956	27978.67
621.151	28031.91
621.346	28861.34
621.541	28814.24
621.735	30014.35
621.93	30307.21
622.125	30821.25
622.32	31034.24
622.515	31961.97
622.709	32351.08
622.904	33172.32
623.099	33495.89
623.294	34399.05
623.488	34571.08
623.683	35404.6
623.878	35767.09
624.072	36391.72
624.267	36899.62
624.462	37675.8
624.656	37651.22
624.851	38863.62
625.046	39312.13
625.24	39807.73
625.435	40329.97
625.629	40919.78
625.824	41437.92
626.018	42173.14
626.213	41781.98
626.407	43094.72
626.602	43082.44
626.796	44108.47
626.991	44235.44
627.185	44475.05
627.38	44692.14
627.574	45324.96
627.768	44980.9
627.963	45427.36
628.157	45187.75
628.352	46181.01
628.546	45316.77
628.74	46224.02
628.935	45767.32
629.129	46033.56
629.323	45365.92
629.517	45066.92
629.712	45093.54
629.906	45052.58
630.1	44462.77
630.294	44260.02
630.489	43680.44
630.683	43369.15
630.877	42232.53
631.071	41485.02
631.265	41218.78
631.459	40082.16
631.653	39195.39
631.848	38865.67
632.042	37573.4
632.236	37634.84
632.43	36121.39
632.624	35175.23
632.818	33819.47
633.012	32754.53
633.206	31968.11
633.4	31314.81
633.594	30352.26
633.788	29074.33
633.982	28357.54
634.176	27413.43
634.369	26186.69
634.563	25291.73
634.757	24277.99
634.951	23581.68
635.145	22553.6
635.339	21619.72
635.533	21003.28
635.726	20136.99
635.92	19004.47
636.114	18668.6
636.308	17751.11
636.501	17069.14
636.695	16204.89
636.889	15506.54
637.083	14875.76
637.276	14353.53
637.47	13694.08
637.664	13208.72
637.857	12735.64
638.051	12143.77
638.244	11852.96
638.438	11267.24
638.632	10919.09
638.825	10312.89
639.019	10073.28
639.212	9540.8
639.406	9180.36
639.599	8758.48
639.793	8490.2
639.986	8203.48
640.18	7752.93
640.373	7511.27
640.567	7085.29
640.76	7032.04
640.954	6802.67
641.147	6231.29
641.34	6216.95
641.534	5944.57
641.727	5803.26
641.92	5520.64
642.114	5397.76
642.307	5238.02
642.5	4996.36
642.694	4707.6
642.887	4543.76
643.08	4592.91
643.273	4453.65
643.467	4115.73
643.66	4039.96
643.853	3681.57
644.046	3773.72
644.239	3476.77
644.432	3345.7
644.626	3276.07
644.819	3185.96
645.012	3101.99
645.205	2970.92
645.398	2878.76
645.591	2620.72
645.784	2630.96
645.977	2282.8
646.17	2366.77
646.363	2381.1
646.556	2123.06
646.749	2047.29
646.942	1996.09
647.135	1905.98
647.328	1846.59
647.521	1795.39
647.714	1606.97
647.907	1738.04
648.099	1561.92
648.292	1596.73
648.485	1488.19
648.678	1391.94
648.871	1459.52
649.064	1404.22
649.256	1248.58
649.449	1191.24
649.642	1133.89
649.835	1213.76
650.027	1039.69
650.22	1133.89
650.413	1103.17
650.605	1086.79
650.798	920.9
650.991	1006.92
651.183	929.1
651.376	904.52
651.568	888.14
651.761	802.12
651.954	851.27
652.146	826.7
652.339	709.96
652.531	806.22
652.724	730.44
652.916	626
653.109	539.98
653.301	664.91
653.494	726.35
653.686	646.48
653.879	673.1
654.071	558.41
654.263	429.39
654.456	552.27
654.648	718.15
654.84	568.65
655.033	451.92
655.225	593.23
655.417	370
655.61	599.37
655.802	439.63
655.994	531.79
656.186	326.99
656.379	582.99
656.571	339.28
656.763	410.96
656.955	343.38
657.148	378.19
657.34	415.05
657.532	314.7
657.724	396.62
657.916	466.25
658.108	427.34
658.3	476.49
658.492	376.14
658.684	413.01
658.876	429.39
659.068	236.88
659.26	202.07
659.452	218.45
659.644	279.89
659.836	374.1
660.028	238.93
660.22	273.75
660.412	294.22
660.604	224.59
660.796	281.94
660.988	306.51
661.18	259.41
661.372	326.99
661.563	208.21
661.755	273.75
661.947	228.69
662.139	214.35
662.331	236.88
662.522	251.22
662.714	144.72
662.906	202.07
663.097	234.83
663.289	159.06
663.481	89.43
663.673	271.7
663.864	257.36
664.056	283.99
664.247	114
664.439	376.14
664.631	210.26
664.822	265.55
665.014	177.49
665.205	144.72
665.397	142.68
665.588	177.49
665.78	179.54
665.971	208.21
666.163	142.68
666.354	150.87
666.546	191.83
666.737	173.39
666.929	60.76
667.12	81.24
667.311	187.73
667.503	173.39
667.694	204.11
667.885	208.21
668.077	238.93
668.268	99.67
668.459	208.21
668.651	171.35
668.842	191.83
669.033	99.67
669.224	144.72
669.416	240.98
669.607	183.63
669.798	111.96
669.989	245.07
670.18	124.24
670.371	193.87
670.563	116.05
670.754	277.84
670.945	202.07
671.136	255.31
671.327	101.72
671.518	200.02
671.709	257.36
671.9	259.41
672.091	212.31
672.282	146.77
672.473	148.82
672.664	107.86
672.855	146.77
673.046	216.4
673.237	249.17
673.428	150.87
673.619	269.65
673.809	40.28
674	159.06
674.191	204.11
674.382	150.87
674.573	173.39
674.764	193.87
674.954	269.65
675.145	48.47
675.336	107.86
675.527	161.11
675.717	103.76
675.908	210.26
676.099	83.28
676.289	191.83
676.48	30.04
676.671	191.83
676.861	157.01
677.052	208.21
677.243	165.2
677.433	183.63
677.624	138.58
677.814	210.26
678.005	189.78
678.195	245.07
678.386	62.8
678.576	171.35
678.767	175.44
678.957	132.44
679.148	230.74
679.338	275.79
679.529	308.56
679.719	187.73
679.909	269.65
680.1	136.53
680.29	161.11
680.481	81.24
680.671	216.4
680.861	152.91
681.052	181.59
681.242	189.78
681.432	206.16
681.622	220.5
681.813	126.29
682.003	181.59
682.193	191.83
682.383	240.98
682.573	159.06
682.764	167.25
682.954	236.88
683.144	261.46
683.334	191.83
683.524	179.54
683.714	224.59
683.904	197.97
684.094	189.78
684.284	218.45
684.474	394.58
684.664	283.99
684.854	218.45
685.044	159.06
685.234	175.44
685.424	142.68
685.614	97.62
685.804	326.99
685.994	269.65
686.184	197.97
686.374	261.46
686.564	247.12
686.753	157.01
686.943	93.52
687.133	169.3
687.323	142.68
687.513	185.68
687.702	140.63
687.892	173.39
688.082	318.8
688.272	367.95
688.461	267.6
688.651	365.9
688.841	326.99
689.03	146.77
689.22	214.35
689.41	259.41
689.599	204.11
689.789	169.3
689.979	351.57
690.168	193.87
690.358	265.55
690.547	253.27
690.737	152.91
690.926	249.17
691.116	179.54
691.305	302.42
691.495	249.17
691.684	81.24
691.874	181.59
692.063	191.83
692.252	288.08
692.442	263.51
692.631	134.48
692.82	163.15
693.01	220.5
693.199	224.59
693.388	222.55
693.578	197.97
693.767	238.93
693.956	269.65
694.146	183.63
694.335	220.5
694.524	193.87
694.713	224.59
694.902	128.34
695.092	212.31
695.281	224.59
695.47	189.78
695.659	175.44
695.848	187.73
696.037	167.25
696.226	247.12
696.415	187.73
696.604	286.03
696.793	331.09
696.982	212.31
697.171	296.27
697.36	163.15
697.549	210.26
697.738	-21.16
697.927	154.96
698.116	163.15
698.305	251.22
698.494	191.83
698.683	157.01
698.872	261.46
699.061	136.53
699.25	157.01
699.438	183.63
699.627	183.63
699.816	292.18
700.005	142.68
700.193	195.92
700.382	197.97
700.571	224.59
700.76	200.02
700.948	294.22
701.137	202.07
701.326	269.65
701.514	71
701.703	202.07
701.892	226.64
702.08	351.57
702.269	234.83
702.457	83.28
702.646	232.79
702.834	302.42
703.023	187.73
703.212	263.51
703.4	169.3
703.589	263.51
703.777	54.61
703.965	134.48
704.154	109.91
704.342	159.06
704.531	93.52
704.719	238.93
704.907	290.13
705.096	128.34
705.284	146.77
705.472	245.07
705.661	286.03
705.849	236.88
706.037	308.56
706.226	228.69
706.414	210.26
706.602	83.28
706.79	290.13
706.979	204.11
707.167	120.15
707.355	54.61
707.543	136.53
707.731	179.54
707.919	216.4
708.107	157.01
708.296	189.78
708.484	126.29
708.672	189.78
708.86	267.6
709.048	167.25
709.236	64.85
709.424	138.58
709.612	161.11
709.8	187.73
709.988	181.59
710.176	243.03
710.364	290.13
710.551	216.4
710.739	140.63
710.927	150.87
711.115	228.69
711.303	271.7
711.491	206.16
711.679	75.09
711.866	222.55
712.054	238.93
712.242	261.46
712.43	271.7
712.617	150.87
712.805	240.98
712.993	214.35
713.181	99.67
713.368	150.87
713.556	183.63
713.744	154.96
713.931	308.56
714.119	275.79
714.306	224.59
714.494	181.59
714.682	193.87
714.869	120.15
715.057	181.59
715.244	185.68
715.432	183.63
715.619	200.02
715.807	218.45
715.994	140.63
716.182	243.03
716.369	247.12
716.556	224.59
716.744	132.44
716.931	144.72
717.119	255.31
717.306	159.06
717.493	218.45
717.681	44.37
717.868	214.35
718.055	175.44
718.242	245.07
718.43	163.15
718.617	230.74
718.804	193.87
718.991	288.08
719.179	230.74
719.366	263.51
719.553	193.87
719.74	124.24
719.927	218.45
720.114	216.4
720.301	101.72
720.488	138.58
720.676	206.16
720.863	230.74
721.05	359.76
721.237	322.9
721.424	220.5
721.611	167.25
721.798	181.59
721.985	189.78
722.172	181.59
722.358	132.44
722.545	269.65
722.732	208.21
722.919	261.46
723.106	247.12
723.293	220.5
723.48	214.35
723.667	175.44
723.853	300.37
724.04	259.41
724.227	290.13
724.414	154.96
724.6	245.07
724.787	314.7
724.974	294.22
725.161	261.46
725.347	181.59
725.534	257.36
725.72	214.35
725.907	378.19
726.094	275.79
726.28	181.59
726.467	300.37
726.653	128.34
726.84	286.03
727.027	335.18
727.213	148.82
727.4	200.02
727.586	208.21
727.773	171.35
727.959	271.7
728.145	288.08
728.332	169.3
728.518	177.49
728.705	290.13
728.891	224.59
729.077	269.65
729.264	208.21
729.45	173.39
729.636	232.79
729.823	177.49
730.009	292.18
730.195	251.22
730.382	351.57
730.568	103.76
730.754	267.6
730.94	232.79
731.126	175.44
731.313	286.03
731.499	275.79
731.685	228.69
731.871	349.52
732.057	277.84
732.243	304.46
732.429	222.55
732.615	341.33
732.801	277.84
732.987	222.55
733.173	185.68
733.359	251.22
733.545	216.4
733.731	253.27
733.917	382.29
734.103	288.08
734.289	247.12
734.475	216.4
734.661	408.91
734.847	365.9
735.033	267.6
735.219	359.76
735.404	173.39
735.59	249.17
735.776	185.68
735.962	300.37
736.148	286.03
736.333	290.13
736.519	218.45
736.705	195.92
736.89	279.89
737.076	232.79
737.262	148.82
737.447	261.46
737.633	183.63
737.819	341.33
738.004	197.97
738.19	249.17
738.375	224.59
738.561	337.23
738.747	288.08
738.932	171.35
739.118	386.38
739.303	290.13
739.489	308.56
739.674	247.12
739.859	185.68
740.045	298.32
740.23	322.9
740.416	99.67
740.601	339.28
740.786	212.31
740.972	204.11
741.157	167.25
741.342	169.3
741.528	220.5
741.713	279.89
741.898	210.26
742.084	253.27
742.269	165.2
742.454	193.87
742.639	247.12
742.824	193.87
743.01	298.32
743.195	353.62
743.38	283.99
743.565	281.94
743.75	290.13
743.935	310.61
744.12	275.79
744.305	154.96
744.49	263.51
744.675	222.55
744.86	257.36
745.045	175.44
745.23	312.66
745.415	230.74
745.6	372.05
745.785	191.83
745.97	283.99
746.155	261.46
746.34	304.46
746.525	216.4
746.71	359.76
746.895	122.2
747.079	165.2
747.264	292.18
747.449	200.02
747.634	322.9
747.819	271.7
748.003	318.8
748.188	111.96
748.373	200.02
748.557	257.36
748.742	228.69
748.927	224.59
749.111	206.16
749.296	189.78
749.481	290.13
749.665	202.07
749.85	146.77
750.034	273.75
750.219	243.03
750.404	171.35
750.588	267.6
750.773	238.93
750.957	249.17
751.141	150.87
751.326	251.22
751.51	202.07
751.695	140.63
751.879	212.31
752.064	251.22
752.248	204.11
752.432	286.03
752.617	226.64
752.801	283.99
752.985	191.83
753.17	263.51
753.354	183.63
753.538	220.5
753.722	99.67
753.907	202.07
754.091	85.33
754.275	161.11
754.459	163.15
754.643	81.24
754.828	210.26
755.012	169.3
755.196	89.43
755.38	175.44
755.564	183.63
755.748	179.54
755.932	130.39
756.116	236.88
756.3	157.01
756.484	81.24
756.668	189.78
756.852	81.24
757.036	138.58
757.22	175.44
757.404	71
757.588	36.18
757.772	120.15
757.956	38.23
758.14	191.83
758.323	66.9
758.507	81.24
758.691	44.37
758.875	167.25
759.059	257.36
759.242	126.29
759.426	126.29
759.61	136.53
759.794	17.75
759.977	165.2
760.161	331.09
760.345	179.54
760.528	208.21
760.712	179.54
760.895	146.77
761.079	154.96
761.263	32.08
761.446	64.85
761.63	146.77
761.813	214.35
761.997	36.18
762.18	97.62
762.364	171.35
762.547	81.24
762.731	99.67
762.914	130.39
763.098	128.34
763.281	136.53
763.464	118.1
763.648	105.81
763.831	85.33
764.015	21.85
764.198	208.21
764.381	17.75
764.564	138.58
764.748	101.72
764.931	181.59
765.114	85.33
765.297	154.96
765.481	40.28
765.664	64.85
765.847	42.32
766.03	157.01
766.213	132.44
766.397	42.32
766.58	5.46
766.763	187.73
766.946	91.48
767.129	36.18
767.312	56.66
767.495	109.91
767.678	17.75
767.861	66.9
768.044	87.38
768.227	79.19
768.41	154.96
768.593	77.14
768.776	48.47
768.959	36.18
769.142	161.11
769.324	167.25
769.507	75.09
769.69	7.51
769.873	144.72
770.056	249.17
770.239	85.33
770.421	177.49
770.604	66.9
770.787	99.67
770.97	87.38
771.152	7.51
771.335	81.24
771.518	54.61
771.7	273.75
771.883	247.12
772.066	120.15
772.248	179.54
772.431	152.91
772.613	114
772.796	93.52
772.978	134.48
773.161	212.31
773.343	32.08
773.526	81.24
773.708	-70.31
773.891	11.61
774.073	30.04
774.256	52.56
774.438	247.12
774.621	134.48
774.803	54.61
774.985	52.56
775.168	124.24
775.35	56.66
775.532	136.53
775.715	-8.87
775.897	91.48
776.079	77.14
776.261	34.13
776.444	114
776.626	111.96
776.808	85.33
776.99	9.56
777.173	95.57
777.355	23.89
777.537	146.77
777.719	85.33
777.901	42.32
778.083	13.65
778.265	-4.78
778.447	165.2
778.629	79.19
778.811	58.71
778.993	142.68
779.175	71
779.357	58.71
779.539	-23.21
779.721	42.32
779.903	97.62
780.085	-8.87
780.267	128.34
780.449	116.05
780.631	128.34
780.812	99.67
780.994	126.29
781.176	-4.78
781.358	-2.73
781.54	66.9
781.721	183.63
781.903	136.53
782.085	114
782.267	126.29
782.448	-31.4
782.63	7.51
782.812	60.76
782.993	38.23
783.175	68.95
783.357	11.61
783.538	21.85
783.72	-0.68
783.901	134.48
784.083	93.52
784.264	126.29
784.446	-84.65
784.627	-37.55
784.809	77.14
784.99	83.28
785.172	85.33
785.353	-4.78
785.535	148.82
785.716	79.19
785.897	50.52
786.079	36.18
786.26	111.96
786.441	40.28
786.623	-25.26
786.804	-78.51
786.985	13.65
787.167	36.18
787.348	97.62
787.529	-10.92
787.71	218.45
787.891	83.28
788.073	-15.02
788.254	-150.18
788.435	226.64
788.616	-19.11
788.797	-47.79
788.978	17.75
789.159	85.33
789.34	52.56
789.522	-19.11
789.703	-78.51
789.884	13.65
790.065	9.56
790.246	165.2
790.427	-29.35
790.607	97.62
790.788	95.57
790.969	19.8
791.15	-10.92
791.331	15.7
791.512	52.56
791.693	46.42
791.874	3.41
792.054	187.73
792.235	60.76
792.416	-12.97
792.597	23.89
792.778	5.46
792.958	23.89
793.139	77.14
793.32	77.14
793.5	-0.68
793.681	136.53
793.862	87.38
794.042	32.08
794.223	-15.02
794.404	-41.64
794.584	-96.94
794.765	5.46
794.945	32.08
795.126	154.96
795.306	103.76
795.487	87.38
795.667	81.24
795.848	32.08
796.028	-10.92
796.209	87.38
796.389	89.43
796.57	34.13
796.75	-39.59
796.93	64.85
797.111	-41.64
797.291	-19.11
797.471	68.95
797.652	17.75
797.832	-12.97
798.012	179.54
798.192	-64.17
798.373	1.37
798.553	-15.02
798.733	19.8
798.913	-27.31
799.093	-27.31
799.274	77.14
799.454	64.85
799.634	19.8
799.814	11.61
799.994	122.2
800.174	52.56
800.354	11.61
800.534	-129.7
800.714	138.58
800.894	-66.22
801.074	-131.75
801.254	-2.73
801.434	50.52
801.614	-21.16
801.794	-86.7
801.974	1705.28
802.154	-49.83
802.334	79.19
802.514	-43.69
802.693	-86.7
802.873	89.43
803.053	126.29
803.233	75.09
803.413	7.51
803.592	1.37
803.772	9.56
803.952	13.65
804.131	-86.7
804.311	71
804.491	130.39
804.67	-2.73
804.85	38.23
805.03	36.18
805.209	89.43
805.389	75.09
805.568	-8.87
805.748	-25.26
805.928	25.94
806.107	62.8
806.287	71
806.466	19.8
806.646	-21.16
806.825	23.89
807.004	-70.31
807.184	54.61
807.363	146.77
807.543	32.08
807.722	-84.65
807.901	-6.83
808.081	-12.97
808.26	-27.31
808.439	23.89
808.619	79.19
808.798	-17.07
808.977	13.65
809.156	60.76
809.336	-10.92
809.515	93.52
809.694	-90.79
809.873	-43.69
810.052	62.8
810.231	44.37
810.411	56.66
810.59	150.87
810.769	21.85
810.948	3.41
811.127	-105.13
811.306	-53.93
811.485	7.51
811.664	124.24
811.843	-33.45
812.022	54.61
812.201	25.94
812.38	-4.78
812.559	9.56
812.737	38.23
812.916	-90.79
813.095	-80.55
813.274	38.23
813.453	25.94
813.632	-12.97
813.811	103.76
813.989	-101.03
814.168	58.71
814.347	-47.79
814.526	54.61
814.704	81.24
814.883	75.09
815.062	-82.6
815.24	44.37
815.419	-0.68
815.598	27.99
815.776	-125.61
815.955	-53.93
816.133	-133.8
816.312	81.24
816.49	-21.16
816.669	40.28
816.847	-6.83
817.026	3.41
817.204	-8.87
817.383	58.71
817.561	60.76
817.74	9.56
817.918	-10.92
818.097	66.9
818.275	-12.97
818.453	21.85
818.632	114
818.81	19.8
818.988	-82.6
819.167	-33.45
819.345	-35.5
819.523	58.71
819.701	40.28
819.879	64.85
820.058	-12.97
820.236	9.56
820.414	17.75
820.592	-39.59
820.77	3.41
820.948	-70.31
821.127	-70.31
821.305	56.66
821.483	-29.35
821.661	154.96
821.839	-10.92
822.017	-55.98
822.195	-72.36
822.373	36.18
822.551	34.13
822.729	64.85
822.907	5.46
823.085	30.04
823.262	73.04
823.44	-92.84
823.618	56.66
823.796	68.95
823.974	-10.92
824.152	21.85
824.329	-70.31
824.507	-2.73
824.685	85.33
824.863	-88.75
825.04	73.04
825.218	73.04
825.396	-17.07
825.574	15.7
825.751	-2.73
825.929	44.37
826.107	-98.99
826.284	138.58
826.462	-21.16
826.639	-0.68
826.817	-53.93
826.994	1.37
827.172	-90.79
827.349	150.87
827.527	-4.78
827.704	11.61
827.882	71
828.059	-55.98
828.237	-6.83
828.414	114
828.591	-10.92
828.769	44.37
828.946	-51.88
829.124	5.46
829.301	140.63
829.478	-0.68
829.655	91.48
829.833	44.37
830.01	-148.14
830.187	54.61
830.364	-25.26
830.542	7.51
830.719	150.87
830.896	32.08
831.073	77.14
831.25	1.37
831.427	-29.35
831.604	-70.31
831.782	-31.4
831.959	9.56
832.136	11.61
832.313	46.42
832.49	-82.6
832.667	48.47
832.844	-2.73
833.021	116.05
833.198	-33.45
833.374	-17.07
833.551	77.14
833.728	-41.64
833.905	165.2
834.082	-109.22
834.259	64.85
834.436	68.95
834.612	-6.83
834.789	93.52
834.966	-23.21
835.143	-2.73
835.319	-74.41
835.496	68.95
835.673	15.7
835.85	52.56
836.026	9.56
836.203	56.66
836.38	-60.07
836.556	-80.55
836.733	-33.45
836.909	54.61
837.086	-47.79
837.262	-15.02
837.439	48.47
837.616	-41.64
837.792	27.99
837.968	-31.4
838.145	-152.23
838.321	30.04
838.498	23.89
838.674	25.94
838.851	54.61
839.027	-23.21
839.203	36.18
839.38	52.56
839.556	-55.98
839.732	105.81
839.909	-21.16
840.085	66.9
840.261	-58.03
840.437	-19.11
840.614	-60.07
840.79	109.91
840.966	50.52
841.142	-31.4
841.318	-10.92
841.494	32.08
841.671	68.95
841.847	-146.09
842.023	-0.68
842.199	50.52
842.375	79.19
842.551	-105.13
842.727	42.32
842.903	152.91
843.079	-88.75
843.255	13.65
843.431	-43.69
843.607	99.67
843.783	-199.34
843.959	73.04
844.134	-35.5
844.31	132.44
844.486	-6.83
844.662	-92.84
844.838	-51.88
845.013	38.23
845.189	38.23
845.365	23.89
845.541	1.37
845.716	-60.07
845.892	103.76
846.068	-6.83
846.244	-117.42
846.419	-6.83
846.595	-31.4
846.77	-29.35
846.946	62.8
847.122	-39.59
847.297	-90.79
847.473	148.82
847.648	-82.6
847.824	36.18
847.999	-127.66
848.175	-68.27
848.35	9.56
848.526	87.38
848.701	97.62
848.876	52.56
849.052	56.66
849.227	114
849.403	62.8
849.578	40.28
849.753	62.8
849.929	-0.68
850.104	-51.88
850.279	-90.79
850.454	-15.02
850.63	58.71
850.805	23.89
850.98	101.72
851.155	-105.13
851.33	42.32
851.505	-68.27
851.681	122.2
851.856	-25.26
852.031	91.48
852.206	48.47
852.381	-115.37
852.556	-4.78
852.731	40.28
852.906	19.8
853.081	-17.07
853.256	81.24
853.431	-6.83
853.606	-88.75
853.781	44.37
853.956	-78.51
854.131	71
854.305	44.37
854.48	42.32
854.655	-43.69
854.83	-47.79
855.005	-51.88
855.18	42.32
855.354	-29.35
855.529	36.18
855.704	9.56
855.879	52.56
856.053	-96.94
856.228	79.19
856.403	-72.36
856.577	-12.97
856.752	-80.55
856.926	-103.08
857.101	-21.16
857.276	-15.02
857.45	-0.68
857.625	75.09
857.799	-37.55
857.974	-2.73
858.148	-84.65
858.323	40.28
858.497	-51.88
858.672	-135.85
858.846	-17.07
859.02	52.56
859.195	-2.73
859.369	-15.02
859.543	-10.92
859.718	85.33
859.892	25.94
860.066	-23.21
860.241	-2.73
860.415	-43.69
860.589	3.41
860.763	-2.73
860.938	-19.11
861.112	13.65
861.286	-4.78
861.46	87.38
861.634	58.71
861.808	36.18
861.982	-72.36
862.157	-119.46
862.331	-41.64
862.505	-55.98
862.679	-53.93
862.853	-107.18
863.027	-76.46
863.201	68.95
863.375	-98.99
863.549	-0.68
863.722	25.94
863.896	93.52
864.07	-27.31
864.244	-35.5
864.418	66.9
864.592	-37.55
864.766	36.18
864.939	23.89
865.113	44.37
865.287	40.28
865.461	-96.94
865.634	-12.97
865.808	-53.93
865.982	21.85
866.156	-125.61
866.329	-84.65
866.503	-4.78
866.676	15.7
866.85	-0.68
867.024	-60.07
867.197	64.85
867.371	25.94
867.544	73.04
867.718	-154.28
867.891	64.85
868.065	19.8
868.238	-17.07
868.412	62.8
868.585	-25.26
868.759	-4.78
868.932	17.75
869.105	-51.88
869.279	-37.55
869.452	-43.69
869.625	-2.73
869.799	-64.17
869.972	-70.31
870.145	-39.59
870.319	21.85
870.492	-47.79
870.665	-39.59
870.838	-39.59
871.011	-197.29
871.185	46.42
871.358	-60.07
871.531	58.71
871.704	-92.84
871.877	7.51
872.05	-76.46
872.223	-141.99
872.396	11.61
872.569	-12.97
872.742	-113.32
872.915	-49.83
873.088	-27.31
873.261	-37.55
873.434	103.76
873.607	-66.22
873.78	97.62
873.953	-66.22
874.126	21.85
874.299	36.18
874.471	-66.22
874.644	-58.03
874.817	32.08
874.99	105.81
875.163	-37.55
875.335	66.9
875.508	19.8
875.681	75.09
875.853	-66.22
876.026	46.42
876.199	11.61
876.371	21.85
876.544	-78.51
876.717	21.85
876.889	-98.99
877.062	38.23
877.234	-37.55
877.407	-29.35
877.579	-17.07
877.752	17.75
877.924	23.89
878.097	36.18
878.269	46.42
878.442	15.7
878.614	-2.73
878.786	-29.35
878.959	11.61
879.131	17.75
879.303	-103.08
879.476	-33.45
879.648	56.66
879.82	-33.45
879.993	15.7
880.165	-41.64
880.337	54.61
880.509	7.51
880.681	-123.56
880.854	-23.21
881.026	68.95
881.198	134.48
881.37	62.8
881.542	-19.11
881.714	-19.11
881.886	-66.22
882.058	134.48
882.23	27.99
882.402	-94.89
882.574	-33.45
882.746	30.04
882.918	126.29
883.09	30.04
883.262	19.8
883.434	-35.5
883.606	-113.32
883.778	46.42
883.95	87.38
884.122	-33.45
884.293	71
884.465	25.94
884.637	165.2
884.809	-58.03
884.98	93.52
885.152	-15.02
885.324	87.38
885.496	-15.02
885.667	-60.07
885.839	36.18
886.011	58.71
886.182	44.37
886.354	32.08
886.525	-2.73
886.697	15.7
886.869	-8.87
887.04	-21.16
887.212	36.18
887.383	109.91
887.555	11.61
887.726	-53.93
887.897	-21.16
888.069	-55.98
888.24	42.32
888.412	44.37
888.583	50.52
888.754	-107.18
888.926	-64.17
889.097	-25.26
889.268	-107.18
889.44	48.47
889.611	-101.03
889.782	-68.27
889.953	-105.13
890.125	99.67
890.296	-109.22
890.467	-33.45
890.638	-12.97
890.809	17.75
890.98	-25.26
891.151	34.13
891.323	32.08
891.494	-33.45
891.665	58.71
891.836	-27.31
892.007	21.85
892.178	60.76
892.349	44.37
892.52	-12.97
892.691	7.51
892.862	-17.07
893.032	-21.16
893.203	38.23
893.374	68.95
893.545	93.52
893.716	-66.22
893.887	48.47
894.057	-12.97
894.228	-17.07
894.399	-41.64
894.57	1.37
894.74	-0.68
894.911	-58.03
895.082	-6.83
895.253	-23.21
895.423	62.8
895.594	71
895.764	44.37
895.935	-74.41
896.106	-6.83
896.276	-15.02
896.447	-8.87
896.617	-15.02
896.788	-72.36
896.958	-41.64
897.129	-31.4
897.299	-66.22
897.47	38.23
897.64	19.8
897.81	-2.73
897.981	-43.69
898.151	-76.46
898.322	68.95
898.492	3.41
898.662	-119.46
898.832	-135.85
899.003	1.37
899.173	-51.88
899.343	-35.5
899.513	-129.7
