Data from USB4F104151__99__10-45-19-664.txt Node

Date: Wed Feb 26 10:45:19 EST 2025
User: louis
Spectrometer: USB4F10415
Trigger mode: 4
Integration Time (sec): 1.000000E-1
Scans to average: 1
Electric dark correction enabled: true
Nonlinearity correction enabled: false
Boxcar width: 0
XAxis mode: Wavelengths
Number of Pixels in Spectrum: 3648
>>>>>Begin Spectral Data<<<<<
178.204	-395.09
178.424	-395.09
178.644	-395.09
178.864	-401.23
179.084	-388.94
179.304	10.41
179.524	-34.64
179.744	16.55
179.964	-1.88
180.184	63.66
180.404	116.9
180.624	-28.5
180.844	-12.12
181.064	-5.97
181.283	-69.46
181.503	-108.37
181.723	53.42
181.943	-98.13
182.163	225.45
182.383	-53.08
182.602	30.89
182.822	180.39
183.042	94.38
183.262	47.27
183.482	82.09
183.701	77.99
183.921	92.33
184.141	47.27
184.361	61.61
184.58	108.71
184.8	67.75
185.02	-44.88
185.239	151.72
185.459	77.99
185.679	164.01
185.898	-1.88
186.118	94.38
186.338	41.13
186.557	12.46
186.777	-26.45
186.997	-44.88
187.216	98.47
187.436	151.72
187.655	96.43
187.875	45.23
188.095	37.03
188.314	100.52
188.534	188.58
188.753	-73.56
188.973	186.54
189.192	245.93
189.412	10.41
189.631	84.14
189.851	127.14
190.07	153.77
190.29	-42.84
190.509	12.46
190.729	30.89
190.948	143.53
191.168	295.08
191.387	145.58
191.607	14.51
191.826	80.04
192.045	57.51
192.265	-10.07
192.484	94.38
192.704	75.95
192.923	-14.17
193.142	190.63
193.362	155.82
193.581	141.48
193.8	84.14
194.02	133.29
194.239	26.79
194.458	71.85
194.678	8.36
194.897	41.13
195.116	8.36
195.335	24.75
195.555	73.9
195.774	104.62
195.993	170.15
196.212	82.09
196.432	18.6
196.651	6.31
196.87	86.19
197.089	254.12
197.308	118.95
197.528	77.99
197.747	-22.36
197.966	84.14
198.185	161.96
198.404	16.55
198.623	94.38
198.842	139.43
199.062	82.09
199.281	77.99
199.5	112.81
199.719	159.91
199.938	143.53
200.157	153.77
200.376	114.86
200.595	131.24
200.814	108.71
201.033	67.75
201.252	227.5
201.471	41.13
201.69	131.24
201.909	0.17
202.128	168.1
202.347	159.91
202.566	51.37
202.785	-59.22
203.004	-16.21
203.223	362.66
203.442	53.42
203.661	-61.27
203.879	43.18
204.098	202.92
204.317	-40.79
204.536	198.82
204.755	55.47
204.974	80.04
205.193	-91.99
205.411	94.38
205.63	139.43
205.849	73.9
206.068	69.8
206.287	-18.26
206.505	118.95
206.724	92.33
206.943	41.13
207.162	32.94
207.381	127.14
207.599	37.03
207.818	137.38
208.037	-24.4
208.255	65.71
208.474	137.38
208.693	155.82
208.911	104.62
209.13	151.72
209.349	71.85
209.567	114.86
209.786	110.76
210.005	71.85
210.223	39.08
210.442	-48.98
210.661	39.08
210.879	24.75
211.098	61.61
211.316	26.79
211.535	49.32
211.753	129.19
211.972	69.8
212.191	37.03
212.409	75.95
212.628	186.54
212.846	24.75
213.065	82.09
213.283	194.73
213.502	53.42
213.72	106.67
213.938	22.7
214.157	92.33
214.375	88.23
214.594	71.85
214.812	155.82
215.031	37.03
215.249	43.18
215.467	102.57
215.686	108.71
215.904	182.44
216.122	67.75
216.341	180.39
216.559	65.71
216.778	202.92
216.996	151.72
217.214	-20.31
217.432	-26.45
217.651	-36.69
217.869	123.05
218.087	67.75
218.306	-10.07
218.524	71.85
218.742	57.51
218.96	137.38
219.179	28.84
219.397	20.65
219.615	209.06
219.833	145.58
220.051	-12.12
220.27	100.52
220.488	147.62
220.706	178.34
220.924	53.42
221.142	-5.97
221.36	118.95
221.578	174.25
221.796	32.94
222.015	55.47
222.233	84.14
222.451	192.68
222.669	47.27
222.887	82.09
223.105	-20.31
223.323	-14.17
223.541	-67.41
223.759	63.66
223.977	-5.97
224.195	159.91
224.413	96.43
224.631	71.85
224.849	147.62
225.067	264.36
225.285	16.55
225.503	41.13
225.721	-73.56
225.939	84.14
226.157	26.79
226.375	209.06
226.592	51.37
226.81	45.23
227.028	108.71
227.246	139.43
227.464	80.04
227.682	49.32
227.9	28.84
228.117	153.77
228.335	102.57
228.553	61.61
228.771	61.61
228.989	121
229.206	145.58
229.424	65.71
229.642	82.09
229.86	-3.93
230.077	159.91
230.295	125.1
230.513	157.86
230.731	96.43
230.948	225.45
231.166	184.49
231.384	20.65
231.601	-26.45
231.819	196.78
232.037	69.8
232.254	-36.69
232.472	67.75
232.689	-114.52
232.907	194.73
233.125	28.84
233.342	-20.31
233.56	26.79
233.777	59.56
233.995	55.47
234.213	141.48
234.43	77.99
234.648	30.89
234.865	-10.07
235.083	125.1
235.3	65.71
235.518	98.47
235.735	139.43
235.953	123.05
236.17	49.32
236.388	100.52
236.605	90.28
236.822	157.86
237.04	110.76
237.257	102.57
237.475	-30.55
237.692	51.37
237.909	71.85
238.127	73.9
238.344	125.1
238.562	53.42
238.779	37.03
238.996	0.17
239.214	51.37
239.431	110.76
239.648	32.94
239.865	164.01
240.083	90.28
240.3	41.13
240.517	8.36
240.735	59.56
240.952	45.23
241.169	104.62
241.386	110.76
241.603	12.46
241.821	-30.55
242.038	55.47
242.255	155.82
242.472	16.55
242.689	12.46
242.907	37.03
243.124	108.71
243.341	20.65
243.558	45.23
243.775	-48.98
243.992	-20.31
244.209	90.28
244.426	237.74
244.643	149.67
244.86	121
245.078	143.53
245.295	129.19
245.512	77.99
245.729	24.75
245.946	100.52
246.163	104.62
246.38	14.51
246.597	73.9
246.814	45.23
247.031	45.23
247.248	6.31
247.464	131.24
247.681	-26.45
247.898	137.38
248.115	125.1
248.332	49.32
248.549	100.52
248.766	225.45
248.983	118.95
249.2	57.51
249.417	164.01
249.633	-12.12
249.85	47.27
250.067	-40.79
250.284	77.99
250.501	73.9
250.717	116.9
250.934	-36.69
251.151	53.42
251.368	-22.36
251.585	145.58
251.801	106.67
252.018	22.7
252.235	196.78
252.451	20.65
252.668	26.79
252.885	86.19
253.102	61.61
253.318	-36.69
253.535	80.04
253.752	14.51
253.968	30.89
254.185	32.94
254.401	94.38
254.618	-8.02
254.835	55.47
255.051	194.73
255.268	59.56
255.484	45.23
255.701	30.89
255.917	84.14
256.134	-18.26
256.351	22.7
256.567	0.17
256.784	-3.93
257	12.46
257.217	104.62
257.433	63.66
257.65	127.14
257.866	127.14
258.082	20.65
258.299	96.43
258.515	53.42
258.732	-30.55
258.948	-22.36
259.165	61.61
259.381	86.19
259.597	98.47
259.814	84.14
260.03	112.81
260.246	45.23
260.463	125.1
260.679	118.95
260.895	57.51
261.112	39.08
261.328	10.41
261.544	28.84
261.761	198.82
261.977	51.37
262.193	65.71
262.409	184.49
262.626	71.85
262.842	57.51
263.058	49.32
263.274	55.47
263.49	16.55
263.707	90.28
263.923	49.32
264.139	-57.17
264.355	75.95
264.571	114.86
264.787	-18.26
265.004	127.14
265.22	57.51
265.436	24.75
265.652	77.99
265.868	92.33
266.084	61.61
266.3	6.31
266.516	-8.02
266.732	55.47
266.948	-8.02
267.164	37.03
267.38	57.51
267.596	92.33
267.812	229.54
268.028	10.41
268.244	30.89
268.46	96.43
268.676	37.03
268.892	110.76
269.108	-26.45
269.324	12.46
269.54	-10.07
269.756	114.86
269.972	28.84
270.188	47.27
270.403	-30.55
270.619	92.33
270.835	49.32
271.051	65.71
271.267	20.65
271.483	8.36
271.698	164.01
271.914	14.51
272.13	112.81
272.346	67.75
272.562	123.05
272.777	157.86
272.993	51.37
273.209	-18.26
273.425	57.51
273.64	43.18
273.856	145.58
274.072	41.13
274.287	65.71
274.503	141.48
274.719	82.09
274.934	69.8
275.15	-81.75
275.366	77.99
275.581	47.27
275.797	28.84
276.012	69.8
276.228	37.03
276.444	-18.26
276.659	186.54
276.875	-65.36
277.09	6.31
277.306	-30.55
277.521	106.67
277.737	69.8
277.952	129.19
278.168	71.85
278.383	127.14
278.599	69.8
278.814	127.14
279.03	55.47
279.245	143.53
279.461	80.04
279.676	168.1
279.892	-40.79
280.107	-10.07
280.322	-26.45
280.538	59.56
280.753	-57.17
280.969	145.58
281.184	94.38
281.399	116.9
281.615	41.13
281.83	110.76
282.045	-5.97
282.26	-34.64
282.476	53.42
282.691	143.53
282.906	149.67
283.122	30.89
283.337	-22.36
283.552	37.03
283.767	37.03
283.983	149.67
284.198	18.6
284.413	133.29
284.628	-96.08
284.843	59.56
285.058	90.28
285.274	131.24
285.489	26.79
285.704	118.95
285.919	32.94
286.134	102.57
286.349	92.33
286.564	20.65
286.779	149.67
286.995	-53.08
287.21	12.46
287.425	143.53
287.64	-10.07
287.855	90.28
288.07	-61.27
288.285	108.71
288.5	170.15
288.715	149.67
288.93	63.66
289.145	43.18
289.36	75.95
289.575	43.18
289.79	112.81
290.004	53.42
290.219	100.52
290.434	-1.88
290.649	18.6
290.864	92.33
291.079	41.13
291.294	108.71
291.509	108.71
291.724	53.42
291.938	28.84
292.153	135.34
292.368	65.71
292.583	0.17
292.798	116.9
293.012	69.8
293.227	84.14
293.442	26.79
293.657	159.91
293.871	213.16
294.086	96.43
294.301	280.74
294.516	118.95
294.73	92.33
294.945	10.41
295.16	57.51
295.374	180.39
295.589	133.29
295.804	8.36
296.018	8.36
296.233	112.81
296.447	67.75
296.662	37.03
296.877	217.26
297.091	77.99
297.306	75.95
297.52	0.17
297.735	88.23
297.949	-16.21
298.164	16.55
298.378	106.67
298.593	18.6
298.807	41.13
299.022	49.32
299.236	166.06
299.451	20.65
299.665	-8.02
299.88	80.04
300.094	84.14
300.309	-18.26
300.523	90.28
300.737	-3.93
300.952	82.09
301.166	30.89
301.381	-20.31
301.595	-34.64
301.809	49.32
302.024	84.14
302.238	-12.12
302.452	155.82
302.667	53.42
302.881	188.58
303.095	192.68
303.309	73.9
303.524	61.61
303.738	73.9
303.952	61.61
304.166	100.52
304.381	-32.6
304.595	161.96
304.809	10.41
305.023	20.65
305.237	-3.93
305.452	41.13
305.666	73.9
305.88	141.48
306.094	75.95
306.308	57.51
306.522	116.9
306.736	151.72
306.95	180.39
307.164	92.33
307.379	6.31
307.593	221.35
307.807	190.63
308.021	53.42
308.235	123.05
308.449	-57.17
308.663	166.06
308.877	245.93
309.091	86.19
309.305	110.76
309.519	-18.26
309.733	143.53
309.947	-94.04
310.161	65.71
310.374	200.87
310.588	133.29
310.802	-94.04
311.016	-28.5
311.23	143.53
311.444	43.18
311.658	106.67
311.872	131.24
312.085	186.54
312.299	172.2
312.513	161.96
312.727	73.9
312.941	-36.69
313.154	67.75
313.368	73.9
313.582	145.58
313.796	108.71
314.009	51.37
314.223	186.54
314.437	121
314.651	110.76
314.864	53.42
315.078	2.22
315.292	-36.69
315.505	-10.07
315.719	82.09
315.933	112.81
316.146	12.46
316.36	84.14
316.573	254.12
316.787	84.14
317.001	61.61
317.214	20.65
317.428	84.14
317.641	34.99
317.855	57.51
318.068	18.6
318.282	65.71
318.495	192.68
318.709	102.57
318.922	84.14
319.136	135.34
319.349	106.67
319.563	92.33
319.776	63.66
319.99	65.71
320.203	108.71
320.417	75.95
320.63	30.89
320.843	192.68
321.057	28.84
321.27	67.75
321.483	65.71
321.697	196.78
321.91	51.37
322.124	108.71
322.337	100.52
322.55	8.36
322.763	53.42
322.977	55.47
323.19	-3.93
323.403	49.32
323.617	69.8
323.83	92.33
324.043	-24.4
324.256	123.05
324.469	45.23
324.683	108.71
324.896	30.89
325.109	49.32
325.322	-65.36
325.535	157.86
325.748	98.47
325.962	12.46
326.175	98.47
326.388	71.85
326.601	131.24
326.814	-14.17
327.027	123.05
327.24	178.34
327.453	-44.88
327.666	145.58
327.879	127.14
328.092	22.7
328.305	80.04
328.518	71.85
328.731	75.95
328.944	0.17
329.157	80.04
329.37	-32.6
329.583	176.3
329.796	129.19
330.009	-3.93
330.222	118.95
330.435	123.05
330.648	77.99
330.861	49.32
331.073	63.66
331.286	172.2
331.499	94.38
331.712	-20.31
331.925	45.23
332.138	98.47
332.35	135.34
332.563	6.31
332.776	123.05
332.989	24.75
333.202	61.61
333.414	69.8
333.627	39.08
333.84	-12.12
334.053	14.51
334.265	53.42
334.478	8.36
334.691	110.76
334.903	71.85
335.116	-22.36
335.329	34.99
335.541	100.52
335.754	123.05
335.966	22.7
336.179	39.08
336.392	30.89
336.604	30.89
336.817	131.24
337.029	104.62
337.242	43.18
337.454	24.75
337.667	12.46
337.88	104.62
338.092	61.61
338.305	102.57
338.517	94.38
338.729	63.66
338.942	250.02
339.154	4.27
339.367	39.08
339.579	102.57
339.792	-51.03
340.004	151.72
340.217	16.55
340.429	26.79
340.641	32.94
340.854	65.71
341.066	59.56
341.278	145.58
341.491	186.54
341.703	30.89
341.915	114.86
342.128	114.86
342.34	16.55
342.552	-77.65
342.764	28.84
342.977	-20.31
343.189	71.85
343.401	131.24
343.613	-42.84
343.826	118.95
344.038	-59.22
344.25	127.14
344.462	10.41
344.674	63.66
344.886	108.71
345.099	67.75
345.311	133.29
345.523	20.65
345.735	30.89
345.947	41.13
346.159	118.95
346.371	114.86
346.583	106.67
346.795	239.78
347.007	-24.4
347.219	75.95
347.431	34.99
347.643	131.24
347.855	-48.98
348.067	121
348.279	30.89
348.491	90.28
348.703	28.84
348.915	98.47
349.127	57.51
349.339	86.19
349.551	26.79
349.763	28.84
349.975	75.95
350.187	106.67
350.399	125.1
350.61	75.95
350.822	59.56
351.034	30.89
351.246	61.61
351.458	118.95
351.669	125.1
351.881	61.61
352.093	196.78
352.305	86.19
352.517	139.43
352.728	147.62
352.94	157.86
353.152	67.75
353.363	-40.79
353.575	30.89
353.787	221.35
353.999	112.81
354.21	247.97
354.422	-24.4
354.633	-38.74
354.845	82.09
355.057	65.71
355.268	2.22
355.48	155.82
355.692	-53.08
355.903	-14.17
356.115	28.84
356.326	-114.52
356.538	184.49
356.749	123.05
356.961	202.92
357.172	34.99
357.384	61.61
357.595	282.79
357.807	18.6
358.018	-28.5
358.23	129.19
358.441	180.39
358.653	73.9
358.864	84.14
359.075	24.75
359.287	61.61
359.498	110.76
359.709	121
359.921	143.53
360.132	82.09
360.344	39.08
360.555	43.18
360.766	32.94
360.977	57.51
361.189	77.99
361.4	-12.12
361.611	108.71
361.823	192.68
362.034	39.08
362.245	-1.88
362.456	61.61
362.667	127.14
362.879	-28.5
363.09	30.89
363.301	75.95
363.512	24.75
363.723	-30.55
363.935	-5.97
364.146	57.51
364.357	34.99
364.568	57.51
364.779	16.55
364.99	196.78
365.201	10.41
365.412	118.95
365.623	-44.88
365.834	164.01
366.045	63.66
366.256	174.25
366.467	174.25
366.678	92.33
366.889	45.23
367.1	-16.21
367.311	96.43
367.522	73.9
367.733	73.9
367.944	135.34
368.155	34.99
368.366	18.6
368.577	116.9
368.788	196.78
368.999	-1.88
369.209	30.89
369.42	190.63
369.631	258.21
369.842	80.04
370.053	59.56
370.264	104.62
370.474	-16.21
370.685	47.27
370.896	45.23
371.107	147.62
371.317	129.19
371.528	-57.17
371.739	229.54
371.95	43.18
372.16	92.33
372.371	24.75
372.582	14.51
372.792	121
373.003	116.9
373.214	80.04
373.424	125.1
373.635	47.27
373.846	176.3
374.056	92.33
374.267	139.43
374.477	90.28
374.688	-12.12
374.898	86.19
375.109	75.95
375.319	90.28
375.53	157.86
375.74	125.1
375.951	20.65
376.161	151.72
376.372	41.13
376.582	26.79
376.793	30.89
377.003	30.89
377.214	16.55
377.424	82.09
377.635	59.56
377.845	45.23
378.055	200.87
378.266	-79.7
378.476	61.61
378.686	32.94
378.897	41.13
379.107	96.43
379.317	102.57
379.528	-12.12
379.738	133.29
379.948	-32.6
380.158	118.95
380.369	63.66
380.579	182.44
380.789	65.71
380.999	63.66
381.21	127.14
381.42	151.72
381.63	28.84
381.84	110.76
382.05	145.58
382.261	231.59
382.471	121
382.681	8.36
382.891	108.71
383.101	65.71
383.311	-18.26
383.521	96.43
383.731	104.62
383.941	157.86
384.151	32.94
384.361	143.53
384.571	90.28
384.781	73.9
384.991	178.34
385.201	213.16
385.411	168.1
385.621	55.47
385.831	133.29
386.041	53.42
386.251	86.19
386.461	45.23
386.671	51.37
386.881	106.67
387.091	100.52
387.301	118.95
387.511	96.43
387.72	57.51
387.93	123.05
388.14	-69.46
388.35	80.04
388.56	14.51
388.769	127.14
388.979	34.99
389.189	-16.21
389.399	159.91
389.609	102.57
389.818	77.99
390.028	39.08
390.238	145.58
390.447	16.55
390.657	98.47
390.867	24.75
391.076	-12.12
391.286	88.23
391.496	94.38
391.705	71.85
391.915	198.82
392.125	245.93
392.334	47.27
392.544	49.32
392.753	63.66
392.963	45.23
393.172	82.09
393.382	41.13
393.591	133.29
393.801	41.13
394.01	176.3
394.22	106.67
394.429	57.51
394.639	51.37
394.848	57.51
395.058	108.71
395.267	-22.36
395.477	172.2
395.686	39.08
395.895	221.35
396.105	219.3
396.314	18.6
396.524	45.23
396.733	127.14
396.942	176.3
397.152	82.09
397.361	164.01
397.57	221.35
397.78	69.8
397.989	69.8
398.198	245.93
398.407	-1.88
398.617	43.18
398.826	39.08
399.035	63.66
399.244	53.42
399.453	51.37
399.663	80.04
399.872	157.86
400.081	34.99
400.29	235.69
400.499	73.9
400.708	147.62
400.917	86.19
401.127	34.99
401.336	28.84
401.545	196.78
401.754	178.34
401.963	112.81
402.172	59.56
402.381	-48.98
402.59	-28.5
402.799	86.19
403.008	98.47
403.217	161.96
403.426	141.48
403.635	-10.07
403.844	-14.17
404.053	92.33
404.262	28.84
404.471	168.1
404.68	110.76
404.888	88.23
405.097	69.8
405.306	188.58
405.515	123.05
405.724	53.42
405.933	204.97
406.142	135.34
406.35	110.76
406.559	59.56
406.768	114.86
406.977	164.01
407.185	114.86
407.394	61.61
407.603	-53.08
407.812	92.33
408.02	131.24
408.229	145.58
408.438	145.58
408.646	22.7
408.855	28.84
409.064	53.42
409.272	-18.26
409.481	176.3
409.69	69.8
409.898	41.13
410.107	45.23
410.315	100.52
410.524	88.23
410.733	51.37
410.941	-1.88
411.15	133.29
411.358	51.37
411.567	71.85
411.775	129.19
411.984	57.51
412.192	141.48
412.401	-26.45
412.609	176.3
412.818	198.82
413.026	100.52
413.234	49.32
413.443	16.55
413.651	41.13
413.86	-10.07
414.068	194.73
414.276	231.59
414.485	-32.6
414.693	264.36
414.901	114.86
415.11	65.71
415.318	55.47
415.526	67.75
415.734	141.48
415.943	106.67
416.151	112.81
416.359	98.47
416.567	131.24
416.776	123.05
416.984	82.09
417.192	186.54
417.4	-5.97
417.608	59.56
417.817	-71.51
418.025	110.76
418.233	192.68
418.441	14.51
418.649	61.61
418.857	96.43
419.065	178.34
419.273	75.95
419.481	110.76
419.689	41.13
419.897	-16.21
420.105	43.18
420.313	69.8
420.521	114.86
420.729	155.82
420.937	24.75
421.145	-18.26
421.353	192.68
421.561	254.12
421.769	84.14
421.977	22.7
422.185	112.81
422.393	69.8
422.601	92.33
422.809	51.37
423.017	178.34
423.224	131.24
423.432	229.54
423.64	0.17
423.848	114.86
424.056	39.08
424.263	127.14
424.471	59.56
424.679	172.2
424.887	26.79
425.094	184.49
425.302	110.76
425.51	69.8
425.718	198.82
425.925	45.23
426.133	8.36
426.341	278.69
426.548	102.57
426.756	28.84
426.964	133.29
427.171	65.71
427.379	116.9
427.586	96.43
427.794	209.06
428.001	137.38
428.209	110.76
428.417	239.78
428.624	172.2
428.832	157.86
429.039	121
429.247	12.46
429.454	143.53
429.662	211.11
429.869	184.49
430.076	188.58
430.284	227.5
430.491	170.15
430.699	231.59
430.906	233.64
431.114	108.71
431.321	168.1
431.528	129.19
431.736	116.9
431.943	229.54
432.15	200.87
432.358	202.92
432.565	327.85
432.772	92.33
432.979	268.45
433.187	190.63
433.394	229.54
433.601	151.72
433.808	286.89
434.016	319.65
434.223	223.4
434.43	250.02
434.637	311.46
434.844	321.7
435.052	227.5
435.259	315.56
435.466	260.26
435.673	293.03
435.88	303.27
436.087	377
436.294	372.9
436.501	313.51
436.708	299.17
436.915	381.09
437.122	368.81
437.329	286.89
437.537	407.72
437.743	364.71
437.95	491.68
438.157	436.39
438.364	372.9
438.571	475.3
438.778	467.11
438.985	546.98
439.192	551.07
439.399	434.34
439.606	473.25
439.813	659.62
440.02	626.85
440.227	592.03
440.433	532.64
440.64	536.74
440.847	557.22
441.054	665.76
441.261	710.82
441.467	700.58
441.674	692.38
441.881	817.31
442.088	694.43
442.294	794.78
442.501	817.31
442.708	821.41
442.914	843.93
443.121	901.28
443.328	942.24
443.534	1075.35
443.741	1018.01
443.948	841.89
444.154	1067.16
444.361	1140.89
444.568	1104.03
444.774	1083.55
444.981	1067.16
445.187	1198.23
445.394	1245.34
445.6	1314.97
445.807	1394.84
446.013	1425.56
446.22	1380.5
446.426	1556.63
446.633	1507.48
446.839	1829.01
447.046	1487
447.252	1722.51
447.459	1605.78
447.665	1722.51
447.871	1941.65
448.078	2091.15
448.284	1921.17
448.491	2105.48
448.697	2338.95
448.903	2275.46
449.11	2429.06
449.316	2300.04
449.522	2392.2
449.728	2449.54
449.935	2609.28
450.141	2773.12
450.347	2963.58
450.553	2869.37
450.76	2975.87
450.966	3182.71
451.172	3172.47
451.378	3268.73
451.584	3414.13
451.791	3584.12
451.997	3727.47
452.203	3866.74
452.409	4028.53
452.615	4106.35
452.821	4032.62
453.027	4077.68
453.233	4683.88
453.44	4491.37
453.646	4647.01
453.852	4823.14
454.058	5052.51
454.264	5089.37
454.47	5552.21
454.676	5564.5
454.882	6185.04
455.088	5763.15
455.294	6015.05
455.5	6568.01
455.705	6897.73
455.911	6942.78
456.117	7163.97
456.323	7487.54
456.529	7327.8
456.735	8114.22
456.941	8273.96
457.147	8482.86
457.352	8730.66
457.558	9224.22
457.764	9621.53
457.97	9811.99
458.176	10022.93
458.381	10756.1
458.587	10909.7
458.793	11309.05
458.999	11282.43
459.204	12965.86
459.41	13254.62
459.616	12898.28
459.821	13778.9
460.027	14409.68
460.233	15105.99
460.438	15138.76
460.644	15763.39
460.85	16215.99
461.055	16711.6
461.261	17811.35
461.466	17098.66
461.672	17438.62
461.878	19746.69
462.083	19453.83
462.289	19916.67
462.494	20514.67
462.7	20676.46
462.905	20883.31
463.111	22523.73
463.316	23650.11
463.522	24549.17
463.727	24940.33
463.932	26072.86
464.138	26851.09
464.343	27717.38
464.549	27977.47
464.754	30236.38
464.959	30772.95
465.165	31276.75
465.37	31162.06
465.575	31248.08
465.781	33445.55
465.986	34113.19
466.191	33762.98
466.397	33756.84
466.602	33326.77
466.807	35198.61
467.012	36116.1
467.218	36574.84
467.423	36425.34
467.628	37809.77
467.833	39134.81
468.038	38596.19
468.244	38049.38
468.449	40017.48
468.654	39528.02
468.859	39030.36
469.064	39171.67
469.269	38409.82
469.474	38778.46
469.679	39704.14
469.885	38719.07
470.09	39519.82
470.295	39521.87
470.5	38485.6
470.705	38536.8
470.91	37664.36
471.115	37314.16
471.32	38196.84
471.525	37803.63
471.73	36540.03
471.935	36521.6
472.139	34694.81
472.344	35198.61
472.549	34764.44
472.754	34162.34
472.959	33529.52
473.164	32366.27
473.369	31901.38
473.574	32908.98
473.778	32204.48
473.983	31678.15
474.188	30975.7
474.393	29617.89
474.598	29673.19
474.802	28919.54
475.007	28391.16
475.212	28165.88
475.417	27059.98
475.621	26658.58
475.826	26677.01
476.031	25878.3
476.235	25274.15
476.44	25704.23
476.645	24969.01
476.849	24477.49
477.054	23822.14
477.259	23627.59
477.463	23631.68
477.668	23064.39
477.872	22986.57
478.077	22292.31
478.282	21505.89
478.486	21337.96
478.691	20889.45
478.895	21237.61
479.1	20887.4
479.304	21034.86
479.509	20074.36
479.713	20387.7
479.918	19656.57
480.122	19345.28
480.326	19584.9
480.531	19728.25
480.735	19322.76
480.94	18909.07
481.144	19353.48
481.348	18429.84
481.553	18497.42
481.757	18057.11
481.961	18257.81
482.166	18583.44
482.37	17954.71
482.574	17668
482.778	17772.44
482.983	17934.23
483.187	17561.5
483.391	17534.88
483.595	17170.34
483.8	17088.42
484.004	17311.65
484.208	17026.98
484.412	16895.91
484.616	16457.65
484.821	16486.32
485.025	16068.53
485.229	16181.17
485.433	15583.16
485.637	15638.46
485.841	15441.86
486.045	15198.15
486.249	15097.8
486.453	14729.16
486.657	14806.98
486.861	14507.98
487.065	13852.63
487.269	14069.72
487.473	13322.21
487.677	13453.28
487.881	13492.19
488.085	12904.42
488.289	12842.98
488.493	12599.27
488.697	12662.76
488.901	12150.77
489.105	11993.08
489.309	11876.34
489.512	11851.77
489.716	11481.08
489.92	11309.05
490.124	11106.31
490.328	11241.47
490.531	10760.2
490.735	10594.31
490.939	10319.89
491.143	10100.75
491.346	10018.83
491.55	10035.22
491.754	9601.05
491.958	9508.89
492.161	9392.16
492.365	9218.08
492.569	9054.24
492.772	8867.88
492.976	8814.63
493.18	8824.87
493.383	8763.43
493.587	8640.55
493.79	8607.78
493.994	8210.48
494.197	8073.26
494.401	8222.77
494.605	7948.34
494.808	8116.27
495.012	7794.74
495.215	7764.02
495.419	7991.34
495.622	7487.54
495.825	7761.97
496.029	7487.54
496.232	7700.53
496.436	7520.31
496.639	7589.94
496.843	7569.46
497.046	7460.92
497.249	7544.89
497.453	7419.96
497.656	7610.42
497.859	7497.78
498.063	7563.32
498.266	7764.02
498.469	7485.5
498.673	7569.46
498.876	7551.03
499.079	7669.81
499.282	7682.1
499.485	7895.09
499.689	7866.42
499.892	7804.98
500.095	7682.1
500.298	7858.23
500.501	7684.15
500.705	8224.81
500.908	8110.13
501.111	8069.17
501.314	8095.79
501.517	8325.16
501.72	8185.9
501.923	8286.25
502.126	8417.32
502.329	8585.26
502.532	8790.05
502.735	8552.49
502.938	8957.99
503.141	8855.59
503.344	9019.43
503.547	9240.61
503.75	9185.31
503.953	9357.34
504.156	9386.01
504.359	9517.08
504.562	9777.17
504.765	9994.26
504.968	10033.17
505.17	10158.1
505.373	10160.14
505.576	10399.76
505.779	10586.12
505.982	10881.03
506.185	10831.88
506.387	10991.62
506.59	11259.9
506.793	11661.3
506.996	11554.81
507.198	11997.17
507.401	11806.71
507.604	12517.36
507.807	12785.64
508.009	12900.33
508.212	13113.31
508.415	13135.84
508.617	13365.21
508.82	13854.68
509.022	14022.61
509.225	14436.3
509.428	14880.71
509.63	14862.28
509.833	15036.36
510.035	15497.15
510.238	15828.92
510.44	16211.89
510.643	16580.53
510.845	17121.19
511.048	17248.16
511.25	17606.56
511.453	17885.08
511.655	18847.63
511.858	18861.96
512.06	19216.26
512.262	19425.15
512.465	19861.37
512.667	20709.23
512.87	20881.26
513.072	21342.05
513.274	21956.44
513.477	22488.92
513.679	22732.62
513.881	23729.98
514.084	23742.27
514.286	24524.6
514.488	24768.3
514.69	25505.57
514.893	26122.01
515.095	26138.4
515.297	27057.93
515.499	27199.24
515.701	28073.73
515.904	28602.1
516.106	29259.5
516.308	29658.85
516.51	30605.02
516.712	30918.35
516.914	31704.77
517.116	32593.59
517.318	32638.65
517.52	33205.94
517.722	34305.7
517.925	34481.82
518.127	35233.43
518.329	36230.79
518.531	36171.39
518.733	36992.63
518.935	37766.76
519.136	37869.16
519.338	38864.47
519.54	39415.38
519.742	40064.58
519.944	40273.48
520.146	41160.25
520.348	41365.04
520.55	42300.97
520.752	42653.22
520.954	43730.45
521.155	43462.16
521.357	44205.58
521.559	44832.25
521.761	45616.63
521.963	45475.32
522.164	45813.23
522.366	45774.32
522.568	47224.28
522.77	46851.55
522.971	47904.21
523.173	47404.5
523.375	48334.28
523.576	48012.75
523.778	48272.84
523.98	48995.78
524.181	49071.55
524.383	49190.33
524.584	49771.96
524.786	49309.11
524.988	49190.33
525.189	49444.28
525.391	50058.67
525.592	49917.36
525.794	49585.59
525.995	49862.07
526.197	49292.73
526.398	50034.1
526.6	49982.9
526.801	49294.78
527.003	49122.75
527.204	49194.43
527.406	49573.3
527.607	48997.82
527.808	49188.28
528.01	47883.73
528.211	48109
528.412	48328.14
528.614	48207.31
528.815	47687.12
529.016	47535.57
529.218	46609.89
529.419	46790.11
529.62	46231.02
529.822	45766.13
530.023	45151.74
530.224	45133.31
530.425	45090.3
530.626	43703.82
530.828	43771.41
531.029	43568.66
531.23	42864.16
531.431	42188.33
531.632	41723.44
531.833	41352.76
532.035	40570.43
532.236	40336.96
532.437	40203.85
532.638	39554.64
532.839	39562.83
533.04	39102.04
533.241	37985.9
533.442	38002.28
533.643	37201.52
533.844	36408.96
534.045	36261.51
534.246	35511.95
534.447	35002
534.648	34762.39
534.849	34389.66
535.05	34018.98
535.251	33349.29
535.451	32812.73
535.652	32794.29
535.853	32372.41
536.054	31823.56
536.255	31069.9
536.456	30840.53
536.657	30617.3
536.857	30031.58
537.058	29402.86
537.259	29447.91
537.46	28835.57
537.66	28669.69
537.861	28075.77
538.062	27612.93
538.263	27367.18
538.463	26879.76
538.664	26754.83
538.865	26504.98
539.065	26210.07
539.266	25601.83
539.466	25478.95
539.667	25012.01
539.868	25200.43
540.068	24637.23
540.269	24364.85
540.469	24184.63
540.67	23840.57
540.87	23562.05
541.071	23185.22
541.271	22984.52
541.472	22759.25
541.672	22435.67
541.873	22257.5
542.073	21610.34
542.274	21671.78
542.474	21479.27
542.675	20782.96
542.875	20971.37
543.075	20690.8
543.276	20209.53
543.476	20387.7
543.676	20043.64
543.877	19761.02
544.077	19550.08
544.277	19326.85
544.478	19107.72
544.678	18929.55
544.878	18694.03
545.078	18612.11
545.279	18239.38
545.479	17821.59
545.679	17704.86
545.879	17702.81
546.079	17555.36
546.28	17129.38
546.48	16873.39
546.68	16947.11
546.88	16719.79
547.08	16330.67
547.28	16230.32
547.48	15970.23
547.68	15990.71
547.88	15736.76
548.081	15529.92
548.281	15208.39
548.481	15062.98
548.681	14899.14
548.881	14714.83
549.081	14612.43
549.28	14137.3
549.48	14061.52
549.68	14010.32
549.88	13850.58
550.08	13586.4
550.28	13443.04
550.48	13524.96
550.68	12824.55
550.88	12763.11
551.08	12736.49
551.279	12466.16
551.479	12417.01
551.679	12154.87
551.879	11866.1
552.079	11956.21
552.278	11765.75
552.478	11491.32
552.678	11302.91
552.878	11364.35
553.077	10952.71
553.277	10672.14
553.477	10457.1
553.676	10631.18
553.876	10287.12
554.076	10141.71
554.275	9996.31
554.475	9709.59
554.674	9938.96
554.874	9646.1
555.074	9494.55
555.273	9183.26
555.473	9148.45
555.672	9048.1
555.872	9027.62
556.071	8781.86
556.271	8769.57
556.47	8327.21
556.67	8200.24
556.869	8163.37
557.068	7839.8
557.268	7833.65
557.467	7856.18
557.667	7657.53
557.866	7573.56
558.065	7247.93
558.265	7180.35
558.464	7143.49
558.663	7034.94
558.863	7049.28
559.062	6832.19
559.261	6498.38
559.461	6776.9
559.66	6418.5
559.859	6320.2
560.058	6266.96
560.258	6086.73
560.457	5996.62
560.656	6070.35
560.855	6060.11
561.054	5781.59
561.253	5869.65
561.453	5724.24
561.652	5521.49
561.851	5576.79
562.05	5294.17
562.249	5267.55
562.448	5345.37
562.647	5097.56
562.846	5130.33
563.045	5017.69
563.244	4911.2
563.443	5032.03
563.642	4702.31
563.841	4673.64
564.04	4798.56
564.239	4628.58
564.438	4589.67
564.637	4407.4
564.836	4446.31
565.035	4364.39
565.234	4188.27
565.432	4317.29
565.631	4202.6
565.83	4235.37
566.029	3926.13
566.228	3948.65
566.427	4010.09
566.625	3692.66
566.824	3862.64
567.023	3725.43
567.222	3690.61
567.42	3643.51
567.619	3620.98
567.818	3539.06
568.016	3551.35
568.215	3508.34
568.414	3301.5
568.612	3326.07
568.811	3377.27
569.01	3276.92
569.208	3115.13
569.407	3309.69
569.605	3154.04
569.804	3113.08
570.002	3160.19
570.201	2830.46
570.4	3111.04
570.598	2834.56
570.797	2844.8
570.995	2799.74
571.193	2740.35
571.392	2785.41
571.59	2732.16
571.789	2699.39
571.987	2738.3
572.186	2541.7
572.384	2543.75
572.582	2547.84
572.781	2570.37
572.979	2302.09
573.177	2388.1
573.376	2461.83
573.574	2369.67
573.772	2271.37
573.971	2205.83
574.169	2128.01
574.367	2263.18
574.565	2117.77
574.763	2042
574.962	2070.67
575.16	2054.28
575.358	1962.12
575.556	2148.49
575.754	2009.23
575.952	1919.12
576.151	2023.56
576.349	1949.84
576.547	1689.74
576.745	1835.15
576.943	1800.34
577.141	1726.61
577.339	1718.42
577.537	1710.22
577.735	1736.85
577.933	1710.22
578.131	1523.86
578.329	1673.36
578.527	1613.97
578.725	1595.54
578.923	1503.38
579.121	1671.31
579.319	1372.31
579.516	1458.32
579.714	1577.11
579.912	1439.89
580.11	1247.38
580.308	1337.49
580.506	1364.12
580.704	1265.82
580.901	1368.21
581.099	1454.23
581.297	1360.02
581.495	1347.73
581.692	1368.21
581.89	1421.46
582.088	1194.14
582.285	1280.15
582.483	1085.59
582.681	1220.76
582.878	1151.13
583.076	1171.61
583.274	1087.64
583.471	1300.63
583.669	950.43
583.866	1083.55
584.064	1097.88
584.262	970.91
584.459	911.52
584.657	1030.3
584.854	1063.07
585.052	1046.68
585.249	1048.73
585.447	972.96
585.644	891.04
585.841	1108.12
586.039	966.81
586.236	1044.63
586.434	932
586.631	891.04
586.828	880.8
587.026	872.61
587.223	747.68
587.42	770.21
587.618	852.13
587.815	860.32
588.012	817.31
588.21	794.78
588.407	915.61
588.604	854.17
588.801	737.44
588.999	784.54
589.196	868.51
589.393	663.71
589.59	725.15
589.787	772.25
589.984	796.83
590.182	702.62
590.379	772.25
590.576	663.71
590.773	663.71
590.97	626.85
591.167	772.25
591.364	702.62
591.561	753.82
591.758	829.6
591.955	688.29
592.152	651.42
592.349	626.85
592.546	794.78
592.743	637.09
592.94	800.93
593.137	741.54
593.334	778.4
593.531	788.64
593.727	772.25
593.924	688.29
594.121	649.38
594.318	772.25
594.515	858.27
594.712	678.05
594.908	878.75
595.105	655.52
595.302	839.84
595.499	714.91
595.696	868.51
595.892	684.19
596.089	876.7
596.286	800.93
596.482	1026.2
596.679	841.89
596.876	759.97
597.072	897.18
597.269	856.22
597.466	997.53
597.662	905.37
597.859	888.99
598.055	1028.25
598.252	997.53
598.448	1075.35
598.645	1095.83
598.841	1157.27
599.038	1245.34
599.234	1341.59
599.431	1335.45
599.627	1347.73
599.824	1374.36
600.02	1366.17
600.217	1437.84
600.413	1570.96
600.609	1573.01
600.806	1925.26
601.002	1675.41
601.198	1714.32
601.395	1872.01
601.591	1937.55
601.787	2058.38
601.984	2082.95
602.18	2082.95
602.376	2068.62
602.572	2381.96
602.769	2394.25
602.965	2394.25
603.161	2590.85
603.357	2521.22
603.553	2789.5
603.75	2588.8
603.946	2824.32
604.142	3117.18
604.338	3176.57
604.534	3143.8
604.73	3180.67
604.926	3438.71
605.122	3594.36
605.318	3557.49
605.514	3696.75
605.71	3872.88
605.906	4010.09
606.102	4067.44
606.298	4190.31
606.494	4352.1
606.69	4368.49
606.886	4491.37
607.082	4530.28
607.278	4542.57
607.474	5007.45
607.67	5085.28
607.866	5128.28
608.062	5439.58
608.257	5482.58
608.453	5466.2
608.649	5855.31
608.845	5804.11
609.041	6125.65
609.236	6410.31
609.432	6463.56
609.628	6445.13
609.824	6889.54
610.019	6871.11
610.215	7327.8
610.411	7290.94
610.606	7624.76
610.802	7581.75
610.998	7864.37
611.193	8116.27
611.389	8194.09
611.584	8624.17
611.78	8734.76
611.976	9132.06
612.171	9525.27
612.367	9539.61
612.562	9822.23
612.758	10000.4
612.953	10092.56
613.149	10491.91
613.344	10721.29
613.539	11261.95
613.735	11464.7
613.93	11608.06
614.126	11864.05
614.321	12496.88
614.517	12550.12
614.712	13072.36
614.907	13234.14
615.103	13641.69
615.298	13897.69
615.493	14381.01
615.688	14540.75
615.884	15331.26
616.079	15310.79
616.274	15806.39
616.47	16181.17
616.665	16670.64
616.86	17000.36
617.055	17319.84
617.25	17737.63
617.445	18366.35
617.641	18632.59
617.836	18923.4
618.031	19621.76
618.226	20367.22
618.421	20408.18
618.616	21282.66
618.811	21448.55
619.006	22335.32
619.201	22304.6
619.396	23076.68
619.591	23285.58
619.786	24168.25
619.981	24418.1
620.176	25155.37
620.371	25468.71
620.566	26234.65
620.761	26605.33
620.956	27746.05
621.151	27651.84
621.346	28438.26
621.541	28350.2
621.735	29552.36
621.93	29560.55
622.125	30398.17
622.32	30658.26
622.515	31405.77
622.709	32208.58
622.904	32843.45
623.099	33189.55
623.294	34078.37
623.488	34291.36
623.683	35178.13
623.878	35014.29
624.072	36365.95
624.267	36355.71
624.462	37131.89
624.656	37179
624.851	38241.89
625.046	38743.64
625.24	38952.54
625.435	39140.95
625.629	40326.72
625.824	41104.95
626.018	41373.24
626.213	41555.5
626.407	42346.02
626.602	42186.28
626.796	43263.51
626.991	43460.12
627.185	43820.56
627.38	44101.13
627.574	44209.67
627.768	44377.61
627.963	44822.01
628.157	44881.41
628.352	45559.28
628.546	44754.43
628.74	45538.8
628.935	44797.44
629.129	45481.46
629.323	44920.32
629.517	44707.33
629.712	44525.06
629.906	44531.2
630.1	43656.72
630.294	43838.99
630.489	42962.46
630.683	42575.39
630.877	41766.45
631.071	40975.93
631.265	40924.73
631.459	39792.2
631.653	38925.91
631.848	38123.11
632.042	36990.58
632.236	36904.57
632.43	35327.63
632.624	34694.81
632.818	34061.99
633.012	32689.85
633.206	31641.29
633.4	30940.88
633.594	29282.03
633.788	28866.29
633.982	27813.63
634.176	27025.17
634.369	25806.62
634.563	24760.11
634.757	23668.55
634.951	23195.46
635.145	22255.45
635.339	21567.33
635.533	20541.3
635.726	19984.25
635.92	18814.86
636.114	18202.52
636.308	17194.92
636.501	16764.84
636.695	16009.14
636.889	15339.46
637.083	14649.29
637.276	14020.56
637.47	13412.32
637.664	12984.29
637.857	12627.95
638.051	12122.1
638.244	11560.95
638.438	11018.24
638.632	10749.96
638.825	10237.97
639.019	9875.48
639.212	9357.34
639.406	8982.56
639.599	8747.05
639.793	8460.33
639.986	8001.58
640.18	7637.05
640.373	7268.41
640.567	7108.67
640.76	6946.88
640.954	6500.42
641.147	6242.38
641.34	5990.48
641.534	5879.89
641.727	5582.93
641.92	5421.14
642.114	5394.52
642.307	5173.34
642.5	4943.97
642.694	4753.51
642.887	4483.17
643.08	4460.65
643.273	4229.23
643.467	3956.85
643.66	3883.12
643.853	3745.91
644.046	3641.46
644.239	3424.37
644.432	3346.55
644.626	3149.95
644.819	2975.87
645.012	2926.72
645.205	2990.21
645.398	2908.29
645.591	2637.95
645.784	2594.95
645.977	2435.21
646.17	2355.33
646.363	2300.04
646.556	2074.76
646.749	1929.36
646.942	2031.76
647.135	2003.08
647.328	1917.07
647.521	1888.4
647.714	1648.79
647.907	1808.53
648.099	1652.88
648.292	1646.74
648.485	1648.79
648.678	1468.56
648.871	1360.02
649.064	1403.03
649.256	1231
649.449	1101.98
649.642	1153.18
649.835	1071.26
650.027	1134.75
650.22	1177.75
650.413	1099.93
650.605	1020.06
650.798	925.85
650.991	966.81
651.183	948.38
651.376	876.7
651.568	977.05
651.761	872.61
651.954	807.07
652.146	725.15
652.339	843.93
652.531	811.17
652.724	649.38
652.916	622.75
653.109	651.42
653.301	817.31
653.494	643.23
653.686	643.23
653.879	710.82
654.071	632.99
654.263	559.27
654.456	538.79
654.648	589.99
654.84	526.5
655.033	448.68
655.225	534.69
655.417	354.47
655.61	585.89
655.802	598.18
655.994	522.4
656.186	383.14
656.379	487.59
656.571	444.58
656.763	413.86
656.955	303.27
657.148	360.61
657.34	481.44
657.532	309.41
657.724	336.04
657.916	417.96
658.108	440.48
658.3	481.44
658.492	397.48
658.684	268.45
658.876	450.72
659.068	288.93
659.26	174.25
659.452	204.97
659.644	274.6
659.836	381.09
660.028	350.37
660.22	258.21
660.412	356.52
660.604	245.93
660.796	252.07
660.988	319.65
661.18	247.97
661.372	327.85
661.563	252.07
661.755	307.37
661.947	202.92
662.139	229.54
662.331	166.06
662.522	258.21
662.714	159.91
662.906	153.77
663.097	192.68
663.289	174.25
663.481	129.19
663.673	233.64
663.864	204.97
664.056	297.13
664.247	153.77
664.439	215.21
664.631	227.5
664.822	315.56
665.014	114.86
665.205	204.97
665.397	182.44
665.588	247.97
665.78	207.02
665.971	243.88
666.163	182.44
666.354	229.54
666.546	192.68
666.737	170.15
666.929	161.96
667.12	125.1
667.311	225.45
667.503	147.62
667.694	159.91
667.885	198.82
668.077	227.5
668.268	116.9
668.459	178.34
668.651	211.11
668.842	204.97
669.033	82.09
669.224	207.02
669.416	297.13
669.607	90.28
669.798	92.33
669.989	301.22
670.18	231.59
670.371	258.21
670.563	127.14
670.754	186.54
670.945	178.34
671.136	221.35
671.327	92.33
671.518	143.53
671.709	295.08
671.9	231.59
672.091	305.32
672.282	172.2
672.473	264.36
672.664	43.18
672.855	168.1
673.046	250.02
673.237	168.1
673.428	243.88
673.619	164.01
673.809	147.62
674	217.26
674.191	149.67
674.382	204.97
674.573	200.87
674.764	200.87
674.954	229.54
675.145	73.9
675.336	127.14
675.527	211.11
675.717	139.43
675.908	127.14
676.099	194.73
676.289	112.81
676.48	53.42
676.671	168.1
676.861	192.68
677.052	215.21
677.243	108.71
677.433	223.4
677.624	200.87
677.814	90.28
678.005	114.86
678.195	252.07
678.386	39.08
678.576	190.63
678.767	96.43
678.957	104.62
679.148	340.13
679.338	303.27
679.529	168.1
679.719	51.37
679.909	268.45
680.1	213.16
680.29	178.34
680.481	77.99
680.671	272.55
680.861	200.87
681.052	219.3
681.242	153.77
681.432	293.03
681.622	204.97
681.813	49.32
682.003	211.11
682.193	88.23
682.383	188.58
682.573	172.2
682.764	135.34
682.954	256.17
683.144	239.78
683.334	98.47
683.524	145.58
683.714	284.84
683.904	151.72
684.094	204.97
684.284	190.63
684.474	268.45
684.664	309.41
684.854	317.61
685.044	247.97
685.234	252.07
685.424	239.78
685.614	147.62
685.804	348.33
685.994	258.21
686.184	207.02
686.374	159.91
686.564	157.86
686.753	211.11
686.943	82.09
687.133	157.86
687.323	149.67
687.513	213.16
687.702	272.55
687.892	155.82
688.082	278.69
688.272	227.5
688.461	243.88
688.651	336.04
688.841	198.82
689.03	168.1
689.22	159.91
689.41	299.17
689.599	147.62
689.789	231.59
689.979	344.23
690.168	141.48
690.358	342.18
690.547	233.64
690.737	235.69
690.926	215.21
691.116	204.97
691.305	303.27
691.495	290.98
691.684	186.54
691.874	198.82
692.063	192.68
692.252	295.08
692.442	243.88
692.631	215.21
692.82	153.77
693.01	247.97
693.199	172.2
693.388	237.74
693.578	239.78
693.767	350.37
693.956	254.12
694.146	198.82
694.335	241.83
694.524	204.97
694.713	166.06
694.902	170.15
695.092	198.82
695.281	272.55
695.47	184.49
695.659	209.06
695.848	114.86
696.037	127.14
696.226	245.93
696.415	196.78
696.604	264.36
696.793	385.19
696.982	270.5
697.171	313.51
697.36	172.2
697.549	174.25
697.738	75.95
697.927	260.26
698.116	102.57
698.305	237.74
698.494	194.73
698.683	188.58
698.872	344.23
699.061	250.02
699.25	221.35
699.438	180.39
699.627	190.63
699.816	362.66
700.005	184.49
700.193	77.99
700.382	215.21
700.571	241.83
700.76	258.21
700.948	288.93
701.137	192.68
701.326	235.69
701.514	69.8
701.703	305.32
701.892	233.64
702.08	319.65
702.269	260.26
702.457	147.62
702.646	245.93
702.834	106.67
703.023	135.34
703.212	151.72
703.4	196.78
703.589	213.16
703.777	161.96
703.965	190.63
704.154	186.54
704.342	170.15
704.531	186.54
704.719	145.58
704.907	207.02
705.096	164.01
705.284	186.54
705.472	237.74
705.661	258.21
705.849	323.75
706.037	282.79
706.226	131.24
706.414	186.54
706.602	100.52
706.79	178.34
706.979	92.33
707.167	172.2
707.355	164.01
707.543	233.64
707.731	241.83
707.919	188.58
708.107	221.35
708.296	184.49
708.484	215.21
708.672	204.97
708.86	233.64
709.048	153.77
709.236	86.19
709.424	202.92
709.612	243.88
709.8	69.8
709.988	168.1
710.176	157.86
710.364	247.97
710.551	274.6
710.739	211.11
710.927	145.58
711.115	237.74
711.303	315.56
711.491	237.74
711.679	211.11
711.866	278.69
712.054	139.43
712.242	243.88
712.43	290.98
712.617	143.53
712.805	194.73
712.993	135.34
713.181	80.04
713.368	293.03
713.556	172.2
713.744	159.91
713.931	399.52
714.119	180.39
714.306	102.57
714.494	100.52
714.682	186.54
714.869	145.58
715.057	151.72
715.244	139.43
715.432	147.62
715.619	172.2
715.807	198.82
715.994	194.73
716.182	155.82
716.369	219.3
716.556	258.21
716.744	172.2
716.931	67.75
717.119	235.69
717.306	196.78
717.493	295.08
717.681	143.53
717.868	137.38
718.055	207.02
718.242	190.63
718.43	282.79
718.617	313.51
718.804	221.35
718.991	225.45
719.179	235.69
719.366	207.02
719.553	301.22
719.74	217.26
719.927	268.45
720.114	196.78
720.301	211.11
720.488	250.02
720.676	176.3
720.863	319.65
721.05	342.18
721.237	258.21
721.424	235.69
721.611	301.22
721.798	166.06
721.985	188.58
722.172	198.82
722.358	141.48
722.545	282.79
722.732	309.41
722.919	295.08
723.106	266.41
723.293	188.58
723.48	233.64
723.667	139.43
723.853	301.22
724.04	290.98
724.227	311.46
724.414	262.31
724.6	229.54
724.787	372.9
724.974	340.13
725.161	202.92
725.347	172.2
725.534	241.83
725.72	264.36
725.907	266.41
726.094	254.12
726.28	276.65
726.467	196.78
726.653	180.39
726.84	360.61
727.027	432.29
727.213	198.82
727.4	331.94
727.586	274.6
727.773	202.92
727.959	213.16
728.145	170.15
728.332	143.53
728.518	159.91
728.705	311.46
728.891	180.39
729.077	301.22
729.264	131.24
729.45	211.11
729.636	200.87
729.823	268.45
730.009	299.17
730.195	266.41
730.382	309.41
730.568	84.14
730.754	235.69
730.94	194.73
731.126	333.99
731.313	247.97
731.499	223.4
731.685	309.41
731.871	188.58
732.057	280.74
732.243	346.28
732.429	280.74
732.615	336.04
732.801	250.02
732.987	290.98
733.173	293.03
733.359	198.82
733.545	286.89
733.731	194.73
733.917	315.56
734.103	321.7
734.289	247.97
734.475	198.82
734.661	348.33
734.847	174.25
735.033	254.12
735.219	331.94
735.404	256.17
735.59	196.78
735.776	245.93
735.962	159.91
736.148	331.94
736.333	366.76
736.519	190.63
736.705	286.89
736.89	311.46
737.076	323.75
737.262	116.9
737.447	225.45
737.633	213.16
737.819	299.17
738.004	305.32
738.19	258.21
738.375	313.51
738.561	395.43
738.747	245.93
738.932	184.49
739.118	417.96
739.303	358.57
739.489	354.47
739.674	309.41
739.859	159.91
740.045	284.84
740.23	219.3
740.416	139.43
740.601	233.64
740.786	252.07
740.972	247.97
741.157	215.21
741.342	188.58
741.528	166.06
741.713	262.31
741.898	192.68
742.084	321.7
742.269	264.36
742.454	266.41
742.639	311.46
742.824	182.44
743.01	346.28
743.195	317.61
743.38	295.08
743.565	207.02
743.75	286.89
743.935	278.69
744.12	293.03
744.305	182.44
744.49	186.54
744.675	225.45
744.86	184.49
745.045	288.93
745.23	264.36
745.415	209.06
745.6	385.19
745.785	194.73
745.97	321.7
746.155	239.78
746.34	374.95
746.525	256.17
746.71	313.51
746.895	104.62
747.079	233.64
747.264	270.5
747.449	331.94
747.634	293.03
747.819	344.23
748.003	116.9
748.188	137.38
748.373	266.41
748.557	233.64
748.742	225.45
748.927	207.02
749.111	250.02
749.296	284.84
749.481	215.21
749.665	250.02
749.85	239.78
750.034	245.93
750.219	260.26
750.404	198.82
750.588	270.5
750.773	188.58
750.957	241.83
751.141	172.2
751.326	233.64
751.51	69.8
751.695	217.26
751.879	211.11
752.064	297.13
752.248	237.74
752.432	352.42
752.617	241.83
752.801	225.45
752.985	161.96
753.17	315.56
753.354	219.3
753.538	200.87
753.722	125.1
753.907	170.15
754.091	61.61
754.275	239.78
754.459	106.67
754.643	55.47
754.828	235.69
755.012	192.68
755.196	139.43
755.38	159.91
755.564	135.34
755.748	188.58
755.932	188.58
756.116	176.3
756.3	157.86
756.484	198.82
756.668	252.07
756.852	65.71
757.036	104.62
757.22	204.97
757.404	159.91
757.588	118.95
757.772	254.12
757.956	141.48
758.14	340.13
758.323	159.91
758.507	194.73
758.691	211.11
758.875	243.88
759.059	270.5
759.242	96.43
759.426	235.69
759.61	178.34
759.794	139.43
759.977	186.54
760.161	327.85
760.345	229.54
760.528	202.92
760.712	172.2
760.895	202.92
761.079	176.3
761.263	104.62
761.446	69.8
761.63	108.71
761.813	192.68
761.997	61.61
762.18	121
762.364	237.74
762.547	61.61
762.731	121
762.914	118.95
763.098	112.81
763.281	129.19
763.464	47.27
763.648	157.86
763.831	75.95
764.015	118.95
764.198	176.3
764.381	114.86
764.564	202.92
764.748	168.1
764.931	94.38
765.114	112.81
765.297	184.49
765.481	71.85
765.664	75.95
765.847	43.18
766.03	209.06
766.213	30.89
766.397	63.66
766.58	-22.36
766.763	204.97
766.946	86.19
767.129	90.28
767.312	90.28
767.495	102.57
767.678	24.75
767.861	110.76
768.044	92.33
768.227	10.41
768.41	100.52
768.593	147.62
768.776	114.86
768.959	106.67
769.142	137.38
769.324	133.29
769.507	151.72
769.69	65.71
769.873	108.71
770.056	252.07
770.239	82.09
770.421	178.34
770.604	204.97
770.787	45.23
770.97	14.51
771.152	65.71
771.335	75.95
771.518	8.36
771.7	168.1
771.883	252.07
772.066	86.19
772.248	104.62
772.431	188.58
772.613	155.82
772.796	100.52
772.978	141.48
773.161	247.97
773.343	41.13
773.526	98.47
773.708	10.41
773.891	-32.6
774.073	77.99
774.256	114.86
774.438	209.06
774.621	12.46
774.803	114.86
774.985	4.27
775.168	112.81
775.35	69.8
775.532	153.77
775.715	45.23
775.897	155.82
776.079	108.71
776.261	86.19
776.444	84.14
776.626	139.43
776.808	10.41
776.99	2.22
777.173	53.42
777.355	32.94
777.537	-14.17
777.719	94.38
777.901	51.37
778.083	-26.45
778.265	-77.65
778.447	149.67
778.629	30.89
778.811	98.47
778.993	237.74
779.175	135.34
779.357	71.85
779.539	10.41
779.721	166.06
779.903	104.62
780.085	77.99
780.267	104.62
780.449	69.8
780.631	102.57
780.812	180.39
780.994	98.47
781.176	61.61
781.358	41.13
781.54	26.79
781.721	170.15
781.903	96.43
782.085	67.75
782.267	215.21
782.448	12.46
782.63	28.84
782.812	55.47
782.993	106.67
783.175	149.67
783.357	49.32
783.538	143.53
783.72	-24.4
783.901	112.81
784.083	127.14
784.264	123.05
784.446	-12.12
784.627	-77.65
784.809	43.18
784.99	43.18
785.172	149.67
785.353	61.61
785.535	8.36
785.716	80.04
785.897	8.36
786.079	106.67
786.26	106.67
786.441	112.81
786.623	-44.88
786.804	82.09
786.985	32.94
787.167	108.71
787.348	84.14
787.529	45.23
787.71	145.58
787.891	98.47
788.073	32.94
788.254	-61.27
788.435	110.76
788.616	57.51
788.797	-85.84
788.978	-14.17
789.159	45.23
789.34	84.14
789.522	30.89
789.703	37.03
789.884	112.81
790.065	51.37
790.246	98.47
790.427	20.65
790.607	176.3
790.788	67.75
790.969	-26.45
791.15	77.99
791.331	43.18
791.512	96.43
791.693	-24.4
791.874	41.13
792.054	139.43
792.235	159.91
792.416	10.41
792.597	61.61
792.778	28.84
792.958	59.56
793.139	102.57
793.32	92.33
793.5	-26.45
793.681	196.78
793.862	69.8
794.042	-26.45
794.223	-28.5
794.404	12.46
794.584	-38.74
794.765	47.27
794.945	67.75
795.126	71.85
795.306	106.67
795.487	61.61
795.667	26.79
795.848	121
796.028	-69.46
796.209	80.04
796.389	123.05
796.57	-3.93
796.75	-22.36
796.93	65.71
797.111	24.75
797.291	45.23
797.471	61.61
797.652	12.46
797.832	-59.22
798.012	53.42
798.192	-36.69
798.373	-42.84
798.553	43.18
798.733	10.41
798.913	51.37
799.093	-5.97
799.274	24.75
799.454	114.86
799.634	84.14
799.814	73.9
799.994	96.43
800.174	61.61
800.354	82.09
800.534	-57.17
800.714	102.57
800.894	-69.46
801.074	-24.4
801.254	-32.6
801.434	73.9
801.614	-1.88
801.794	-94.04
801.974	1663.12
802.154	69.8
802.334	57.51
802.514	0.17
802.693	51.37
802.873	8.36
803.053	98.47
803.233	-22.36
803.413	24.75
803.592	12.46
803.772	14.51
803.952	90.28
804.131	-77.65
804.311	34.99
804.491	123.05
804.67	8.36
804.85	-36.69
805.03	-1.88
805.209	121
805.389	34.99
805.568	-67.41
805.748	45.23
805.928	77.99
806.107	149.67
806.287	77.99
806.466	41.13
806.646	47.27
806.825	53.42
807.004	-44.88
807.184	-12.12
807.363	141.48
807.543	14.51
807.722	4.27
807.901	141.48
808.081	176.3
808.26	-137.04
808.439	53.42
808.619	51.37
808.798	-3.93
808.977	32.94
809.156	75.95
809.336	16.55
809.515	94.38
809.694	-3.93
809.873	2.22
810.052	71.85
810.231	102.57
810.411	30.89
810.59	73.9
810.769	-57.17
810.948	98.47
811.127	-81.75
811.306	34.99
811.485	28.84
811.664	209.06
811.843	-28.5
812.022	71.85
812.201	80.04
812.38	-3.93
812.559	14.51
812.737	-36.69
812.916	-44.88
813.095	-12.12
813.274	49.32
813.453	32.94
813.632	104.62
813.811	77.99
813.989	-42.84
814.168	47.27
814.347	39.08
814.526	41.13
814.704	96.43
814.883	121
815.062	-10.07
815.24	16.55
815.419	-3.93
815.598	137.38
815.776	-30.55
815.955	47.27
816.133	-116.56
816.312	118.95
816.49	-61.27
816.669	8.36
816.847	-12.12
817.026	-24.4
817.204	2.22
817.383	-8.02
817.561	-67.41
817.74	77.99
817.918	22.7
818.097	-42.84
818.275	-1.88
818.453	77.99
818.632	108.71
818.81	-3.93
818.988	-100.18
819.167	-5.97
819.345	39.08
819.523	4.27
819.701	45.23
819.879	-38.74
820.058	69.8
820.236	6.31
820.414	34.99
820.592	61.61
820.77	-53.08
820.948	26.79
821.127	-3.93
821.305	94.38
821.483	-98.13
821.661	102.57
821.839	4.27
822.017	-40.79
822.195	-14.17
822.373	63.66
822.551	51.37
822.729	55.47
822.907	-20.31
823.085	63.66
823.262	-14.17
823.44	-16.21
823.618	69.8
823.796	39.08
823.974	12.46
824.152	2.22
824.329	32.94
824.507	-3.93
824.685	26.79
824.863	71.85
825.04	-20.31
825.218	188.58
825.396	129.19
825.574	45.23
825.751	4.27
825.929	32.94
826.107	-63.32
826.284	112.81
826.462	98.47
826.639	-26.45
826.817	-132.95
826.994	73.9
827.172	24.75
827.349	123.05
827.527	18.6
827.704	75.95
827.882	8.36
828.059	14.51
828.237	4.27
828.414	100.52
828.591	-20.31
828.769	-1.88
828.946	-67.41
829.124	47.27
829.301	63.66
829.478	-8.02
829.655	47.27
829.833	-32.6
830.01	-63.32
830.187	92.33
830.364	-38.74
830.542	-22.36
830.719	139.43
830.896	65.71
831.073	2.22
831.25	121
831.427	16.55
831.604	10.41
831.782	22.7
831.959	88.23
832.136	84.14
832.313	108.71
832.49	0.17
832.667	55.47
832.844	-28.5
833.021	118.95
833.198	135.34
833.374	67.75
833.551	26.79
833.728	-67.41
833.905	73.9
834.082	-116.56
834.259	24.75
834.436	96.43
834.612	-30.55
834.789	94.38
834.966	61.61
835.143	41.13
835.319	-98.13
835.496	77.99
835.673	57.51
835.85	47.27
836.026	184.49
836.203	73.9
836.38	22.7
836.556	-42.84
836.733	4.27
836.909	166.06
837.086	-48.98
837.262	-57.17
837.439	10.41
837.616	8.36
837.792	24.75
837.968	28.84
838.145	-94.04
838.321	-16.21
838.498	39.08
838.674	61.61
838.851	75.95
839.027	0.17
839.203	32.94
839.38	-26.45
839.556	4.27
839.732	123.05
839.909	-38.74
840.085	92.33
840.261	-30.55
840.437	41.13
840.614	-18.26
840.79	39.08
840.966	104.62
841.142	77.99
841.318	37.03
841.494	65.71
841.671	65.71
841.847	-75.6
842.023	-69.46
842.199	4.27
842.375	170.15
842.551	-46.93
842.727	-34.64
842.903	118.95
843.079	-51.03
843.255	86.19
843.431	49.32
843.607	39.08
843.783	-149.33
843.959	51.37
844.134	-85.84
844.31	69.8
844.486	6.31
844.662	12.46
844.838	28.84
845.013	16.55
845.189	149.67
845.365	20.65
845.541	59.56
845.716	10.41
845.892	121
846.068	106.67
846.244	32.94
846.419	43.18
846.595	-8.02
846.77	6.31
846.946	139.43
847.122	55.47
847.297	-12.12
847.473	121
847.648	-42.84
847.824	92.33
847.999	-132.95
848.175	-5.97
848.35	53.42
848.526	67.75
848.701	127.14
848.876	73.9
849.052	147.62
849.227	10.41
849.403	-46.93
849.578	34.99
849.753	71.85
849.929	28.84
850.104	-59.22
850.279	24.75
850.454	147.62
850.63	90.28
850.805	14.51
850.98	-5.97
851.155	65.71
851.33	39.08
851.505	-51.03
851.681	151.72
851.856	-51.03
852.031	96.43
852.206	32.94
852.381	-5.97
852.556	26.79
852.731	24.75
852.906	65.71
853.081	28.84
853.256	141.48
853.431	-8.02
853.606	39.08
853.781	-67.41
853.956	-32.6
854.131	16.55
854.305	-34.64
854.48	12.46
854.655	-51.03
854.83	10.41
855.005	-36.69
855.18	92.33
855.354	6.31
855.529	57.51
855.704	-28.5
855.879	55.47
856.053	2.22
856.228	69.8
856.403	-57.17
856.577	108.71
856.752	-30.55
856.926	-28.5
857.101	-34.64
857.276	-40.79
857.45	4.27
857.625	100.52
857.799	41.13
857.974	26.79
858.148	-89.94
858.323	49.32
858.497	-18.26
858.672	-55.12
858.846	-57.17
859.02	51.37
859.195	-26.45
859.369	-65.36
859.543	57.51
859.718	12.46
859.892	-18.26
860.066	4.27
860.241	-20.31
860.415	37.03
860.589	0.17
860.763	26.79
860.938	-40.79
861.112	53.42
861.286	-22.36
861.46	43.18
861.634	6.31
861.808	110.76
861.982	-65.36
862.157	-116.56
862.331	2.22
862.505	0.17
862.679	-34.64
862.853	-24.4
863.027	61.61
863.201	153.77
863.375	-120.66
863.549	39.08
863.722	14.51
863.896	92.33
864.07	-8.02
864.244	-26.45
864.418	100.52
864.592	43.18
864.766	133.29
864.939	100.52
865.113	-14.17
865.287	90.28
865.461	-112.47
865.634	-38.74
865.808	30.89
865.982	-44.88
866.156	-18.26
866.329	-83.8
866.503	-40.79
866.676	-36.69
866.85	-32.6
867.024	-24.4
867.197	8.36
867.371	34.99
867.544	-5.97
867.718	-38.74
867.891	67.75
868.065	-57.17
868.238	28.84
868.412	159.91
868.585	4.27
868.759	-24.4
868.932	47.27
869.105	-36.69
869.279	-20.31
869.452	6.31
869.625	6.31
869.799	-20.31
869.972	16.55
870.145	-16.21
870.319	41.13
870.492	-94.04
870.665	10.41
870.838	2.22
871.011	-55.12
871.185	-48.98
871.358	-59.22
871.531	53.42
871.704	-22.36
871.877	18.6
872.05	-46.93
872.223	-143.19
872.396	157.86
872.569	63.66
872.742	-48.98
872.915	71.85
873.088	41.13
873.261	-32.6
873.434	71.85
873.607	-22.36
873.78	108.71
873.953	-44.88
874.126	-3.93
874.299	88.23
874.471	-20.31
874.644	-69.46
874.817	8.36
874.99	84.14
875.163	-12.12
875.335	67.75
875.508	51.37
875.681	82.09
875.853	-32.6
876.026	43.18
876.199	24.75
876.371	-12.12
876.544	53.42
876.717	-61.27
876.889	71.85
877.062	-14.17
877.234	-8.02
877.407	6.31
877.579	63.66
877.752	45.23
877.924	55.47
878.097	69.8
878.269	12.46
878.442	30.89
878.614	-16.21
878.786	-71.51
878.959	2.22
879.131	-5.97
879.303	-18.26
879.476	-22.36
879.648	61.61
879.82	34.99
879.993	-46.93
880.165	-59.22
880.337	-38.74
880.509	-14.17
880.681	-38.74
880.854	-16.21
881.026	55.47
881.198	182.44
881.37	57.51
881.542	37.03
881.714	71.85
881.886	-48.98
882.058	6.31
882.23	-5.97
882.402	12.46
882.574	47.27
882.746	98.47
882.918	69.8
883.09	118.95
883.262	-38.74
883.434	-3.93
883.606	-59.22
883.778	-22.36
883.95	131.24
884.122	-63.32
884.293	69.8
884.465	-10.07
884.637	114.86
884.809	-12.12
884.98	0.17
885.152	26.79
885.324	102.57
885.496	-3.93
885.667	12.46
885.839	-12.12
886.011	114.86
886.182	90.28
886.354	180.39
886.525	88.23
886.697	20.65
886.869	30.89
887.04	24.75
887.212	92.33
887.383	194.73
887.555	37.03
887.726	45.23
887.897	-3.93
888.069	8.36
888.24	192.68
888.412	-38.74
888.583	10.41
888.754	86.19
888.926	-145.24
889.097	-28.5
889.268	2.22
889.44	24.75
889.611	-79.7
889.782	-20.31
889.953	34.99
890.125	110.76
890.296	-44.88
890.467	-116.56
890.638	-16.21
890.809	4.27
890.98	4.27
891.151	67.75
891.323	90.28
891.494	-48.98
891.665	53.42
891.836	16.55
892.007	-28.5
892.178	71.85
892.349	-5.97
892.52	-94.04
892.691	45.23
892.862	-18.26
893.032	-106.32
893.203	-61.27
893.374	49.32
893.545	16.55
893.716	-63.32
893.887	90.28
894.057	16.55
894.228	12.46
894.399	-18.26
894.57	51.37
894.74	-28.5
894.911	84.14
895.082	20.65
895.253	24.75
895.423	12.46
895.594	69.8
895.764	-20.31
895.935	26.79
896.106	37.03
896.276	43.18
896.447	75.95
896.617	-36.69
896.788	-98.13
896.958	-18.26
897.129	34.99
897.299	-38.74
897.47	88.23
897.64	49.32
897.81	-42.84
897.981	-53.08
898.151	-124.76
898.322	49.32
898.492	24.75
898.662	-53.08
898.832	-32.6
899.003	-85.84
899.173	69.8
899.343	-38.74
899.513	-59.22
