Data from USB4F104151__76__10-44-15-571.txt Node

Date: Wed Feb 26 10:44:15 EST 2025
User: louis
Spectrometer: USB4F10415
Trigger mode: 4
Integration Time (sec): 1.000000E-1
Scans to average: 1
Electric dark correction enabled: true
Nonlinearity correction enabled: false
Boxcar width: 0
XAxis mode: Wavelengths
Number of Pixels in Spectrum: 3648
>>>>>Begin Spectral Data<<<<<
178.204	-388.43
178.424	-388.43
178.644	-388.43
178.864	-433.49
179.084	-378.19
179.304	-11.61
179.524	-30.04
179.744	62.12
179.964	31.4
180.184	27.31
180.404	-23.89
180.624	-25.94
180.844	4.78
181.064	-60.76
181.283	2.73
181.503	-5.46
181.723	29.35
181.943	-83.28
182.163	180.9
182.383	15.02
182.602	-21.85
182.822	168.62
183.042	45.74
183.262	47.79
183.482	21.16
183.701	33.45
183.921	-25.94
184.141	-7.51
184.361	105.13
184.58	58.03
184.8	25.26
185.02	-25.94
185.239	55.98
185.459	23.21
185.679	70.31
185.898	-52.56
186.118	21.16
186.338	76.46
186.557	64.17
186.777	-50.52
186.997	19.11
187.216	12.97
187.436	176.81
187.655	115.37
187.875	74.41
188.095	-23.89
188.314	129.7
188.534	125.61
188.753	-21.85
188.973	82.6
189.192	131.75
189.412	98.99
189.631	58.03
189.851	60.07
190.07	240.29
190.29	-25.94
190.509	-25.94
190.729	55.98
190.948	199.34
191.168	242.34
191.387	86.7
191.607	-68.95
191.826	76.46
192.045	19.11
192.265	47.79
192.484	64.17
192.704	33.45
192.923	-154.96
193.142	189.1
193.362	135.85
193.581	148.14
193.8	39.59
194.02	78.51
194.239	135.85
194.458	33.45
194.678	19.11
194.897	-1.37
195.116	41.64
195.335	55.98
195.555	23.21
195.774	-30.04
195.993	98.99
196.212	33.45
196.432	-48.47
196.651	-25.94
196.87	-9.56
197.089	240.29
197.308	96.94
197.528	27.31
197.747	8.87
197.966	43.69
198.185	178.86
198.404	-54.61
198.623	88.75
198.842	115.37
199.062	121.51
199.281	176.81
199.5	64.17
199.719	119.46
199.938	103.08
200.157	53.93
200.376	94.89
200.595	109.22
200.814	68.27
201.033	-25.94
201.252	101.03
201.471	111.27
201.69	111.27
201.909	21.16
202.128	92.84
202.347	117.42
202.566	8.87
202.785	-60.76
203.004	-11.61
203.223	176.81
203.442	49.83
203.661	-7.51
203.879	-1.37
204.098	35.5
204.317	-77.14
204.536	109.22
204.755	29.35
204.974	125.61
205.193	21.16
205.411	168.62
205.63	41.64
205.849	21.16
206.068	-13.65
206.287	-60.76
206.505	144.04
206.724	-7.51
206.943	21.16
207.162	23.21
207.381	101.03
207.599	39.59
207.818	66.22
208.037	49.83
208.255	-11.61
208.474	74.41
208.693	64.17
208.911	-30.04
209.13	98.99
209.349	72.36
209.567	29.35
209.786	68.27
210.005	45.74
210.223	27.31
210.442	-146.77
210.661	62.12
210.879	-30.04
211.098	-46.42
211.316	92.84
211.535	156.33
211.753	23.21
211.972	25.26
212.191	4.78
212.409	12.97
212.628	146.09
212.846	-68.95
213.065	121.51
213.283	35.5
213.502	66.22
213.72	58.03
213.938	82.6
214.157	35.5
214.375	144.04
214.594	29.35
214.812	70.31
215.031	4.78
215.249	31.4
215.467	55.98
215.686	-3.41
215.904	86.7
216.122	98.99
216.341	182.95
216.559	58.03
216.778	45.74
216.996	150.18
217.214	70.31
217.432	35.5
217.651	-103.76
217.869	70.31
218.087	33.45
218.306	8.87
218.524	86.7
218.742	45.74
218.96	82.6
219.179	43.69
219.397	121.51
219.615	213.67
219.833	25.26
220.051	35.5
220.27	19.11
220.488	103.08
220.706	62.12
220.924	-15.7
221.142	-5.46
221.36	168.62
221.578	41.64
221.796	43.69
222.015	6.83
222.233	88.75
222.451	209.58
222.669	-9.56
222.887	82.6
223.105	19.11
223.323	39.59
223.541	-1.37
223.759	107.18
223.977	37.55
224.195	148.14
224.413	135.85
224.631	-27.99
224.849	76.46
225.067	156.33
225.285	4.78
225.503	-27.99
225.721	-44.37
225.939	74.41
226.157	31.4
226.375	316.07
226.592	-30.04
226.81	58.03
227.028	98.99
227.246	119.46
227.464	27.31
227.682	72.36
227.9	82.6
228.117	49.83
228.335	117.42
228.553	37.55
228.771	31.4
228.989	51.88
229.206	47.79
229.424	21.16
229.642	6.83
229.86	-46.42
230.077	135.85
230.295	62.12
230.513	117.42
230.731	92.84
230.948	137.9
231.166	113.32
231.384	-62.8
231.601	25.26
231.819	94.89
232.037	-77.14
232.254	-42.32
232.472	82.6
232.689	-32.08
232.907	148.14
233.125	-1.37
233.342	-38.23
233.56	43.69
233.777	-56.66
233.995	-30.04
234.213	105.13
234.43	115.37
234.648	37.55
234.865	-36.18
235.083	98.99
235.3	37.55
235.518	103.08
235.735	178.86
235.953	60.07
236.17	90.79
236.388	-64.85
236.605	60.07
236.822	82.6
237.04	195.24
237.257	72.36
237.475	-91.48
237.692	17.07
237.909	23.21
238.127	-17.75
238.344	78.51
238.562	70.31
238.779	-71
238.996	-99.67
239.214	62.12
239.431	51.88
239.648	31.4
239.865	70.31
240.083	86.7
240.3	-21.85
240.517	10.92
240.735	101.03
240.952	0.68
241.169	113.32
241.386	162.47
241.603	35.5
241.821	-40.28
242.038	98.99
242.255	162.47
242.472	-64.85
242.689	115.37
242.907	64.17
243.124	49.83
243.341	17.07
243.558	-118.1
243.775	-64.85
243.992	-32.08
244.209	86.7
244.426	221.86
244.643	45.74
244.86	19.11
245.078	21.16
245.295	-7.51
245.512	35.5
245.729	-11.61
245.946	6.83
246.163	70.31
246.38	-32.08
246.597	-7.51
246.814	41.64
247.031	64.17
247.248	60.07
247.464	15.02
247.681	125.61
247.898	25.26
248.115	33.45
248.332	-9.56
248.549	78.51
248.766	195.24
248.983	25.26
249.2	78.51
249.417	96.94
249.633	37.55
249.85	68.27
250.067	-34.13
250.284	4.78
250.501	90.79
250.717	166.57
250.934	-19.8
251.151	31.4
251.368	37.55
251.585	51.88
251.801	129.7
252.018	-101.72
252.235	84.65
252.451	-73.04
252.668	43.69
252.885	199.34
253.102	27.31
253.318	17.07
253.535	27.31
253.752	2.73
253.968	4.78
254.185	-5.46
254.401	133.8
254.618	88.75
254.835	8.87
255.051	98.99
255.268	127.66
255.484	43.69
255.701	58.03
255.917	55.98
256.134	-13.65
256.351	-11.61
256.567	29.35
256.784	-5.46
257	-83.28
257.217	64.17
257.433	86.7
257.65	-7.51
257.866	109.22
258.082	62.12
258.299	-3.41
258.515	64.17
258.732	47.79
258.948	-48.47
259.165	27.31
259.381	6.83
259.597	86.7
259.814	39.59
260.03	21.16
260.246	43.69
260.463	119.46
260.679	137.9
260.895	-19.8
261.112	70.31
261.328	17.07
261.544	-19.8
261.761	141.99
261.977	55.98
262.193	0.68
262.409	90.79
262.626	66.22
262.842	82.6
263.058	-109.91
263.274	137.9
263.49	103.08
263.707	53.93
263.923	80.55
264.139	-91.48
264.355	55.98
264.571	158.38
264.787	2.73
265.004	119.46
265.22	55.98
265.436	49.83
265.652	-1.37
265.868	125.61
266.084	-128.34
266.3	-13.65
266.516	-25.94
266.732	23.21
266.948	123.56
267.164	43.69
267.38	125.61
267.596	84.65
267.812	150.18
268.028	98.99
268.244	15.02
268.46	-3.41
268.676	31.4
268.892	51.88
269.108	15.02
269.324	-36.18
269.54	6.83
269.756	62.12
269.972	-66.9
270.188	23.21
270.403	58.03
270.619	-3.41
270.835	121.51
271.051	113.32
271.267	2.73
271.483	-30.04
271.698	88.75
271.914	88.75
272.13	-5.46
272.346	-11.61
272.562	21.16
272.777	166.57
272.993	-13.65
273.209	37.55
273.425	76.46
273.64	-15.7
273.856	101.03
274.072	-25.94
274.287	27.31
274.503	88.75
274.719	78.51
274.934	29.35
275.15	-52.56
275.366	35.5
275.581	-56.66
275.797	58.03
276.012	76.46
276.228	15.02
276.444	37.55
276.659	84.65
276.875	-54.61
277.09	-3.41
277.306	-19.8
277.521	125.61
277.737	21.16
277.952	53.93
278.168	70.31
278.383	8.87
278.599	15.02
278.814	129.7
279.03	-17.75
279.245	70.31
279.461	-5.46
279.676	53.93
279.892	-17.75
280.107	80.55
280.322	-32.08
280.538	162.47
280.753	-23.89
280.969	66.22
281.184	0.68
281.399	203.43
281.615	-48.47
281.83	-3.41
282.045	-32.08
282.26	-5.46
282.476	70.31
282.691	72.36
282.906	74.41
283.122	66.22
283.337	6.83
283.552	8.87
283.767	74.41
283.983	86.7
284.198	-25.94
284.413	86.7
284.628	-60.76
284.843	62.12
285.058	144.04
285.274	-1.37
285.489	25.26
285.704	96.94
285.919	-7.51
286.134	64.17
286.349	41.64
286.564	-7.51
286.779	105.13
286.995	74.41
287.21	37.55
287.425	53.93
287.64	-32.08
287.855	101.03
288.07	-11.61
288.285	25.26
288.5	109.22
288.715	39.59
288.93	17.07
289.145	23.21
289.36	58.03
289.575	12.97
289.79	137.9
290.004	-44.37
290.219	58.03
290.434	-11.61
290.649	29.35
290.864	-5.46
291.079	8.87
291.294	47.79
291.509	55.98
291.724	74.41
291.938	53.93
292.153	74.41
292.368	39.59
292.583	64.17
292.798	66.22
293.012	51.88
293.227	64.17
293.442	-13.65
293.657	58.03
293.871	141.99
294.086	98.99
294.301	115.37
294.516	119.46
294.73	-27.99
294.945	2.73
295.16	25.26
295.374	47.79
295.589	166.57
295.804	23.21
296.018	37.55
296.233	60.07
296.447	39.59
296.662	-15.7
296.877	98.99
297.091	88.75
297.306	37.55
297.52	45.74
297.735	101.03
297.949	-56.66
298.164	90.79
298.378	37.55
298.593	6.83
298.807	-60.76
299.022	66.22
299.236	144.04
299.451	10.92
299.665	-1.37
299.88	-5.46
300.094	86.7
300.309	-21.85
300.523	45.74
300.737	-7.51
300.952	96.94
301.166	88.75
301.381	-15.7
301.595	-40.28
301.809	8.87
302.024	-32.08
302.238	-68.95
302.452	168.62
302.667	70.31
302.881	172.71
303.095	92.84
303.309	94.89
303.524	-15.7
303.738	101.03
303.952	-73.04
304.166	49.83
304.381	-40.28
304.595	115.37
304.809	-34.13
305.023	41.64
305.237	23.21
305.452	-36.18
305.666	174.76
305.88	51.88
306.094	105.13
306.308	43.69
306.522	31.4
306.736	84.65
306.95	111.27
307.164	39.59
307.379	33.45
307.593	103.08
307.807	170.66
308.021	62.12
308.235	45.74
308.449	-99.67
308.663	58.03
308.877	197.29
309.091	121.51
309.305	-44.37
309.519	-68.95
309.733	80.55
309.947	-79.19
310.161	68.27
310.374	162.47
310.588	156.33
310.802	-34.13
311.016	-9.56
311.23	139.94
311.444	-5.46
311.658	53.93
311.872	98.99
312.085	109.22
312.299	182.95
312.513	115.37
312.727	25.26
312.941	-25.94
313.154	25.26
313.368	129.7
313.582	70.31
313.796	86.7
314.009	21.16
314.223	162.47
314.437	12.97
314.651	144.04
314.864	86.7
315.078	-46.42
315.292	-91.48
315.505	29.35
315.719	78.51
315.933	109.22
316.146	-66.9
316.36	-38.23
316.573	96.94
316.787	66.22
317.001	78.51
317.214	-1.37
317.428	33.45
317.641	-21.85
317.855	27.31
318.068	29.35
318.282	39.59
318.495	152.23
318.709	76.46
318.922	68.27
319.136	109.22
319.349	121.51
319.563	-1.37
319.776	125.61
319.99	-50.52
320.203	117.42
320.417	86.7
320.63	66.22
320.843	158.38
321.057	92.84
321.27	29.35
321.483	103.08
321.697	178.86
321.91	-30.04
322.124	35.5
322.337	60.07
322.55	15.02
322.763	19.11
322.977	-11.61
323.19	64.17
323.403	-7.51
323.617	39.59
323.83	162.47
324.043	58.03
324.256	78.51
324.469	-68.95
324.683	121.51
324.896	-40.28
325.109	37.55
325.322	-54.61
325.535	82.6
325.748	49.83
325.962	4.78
326.175	15.02
326.388	4.78
326.601	64.17
326.814	70.31
327.027	47.79
327.24	66.22
327.453	-81.24
327.666	37.55
327.879	144.04
328.092	27.31
328.305	43.69
328.518	25.26
328.731	-9.56
328.944	37.55
329.157	17.07
329.37	-5.46
329.583	141.99
329.796	119.46
330.009	-85.33
330.222	127.66
330.435	119.46
330.648	58.03
330.861	113.32
331.073	6.83
331.286	139.94
331.499	43.69
331.712	-23.89
331.925	29.35
332.138	27.31
332.35	49.83
332.563	58.03
332.776	158.38
332.989	-56.66
333.202	39.59
333.414	55.98
333.627	2.73
333.84	53.93
334.053	33.45
334.265	-30.04
334.478	17.07
334.691	33.45
334.903	35.5
335.116	8.87
335.329	23.21
335.541	82.6
335.754	158.38
335.966	-25.94
336.179	55.98
336.392	41.64
336.604	49.83
336.817	92.84
337.029	70.31
337.242	37.55
337.454	55.98
337.667	8.87
337.88	98.99
338.092	37.55
338.305	146.09
338.517	21.16
338.729	101.03
338.942	84.65
339.154	2.73
339.367	-34.13
339.579	96.94
339.792	-68.95
340.004	51.88
340.217	21.16
340.429	-44.37
340.641	-21.85
340.854	-54.61
341.066	23.21
341.278	150.18
341.491	158.38
341.703	-13.65
341.915	12.97
342.128	84.65
342.34	17.07
342.552	-3.41
342.764	17.07
342.977	10.92
343.189	144.04
343.401	12.97
343.613	-93.52
343.826	33.45
344.038	21.16
344.25	43.69
344.462	6.83
344.674	53.93
344.886	4.78
345.099	21.16
345.311	144.04
345.523	37.55
345.735	-87.38
345.947	115.37
346.159	76.46
346.371	84.65
346.583	-21.85
346.795	174.76
347.007	39.59
347.219	80.55
347.431	43.69
347.643	191.14
347.855	58.03
348.067	141.99
348.279	-73.04
348.491	-83.28
348.703	158.38
348.915	15.02
349.127	-48.47
349.339	41.64
349.551	10.92
349.763	109.22
349.975	111.27
350.187	37.55
350.399	146.09
350.61	39.59
350.822	-19.8
351.034	82.6
351.246	53.93
351.458	55.98
351.669	121.51
351.881	174.76
352.093	115.37
352.305	113.32
352.517	94.89
352.728	53.93
352.94	70.31
353.152	45.74
353.363	-36.18
353.575	98.99
353.787	160.42
353.999	60.07
354.21	203.43
354.422	23.21
354.633	-21.85
354.845	74.41
355.057	-36.18
355.268	51.88
355.48	55.98
355.692	-30.04
355.903	23.21
356.115	-5.46
356.326	-97.62
356.538	101.03
356.749	17.07
356.961	43.69
357.172	-30.04
357.384	6.83
357.595	219.82
357.807	70.31
358.018	-17.75
358.23	49.83
358.441	115.37
358.653	78.51
358.864	76.46
359.075	2.73
359.287	47.79
359.498	37.55
359.709	58.03
359.921	-19.8
360.132	51.88
360.344	-38.23
360.555	-11.61
360.766	76.46
360.977	-17.75
361.189	19.11
361.4	2.73
361.611	127.66
361.823	84.65
362.034	-1.37
362.245	-64.85
362.456	39.59
362.667	225.96
362.879	-60.76
363.09	37.55
363.301	62.12
363.512	45.74
363.723	-3.41
363.935	12.97
364.146	119.46
364.357	-1.37
364.568	12.97
364.779	-25.94
364.99	101.03
365.201	-23.89
365.412	74.41
365.623	-77.14
365.834	115.37
366.045	-27.99
366.256	70.31
366.467	178.86
366.678	-54.61
366.889	25.26
367.1	17.07
367.311	127.66
367.522	-30.04
367.733	64.17
367.944	55.98
368.155	70.31
368.366	94.89
368.577	162.47
368.788	80.55
368.999	-25.94
369.209	-5.46
369.42	262.82
369.631	262.82
369.842	129.7
370.053	17.07
370.264	109.22
370.474	-154.96
370.685	96.94
370.896	21.16
371.107	90.79
371.317	68.27
371.528	-34.13
371.739	92.84
371.95	21.16
372.16	21.16
372.371	-48.47
372.582	2.73
372.792	58.03
373.003	70.31
373.214	66.22
373.424	103.08
373.635	19.11
373.846	172.71
374.056	35.5
374.267	82.6
374.477	109.22
374.688	-111.96
374.898	111.27
375.109	103.08
375.319	10.92
375.53	98.99
375.74	86.7
375.951	15.02
376.161	84.65
376.372	103.08
376.582	-7.51
376.793	15.02
377.003	-101.72
377.214	-25.94
377.424	35.5
377.635	68.27
377.845	96.94
378.055	109.22
378.266	-44.37
378.476	-21.85
378.686	64.17
378.897	33.45
379.107	101.03
379.317	82.6
379.528	4.78
379.738	144.04
379.948	-30.04
380.158	76.46
380.369	37.55
380.579	139.94
380.789	68.27
380.999	115.37
381.21	58.03
381.42	146.09
381.63	-15.7
381.84	37.55
382.05	150.18
382.261	101.03
382.471	172.71
382.681	23.21
382.891	119.46
383.101	101.03
383.311	-71
383.521	49.83
383.731	47.79
383.941	88.75
384.151	88.75
384.361	15.02
384.571	84.65
384.781	82.6
384.991	115.37
385.201	146.09
385.411	119.46
385.621	82.6
385.831	58.03
386.041	23.21
386.251	60.07
386.461	115.37
386.671	10.92
386.881	125.61
387.091	-30.04
387.301	90.79
387.511	60.07
387.72	109.22
387.93	111.27
388.14	-56.66
388.35	80.55
388.56	41.64
388.769	94.89
388.979	37.55
389.189	-46.42
389.399	-34.13
389.609	117.42
389.818	127.66
390.028	137.9
390.238	101.03
390.447	-60.76
390.657	49.83
390.867	41.64
391.076	-56.66
391.286	-34.13
391.496	29.35
391.705	90.79
391.915	225.96
392.125	141.99
392.334	4.78
392.544	191.14
392.753	12.97
392.963	6.83
393.172	51.88
393.382	-23.89
393.591	211.62
393.801	8.87
394.01	164.52
394.22	74.41
394.429	37.55
394.639	-25.94
394.848	84.65
395.058	49.83
395.267	23.21
395.477	62.12
395.686	88.75
395.895	170.66
396.105	160.42
396.314	-1.37
396.524	55.98
396.733	25.26
396.942	141.99
397.152	72.36
397.361	137.9
397.57	103.08
397.78	25.26
397.989	84.65
398.198	191.14
398.407	37.55
398.617	84.65
398.826	43.69
399.035	37.55
399.244	137.9
399.453	21.16
399.663	86.7
399.872	86.7
400.081	-95.57
400.29	152.23
400.499	-32.08
400.708	113.32
400.917	4.78
401.127	68.27
401.336	17.07
401.545	193.19
401.754	115.37
401.963	96.94
402.172	31.4
402.381	29.35
402.59	-1.37
402.799	21.16
403.008	68.27
403.217	25.26
403.426	94.89
403.635	-17.75
403.844	-19.8
404.053	-13.65
404.262	-44.37
404.471	258.73
404.68	37.55
404.888	0.68
405.097	-9.56
405.306	-40.28
405.515	64.17
405.724	66.22
405.933	127.66
406.142	29.35
406.35	53.93
406.559	2.73
406.768	17.07
406.977	199.34
407.185	72.36
407.394	78.51
407.603	-11.61
407.812	94.89
408.02	103.08
408.229	-32.08
408.438	55.98
408.646	-30.04
408.855	64.17
409.064	156.33
409.272	105.13
409.481	23.21
409.69	-5.46
409.898	-17.75
410.107	72.36
410.315	86.7
410.524	23.21
410.733	70.31
410.941	43.69
411.15	72.36
411.358	111.27
411.567	187.05
411.775	25.26
411.984	19.11
412.192	47.79
412.401	53.93
412.609	187.05
412.818	156.33
413.026	160.42
413.234	68.27
413.443	17.07
413.651	-19.8
413.86	-30.04
414.068	119.46
414.276	182.95
414.485	-62.8
414.693	96.94
414.901	219.82
415.11	103.08
415.318	31.4
415.526	55.98
415.734	144.04
415.943	60.07
416.151	101.03
416.359	21.16
416.567	107.18
416.776	180.9
416.984	51.88
417.192	199.34
417.4	2.73
417.608	70.31
417.817	-46.42
418.025	148.14
418.233	244.39
418.441	-73.04
418.649	-34.13
418.857	19.11
419.065	98.99
419.273	21.16
419.481	60.07
419.689	39.59
419.897	96.94
420.105	-11.61
420.313	51.88
420.521	98.99
420.729	131.75
420.937	4.78
421.145	-9.56
421.353	82.6
421.561	72.36
421.769	66.22
421.977	17.07
422.185	117.42
422.393	37.55
422.601	187.05
422.809	98.99
423.017	31.4
423.224	86.7
423.432	156.33
423.64	60.07
423.848	98.99
424.056	10.92
424.263	174.76
424.471	-38.23
424.679	148.14
424.887	33.45
425.094	133.8
425.302	88.75
425.51	53.93
425.718	47.79
425.925	107.18
426.133	19.11
426.341	287.4
426.548	4.78
426.756	-23.89
426.964	125.61
427.171	109.22
427.379	41.64
427.586	80.55
427.794	98.99
428.001	131.75
428.209	66.22
428.417	150.18
428.624	68.27
428.832	133.8
429.039	101.03
429.247	119.46
429.454	115.37
429.662	139.94
429.869	117.42
430.076	113.32
430.284	92.84
430.491	187.05
430.699	264.87
430.906	127.66
431.114	185
431.321	168.62
431.528	92.84
431.736	98.99
431.943	160.42
432.15	174.76
432.358	172.71
432.565	246.44
432.772	-17.75
432.979	225.96
433.187	98.99
433.394	164.52
433.601	37.55
433.808	185
434.016	176.81
434.223	191.14
434.43	254.63
434.637	215.72
434.844	189.1
435.052	162.47
435.259	303.78
435.466	203.43
435.673	275.11
435.88	248.49
436.087	283.3
436.294	363.17
436.501	275.11
436.708	223.91
436.915	258.73
437.122	359.08
437.329	242.34
437.537	273.06
437.743	309.93
437.95	410.28
438.157	336.55
438.364	322.21
438.571	283.3
438.778	471.72
438.985	445.09
439.192	473.76
439.399	412.32
439.606	414.37
439.813	494.24
440.02	522.91
440.227	635.55
440.433	516.77
440.64	520.87
440.847	436.9
441.054	537.25
441.261	711.33
441.467	547.49
441.674	516.77
441.881	635.55
442.088	600.74
442.294	598.69
442.501	666.27
442.708	709.28
442.914	731.81
443.121	879.26
443.328	754.34
443.534	891.55
443.741	823.97
443.948	737.95
444.154	926.36
444.361	1104.54
444.568	944.8
444.774	955.04
444.981	819.87
445.187	1118.87
445.394	1061.53
445.6	1045.15
445.807	1227.42
446.013	1182.36
446.22	1155.74
446.426	1346.2
446.633	1299.09
446.839	1587.86
447.046	1303.19
447.252	1497.75
447.459	1487.51
447.665	1436.31
447.871	1723.02
448.078	1704.59
448.284	1802.9
448.491	1772.18
448.697	1866.38
448.903	1958.54
449.11	1974.92
449.316	2042.51
449.522	2181.77
449.728	2333.32
449.935	2378.37
450.141	2298.5
450.347	2437.77
450.553	2505.35
450.76	2546.31
450.966	2689.67
451.172	2730.62
451.378	2837.12
451.584	2853.5
451.791	3191.42
451.997	3144.31
452.203	3340.92
452.409	3560.05
452.615	3609.2
452.821	3392.12
453.027	3601.01
453.233	4006.51
453.44	3891.82
453.646	4059.76
453.852	4225.64
454.058	4344.42
454.264	4465.25
454.47	4878.94
454.676	4774.5
454.882	5354.07
455.088	4911.71
455.294	5302.87
455.5	5644.88
455.705	6132.3
455.911	6040.14
456.117	6115.92
456.323	6388.3
456.529	6566.47
456.735	6912.58
456.941	7076.41
457.147	7322.17
457.352	7447.1
457.558	7799.35
457.764	8389.16
457.97	8700.45
458.176	8823.33
458.381	9423.39
458.587	9503.26
458.793	10072.59
458.999	9892.37
459.204	11112.96
459.41	11704.82
459.616	11385.34
459.821	12169.71
460.027	12571.11
460.233	13208.03
460.438	13140.45
460.644	13787.61
460.85	14328.27
461.055	14690.76
461.261	15440.32
461.466	14948.81
461.672	15264.19
461.878	17400.23
462.083	16873.9
462.289	17334.69
462.494	17918.36
462.7	18043.29
462.905	18586
463.111	19421.57
463.316	20806
463.522	21420.39
463.727	22061.4
463.932	22858.06
464.138	23396.68
464.343	24398.13
464.549	24660.27
464.754	26130.72
464.959	26788.11
465.165	27496.71
465.37	27570.44
465.575	27523.33
465.781	29161.71
465.986	30034.14
466.191	29489.38
466.397	29739.24
466.602	29411.56
466.807	30587.1
467.012	31375.56
467.218	31858.88
467.423	31752.39
467.628	33157.3
467.833	34945.17
468.038	33896.61
468.244	33476.78
468.449	35227.79
468.654	34502.81
468.859	33880.23
469.064	34549.92
469.269	33732.78
469.474	33904.81
469.679	34957.46
469.885	33917.09
470.09	34384.03
470.295	34719.9
470.5	33988.77
470.705	33753.26
470.91	32997.56
471.115	32741.56
471.32	33523.88
471.525	33110.19
471.73	32221.37
471.935	31912.13
472.139	30785.75
472.344	30978.26
472.549	30662.87
472.754	30255.32
472.959	29452.52
473.164	28690.68
473.369	27805.95
473.574	28721.4
473.778	28266.75
473.983	27883.78
474.188	27255.05
474.393	26093.85
474.598	26153.24
474.802	25565.48
475.007	25041.2
475.212	25033
475.417	23763.26
475.621	23834.94
475.826	23218.5
476.031	23013.71
476.235	22516.05
476.44	22196.57
476.645	21829.98
476.849	21381.48
477.054	21283.17
477.259	21059.95
477.463	20455.79
477.668	19786.11
477.872	20078.97
478.077	19523.97
478.282	18704.78
478.486	19087.75
478.691	18469.26
478.895	18383.25
479.1	18479.5
479.304	18481.55
479.509	17705.37
479.713	17723.8
479.918	17441.18
480.122	17230.24
480.326	17295.78
480.531	17197.48
480.735	16716.2
480.94	16544.17
481.144	17310.11
481.348	16279.99
481.553	16492.97
481.757	16060.85
481.961	16038.33
482.166	16423.34
482.37	16028.09
482.574	15665.6
482.778	15559.1
482.983	15694.27
483.187	15589.82
483.391	15491.52
483.595	15108.55
483.8	14979.53
484.004	15143.36
484.208	15006.15
484.412	14801.35
484.616	14766.54
484.821	14330.32
485.025	14012.88
485.229	14090.71
485.433	13832.66
485.637	13609.43
485.841	13599.2
486.045	13218.27
486.249	13173.22
486.453	12947.94
486.657	13111.78
486.861	12767.72
487.065	12438
487.269	12419.57
487.473	11887.09
487.677	12081.65
487.881	11934.2
488.085	11651.58
488.289	11618.81
488.493	11229.7
488.697	11184.64
488.901	11284.99
489.105	10695.18
489.309	10482.19
489.512	10342.92
489.716	10109.46
489.92	10082.83
490.124	9695.77
490.328	9734.68
490.531	9421.34
490.735	9468.44
490.939	9011.75
491.143	8741.41
491.346	8714.79
491.55	8753.7
491.754	8718.89
491.958	8489.51
492.161	8102.45
492.365	8137.26
492.569	7862.83
492.772	7891.51
492.976	8061.49
493.18	7793.2
493.383	7598.65
493.587	7651.89
493.79	7619.13
493.994	7164.48
494.197	7283.26
494.401	7232.06
494.605	7170.62
494.808	7014.98
495.012	7017.02
495.215	6949.44
495.419	7125.57
495.622	6851.14
495.825	6771.27
496.029	6730.31
496.232	6877.76
496.436	6728.26
496.639	6806.08
496.843	6646.34
497.046	6632.01
497.249	6709.83
497.453	6718.02
497.656	6681.16
497.859	6722.12
498.063	6613.57
498.266	6849.09
498.469	6638.15
498.673	6668.87
498.876	6814.27
499.079	6742.6
499.282	6820.42
499.485	7152.19
499.689	6826.56
499.892	6988.35
500.095	6644.29
500.298	7041.6
500.501	7037.5
500.705	6863.43
500.908	7080.51
501.111	7029.31
501.314	7180.86
501.517	7330.36
501.72	7248.44
501.923	7309.88
502.126	7348.79
502.329	7686.71
502.532	7758.39
502.735	7737.91
502.938	7778.87
503.141	7946.8
503.344	7897.65
503.547	8010.29
503.75	7983.66
503.953	8297
504.156	8313.39
504.359	8376.87
504.562	8452.65
504.765	8870.44
504.968	8915.49
505.17	9118.24
505.373	9114.14
505.576	9251.36
505.779	9218.59
505.982	9318.94
506.185	9679.38
506.387	9966.1
506.59	9890.32
506.793	10019.35
506.996	10357.26
507.198	10711.56
507.401	10674.7
507.604	10844.68
507.807	10936.84
508.009	11270.65
508.212	11538.94
508.415	11801.08
508.617	11956.72
508.82	12110.32
509.022	12194.29
509.225	12636.65
509.428	12929.51
509.63	13140.45
509.833	13365.73
510.035	13763.03
510.238	14025.17
510.44	14004.69
510.643	14750.15
510.845	14787.02
511.048	15153.6
511.25	15516.09
511.453	15702.46
511.655	16419.25
511.858	16617.9
512.06	16791.98
512.262	17308.07
512.465	17435.04
512.667	18174.36
512.87	18493.84
513.072	18739.6
513.274	19519.87
513.477	19820.92
513.679	20242.81
513.881	20529.52
514.084	21049.71
514.286	21447.01
514.488	21825.89
514.69	22659.41
514.893	22792.53
515.095	23218.5
515.297	24068.41
515.499	24187.19
515.701	24674.61
515.904	25485.61
516.106	25995.55
516.308	26224.92
516.51	26845.46
516.712	27648.26
516.914	28020.99
517.116	28793.08
517.318	28850.42
517.52	29581.54
517.722	30210.27
517.925	30396.63
518.127	31262.93
518.329	31344.84
518.531	31496.39
518.733	32846.01
518.935	33323.18
519.136	33450.16
519.338	34044.07
519.54	34449.56
519.742	35215.51
519.944	35862.66
520.146	36380.8
520.348	36694.14
520.55	36862.07
520.752	37390.45
520.954	38500.45
521.155	38434.91
521.357	38994.01
521.559	39280.72
521.761	40165.45
521.963	40222.79
522.164	40482.88
522.366	40986.68
522.568	41326.64
522.77	41386.04
522.971	42276.9
523.173	41981.99
523.375	43313.17
523.576	42577.95
523.778	42633.25
523.98	43167.77
524.181	43655.18
524.383	43341.85
524.584	43909.13
524.786	43833.36
524.988	43681.81
525.189	44341.25
525.391	44720.13
525.592	43937.8
525.794	44466.18
525.995	43776.01
526.197	44349.45
526.398	44007.44
526.6	44253.19
526.801	44341.25
527.003	43642.9
527.204	43511.83
527.406	43640.85
527.607	43773.97
527.808	43599.89
528.01	42780.7
528.211	42934.3
528.412	42936.35
528.614	42281
528.815	42213.41
529.016	42379.3
529.218	41187.38
529.419	41373.75
529.62	41097.27
529.822	40736.83
530.023	40409.15
530.224	39491.66
530.425	39293.01
530.626	38525.02
530.828	38543.45
531.029	38920.28
531.23	37560.43
531.431	37591.15
531.632	37046.39
531.833	36536.45
532.035	36255.87
532.236	35862.66
532.437	35567.76
532.638	35184.79
532.839	34601.11
533.04	34316.45
533.241	33487.02
533.442	33700.01
533.643	33179.82
533.844	32702.65
534.045	32348.35
534.246	31353.04
534.447	31389.9
534.648	30535.9
534.849	30476.51
535.05	29780.2
535.251	29583.59
535.451	29466.86
535.652	29227.24
535.853	28522.74
536.054	28125.44
536.255	27896.06
536.456	27353.35
536.657	27285.77
536.857	26306.84
537.058	26177.82
537.259	26130.72
537.46	25319.72
537.66	25039.15
537.861	24711.47
538.062	24676.66
538.263	24340.79
538.463	24131.9
538.664	23755.07
538.865	23316.81
539.065	23195.98
539.266	22698.32
539.466	22700.37
539.667	22051.16
539.868	22016.35
540.068	21457.25
540.269	21455.2
540.469	21293.41
540.67	20631.92
540.87	20521.33
541.071	20341.11
541.271	20076.92
541.472	20210.04
541.672	19949.95
541.873	19499.39
542.073	19243.4
542.274	19480.96
542.474	18897.29
542.675	18688.4
542.875	18383.25
543.075	18057.62
543.276	17820.06
543.476	17971.61
543.676	17813.91
543.877	17373.6
544.077	17400.23
544.277	16935.34
544.478	16755.11
544.678	16955.82
544.878	16646.57
545.078	16431.54
545.279	15954.36
545.479	15661.5
545.679	15604.16
545.879	15499.71
546.079	15626.68
546.28	15212.99
546.48	14864.84
546.68	14983.62
546.88	14821.83
547.08	14422.48
547.28	14432.72
547.48	14047.7
547.68	14084.56
547.88	14008.79
548.081	13543.9
548.281	13228.51
548.481	13496.8
548.681	13259.23
548.881	12958.18
549.081	13052.39
549.28	12671.47
549.48	12550.64
549.68	12497.39
549.88	12294.64
550.08	11903.48
550.28	11801.08
550.48	11825.65
550.68	11545.08
550.88	11293.18
551.08	11254.27
551.279	11303.42
551.479	10721.8
551.679	10826.25
551.879	10586.63
552.079	10476.04
552.278	10230.29
552.478	10271.25
552.678	10177.04
552.878	9916.95
553.077	9568.79
553.277	9329.18
553.477	9409.05
553.676	9400.86
553.876	9132.58
554.076	9007.65
554.275	8735.27
554.475	8583.72
554.674	8444.46
554.874	8270.38
555.074	8391.21
555.273	8227.37
555.473	8059.44
555.672	7928.37
555.872	7916.08
556.071	7727.67
556.271	7803.44
556.47	7567.93
556.67	7252.54
556.869	7363.13
557.068	7211.58
557.268	6894.15
557.467	6947.39
557.667	6814.27
557.866	6515.27
558.065	6515.27
558.265	6203.98
558.464	6160.97
558.663	6171.21
558.863	5947.98
559.062	6152.78
559.261	5855.83
559.461	5986.9
559.66	5651.03
559.859	5530.2
560.058	5573.21
560.258	5423.7
560.457	5372.5
560.656	5499.48
560.855	5110.36
561.054	5423.7
561.253	5020.25
561.453	5055.07
561.652	4956.77
561.851	4958.81
562.05	4747.87
562.249	4561.51
562.448	4657.76
562.647	4530.79
562.846	4514.41
563.045	4588.13
563.244	4399.72
563.443	4360.81
563.642	4219.5
563.841	4182.63
564.04	4196.97
564.239	4121.2
564.438	4000.37
564.637	3846.77
564.836	3961.45
565.035	3793.52
565.234	3717.75
565.432	3701.36
565.631	3568.24
565.83	3611.25
566.029	3400.31
566.228	3527.28
566.427	3568.24
566.625	3267.19
566.824	3248.76
567.023	3347.06
567.222	3248.76
567.42	3269.24
567.619	3172.99
567.818	3115.64
568.016	3203.71
568.215	3048.06
568.414	3021.44
568.612	2894.46
568.811	2845.31
569.01	2818.69
569.208	2853.5
569.407	2859.65
569.605	2701.95
569.804	2704
570.002	2593.41
570.201	2577.03
570.4	2660.99
570.598	2491.01
570.797	2546.31
570.995	2466.44
571.193	2499.2
571.392	2372.23
571.59	2230.92
571.789	2505.35
571.987	2384.52
572.186	2310.79
572.384	2075.27
572.582	2200.2
572.781	2333.32
572.979	2081.42
573.177	2093.71
573.376	2030.22
573.574	2071.18
573.772	2073.23
573.971	1872.53
574.169	2044.56
574.367	2116.23
574.565	1784.46
574.763	1759.89
574.962	1823.37
575.16	1671.83
575.358	1733.26
575.556	1720.98
575.754	1731.22
575.952	1737.36
576.151	1661.59
576.349	1669.78
576.547	1499.8
576.745	1604.24
576.943	1618.58
577.141	1510.04
577.339	1405.59
577.537	1534.61
577.735	1526.42
577.933	1571.47
578.131	1370.77
578.329	1581.71
578.527	1407.64
578.725	1444.5
578.923	1237.66
579.121	1309.33
579.319	1254.04
579.516	1309.33
579.714	1464.98
579.912	1307.29
580.11	1196.7
580.308	1215.13
580.506	1151.64
580.704	1020.57
580.901	1010.33
581.099	1178.26
581.297	1079.96
581.495	1110.68
581.692	1073.82
581.89	1196.7
582.088	1047.19
582.285	1034.91
582.483	989.85
582.681	1012.38
582.878	1008.28
583.076	1028.76
583.274	1055.39
583.471	1151.64
583.669	955.04
583.866	905.88
584.064	883.36
584.262	844.45
584.459	856.73
584.657	959.13
584.854	952.99
585.052	922.27
585.249	914.08
585.447	877.21
585.644	701.09
585.841	879.26
586.039	787.1
586.236	858.78
586.434	686.75
586.631	733.86
586.828	674.46
587.026	797.34
587.223	621.22
587.42	709.28
587.618	637.6
587.815	846.49
588.012	731.81
588.21	608.93
588.407	742.05
588.604	721.57
588.801	658.08
588.999	629.41
589.196	658.08
589.393	580.26
589.59	711.33
589.787	645.79
589.984	668.32
590.182	619.17
590.379	516.77
590.576	610.98
590.773	627.36
590.97	639.65
591.167	613.03
591.364	602.79
591.561	565.92
591.758	721.57
591.955	688.8
592.152	545.44
592.349	559.78
592.546	629.41
592.743	559.78
592.94	621.22
593.137	594.59
593.334	674.46
593.531	688.8
593.727	621.22
593.924	606.88
594.121	625.31
594.318	553.63
594.515	647.84
594.712	768.67
594.908	717.47
595.105	502.43
595.302	623.27
595.499	604.83
595.696	817.82
595.892	479.91
596.089	723.62
596.286	633.5
596.482	934.56
596.679	748.19
596.876	617.12
597.072	889.5
597.269	778.91
597.466	758.43
597.662	801.44
597.859	801.44
598.055	905.88
598.252	903.84
598.448	969.37
598.645	1000.09
598.841	1002.14
599.038	1188.5
599.234	1235.61
599.431	1168.02
599.627	1067.67
599.824	1188.5
600.02	1100.44
600.217	1168.02
600.413	1340.05
600.609	1329.81
600.806	1626.77
601.002	1514.13
601.198	1385.11
601.395	1634.96
601.591	1680.02
601.787	1667.73
601.984	1784.46
602.18	1823.37
602.376	1796.75
602.572	1942.16
602.769	2087.56
602.965	2083.47
603.161	2142.86
603.357	2126.47
603.553	2574.98
603.75	2255.5
603.946	2482.82
604.142	2556.55
604.338	2812.54
604.534	2888.32
604.73	2732.67
604.926	2820.74
605.122	3052.16
605.318	3078.78
605.514	3166.84
605.71	3181.18
605.906	3408.5
606.102	3295.86
606.298	3605.11
606.494	3760.75
606.69	3975.79
606.886	3795.57
607.082	4012.65
607.278	4070
607.474	4219.5
607.67	4461.16
607.866	4268.65
608.062	4784.74
608.257	4653.67
608.453	4823.65
608.649	4934.24
608.845	4926.05
609.041	5067.36
609.236	5427.8
609.432	5626.45
609.628	5821.01
609.824	5937.74
610.019	6103.63
610.215	6138.44
610.411	6476.36
610.606	6742.6
610.802	6527.56
610.998	6851.14
611.193	7076.41
611.389	7182.91
611.584	7356.99
611.78	7371.32
611.976	7709.24
612.171	8026.67
612.367	8071.73
612.562	8415.79
612.758	8692.26
612.953	8729.13
613.149	9091.62
613.344	9134.62
613.539	9536.03
613.735	9886.23
613.93	9939.47
614.126	10056.21
614.321	10809.86
614.517	10899.97
614.712	11059.71
614.907	11471.36
615.103	11540.99
615.298	11835.89
615.493	12444.14
615.688	12319.21
615.884	13062.63
616.079	12849.64
616.274	13593.05
616.47	13806.04
616.665	14164.43
616.86	14533.07
617.055	14723.53
617.25	15266.24
617.445	15557.05
617.641	15790.52
617.836	16519.6
618.031	16546.22
618.226	17412.51
618.421	17621.41
618.616	18282.9
618.811	17899.93
619.006	18948.49
619.201	19188.1
619.396	19673.47
619.591	19775.87
619.786	20812.14
619.981	20640.11
620.176	21549.41
620.371	21625.18
620.566	22319.45
620.761	22522.19
620.956	23181.64
621.151	23427.4
621.346	24099.13
621.541	24254.78
621.735	25477.41
621.93	25258.28
622.125	26378.52
622.32	26112.28
622.515	26724.63
622.709	27197.71
622.904	27742.47
623.099	28031.23
623.294	28901.62
623.488	29059.31
623.683	29790.44
623.878	29896.93
624.072	30757.08
624.267	31060.18
624.462	31703.24
624.656	32172.22
624.851	32784.57
625.046	32815.29
625.24	33360.05
625.435	33878.18
625.629	34629.79
625.824	34791.58
626.018	35522.7
626.213	35123.35
626.407	35780.74
626.602	35903.62
626.796	36737.15
626.991	37109.88
627.185	37640.3
627.38	37447.79
627.574	37664.88
627.768	37933.16
627.963	38277.22
628.157	38383.71
628.352	38572.13
628.546	38146.15
628.74	38912.09
628.935	38828.12
629.129	38453.34
629.323	38246.5
629.517	38258.79
629.712	38053.99
629.906	37619.82
630.1	37288.05
630.294	37144.69
630.489	36266.11
630.683	36814.97
630.877	35078.29
631.071	34621.59
631.265	34660.51
631.459	33865.89
631.653	33276.08
631.848	32573.63
632.042	31611.08
632.236	31334.6
632.43	30386.39
632.624	29481.19
632.818	28266.75
633.012	27799.81
633.206	26884.37
633.4	26069.28
633.594	24977.71
633.788	24158.52
633.982	23550.28
634.176	22659.41
634.369	21856.61
634.563	20922.73
634.757	20285.81
634.951	19822.97
635.145	18952.59
635.339	18088.34
635.533	17678.75
635.726	16679.34
635.92	16007.61
636.114	15362.5
636.308	14643.66
636.501	14115.28
636.695	13707.74
636.889	12931.56
637.083	12448.24
637.276	11997.68
637.47	11422.2
637.664	10789.38
637.857	10426.89
638.051	10299.92
638.244	9531.93
638.438	9294.36
638.632	8997.41
638.825	8419.88
639.019	8325.68
639.212	7897.65
639.406	7680.57
639.599	7328.31
639.793	7076.41
639.986	6693.44
640.18	6644.29
640.373	6246.99
640.567	5958.22
640.76	5767.76
640.954	5655.12
641.147	5306.97
641.34	5108.32
641.534	4946.53
641.727	4862.56
641.92	4625
642.114	4618.85
642.307	4274.79
642.5	4158.06
642.694	3871.34
642.887	3662.45
643.08	3746.42
643.273	3644.02
643.467	3355.26
643.66	3209.85
643.853	3027.58
644.046	2957.95
644.239	2857.6
644.432	2695.81
644.626	2710.15
644.819	2562.69
645.012	2429.57
645.205	2443.91
645.398	2454.15
645.591	2294.41
645.784	2060.94
645.977	1950.35
646.17	1987.21
646.363	1952.4
646.556	1819.28
646.749	1704.59
646.942	1632.91
647.135	1669.78
647.328	1512.08
647.521	1524.37
647.714	1464.98
647.907	1325.72
648.099	1301.14
648.292	1323.67
648.485	1290.9
648.678	1153.69
648.871	1135.26
649.064	1133.21
649.256	918.17
649.449	985.76
649.642	887.45
649.835	934.56
650.027	907.93
650.22	1047.19
650.413	950.94
650.605	844.45
650.798	742.05
650.991	764.57
651.183	725.66
651.376	766.62
651.568	772.77
651.761	672.42
651.954	653.98
652.146	590.5
652.339	680.61
652.531	764.57
652.724	447.14
652.916	578.21
653.109	350.89
653.301	617.12
653.494	602.79
653.686	547.49
653.879	670.37
654.071	432.8
654.263	436.9
654.456	346.79
654.648	537.25
654.84	459.43
655.033	340.65
655.225	484
655.417	205.48
655.61	498.34
655.802	422.56
655.994	486.05
656.186	285.35
656.379	397.99
656.571	314.02
656.763	238.25
656.955	293.54
657.148	328.36
657.34	375.46
657.532	309.93
657.724	303.78
657.916	262.82
658.108	367.27
658.3	338.6
658.492	283.3
658.684	228.01
658.876	268.97
659.068	135.85
659.26	150.18
659.452	207.53
659.644	178.86
659.836	309.93
660.028	178.86
660.22	152.23
660.412	185
660.604	242.34
660.796	309.93
660.988	266.92
661.18	191.14
661.372	246.44
661.563	176.81
661.755	225.96
661.947	139.94
662.139	60.07
662.331	221.86
662.522	131.75
662.714	156.33
662.906	115.37
663.097	144.04
663.289	119.46
663.481	33.45
663.673	225.96
663.864	125.61
664.056	221.86
664.247	98.99
664.439	234.15
664.631	160.42
664.822	187.05
665.014	174.76
665.205	58.03
665.397	152.23
665.588	80.55
665.78	129.7
665.971	193.19
666.163	90.79
666.354	172.71
666.546	113.32
666.737	23.21
666.929	119.46
667.12	58.03
667.311	178.86
667.503	125.61
667.694	35.5
667.885	113.32
668.077	213.67
668.268	17.07
668.459	47.79
668.651	135.85
668.842	148.14
669.033	141.99
669.224	33.45
669.416	383.65
669.607	103.08
669.798	70.31
669.989	205.48
670.18	74.41
670.371	113.32
670.563	49.83
670.754	146.09
670.945	217.77
671.136	193.19
671.327	72.36
671.518	199.34
671.709	254.63
671.9	158.38
672.091	262.82
672.282	109.22
672.473	146.09
672.664	105.13
672.855	127.66
673.046	135.85
673.237	248.49
673.428	119.46
673.619	211.62
673.809	58.03
674	201.38
674.191	129.7
674.382	101.03
674.573	125.61
674.764	53.93
674.954	154.28
675.145	111.27
675.336	49.83
675.527	58.03
675.717	60.07
675.908	90.79
676.099	49.83
676.289	164.52
676.48	90.79
676.671	76.46
676.861	64.17
677.052	103.08
677.243	170.66
677.433	33.45
677.624	260.77
677.814	141.99
678.005	33.45
678.195	187.05
678.386	68.27
678.576	125.61
678.767	86.7
678.957	162.47
679.148	111.27
679.338	244.39
679.529	123.56
679.719	72.36
679.909	176.81
680.1	170.66
680.29	199.34
680.481	60.07
680.671	223.91
680.861	160.42
681.052	191.14
681.242	197.29
681.432	221.86
681.622	98.99
681.813	80.55
682.003	113.32
682.193	86.7
682.383	141.99
682.573	84.65
682.764	78.51
682.954	125.61
683.144	252.58
683.334	166.57
683.524	105.13
683.714	148.14
683.904	199.34
684.094	127.66
684.284	221.86
684.474	209.58
684.664	185
684.854	150.18
685.044	178.86
685.234	172.71
685.424	141.99
685.614	174.76
685.804	266.92
685.994	199.34
686.184	211.62
686.374	193.19
686.564	45.74
686.753	232.1
686.943	82.6
687.133	86.7
687.323	119.46
687.513	199.34
687.702	55.98
687.892	154.28
688.082	256.68
688.272	250.53
688.461	148.14
688.651	307.88
688.841	252.58
689.03	84.65
689.22	133.8
689.41	234.15
689.599	191.14
689.789	146.09
689.979	193.19
690.168	197.29
690.358	152.23
690.547	187.05
690.737	197.29
690.926	168.62
691.116	185
691.305	264.87
691.495	213.67
691.684	49.83
691.874	141.99
692.063	105.13
692.252	262.82
692.442	223.91
692.631	94.89
692.82	141.99
693.01	230.06
693.199	96.94
693.388	123.56
693.578	82.6
693.767	199.34
693.956	197.29
694.146	178.86
694.335	180.9
694.524	125.61
694.713	264.87
694.902	176.81
695.092	176.81
695.281	203.43
695.47	139.94
695.659	182.95
695.848	180.9
696.037	78.51
696.226	82.6
696.415	172.71
696.604	113.32
696.793	223.91
696.982	119.46
697.171	252.58
697.36	150.18
697.549	119.46
697.738	19.11
697.927	133.8
698.116	33.45
698.305	207.53
698.494	119.46
698.683	84.65
698.872	273.06
699.061	189.1
699.25	209.58
699.438	166.57
699.627	115.37
699.816	314.02
700.005	152.23
700.193	117.42
700.382	219.82
700.571	115.37
700.76	203.43
700.948	191.14
701.137	211.62
701.326	219.82
701.514	62.12
701.703	244.39
701.892	170.66
702.08	344.74
702.269	146.09
702.457	94.89
702.646	234.15
702.834	37.55
703.023	207.53
703.212	195.24
703.4	185
703.589	160.42
703.777	150.18
703.965	86.7
704.154	96.94
704.342	66.22
704.531	96.94
704.719	96.94
704.907	205.48
705.096	101.03
705.284	21.16
705.472	152.23
705.661	129.7
705.849	199.34
706.037	275.11
706.226	246.44
706.414	180.9
706.602	109.22
706.79	207.53
706.979	109.22
707.167	162.47
707.355	115.37
707.543	182.95
707.731	195.24
707.919	150.18
708.107	129.7
708.296	101.03
708.484	144.04
708.672	230.06
708.86	144.04
709.048	176.81
709.236	76.46
709.424	158.38
709.612	166.57
709.8	35.5
709.988	156.33
710.176	221.86
710.364	189.1
710.551	113.32
710.739	125.61
710.927	148.14
711.115	117.42
711.303	199.34
711.491	209.58
711.679	135.85
711.866	156.33
712.054	80.55
712.242	180.9
712.43	199.34
712.617	148.14
712.805	94.89
712.993	119.46
713.181	125.61
713.368	172.71
713.556	119.46
713.744	195.24
713.931	223.91
714.119	264.87
714.306	164.52
714.494	125.61
714.682	162.47
714.869	70.31
715.057	115.37
715.244	86.7
715.432	166.57
715.619	98.99
715.807	238.25
715.994	180.9
716.182	92.84
716.369	293.54
716.556	170.66
716.744	6.83
716.931	119.46
717.119	195.24
717.306	123.56
717.493	178.86
717.681	146.09
717.868	121.51
718.055	154.28
718.242	133.8
718.43	150.18
718.617	207.53
718.804	119.46
718.991	250.53
719.179	152.23
719.366	211.62
719.553	170.66
719.74	158.38
719.927	178.86
720.114	94.89
720.301	182.95
720.488	146.09
720.676	223.91
720.863	168.62
721.05	275.11
721.237	211.62
721.424	201.38
721.611	256.68
721.798	123.56
721.985	43.69
722.172	148.14
722.358	193.19
722.545	309.93
722.732	238.25
722.919	213.67
723.106	203.43
723.293	182.95
723.48	111.27
723.667	115.37
723.853	248.49
724.04	193.19
724.227	258.73
724.414	111.27
724.6	199.34
724.787	193.19
724.974	357.03
725.161	158.38
725.347	125.61
725.534	168.62
725.72	176.81
725.907	234.15
726.094	266.92
726.28	70.31
726.467	195.24
726.653	137.9
726.84	248.49
727.027	371.36
727.213	217.77
727.4	301.73
727.586	215.72
727.773	191.14
727.959	176.81
728.145	225.96
728.332	135.85
728.518	96.94
728.705	232.1
728.891	225.96
729.077	137.9
729.264	82.6
729.45	80.55
729.636	371.36
729.823	213.67
730.009	160.42
730.195	178.86
730.382	180.9
730.568	139.94
730.754	205.48
730.94	182.95
731.126	154.28
731.313	254.63
731.499	187.05
731.685	271.01
731.871	230.06
732.057	180.9
732.243	299.69
732.429	197.29
732.615	338.6
732.801	217.77
732.987	168.62
733.173	139.94
733.359	148.14
733.545	209.58
733.731	203.43
733.917	361.13
734.103	281.25
734.289	211.62
734.475	131.75
734.661	352.93
734.847	195.24
735.033	137.9
735.219	221.86
735.404	113.32
735.59	115.37
735.776	191.14
735.962	189.1
736.148	279.21
736.333	305.83
736.519	135.85
736.705	225.96
736.89	195.24
737.076	244.39
737.262	105.13
737.447	162.47
737.633	185
737.819	215.72
738.004	150.18
738.19	150.18
738.375	174.76
738.561	289.45
738.747	223.91
738.932	158.38
739.118	346.79
739.303	287.4
739.489	232.1
739.674	158.38
739.859	121.51
740.045	248.49
740.23	193.19
740.416	70.31
740.601	238.25
740.786	174.76
740.972	213.67
741.157	105.13
741.342	76.46
741.528	152.23
741.713	242.34
741.898	152.23
742.084	213.67
742.269	199.34
742.454	193.19
742.639	262.82
742.824	101.03
743.01	316.07
743.195	307.88
743.38	156.33
743.565	209.58
743.75	144.04
743.935	373.41
744.12	326.31
744.305	131.75
744.49	268.97
744.675	176.81
744.86	223.91
745.045	258.73
745.23	221.86
745.415	162.47
745.6	311.97
745.785	205.48
745.97	303.78
746.155	193.19
746.34	289.45
746.525	168.62
746.71	307.88
746.895	131.75
747.079	176.81
747.264	185
747.449	307.88
747.634	256.68
747.819	256.68
748.003	152.23
748.188	58.03
748.373	209.58
748.557	195.24
748.742	115.37
748.927	103.08
749.111	133.8
749.296	221.86
749.481	228.01
749.665	271.01
749.85	176.81
750.034	275.11
750.219	168.62
750.404	180.9
750.588	125.61
750.773	58.03
750.957	238.25
751.141	180.9
751.326	199.34
751.51	121.51
751.695	76.46
751.879	187.05
752.064	242.34
752.248	160.42
752.432	279.21
752.617	314.02
752.801	119.46
752.985	117.42
753.17	166.57
753.354	101.03
753.538	297.64
753.722	109.22
753.907	113.32
754.091	53.93
754.275	172.71
754.459	84.65
754.643	80.55
754.828	176.81
755.012	103.08
755.196	82.6
755.38	131.75
755.564	129.7
755.748	180.9
755.932	180.9
756.116	193.19
756.3	137.9
756.484	92.84
756.668	219.82
756.852	0.68
757.036	162.47
757.22	96.94
757.404	92.84
757.588	98.99
757.772	170.66
757.956	101.03
758.14	244.39
758.323	62.12
758.507	98.99
758.691	84.65
758.875	133.8
759.059	168.62
759.242	107.18
759.426	43.69
759.61	62.12
759.794	55.98
759.977	107.18
760.161	291.49
760.345	154.28
760.528	234.15
760.712	39.59
760.895	144.04
761.079	119.46
761.263	29.35
761.446	80.55
761.63	51.88
761.813	170.66
761.997	12.97
762.18	80.55
762.364	107.18
762.547	4.78
762.731	80.55
762.914	101.03
763.098	74.41
763.281	47.79
763.464	19.11
763.648	219.82
763.831	86.7
764.015	33.45
764.198	191.14
764.381	103.08
764.564	103.08
764.748	94.89
764.931	135.85
765.114	94.89
765.297	148.14
765.481	78.51
765.664	86.7
765.847	86.7
766.03	125.61
766.213	33.45
766.397	64.17
766.58	6.83
766.763	133.8
766.946	21.16
767.129	68.27
767.312	-5.46
767.495	111.27
767.678	47.79
767.861	62.12
768.044	123.56
768.227	21.16
768.41	49.83
768.593	39.59
768.776	98.99
768.959	-9.56
769.142	129.7
769.324	172.71
769.507	55.98
769.69	10.92
769.873	12.97
770.056	228.01
770.239	117.42
770.421	103.08
770.604	78.51
770.787	74.41
770.97	25.26
771.152	-7.51
771.335	103.08
771.518	43.69
771.7	176.81
771.883	232.1
772.066	72.36
772.248	90.79
772.431	137.9
772.613	133.8
772.796	41.64
772.978	156.33
773.161	223.91
773.343	70.31
773.526	-17.75
773.708	-36.18
773.891	-13.65
774.073	117.42
774.256	90.79
774.438	150.18
774.621	51.88
774.803	60.07
774.985	64.17
775.168	88.75
775.35	84.65
775.532	51.88
775.715	27.31
775.897	41.64
776.079	66.22
776.261	109.22
776.444	35.5
776.626	23.21
776.808	31.4
776.99	-3.41
777.173	0.68
777.355	35.5
777.537	43.69
777.719	53.93
777.901	49.83
778.083	41.64
778.265	-32.08
778.447	53.93
778.629	6.83
778.811	6.83
778.993	74.41
779.175	78.51
779.357	68.27
779.539	-36.18
779.721	78.51
779.903	123.56
780.085	10.92
780.267	94.89
780.449	37.55
780.631	107.18
780.812	203.43
780.994	10.92
781.176	-1.37
781.358	60.07
781.54	64.17
781.721	45.74
781.903	70.31
782.085	-34.13
782.267	0.68
782.448	58.03
782.63	33.45
782.812	58.03
782.993	68.27
783.175	62.12
783.357	15.02
783.538	55.98
783.72	-27.99
783.901	19.11
784.083	123.56
784.264	41.64
784.446	-77.14
784.627	-15.7
784.809	58.03
784.99	70.31
785.172	27.31
785.353	49.83
785.535	49.83
785.716	-48.47
785.897	-3.41
786.079	64.17
786.26	37.55
786.441	66.22
786.623	-73.04
786.804	2.73
786.985	49.83
787.167	64.17
787.348	49.83
787.529	-97.62
787.71	146.09
787.891	160.42
788.073	37.55
788.254	-38.23
788.435	135.85
788.616	37.55
788.797	0.68
788.978	2.73
789.159	17.07
789.34	113.32
789.522	-3.41
789.703	19.11
789.884	86.7
790.065	8.87
790.246	195.24
790.427	144.04
790.607	49.83
790.788	58.03
790.969	-34.13
791.15	21.16
791.331	19.11
791.512	55.98
791.693	-73.04
791.874	21.16
792.054	213.67
792.235	70.31
792.416	-34.13
792.597	-75.09
792.778	51.88
792.958	78.51
793.139	45.74
793.32	47.79
793.5	15.02
793.681	74.41
793.862	49.83
794.042	37.55
794.223	-97.62
794.404	76.46
794.584	-128.34
794.765	103.08
794.945	37.55
795.126	33.45
795.306	49.83
795.487	-17.75
795.667	6.83
795.848	12.97
796.028	-38.23
796.209	43.69
796.389	35.5
796.57	2.73
796.75	-68.95
796.93	-15.7
797.111	-46.42
797.291	33.45
797.471	123.56
797.652	-27.99
797.832	-89.43
798.012	-1.37
798.192	27.31
798.373	-13.65
798.553	-9.56
798.733	60.07
798.913	-75.09
799.093	-79.19
799.274	41.64
799.454	23.21
799.634	64.17
799.814	66.22
799.994	94.89
800.174	92.84
800.354	43.69
800.534	-44.37
800.714	55.98
800.894	-36.18
801.074	-116.05
801.254	-107.86
801.434	66.22
801.614	47.79
801.794	-75.09
801.974	1518.23
802.154	-54.61
802.334	94.89
802.514	-52.56
802.693	60.07
802.873	-9.56
803.053	68.27
803.233	21.16
803.413	-9.56
803.592	-73.04
803.772	-42.32
803.952	10.92
804.131	-85.33
804.311	109.22
804.491	21.16
804.67	-3.41
804.85	-75.09
805.03	6.83
805.209	105.13
805.389	-23.89
805.568	-7.51
805.748	49.83
805.928	-13.65
806.107	113.32
806.287	60.07
806.466	-13.65
806.646	21.16
806.825	-58.71
807.004	-32.08
807.184	10.92
807.363	94.89
807.543	60.07
807.722	-79.19
807.901	107.18
808.081	80.55
808.26	-128.34
808.439	6.83
808.619	19.11
808.798	-56.66
808.977	53.93
809.156	103.08
809.336	-11.61
809.515	49.83
809.694	-42.32
809.873	-73.04
810.052	12.97
810.231	84.65
810.411	-11.61
810.59	-46.42
810.769	41.64
810.948	45.74
811.127	-109.91
811.306	-54.61
811.485	6.83
811.664	113.32
811.843	2.73
812.022	-7.51
812.201	-40.28
812.38	39.59
812.559	-58.71
812.737	96.94
812.916	-19.8
813.095	-62.8
813.274	-1.37
813.453	-46.42
813.632	-5.46
813.811	86.7
813.989	-23.89
814.168	29.35
814.347	-62.8
814.526	-38.23
814.704	90.79
814.883	92.84
815.062	-97.62
815.24	90.79
815.419	-19.8
815.598	37.55
815.776	-109.91
815.955	29.35
816.133	-97.62
816.312	4.78
816.49	-23.89
816.669	8.87
816.847	-9.56
817.026	19.11
817.204	-32.08
817.383	-32.08
817.561	-73.04
817.74	-25.94
817.918	35.5
818.097	-103.76
818.275	-56.66
818.453	84.65
818.632	-17.75
818.81	49.83
818.988	-44.37
819.167	-60.76
819.345	53.93
819.523	-23.89
819.701	70.31
819.879	47.79
820.058	-42.32
820.236	64.17
820.414	39.59
820.592	41.64
820.77	-3.41
820.948	-30.04
821.127	-7.51
821.305	4.78
821.483	-60.76
821.661	88.75
821.839	-23.89
822.017	-126.29
822.195	-56.66
822.373	111.27
822.551	39.59
822.729	80.55
822.907	-36.18
823.085	31.4
823.262	21.16
823.44	-23.89
823.618	8.87
823.796	33.45
823.974	-23.89
824.152	-64.85
824.329	-42.32
824.507	51.88
824.685	53.93
824.863	58.03
825.04	51.88
825.218	27.31
825.396	-34.13
825.574	-68.95
825.751	-27.99
825.929	96.94
826.107	-44.37
826.284	25.26
826.462	62.12
826.639	-19.8
826.817	-62.8
826.994	4.78
827.172	-21.85
827.349	137.9
827.527	10.92
827.704	-36.18
827.882	135.85
828.059	25.26
828.237	-5.46
828.414	49.83
828.591	-140.63
828.769	-38.23
828.946	12.97
829.124	68.27
829.301	68.27
829.478	27.31
829.655	4.78
829.833	-44.37
830.01	-134.48
830.187	45.74
830.364	-66.9
830.542	19.11
830.719	178.86
830.896	-9.56
831.073	17.07
831.25	107.18
831.427	-15.7
831.604	-1.37
831.782	-7.51
831.959	-15.7
832.136	-44.37
832.313	-32.08
832.49	-101.72
832.667	90.79
832.844	-128.34
833.021	113.32
833.198	25.26
833.374	15.02
833.551	12.97
833.728	37.55
833.905	82.6
834.082	-111.96
834.259	-15.7
834.436	60.07
834.612	-62.8
834.789	68.27
834.966	-68.95
835.143	-48.47
835.319	-15.7
835.496	25.26
835.673	-11.61
835.85	51.88
836.026	90.79
836.203	47.79
836.38	33.45
836.556	15.02
836.733	-42.32
836.909	105.13
837.086	53.93
837.262	-95.57
837.439	-42.32
837.616	-85.33
837.792	-23.89
837.968	-25.94
838.145	-167.25
838.321	-36.18
838.498	55.98
838.674	29.35
838.851	76.46
839.027	-68.95
839.203	-23.89
839.38	74.41
839.556	-58.71
839.732	146.09
839.909	35.5
840.085	78.51
840.261	-25.94
840.437	37.55
840.614	-58.71
840.79	47.79
840.966	80.55
841.142	0.68
841.318	-17.75
841.494	37.55
841.671	29.35
841.847	-21.85
842.023	-85.33
842.199	60.07
842.375	144.04
842.551	-116.05
842.727	-27.99
842.903	174.76
843.079	-105.81
843.255	60.07
843.431	-116.05
843.607	2.73
843.783	-109.91
843.959	72.36
844.134	-46.42
844.31	47.79
844.486	-64.85
844.662	-30.04
844.838	25.26
845.013	-13.65
845.189	2.73
845.365	2.73
845.541	-36.18
845.716	2.73
845.892	-19.8
846.068	47.79
846.244	-87.38
846.419	-19.8
846.595	-34.13
846.77	-27.99
846.946	-25.94
847.122	-34.13
847.297	-25.94
847.473	115.37
847.648	-75.09
847.824	37.55
847.999	-134.48
848.175	-42.32
848.35	27.31
848.526	86.7
848.701	86.7
848.876	43.69
849.052	58.03
849.227	-44.37
849.403	-48.47
849.578	-34.13
849.753	-17.75
849.929	58.03
850.104	-114
850.279	-25.94
850.454	27.31
850.63	-42.32
850.805	60.07
850.98	-54.61
851.155	70.31
851.33	-1.37
851.505	-111.96
851.681	60.07
851.856	-44.37
852.031	92.84
852.206	-3.41
852.381	19.11
852.556	-38.23
852.731	10.92
852.906	137.9
853.081	25.26
853.256	64.17
853.431	-23.89
853.606	-68.95
853.781	-54.61
853.956	-173.39
854.131	19.11
854.305	-91.48
854.48	2.73
854.655	-97.62
854.83	-64.85
855.005	-13.65
855.18	39.59
855.354	49.83
855.529	-9.56
855.704	-124.24
855.879	49.83
856.053	-95.57
856.228	-64.85
856.403	-60.76
856.577	-58.71
856.752	-116.05
856.926	31.4
857.101	-25.94
857.276	-111.96
857.45	33.45
857.625	51.88
857.799	41.64
857.974	90.79
858.148	-105.81
858.323	107.18
858.497	-73.04
858.672	-58.71
858.846	-75.09
859.02	-27.99
859.195	-146.77
859.369	-15.7
859.543	31.4
859.718	84.65
859.892	25.26
860.066	-56.66
860.241	-62.8
860.415	-77.14
860.589	43.69
860.763	-44.37
860.938	-77.14
861.112	103.08
861.286	-11.61
861.46	86.7
861.634	37.55
861.808	51.88
861.982	-103.76
862.157	-62.8
862.331	70.31
862.505	-13.65
862.679	-34.13
862.853	-64.85
863.027	-101.72
863.201	103.08
863.375	-60.76
863.549	68.27
863.722	23.21
863.896	-13.65
864.07	-56.66
864.244	-38.23
864.418	90.79
864.592	-3.41
864.766	21.16
864.939	45.74
865.113	-25.94
865.287	84.65
865.461	-27.99
865.634	6.83
865.808	-19.8
865.982	-58.71
866.156	-34.13
866.329	-36.18
866.503	27.31
866.676	84.65
866.85	-9.56
867.024	-83.28
867.197	74.41
867.371	82.6
867.544	70.31
867.718	-93.52
867.891	62.12
868.065	-68.95
868.238	33.45
868.412	51.88
868.585	15.02
868.759	-134.48
868.932	-34.13
869.105	-66.9
869.279	-1.37
869.452	-89.43
869.625	-3.41
869.799	-7.51
869.972	-13.65
870.145	-66.9
870.319	23.21
870.492	-34.13
870.665	-95.57
870.838	-48.47
871.011	-210.26
871.185	-21.85
871.358	-38.23
871.531	64.17
871.704	-42.32
871.877	6.83
872.05	-25.94
872.223	-122.2
872.396	62.12
872.569	74.41
872.742	-114
872.915	8.87
873.088	-75.09
873.261	-15.7
873.434	43.69
873.607	-27.99
873.78	90.79
873.953	-99.67
874.126	10.92
874.299	15.02
874.471	-52.56
874.644	-68.95
874.817	51.88
874.99	135.85
875.163	-52.56
875.335	-11.61
875.508	-66.9
875.681	94.89
875.853	-68.95
876.026	-5.46
876.199	25.26
876.371	82.6
876.544	31.4
876.717	15.02
876.889	-11.61
877.062	41.64
877.234	-111.96
877.407	-60.76
877.579	2.73
877.752	53.93
877.924	94.89
878.097	-5.46
878.269	51.88
878.442	6.83
878.614	74.41
878.786	78.51
878.959	27.31
879.131	37.55
879.303	-157.01
879.476	-93.52
879.648	43.69
879.82	-34.13
879.993	-71
880.165	-11.61
880.337	-89.43
880.509	-11.61
880.681	-148.82
880.854	-40.28
881.026	88.75
881.198	150.18
881.37	-7.51
881.542	-13.65
881.714	21.16
881.886	-36.18
882.058	-34.13
882.23	-13.65
882.402	-71
882.574	19.11
882.746	76.46
882.918	2.73
883.09	27.31
883.262	-46.42
883.434	37.55
883.606	-91.48
883.778	66.22
883.95	144.04
884.122	-32.08
884.293	144.04
884.465	55.98
884.637	150.18
884.809	-48.47
884.98	-17.75
885.152	39.59
885.324	23.21
885.496	-62.8
885.667	-30.04
885.839	39.59
886.011	127.66
886.182	39.59
886.354	92.84
886.525	117.42
886.697	15.02
886.869	-159.06
887.04	-38.23
887.212	113.32
887.383	96.94
887.555	-1.37
887.726	-83.28
887.897	76.46
888.069	-19.8
888.24	135.85
888.412	-54.61
888.583	-75.09
888.754	70.31
888.926	-122.2
889.097	15.02
889.268	-58.71
889.44	-11.61
889.611	-79.19
889.782	-58.71
889.953	-62.8
890.125	113.32
890.296	-34.13
890.467	-48.47
890.638	-54.61
890.809	-32.08
890.98	-32.08
891.151	66.22
891.323	92.84
891.494	-11.61
891.665	-68.95
891.836	-13.65
892.007	-40.28
892.178	37.55
892.349	-9.56
892.52	-9.56
892.691	49.83
892.862	-118.1
893.032	-128.34
893.203	15.02
893.374	21.16
893.545	70.31
893.716	51.88
893.887	41.64
894.057	-77.14
894.228	35.5
894.399	-30.04
894.57	78.51
894.74	-32.08
894.911	-15.7
895.082	29.35
895.253	-34.13
895.423	-5.46
895.594	35.5
895.764	19.11
895.935	-11.61
896.106	47.79
896.276	-25.94
896.447	-48.47
896.617	-95.57
896.788	-77.14
896.958	-75.09
897.129	-130.39
897.299	-36.18
897.47	43.69
897.64	68.27
897.81	2.73
897.981	29.35
898.151	-64.85
898.322	27.31
898.492	90.79
898.662	-46.42
898.832	-73.04
899.003	-87.38
899.173	90.79
899.343	-62.8
899.513	-40.28
