Data from USB4F104151__74__10-44-08-872.txt Node

Date: Wed Feb 26 10:44:08 EST 2025
User: louis
Spectrometer: USB4F10415
Trigger mode: 4
Integration Time (sec): 1.000000E-1
Scans to average: 1
Electric dark correction enabled: true
Nonlinearity correction enabled: false
Boxcar width: 0
XAxis mode: Wavelengths
Number of Pixels in Spectrum: 3648
>>>>>Begin Spectral Data<<<<<
178.204	-383.48
178.424	-383.48
178.644	-383.48
178.864	-414.2
179.084	-440.83
179.304	-4.61
179.524	-121.34
179.744	67.07
179.964	-0.51
180.184	-14.85
180.404	69.12
180.624	38.4
180.844	19.97
181.064	-61.95
181.283	9.73
181.503	-4.61
181.723	3.58
181.943	-90.62
182.163	247.29
182.383	3.58
182.602	105.98
182.822	118.27
183.042	85.5
183.262	-41.47
183.482	58.88
183.701	75.26
183.921	48.64
184.141	11.78
184.361	91.65
184.58	99.84
184.8	60.93
185.02	-0.51
185.239	87.55
185.459	151.04
185.679	157.18
185.898	-104.96
186.118	52.74
186.338	105.98
186.557	169.47
186.777	-57.86
186.997	-16.9
187.216	126.46
187.436	189.95
187.655	13.82
187.875	136.7
188.095	101.89
188.314	85.5
188.534	118.27
188.753	-37.38
188.973	157.18
189.192	126.46
189.412	9.73
189.631	112.13
189.851	52.74
190.07	148.99
190.29	-37.38
190.509	22.02
190.729	15.87
190.948	132.61
191.168	280.06
191.387	79.36
191.607	56.83
191.826	32.26
192.045	22.02
192.265	50.69
192.484	130.56
192.704	-2.56
192.923	-41.47
193.142	239.1
193.362	69.12
193.581	144.89
193.8	79.36
194.02	124.41
194.239	62.98
194.458	65.02
194.678	95.74
194.897	42.5
195.116	71.17
195.335	19.97
195.555	15.87
195.774	9.73
195.993	97.79
196.212	44.54
196.432	28.16
196.651	3.58
196.87	-78.33
197.089	267.77
197.308	91.65
197.528	73.21
197.747	-37.38
197.966	81.41
198.185	122.37
198.404	50.69
198.623	112.13
198.842	114.17
199.062	83.45
199.281	130.56
199.5	110.08
199.719	97.79
199.938	124.41
200.157	151.04
200.376	179.71
200.595	144.89
200.814	40.45
201.033	-10.75
201.252	142.85
201.471	87.55
201.69	79.36
201.909	-14.85
202.128	110.08
202.347	85.5
202.566	60.93
202.785	-70.14
203.004	17.92
203.223	237.05
203.442	75.26
203.661	-49.66
203.879	81.41
204.098	140.8
204.317	-88.57
204.536	118.27
204.755	116.22
204.974	136.7
205.193	22.02
205.411	140.8
205.63	124.41
205.849	19.97
206.068	22.02
206.287	7.68
206.505	187.9
206.724	77.31
206.943	44.54
207.162	-47.62
207.381	65.02
207.599	-2.56
207.818	75.26
208.037	-61.95
208.255	32.26
208.474	81.41
208.693	56.83
208.911	-14.85
209.13	52.74
209.349	179.71
209.567	79.36
209.786	118.27
210.005	157.18
210.223	38.4
210.442	-92.67
210.661	22.02
210.879	87.55
211.098	95.74
211.316	114.17
211.535	56.83
211.753	11.78
211.972	122.37
212.191	-4.61
212.409	58.88
212.628	173.57
212.846	-18.94
213.065	71.17
213.283	124.41
213.502	34.3
213.72	36.35
213.938	128.51
214.157	-16.9
214.375	151.04
214.594	46.59
214.812	54.78
215.031	73.21
215.249	85.5
215.467	75.26
215.686	67.07
215.904	105.98
216.122	46.59
216.341	130.56
216.559	77.31
216.778	83.45
216.996	81.41
217.214	-14.85
217.432	-53.76
217.651	-10.75
217.869	34.3
218.087	89.6
218.306	42.5
218.524	-6.66
218.742	36.35
218.96	99.84
219.179	79.36
219.397	-76.29
219.615	218.62
219.833	60.93
220.051	13.82
220.27	77.31
220.488	155.13
220.706	77.31
220.924	26.11
221.142	22.02
221.36	30.21
221.578	101.89
221.796	17.92
222.015	-23.04
222.233	122.37
222.451	189.95
222.669	17.92
222.887	130.56
223.105	5.63
223.323	34.3
223.541	-12.8
223.759	71.17
223.977	95.74
224.195	169.47
224.413	108.03
224.631	38.4
224.849	67.07
225.067	224.76
225.285	-39.42
225.503	-29.18
225.721	-59.9
225.939	97.79
226.157	87.55
226.375	267.77
226.592	65.02
226.81	-12.8
227.028	95.74
227.246	93.69
227.464	132.61
227.682	97.79
227.9	159.23
228.117	50.69
228.335	157.18
228.553	38.4
228.771	-90.62
228.989	73.21
229.206	50.69
229.424	93.69
229.642	-18.94
229.86	-41.47
230.077	134.65
230.295	138.75
230.513	85.5
230.731	110.08
230.948	179.71
231.166	173.57
231.384	-2.56
231.601	-23.04
231.819	157.18
232.037	-45.57
232.254	-41.47
232.472	54.78
232.689	42.5
232.907	116.22
233.125	87.55
233.342	-16.9
233.56	-37.38
233.777	79.36
233.995	75.26
234.213	81.41
234.43	214.52
234.648	-68.09
234.865	7.68
235.083	114.17
235.3	67.07
235.518	75.26
235.735	146.94
235.953	79.36
236.17	50.69
236.388	77.31
236.605	-0.51
236.822	144.89
237.04	151.04
237.257	99.84
237.475	9.73
237.692	13.82
237.909	95.74
238.127	9.73
238.344	136.7
238.562	15.87
238.779	-64
238.996	50.69
239.214	22.02
239.431	134.65
239.648	-0.51
239.865	99.84
240.083	148.99
240.3	67.07
240.517	40.45
240.735	26.11
240.952	157.18
241.169	65.02
241.386	91.65
241.603	79.36
241.821	-2.56
242.038	105.98
242.255	196.09
242.472	1.54
242.689	153.09
242.907	65.02
243.124	81.41
243.341	32.26
243.558	32.26
243.775	-14.85
243.992	11.78
244.209	165.37
244.426	220.67
244.643	46.59
244.86	58.88
245.078	101.89
245.295	38.4
245.512	91.65
245.729	95.74
245.946	103.93
246.163	17.92
246.38	58.88
246.597	89.6
246.814	95.74
247.031	60.93
247.248	118.27
247.464	124.41
247.681	81.41
247.898	71.17
248.115	103.93
248.332	-0.51
248.549	122.37
248.766	192
248.983	144.89
249.2	85.5
249.417	103.93
249.633	75.26
249.85	93.69
250.067	91.65
250.284	144.89
250.501	148.99
250.717	77.31
250.934	-4.61
251.151	91.65
251.368	-6.66
251.585	81.41
251.801	26.11
252.018	9.73
252.235	122.37
252.451	9.73
252.668	46.59
252.885	103.93
253.102	116.22
253.318	5.63
253.535	110.08
253.752	56.83
253.968	62.98
254.185	-25.09
254.401	40.45
254.618	75.26
254.835	5.63
255.051	118.27
255.268	71.17
255.484	99.84
255.701	60.93
255.917	153.09
256.134	58.88
256.351	91.65
256.567	-10.75
256.784	60.93
257	-27.14
257.217	151.04
257.433	130.56
257.65	-29.18
257.866	114.17
258.082	26.11
258.299	-84.48
258.515	108.03
258.732	44.54
258.948	54.78
259.165	30.21
259.381	-70.14
259.597	83.45
259.814	75.26
260.03	-23.04
260.246	28.16
260.463	173.57
260.679	153.09
260.895	112.13
261.112	112.13
261.328	19.97
261.544	-31.23
261.761	183.81
261.977	-16.9
262.193	-4.61
262.409	65.02
262.626	67.07
262.842	40.45
263.058	-16.9
263.274	79.36
263.49	83.45
263.707	85.5
263.923	79.36
264.139	-12.8
264.355	91.65
264.571	36.35
264.787	116.22
265.004	153.09
265.22	67.07
265.436	28.16
265.652	108.03
265.868	60.93
266.084	-98.81
266.3	19.97
266.516	-35.33
266.732	118.27
266.948	81.41
267.164	42.5
267.38	165.37
267.596	46.59
267.812	112.13
268.028	54.78
268.244	54.78
268.46	-20.99
268.676	71.17
268.892	60.93
269.108	-41.47
269.324	-2.56
269.54	-6.66
269.756	132.61
269.972	32.26
270.188	103.93
270.403	13.82
270.619	85.5
270.835	89.6
271.051	26.11
271.267	-2.56
271.483	42.5
271.698	110.08
271.914	17.92
272.13	60.93
272.346	36.35
272.562	112.13
272.777	173.57
272.993	-35.33
273.209	46.59
273.425	22.02
273.64	15.87
273.856	169.47
274.072	-45.57
274.287	-33.28
274.503	130.56
274.719	120.32
274.934	95.74
275.15	-12.8
275.366	15.87
275.581	-10.75
275.797	65.02
276.012	34.3
276.228	40.45
276.444	36.35
276.659	167.42
276.875	36.35
277.09	17.92
277.306	-49.66
277.521	65.02
277.737	105.98
277.952	114.17
278.168	67.07
278.383	54.78
278.599	40.45
278.814	232.96
279.03	69.12
279.245	183.81
279.461	-27.14
279.676	110.08
279.892	-4.61
280.107	-31.23
280.322	-43.52
280.538	83.45
280.753	-41.47
280.969	54.78
281.184	34.3
281.399	136.7
281.615	67.07
281.83	26.11
282.045	-23.04
282.26	1.54
282.476	73.21
282.691	114.17
282.906	50.69
283.122	62.98
283.337	101.89
283.552	65.02
283.767	3.58
283.983	128.51
284.198	44.54
284.413	83.45
284.628	-68.09
284.843	134.65
285.058	136.7
285.274	75.26
285.489	-18.94
285.704	38.4
285.919	52.74
286.134	26.11
286.349	110.08
286.564	-12.8
286.779	155.13
286.995	62.98
287.21	-43.52
287.425	112.13
287.64	13.82
287.855	69.12
288.07	-78.33
288.285	120.32
288.5	136.7
288.715	30.21
288.93	1.54
289.145	52.74
289.36	110.08
289.575	75.26
289.79	192
290.004	17.92
290.219	112.13
290.434	-14.85
290.649	65.02
290.864	11.78
291.079	-16.9
291.294	91.65
291.509	83.45
291.724	-6.66
291.938	-0.51
292.153	144.89
292.368	34.3
292.583	75.26
292.798	167.42
293.012	19.97
293.227	95.74
293.442	30.21
293.657	77.31
293.871	132.61
294.086	85.5
294.301	265.72
294.516	114.17
294.73	34.3
294.945	17.92
295.16	22.02
295.374	144.89
295.589	181.76
295.804	-43.52
296.018	81.41
296.233	218.62
296.447	50.69
296.662	30.21
296.877	124.41
297.091	122.37
297.306	28.16
297.52	44.54
297.735	87.55
297.949	9.73
298.164	95.74
298.378	46.59
298.593	42.5
298.807	-2.56
299.022	36.35
299.236	163.33
299.451	32.26
299.665	15.87
299.88	58.88
300.094	85.5
300.309	28.16
300.523	67.07
300.737	15.87
300.952	97.79
301.166	77.31
301.381	-20.99
301.595	69.12
301.809	52.74
302.024	44.54
302.238	-57.86
302.452	81.41
302.667	-6.66
302.881	200.19
303.095	71.17
303.309	44.54
303.524	40.45
303.738	-51.71
303.952	-2.56
304.166	103.93
304.381	-129.53
304.595	146.94
304.809	67.07
305.023	85.5
305.237	-78.33
305.452	26.11
305.666	179.71
305.88	93.69
306.094	54.78
306.308	138.75
306.522	58.88
306.736	103.93
306.95	130.56
307.164	28.16
307.379	67.07
307.593	196.09
307.807	132.61
308.021	194.05
308.235	54.78
308.449	-74.24
308.663	62.98
308.877	167.42
309.091	60.93
309.305	134.65
309.519	-59.9
309.733	118.27
309.947	-14.85
310.161	110.08
310.374	146.94
310.588	165.37
310.802	-16.9
311.016	30.21
311.23	134.65
311.444	-16.9
311.658	17.92
311.872	101.89
312.085	132.61
312.299	91.65
312.513	89.6
312.727	-14.85
312.941	-55.81
313.154	126.46
313.368	138.75
313.582	7.68
313.796	95.74
314.009	60.93
314.223	112.13
314.437	99.84
314.651	114.17
314.864	54.78
315.078	126.46
315.292	-96.77
315.505	44.54
315.719	56.83
315.933	114.17
316.146	9.73
316.36	-12.8
316.573	120.32
316.787	148.99
317.001	58.88
317.214	-18.94
317.428	116.22
317.641	-55.81
317.855	28.16
318.068	34.3
318.282	62.98
318.495	194.05
318.709	79.36
318.922	40.45
319.136	103.93
319.349	75.26
319.563	3.58
319.776	130.56
319.99	-10.75
320.203	148.99
320.417	17.92
320.63	26.11
320.843	126.46
321.057	50.69
321.27	-27.14
321.483	38.4
321.697	110.08
321.91	73.21
322.124	179.71
322.337	65.02
322.55	-43.52
322.763	32.26
322.977	-2.56
323.19	42.5
323.403	87.55
323.617	87.55
323.83	110.08
324.043	9.73
324.256	103.93
324.469	-47.62
324.683	60.93
324.896	71.17
325.109	50.69
325.322	-86.53
325.535	118.27
325.748	75.26
325.962	28.16
326.175	5.63
326.388	34.3
326.601	89.6
326.814	105.98
327.027	126.46
327.24	122.37
327.453	-135.68
327.666	101.89
327.879	60.93
328.092	112.13
328.305	112.13
328.518	1.54
328.731	-10.75
328.944	116.22
329.157	95.74
329.37	-23.04
329.583	181.76
329.796	122.37
330.009	-31.23
330.222	34.3
330.435	118.27
330.648	46.59
330.861	-23.04
331.073	36.35
331.286	120.32
331.499	91.65
331.712	46.59
331.925	44.54
332.138	83.45
332.35	132.61
332.563	9.73
332.776	218.62
332.989	-8.7
333.202	93.69
333.414	40.45
333.627	30.21
333.84	3.58
334.053	185.85
334.265	52.74
334.478	32.26
334.691	75.26
334.903	138.75
335.116	-72.19
335.329	52.74
335.541	144.89
335.754	56.83
335.966	-20.99
336.179	91.65
336.392	-14.85
336.604	87.55
336.817	56.83
337.029	99.84
337.242	58.88
337.454	112.13
337.667	81.41
337.88	79.36
338.092	71.17
338.305	108.03
338.517	-8.7
338.729	175.61
338.942	204.28
339.154	-27.14
339.367	56.83
339.579	93.69
339.792	-64
340.004	56.83
340.217	130.56
340.429	38.4
340.641	36.35
340.854	-18.94
341.066	11.78
341.278	75.26
341.491	198.14
341.703	-23.04
341.915	-8.7
342.128	56.83
342.34	77.31
342.552	-59.9
342.764	93.69
342.977	56.83
343.189	95.74
343.401	32.26
343.613	-25.09
343.826	26.11
344.038	-35.33
344.25	87.55
344.462	-59.9
344.674	95.74
344.886	11.78
345.099	75.26
345.311	91.65
345.523	28.16
345.735	7.68
345.947	26.11
346.159	67.07
346.371	30.21
346.583	1.54
346.795	253.44
347.007	30.21
347.219	91.65
347.431	15.87
347.643	173.57
347.855	34.3
348.067	144.89
348.279	32.26
348.491	71.17
348.703	67.07
348.915	1.54
349.127	-10.75
349.339	46.59
349.551	65.02
349.763	83.45
349.975	112.13
350.187	73.21
350.399	218.62
350.61	83.45
350.822	73.21
351.034	89.6
351.246	77.31
351.458	144.89
351.669	114.17
351.881	128.51
352.093	179.71
352.305	103.93
352.517	108.03
352.728	112.13
352.94	75.26
353.152	77.31
353.363	-18.94
353.575	101.89
353.787	206.33
353.999	52.74
354.21	192
354.422	-29.18
354.633	1.54
354.845	-8.7
355.057	58.88
355.268	91.65
355.48	101.89
355.692	-12.8
355.903	40.45
356.115	9.73
356.326	-47.62
356.538	241.15
356.749	126.46
356.961	171.52
357.172	3.58
357.384	-2.56
357.595	237.05
357.807	91.65
358.018	-6.66
358.23	48.64
358.441	173.57
358.653	105.98
358.864	73.21
359.075	-72.19
359.287	67.07
359.498	155.13
359.709	124.41
359.921	126.46
360.132	54.78
360.344	71.17
360.555	-27.14
360.766	26.11
360.977	40.45
361.189	124.41
361.4	67.07
361.611	128.51
361.823	108.03
362.034	85.5
362.245	-141.82
362.456	46.59
362.667	77.31
362.879	-61.95
363.09	17.92
363.301	224.76
363.512	-16.9
363.723	-70.14
363.935	54.78
364.146	138.75
364.357	3.58
364.568	48.64
364.779	-64
364.99	167.42
365.201	24.06
365.412	183.81
365.623	-39.42
365.834	62.98
366.045	85.5
366.256	116.22
366.467	99.84
366.678	15.87
366.889	161.28
367.1	52.74
367.311	114.17
367.522	36.35
367.733	118.27
367.944	114.17
368.155	-4.61
368.366	108.03
368.577	202.24
368.788	101.89
368.999	-27.14
369.209	7.68
369.42	286.2
369.631	212.48
369.842	69.12
370.053	-35.33
370.264	103.93
370.474	-27.14
370.685	81.41
370.896	146.94
371.107	81.41
371.317	116.22
371.528	3.58
371.739	235
371.95	-47.62
372.16	110.08
372.371	-51.71
372.582	34.3
372.792	19.97
373.003	69.12
373.214	73.21
373.424	103.93
373.635	73.21
373.846	118.27
374.056	62.98
374.267	65.02
374.477	42.5
374.688	22.02
374.898	126.46
375.109	42.5
375.319	-23.04
375.53	169.47
375.74	105.98
375.951	71.17
376.161	42.5
376.372	163.33
376.582	52.74
376.793	118.27
377.003	-0.51
377.214	62.98
377.424	120.32
377.635	32.26
377.845	-27.14
378.055	146.94
378.266	-68.09
378.476	71.17
378.686	71.17
378.897	22.02
379.107	114.17
379.317	144.89
379.528	7.68
379.738	83.45
379.948	-35.33
380.158	146.94
380.369	50.69
380.579	24.06
380.789	52.74
380.999	62.98
381.21	54.78
381.42	187.9
381.63	-10.75
381.84	75.26
382.05	126.46
382.261	126.46
382.471	173.57
382.681	24.06
382.891	169.47
383.101	56.83
383.311	-35.33
383.521	-55.81
383.731	130.56
383.941	71.17
384.151	40.45
384.361	-10.75
384.571	95.74
384.781	71.17
384.991	230.91
385.201	210.43
385.411	71.17
385.621	46.59
385.831	116.22
386.041	128.51
386.251	7.68
386.461	130.56
386.671	81.41
386.881	42.5
387.091	-12.8
387.301	105.98
387.511	89.6
387.72	75.26
387.93	87.55
388.14	-10.75
388.35	87.55
388.56	153.09
388.769	161.28
388.979	9.73
389.189	-16.9
389.399	56.83
389.609	128.51
389.818	89.6
390.028	148.99
390.238	46.59
390.447	42.5
390.657	124.41
390.867	17.92
391.076	-82.43
391.286	28.16
391.496	-33.28
391.705	110.08
391.915	159.23
392.125	103.93
392.334	50.69
392.544	173.57
392.753	85.5
392.963	38.4
393.172	130.56
393.382	46.59
393.591	157.18
393.801	-0.51
394.01	261.63
394.22	91.65
394.429	60.93
394.639	54.78
394.848	65.02
395.058	140.8
395.267	19.97
395.477	95.74
395.686	87.55
395.895	232.96
396.105	220.67
396.314	56.83
396.524	93.69
396.733	19.97
396.942	112.13
397.152	118.27
397.361	91.65
397.57	81.41
397.78	101.89
397.989	122.37
398.198	275.96
398.407	11.78
398.617	13.82
398.826	40.45
399.035	38.4
399.244	85.5
399.453	26.11
399.663	110.08
399.872	83.45
400.081	-45.57
400.29	87.55
400.499	7.68
400.708	122.37
400.917	105.98
401.127	34.3
401.336	83.45
401.545	196.09
401.754	122.37
401.963	89.6
402.172	36.35
402.381	-29.18
402.59	38.4
402.799	-8.7
403.008	112.13
403.217	128.51
403.426	71.17
403.635	-59.9
403.844	77.31
404.053	50.69
404.262	3.58
404.471	208.38
404.68	97.79
404.888	110.08
405.097	87.55
405.306	85.5
405.515	144.89
405.724	-0.51
405.933	136.7
406.142	60.93
406.35	93.69
406.559	67.07
406.768	103.93
406.977	99.84
407.185	101.89
407.394	50.69
407.603	-25.09
407.812	62.98
408.02	206.33
408.229	52.74
408.438	87.55
408.646	-31.23
408.855	22.02
409.064	99.84
409.272	5.63
409.481	126.46
409.69	11.78
409.898	15.87
410.107	97.79
410.315	128.51
410.524	26.11
410.733	120.32
410.941	120.32
411.15	130.56
411.358	118.27
411.567	128.51
411.775	34.3
411.984	58.88
412.192	120.32
412.401	15.87
412.609	239.1
412.818	181.76
413.026	67.07
413.234	120.32
413.443	-2.56
413.651	-6.66
413.86	32.26
414.068	157.18
414.276	181.76
414.485	-29.18
414.693	222.72
414.901	196.09
415.11	77.31
415.318	95.74
415.526	38.4
415.734	165.37
415.943	67.07
416.151	192
416.359	44.54
416.567	153.09
416.776	114.17
416.984	75.26
417.192	173.57
417.4	-2.56
417.608	34.3
417.817	36.35
418.025	161.28
418.233	173.57
418.441	3.58
418.649	13.82
418.857	3.58
419.065	239.1
419.273	48.64
419.481	32.26
419.689	-12.8
419.897	175.61
420.105	-35.33
420.313	171.52
420.521	169.47
420.729	169.47
420.937	83.45
421.145	-0.51
421.353	85.5
421.561	183.81
421.769	101.89
421.977	60.93
422.185	108.03
422.393	19.97
422.601	163.33
422.809	120.32
423.017	183.81
423.224	99.84
423.432	65.02
423.64	58.88
423.848	136.7
424.056	3.58
424.263	194.05
424.471	19.97
424.679	212.48
424.887	30.21
425.094	163.33
425.302	224.76
425.51	81.41
425.718	130.56
425.925	58.88
426.133	42.5
426.341	269.82
426.548	108.03
426.756	71.17
426.964	93.69
427.171	71.17
427.379	101.89
427.586	101.89
427.794	175.61
428.001	165.37
428.209	144.89
428.417	226.81
428.624	183.81
428.832	36.35
429.039	138.75
429.247	54.78
429.454	124.41
429.662	249.34
429.869	124.41
430.076	138.75
430.284	179.71
430.491	169.47
430.699	105.98
430.906	267.77
431.114	136.7
431.321	196.09
431.528	101.89
431.736	159.23
431.943	192
432.15	120.32
432.358	304.64
432.565	290.3
432.772	44.54
432.979	280.06
433.187	198.14
433.394	294.4
433.601	151.04
433.808	290.3
434.016	294.4
434.223	275.96
434.43	99.84
434.637	261.63
434.844	314.88
435.052	214.52
435.259	282.11
435.466	288.25
435.673	284.16
435.88	316.92
436.087	298.49
436.294	400.89
436.501	333.31
436.708	280.06
436.915	382.46
437.122	353.79
437.329	380.41
437.537	282.11
437.743	310.78
437.95	404.99
438.157	339.45
438.364	380.41
438.571	445.95
438.778	503.29
438.985	564.73
439.192	556.54
439.399	472.57
439.606	536.06
439.813	525.82
440.02	624.12
440.227	759.28
440.433	568.82
440.64	577.02
440.847	605.69
441.054	642.55
441.261	775.67
441.467	732.66
441.674	640.5
441.881	773.62
442.088	687.61
442.294	908.79
442.501	845.3
442.708	906.74
442.914	804.34
443.121	947.7
443.328	878.07
443.534	992.75
443.741	1056.24
443.948	904.69
444.154	1117.68
444.361	1115.63
444.568	1039.86
444.774	1166.83
444.981	982.51
445.187	1273.32
445.394	1312.24
445.6	1222.13
445.807	1363.44
446.013	1326.57
446.22	1369.58
446.426	1609.19
446.633	1676.77
446.839	1764.84
447.046	1435.11
447.252	1768.93
447.459	1820.13
447.665	1822.18
447.871	1938.91
448.078	2063.84
448.284	2106.85
448.491	2201.05
448.697	2299.36
448.903	2325.98
449.11	2338.27
449.316	2422.24
449.522	2661.85
449.728	2735.57
449.935	2794.97
450.141	2639.32
450.347	2860.5
450.553	2901.46
450.76	2989.52
450.966	3157.46
451.172	3306.96
451.378	3370.44
451.584	3368.4
451.791	3605.96
451.997	3655.11
452.203	3868.1
452.409	3886.53
452.615	4163.01
452.821	4060.61
453.027	3982.79
453.233	4742.58
453.44	4609.47
453.646	4887.99
453.852	5031.35
454.058	5133.75
454.264	5402.03
454.47	5606.83
454.676	5684.65
454.882	6161.83
455.088	5901.73
455.294	6317.47
455.5	6616.48
455.705	7085.46
455.911	7060.88
456.117	7261.59
456.323	7550.35
456.529	7660.94
456.735	8211.84
456.941	8375.68
457.147	8803.71
457.352	8990.07
457.558	9307.51
457.764	9756.01
457.97	10071.4
458.176	10392.93
458.381	11007.32
458.587	11113.81
458.793	11988.3
458.999	11691.34
459.204	13237.56
459.41	13833.52
459.616	13403.44
459.821	14134.57
460.027	14929.18
460.233	15588.63
460.438	15789.33
460.644	16602.37
460.85	16768.26
461.055	17366.26
461.261	18013.42
461.466	17933.55
461.672	18267.37
461.878	20241.61
462.083	20184.27
462.289	20387.02
462.494	21472.44
462.7	21638.33
462.905	21828.79
463.111	23430.3
463.316	24650.89
463.522	25347.2
463.727	26055.79
463.932	27114.59
464.138	27917.4
464.343	28857.42
464.549	29254.72
464.754	31249.44
464.959	32384.02
465.165	32474.13
465.37	32545.81
465.575	32300.05
465.781	34550.77
465.986	35613.66
466.191	35267.56
466.397	35384.29
466.602	34309.11
466.807	36451.28
467.012	37084.11
467.218	37878.72
467.423	37870.53
467.628	38976.43
467.833	40891.28
468.038	40221.59
468.244	39250.86
468.449	41354.12
468.654	40803.22
468.859	40543.13
469.064	40680.34
469.269	39660.45
469.474	40018.85
469.679	41286.54
469.885	39984.03
470.09	40588.18
470.295	40956.82
470.5	39547.81
470.705	40012.7
470.91	39029.68
471.115	38683.57
471.32	38941.61
471.525	39080.88
471.73	38118.33
471.935	38085.56
472.139	36271.06
472.344	35937.24
472.549	36023.26
472.754	35570.66
472.959	34919.4
473.164	33762.3
473.369	33223.69
473.574	33967.1
473.778	33362.95
473.983	32388.11
474.188	32121.88
474.393	30872.62
474.598	30544.94
474.802	29684.8
475.007	29617.21
475.212	29252.67
475.417	28046.42
475.621	27763.8
475.826	27620.44
476.031	27059.3
476.235	26117.23
476.44	26680.42
476.645	25504.89
476.849	25463.93
477.054	25132.16
477.259	24315.02
477.463	24575.11
477.668	23942.29
477.872	23891.09
478.077	23051.42
478.282	22625.45
478.486	22230.19
478.691	22189.23
478.895	21939.38
479.1	21701.81
479.304	21492.92
479.509	20716.74
479.713	21460.15
479.918	20917.44
480.122	20399.3
480.326	20456.65
480.531	20511.94
480.735	20092.11
480.94	19541.21
481.144	20495.56
481.348	19213.53
481.553	19500.25
481.757	18932.96
481.961	19385.56
482.166	19117.28
482.37	19053.79
482.574	18705.63
482.778	18738.4
482.983	18609.38
483.187	18373.86
483.391	18429.16
483.595	17708.27
483.8	17716.47
484.004	17798.38
484.208	17779.95
484.412	17366.26
484.616	17231.1
484.821	17278.2
485.025	16563.46
485.229	16911.61
485.433	16489.73
485.637	16370.95
485.841	16061.71
486.045	15916.3
486.249	15830.29
486.453	15375.64
486.657	15322.39
486.861	14980.38
487.065	14681.38
487.269	14597.41
487.473	14066.99
487.677	14282.02
487.881	14271.78
488.085	13792.56
488.289	13442.35
488.493	13106.49
488.697	13167.93
488.901	13088.06
489.105	12508.48
489.309	12244.29
489.512	12100.94
489.716	11840.84
489.92	11871.56
490.124	11349.33
490.328	11199.83
490.531	10995.03
490.735	10755.42
490.939	10474.85
491.143	10444.13
491.346	10354.02
491.55	10007.91
491.754	10014.06
491.958	9885.03
492.161	9573.74
492.365	9457.01
492.569	9356.66
492.772	9227.64
492.976	9133.43
493.18	9014.65
493.383	8971.64
493.587	8799.61
493.79	8809.85
493.994	8523.13
494.197	8461.69
494.401	8416.64
494.605	8127.88
494.808	8211.84
495.012	8058.25
495.215	8179.08
495.419	8220.03
495.622	7878.02
495.825	7855.5
496.029	7705.99
496.232	8015.24
496.436	7622.03
496.639	7855.5
496.843	7703.95
497.046	7755.15
497.249	7890.31
497.453	7705.99
497.656	7695.75
497.859	7648.65
498.063	7873.93
498.266	7894.41
498.469	7591.31
498.673	7536.01
498.876	7781.77
499.079	7742.86
499.282	7640.46
499.485	8035.72
499.689	7939.46
499.892	8058.25
500.095	7730.57
500.298	8185.22
500.501	7943.56
500.705	8048.01
500.908	8181.12
501.111	7992.71
501.314	8293.76
501.517	8367.49
501.72	8281.47
501.923	8289.67
502.126	8652.16
502.329	8635.77
502.532	8732.03
502.735	8746.36
502.938	8959.35
503.141	9055.61
503.344	8897.91
503.547	9164.15
503.75	9461.1
503.953	9385.33
504.156	9497.97
504.359	9434.48
504.562	9786.73
504.765	9889.13
504.968	9966.95
505.17	10220.9
505.373	10284.39
505.576	10487.14
505.779	10558.81
505.982	10810.72
506.185	11011.42
506.387	11050.33
506.59	11431.25
506.793	11507.02
506.996	11584.85
507.198	11951.43
507.401	12084.55
507.604	12182.85
507.807	12379.46
508.009	12586.3
508.212	12848.44
508.415	12922.17
508.617	13464.88
508.82	13909.29
509.022	13894.96
509.225	14402.85
509.428	14542.11
509.63	15258.9
509.833	15064.35
510.035	15439.12
510.238	15639.83
510.44	15955.21
510.643	16405.77
510.845	17061.12
511.048	17016.06
511.25	17333.5
511.453	17929.45
511.655	18277.61
511.858	19037.41
512.06	18875.62
512.262	19246.3
512.465	19453.14
512.667	20128.97
512.87	20444.36
513.072	20935.87
513.274	21845.17
513.477	21998.77
513.679	22416.55
513.881	22977.7
514.084	23549.08
514.286	23823.51
514.488	24247.44
514.69	25027.71
514.893	25613.43
515.095	25859.19
515.297	26614.89
515.499	26965.09
515.701	27771.99
515.904	28073.04
516.106	28736.59
516.308	29201.47
516.51	30170.16
516.712	30647.34
516.914	30878.76
517.116	31452.19
517.318	32021.53
517.52	32707.6
517.722	32994.31
517.925	33969.15
518.127	34620.4
518.329	35240.93
518.531	35161.06
518.733	36121.56
518.935	36649.94
519.136	37168.07
519.338	37585.86
519.54	38302.65
519.742	39578.53
519.944	39730.08
520.146	40348.57
520.348	40858.51
520.55	40901.52
520.752	41386.89
520.954	42482.55
521.155	42240.89
521.357	43367.27
521.559	43561.83
521.761	44270.43
521.963	44661.59
522.164	44823.38
522.366	45435.72
522.568	45806.41
522.77	46003.01
522.971	46752.57
523.173	46025.54
523.375	46629.69
523.576	47194.93
523.778	47201.07
523.98	47082.29
524.181	47903.53
524.383	47575.85
524.584	48163.62
524.786	48214.82
524.988	48130.85
525.189	48691.99
525.391	48558.88
525.592	48900.89
525.794	48614.17
525.995	48110.37
526.197	48384.8
526.398	48638.75
526.6	48438.04
526.801	48141.09
527.003	48534.3
527.204	48130.85
527.406	48368.41
527.607	47461.16
527.808	47731.5
528.01	46852.92
528.211	47313.71
528.412	47508.27
528.614	46893.88
528.815	46238.53
529.016	46727.99
529.218	45556.55
529.419	45237.07
529.62	44931.92
529.822	44645.21
530.023	44157.79
530.224	43539.3
530.425	43522.92
530.626	42873.71
530.828	42609.53
531.029	42529.66
531.23	41603.97
531.431	41149.32
531.632	40938.38
531.833	40901.52
532.035	39998.37
532.236	39539.62
532.437	39117.74
532.638	38239.16
532.839	37917.63
533.04	38001.6
533.241	36920.27
533.442	37702.59
533.643	36117.46
533.844	36019.16
534.045	35505.12
534.246	34341.88
534.447	34622.45
534.648	33829.88
534.849	33557.5
535.05	32908.3
535.251	32549.9
535.451	32267.28
535.652	31841.31
535.853	31194.15
536.054	31093.8
536.255	30712.88
536.456	30000.18
536.657	30123.06
536.857	29219.91
537.058	28595.28
537.259	28494.93
537.46	28097.62
537.66	27685.98
537.861	27335.77
538.062	26721.38
538.263	26872.93
538.463	26190.96
538.664	26070.13
538.865	25721.98
539.065	25941.11
539.266	24767.62
539.466	24964.23
539.667	24300.69
539.868	24398.99
540.068	24116.37
540.269	23800.98
540.469	23661.72
540.67	23065.76
540.87	22705.32
541.071	22510.76
541.271	22617.25
541.472	22174.89
541.672	22009.01
541.873	21673.14
542.073	21046.46
542.274	21236.92
542.474	20847.81
542.675	20528.33
542.875	20460.74
543.075	19987.66
543.276	19743.95
543.476	19930.32
543.676	19717.33
543.877	19139.8
544.077	19045.6
544.277	19027.17
544.478	18595.04
544.678	18482.41
544.878	18466.02
545.078	18091.24
545.279	17982.7
545.479	17599.73
545.679	17528.05
545.879	17396.98
546.079	17128.7
546.28	16833.79
546.48	16688.39
546.68	16577.8
546.88	16481.54
547.08	16225.54
547.28	15967.5
547.48	15707.41
547.68	15516.95
547.88	15076.63
548.081	15201.56
548.281	14873.89
548.481	14650.66
548.681	14820.64
548.881	14533.92
549.081	14357.8
549.28	14374.18
549.48	13741.36
549.68	13741.36
549.88	13661.49
550.08	13354.29
550.28	13108.54
550.48	13131.06
550.68	12760.38
550.88	12520.77
551.08	12596.54
551.279	12547.39
551.479	11998.54
551.679	12303.68
551.879	11791.69
552.079	11609.42
552.278	11554.13
552.478	11543.89
552.678	11271.51
552.878	11052.38
553.077	10679.65
553.277	10370.4
553.477	10605.92
553.676	10286.44
553.876	10102.12
554.076	10198.37
554.275	9823.59
554.475	9715.05
554.674	9563.5
554.874	9430.38
555.074	9133.43
555.273	9147.76
555.473	9028.98
555.672	8881.53
555.872	8670.59
556.071	8643.96
556.271	8783.23
556.47	8387.97
556.67	8025.48
556.869	7912.84
557.068	7992.71
557.268	7671.18
557.467	7861.64
557.667	7851.4
557.866	7458.19
558.065	7204.24
558.265	7056.79
558.464	7173.52
558.663	7107.99
558.863	6872.47
559.062	6901.14
559.261	6469.02
559.461	6716.83
559.66	6460.83
559.859	6348.19
560.058	6081.96
560.258	5957.03
560.457	6024.61
560.656	6032.8
560.855	5754.28
561.054	5832.1
561.253	5696.94
561.453	5531.05
561.652	5586.35
561.851	5481.9
562.05	5273.01
562.249	5248.43
562.448	5150.13
562.647	5045.68
562.846	5049.78
563.045	5053.87
563.244	4830.65
563.443	4914.61
563.642	4672.95
563.841	4910.52
564.04	4683.19
564.239	4541.88
564.438	4470.2
564.637	4312.51
564.836	4353.47
565.035	4206.02
565.234	4253.12
565.432	4242.88
565.631	4103.62
565.83	3921.35
566.029	3988.93
566.228	4027.84
566.427	4056.51
566.625	3761.61
566.824	3904.96
567.023	3890.63
567.222	3644.87
567.42	3718.6
567.619	3659.21
567.818	3413.45
568.016	3655.11
568.215	3372.49
568.414	3460.56
568.612	3339.73
568.811	3304.91
569.01	3118.54
569.208	3149.26
569.407	3210.7
569.605	3028.43
569.804	3159.5
570.002	2987.47
570.201	2870.74
570.4	2928.08
570.598	2864.6
570.797	2862.55
570.995	2784.73
571.193	2778.58
571.392	2899.41
571.59	2610.65
571.789	2686.42
571.987	2616.79
572.186	2659.8
572.384	2491.87
572.582	2498.01
572.781	2557.4
572.979	2452.95
573.177	2389.47
573.376	2455
573.574	2366.94
573.772	2229.73
573.971	2104.8
574.169	2106.85
574.367	2137.57
574.565	2199.01
574.763	2135.52
574.962	2135.52
575.16	1992.16
575.358	2016.74
575.556	2043.36
575.754	1967.59
575.952	1973.73
576.151	1914.34
576.349	1965.54
576.547	1715.69
576.745	1916.39
576.943	1951.2
577.141	1861.09
577.339	1701.35
577.537	1732.07
577.735	1748.45
577.933	1637.86
578.131	1549.8
578.329	1766.89
578.527	1562.09
578.725	1740.26
578.923	1412.59
579.121	1547.75
579.319	1390.06
579.516	1390.06
579.714	1658.34
579.912	1498.6
580.11	1381.87
580.308	1420.78
580.506	1312.24
580.704	1338.86
580.901	1168.88
581.099	1428.97
581.297	1320.43
581.495	1394.15
581.692	1211.89
581.89	1328.62
582.088	1199.6
582.285	1181.17
582.483	1175.02
582.681	1172.97
582.878	1148.4
583.076	1033.71
583.274	1181.17
583.471	1297.9
583.669	1119.73
583.866	1021.42
584.064	1000.94
584.262	980.47
584.459	1002.99
584.657	1093.1
584.854	1105.39
585.052	1000.94
585.249	1017.33
585.447	962.03
585.644	830.96
585.841	1050.1
586.039	925.17
586.236	976.37
586.434	871.92
586.631	785.91
586.828	919.03
587.026	886.26
587.223	814.58
587.42	810.48
587.618	833.01
587.815	951.79
588.012	759.28
588.21	867.83
588.407	796.15
588.604	845.3
588.801	736.76
588.999	734.71
589.196	826.87
589.393	640.5
589.59	703.99
589.787	755.19
589.984	792.05
590.182	802.29
590.379	689.65
590.576	757.24
590.773	681.46
590.97	720.37
591.167	740.85
591.364	656.89
591.561	734.71
591.758	880.11
591.955	724.47
592.152	687.61
592.349	622.07
592.546	589.3
592.743	617.97
592.94	650.74
593.137	673.27
593.334	796.15
593.531	675.32
593.727	679.41
593.924	740.85
594.121	749.04
594.318	679.41
594.515	669.17
594.712	763.38
594.908	841.2
595.105	607.73
595.302	730.61
595.499	691.7
595.696	927.22
595.892	765.43
596.089	919.03
596.286	710.13
596.482	816.63
596.679	873.97
596.876	732.66
597.072	968.18
597.269	1000.94
597.466	968.18
597.662	888.31
597.859	980.47
598.055	912.88
598.252	1084.91
598.448	1113.58
598.645	1142.25
598.841	1162.73
599.038	1228.27
599.234	1426.92
599.431	1326.57
599.627	1336.81
599.824	1549.8
600.02	1377.77
600.217	1510.89
600.413	1484.27
600.609	1572.33
600.806	1945.06
601.002	1662.44
601.198	1687.01
601.395	1846.76
601.591	1955.3
601.787	1975.78
601.984	2076.13
602.18	2282.97
602.376	2244.06
602.572	2364.89
602.769	2424.28
602.965	2371.04
603.161	2682.33
603.357	2713.05
603.553	2780.63
603.75	2856.4
603.946	2837.97
604.142	2938.32
604.338	3089.87
604.534	3210.7
604.73	3372.49
604.926	3341.77
605.122	3603.91
605.318	3589.58
605.514	3761.61
605.71	3878.34
605.906	3937.73
606.102	3919.3
606.298	4267.45
606.494	4384.19
606.69	4572.6
606.886	4705.72
607.082	4666.81
607.278	4656.57
607.474	4937.14
607.67	5133.75
607.866	5180.85
608.062	5461.42
608.257	5596.59
608.453	5539.24
608.649	5895.59
608.845	5907.88
609.041	6100.39
609.236	6307.23
609.432	6325.66
609.628	6733.21
609.824	6727.07
610.019	6970.77
610.215	7265.68
610.411	7417.23
610.606	7564.68
610.802	7662.99
610.998	7994.76
611.193	8111.49
611.389	8344.96
611.584	8580.48
611.78	8805.75
611.976	9000.31
612.171	9366.9
612.367	9713
612.562	9946.47
612.758	9958.76
612.953	10040.68
613.149	10650.97
613.344	10923.35
613.539	11171.16
613.735	11453.78
613.93	11803.98
614.126	11889.99
614.321	12260.68
614.517	12727.61
614.712	13081.91
614.907	13471.03
615.103	13743.41
615.298	13970.73
615.493	14363.94
615.688	14460.2
615.884	15449.36
616.079	15170.84
616.274	15891.73
616.47	16137.48
616.665	16354.57
616.86	16911.61
617.055	17491.19
617.25	17896.69
617.445	18269.42
617.641	18664.68
617.836	19162.33
618.031	19442.9
618.226	20083.92
618.421	20532.42
618.616	21275.84
618.811	21386.43
619.006	22256.81
619.201	22267.05
619.396	22946.98
619.591	23377.05
619.786	24036.5
619.981	24339.6
620.176	25076.87
620.371	25267.33
620.566	25990.26
620.761	26616.94
620.956	27122.79
621.151	27413.6
621.346	28669
621.541	28361.81
621.735	29541.44
621.93	29365.31
622.125	30706.73
622.32	30553.13
622.515	31470.62
622.709	31755.29
622.904	32640.01
623.099	32609.29
623.294	33704.96
623.488	33819.64
623.683	34993.13
623.878	34624.5
624.072	35695.58
624.267	36318.17
624.462	36895.69
624.656	37026.76
624.851	38015.93
625.046	38282.17
625.24	38927.28
625.435	39203.75
625.629	39871.39
625.824	40059.8
626.018	40938.38
626.213	40764.31
626.407	41831.3
626.602	41563.01
626.796	42914.67
626.991	43049.84
627.185	43547.5
627.38	43600.74
627.574	43946.85
627.768	43727.72
627.963	43973.47
628.157	44131.17
628.352	44589.91
628.546	44378.97
628.74	45198.16
628.935	44493.66
629.129	44589.91
629.323	44151.65
629.517	44004.19
629.712	43658.09
629.906	44071.78
630.1	42908.53
630.294	43201.39
630.489	42130.3
630.683	42343.29
630.877	40893.33
631.071	39902.11
631.265	39857.06
631.459	39203.75
631.653	38118.33
631.848	37225.42
632.042	36817.87
632.236	36115.42
632.43	34601.97
632.624	33805.31
632.818	32633.87
633.012	31734.81
633.206	31044.65
633.4	30245.94
633.594	28484.69
633.788	28089.43
633.982	27096.16
634.176	26262.64
634.369	25209.98
634.563	24243.34
634.757	23067.81
634.951	22512.81
635.145	21722.29
635.339	21034.18
635.533	19870.93
635.726	19299.55
635.92	18220.27
636.114	17771.76
636.308	16880.89
636.501	16317.7
636.695	15531.28
636.889	15013.15
637.083	14275.88
637.276	13557.04
637.47	13024.57
637.664	12678.46
637.857	12268.87
638.051	11689.29
638.244	11027.8
638.438	10691.93
638.632	10599.77
638.825	9811.31
639.019	9565.55
639.212	9086.33
639.406	8840.57
639.599	8543.61
639.793	8084.87
639.986	7947.65
640.18	7523.73
640.373	7325.07
640.567	6778.26
640.76	6815.13
640.954	6428.06
641.147	6219.17
641.34	6049.19
641.534	5766.57
641.727	5668.27
641.92	5369.26
642.114	5123.51
642.307	4916.66
642.5	4746.68
642.694	4457.92
642.887	4365.76
643.08	4302.27
643.273	4197.82
643.467	4038.08
643.66	3734.98
643.853	3552.71
644.046	3454.41
644.239	3296.72
644.432	3247.57
644.626	2966.99
644.819	2997.71
645.012	2780.63
645.205	2801.11
645.398	2805.21
645.591	2538.97
645.784	2508.25
645.977	2319.84
646.17	2301.4
646.363	2225.63
646.556	1951.2
646.749	1951.2
646.942	1930.72
647.135	1947.11
647.328	1852.9
647.521	1742.31
647.714	1715.69
647.907	1564.14
648.099	1490.41
648.292	1594.86
648.485	1412.59
648.678	1355.24
648.871	1310.19
649.064	1359.34
649.256	1228.27
649.449	1033.71
649.642	1144.3
649.835	1162.73
650.027	1013.23
650.22	1091.06
650.413	919.03
650.605	1062.38
650.798	931.31
650.991	865.78
651.183	837.11
651.376	931.31
651.568	873.97
651.761	714.23
651.954	796.15
652.146	726.52
652.339	796.15
652.531	724.47
652.724	609.78
652.916	652.79
653.109	468.47
653.301	663.03
653.494	593.4
653.686	669.17
653.879	710.13
654.071	505.34
654.263	505.34
654.456	521.72
654.648	546.3
654.84	622.07
655.033	491
655.225	538.1
655.417	364.03
655.61	558.58
655.802	437.75
655.994	484.86
656.186	333.31
656.379	439.8
656.571	331.26
656.763	361.98
656.955	374.27
657.148	366.07
657.34	392.7
657.532	314.88
657.724	378.36
657.916	398.84
658.108	415.23
658.3	343.55
658.492	450.04
658.684	220.67
658.876	390.65
659.068	278.01
659.26	259.58
659.452	237.05
659.644	294.4
659.836	341.5
660.028	298.49
660.22	228.86
660.412	282.11
660.604	263.68
660.796	310.78
660.988	351.74
661.18	312.83
661.372	284.16
661.563	224.76
661.755	200.19
661.947	167.42
662.139	116.22
662.331	251.39
662.522	134.65
662.714	212.48
662.906	151.04
663.097	196.09
663.289	208.38
663.481	144.89
663.673	312.83
663.864	183.81
664.056	255.48
664.247	110.08
664.439	247.29
664.631	271.87
664.822	235
665.014	159.23
665.205	71.17
665.397	65.02
665.588	159.23
665.78	189.95
665.971	296.44
666.163	161.28
666.354	235
666.546	67.07
666.737	161.28
666.929	118.27
667.12	114.17
667.311	169.47
667.503	177.66
667.694	200.19
667.885	230.91
668.077	163.33
668.268	19.97
668.459	151.04
668.651	132.61
668.842	161.28
669.033	132.61
669.224	67.07
669.416	378.36
669.607	136.7
669.798	58.88
669.989	288.25
670.18	169.47
670.371	216.57
670.563	75.26
670.754	192
670.945	216.57
671.136	138.75
671.327	110.08
671.518	224.76
671.709	343.55
671.9	159.23
672.091	210.43
672.282	89.6
672.473	179.71
672.664	36.35
672.855	189.95
673.046	224.76
673.237	259.58
673.428	204.28
673.619	247.29
673.809	159.23
674	333.31
674.191	163.33
674.382	148.99
674.573	210.43
674.764	161.28
674.954	306.68
675.145	144.89
675.336	95.74
675.527	79.36
675.717	159.23
675.908	126.46
676.099	181.76
676.289	169.47
676.48	110.08
676.671	163.33
676.861	116.22
677.052	142.85
677.243	181.76
677.433	50.69
677.624	196.09
677.814	165.37
678.005	132.61
678.195	271.87
678.386	140.8
678.576	87.55
678.767	112.13
678.957	140.8
679.148	200.19
679.338	206.33
679.529	140.8
679.719	52.74
679.909	257.53
680.1	198.14
680.29	255.48
680.481	103.93
680.671	173.57
680.861	200.19
681.052	157.18
681.242	126.46
681.432	159.23
681.622	189.95
681.813	175.61
682.003	181.76
682.193	114.17
682.383	165.37
682.573	159.23
682.764	171.52
682.954	134.65
683.144	257.53
683.334	179.71
683.524	175.61
683.714	255.48
683.904	175.61
684.094	169.47
684.284	206.33
684.474	206.33
684.664	263.68
684.854	247.29
685.044	165.37
685.234	142.85
685.424	245.24
685.614	142.85
685.804	361.98
685.994	148.99
686.184	218.62
686.374	239.1
686.564	222.72
686.753	91.65
686.943	148.99
687.133	142.85
687.323	153.09
687.513	206.33
687.702	206.33
687.892	103.93
688.082	189.95
688.272	226.81
688.461	159.23
688.651	333.31
688.841	288.25
689.03	194.05
689.22	228.86
689.41	294.4
689.599	206.33
689.789	148.99
689.979	361.98
690.168	122.37
690.358	263.68
690.547	218.62
690.737	163.33
690.926	148.99
691.116	173.57
691.305	271.87
691.495	288.25
691.684	146.94
691.874	167.42
692.063	216.57
692.252	183.81
692.442	259.58
692.631	91.65
692.82	83.45
693.01	237.05
693.199	198.14
693.388	226.81
693.578	202.24
693.767	243.2
693.956	173.57
694.146	222.72
694.335	247.29
694.524	130.56
694.713	214.52
694.902	144.89
695.092	167.42
695.281	165.37
695.47	212.48
695.659	122.37
695.848	202.24
696.037	144.89
696.226	169.47
696.415	220.67
696.604	206.33
696.793	214.52
696.982	249.34
697.171	298.49
697.36	81.41
697.549	181.76
697.738	93.69
697.927	198.14
698.116	153.09
698.305	245.24
698.494	130.56
698.683	202.24
698.872	296.44
699.061	202.24
699.25	138.75
699.438	224.76
699.627	171.52
699.816	253.44
700.005	52.74
700.193	128.51
700.382	237.05
700.571	118.27
700.76	177.66
700.948	204.28
701.137	267.77
701.326	210.43
701.514	118.27
701.703	177.66
701.892	161.28
702.08	312.83
702.269	179.71
702.457	99.84
702.646	132.61
702.834	97.79
703.023	200.19
703.212	290.3
703.4	192
703.589	179.71
703.777	163.33
703.965	220.67
704.154	89.6
704.342	136.7
704.531	161.28
704.719	155.13
704.907	224.76
705.096	89.6
705.284	95.74
705.472	247.29
705.661	239.1
705.849	146.94
706.037	232.96
706.226	181.76
706.414	214.52
706.602	189.95
706.79	253.44
706.979	128.51
707.167	148.99
707.355	34.3
707.543	167.42
707.731	144.89
707.919	192
708.107	151.04
708.296	91.65
708.484	65.02
708.672	212.48
708.86	202.24
709.048	214.52
709.236	126.46
709.424	187.9
709.612	216.57
709.8	87.55
709.988	159.23
710.176	206.33
710.364	239.1
710.551	173.57
710.739	118.27
710.927	153.09
711.115	159.23
711.303	224.76
711.491	210.43
711.679	81.41
711.866	235
712.054	185.85
712.242	118.27
712.43	177.66
712.617	181.76
712.805	247.29
712.993	249.34
713.181	153.09
713.368	124.41
713.556	249.34
713.744	128.51
713.931	384.51
714.119	257.53
714.306	146.94
714.494	69.12
714.682	189.95
714.869	140.8
715.057	169.47
715.244	114.17
715.432	202.24
715.619	157.18
715.807	163.33
715.994	155.13
716.182	218.62
716.369	257.53
716.556	298.49
716.744	124.41
716.931	116.22
717.119	196.09
717.306	179.71
717.493	181.76
717.681	181.76
717.868	99.84
718.055	265.72
718.242	140.8
718.43	151.04
718.617	306.68
718.804	153.09
718.991	312.83
719.179	218.62
719.366	316.92
719.553	241.15
719.74	206.33
719.927	202.24
720.114	200.19
720.301	196.09
720.488	151.04
720.676	181.76
720.863	278.01
721.05	368.12
721.237	263.68
721.424	251.39
721.611	185.85
721.798	138.75
721.985	173.57
722.172	157.18
722.358	146.94
722.545	255.48
722.732	265.72
722.919	228.86
723.106	204.28
723.293	185.85
723.48	214.52
723.667	140.8
723.853	335.35
724.04	292.35
724.227	269.82
724.414	198.14
724.6	247.29
724.787	321.02
724.974	357.88
725.161	194.05
725.347	235
725.534	224.76
725.72	239.1
725.907	261.63
726.094	290.3
726.28	161.28
726.467	181.76
726.653	167.42
726.84	349.69
727.027	349.69
727.213	169.47
727.4	216.57
727.586	251.39
727.773	220.67
727.959	286.2
728.145	202.24
728.332	237.05
728.518	189.95
728.705	253.44
728.891	235
729.077	239.1
729.264	222.72
729.45	169.47
729.636	357.88
729.823	286.2
730.009	263.68
730.195	251.39
730.382	214.52
730.568	142.85
730.754	189.95
730.94	126.46
731.126	202.24
731.313	298.49
731.499	278.01
731.685	269.82
731.871	280.06
732.057	296.44
732.243	273.92
732.429	290.3
732.615	347.64
732.801	290.3
732.987	179.71
733.173	247.29
733.359	185.85
733.545	212.48
733.731	224.76
733.917	386.55
734.103	247.29
734.289	267.77
734.475	159.23
734.661	364.03
734.847	232.96
735.033	210.43
735.219	314.88
735.404	267.77
735.59	241.15
735.776	144.89
735.962	226.81
736.148	323.07
736.333	321.02
736.519	216.57
736.705	306.68
736.89	224.76
737.076	235
737.262	196.09
737.447	153.09
737.633	183.81
737.819	300.54
738.004	196.09
738.19	247.29
738.375	292.35
738.561	323.07
738.747	228.86
738.932	189.95
739.118	396.79
739.303	321.02
739.489	349.69
739.674	239.1
739.859	155.13
740.045	345.59
740.23	329.21
740.416	114.17
740.601	216.57
740.786	251.39
740.972	192
741.157	208.38
741.342	159.23
741.528	148.99
741.713	292.35
741.898	222.72
742.084	132.61
742.269	226.81
742.454	241.15
742.639	267.77
742.824	235
743.01	378.36
743.195	353.79
743.38	284.16
743.565	249.34
743.75	245.24
743.935	202.24
744.12	308.73
744.305	220.67
744.49	179.71
744.675	235
744.86	173.57
745.045	269.82
745.23	265.72
745.415	255.48
745.6	323.07
745.785	179.71
745.97	296.44
746.155	255.48
746.34	318.97
746.525	200.19
746.71	370.17
746.895	101.89
747.079	146.94
747.264	251.39
747.449	278.01
747.634	275.96
747.819	206.33
748.003	189.95
748.188	194.05
748.373	304.64
748.557	167.42
748.742	312.83
748.927	239.1
749.111	198.14
749.296	116.22
749.481	245.24
749.665	249.34
749.85	151.04
750.034	288.25
750.219	192
750.404	132.61
750.588	169.47
750.773	112.13
750.957	165.37
751.141	196.09
751.326	222.72
751.51	81.41
751.695	132.61
751.879	200.19
752.064	259.58
752.248	161.28
752.432	226.81
752.617	183.81
752.801	267.77
752.985	173.57
753.17	255.48
753.354	206.33
753.538	173.57
753.722	155.13
753.907	118.27
754.091	60.93
754.275	216.57
754.459	89.6
754.643	46.59
754.828	232.96
755.012	208.38
755.196	112.13
755.38	130.56
755.564	138.75
755.748	151.04
755.932	245.24
756.116	220.67
756.3	210.43
756.484	189.95
756.668	232.96
756.852	50.69
757.036	146.94
757.22	159.23
757.404	157.18
757.588	185.85
757.772	198.14
757.956	122.37
758.14	316.92
758.323	118.27
758.507	177.66
758.691	81.41
758.875	101.89
759.059	210.43
759.242	99.84
759.426	153.09
759.61	132.61
759.794	81.41
759.977	124.41
760.161	429.56
760.345	247.29
760.528	179.71
760.712	75.26
760.895	130.56
761.079	232.96
761.263	54.78
761.446	19.97
761.63	114.17
761.813	120.32
761.997	11.78
762.18	50.69
762.364	185.85
762.547	36.35
762.731	118.27
762.914	110.08
763.098	110.08
763.281	108.03
763.464	40.45
763.648	153.09
763.831	91.65
764.015	75.26
764.198	230.91
764.381	163.33
764.564	122.37
764.748	120.32
764.931	226.81
765.114	101.89
765.297	214.52
765.481	34.3
765.664	153.09
765.847	112.13
766.03	218.62
766.213	91.65
766.397	124.41
766.58	-8.7
766.763	114.17
766.946	95.74
767.129	93.69
767.312	-2.56
767.495	124.41
767.678	101.89
767.861	167.42
768.044	167.42
768.227	110.08
768.41	62.98
768.593	38.4
768.776	181.76
768.959	52.74
769.142	216.57
769.324	79.36
769.507	60.93
769.69	79.36
769.873	112.13
770.056	284.16
770.239	65.02
770.421	235
770.604	87.55
770.787	110.08
770.97	138.75
771.152	19.97
771.335	120.32
771.518	-64
771.7	192
771.883	249.34
772.066	-18.94
772.248	79.36
772.431	116.22
772.613	46.59
772.796	114.17
772.978	97.79
773.161	159.23
773.343	56.83
773.526	54.78
773.708	17.92
773.891	-25.09
774.073	136.7
774.256	75.26
774.438	185.85
774.621	101.89
774.803	114.17
774.985	67.07
775.168	148.99
775.35	54.78
775.532	108.03
775.715	50.69
775.897	71.17
776.079	91.65
776.261	146.94
776.444	85.5
776.626	77.31
776.808	114.17
776.99	-18.94
777.173	54.78
777.355	58.88
777.537	91.65
777.719	153.09
777.901	-10.75
778.083	75.26
778.265	34.3
778.447	83.45
778.629	28.16
778.811	120.32
778.993	134.65
779.175	159.23
779.357	95.74
779.539	22.02
779.721	11.78
779.903	142.85
780.085	46.59
780.267	83.45
780.449	44.54
780.631	140.8
780.812	198.14
780.994	101.89
781.176	60.93
781.358	24.06
781.54	-16.9
781.721	38.4
781.903	161.28
782.085	-4.61
782.267	169.47
782.448	-39.42
782.63	-10.75
782.812	87.55
782.993	85.5
783.175	161.28
783.357	-12.8
783.538	5.63
783.72	-2.56
783.901	71.17
784.083	185.85
784.264	32.26
784.446	-14.85
784.627	-31.23
784.809	81.41
784.99	40.45
785.172	11.78
785.353	93.69
785.535	54.78
785.716	-10.75
785.897	-37.38
786.079	48.64
786.26	56.83
786.441	67.07
786.623	-47.62
786.804	36.35
786.985	81.41
787.167	-10.75
787.348	48.64
787.529	44.54
787.71	148.99
787.891	71.17
788.073	62.98
788.254	-59.9
788.435	159.23
788.616	44.54
788.797	67.07
788.978	13.82
789.159	-27.14
789.34	48.64
789.522	5.63
789.703	44.54
789.884	26.11
790.065	118.27
790.246	167.42
790.427	54.78
790.607	169.47
790.788	40.45
790.969	-23.04
791.15	34.3
791.331	36.35
791.512	-0.51
791.693	-47.62
791.874	5.63
792.054	212.48
792.235	134.65
792.416	-31.23
792.597	42.5
792.778	155.13
792.958	114.17
793.139	60.93
793.32	52.74
793.5	-57.86
793.681	105.98
793.862	79.36
794.042	-4.61
794.223	-16.9
794.404	58.88
794.584	-53.76
794.765	-8.7
794.945	38.4
795.126	24.06
795.306	93.69
795.487	46.59
795.667	24.06
795.848	108.03
796.028	11.78
796.209	-8.7
796.389	97.79
796.57	17.92
796.75	-18.94
796.93	65.02
797.111	-51.71
797.291	19.97
797.471	67.07
797.652	26.11
797.832	-10.75
798.012	36.35
798.192	-33.28
798.373	-90.62
798.553	91.65
798.733	50.69
798.913	-12.8
799.093	34.3
799.274	38.4
799.454	177.66
799.634	46.59
799.814	108.03
799.994	69.12
800.174	40.45
800.354	34.3
800.534	-2.56
800.714	183.81
800.894	42.5
801.074	-84.48
801.254	-47.62
801.434	146.94
801.614	-51.71
801.794	-51.71
801.974	1584.62
802.154	-57.86
802.334	44.54
802.514	-29.18
802.693	3.58
802.873	-25.09
803.053	91.65
803.233	77.31
803.413	-27.14
803.592	54.78
803.772	-84.48
803.952	-6.66
804.131	-84.48
804.311	83.45
804.491	71.17
804.67	-18.94
804.85	-33.28
805.03	28.16
805.209	34.3
805.389	34.3
805.568	-12.8
805.748	40.45
805.928	75.26
806.107	77.31
806.287	71.17
806.466	30.21
806.646	28.16
806.825	-16.9
807.004	-33.28
807.184	58.88
807.363	136.7
807.543	24.06
807.722	-88.57
807.901	99.84
808.081	5.63
808.26	-100.86
808.439	52.74
808.619	24.06
808.798	-31.23
808.977	110.08
809.156	112.13
809.336	22.02
809.515	1.54
809.694	-25.09
809.873	9.73
810.052	124.41
810.231	108.03
810.411	130.56
810.59	75.26
810.769	1.54
810.948	38.4
811.127	-66.05
811.306	-70.14
811.485	60.93
811.664	140.8
811.843	28.16
812.022	26.11
812.201	-33.28
812.38	17.92
812.559	-35.33
812.737	101.89
812.916	-70.14
813.095	-88.57
813.274	93.69
813.453	44.54
813.632	48.64
813.811	5.63
813.989	-70.14
814.168	34.3
814.347	-6.66
814.526	-8.7
814.704	79.36
814.883	91.65
815.062	-8.7
815.24	34.3
815.419	-43.52
815.598	93.69
815.776	-49.66
815.955	-25.09
816.133	-88.57
816.312	42.5
816.49	-18.94
816.669	-64
816.847	-2.56
817.026	40.45
817.204	52.74
817.383	-4.61
817.561	19.97
817.74	13.82
817.918	-14.85
818.097	22.02
818.275	24.06
818.453	85.5
818.632	97.79
818.81	19.97
818.988	-51.71
819.167	-35.33
819.345	97.79
819.523	-96.77
819.701	42.5
819.879	58.88
820.058	44.54
820.236	22.02
820.414	7.68
820.592	-68.09
820.77	71.17
820.948	-6.66
821.127	-16.9
821.305	5.63
821.483	-4.61
821.661	93.69
821.839	46.59
822.017	34.3
822.195	-47.62
822.373	30.21
822.551	69.12
822.729	116.22
822.907	-23.04
823.085	-12.8
823.262	-4.61
823.44	-47.62
823.618	9.73
823.796	46.59
823.974	-43.52
824.152	-43.52
824.329	3.58
824.507	9.73
824.685	44.54
824.863	34.3
825.04	9.73
825.218	-0.51
825.396	101.89
825.574	-18.94
825.751	26.11
825.929	11.78
826.107	-47.62
826.284	79.36
826.462	13.82
826.639	-80.38
826.817	-23.04
826.994	-64
827.172	-37.38
827.349	28.16
827.527	24.06
827.704	42.5
827.882	54.78
828.059	46.59
828.237	13.82
828.414	-4.61
828.591	-96.77
828.769	69.12
828.946	-96.77
829.124	40.45
829.301	83.45
829.478	-37.38
829.655	42.5
829.833	58.88
830.01	-53.76
830.187	71.17
830.364	87.55
830.542	19.97
830.719	144.89
830.896	13.82
831.073	73.21
831.25	22.02
831.427	48.64
831.604	-84.48
831.782	-29.18
831.959	79.36
832.136	48.64
832.313	83.45
832.49	28.16
832.667	17.92
832.844	7.68
833.021	-14.85
833.198	58.88
833.374	52.74
833.551	112.13
833.728	26.11
833.905	79.36
834.082	-64
834.259	85.5
834.436	89.6
834.612	1.54
834.789	73.21
834.966	34.3
835.143	5.63
835.319	-49.66
835.496	122.37
835.673	34.3
835.85	103.93
836.026	62.98
836.203	77.31
836.38	-55.81
836.556	-16.9
836.733	30.21
836.909	75.26
837.086	-18.94
837.262	-12.8
837.439	-31.23
837.616	1.54
837.792	36.35
837.968	3.58
838.145	-64
838.321	15.87
838.498	110.08
838.674	77.31
838.851	30.21
839.027	5.63
839.203	1.54
839.38	99.84
839.556	56.83
839.732	103.93
839.909	-6.66
840.085	54.78
840.261	-80.38
840.437	9.73
840.614	-41.47
840.79	52.74
840.966	79.36
841.142	28.16
841.318	-2.56
841.494	73.21
841.671	99.84
841.847	-4.61
842.023	-49.66
842.199	105.98
842.375	126.46
842.551	-115.2
842.727	-70.14
842.903	161.28
843.079	-37.38
843.255	71.17
843.431	-16.9
843.607	32.26
843.783	-104.96
843.959	-43.52
844.134	-16.9
844.31	142.85
844.486	-61.95
844.662	-29.18
844.838	17.92
845.013	1.54
845.189	99.84
845.365	54.78
845.541	11.78
845.716	-27.14
845.892	91.65
846.068	108.03
846.244	-23.04
846.419	-14.85
846.595	-33.28
846.77	-107.01
846.946	110.08
847.122	-47.62
847.297	-41.47
847.473	93.69
847.648	-8.7
847.824	-31.23
847.999	-139.77
848.175	73.21
848.35	32.26
848.526	108.03
848.701	30.21
848.876	120.32
849.052	3.58
849.227	34.3
849.403	-29.18
849.578	-27.14
849.753	-0.51
849.929	7.68
850.104	-49.66
850.279	-35.33
850.454	26.11
850.63	91.65
850.805	62.98
850.98	-33.28
851.155	-16.9
851.33	54.78
851.505	-0.51
851.681	124.41
851.856	-35.33
852.031	19.97
852.206	69.12
852.381	-74.24
852.556	-2.56
852.731	1.54
852.906	54.78
853.081	50.69
853.256	81.41
853.431	32.26
853.606	-45.57
853.781	36.35
853.956	-178.69
854.131	75.26
854.305	-37.38
854.48	-20.99
854.655	26.11
854.83	-25.09
855.005	-25.09
855.18	11.78
855.354	-55.81
855.529	36.35
855.704	-25.09
855.879	54.78
856.053	-90.62
856.228	-39.42
856.403	-59.9
856.577	65.02
856.752	-80.38
856.926	-64
857.101	65.02
857.276	-96.77
857.45	28.16
857.625	60.93
857.799	93.69
857.974	-2.56
858.148	-78.33
858.323	44.54
858.497	13.82
858.672	-98.81
858.846	-25.09
859.02	42.5
859.195	46.59
859.369	-94.72
859.543	44.54
859.718	13.82
859.892	73.21
860.066	110.08
860.241	-49.66
860.415	40.45
860.589	-2.56
860.763	-20.99
860.938	24.06
861.112	44.54
861.286	-27.14
861.46	38.4
861.634	24.06
861.808	112.13
861.982	-0.51
862.157	-70.14
862.331	-41.47
862.505	-59.9
862.679	-61.95
862.853	17.92
863.027	-35.33
863.201	126.46
863.375	-25.09
863.549	24.06
863.722	38.4
863.896	136.7
864.07	9.73
864.244	-25.09
864.418	52.74
864.592	-25.09
864.766	67.07
864.939	-23.04
865.113	26.11
865.287	40.45
865.461	-20.99
865.634	38.4
865.808	-14.85
865.982	60.93
866.156	-23.04
866.329	-43.52
866.503	56.83
866.676	103.93
866.85	60.93
867.024	-14.85
867.197	83.45
867.371	40.45
867.544	36.35
867.718	-113.15
867.891	-2.56
868.065	-78.33
868.238	-25.09
868.412	95.74
868.585	28.16
868.759	5.63
868.932	7.68
869.105	-102.91
869.279	-74.24
869.452	15.87
869.625	38.4
869.799	-10.75
869.972	-86.53
870.145	19.97
870.319	58.88
870.492	-113.15
870.665	-27.14
870.838	-31.23
871.011	-70.14
871.185	-6.66
871.358	32.26
871.531	54.78
871.704	3.58
871.877	71.17
872.05	3.58
872.223	-107.01
872.396	93.69
872.569	44.54
872.742	-27.14
872.915	-12.8
873.088	3.58
873.261	-72.19
873.434	93.69
873.607	-49.66
873.78	97.79
873.953	-123.39
874.126	19.97
874.299	87.55
874.471	30.21
874.644	1.54
874.817	-12.8
874.99	95.74
875.163	-29.18
875.335	7.68
875.508	7.68
875.681	44.54
875.853	-31.23
876.026	-18.94
876.199	9.73
876.371	54.78
876.544	-96.77
876.717	13.82
876.889	30.21
877.062	36.35
877.234	-94.72
877.407	-14.85
877.579	-29.18
877.752	48.64
877.924	93.69
878.097	40.45
878.269	99.84
878.442	60.93
878.614	24.06
878.786	32.26
878.959	-76.29
879.131	54.78
879.303	-123.39
879.476	-16.9
879.648	-14.85
879.82	-20.99
879.993	-57.86
880.165	-20.99
880.337	-2.56
880.509	56.83
880.681	-16.9
880.854	-57.86
881.026	50.69
881.198	202.24
881.37	-53.76
881.542	-33.28
881.714	-4.61
881.886	1.54
882.058	52.74
882.23	1.54
882.402	36.35
882.574	34.3
882.746	42.5
882.918	-4.61
883.09	81.41
883.262	-2.56
883.434	32.26
883.606	-107.01
883.778	-68.09
883.95	85.5
884.122	-96.77
884.293	97.79
884.465	17.92
884.637	85.5
884.809	-23.04
884.98	48.64
885.152	32.26
885.324	46.59
885.496	-20.99
885.667	-57.86
885.839	-64
886.011	130.56
886.182	42.5
886.354	42.5
886.525	60.93
886.697	-33.28
886.869	-23.04
887.04	-10.75
887.212	101.89
887.383	204.28
887.555	15.87
887.726	-6.66
887.897	-27.14
888.069	-14.85
888.24	9.73
888.412	-20.99
888.583	-51.71
888.754	60.93
888.926	-113.15
889.097	-107.01
889.268	-14.85
889.44	9.73
889.611	-100.86
889.782	-64
889.953	-25.09
890.125	75.26
890.296	-12.8
890.467	-51.71
890.638	-0.51
890.809	-76.29
890.98	-47.62
891.151	65.02
891.323	130.56
891.494	48.64
891.665	-23.04
891.836	-14.85
892.007	-53.76
892.178	58.88
892.349	44.54
892.52	-55.81
892.691	-0.51
892.862	-23.04
893.032	-111.1
893.203	-18.94
893.374	52.74
893.545	50.69
893.716	-51.71
893.887	124.41
894.057	-47.62
894.228	-45.57
894.399	-16.9
894.57	11.78
894.74	9.73
894.911	24.06
895.082	-68.09
895.253	13.82
895.423	-23.04
895.594	65.02
895.764	75.26
895.935	-111.1
896.106	9.73
896.276	-47.62
896.447	1.54
896.617	13.82
896.788	-61.95
896.958	-33.28
897.129	-18.94
897.299	-39.42
897.47	118.27
897.64	56.83
897.81	52.74
897.981	56.83
898.151	-82.43
898.322	-8.7
898.492	48.64
898.662	-70.14
898.832	-37.38
899.003	-45.57
899.173	-61.95
899.343	5.63
899.513	-104.96
