Data from USB4F104151__229__11-06-16-726.txt Node

Date: Wed Feb 26 11:06:16 EST 2025
User: louis
Spectrometer: USB4F10415
Trigger mode: 4
Integration Time (sec): 1.000000E-1
Scans to average: 1
Electric dark correction enabled: true
Nonlinearity correction enabled: false
Boxcar width: 0
XAxis mode: Wavelengths
Number of Pixels in Spectrum: 3648
>>>>>Begin Spectral Data<<<<<
178.204	-364.88
178.424	-364.88
178.644	-364.88
178.864	-399.7
179.084	-401.74
179.304	-49.49
179.524	5.8
179.744	24.23
179.964	26.28
180.184	32.43
180.404	32.43
180.624	-35.16
180.844	46.76
181.064	-59.73
181.283	54.95
181.503	-24.92
181.723	-53.59
181.943	-53.59
182.163	218.79
182.383	-29.01
182.602	89.77
182.822	161.45
183.042	59.05
183.262	52.91
183.482	30.38
183.701	63.15
183.921	59.05
184.141	-26.96
184.361	75.43
184.58	73.39
184.8	5.8
185.02	-8.53
185.239	102.06
185.459	73.39
185.679	177.83
185.898	-51.54
186.118	73.39
186.338	73.39
186.557	22.19
186.777	-53.59
186.997	28.33
187.216	16.04
187.436	85.67
187.655	79.53
187.875	85.67
188.095	40.62
188.314	163.5
188.534	136.87
188.753	104.11
188.973	85.67
189.192	143.02
189.412	-12.63
189.631	32.43
189.851	87.72
190.07	177.83
190.29	-88.4
190.509	52.91
190.729	44.71
190.948	104.11
191.168	253.61
191.387	52.91
191.607	83.63
191.826	106.15
192.045	30.38
192.265	-51.54
192.484	34.47
192.704	-6.49
192.923	-49.49
193.142	181.93
193.362	-4.44
193.581	81.58
193.8	97.96
194.02	169.64
194.239	67.24
194.458	46.76
194.678	-78.16
194.897	32.43
195.116	112.3
195.335	32.43
195.555	38.57
195.774	16.04
195.993	136.87
196.212	32.43
196.432	-65.88
196.651	-10.58
196.87	24.23
197.089	259.75
197.308	7.85
197.528	67.24
197.747	-33.11
197.966	59.05
198.185	143.02
198.404	3.75
198.623	73.39
198.842	171.69
199.062	104.11
199.281	100.01
199.5	22.19
199.719	106.15
199.938	65.19
200.157	108.2
200.376	108.2
200.595	130.73
200.814	46.76
201.033	-20.82
201.252	157.35
201.471	9.9
201.69	32.43
201.909	30.38
202.128	106.15
202.347	9.9
202.566	77.48
202.785	-35.16
203.004	28.33
203.223	204.46
203.442	112.3
203.661	-33.11
203.879	77.48
204.098	71.34
204.317	38.57
204.536	40.62
204.755	149.16
204.974	128.68
205.193	-65.88
205.411	106.15
205.63	38.57
205.849	93.87
206.068	-4.44
206.287	-69.97
206.505	89.77
206.724	26.28
206.943	-55.64
207.162	-0.34
207.381	85.67
207.599	1.71
207.818	7.85
208.037	-29.01
208.255	67.24
208.474	73.39
208.693	13.99
208.911	9.9
209.13	116.39
209.349	44.71
209.567	97.96
209.786	134.82
210.005	130.73
210.223	32.43
210.442	-98.64
210.661	-14.68
210.879	7.85
211.098	57
211.316	30.38
211.535	89.77
211.753	-10.58
211.972	93.87
212.191	28.33
212.409	-47.44
212.628	206.5
212.846	3.75
213.065	93.87
213.283	136.87
213.502	-24.92
213.72	28.33
213.938	-0.34
214.157	44.71
214.375	104.11
214.594	11.95
214.812	30.38
215.031	48.81
215.249	44.71
215.467	34.47
215.686	46.76
215.904	108.2
216.122	3.75
216.341	163.5
216.559	52.91
216.778	34.47
216.996	153.26
217.214	16.04
217.432	30.38
217.651	-16.73
217.869	40.62
218.087	52.91
218.306	-37.2
218.524	54.95
218.742	50.86
218.96	120.49
219.179	-20.82
219.397	87.72
219.615	272.04
219.833	102.06
220.051	48.81
220.27	120.49
220.488	134.82
220.706	102.06
220.924	-14.68
221.142	30.38
221.36	73.39
221.578	163.5
221.796	32.43
222.015	5.8
222.233	44.71
222.451	149.16
222.669	-35.16
222.887	61.1
223.105	36.52
223.323	32.43
223.541	-76.12
223.759	54.95
223.977	11.95
224.195	167.59
224.413	136.87
224.631	5.8
224.849	112.3
225.067	218.79
225.285	40.62
225.503	-0.34
225.721	-149.84
225.939	-59.73
226.157	46.76
226.375	237.22
226.592	9.9
226.81	38.57
227.028	130.73
227.246	186.02
227.464	9.9
227.682	173.74
227.9	63.15
228.117	81.58
228.335	36.52
228.553	-14.68
228.771	34.47
228.989	79.53
229.206	46.76
229.424	22.19
229.642	16.04
229.86	3.75
230.077	112.3
230.295	77.48
230.513	114.34
230.731	63.15
230.948	214.7
231.166	138.92
231.384	106.15
231.601	-41.3
231.819	243.37
232.037	9.9
232.254	-31.06
232.472	44.71
232.689	44.71
232.907	147.11
233.125	3.75
233.342	65.19
233.56	11.95
233.777	-49.49
233.995	36.52
234.213	110.25
234.43	95.91
234.648	67.24
234.865	30.38
235.083	46.76
235.3	-65.88
235.518	87.72
235.735	165.54
235.953	54.95
236.17	20.14
236.388	32.43
236.605	20.14
236.822	134.82
237.04	118.44
237.257	130.73
237.475	-33.11
237.692	50.86
237.909	7.85
238.127	-4.44
238.344	71.34
238.562	44.71
238.779	-14.68
238.996	-35.16
239.214	32.43
239.431	36.52
239.648	-49.49
239.865	85.67
240.083	69.29
240.3	-4.44
240.517	-45.4
240.735	54.95
240.952	79.53
241.169	140.97
241.386	26.28
241.603	89.77
241.821	-33.11
242.038	81.58
242.255	79.53
242.472	36.52
242.689	30.38
242.907	106.15
243.124	87.72
243.341	120.49
243.558	-72.02
243.775	-33.11
243.992	-16.73
244.209	16.04
244.426	235.18
244.643	87.72
244.86	36.52
245.078	106.15
245.295	91.82
245.512	52.91
245.729	-18.77
245.946	32.43
246.163	-33.11
246.38	3.75
246.597	95.91
246.814	59.05
247.031	40.62
247.248	85.67
247.464	145.06
247.681	-33.11
247.898	54.95
248.115	116.39
248.332	13.99
248.549	151.21
248.766	63.15
248.983	155.3
249.2	106.15
249.417	89.77
249.633	18.09
249.85	87.72
250.067	26.28
250.284	18.09
250.501	38.57
250.717	46.76
250.934	-12.63
251.151	44.71
251.368	65.19
251.585	85.67
251.801	67.24
252.018	-29.01
252.235	149.16
252.451	-119.12
252.668	-37.2
252.885	138.92
253.102	112.3
253.318	-10.58
253.535	16.04
253.752	1.71
253.968	13.99
254.185	-92.5
254.401	85.67
254.618	100.01
254.835	11.95
255.051	138.92
255.268	22.19
255.484	69.29
255.701	22.19
255.917	106.15
256.134	-47.44
256.351	11.95
256.567	32.43
256.784	108.2
257	9.9
257.217	104.11
257.433	110.25
257.65	95.91
257.866	136.87
258.082	-12.63
258.299	13.99
258.515	73.39
258.732	65.19
258.948	-49.49
259.165	112.3
259.381	-35.16
259.597	36.52
259.814	30.38
260.03	-0.34
260.246	-2.39
260.463	93.87
260.679	16.04
260.895	106.15
261.112	34.47
261.328	126.63
261.544	-14.68
261.761	132.78
261.977	-14.68
262.193	36.52
262.409	110.25
262.626	63.15
262.842	18.09
263.058	-18.77
263.274	5.8
263.49	38.57
263.707	120.49
263.923	75.43
264.139	-61.78
264.355	28.33
264.571	126.63
264.787	93.87
265.004	210.6
265.22	93.87
265.436	59.05
265.652	38.57
265.868	-10.58
266.084	-22.87
266.3	85.67
266.516	-63.83
266.732	73.39
266.948	-35.16
267.164	9.9
267.38	114.34
267.596	38.57
267.812	134.82
268.028	32.43
268.244	69.29
268.46	28.33
268.676	67.24
268.892	69.29
269.108	-78.16
269.324	-20.82
269.54	3.75
269.756	149.16
269.972	-45.4
270.188	40.62
270.403	-88.4
270.619	-4.44
270.835	11.95
271.051	44.71
271.267	34.47
271.483	22.19
271.698	124.58
271.914	69.29
272.13	126.63
272.346	-22.87
272.562	30.38
272.777	130.73
272.993	-6.49
273.209	24.23
273.425	120.49
273.64	-72.02
273.856	102.06
274.072	16.04
274.287	34.47
274.503	48.81
274.719	106.15
274.934	-0.34
275.15	-10.58
275.366	26.28
275.581	-57.68
275.797	95.91
276.012	100.01
276.228	30.38
276.444	95.91
276.659	161.45
276.875	-24.92
277.09	36.52
277.306	34.47
277.521	13.99
277.737	59.05
277.952	110.25
278.168	54.95
278.383	57
278.599	16.04
278.814	85.67
279.03	32.43
279.245	140.97
279.461	32.43
279.676	20.14
279.892	-43.35
280.107	52.91
280.322	-10.58
280.538	42.67
280.753	20.14
280.969	77.48
281.184	32.43
281.399	165.54
281.615	36.52
281.83	50.86
282.045	-22.87
282.26	46.76
282.476	46.76
282.691	59.05
282.906	104.11
283.122	89.77
283.337	-29.01
283.552	108.2
283.767	-10.58
283.983	46.76
284.198	-8.53
284.413	83.63
284.628	-20.82
284.843	95.91
285.058	75.43
285.274	32.43
285.489	-82.26
285.704	161.45
285.919	16.04
286.134	85.67
286.349	28.33
286.564	-0.34
286.779	126.63
286.995	3.75
287.21	-18.77
287.425	1.71
287.64	-35.16
287.855	108.2
288.07	-4.44
288.285	83.63
288.5	145.06
288.715	40.62
288.93	69.29
289.145	-41.3
289.36	73.39
289.575	-72.02
289.79	140.97
290.004	61.1
290.219	108.2
290.434	-26.96
290.649	32.43
290.864	30.38
291.079	-47.44
291.294	65.19
291.509	81.58
291.724	61.1
291.938	34.47
292.153	52.91
292.368	-37.2
292.583	97.96
292.798	36.52
293.012	128.68
293.227	57
293.442	32.43
293.657	71.34
293.871	120.49
294.086	59.05
294.301	130.73
294.516	140.97
294.73	61.1
294.945	-49.49
295.16	24.23
295.374	95.91
295.589	120.49
295.804	-29.01
296.018	77.48
296.233	95.91
296.447	65.19
296.662	7.85
296.877	110.25
297.091	128.68
297.306	9.9
297.52	-22.87
297.735	26.28
297.949	3.75
298.164	24.23
298.378	59.05
298.593	-72.02
298.807	-41.3
299.022	120.49
299.236	116.39
299.451	-20.82
299.665	40.62
299.88	-29.01
300.094	63.15
300.309	-31.06
300.523	93.87
300.737	-14.68
300.952	26.28
301.166	77.48
301.381	9.9
301.595	1.71
301.809	63.15
302.024	50.86
302.238	5.8
302.452	95.91
302.667	79.53
302.881	114.34
303.095	136.87
303.309	81.58
303.524	-20.82
303.738	42.67
303.952	-18.77
304.166	112.3
304.381	-67.92
304.595	188.07
304.809	54.95
305.023	112.3
305.237	-14.68
305.452	83.63
305.666	65.19
305.88	114.34
306.094	61.1
306.308	93.87
306.522	32.43
306.736	104.11
306.95	134.82
307.164	46.76
307.379	13.99
307.593	122.54
307.807	165.54
308.021	-2.39
308.235	89.77
308.449	-151.89
308.663	32.43
308.877	229.03
309.091	36.52
309.305	54.95
309.519	-88.4
309.733	173.74
309.947	-39.25
310.161	116.39
310.374	67.24
310.588	85.67
310.802	26.28
311.016	-78.16
311.23	54.95
311.444	3.75
311.658	-35.16
311.872	159.4
312.085	104.11
312.299	95.91
312.513	114.34
312.727	73.39
312.941	-74.07
313.154	1.71
313.368	16.04
313.582	63.15
313.796	52.91
314.009	32.43
314.223	175.78
314.437	50.86
314.651	104.11
314.864	16.04
315.078	34.47
315.292	-33.11
315.505	13.99
315.719	44.71
315.933	85.67
316.146	22.19
316.36	36.52
316.573	77.48
316.787	65.19
317.001	100.01
317.214	-4.44
317.428	83.63
317.641	-63.83
317.855	18.09
318.068	-16.73
318.282	95.91
318.495	128.68
318.709	36.52
318.922	75.43
319.136	200.36
319.349	73.39
319.563	48.81
319.776	89.77
319.99	-65.88
320.203	93.87
320.417	75.43
320.63	18.09
320.843	196.26
321.057	20.14
321.27	7.85
321.483	122.54
321.697	157.35
321.91	46.76
322.124	104.11
322.337	102.06
322.55	-49.49
322.763	18.09
322.977	77.48
323.19	-6.49
323.403	67.24
323.617	67.24
323.83	50.86
324.043	11.95
324.256	79.53
324.469	13.99
324.683	-4.44
324.896	5.8
325.109	54.95
325.322	-59.73
325.535	147.11
325.748	81.58
325.962	3.75
326.175	63.15
326.388	26.28
326.601	102.06
326.814	26.28
327.027	89.77
327.24	188.07
327.453	-72.02
327.666	65.19
327.879	34.47
328.092	26.28
328.305	38.57
328.518	-14.68
328.731	57
328.944	26.28
329.157	132.78
329.37	-14.68
329.583	231.08
329.796	169.64
330.009	-51.54
330.222	32.43
330.435	89.77
330.648	57
330.861	81.58
331.073	87.72
331.286	91.82
331.499	65.19
331.712	-29.01
331.925	13.99
332.138	67.24
332.35	116.39
332.563	24.23
332.776	188.07
332.989	-47.44
333.202	79.53
333.414	26.28
333.627	-67.92
333.84	-16.73
334.053	79.53
334.265	-41.3
334.478	93.87
334.691	116.39
334.903	95.91
335.116	38.57
335.329	30.38
335.541	97.96
335.754	196.26
335.966	26.28
336.179	40.62
336.392	13.99
336.604	65.19
336.817	87.72
337.029	5.8
337.242	79.53
337.454	112.3
337.667	-10.58
337.88	97.96
338.092	73.39
338.305	77.48
338.517	-0.34
338.729	42.67
338.942	110.25
339.154	5.8
339.367	-57.68
339.579	87.72
339.792	-0.34
340.004	120.49
340.217	18.09
340.429	106.15
340.641	30.38
340.854	24.23
341.066	-8.53
341.278	145.06
341.491	157.35
341.703	28.33
341.915	28.33
342.128	104.11
342.34	44.71
342.552	-53.59
342.764	32.43
342.977	30.38
343.189	50.86
343.401	95.91
343.613	-2.39
343.826	40.62
344.038	-74.07
344.25	9.9
344.462	-2.39
344.674	20.14
344.886	-0.34
345.099	57
345.311	67.24
345.523	52.91
345.735	-47.44
345.947	67.24
346.159	42.67
346.371	18.09
346.583	-2.39
346.795	186.02
347.007	20.14
347.219	112.3
347.431	57
347.643	171.69
347.855	-6.49
348.067	155.3
348.279	-76.12
348.491	48.81
348.703	106.15
348.915	-8.53
349.127	-6.49
349.339	-18.77
349.551	61.1
349.763	143.02
349.975	-0.34
350.187	138.92
350.399	140.97
350.61	120.49
350.822	-16.73
351.034	106.15
351.246	-35.16
351.458	48.81
351.669	93.87
351.881	114.34
352.093	171.69
352.305	132.78
352.517	97.96
352.728	134.82
352.94	100.01
353.152	59.05
353.363	-24.92
353.575	167.59
353.787	91.82
353.999	132.78
354.21	173.74
354.422	67.24
354.633	-2.39
354.845	22.19
355.057	1.71
355.268	20.14
355.48	153.26
355.692	-57.68
355.903	20.14
356.115	13.99
356.326	-102.74
356.538	97.96
356.749	57
356.961	159.4
357.172	30.38
357.384	-51.54
357.595	183.98
357.807	1.71
358.018	42.67
358.23	-22.87
358.441	208.55
358.653	89.77
358.864	20.14
359.075	18.09
359.287	128.68
359.498	79.53
359.709	95.91
359.921	-10.58
360.132	124.58
360.344	97.96
360.555	61.1
360.766	32.43
360.977	13.99
361.189	167.59
361.4	57
361.611	48.81
361.823	145.06
362.034	44.71
362.245	-69.97
362.456	102.06
362.667	100.01
362.879	7.85
363.09	59.05
363.301	95.91
363.512	-10.58
363.723	-59.73
363.935	-53.59
364.146	110.25
364.357	48.81
364.568	13.99
364.779	-69.97
364.99	122.54
365.201	-8.53
365.412	44.71
365.623	-26.96
365.834	120.49
366.045	38.57
366.256	97.96
366.467	81.58
366.678	-20.82
366.889	69.29
367.1	13.99
367.311	83.63
367.522	-24.92
367.733	97.96
367.944	124.58
368.155	89.77
368.366	89.77
368.577	165.54
368.788	136.87
368.999	24.23
369.209	36.52
369.42	167.59
369.631	134.82
369.842	206.5
370.053	-0.34
370.264	138.92
370.474	46.76
370.685	69.29
370.896	13.99
371.107	132.78
371.317	54.95
371.528	13.99
371.739	38.57
371.95	77.48
372.16	30.38
372.371	9.9
372.582	32.43
372.792	138.92
373.003	79.53
373.214	93.87
373.424	130.73
373.635	-26.96
373.846	136.87
374.056	26.28
374.267	36.52
374.477	57
374.688	-18.77
374.898	100.01
375.109	75.43
375.319	124.58
375.53	138.92
375.74	108.2
375.951	13.99
376.161	22.19
376.372	134.82
376.582	50.86
376.793	24.23
377.003	-63.83
377.214	-6.49
377.424	83.63
377.635	-2.39
377.845	87.72
378.055	71.34
378.266	-61.78
378.476	-2.39
378.686	46.76
378.897	65.19
379.107	79.53
379.317	48.81
379.528	54.95
379.738	5.8
379.948	-35.16
380.158	77.48
380.369	28.33
380.579	118.44
380.789	7.85
380.999	175.78
381.21	128.68
381.42	163.5
381.63	5.8
381.84	157.35
382.05	112.3
382.261	128.68
382.471	22.19
382.681	9.9
382.891	210.6
383.101	83.63
383.311	-47.44
383.521	16.04
383.731	83.63
383.941	42.67
384.151	42.67
384.361	-8.53
384.571	77.48
384.781	87.72
384.991	212.65
385.201	171.69
385.411	93.87
385.621	67.24
385.831	13.99
386.041	63.15
386.251	22.19
386.461	114.34
386.671	20.14
386.881	124.58
387.091	81.58
387.301	116.39
387.511	34.47
387.72	120.49
387.93	40.62
388.14	-57.68
388.35	32.43
388.56	122.54
388.769	161.45
388.979	108.2
389.189	26.28
389.399	22.19
389.609	108.2
389.818	104.11
390.028	7.85
390.238	30.38
390.447	-10.58
390.657	-8.53
390.867	69.29
391.076	-24.92
391.286	138.92
391.496	-0.34
391.705	75.43
391.915	102.06
392.125	83.63
392.334	-14.68
392.544	196.26
392.753	77.48
392.963	22.19
393.172	20.14
393.382	59.05
393.591	126.63
393.801	-35.16
394.01	93.87
394.22	75.43
394.429	28.33
394.639	79.53
394.848	89.77
395.058	20.14
395.267	38.57
395.477	167.59
395.686	42.67
395.895	210.6
396.105	265.89
396.314	73.39
396.524	48.81
396.733	5.8
396.942	83.63
397.152	59.05
397.361	138.92
397.57	16.04
397.78	-8.53
397.989	112.3
398.198	196.26
398.407	26.28
398.617	-8.53
398.826	40.62
399.035	36.52
399.244	116.39
399.453	52.91
399.663	140.97
399.872	38.57
400.081	-37.2
400.29	87.72
400.499	-2.39
400.708	65.19
400.917	-41.3
401.127	116.39
401.336	-57.68
401.545	231.08
401.754	85.67
401.963	122.54
402.172	20.14
402.381	-43.35
402.59	77.48
402.799	81.58
403.008	59.05
403.217	54.95
403.426	44.71
403.635	-8.53
403.844	48.81
404.053	48.81
404.262	79.53
404.471	124.58
404.68	87.72
404.888	54.95
405.097	-31.06
405.306	40.62
405.515	73.39
405.724	-8.53
405.933	138.92
406.142	95.91
406.35	114.34
406.559	9.9
406.768	48.81
406.977	222.89
407.185	42.67
407.394	77.48
407.603	-31.06
407.812	46.76
408.02	122.54
408.229	16.04
408.438	3.75
408.646	-22.87
408.855	3.75
409.064	26.28
409.272	11.95
409.481	122.54
409.69	16.04
409.898	-82.26
410.107	50.86
410.315	116.39
410.524	-18.77
410.733	77.48
410.941	24.23
411.15	106.15
411.358	116.39
411.567	138.92
411.775	79.53
411.984	18.09
412.192	91.82
412.401	-24.92
412.609	138.92
412.818	157.35
413.026	36.52
413.234	5.8
413.443	69.29
413.651	16.04
413.86	48.81
414.068	136.87
414.276	224.94
414.485	-16.73
414.693	188.07
414.901	149.16
415.11	22.19
415.318	124.58
415.526	48.81
415.734	95.91
415.943	65.19
416.151	116.39
416.359	22.19
416.567	97.96
416.776	54.95
416.984	132.78
417.192	186.02
417.4	28.33
417.608	13.99
417.817	-31.06
418.025	97.96
418.233	181.93
418.441	-49.49
418.649	-37.2
418.857	81.58
419.065	95.91
419.273	-20.82
419.481	77.48
419.689	77.48
419.897	-2.39
420.105	-20.82
420.313	57
420.521	163.5
420.729	118.44
420.937	-51.54
421.145	9.9
421.353	147.11
421.561	181.93
421.769	77.48
421.977	13.99
422.185	95.91
422.393	81.58
422.601	183.98
422.809	83.63
423.017	87.72
423.224	153.26
423.432	100.01
423.64	75.43
423.848	138.92
424.056	1.71
424.263	91.82
424.471	20.14
424.679	222.89
424.887	-12.63
425.094	157.35
425.302	106.15
425.51	34.47
425.718	128.68
425.925	63.15
426.133	69.29
426.341	233.13
426.548	-2.39
426.756	20.14
426.964	73.39
427.171	34.47
427.379	112.3
427.586	75.43
427.794	63.15
428.001	155.3
428.209	75.43
428.417	100.01
428.624	138.92
428.832	136.87
429.039	130.73
429.247	87.72
429.454	153.26
429.662	290.47
429.869	130.73
430.076	63.15
430.284	136.87
430.491	302.76
430.699	138.92
430.906	208.55
431.114	46.76
431.321	186.02
431.528	222.89
431.736	114.34
431.943	108.2
432.15	226.98
432.358	134.82
432.565	206.5
432.772	-69.97
432.979	198.31
433.187	175.78
433.394	196.26
433.601	108.2
433.808	220.84
434.016	257.7
434.223	276.13
434.43	192.17
434.637	280.23
434.844	321.19
435.052	231.08
435.259	313
435.466	245.41
435.673	259.75
435.88	310.95
436.087	288.42
436.294	343.72
436.501	339.62
436.708	216.74
436.915	269.99
437.122	429.73
437.329	294.57
437.537	345.77
437.743	323.24
437.95	396.96
438.157	380.58
438.364	437.92
438.571	366.25
438.778	372.39
438.985	507.55
439.192	452.26
439.399	427.68
439.606	433.83
439.813	595.62
440.02	601.76
440.227	732.83
440.433	525.99
440.64	507.55
440.847	552.61
441.054	652.96
441.261	691.87
441.467	585.38
441.674	601.76
441.881	755.36
442.088	603.81
442.294	726.69
442.501	687.78
442.708	812.7
442.914	693.92
443.121	865.95
443.328	904.86
443.534	820.89
443.741	900.76
443.948	868
444.154	947.87
444.361	1160.86
444.568	949.92
444.774	1042.07
444.981	1015.45
445.187	1320.6
445.394	1185.43
445.6	1072.79
445.807	1343.13
446.013	1298.07
446.22	1224.34
446.426	1398.42
446.633	1416.85
446.839	1603.22
447.046	1423
447.252	1646.23
447.459	1592.98
447.665	1511.06
447.871	1740.43
448.078	1918.61
448.284	1896.08
448.491	1967.76
448.697	2182.79
448.903	2068.11
449.11	2168.46
449.316	2190.99
449.522	2377.35
449.728	2365.06
449.935	2543.24
450.141	2465.41
450.347	2725.51
450.553	2649.73
450.76	2723.46
450.966	2979.45
451.172	3051.13
451.378	3106.43
451.584	3225.21
451.791	3364.47
451.997	3632.76
452.203	3493.49
452.409	3718.77
452.615	3913.33
452.821	3718.77
453.027	3929.71
453.233	4324.97
453.44	4177.51
453.646	4382.31
453.852	4701.79
454.058	4820.58
454.264	4865.63
454.47	5250.65
454.676	5373.53
454.882	5598.81
455.088	5475.93
455.294	5801.55
455.5	6239.82
455.705	6616.65
455.911	6356.55
456.117	6544.97
456.323	6977.09
456.529	6831.68
456.735	7743.03
456.941	7769.65
457.147	7970.35
457.352	8287.79
457.558	8570.41
457.764	9047.58
457.97	9434.65
458.176	9743.89
458.381	10083.86
458.587	10333.71
458.793	10843.65
458.999	10632.71
459.204	12248.56
459.41	12475.88
459.616	12445.16
459.821	13264.35
460.027	13544.92
460.233	14202.32
460.438	14235.09
460.644	15373.76
460.85	15455.68
461.055	15898.04
461.261	16784.81
461.466	16297.39
461.672	16971.18
461.878	18974.09
462.083	18507.15
462.289	18906.51
462.494	19694.97
462.7	19920.25
462.905	20237.69
463.111	21886.3
463.316	22762.83
463.522	23125.32
463.727	24188.22
463.932	25003.31
464.138	25990.43
464.343	26817.81
464.549	26934.54
464.754	28792.05
464.959	29588.71
465.165	30184.67
465.37	30008.54
465.575	29965.54
465.781	31741.13
465.986	32896.18
466.191	32203.97
466.397	32685.24
466.602	32085.19
466.807	33717.42
467.012	34346.14
467.218	34540.7
467.423	35126.42
467.628	36070.53
467.833	38171.75
468.038	37270.64
468.244	36095.11
468.449	38268
468.654	37309.55
468.859	37272.69
469.064	37782.63
469.269	36787.32
469.474	37397.62
469.679	38161.51
469.885	37065.85
470.09	37639.28
470.295	38167.65
470.5	36799.61
470.705	36912.25
470.91	35980.42
471.115	35968.13
471.32	36396.16
471.525	35771.53
471.73	35140.75
471.935	34747.54
472.139	33672.36
472.344	33639.59
472.549	33815.72
472.754	32851.13
472.959	32179.39
473.164	31454.41
473.369	30579.93
473.574	31587.53
473.778	30946.51
473.983	30330.08
474.188	29908.19
474.393	28302.59
474.598	28345.59
474.802	27604.23
475.007	27434.25
475.212	27219.21
475.417	26002.72
475.621	25849.12
475.826	25277.74
476.031	24597.81
476.235	24403.25
476.44	24378.68
476.645	23655.75
476.849	23426.37
477.054	22961.48
477.259	22396.24
477.463	22558.03
477.668	21775.71
477.872	22013.27
478.077	21181.8
478.282	20493.68
478.486	20807.02
478.691	20508.02
478.895	20145.53
479.1	19858.81
479.304	19897.72
479.509	19221.89
479.713	19445.12
479.918	18916.75
480.122	18705.81
480.326	18658.7
480.531	18709.9
480.735	18245.01
480.94	17841.56
481.144	18830.73
481.348	17806.75
481.553	18097.56
481.757	17204.64
481.961	17669.53
482.166	17857.95
482.37	17626.53
482.574	16926.12
482.778	16903.59
482.983	17313.19
483.187	17010.09
483.391	16860.59
483.595	16741.8
483.8	16184.76
484.004	16416.18
484.208	16508.33
484.412	16074.17
484.616	16061.88
484.821	16080.31
485.025	15355.33
485.229	15351.23
485.433	15146.44
485.637	14976.45
485.841	14628.3
486.045	14536.14
486.249	14370.26
486.453	13927.89
486.657	14030.29
486.861	13772.25
487.065	13567.45
487.269	13530.59
487.473	12776.94
487.677	13057.51
487.881	12996.07
488.085	12680.68
488.289	12404.21
488.493	12004.85
488.697	12103.15
488.901	11843.06
489.105	11556.35
489.309	11357.69
489.512	11421.18
489.716	11085.31
489.92	10802.69
490.124	10522.12
490.328	10628.62
490.531	10077.71
490.735	10165.78
490.939	9920.02
491.143	9690.65
491.346	9496.09
491.55	9545.24
491.754	9371.16
491.958	9137.7
492.161	9143.84
492.365	8744.49
492.569	8566.31
492.772	8517.16
492.976	8480.3
493.18	8394.28
493.383	8158.77
493.587	8207.92
493.79	8255.02
493.994	7775.8
494.197	7847.47
494.401	7968.31
494.605	7620.15
494.808	7728.69
495.012	7794.23
495.215	7556.66
495.419	7812.66
495.622	7317.05
495.825	7417.4
496.029	7464.5
496.232	7472.7
496.436	7376.44
496.639	7231.04
496.843	7351.87
497.046	7265.85
497.249	7339.58
497.453	7372.35
497.656	7372.35
497.859	7515.7
498.063	7175.74
498.266	7405.11
498.469	7212.6
498.673	7157.31
498.876	7312.96
499.079	7480.89
499.282	7396.92
499.485	7630.39
499.689	7474.74
499.892	7642.68
500.095	7654.97
500.298	7755.32
500.501	7423.55
500.705	7665.21
500.908	7814.71
501.111	7882.29
501.314	8144.43
501.517	8154.67
501.72	8107.57
501.923	8134.19
502.126	8367.66
502.329	8539.69
502.532	8529.45
502.735	8580.65
502.938	8750.63
503.141	8748.58
503.344	8695.33
503.547	9186.85
503.75	8988.19
503.953	9223.71
504.156	9252.38
504.359	9383.45
504.562	9379.36
504.765	9711.13
504.968	9852.44
505.17	10161.68
505.373	9883.16
505.576	10397.2
505.779	10389
505.982	10532.36
506.185	10901
506.387	10833.41
506.59	11142.66
506.793	11509.24
506.996	11488.76
507.198	11851.25
507.401	11967.99
507.604	12060.15
507.807	12535.28
508.009	12580.33
508.212	12621.29
508.415	12965.35
508.617	13340.13
508.82	13606.36
509.022	13571.55
509.225	14284.24
509.428	14751.18
509.63	14910.92
509.833	14970.31
510.035	15713.72
510.238	15705.53
510.44	15943.1
510.643	16526.77
510.845	17044.9
511.048	17149.35
511.25	17733.02
511.453	17671.58
511.655	18867.59
511.858	18722.19
512.06	19021.19
512.262	19332.48
512.465	19926.39
512.667	20374.9
512.87	21110.12
513.072	21464.42
513.274	22158.68
513.477	22369.62
513.679	22580.56
513.881	23504.2
514.084	23672.13
514.286	24278.33
514.488	24538.42
514.69	25548.07
514.893	26105.12
515.095	26543.38
515.297	27254.03
515.499	27647.24
515.701	28101.89
515.904	28706.04
516.106	29402.35
516.308	30074.08
516.51	30704.85
516.712	30827.73
516.914	31892.68
517.116	32455.87
517.318	32847.03
517.52	33737.9
517.722	34196.64
517.925	34595.99
518.127	36058.24
518.329	36107.4
518.531	36226.18
518.733	37452.91
518.935	37776.49
519.136	38319.2
519.338	38882.39
519.54	39736.4
519.742	40318.02
519.944	40971.32
520.146	41698.35
520.348	42255.4
520.55	42501.15
520.752	42896.41
520.954	43822.09
521.155	43455.51
521.357	44749.82
521.559	45388.79
521.761	45726.7
521.963	46068.72
522.164	46167.02
522.366	46529.51
522.568	46920.67
522.77	47309.78
522.971	48288.71
523.173	47727.57
523.375	48847.81
523.576	48255.95
523.778	48804.8
523.98	49769.4
524.181	49234.88
524.383	49525.69
524.584	50090.93
524.786	49796.02
524.988	49816.5
525.189	50127.79
525.391	50201.52
525.592	50066.35
525.794	50693.03
525.995	50115.5
526.197	50459.56
526.398	50037.68
526.6	50418.6
526.801	49931.18
527.003	50127.79
527.204	49621.94
527.406	49771.44
527.607	49349.56
527.808	49494.97
528.01	48507.85
528.211	48569.29
528.412	49318.84
528.614	48366.54
528.815	47776.72
529.016	47793.11
529.218	47244.25
529.419	47242.2
529.62	46664.67
529.822	46076.91
530.023	45517.81
530.224	45462.52
530.425	44815.36
530.626	44012.56
530.828	43490.32
531.029	44000.27
531.23	43113.5
531.431	42460.19
531.632	42298.41
531.833	41972.78
532.035	41333.81
532.236	40993.85
532.437	40625.21
532.638	40111.17
532.839	39597.13
533.04	39222.36
533.241	38237.28
533.442	38691.93
533.643	37647.47
533.844	36799.61
534.045	36443.26
534.246	35906.69
534.447	35685.51
534.648	34970.77
534.849	34770.07
535.05	34135.2
535.251	33821.86
535.451	33414.32
535.652	33004.72
535.853	32631.99
536.054	32154.82
536.255	31601.86
536.456	31098.06
536.657	30784.72
536.857	29736.16
537.058	29914.34
537.259	29375.72
537.46	29261.04
537.66	28527.86
537.861	28525.82
538.062	27759.88
538.263	27819.27
538.463	27540.74
538.664	26791.19
538.865	26686.74
539.065	26217.75
539.266	25699.62
539.466	25955.61
539.667	25201.96
539.868	25429.29
540.068	24849.71
540.269	24417.59
540.469	24132.92
540.67	24026.43
540.87	23446.85
541.071	23522.63
541.271	23307.59
541.472	22906.19
541.672	22670.67
541.873	22267.22
542.073	21527.91
542.274	22152.54
542.474	21488.99
542.675	21204.33
542.875	21386.6
543.075	21024.11
543.276	20413.81
543.476	20465.01
543.676	20092.28
543.877	19914.11
544.077	19705.21
544.277	19479.94
544.478	19295.62
544.678	19314.05
544.878	18965.9
545.078	18871.69
545.279	18314.64
545.479	18169.24
545.679	18007.45
545.879	17761.69
546.079	17540.51
546.28	17216.93
546.48	17139.11
546.68	17124.77
546.88	16889.26
547.08	16663.98
547.28	16471.47
547.48	16287.15
547.68	16319.92
547.88	15691.2
548.081	15611.32
548.281	15527.36
548.481	15123.91
548.681	15091.14
548.881	15007.17
549.081	14912.97
549.28	14380.5
549.48	14300.62
549.68	14200.27
549.88	14091.73
550.08	13618.65
550.28	13499.87
550.48	13108.71
550.68	13358.56
550.88	12830.18
551.08	12760.55
551.279	12748.26
551.479	12572.14
551.679	12391.92
551.879	11816.44
552.079	11935.22
552.278	11783.67
552.478	11707.9
552.678	11724.28
552.878	11480.57
553.077	11193.86
553.277	10989.06
553.477	10647.05
553.676	10665.48
553.876	10411.53
554.076	10190.35
554.275	10268.17
554.475	10147.34
554.674	9917.97
554.874	9807.38
555.074	9178.65
555.273	9344.54
555.473	9190.94
555.672	8941.09
555.872	8818.21
556.071	8746.53
556.271	8789.54
556.47	8549.93
556.67	8146.48
556.869	8302.12
557.068	8218.16
557.268	7898.67
557.467	7771.7
557.667	7949.87
557.866	7585.33
558.065	7544.38
558.265	7329.34
558.464	7030.34
558.663	7216.7
558.863	7149.12
559.062	6839.87
559.261	6747.72
559.461	6725.19
559.66	6440.52
559.859	6620.74
560.058	6422.09
560.258	6118.99
560.457	6262.35
560.656	6258.25
560.855	5889.62
561.054	5940.82
561.253	5850.71
561.453	5674.58
561.652	5541.46
561.851	5731.92
562.05	5422.68
562.249	5281.37
562.448	5301.85
562.647	4992.61
562.846	5123.68
563.045	5158.49
563.244	4902.5
563.443	5015.13
563.642	4783.71
563.841	4830.82
564.04	4669.03
564.239	4607.59
564.438	4527.72
564.637	4429.42
564.836	4468.33
565.035	4449.89
565.234	4429.42
565.432	4443.75
565.631	4081.26
565.83	4091.5
566.029	4040.3
566.228	3980.91
566.427	4017.77
566.625	3671.67
566.824	3839.6
567.023	3931.76
567.222	3561.08
567.42	3692.15
567.619	3704.43
567.818	3591.8
568.016	3747.44
568.215	3538.55
568.414	3612.28
568.612	3452.53
568.811	3241.59
569.01	3198.59
569.208	3151.48
569.407	3245.69
569.605	3298.94
569.804	3028.6
570.002	3098.24
570.201	3073.66
570.4	3124.86
570.598	2942.59
570.797	2856.58
570.995	2848.38
571.193	2782.85
571.392	2836.1
571.59	2563.72
571.789	2729.6
571.987	2725.51
572.186	2780.8
572.384	2522.76
572.582	2528.9
572.781	2598.53
572.979	2477.7
573.177	2365.06
573.376	2334.34
573.574	2369.16
573.772	2203.27
573.971	2250.38
574.169	2229.9
574.367	2201.23
574.565	2141.83
574.763	2125.45
574.962	2168.46
575.16	2047.63
575.358	2006.67
575.556	2051.72
575.754	1945.23
575.952	1912.46
576.151	1975.95
576.349	1934.99
576.547	1771.15
576.745	1955.47
576.943	1746.58
577.141	1638.03
577.339	1633.94
577.537	1760.91
577.735	1693.33
577.933	1758.86
578.131	1611.41
578.329	1672.85
578.527	1631.89
578.725	1633.94
578.923	1453.72
579.121	1531.54
579.319	1291.93
579.516	1488.53
579.714	1599.12
579.912	1472.15
580.11	1390.23
580.308	1371.8
580.506	1410.71
580.704	1179.29
580.901	1185.43
581.099	1332.89
581.297	1142.43
581.495	1349.27
581.692	1224.34
581.89	1363.61
582.088	1269.4
582.285	1212.06
582.483	1142.43
582.681	1107.61
582.878	1185.43
583.076	1058.46
583.274	1091.23
583.471	1171.1
583.669	1167
583.866	1052.31
584.064	1074.84
584.262	911
584.459	974.49
584.657	1042.07
584.854	1058.46
585.052	1019.55
585.249	986.78
585.447	976.54
585.644	849.57
585.841	1001.12
586.039	1013.4
586.236	1033.88
586.434	865.95
586.631	796.32
586.828	982.68
587.026	777.89
587.223	716.45
587.42	687.78
587.618	837.28
587.815	880.29
588.012	829.09
588.21	728.74
588.407	745.12
588.604	908.96
588.801	712.35
588.999	818.85
589.196	812.7
589.393	673.44
589.59	763.55
589.787	751.26
589.984	802.46
590.182	757.41
590.379	657.06
590.576	732.83
590.773	677.54
590.97	683.68
591.167	792.22
591.364	726.69
591.561	632.48
591.758	718.5
591.955	753.31
592.152	628.39
592.349	597.67
592.546	716.45
592.743	724.64
592.94	706.21
593.137	736.93
593.334	732.83
593.531	802.46
593.727	812.7
593.924	691.87
594.121	745.12
594.318	597.67
594.515	677.54
594.712	745.12
594.908	763.55
595.105	566.95
595.302	720.54
595.499	794.27
595.696	841.37
595.892	648.86
596.089	849.57
596.286	804.51
596.482	833.18
596.679	872.09
596.876	749.22
597.072	911
597.269	824.99
597.466	886.43
597.662	855.71
597.859	861.85
598.055	994.97
598.252	972.44
598.448	1037.98
598.645	1193.62
598.841	1058.46
599.038	1240.73
599.234	1222.3
599.431	1220.25
599.627	1275.54
599.824	1371.8
600.02	1386.13
600.217	1363.61
600.413	1396.37
600.609	1502.87
600.806	1801.87
601.002	1552.02
601.198	1660.56
601.395	1818.25
601.591	1767.06
601.787	1926.8
601.984	1953.42
602.18	1963.66
602.376	2102.92
602.572	2248.33
602.769	2322.06
602.965	2223.75
603.161	2412.17
603.357	2436.74
603.553	2666.11
603.75	2612.87
603.946	2799.23
604.142	2881.15
604.338	2997.88
604.534	2967.17
604.73	3071.61
604.926	3131
605.122	3387
605.318	3382.9
605.514	3620.47
605.71	3593.84
605.906	3782.26
606.102	3741.3
606.298	4077.16
606.494	4009.58
606.69	4284.01
606.886	4396.65
607.082	4322.92
607.278	4515.43
607.474	4761.19
607.67	4953.7
607.866	4865.63
608.062	5269.08
608.257	5328.47
608.453	5176.92
608.649	5568.09
608.845	5541.46
609.041	5695.06
609.236	5998.16
609.432	5971.54
609.628	6409.8
609.824	6387.27
610.019	6567.49
610.215	6635.08
610.411	6952.51
610.606	7261.76
610.802	7218.75
610.998	7458.36
611.193	7783.99
611.389	7876.15
611.584	8146.48
611.78	8105.52
611.976	8441.39
612.171	8816.16
612.367	9016.87
612.562	9121.31
612.758	9334.3
612.953	9457.18
613.149	9780.76
613.344	10251.79
613.539	10472.97
613.735	10739.21
613.93	11099.65
614.126	10991.11
614.321	11539.96
614.517	11867.64
614.712	12158.45
614.907	12506.6
615.103	12955.11
615.298	12891.62
615.493	13340.13
615.688	13639.13
615.884	14464.46
616.079	14351.82
616.274	14831.05
616.47	14974.41
616.665	15340.99
616.86	15695.29
617.055	16029.11
617.25	16260.53
617.445	17112.49
617.641	17280.42
617.836	18150.81
618.031	17882.52
618.226	19004.81
618.421	19111.3
618.616	19762.56
618.811	19684.73
619.006	20788.59
619.201	20759.92
619.396	21187.94
619.591	21491.04
619.786	22402.39
619.981	22539.6
620.176	23174.47
620.371	23784.77
620.566	24268.09
620.761	24794.42
620.956	24712.5
621.151	25503.01
621.346	26256.67
621.541	26252.57
621.735	27307.27
621.93	27127.05
622.125	27954.43
622.32	28255.48
622.515	29002.99
622.709	29308.14
622.904	30215.39
623.099	30561.5
623.294	30983.38
623.488	31505.61
623.683	32236.73
623.878	32079.04
624.072	33006.77
624.267	33502.38
624.462	34129.06
624.656	34225.31
624.851	35239.06
625.046	35318.93
625.24	36115.59
625.435	36222.08
625.629	36865.14
625.824	37600.36
626.018	38024.29
626.213	37821.55
626.407	39197.78
626.602	38558.81
626.796	39738.44
626.991	39943.24
627.185	39857.23
627.38	40223.81
627.574	40227.91
627.768	40426.56
627.963	40821.82
628.157	40760.38
628.352	41540.66
628.546	40817.72
628.74	41862.19
628.935	40490.05
629.129	41143.35
629.323	40381.51
629.517	40391.75
629.712	40574.02
629.906	40227.91
630.1	39455.82
630.294	39402.58
630.489	38851.67
630.683	38403.17
630.877	37293.17
631.071	36865.14
631.265	36557.95
631.459	35521.68
631.653	35101.84
631.848	33911.97
632.042	33334.45
632.236	32679.1
632.43	31632.58
632.624	30971.09
632.818	29912.29
633.012	28718.32
633.206	27870.47
633.4	27536.65
633.594	26139.93
633.788	25701.67
633.982	24657.2
634.176	23700.8
634.369	22775.12
634.563	22173.02
634.757	21167.46
634.951	20479.35
635.145	19707.26
635.339	18812.3
635.533	17970.58
635.726	17493.41
635.92	16485.81
636.114	16102.84
636.308	15173.06
636.501	14896.58
636.695	14132.69
636.889	13510.11
637.083	12717.54
637.276	12391.92
637.47	11955.7
637.664	11161.09
637.857	11073.03
638.051	10438.16
638.244	10366.48
638.438	9653.78
638.632	9391.64
638.825	8924.71
639.019	8719.91
639.212	8171.05
639.406	7913.01
639.599	7534.14
639.793	7542.33
639.986	6975.04
640.18	6864.45
640.373	6444.62
640.567	6280.78
640.76	6219.34
640.954	5838.42
641.147	5574.23
641.34	5193.31
641.534	5060.19
641.727	5035.61
641.92	4800.1
642.114	4628.07
642.307	4222.57
642.5	4355.69
642.694	3925.61
642.887	3821.17
643.08	4025.97
643.273	3681.91
643.467	3430.01
643.66	3358.33
643.853	3292.79
644.046	3178.11
644.239	2963.07
644.432	2713.22
644.626	2748.03
644.819	2666.11
645.012	2559.62
645.205	2549.38
645.398	2440.84
645.591	2252.42
645.784	2119.31
645.977	2090.63
646.17	2006.67
646.363	2016.91
646.556	1924.75
646.749	1785.49
646.942	1863.31
647.135	1689.23
647.328	1515.16
647.521	1504.92
647.714	1461.91
647.907	1402.52
648.099	1361.56
648.292	1414.81
648.485	1351.32
648.678	1279.64
648.871	1253.02
649.064	1160.86
649.256	964.25
649.449	1007.26
649.642	945.82
649.835	923.29
650.027	857.76
650.22	966.3
650.413	937.63
650.605	986.78
650.798	695.97
650.991	704.16
651.183	759.46
651.376	775.84
651.568	792.22
651.761	698.02
651.954	818.85
652.146	573.09
652.339	605.86
652.531	736.93
652.724	460.45
652.916	534.18
653.109	450.21
653.301	640.67
653.494	544.42
653.686	534.18
653.879	585.38
654.071	550.56
654.263	460.45
654.456	399.01
654.648	495.27
654.84	429.73
655.033	380.58
655.225	552.61
655.417	370.34
655.61	487.08
655.802	493.22
655.994	427.68
656.186	229.03
656.379	423.59
656.571	302.76
656.763	417.44
656.955	257.7
657.148	286.37
657.34	534.18
657.532	194.22
657.724	245.41
657.916	376.48
658.108	409.25
658.3	255.65
658.492	315.05
658.684	325.29
658.876	327.33
659.068	218.79
659.26	181.93
659.452	220.84
659.644	308.9
659.836	384.68
660.028	241.32
660.22	188.07
660.412	206.5
660.604	276.13
660.796	224.94
660.988	339.62
661.18	190.12
661.372	226.98
661.563	175.78
661.755	208.55
661.947	143.02
662.139	245.41
662.331	259.75
662.522	222.89
662.714	151.21
662.906	102.06
663.097	239.27
663.289	177.83
663.481	44.71
663.673	202.41
663.864	183.98
664.056	202.41
664.247	134.82
664.439	306.85
664.631	143.02
664.822	188.07
665.014	202.41
665.205	71.34
665.397	126.63
665.588	130.73
665.78	222.89
665.971	226.98
666.163	163.5
666.354	102.06
666.546	93.87
666.737	161.45
666.929	95.91
667.12	157.35
667.311	198.31
667.503	151.21
667.694	145.06
667.885	138.92
668.077	194.22
668.268	24.23
668.459	171.69
668.651	153.26
668.842	175.78
669.033	91.82
669.224	100.01
669.416	300.71
669.607	106.15
669.798	59.05
669.989	239.27
670.18	136.87
670.371	151.21
670.563	116.39
670.754	263.85
670.945	159.4
671.136	183.98
671.327	91.82
671.518	159.4
671.709	272.04
671.9	206.5
672.091	259.75
672.282	188.07
672.473	165.54
672.664	26.28
672.855	147.11
673.046	171.69
673.237	202.41
673.428	91.82
673.619	214.7
673.809	112.3
674	261.8
674.191	218.79
674.382	93.87
674.573	79.53
674.764	97.96
674.954	140.97
675.145	67.24
675.336	93.87
675.527	79.53
675.717	124.58
675.908	196.26
676.099	67.24
676.289	204.46
676.48	50.86
676.671	114.34
676.861	97.96
677.052	226.98
677.243	116.39
677.433	116.39
677.624	147.11
677.814	130.73
678.005	100.01
678.195	267.94
678.386	190.12
678.576	75.43
678.767	116.39
678.957	134.82
679.148	183.98
679.338	300.71
679.529	239.27
679.719	179.88
679.909	261.8
680.1	290.47
680.29	196.26
680.481	42.67
680.671	171.69
680.861	181.93
681.052	149.16
681.242	110.25
681.432	204.46
681.622	251.56
681.813	79.53
682.003	169.64
682.193	81.58
682.383	235.18
682.573	202.41
682.764	134.82
682.954	175.78
683.144	229.03
683.334	110.25
683.524	97.96
683.714	261.8
683.904	261.8
684.094	235.18
684.284	134.82
684.474	321.19
684.664	241.32
684.854	233.13
685.044	147.11
685.234	171.69
685.424	186.02
685.614	126.63
685.804	360.1
685.994	257.7
686.184	175.78
686.374	177.83
686.564	222.89
686.753	130.73
686.943	89.77
687.133	188.07
687.323	122.54
687.513	165.54
687.702	204.46
687.892	222.89
688.082	253.61
688.272	214.7
688.461	239.27
688.651	349.86
688.841	116.39
689.03	136.87
689.22	198.31
689.41	296.61
689.599	233.13
689.789	208.55
689.979	302.76
690.168	155.3
690.358	243.37
690.547	163.5
690.737	210.6
690.926	206.5
691.116	249.51
691.305	216.74
691.495	310.95
691.684	143.02
691.874	143.02
692.063	206.5
692.252	222.89
692.442	181.93
692.631	188.07
692.82	159.4
693.01	214.7
693.199	132.78
693.388	292.52
693.578	204.46
693.767	183.98
693.956	200.36
694.146	220.84
694.335	222.89
694.524	165.54
694.713	278.18
694.902	161.45
695.092	183.98
695.281	269.99
695.47	120.49
695.659	93.87
695.848	173.74
696.037	75.43
696.226	255.65
696.415	249.51
696.604	224.94
696.793	257.7
696.982	208.55
697.171	306.85
697.36	153.26
697.549	224.94
697.738	97.96
697.927	255.65
698.116	118.44
698.305	222.89
698.494	224.94
698.683	155.3
698.872	306.85
699.061	130.73
699.25	196.26
699.438	255.65
699.627	130.73
699.816	169.64
700.005	91.82
700.193	91.82
700.382	204.46
700.571	245.41
700.76	198.31
700.948	226.98
701.137	190.12
701.326	179.88
701.514	61.1
701.703	188.07
701.892	124.58
702.08	306.85
702.269	126.63
702.457	165.54
702.646	149.16
702.834	122.54
703.023	214.7
703.212	274.09
703.4	202.41
703.589	112.3
703.777	157.35
703.965	67.24
704.154	161.45
704.342	181.93
704.531	102.06
704.719	179.88
704.907	175.78
705.096	104.11
705.284	63.15
705.472	183.98
705.661	183.98
705.849	128.68
706.037	226.98
706.226	251.56
706.414	245.41
706.602	149.16
706.79	190.12
706.979	153.26
707.167	169.64
707.355	16.04
707.543	198.31
707.731	196.26
707.919	194.22
708.107	155.3
708.296	186.02
708.484	104.11
708.672	249.51
708.86	175.78
709.048	171.69
709.236	132.78
709.424	159.4
709.612	222.89
709.8	44.71
709.988	171.69
710.176	186.02
710.364	192.17
710.551	210.6
710.739	229.03
710.927	87.72
711.115	183.98
711.303	224.94
711.491	214.7
711.679	104.11
711.866	257.7
712.054	167.59
712.242	229.03
712.43	177.83
712.617	89.77
712.805	216.74
712.993	192.17
713.181	40.62
713.368	265.89
713.556	149.16
713.744	204.46
713.931	290.47
714.119	173.74
714.306	130.73
714.494	69.29
714.682	237.22
714.869	50.86
715.057	110.25
715.244	100.01
715.432	243.37
715.619	165.54
715.807	108.2
715.994	161.45
716.182	208.55
716.369	306.85
716.556	196.26
716.744	118.44
716.931	181.93
717.119	179.88
717.306	265.89
717.493	220.84
717.681	202.41
717.868	138.92
718.055	196.26
718.242	257.7
718.43	214.7
718.617	296.61
718.804	179.88
718.991	241.32
719.179	224.94
719.366	190.12
719.553	237.22
719.74	145.06
719.927	194.22
720.114	222.89
720.301	112.3
720.488	196.26
720.676	97.96
720.863	255.65
721.05	358.05
721.237	214.7
721.424	276.13
721.611	194.22
721.798	138.92
721.985	173.74
722.172	167.59
722.358	177.83
722.545	241.32
722.732	220.84
722.919	302.76
723.106	175.78
723.293	245.41
723.48	241.32
723.667	79.53
723.853	333.48
724.04	319.14
724.227	310.95
724.414	204.46
724.6	286.37
724.787	337.57
724.974	329.38
725.161	177.83
725.347	196.26
725.534	253.61
725.72	233.13
725.907	171.69
726.094	261.8
726.28	175.78
726.467	208.55
726.653	147.11
726.84	366.25
727.027	306.85
727.213	208.55
727.4	274.09
727.586	269.99
727.773	233.13
727.959	130.73
728.145	190.12
728.332	214.7
728.518	159.4
728.705	329.38
728.891	286.37
729.077	251.56
729.264	136.87
729.45	147.11
729.636	224.94
729.823	177.83
730.009	337.57
730.195	261.8
730.382	216.74
730.568	210.6
730.754	190.12
730.94	132.78
731.126	186.02
731.313	286.37
731.499	222.89
731.685	290.47
731.871	288.42
732.057	206.5
732.243	292.52
732.429	290.47
732.615	282.28
732.801	335.53
732.987	233.13
733.173	147.11
733.359	177.83
733.545	298.66
733.731	239.27
733.917	261.8
734.103	255.65
734.289	290.47
734.475	239.27
734.661	341.67
734.847	190.12
735.033	235.18
735.219	313
735.404	226.98
735.59	284.33
735.776	243.37
735.962	292.52
736.148	296.61
736.333	321.19
736.519	208.55
736.705	229.03
736.89	261.8
737.076	202.41
737.262	163.5
737.447	196.26
737.633	216.74
737.819	261.8
738.004	239.27
738.19	261.8
738.375	206.5
738.561	276.13
738.747	251.56
738.932	151.21
739.118	341.67
739.303	241.32
739.489	274.09
739.674	306.85
739.859	212.65
740.045	220.84
740.23	173.74
740.416	147.11
740.601	212.65
740.786	315.05
740.972	186.02
741.157	202.41
741.342	220.84
741.528	136.87
741.713	343.72
741.898	171.69
742.084	179.88
742.269	183.98
742.454	282.28
742.639	190.12
742.824	235.18
743.01	327.33
743.195	333.48
743.38	257.7
743.565	157.35
743.75	263.85
743.935	241.32
744.12	376.48
744.305	235.18
744.49	210.6
744.675	147.11
744.86	204.46
745.045	263.85
745.23	220.84
745.415	218.79
745.6	261.8
745.785	136.87
745.97	192.17
746.155	333.48
746.34	272.04
746.525	165.54
746.71	376.48
746.895	128.68
747.079	167.59
747.264	177.83
747.449	249.51
747.634	267.94
747.819	247.46
748.003	214.7
748.188	128.68
748.373	210.6
748.557	222.89
748.742	261.8
748.927	222.89
749.111	192.17
749.296	200.36
749.481	298.66
749.665	267.94
749.85	186.02
750.034	153.26
750.219	122.54
750.404	214.7
750.588	237.22
750.773	143.02
750.957	233.13
751.141	196.26
751.326	169.64
751.51	151.21
751.695	153.26
751.879	143.02
752.064	300.71
752.248	198.31
752.432	304.81
752.617	216.74
752.801	335.53
752.985	110.25
753.17	278.18
753.354	237.22
753.538	259.75
753.722	93.87
753.907	153.26
754.091	100.01
754.275	157.35
754.459	122.54
754.643	91.82
754.828	120.49
755.012	186.02
755.196	132.78
755.38	231.08
755.564	179.88
755.748	196.26
755.932	282.28
756.116	249.51
756.3	153.26
756.484	-2.39
756.668	175.78
756.852	106.15
757.036	102.06
757.22	138.92
757.404	116.39
757.588	11.95
757.772	91.82
757.956	167.59
758.14	306.85
758.323	85.67
758.507	190.12
758.691	110.25
758.875	132.78
759.059	212.65
759.242	36.52
759.426	153.26
759.61	183.98
759.794	122.54
759.977	198.31
760.161	257.7
760.345	216.74
760.528	233.13
760.712	204.46
760.895	177.83
761.079	134.82
761.263	87.72
761.446	91.82
761.63	87.72
761.813	210.6
761.997	79.53
762.18	114.34
762.364	151.21
762.547	-24.92
762.731	118.44
762.914	106.15
763.098	106.15
763.281	57
763.464	16.04
763.648	118.44
763.831	24.23
764.015	54.95
764.198	93.87
764.381	44.71
764.564	138.92
764.748	104.11
764.931	116.39
765.114	61.1
765.297	233.13
765.481	13.99
765.664	95.91
765.847	138.92
766.03	190.12
766.213	108.2
766.397	57
766.58	-20.82
766.763	157.35
766.946	5.8
767.129	30.38
767.312	-0.34
767.495	106.15
767.678	36.52
767.861	54.95
768.044	44.71
768.227	36.52
768.41	138.92
768.593	63.15
768.776	69.29
768.959	20.14
769.142	153.26
769.324	57
769.507	57
769.69	116.39
769.873	118.44
770.056	321.19
770.239	46.76
770.421	122.54
770.604	165.54
770.787	65.19
770.97	91.82
771.152	48.81
771.335	151.21
771.518	63.15
771.7	220.84
771.883	229.03
772.066	32.43
772.248	118.44
772.431	138.92
772.613	104.11
772.796	97.96
772.978	52.91
773.161	163.5
773.343	106.15
773.526	20.14
773.708	3.75
773.891	-51.54
774.073	87.72
774.256	77.48
774.438	175.78
774.621	52.91
774.803	145.06
774.985	42.67
775.168	114.34
775.35	-2.39
775.532	106.15
775.715	-6.49
775.897	122.54
776.079	44.71
776.261	106.15
776.444	40.62
776.626	81.58
776.808	36.52
776.99	-47.44
777.173	108.2
777.355	102.06
777.537	54.95
777.719	48.81
777.901	-26.96
778.083	-96.6
778.265	46.76
778.447	54.95
778.629	-10.58
778.811	155.3
778.993	67.24
779.175	143.02
779.357	52.91
779.539	-74.07
779.721	124.58
779.903	108.2
780.085	59.05
780.267	26.28
780.449	44.71
780.631	87.72
780.812	179.88
780.994	-12.63
781.176	34.47
781.358	52.91
781.54	93.87
781.721	153.26
781.903	32.43
782.085	16.04
782.267	169.64
782.448	-63.83
782.63	22.19
782.812	54.95
782.993	-6.49
783.175	138.92
783.357	28.33
783.538	128.68
783.72	-35.16
783.901	89.77
784.083	79.53
784.264	32.43
784.446	-29.01
784.627	-49.49
784.809	46.76
784.99	48.81
785.172	124.58
785.353	7.85
785.535	36.52
785.716	-16.73
785.897	1.71
786.079	38.57
786.26	71.34
786.441	40.62
786.623	-57.68
786.804	52.91
786.985	104.11
787.167	89.77
787.348	-26.96
787.529	50.86
787.71	169.64
787.891	-10.58
788.073	16.04
788.254	-41.3
788.435	167.59
788.616	50.86
788.797	24.23
788.978	16.04
789.159	-8.53
789.34	52.91
789.522	-8.53
789.703	7.85
789.884	52.91
790.065	-55.64
790.246	157.35
790.427	-0.34
790.607	89.77
790.788	181.93
790.969	48.81
791.15	81.58
791.331	-45.4
791.512	5.8
791.693	-65.88
791.874	-65.88
792.054	108.2
792.235	87.72
792.416	3.75
792.597	22.19
792.778	-6.49
792.958	71.34
793.139	-41.3
793.32	-33.11
793.5	-117.08
793.681	165.54
793.862	52.91
794.042	-8.53
794.223	-41.3
794.404	50.86
794.584	-88.4
794.765	91.82
794.945	-20.82
795.126	46.76
795.306	52.91
795.487	-18.77
795.667	83.63
795.848	61.1
796.028	-72.02
796.209	50.86
796.389	54.95
796.57	-29.01
796.75	-55.64
796.93	40.62
797.111	-84.31
797.291	-43.35
797.471	97.96
797.652	89.77
797.832	28.33
798.012	136.87
798.192	-45.4
798.373	-80.21
798.553	5.8
798.733	28.33
798.913	22.19
799.093	16.04
799.274	-6.49
799.454	69.29
799.634	91.82
799.814	132.78
799.994	114.34
800.174	71.34
800.354	-10.58
800.534	-69.97
800.714	69.29
800.894	-129.36
801.074	9.9
801.254	-35.16
801.434	108.2
801.614	-31.06
801.794	-59.73
801.974	1767.06
802.154	46.76
802.334	91.82
802.514	-57.68
802.693	24.23
802.873	-49.49
803.053	159.4
803.233	-0.34
803.413	13.99
803.592	-31.06
803.772	16.04
803.952	75.43
804.131	-74.07
804.311	-6.49
804.491	93.87
804.67	-63.83
804.85	-0.34
805.03	11.95
805.209	110.25
805.389	67.24
805.568	-69.97
805.748	3.75
805.928	1.71
806.107	124.58
806.287	48.81
806.466	85.67
806.646	-39.25
806.825	16.04
807.004	87.72
807.184	-22.87
807.363	114.34
807.543	-2.39
807.722	-39.25
807.901	179.88
808.081	95.91
808.26	-127.32
808.439	54.95
808.619	65.19
808.798	-31.06
808.977	85.67
809.156	126.63
809.336	52.91
809.515	71.34
809.694	-24.92
809.873	-16.73
810.052	1.71
810.231	77.48
810.411	57
810.59	63.15
810.769	-10.58
810.948	32.43
811.127	-119.12
811.306	-22.87
811.485	11.95
811.664	130.73
811.843	-31.06
812.022	100.01
812.201	48.81
812.38	-45.4
812.559	13.99
812.737	67.24
812.916	-201.04
813.095	-53.59
813.274	-8.53
813.453	-0.34
813.632	79.53
813.811	65.19
813.989	-6.49
814.168	22.19
814.347	-33.11
814.526	48.81
814.704	95.91
814.883	93.87
815.062	-29.01
815.24	73.39
815.419	-168.27
815.598	97.96
815.776	-67.92
815.955	13.99
816.133	-149.84
816.312	-0.34
816.49	-4.44
816.669	32.43
816.847	-6.49
817.026	91.82
817.204	5.8
817.383	-14.68
817.561	-43.35
817.74	42.67
817.918	36.52
818.097	-47.44
818.275	-20.82
818.453	61.1
818.632	-22.87
818.81	28.33
818.988	-29.01
819.167	-22.87
819.345	-29.01
819.523	-55.64
819.701	48.81
819.879	77.48
820.058	-18.77
820.236	24.23
820.414	52.91
820.592	69.29
820.77	24.23
820.948	-18.77
821.127	-63.83
821.305	-12.63
821.483	-16.73
821.661	143.02
821.839	106.15
822.017	-61.78
822.195	11.95
822.373	61.1
822.551	-16.73
822.729	89.77
822.907	-14.68
823.085	61.1
823.262	3.75
823.44	-98.64
823.618	71.34
823.796	-10.58
823.974	-82.26
824.152	-82.26
824.329	59.05
824.507	-61.78
824.685	44.71
824.863	26.28
825.04	-4.44
825.218	93.87
825.396	38.57
825.574	1.71
825.751	28.33
825.929	26.28
826.107	-121.17
826.284	-10.58
826.462	73.39
826.639	-41.3
826.817	-119.12
826.994	-41.3
827.172	-88.4
827.349	122.54
827.527	67.24
827.704	7.85
827.882	97.96
828.059	-16.73
828.237	5.8
828.414	65.19
828.591	-117.08
828.769	-10.58
828.946	-90.45
829.124	63.15
829.301	93.87
829.478	5.8
829.655	18.09
829.833	1.71
830.01	-153.94
830.187	95.91
830.364	85.67
830.542	40.62
830.719	120.49
830.896	69.29
831.073	85.67
831.25	36.52
831.427	110.25
831.604	-51.54
831.782	-37.2
831.959	5.8
832.136	-78.16
832.313	91.82
832.49	-47.44
832.667	54.95
832.844	16.04
833.021	134.82
833.198	42.67
833.374	-16.73
833.551	-59.73
833.728	65.19
833.905	77.48
834.082	-94.55
834.259	-2.39
834.436	97.96
834.612	-88.4
834.789	22.19
834.966	-8.53
835.143	11.95
835.319	-78.16
835.496	30.38
835.673	38.57
835.85	83.63
836.026	30.38
836.203	61.1
836.38	-33.11
836.556	-10.58
836.733	9.9
836.909	147.11
837.086	-8.53
837.262	-94.55
837.439	34.47
837.616	-24.92
837.792	-41.3
837.968	-45.4
838.145	-125.27
838.321	9.9
838.498	-0.34
838.674	112.3
838.851	-69.97
839.027	16.04
839.203	-0.34
839.38	38.57
839.556	-104.79
839.732	65.19
839.909	1.71
840.085	73.39
840.261	-72.02
840.437	-86.36
840.614	-29.01
840.79	157.35
840.966	3.75
841.142	22.19
841.318	-29.01
841.494	108.2
841.671	73.39
841.847	-170.32
842.023	-61.78
842.199	52.91
842.375	165.54
842.551	-115.03
842.727	-94.55
842.903	89.77
843.079	-55.64
843.255	91.82
843.431	-37.2
843.607	69.29
843.783	-92.5
843.959	16.04
844.134	-35.16
844.31	54.95
844.486	-92.5
844.662	-172.37
844.838	-63.83
845.013	48.81
845.189	59.05
845.365	22.19
845.541	9.9
845.716	-31.06
845.892	71.34
846.068	-0.34
846.244	50.86
846.419	42.67
846.595	-94.55
846.77	-145.75
846.946	40.62
847.122	-14.68
847.297	-65.88
847.473	110.25
847.648	-102.74
847.824	48.81
847.999	-61.78
848.175	11.95
848.35	40.62
848.526	161.45
848.701	77.48
848.876	36.52
849.052	65.19
849.227	-2.39
849.403	-33.11
849.578	-18.77
849.753	24.23
849.929	18.09
850.104	-102.74
850.279	22.19
850.454	24.23
850.63	57
850.805	1.71
850.98	71.34
851.155	-6.49
851.33	22.19
851.505	-61.78
851.681	147.11
851.856	-49.49
852.031	83.63
852.206	44.71
852.381	-72.02
852.556	48.81
852.731	28.33
852.906	128.68
853.081	-16.73
853.256	130.73
853.431	-33.11
853.606	-22.87
853.781	-49.49
853.956	-180.56
854.131	16.04
854.305	-67.92
854.48	22.19
854.655	-37.2
854.83	-26.96
855.005	11.95
855.18	9.9
855.354	-20.82
855.529	-20.82
855.704	-16.73
855.879	42.67
856.053	-53.59
856.228	36.52
856.403	-20.82
856.577	65.19
856.752	-139.6
856.926	7.85
857.101	36.52
857.276	-51.54
857.45	-37.2
857.625	124.58
857.799	-39.25
857.974	-72.02
858.148	-72.02
858.323	-31.06
858.497	20.14
858.672	-47.44
858.846	-6.49
859.02	79.53
859.195	-86.36
859.369	7.85
859.543	-18.77
859.718	-2.39
859.892	9.9
860.066	48.81
860.241	13.99
860.415	30.38
860.589	18.09
860.763	20.14
860.938	46.76
861.112	50.86
861.286	-39.25
861.46	13.99
861.634	-35.16
861.808	42.67
861.982	-16.73
862.157	-98.64
862.331	-137.56
862.505	-67.92
862.679	-119.12
862.853	-90.45
863.027	-67.92
863.201	48.81
863.375	-6.49
863.549	1.71
863.722	-41.3
863.896	108.2
864.07	-110.93
864.244	-29.01
864.418	89.77
864.592	3.75
864.766	26.28
864.939	9.9
865.113	-41.3
865.287	77.48
865.461	-14.68
865.634	22.19
865.808	22.19
865.982	-59.73
866.156	-98.64
866.329	-110.93
866.503	22.19
866.676	1.71
866.85	32.43
867.024	-94.55
867.197	42.67
867.371	13.99
867.544	11.95
867.718	-108.88
867.891	124.58
868.065	-74.07
868.238	13.99
868.412	108.2
868.585	16.04
868.759	-0.34
868.932	-65.88
869.105	-74.07
869.279	-63.83
869.452	-65.88
869.625	44.71
869.799	-6.49
869.972	-39.25
870.145	-41.3
870.319	61.1
870.492	-67.92
870.665	-90.45
870.838	-14.68
871.011	-123.22
871.185	5.8
871.358	-43.35
871.531	-0.34
871.704	22.19
871.877	108.2
872.05	-26.96
872.223	-51.54
872.396	65.19
872.569	87.72
872.742	-90.45
872.915	13.99
873.088	-12.63
873.261	-82.26
873.434	9.9
873.607	-45.4
873.78	134.82
873.953	-149.84
874.126	52.91
874.299	-16.73
874.471	-94.55
874.644	-51.54
874.817	30.38
874.99	130.73
875.163	-6.49
875.335	93.87
875.508	16.04
875.681	65.19
875.853	-53.59
876.026	-57.68
876.199	-18.77
876.371	3.75
876.544	20.14
876.717	30.38
876.889	-121.17
877.062	28.33
877.234	-51.54
877.407	-20.82
877.579	42.67
877.752	36.52
877.924	34.47
878.097	9.9
878.269	-96.6
878.442	26.28
878.614	69.29
878.786	63.15
878.959	1.71
879.131	5.8
879.303	-45.4
879.476	9.9
879.648	48.81
879.82	-0.34
879.993	-22.87
880.165	-57.68
880.337	-151.89
880.509	-10.58
880.681	-129.36
880.854	-16.73
881.026	73.39
881.198	192.17
881.37	7.85
881.542	16.04
881.714	-10.58
881.886	-35.16
882.058	13.99
882.23	-59.73
882.402	-39.25
882.574	22.19
882.746	-29.01
882.918	138.92
883.09	71.34
883.262	-12.63
883.434	20.14
883.606	-139.6
883.778	18.09
883.95	16.04
884.122	1.71
884.293	71.34
884.465	36.52
884.637	52.91
884.809	-47.44
884.98	57
885.152	1.71
885.324	16.04
885.496	-82.26
885.667	-35.16
885.839	-49.49
886.011	26.28
886.182	71.34
886.354	40.62
886.525	46.76
886.697	-33.11
886.869	-98.64
887.04	-35.16
887.212	126.63
887.383	65.19
887.555	28.33
887.726	-6.49
887.897	-90.45
888.069	38.57
888.24	116.39
888.412	20.14
888.583	-41.3
888.754	-45.4
888.926	-137.56
889.097	-31.06
889.268	-121.17
889.44	-35.16
889.611	-43.35
889.782	-96.6
889.953	-166.23
890.125	100.01
890.296	-16.73
890.467	-72.02
890.638	-41.3
890.809	-41.3
890.98	-106.84
891.151	36.52
891.323	100.01
891.494	-0.34
891.665	100.01
891.836	-12.63
892.007	-4.44
892.178	-63.83
892.349	-10.58
892.52	-55.64
892.691	67.24
892.862	-65.88
893.032	-76.12
893.203	20.14
893.374	57
893.545	61.1
893.716	1.71
893.887	44.71
894.057	-33.11
894.228	-55.64
894.399	-57.68
894.57	7.85
894.74	-45.4
894.911	34.47
895.082	32.43
895.253	-18.77
895.423	69.29
895.594	44.71
895.764	18.09
895.935	-67.92
896.106	52.91
896.276	9.9
896.447	13.99
896.617	-12.63
896.788	-22.87
896.958	-82.26
897.129	-69.97
897.299	-74.07
897.47	116.39
897.64	108.2
897.81	-20.82
897.981	48.81
898.151	-108.88
898.322	13.99
898.492	163.5
898.662	-43.35
898.832	-33.11
899.003	-53.59
899.173	32.43
899.343	-49.49
899.513	-96.6
