Data from USB4F104151__218__11-05-57-428.txt Node

Date: Wed Feb 26 11:05:57 EST 2025
User: louis
Spectrometer: USB4F10415
Trigger mode: 4
Integration Time (sec): 1.000000E-1
Scans to average: 1
Electric dark correction enabled: true
Nonlinearity correction enabled: false
Boxcar width: 0
XAxis mode: Wavelengths
Number of Pixels in Spectrum: 3648
>>>>>Begin Spectral Data<<<<<
178.204	-347.98
178.424	-347.98
178.644	-347.98
178.864	-442.19
179.084	-376.66
179.304	16.55
179.524	4.27
179.744	-12.12
179.964	123.05
180.184	-22.36
180.404	55.47
180.624	-73.56
180.844	-32.6
181.064	-98.13
181.283	22.7
181.503	-20.31
181.723	37.03
181.943	-110.42
182.163	147.62
182.383	10.41
182.602	30.89
182.822	159.91
183.042	100.52
183.262	-12.12
183.482	-22.36
183.701	34.99
183.921	10.41
184.141	-26.45
184.361	57.51
184.58	16.55
184.8	125.1
185.02	-28.5
185.239	55.47
185.459	6.31
185.679	32.94
185.898	-120.66
186.118	34.99
186.338	12.46
186.557	61.61
186.777	6.31
186.997	-16.21
187.216	41.13
187.436	178.34
187.655	114.86
187.875	137.38
188.095	51.37
188.314	164.01
188.534	153.77
188.753	-5.97
188.973	118.95
189.192	129.19
189.412	53.42
189.631	51.37
189.851	108.71
190.07	139.43
190.29	-34.64
190.509	-26.45
190.729	112.81
190.948	198.82
191.168	225.45
191.387	65.71
191.607	41.13
191.826	82.09
192.045	37.03
192.265	63.66
192.484	12.46
192.704	18.6
192.923	-61.27
193.142	104.62
193.362	4.27
193.581	100.52
193.8	92.33
194.02	98.47
194.239	80.04
194.458	114.86
194.678	82.09
194.897	-10.07
195.116	104.62
195.335	47.27
195.555	90.28
195.774	-14.17
195.993	137.38
196.212	37.03
196.432	20.65
196.651	-73.56
196.87	-51.03
197.089	243.88
197.308	-10.07
197.528	41.13
197.747	-8.02
197.966	14.51
198.185	108.71
198.404	-77.65
198.623	92.33
198.842	51.37
199.062	55.47
199.281	47.27
199.5	49.32
199.719	131.24
199.938	71.85
200.157	24.75
200.376	59.56
200.595	170.15
200.814	-24.4
201.033	6.31
201.252	186.54
201.471	28.84
201.69	71.85
201.909	41.13
202.128	139.43
202.347	90.28
202.566	10.41
202.785	-71.51
203.004	-22.36
203.223	307.37
203.442	53.42
203.661	-42.84
203.879	73.9
204.098	151.72
204.317	-40.79
204.536	100.52
204.755	55.47
204.974	114.86
205.193	-16.21
205.411	112.81
205.63	100.52
205.849	45.23
206.068	37.03
206.287	0.17
206.505	104.62
206.724	22.7
206.943	-46.93
207.162	26.79
207.381	100.52
207.599	51.37
207.818	32.94
208.037	47.27
208.255	55.47
208.474	45.23
208.693	41.13
208.911	-5.97
209.13	69.8
209.349	67.75
209.567	71.85
209.786	100.52
210.005	75.95
210.223	45.23
210.442	-94.04
210.661	69.8
210.879	-34.64
211.098	80.04
211.316	63.66
211.535	180.39
211.753	12.46
211.972	-3.93
212.191	-8.02
212.409	53.42
212.628	67.75
212.846	10.41
213.065	102.57
213.283	161.96
213.502	-24.4
213.72	110.76
213.938	75.95
214.157	-59.22
214.375	92.33
214.594	2.22
214.812	39.08
215.031	86.19
215.249	0.17
215.467	0.17
215.686	108.71
215.904	84.14
216.122	32.94
216.341	114.86
216.559	12.46
216.778	90.28
216.996	174.25
217.214	-38.74
217.432	-77.65
217.651	-81.75
217.869	59.56
218.087	43.18
218.306	-1.88
218.524	37.03
218.742	63.66
218.96	202.92
219.179	26.79
219.397	63.66
219.615	276.65
219.833	86.19
220.051	-102.23
220.27	77.99
220.488	55.47
220.706	45.23
220.924	-5.97
221.142	-12.12
221.36	45.23
221.578	139.43
221.796	-67.41
222.015	22.7
222.233	-14.17
222.451	94.38
222.669	-12.12
222.887	28.84
223.105	108.71
223.323	51.37
223.541	45.23
223.759	57.51
223.977	-14.17
224.195	227.5
224.413	73.9
224.631	14.51
224.849	84.14
225.067	250.02
225.285	-77.65
225.503	45.23
225.721	-57.17
225.939	-1.88
226.157	59.56
226.375	293.03
226.592	16.55
226.81	53.42
227.028	86.19
227.246	112.81
227.464	0.17
227.682	96.43
227.9	20.65
228.117	37.03
228.335	43.18
228.553	88.23
228.771	59.56
228.989	55.47
229.206	114.86
229.424	10.41
229.642	6.31
229.86	-36.69
230.077	143.53
230.295	30.89
230.513	92.33
230.731	69.8
230.948	80.04
231.166	180.39
231.384	32.94
231.601	-8.02
231.819	178.34
232.037	4.27
232.254	-61.27
232.472	-12.12
232.689	55.47
232.907	161.96
233.125	47.27
233.342	-26.45
233.56	2.22
233.777	37.03
233.995	37.03
234.213	71.85
234.43	100.52
234.648	32.94
234.865	26.79
235.083	2.22
235.3	57.51
235.518	65.71
235.735	73.9
235.953	37.03
236.17	82.09
236.388	37.03
236.605	84.14
236.822	26.79
237.04	67.75
237.257	84.14
237.475	-87.89
237.692	86.19
237.909	2.22
238.127	-69.46
238.344	47.27
238.562	26.79
238.779	-1.88
238.996	-38.74
239.214	51.37
239.431	110.76
239.648	14.51
239.865	94.38
240.083	41.13
240.3	2.22
240.517	121
240.735	71.85
240.952	102.57
241.169	30.89
241.386	61.61
241.603	16.55
241.821	-87.89
242.038	84.14
242.255	71.85
242.472	-12.12
242.689	55.47
242.907	59.56
243.124	24.75
243.341	18.6
243.558	22.7
243.775	4.27
243.992	-85.84
244.209	57.51
244.426	90.28
244.643	104.62
244.86	-28.5
245.078	28.84
245.295	39.08
245.512	53.42
245.729	69.8
245.946	59.56
246.163	30.89
246.38	-18.26
246.597	55.47
246.814	69.8
247.031	-10.07
247.248	53.42
247.464	71.85
247.681	-34.64
247.898	16.55
248.115	39.08
248.332	-16.21
248.549	153.77
248.766	118.95
248.983	37.03
249.2	149.67
249.417	41.13
249.633	-18.26
249.85	39.08
250.067	-1.88
250.284	82.09
250.501	143.53
250.717	82.09
250.934	6.31
251.151	4.27
251.368	55.47
251.585	71.85
251.801	43.18
252.018	-5.97
252.235	84.14
252.451	-28.5
252.668	22.7
252.885	108.71
253.102	51.37
253.318	-20.31
253.535	14.51
253.752	8.36
253.968	-46.93
254.185	-77.65
254.401	102.57
254.618	75.95
254.835	-8.02
255.051	116.9
255.268	104.62
255.484	12.46
255.701	2.22
255.917	18.6
256.134	10.41
256.351	45.23
256.567	-20.31
256.784	-3.93
257	-104.28
257.217	108.71
257.433	135.34
257.65	77.99
257.866	155.82
258.082	-85.84
258.299	-34.64
258.515	49.32
258.732	63.66
258.948	-75.6
259.165	-44.88
259.381	-63.32
259.597	61.61
259.814	6.31
260.03	26.79
260.246	-30.55
260.463	143.53
260.679	98.47
260.895	141.48
261.112	59.56
261.328	45.23
261.544	-1.88
261.761	61.61
261.977	-14.17
262.193	-42.84
262.409	69.8
262.626	-18.26
262.842	32.94
263.058	-22.36
263.274	114.86
263.49	94.38
263.707	45.23
263.923	77.99
264.139	-87.89
264.355	-1.88
264.571	182.44
264.787	49.32
265.004	67.75
265.22	-1.88
265.436	-3.93
265.652	-34.64
265.868	43.18
266.084	-48.98
266.3	2.22
266.516	-14.17
266.732	39.08
266.948	-12.12
267.164	32.94
267.38	108.71
267.596	45.23
267.812	174.25
268.028	14.51
268.244	59.56
268.46	37.03
268.676	-10.07
268.892	-28.5
269.108	-14.17
269.324	-46.93
269.54	30.89
269.756	51.37
269.972	-40.79
270.188	118.95
270.403	-46.93
270.619	71.85
270.835	57.51
271.051	47.27
271.267	8.36
271.483	6.31
271.698	157.86
271.914	71.85
272.13	139.43
272.346	2.22
272.562	96.43
272.777	159.91
272.993	0.17
273.209	0.17
273.425	57.51
273.64	-20.31
273.856	96.43
274.072	-26.45
274.287	18.6
274.503	77.99
274.719	53.42
274.934	-91.99
275.15	-28.5
275.366	12.46
275.581	-26.45
275.797	59.56
276.012	18.6
276.228	32.94
276.444	28.84
276.659	194.73
276.875	0.17
277.09	8.36
277.306	-26.45
277.521	114.86
277.737	49.32
277.952	47.27
278.168	-3.93
278.383	51.37
278.599	51.37
278.814	125.1
279.03	-34.64
279.245	96.43
279.461	102.57
279.676	127.14
279.892	-26.45
280.107	16.55
280.322	-5.97
280.538	16.55
280.753	-14.17
280.969	22.7
281.184	47.27
281.399	186.54
281.615	-8.02
281.83	67.75
282.045	-26.45
282.26	-8.02
282.476	77.99
282.691	80.04
282.906	20.65
283.122	43.18
283.337	22.7
283.552	18.6
283.767	-48.98
283.983	73.9
284.198	22.7
284.413	86.19
284.628	-73.56
284.843	47.27
285.058	153.77
285.274	39.08
285.489	-20.31
285.704	63.66
285.919	-3.93
286.134	-26.45
286.349	18.6
286.564	49.32
286.779	143.53
286.995	24.75
287.21	-44.88
287.425	106.67
287.64	34.99
287.855	53.42
288.07	-63.32
288.285	123.05
288.5	90.28
288.715	63.66
288.93	127.14
289.145	-18.26
289.36	82.09
289.575	22.7
289.79	110.76
290.004	-12.12
290.219	51.37
290.434	-63.32
290.649	2.22
290.864	51.37
291.079	-18.26
291.294	12.46
291.509	6.31
291.724	-18.26
291.938	41.13
292.153	63.66
292.368	43.18
292.583	45.23
292.798	80.04
293.012	47.27
293.227	24.75
293.442	-18.26
293.657	-32.6
293.871	39.08
294.086	57.51
294.301	129.19
294.516	121
294.73	6.31
294.945	-91.99
295.16	20.65
295.374	94.38
295.589	69.8
295.804	-32.6
296.018	80.04
296.233	190.63
296.447	43.18
296.662	-46.93
296.877	59.56
297.091	69.8
297.306	18.6
297.52	22.7
297.735	82.09
297.949	-16.21
298.164	18.6
298.378	22.7
298.593	-18.26
298.807	75.95
299.022	86.19
299.236	235.69
299.451	-55.12
299.665	-16.21
299.88	-65.36
300.094	90.28
300.309	-14.17
300.523	77.99
300.737	-10.07
300.952	67.75
301.166	34.99
301.381	24.75
301.595	12.46
301.809	84.14
302.024	-22.36
302.238	-12.12
302.452	51.37
302.667	77.99
302.881	149.67
303.095	94.38
303.309	18.6
303.524	30.89
303.738	47.27
303.952	-67.41
304.166	133.29
304.381	-159.57
304.595	125.1
304.809	-98.13
305.023	77.99
305.237	-26.45
305.452	-36.69
305.666	12.46
305.88	106.67
306.094	123.05
306.308	37.03
306.522	32.94
306.736	39.08
306.95	188.58
307.164	-55.12
307.379	43.18
307.593	170.15
307.807	100.52
308.021	55.47
308.235	24.75
308.449	-118.61
308.663	75.95
308.877	221.35
309.091	116.9
309.305	34.99
309.519	-61.27
309.733	118.95
309.947	-106.32
310.161	47.27
310.374	55.47
310.588	143.53
310.802	-16.21
311.016	18.6
311.23	18.6
311.444	-65.36
311.658	24.75
311.872	127.14
312.085	112.81
312.299	131.24
312.513	94.38
312.727	24.75
312.941	-51.03
313.154	10.41
313.368	34.99
313.582	20.65
313.796	100.52
314.009	20.65
314.223	129.19
314.437	71.85
314.651	73.9
314.864	-61.27
315.078	45.23
315.292	-14.17
315.505	73.9
315.719	147.62
315.933	104.62
316.146	22.7
316.36	-34.64
316.573	147.62
316.787	131.24
317.001	59.56
317.214	-106.32
317.428	45.23
317.641	-85.84
317.855	24.75
318.068	73.9
318.282	-53.08
318.495	114.86
318.709	84.14
318.922	-5.97
319.136	118.95
319.349	190.63
319.563	-26.45
319.776	112.81
319.99	-85.84
320.203	71.85
320.417	2.22
320.63	75.95
320.843	168.1
321.057	26.79
321.27	20.65
321.483	53.42
321.697	188.58
321.91	67.75
322.124	0.17
322.337	61.61
322.55	16.55
322.763	24.75
322.977	61.61
323.19	-42.84
323.403	4.27
323.617	51.37
323.83	84.14
324.043	114.86
324.256	22.7
324.469	-8.02
324.683	118.95
324.896	28.84
325.109	77.99
325.322	4.27
325.535	133.29
325.748	161.96
325.962	-59.22
326.175	59.56
326.388	49.32
326.601	61.61
326.814	57.51
327.027	12.46
327.24	135.34
327.453	4.27
327.666	123.05
327.879	77.99
328.092	61.61
328.305	39.08
328.518	-28.5
328.731	-59.22
328.944	-44.88
329.157	57.51
329.37	-5.97
329.583	164.01
329.796	129.19
330.009	-3.93
330.222	22.7
330.435	139.43
330.648	61.61
330.861	51.37
331.073	94.38
331.286	129.19
331.499	80.04
331.712	-26.45
331.925	-42.84
332.138	-3.93
332.35	127.14
332.563	20.65
332.776	108.71
332.989	-79.7
333.202	-8.02
333.414	-26.45
333.627	63.66
333.84	69.8
334.053	55.47
334.265	45.23
334.478	-85.84
334.691	-8.02
334.903	34.99
335.116	-10.07
335.329	4.27
335.541	59.56
335.754	108.71
335.966	10.41
336.179	14.51
336.392	-22.36
336.604	0.17
336.817	143.53
337.029	-8.02
337.242	-57.17
337.454	-10.07
337.667	-3.93
337.88	155.82
338.092	153.77
338.305	6.31
338.517	-36.69
338.729	59.56
338.942	204.97
339.154	-85.84
339.367	0.17
339.579	100.52
339.792	-65.36
340.004	121
340.217	16.55
340.429	47.27
340.641	18.6
340.854	4.27
341.066	108.71
341.278	155.82
341.491	170.15
341.703	47.27
341.915	-24.4
342.128	26.79
342.34	32.94
342.552	-55.12
342.764	30.89
342.977	-1.88
343.189	102.57
343.401	24.75
343.613	-16.21
343.826	22.7
344.038	-55.12
344.25	82.09
344.462	-12.12
344.674	55.47
344.886	-8.02
345.099	53.42
345.311	92.33
345.523	-1.88
345.735	8.36
345.947	65.71
346.159	88.23
346.371	65.71
346.583	-55.12
346.795	121
347.007	14.51
347.219	-3.93
347.431	-16.21
347.643	172.2
347.855	-12.12
348.067	94.38
348.279	-26.45
348.491	55.47
348.703	131.24
348.915	-3.93
349.127	-57.17
349.339	73.9
349.551	20.65
349.763	30.89
349.975	94.38
350.187	125.1
350.399	170.15
350.61	121
350.822	26.79
351.034	-36.69
351.246	59.56
351.458	77.99
351.669	96.43
351.881	47.27
352.093	137.38
352.305	73.9
352.517	73.9
352.728	141.48
352.94	8.36
353.152	65.71
353.363	-14.17
353.575	26.79
353.787	118.95
353.999	153.77
354.21	161.96
354.422	-24.4
354.633	47.27
354.845	57.51
355.057	86.19
355.268	39.08
355.48	69.8
355.692	41.13
355.903	47.27
356.115	-96.08
356.326	-130.9
356.538	141.48
356.749	102.57
356.961	121
357.172	75.95
357.384	-104.28
357.595	235.69
357.807	-46.93
358.018	16.55
358.23	71.85
358.441	186.54
358.653	168.1
358.864	-22.36
359.075	-55.12
359.287	55.47
359.498	57.51
359.709	112.81
359.921	14.51
360.132	22.7
360.344	104.62
360.555	-14.17
360.766	43.18
360.977	43.18
361.189	63.66
361.4	28.84
361.611	133.29
361.823	161.96
362.034	63.66
362.245	-59.22
362.456	-44.88
362.667	96.43
362.879	2.22
363.09	34.99
363.301	112.81
363.512	55.47
363.723	-55.12
363.935	-57.17
364.146	63.66
364.357	34.99
364.568	129.19
364.779	-85.84
364.99	80.04
365.201	-1.88
365.412	102.57
365.623	-22.36
365.834	-1.88
366.045	45.23
366.256	61.61
366.467	106.67
366.678	57.51
366.889	53.42
367.1	-10.07
367.311	123.05
367.522	-10.07
367.733	55.47
367.944	53.42
368.155	-46.93
368.366	131.24
368.577	92.33
368.788	77.99
368.999	49.32
369.209	84.14
369.42	209.06
369.631	176.3
369.842	63.66
370.053	-12.12
370.264	92.33
370.474	63.66
370.685	67.75
370.896	53.42
371.107	129.19
371.317	-16.21
371.528	-24.4
371.739	102.57
371.95	88.23
372.16	45.23
372.371	-42.84
372.582	-18.26
372.792	30.89
373.003	90.28
373.214	22.7
373.424	149.67
373.635	-118.61
373.846	164.01
374.056	57.51
374.267	4.27
374.477	65.71
374.688	63.66
374.898	133.29
375.109	92.33
375.319	61.61
375.53	96.43
375.74	121
375.951	12.46
376.161	145.58
376.372	145.58
376.582	51.37
376.793	53.42
377.003	24.75
377.214	45.23
377.424	84.14
377.635	61.61
377.845	51.37
378.055	209.06
378.266	-28.5
378.476	-3.93
378.686	90.28
378.897	145.58
379.107	37.03
379.317	37.03
379.528	-30.55
379.738	90.28
379.948	-1.88
380.158	82.09
380.369	34.99
380.579	24.75
380.789	47.27
380.999	61.61
381.21	94.38
381.42	215.21
381.63	34.99
381.84	164.01
382.05	116.9
382.261	123.05
382.471	121
382.681	-34.64
382.891	155.82
383.101	98.47
383.311	0.17
383.521	-16.21
383.731	131.24
383.941	90.28
384.151	32.94
384.361	-34.64
384.571	0.17
384.781	71.85
384.991	213.16
385.201	178.34
385.411	104.62
385.621	104.62
385.831	26.79
386.041	18.6
386.251	41.13
386.461	137.38
386.671	-30.55
386.881	104.62
387.091	49.32
387.301	86.19
387.511	61.61
387.72	67.75
387.93	71.85
388.14	-3.93
388.35	98.47
388.56	65.71
388.769	39.08
388.979	69.8
389.189	12.46
389.399	37.03
389.609	92.33
389.818	133.29
390.028	75.95
390.238	110.76
390.447	-32.6
390.657	49.32
390.867	12.46
391.076	-16.21
391.286	39.08
391.496	16.55
391.705	112.81
391.915	125.1
392.125	161.96
392.334	-24.4
392.544	157.86
392.753	-22.36
392.963	-85.84
393.172	22.7
393.382	-38.74
393.591	180.39
393.801	32.94
394.01	94.38
394.22	45.23
394.429	49.32
394.639	18.6
394.848	49.32
395.058	16.55
395.267	30.89
395.477	75.95
395.686	2.22
395.895	188.58
396.105	196.78
396.314	30.89
396.524	12.46
396.733	53.42
396.942	106.67
397.152	84.14
397.361	86.19
397.57	96.43
397.78	22.7
397.989	98.47
398.198	202.92
398.407	88.23
398.617	4.27
398.826	-5.97
399.035	-34.64
399.244	147.62
399.453	43.18
399.663	90.28
399.872	34.99
400.081	4.27
400.29	65.71
400.499	-71.51
400.708	75.95
400.917	49.32
401.127	69.8
401.336	-38.74
401.545	164.01
401.754	116.9
401.963	37.03
402.172	63.66
402.381	-87.89
402.59	51.37
402.799	16.55
403.008	125.1
403.217	-48.98
403.426	77.99
403.635	-8.02
403.844	100.52
404.053	32.94
404.262	24.75
404.471	184.49
404.68	88.23
404.888	84.14
405.097	-5.97
405.306	71.85
405.515	114.86
405.724	53.42
405.933	149.67
406.142	65.71
406.35	123.05
406.559	69.8
406.768	37.03
406.977	104.62
407.185	69.8
407.394	110.76
407.603	2.22
407.812	51.37
408.02	194.73
408.229	-44.88
408.438	30.89
408.646	-42.84
408.855	-46.93
409.064	61.61
409.272	0.17
409.481	102.57
409.69	-28.5
409.898	-30.55
410.107	123.05
410.315	96.43
410.524	-34.64
410.733	20.65
410.941	102.57
411.15	133.29
411.358	49.32
411.567	143.53
411.775	18.6
411.984	61.61
412.192	94.38
412.401	10.41
412.609	225.45
412.818	102.57
413.026	77.99
413.234	-51.03
413.443	8.36
413.651	-18.26
413.86	43.18
414.068	116.9
414.276	204.97
414.485	96.43
414.693	245.93
414.901	155.82
415.11	47.27
415.318	39.08
415.526	-30.55
415.734	106.67
415.943	108.71
416.151	118.95
416.359	61.61
416.567	10.41
416.776	116.9
416.984	75.95
417.192	192.68
417.4	26.79
417.608	-18.26
417.817	-10.07
418.025	73.9
418.233	137.38
418.441	-22.36
418.649	-46.93
418.857	135.34
419.065	164.01
419.273	-20.31
419.481	110.76
419.689	133.29
419.897	20.65
420.105	18.6
420.313	110.76
420.521	166.06
420.729	164.01
420.937	45.23
421.145	-77.65
421.353	100.52
421.561	180.39
421.769	51.37
421.977	-18.26
422.185	151.72
422.393	47.27
422.601	125.1
422.809	57.51
423.017	63.66
423.224	30.89
423.432	28.84
423.64	63.66
423.848	159.91
424.056	-1.88
424.263	114.86
424.471	71.85
424.679	143.53
424.887	-26.45
425.094	86.19
425.302	123.05
425.51	10.41
425.718	151.72
425.925	125.1
426.133	-8.02
426.341	229.54
426.548	2.22
426.756	108.71
426.964	155.82
427.171	69.8
427.379	49.32
427.586	71.85
427.794	121
428.001	133.29
428.209	168.1
428.417	215.21
428.624	4.27
428.832	157.86
429.039	147.62
429.247	100.52
429.454	88.23
429.662	209.06
429.869	176.3
430.076	153.77
430.284	147.62
430.491	223.4
430.699	194.73
430.906	155.82
431.114	92.33
431.321	166.06
431.528	147.62
431.736	108.71
431.943	129.19
432.15	159.91
432.358	239.78
432.565	209.06
432.772	-10.07
432.979	239.78
433.187	174.25
433.394	217.26
433.601	168.1
433.808	209.06
434.016	346.28
434.223	272.55
434.43	227.5
434.637	344.23
434.844	356.52
435.052	215.21
435.259	313.51
435.466	288.93
435.673	295.08
435.88	254.12
436.087	348.33
436.294	329.89
436.501	438.44
436.708	331.94
436.915	282.79
437.122	426.15
437.329	331.94
437.537	348.33
437.743	397.48
437.95	430.24
438.157	493.73
438.364	366.76
438.571	571.55
438.778	503.97
438.985	530.59
439.192	563.36
439.399	528.55
439.606	475.3
439.813	602.27
440.02	688.29
440.227	735.39
440.433	592.03
440.64	579.75
440.847	567.46
441.054	643.23
441.261	757.92
441.467	639.14
441.674	663.71
441.881	780.45
442.088	643.23
442.294	843.93
442.501	862.37
442.708	917.66
442.914	921.76
443.121	907.42
443.328	964.76
443.534	1054.87
443.741	1022.11
443.948	948.38
444.154	1093.79
444.361	1327.25
444.568	1108.12
444.774	1257.62
444.981	1079.45
445.187	1378.45
445.394	1314.97
445.6	1194.14
445.807	1427.6
446.013	1501.33
446.22	1429.65
446.426	1634.45
446.633	1675.41
446.839	1884.3
447.046	1542.29
447.252	1894.54
447.459	1943.69
447.665	1831.05
447.871	2191.5
448.078	2293.9
448.284	2275.46
448.491	2279.56
448.697	2343.05
448.903	2482.31
449.11	2496.64
449.316	2646.15
449.522	2658.43
449.728	2730.11
449.935	2814.08
450.141	2977.92
450.347	3188.86
450.553	3174.52
450.76	3123.32
450.966	3405.94
451.172	3444.85
451.378	3737.71
451.584	3516.53
451.791	3821.68
451.997	4020.33
452.203	4087.92
452.409	4251.75
452.615	4653.16
452.821	4393.06
453.027	4511.85
453.233	5126.24
453.44	4884.58
453.646	5118.04
453.852	5179.48
454.058	5550.17
454.264	5701.72
454.47	6029.39
454.676	6176.84
454.882	6690.88
455.088	6312.01
455.294	6637.64
455.5	7104.57
455.705	7702.58
455.911	7360.57
456.117	7667.77
456.323	8085.55
456.529	8058.93
456.735	8847.4
456.941	9084.96
457.147	9398.3
457.352	9457.69
457.558	9916.44
457.764	10416.14
457.97	10872.84
458.176	11282.43
458.381	11683.83
458.587	11905.01
458.793	12617.71
458.999	12529.64
459.204	13901.78
459.41	14501.84
459.616	14548.94
459.821	15493.05
460.027	16003
460.233	16752.56
460.438	16547.76
460.644	17737.63
460.85	17608.61
461.055	18380.69
461.261	19562.37
461.466	18851.72
461.672	19400.58
461.878	21729.12
462.083	21368.68
462.289	21878.62
462.494	22867.79
462.7	22865.74
462.905	23240.52
463.111	25028.4
463.316	26308.38
463.522	27059.98
463.727	27760.39
463.932	28755.7
464.138	29470.44
464.343	31028.95
464.549	30717.65
464.754	33111.73
464.959	34025.12
465.165	34516.64
465.37	34145.95
465.575	34109.09
465.781	36257.41
465.986	37932.65
466.191	37486.19
466.397	37449.33
466.602	36916.86
466.807	38710.88
467.012	39024.22
467.218	39982.66
467.423	40715.84
467.628	41197.11
467.833	43271.7
468.038	42645.02
468.244	41766.45
468.449	43898.38
468.654	43402.77
468.859	42772
469.064	42855.96
469.269	41682.48
469.474	42688.03
469.679	43183.64
469.885	42049.07
470.09	43169.3
470.295	42968.6
470.5	41969.19
470.705	41901.61
470.91	41434.67
471.115	40699.45
471.32	41268.79
471.525	40824.38
471.73	39575.12
471.935	39622.22
472.139	37693.04
472.344	38526.56
472.549	37942.89
472.754	37166.71
472.959	36456.06
473.164	35245.71
473.369	34533.02
473.574	35749.51
473.778	35016.34
473.983	34254.5
474.188	34037.41
474.393	32030.4
474.598	32034.5
474.802	31110.86
475.007	30938.83
475.212	31102.67
475.417	29556.46
475.621	28739.32
475.826	28851.95
476.031	28018.43
476.235	27555.59
476.44	27752.2
476.645	26877.71
476.849	26521.37
477.054	25976.61
477.259	25392.94
477.463	25610.02
477.668	24567.6
477.872	24678.19
478.077	24108.86
478.282	23588.67
478.486	23156.55
478.691	23097.16
478.895	22669.14
479.1	22519.64
479.304	22464.34
479.509	21550.95
479.713	21997.4
479.918	21446.5
480.122	20875.12
480.326	21022.57
480.531	21399.4
480.735	20772.72
480.94	20463.47
481.144	21147.5
481.348	20000.63
481.553	20309.88
481.757	19511.17
481.961	20021.11
482.166	20139.9
482.37	19601.28
482.574	19007.37
482.778	19214.21
482.983	19730.3
483.187	19136.39
483.391	18800.52
483.595	18495.38
483.8	18349.97
484.004	18593.68
484.208	18339.73
484.412	18202.52
484.616	17854.36
484.821	17745.82
485.025	17231.78
485.229	17606.56
485.433	16873.39
485.637	17045.41
485.841	16412.59
486.045	16353.2
486.249	16201.65
486.453	16015.29
486.657	15943.61
486.861	15646.65
487.065	15161.28
487.269	14837.7
487.473	14292.94
487.677	14520.27
487.881	14510.03
488.085	13916.12
488.289	13727.71
488.493	13553.63
488.697	13414.37
488.901	13381.6
489.105	13047.78
489.309	12689.39
489.512	12486.64
489.716	12474.35
489.92	11841.53
490.124	12046.32
490.328	11835.38
490.531	11395.07
490.735	11552.76
490.939	11046.91
491.143	11055.11
491.346	10633.22
491.55	10614.79
491.754	10471.43
491.958	10348.56
492.161	9818.13
492.365	9803.8
492.569	9750.55
492.772	9748.5
492.976	9463.83
493.18	9404.44
493.383	9334.81
493.587	9130.02
493.79	9224.22
493.994	8855.59
494.197	8642.6
494.401	8882.21
494.605	8585.26
494.808	8699.94
495.012	8484.91
495.215	8554.54
495.419	8484.91
495.622	8253.48
495.825	8237.1
496.029	8202.29
496.232	8364.08
496.436	8038.45
496.639	8357.93
496.843	7897.14
497.046	8101.94
497.249	8448.04
497.453	8249.39
497.656	8046.64
497.859	8126.51
498.063	8022.06
498.266	8396.84
498.469	8267.82
498.673	8126.51
498.876	8226.86
499.079	8368.17
499.282	8421.42
499.485	8822.82
499.689	8345.64
499.892	8566.82
500.095	8362.03
500.298	8603.69
500.501	8237.1
500.705	8802.34
500.908	8763.43
501.111	8966.18
501.314	9048.1
501.517	9076.77
501.72	9232.41
501.923	9029.66
502.126	9345.05
502.329	9594.9
502.532	9535.51
502.735	9658.39
502.938	9951.25
503.141	9990.16
503.344	10014.74
503.547	10133.52
503.75	10098.7
503.953	10244.11
504.156	10483.72
504.359	10643.46
504.562	10739.72
504.765	10878.98
504.968	11149.31
505.17	11249.66
505.373	11266.05
505.576	11438.08
505.779	11749.37
505.982	11872.25
506.185	12298.22
506.387	12324.85
506.59	12685.29
506.793	12783.59
506.996	13119.46
507.198	13457.37
507.401	13651.93
507.604	13762.52
507.807	13965.27
508.009	14391.25
508.212	14462.93
508.415	14907.34
508.617	15333.31
508.82	15570.88
509.022	15849.4
509.225	16304.05
509.428	16469.94
509.63	16484.27
509.833	16902.06
510.035	17751.96
510.238	17657.76
510.44	18007.96
510.643	18808.72
510.845	19316.61
511.048	19421.06
511.25	19888
511.453	19984.25
511.655	20928.36
511.858	21112.68
512.06	21794.65
512.262	22083.42
512.465	22359.89
512.667	23080.78
512.87	23752.51
513.072	24045.37
513.274	24686.39
513.477	25392.94
513.679	25954.08
513.881	26136.35
514.084	26969.87
514.286	27270.92
514.488	27987.71
514.69	29372.14
514.893	29544.17
515.095	29824.74
515.297	30508.76
515.499	31020.75
515.701	31551.18
515.904	32507.58
516.106	33205.94
516.308	33812.13
516.51	34543.26
516.712	34774.68
516.914	36114.05
517.116	36810.36
517.318	36943.48
517.52	37428.85
517.722	38088.29
517.925	39292.5
518.127	40060.49
518.329	40535.62
518.531	40578.62
518.733	41872.94
518.935	42647.07
519.136	42903.07
519.338	43480.6
519.54	44039.69
519.742	44807.68
519.944	45624.82
520.146	46841.31
520.348	47320.54
520.55	47252.95
520.752	47959.5
520.954	49067.45
521.155	49026.49
521.357	49982.9
521.559	50476.46
521.761	51326.36
521.963	51490.2
522.164	51649.94
522.366	52569.48
522.568	52534.67
522.77	53179.78
522.971	53826.93
523.173	53314.94
523.375	54152.56
523.576	53992.82
523.778	54238.58
523.98	55092.58
524.181	54629.74
524.383	54930.79
524.584	55733.59
524.786	55702.87
524.988	55164.26
525.189	56122.71
525.391	55944.53
525.592	55831.89
525.794	56274.26
525.995	55960.92
526.197	55561.56
526.398	55977.3
526.6	56022.36
526.801	55655.77
527.003	55573.85
527.204	55223.65
527.406	55424.35
527.607	54816.1
527.808	55328.09
528.01	53671.29
528.211	53898.61
528.412	54443.37
528.614	53659
528.815	53446.01
529.016	53273.98
529.218	52417.93
529.419	52280.72
529.62	51946.9
529.822	50908.58
530.023	50757.03
530.224	50730.4
530.425	49761.72
530.626	48813.51
530.828	48053.71
531.029	48987.58
531.23	47713.75
531.431	47611.35
531.632	47050.2
531.833	46421.48
532.035	45741.55
532.236	45348.34
532.437	44836.35
532.638	43841.04
532.839	43695.63
533.04	43515.41
533.241	42221.09
533.442	42763.81
533.643	41729.58
533.844	40562.24
534.045	40685.12
534.246	40052.3
534.447	39528.02
534.648	38833.75
534.849	38334.05
535.05	37707.37
535.251	37406.32
535.451	36744.83
535.652	36468.35
535.853	35782.28
536.054	35767.94
536.255	35081.88
536.456	34027.17
536.657	34285.22
536.857	33654.44
537.058	33158.83
537.259	32833.21
537.46	32296.64
537.66	31626.95
537.861	31819.46
538.062	31026.9
538.263	30605.02
538.463	30002.91
538.664	29798.12
538.865	29423.34
539.065	29064.94
539.266	28724.98
539.466	28716.79
539.667	27911.94
539.868	27934.46
540.068	27178.76
540.269	26973.97
540.469	26572.57
540.67	26537.75
540.87	26128.16
541.071	25880.35
541.271	25780
541.472	25151.27
541.672	24872.75
541.873	24407.86
542.073	24057.66
542.274	24194.87
542.474	23826.24
542.675	23168.84
542.875	23385.93
543.075	22581.07
543.276	22396.76
543.476	22460.24
543.676	22392.66
543.877	21995.36
544.077	21751.65
544.277	21538.66
544.478	20973.42
544.678	21034.86
544.878	20696.94
545.078	20533.11
545.279	20283.25
545.479	19955.58
545.679	19773.31
545.879	19746.69
546.079	19376
546.28	19046.28
546.48	18677.65
546.68	18802.57
546.88	18646.93
547.08	18227.09
547.28	18061.21
547.48	17719.2
547.68	17538.98
547.88	17295.27
548.081	17137.57
548.281	16719.79
548.481	16506.8
548.681	16635.82
548.881	16320.43
549.081	15935.42
549.28	15790.01
549.48	15704
549.68	15454.14
549.88	15452.09
550.08	14684.11
550.28	14647.24
550.48	14587.85
550.68	14460.88
550.88	14290.9
551.08	13998.04
551.279	14016.47
551.479	13502.43
551.679	13561.82
551.879	13170.66
552.079	12873.7
552.278	12789.74
552.478	12781.54
552.678	12406.77
552.878	12386.29
553.077	12163.06
553.277	11569.15
553.477	11939.83
553.676	11534.33
553.876	11341.82
554.076	11106.31
554.275	11081.73
554.475	10627.08
554.674	10774.53
554.874	10514.44
555.074	10223.63
555.273	10096.66
555.473	10125.33
555.672	10045.46
555.872	9527.32
556.071	9603.1
556.271	9549.85
556.47	9095.2
556.67	9052.19
556.869	8945.7
557.068	8726.57
557.268	8626.22
557.467	8341.55
557.667	8339.5
557.866	8179.76
558.065	8103.98
558.265	7977.01
558.464	7827.51
558.663	7761.97
558.863	7608.37
559.062	7635
559.261	7290.94
559.461	7295.04
559.66	6848.58
559.859	7045.18
560.058	6830.15
560.258	6713.41
560.457	6627.4
560.656	6830.15
560.855	6428.74
561.054	6463.56
561.253	6226
561.453	6307.91
561.652	6113.36
561.851	6125.65
562.05	5797.97
562.249	5709.91
562.448	5865.55
562.647	5449.82
562.846	5529.69
563.045	5511.25
563.244	5486.68
563.443	5300.31
563.642	5232.73
563.841	5070.94
564.04	5087.33
564.239	5029.98
564.438	4915.3
564.637	4702.31
564.836	4591.72
565.035	4569.19
565.234	4577.38
565.432	4503.65
565.631	4663.4
565.83	4620.39
566.029	4368.49
566.228	4298.86
566.427	4282.47
566.625	4112.49
566.824	4135.02
567.023	4024.43
567.222	3887.22
567.42	4006
567.619	3922.03
567.818	3721.33
568.016	3969.13
568.215	3694.71
568.414	3625.08
568.612	3625.08
568.811	3561.59
569.01	3506.29
569.208	3369.08
569.407	3475.57
569.605	3412.09
569.804	3207.29
570.002	3197.05
570.201	3197.05
570.4	3244.15
570.598	3059.84
570.797	3068.03
570.995	2941.05
571.193	2924.67
571.392	3016.83
571.59	2887.81
571.789	2855.04
571.987	2959.49
572.186	2865.28
572.384	2717.83
572.582	2703.49
572.781	2644.1
572.979	2564.23
573.177	2508.93
573.376	2480.26
573.574	2488.45
573.772	2416.77
573.971	2465.93
574.169	2371.72
574.367	2404.49
574.565	2265.22
574.763	2158.73
574.962	2191.5
575.16	2199.69
575.358	2121.87
575.556	2160.78
575.754	2168.97
575.952	2052.24
576.151	2078.86
576.349	2017.42
576.547	1869.97
576.745	1865.87
576.943	1720.46
577.141	1808.53
577.339	1742.99
577.537	1806.48
577.735	1777.81
577.933	1769.62
578.131	1683.6
578.329	1861.77
578.527	1755.28
578.725	1681.55
578.923	1566.87
579.121	1704.08
579.319	1460.37
579.516	1505.43
579.714	1681.55
579.912	1554.58
580.11	1497.24
580.308	1347.73
580.506	1376.41
580.704	1376.41
580.901	1380.5
581.099	1562.77
581.297	1304.73
581.495	1366.17
581.692	1278.1
581.89	1380.5
582.088	1228.95
582.285	1173.66
582.483	1247.38
582.681	1237.14
582.878	1179.8
583.076	1183.9
583.274	1169.56
583.471	1280.15
583.669	1181.85
583.866	1026.2
584.064	1028.25
584.262	1003.68
584.459	1054.87
584.657	1065.11
584.854	1067.16
585.052	1052.83
585.249	1032.35
585.447	993.44
585.644	850.08
585.841	1020.06
586.039	981.15
586.236	1032.35
586.434	944.28
586.631	862.37
586.828	901.28
587.026	923.8
587.223	739.49
587.42	811.17
587.618	880.8
587.815	952.48
588.012	895.13
588.21	786.59
588.407	858.27
588.604	874.65
588.801	837.79
588.999	811.17
589.196	905.37
589.393	798.88
589.59	723.1
589.787	739.49
589.984	762.02
590.182	747.68
590.379	741.54
590.576	749.73
590.773	805.02
590.97	639.14
591.167	827.55
591.364	733.34
591.561	659.62
591.758	751.78
591.955	811.17
592.152	706.72
592.349	628.9
592.546	739.49
592.743	612.51
592.94	716.96
593.137	741.54
593.334	700.58
593.531	743.58
593.727	743.58
593.924	682.14
594.121	739.49
594.318	635.04
594.515	759.97
594.712	848.03
594.908	805.02
595.105	639.14
595.302	782.49
595.499	819.36
595.696	882.85
595.892	825.5
596.089	880.8
596.286	807.07
596.482	772.25
596.679	862.37
596.876	764.06
597.072	1020.06
597.269	985.24
597.466	942.24
597.662	878.75
597.859	874.65
598.055	1065.11
598.252	1077.4
598.448	1147.03
598.645	1108.12
598.841	1181.85
599.038	1306.77
599.234	1347.73
599.431	1355.93
599.627	1351.83
599.824	1325.21
600.02	1448.08
600.217	1521.81
600.413	1605.78
600.609	1605.78
600.806	1876.11
601.002	1607.83
601.198	1730.7
601.395	1853.58
601.591	1943.69
601.787	1955.98
601.984	2072.72
602.18	2062.48
602.376	2189.45
602.572	2324.62
602.769	2547.84
602.965	2431.11
603.161	2615.43
603.357	2640
603.553	2838.66
603.75	2769.02
603.946	2930.81
604.142	3088.51
604.338	3233.91
604.534	3080.32
604.73	3278.97
604.926	3305.59
605.122	3633.27
605.318	3545.2
605.514	3960.94
605.71	3831.92
605.906	3997.81
606.102	4208.75
606.298	4376.68
606.494	4503.65
606.69	4552.81
606.886	4577.38
607.082	4620.39
607.278	4917.34
607.474	4860
607.67	5032.03
607.866	5240.92
608.062	5458.01
608.257	5533.78
608.453	5638.23
608.649	5761.11
608.845	5914.7
609.041	6084.69
609.236	6334.54
609.432	6465.61
609.628	6582.34
609.824	7069.76
610.019	7147.58
610.215	7213.12
610.411	7485.5
610.606	7708.73
610.802	7804.98
610.998	8167.47
611.193	8349.74
611.389	8515.62
611.584	8980.51
611.78	8910.88
611.976	9224.22
612.171	9486.36
612.367	9799.7
612.562	9920.53
612.758	10027.03
612.953	10326.03
613.149	10801.16
613.344	10860.55
613.539	11165.7
613.735	11755.51
613.93	11769.85
614.126	11948.02
614.321	12664.81
614.517	12816.36
614.712	13109.22
614.907	13465.57
615.103	13912.02
615.298	13793.24
615.493	14507.98
615.688	14665.67
615.884	15423.42
616.079	15740.86
616.274	16011.19
616.47	16396.21
616.665	16705.45
616.86	16945.06
617.055	17577.89
617.25	18034.58
617.445	18702.22
617.641	18730.89
617.836	19656.57
618.031	19392.39
618.226	20311.92
618.421	20615.02
618.616	21417.83
618.811	21477.22
619.006	22595.41
619.201	22724.43
619.396	23230.28
619.591	23295.82
619.786	23979.84
619.981	24594.23
620.176	25454.37
620.371	25274.15
620.566	26136.35
620.761	26738.45
620.956	27713.28
621.151	27662.08
621.346	28804.85
621.541	28739.32
621.735	29845.22
621.93	29613.8
622.125	30455.51
622.32	30813.91
622.515	31219.41
622.709	32245.44
622.904	32919.22
623.099	33126.07
623.294	33951.4
623.488	34148
623.683	35067.54
623.878	34852.5
624.072	36585.08
624.267	36615.8
624.462	36877.94
624.656	37080.69
624.851	38280.8
625.046	38946.39
625.24	39609.93
625.435	39456.34
625.629	40347.2
625.824	40758.84
626.018	41481.78
626.213	40658.49
626.407	42053.16
626.602	42135.08
626.796	43048.47
626.991	43286.04
627.185	43509.27
627.38	43666.96
627.574	44105.23
627.768	43800.08
627.963	44383.75
628.157	44422.66
628.352	44611.07
628.546	44209.67
628.74	44910.08
628.935	44135.95
629.129	44385.8
629.323	44074.51
629.517	44127.75
629.712	43656.72
629.906	43724.3
630.1	42724.89
630.294	43240.98
630.489	41803.31
630.683	41670.19
630.877	40742.46
631.071	40162.89
631.265	39525.97
631.459	38862.43
631.653	37733.99
631.848	36939.38
632.042	35886.73
632.236	35749.51
632.43	34272.93
632.624	33726.12
632.818	32540.35
633.012	31461.07
633.206	30703.32
633.4	29398.76
633.594	28362.49
633.788	27707.14
633.982	26414.87
634.176	26046.24
634.369	24497.97
634.563	23754.56
634.757	22632.27
634.951	21933.92
635.145	21323.62
635.339	20371.32
635.533	19337.09
635.726	18788.24
635.92	17944.47
636.114	17100.71
636.308	16353.2
636.501	16136.12
636.695	15142.85
636.889	14413.77
637.083	13920.21
637.276	13332.45
637.47	12711.91
637.664	12324.85
637.857	11771.9
638.051	11493.37
638.244	10774.53
638.438	10471.43
638.632	10221.58
638.825	9664.54
639.019	9326.62
639.212	8833.06
639.406	8579.11
639.599	8163.37
639.793	7911.47
639.986	7614.52
640.18	7559.22
640.373	7057.47
640.567	6729.8
640.76	6590.53
640.954	6359.11
641.147	5920.85
641.34	5646.42
641.534	5505.11
641.727	5466.2
641.92	5242.97
642.114	4956.26
642.307	4700.26
642.5	4632.68
642.694	4227.18
642.887	4188.27
643.08	4194.41
643.273	3965.04
643.467	3717.23
643.66	3473.53
643.853	3403.89
644.046	3364.98
644.239	3115.13
644.432	3086.46
644.626	2912.38
644.819	2728.07
645.012	2697.35
645.205	2611.33
645.398	2572.42
645.591	2437.25
645.784	2230.41
645.977	2238.6
646.17	2185.35
646.363	2076.81
646.556	1841.29
646.749	1933.45
646.942	1855.63
647.135	1865.87
647.328	1765.52
647.521	1620.11
647.714	1618.07
647.907	1636.5
648.099	1452.18
648.292	1466.52
648.485	1503.38
648.678	1276.06
648.871	1175.7
649.064	1360.02
649.256	1142.94
649.449	1087.64
649.642	1030.3
649.835	1075.35
650.027	981.15
650.22	1058.97
650.413	923.8
650.605	954.52
650.798	909.47
650.991	819.36
651.183	788.64
651.376	874.65
651.568	798.88
651.761	745.63
651.954	727.2
652.146	647.33
652.339	686.24
652.531	727.2
652.724	630.95
652.916	575.65
653.109	518.31
653.301	628.9
653.494	626.85
653.686	637.09
653.879	606.37
654.071	536.74
654.263	551.07
654.456	516.26
654.648	473.25
654.84	506.02
655.033	338.09
655.225	438.44
655.417	346.28
655.61	553.12
655.802	458.92
655.994	530.59
656.186	305.32
656.379	424.1
656.571	305.32
656.763	342.18
656.955	331.94
657.148	395.43
657.34	428.2
657.532	301.22
657.724	282.79
657.916	284.84
658.108	344.23
658.3	348.33
658.492	432.29
658.684	237.74
658.876	317.61
659.068	227.5
659.26	192.68
659.452	333.99
659.644	223.4
659.836	420
660.028	252.07
660.22	223.4
660.412	215.21
660.604	252.07
660.796	229.54
660.988	333.99
661.18	237.74
661.372	272.55
661.563	192.68
661.755	137.38
661.947	172.2
662.139	207.02
662.331	229.54
662.522	233.64
662.714	196.78
662.906	172.2
663.097	229.54
663.289	118.95
663.481	55.47
663.673	121
663.864	225.45
664.056	188.58
664.247	123.05
664.439	331.94
664.631	221.35
664.822	166.06
665.014	153.77
665.205	63.66
665.397	151.72
665.588	221.35
665.78	217.26
665.971	247.97
666.163	176.3
666.354	247.97
666.546	108.71
666.737	127.14
666.929	172.2
667.12	98.47
667.311	202.92
667.503	180.39
667.694	147.62
667.885	118.95
668.077	143.53
668.268	55.47
668.459	176.3
668.651	176.3
668.842	110.76
669.033	168.1
669.224	41.13
669.416	327.85
669.607	86.19
669.798	53.42
669.989	209.06
670.18	145.58
670.371	188.58
670.563	131.24
670.754	198.82
670.945	137.38
671.136	164.01
671.327	104.62
671.518	223.4
671.709	299.17
671.9	209.06
672.091	182.44
672.282	137.38
672.473	110.76
672.664	55.47
672.855	143.53
673.046	223.4
673.237	243.88
673.428	209.06
673.619	211.11
673.809	157.86
674	178.34
674.191	170.15
674.382	151.72
674.573	135.34
674.764	217.26
674.954	209.06
675.145	114.86
675.336	61.61
675.527	94.38
675.717	121
675.908	129.19
676.099	104.62
676.289	168.1
676.48	96.43
676.671	157.86
676.861	159.91
677.052	121
677.243	110.76
677.433	176.3
677.624	176.3
677.814	247.97
678.005	129.19
678.195	282.79
678.386	77.99
678.576	170.15
678.767	77.99
678.957	112.81
679.148	317.61
679.338	260.26
679.529	186.54
679.719	172.2
679.909	252.07
680.1	250.02
680.29	219.3
680.481	77.99
680.671	147.62
680.861	213.16
681.052	211.11
681.242	207.02
681.432	268.45
681.622	272.55
681.813	143.53
682.003	272.55
682.193	153.77
682.383	217.26
682.573	192.68
682.764	159.91
682.954	280.74
683.144	260.26
683.334	202.92
683.524	141.48
683.714	254.12
683.904	125.1
684.094	295.08
684.284	151.72
684.474	374.95
684.664	250.02
684.854	303.27
685.044	190.63
685.234	155.82
685.424	241.83
685.614	202.92
685.804	317.61
685.994	342.18
686.184	143.53
686.374	276.65
686.564	211.11
686.753	170.15
686.943	180.39
687.133	217.26
687.323	202.92
687.513	333.99
687.702	223.4
687.892	213.16
688.082	225.45
688.272	301.22
688.461	252.07
688.651	354.47
688.841	243.88
689.03	170.15
689.22	235.69
689.41	309.41
689.599	192.68
689.789	174.25
689.979	290.98
690.168	227.5
690.358	290.98
690.547	223.4
690.737	186.54
690.926	237.74
691.116	245.93
691.305	247.97
691.495	254.12
691.684	159.91
691.874	147.62
692.063	215.21
692.252	301.22
692.442	221.35
692.631	192.68
692.82	123.05
693.01	223.4
693.199	209.06
693.388	243.88
693.578	245.93
693.767	256.17
693.956	231.59
694.146	266.41
694.335	268.45
694.524	149.67
694.713	305.32
694.902	207.02
695.092	198.82
695.281	229.54
695.47	176.3
695.659	223.4
695.848	241.83
696.037	137.38
696.226	241.83
696.415	200.87
696.604	204.97
696.793	231.59
696.982	166.06
697.171	256.17
697.36	172.2
697.549	217.26
697.738	159.91
697.927	188.58
698.116	153.77
698.305	272.55
698.494	274.6
698.683	145.58
698.872	338.09
699.061	149.67
699.25	135.34
699.438	104.62
699.627	207.02
699.816	368.81
700.005	194.73
700.193	231.59
700.382	270.5
700.571	202.92
700.76	198.82
700.948	241.83
701.137	204.97
701.326	297.13
701.514	180.39
701.703	143.53
701.892	164.01
702.08	366.76
702.269	229.54
702.457	90.28
702.646	252.07
702.834	219.3
703.023	250.02
703.212	243.88
703.4	235.69
703.589	129.19
703.777	204.97
703.965	153.77
704.154	149.67
704.342	121
704.531	192.68
704.719	295.08
704.907	272.55
705.096	137.38
705.284	151.72
705.472	243.88
705.661	241.83
705.849	305.32
706.037	231.59
706.226	225.45
706.414	303.27
706.602	104.62
706.79	221.35
706.979	166.06
707.167	137.38
707.355	112.81
707.543	186.54
707.731	202.92
707.919	157.86
708.107	188.58
708.296	159.91
708.484	145.58
708.672	213.16
708.86	170.15
709.048	231.59
709.236	71.85
709.424	213.16
709.612	184.49
709.8	2.22
709.988	188.58
710.176	202.92
710.364	323.75
710.551	172.2
710.739	215.21
710.927	180.39
711.115	223.4
711.303	227.5
711.491	209.06
711.679	157.86
711.866	241.83
712.054	145.58
712.242	198.82
712.43	231.59
712.617	198.82
712.805	229.54
712.993	262.31
713.181	157.86
713.368	166.06
713.556	217.26
713.744	247.97
713.931	237.74
714.119	211.11
714.306	215.21
714.494	202.92
714.682	190.63
714.869	116.9
715.057	194.73
715.244	49.32
715.432	245.93
715.619	186.54
715.807	231.59
715.994	155.82
716.182	250.02
716.369	282.79
716.556	262.31
716.744	192.68
716.931	96.43
717.119	202.92
717.306	223.4
717.493	262.31
717.681	198.82
717.868	170.15
718.055	213.16
718.242	235.69
718.43	221.35
718.617	290.98
718.804	235.69
718.991	309.41
719.179	303.27
719.366	200.87
719.553	282.79
719.74	190.63
719.927	243.88
720.114	186.54
720.301	153.77
720.488	231.59
720.676	176.3
720.863	260.26
721.05	360.61
721.237	219.3
721.424	280.74
721.611	209.06
721.798	131.24
721.985	51.37
722.172	270.5
722.358	258.21
722.545	307.37
722.732	231.59
722.919	293.03
723.106	211.11
723.293	231.59
723.48	192.68
723.667	153.77
723.853	299.17
724.04	227.5
724.227	336.04
724.414	184.49
724.6	286.89
724.787	350.37
724.974	405.67
725.161	311.46
725.347	168.1
725.534	295.08
725.72	311.46
725.907	286.89
726.094	247.97
726.28	252.07
726.467	252.07
726.653	231.59
726.84	317.61
727.027	331.94
727.213	184.49
727.4	245.93
727.586	262.31
727.773	194.73
727.959	227.5
728.145	290.98
728.332	245.93
728.518	161.96
728.705	340.13
728.891	213.16
729.077	198.82
729.264	225.45
729.45	211.11
729.636	317.61
729.823	288.93
730.009	358.57
730.195	262.31
730.382	348.33
730.568	141.48
730.754	235.69
730.94	250.02
731.126	270.5
731.313	422.05
731.499	223.4
731.685	268.45
731.871	286.89
732.057	280.74
732.243	268.45
732.429	360.61
732.615	350.37
732.801	295.08
732.987	276.65
733.173	311.46
733.359	309.41
733.545	317.61
733.731	260.26
733.917	350.37
734.103	368.81
734.289	360.61
734.475	225.45
734.661	450.72
734.847	243.88
735.033	264.36
735.219	348.33
735.404	323.75
735.59	174.25
735.776	217.26
735.962	338.09
736.148	303.27
736.333	325.8
736.519	217.26
736.705	166.06
736.89	250.02
737.076	256.17
737.262	221.35
737.447	196.78
737.633	184.49
737.819	338.09
738.004	290.98
738.19	178.34
738.375	276.65
738.561	301.22
738.747	243.88
738.932	233.64
739.118	352.42
739.303	319.65
739.489	293.03
739.674	188.58
739.859	159.91
740.045	338.09
740.23	299.17
740.416	137.38
740.601	311.46
740.786	274.6
740.972	219.3
741.157	243.88
741.342	260.26
741.528	221.35
741.713	319.65
741.898	211.11
742.084	250.02
742.269	233.64
742.454	309.41
742.639	303.27
742.824	256.17
743.01	391.33
743.195	428.2
743.38	184.49
743.565	250.02
743.75	288.93
743.935	315.56
744.12	370.85
744.305	161.96
744.49	194.73
744.675	258.21
744.86	178.34
745.045	321.7
745.23	274.6
745.415	342.18
745.6	370.85
745.785	258.21
745.97	288.93
746.155	262.31
746.34	309.41
746.525	219.3
746.71	284.84
746.895	204.97
747.079	141.48
747.264	250.02
747.449	278.69
747.634	311.46
747.819	239.78
748.003	194.73
748.188	172.2
748.373	342.18
748.557	272.55
748.742	219.3
748.927	250.02
749.111	278.69
749.296	247.97
749.481	278.69
749.665	252.07
749.85	250.02
750.034	192.68
750.219	194.73
750.404	157.86
750.588	227.5
750.773	153.77
750.957	301.22
751.141	241.83
751.326	190.63
751.51	147.62
751.695	207.02
751.879	108.71
752.064	321.7
752.248	209.06
752.432	293.03
752.617	252.07
752.801	329.89
752.985	147.62
753.17	313.51
753.354	170.15
753.538	235.69
753.722	178.34
753.907	135.34
754.091	161.96
754.275	293.03
754.459	180.39
754.643	182.44
754.828	192.68
755.012	219.3
755.196	32.94
755.38	161.96
755.564	114.86
755.748	170.15
755.932	182.44
756.116	196.78
756.3	211.11
756.484	153.77
756.668	262.31
756.852	32.94
757.036	71.85
757.22	192.68
757.404	94.38
757.588	110.76
757.772	270.5
757.956	141.48
758.14	282.79
758.323	145.58
758.507	184.49
758.691	159.91
758.875	182.44
759.059	245.93
759.242	71.85
759.426	147.62
759.61	118.95
759.794	16.55
759.977	307.37
760.161	342.18
760.345	284.84
760.528	125.1
760.712	194.73
760.895	155.82
761.079	127.14
761.263	172.2
761.446	-10.07
761.63	129.19
761.813	159.91
761.997	92.33
762.18	53.42
762.364	153.77
762.547	32.94
762.731	100.52
762.914	45.23
763.098	59.56
763.281	116.9
763.464	47.27
763.648	114.86
763.831	112.81
764.015	102.57
764.198	200.87
764.381	24.75
764.564	178.34
764.748	100.52
764.931	129.19
765.114	45.23
765.297	243.88
765.481	67.75
765.664	47.27
765.847	176.3
766.03	118.95
766.213	47.27
766.397	118.95
766.58	32.94
766.763	164.01
766.946	57.51
767.129	112.81
767.312	63.66
767.495	155.82
767.678	45.23
767.861	178.34
768.044	127.14
768.227	32.94
768.41	84.14
768.593	96.43
768.776	102.57
768.959	80.04
769.142	98.47
769.324	75.95
769.507	80.04
769.69	82.09
769.873	65.71
770.056	311.46
770.239	112.81
770.421	176.3
770.604	118.95
770.787	6.31
770.97	106.67
771.152	43.18
771.335	114.86
771.518	12.46
771.7	211.11
771.883	213.16
772.066	12.46
772.248	209.06
772.431	108.71
772.613	172.2
772.796	123.05
772.978	69.8
773.161	137.38
773.343	71.85
773.526	75.95
773.708	-53.08
773.891	18.6
774.073	131.24
774.256	34.99
774.438	192.68
774.621	121
774.803	63.66
774.985	47.27
775.168	90.28
775.35	43.18
775.532	88.23
775.715	-16.21
775.897	127.14
776.079	39.08
776.261	88.23
776.444	-1.88
776.626	94.38
776.808	77.99
776.99	-24.4
777.173	125.1
777.355	88.23
777.537	41.13
777.719	86.19
777.901	8.36
778.083	22.7
778.265	-79.7
778.447	-32.6
778.629	0.17
778.811	118.95
778.993	20.65
779.175	149.67
779.357	90.28
779.539	-16.21
779.721	90.28
779.903	106.67
780.085	8.36
780.267	67.75
780.449	8.36
780.631	151.72
780.812	159.91
780.994	12.46
781.176	4.27
781.358	-51.03
781.54	49.32
781.721	96.43
781.903	71.85
782.085	-16.21
782.267	127.14
782.448	-71.51
782.63	14.51
782.812	14.51
782.993	108.71
783.175	102.57
783.357	67.75
783.538	118.95
783.72	-18.26
783.901	84.14
784.083	82.09
784.264	84.14
784.446	-102.23
784.627	-48.98
784.809	98.47
784.99	37.03
785.172	137.38
785.353	-1.88
785.535	135.34
785.716	-48.98
785.897	32.94
786.079	71.85
786.26	59.56
786.441	71.85
786.623	-71.51
786.804	-53.08
786.985	108.71
787.167	39.08
787.348	80.04
787.529	88.23
787.71	180.39
787.891	8.36
788.073	16.55
788.254	-135
788.435	55.47
788.616	39.08
788.797	-34.64
788.978	43.18
789.159	-69.46
789.34	37.03
789.522	77.99
789.703	-14.17
789.884	69.8
790.065	80.04
790.246	190.63
790.427	24.75
790.607	164.01
790.788	104.62
790.969	-38.74
791.15	10.41
791.331	24.75
791.512	-22.36
791.693	-51.03
791.874	-26.45
792.054	164.01
792.235	94.38
792.416	-61.27
792.597	-44.88
792.778	108.71
792.958	26.79
793.139	22.7
793.32	55.47
793.5	18.6
793.681	110.76
793.862	71.85
794.042	-16.21
794.223	-110.42
794.404	-16.21
794.584	-75.6
794.765	69.8
794.945	45.23
795.126	69.8
795.306	106.67
795.487	14.51
795.667	-1.88
795.848	-10.07
796.028	0.17
796.209	55.47
796.389	41.13
796.57	14.51
796.75	-100.18
796.93	8.36
797.111	-38.74
797.291	39.08
797.471	34.99
797.652	4.27
797.832	-20.31
798.012	118.95
798.192	-38.74
798.373	-89.94
798.553	53.42
798.733	73.9
798.913	8.36
799.093	-3.93
799.274	28.84
799.454	39.08
799.634	-5.97
799.814	22.7
799.994	123.05
800.174	55.47
800.354	34.99
800.534	-116.56
800.714	14.51
800.894	-83.8
801.074	-63.32
801.254	-10.07
801.434	20.65
801.614	14.51
801.794	0.17
801.974	1765.52
802.154	-46.93
802.334	69.8
802.514	28.84
802.693	18.6
802.873	-16.21
803.053	84.14
803.233	75.95
803.413	59.56
803.592	-61.27
803.772	-36.69
803.952	10.41
804.131	-46.93
804.311	2.22
804.491	77.99
804.67	-32.6
804.85	-63.32
805.03	10.41
805.209	73.9
805.389	-77.65
805.568	-34.64
805.748	22.7
805.928	-28.5
806.107	34.99
806.287	71.85
806.466	112.81
806.646	16.55
806.825	24.75
807.004	-75.6
807.184	108.71
807.363	90.28
807.543	14.51
807.722	18.6
807.901	112.81
808.081	2.22
808.26	-126.8
808.439	53.42
808.619	-16.21
808.798	-65.36
808.977	14.51
809.156	2.22
809.336	20.65
809.515	2.22
809.694	-71.51
809.873	59.56
810.052	43.18
810.231	108.71
810.411	22.7
810.59	65.71
810.769	41.13
810.948	75.95
811.127	-192.34
811.306	-59.22
811.485	-75.6
811.664	123.05
811.843	-69.46
812.022	4.27
812.201	4.27
812.38	-112.47
812.559	-51.03
812.737	141.48
812.916	-116.56
813.095	-46.93
813.274	-14.17
813.453	6.31
813.632	51.37
813.811	82.09
813.989	-147.28
814.168	20.65
814.347	-124.76
814.526	-40.79
814.704	61.61
814.883	161.96
815.062	-32.6
815.24	116.9
815.419	-16.21
815.598	55.47
815.776	-57.17
815.955	-61.27
816.133	-14.17
816.312	65.71
816.49	-48.98
816.669	-51.03
816.847	12.46
817.026	51.37
817.204	-53.08
817.383	26.79
817.561	-42.84
817.74	-44.88
817.918	73.9
818.097	-18.26
818.275	16.55
818.453	-18.26
818.632	-5.97
818.81	-30.55
818.988	-51.03
819.167	-18.26
819.345	-40.79
819.523	14.51
819.701	10.41
819.879	86.19
820.058	-59.22
820.236	32.94
820.414	-18.26
820.592	-98.13
820.77	-28.5
820.948	-57.17
821.127	0.17
821.305	37.03
821.483	-22.36
821.661	39.08
821.839	-79.7
822.017	-57.17
822.195	-40.79
822.373	8.36
822.551	2.22
822.729	43.18
822.907	-55.12
823.085	73.9
823.262	65.71
823.44	-1.88
823.618	-46.93
823.796	-69.46
823.974	-48.98
824.152	-38.74
824.329	8.36
824.507	4.27
824.685	41.13
824.863	-12.12
825.04	2.22
825.218	8.36
825.396	6.31
825.574	22.7
825.751	6.31
825.929	16.55
826.107	-98.13
826.284	-40.79
826.462	139.43
826.639	18.6
826.817	-112.47
826.994	-20.31
827.172	-48.98
827.349	84.14
827.527	0.17
827.704	-36.69
827.882	41.13
828.059	34.99
828.237	10.41
828.414	-10.07
828.591	-98.13
828.769	10.41
828.946	-44.88
829.124	6.31
829.301	71.85
829.478	-63.32
829.655	-32.6
829.833	0.17
830.01	-30.55
830.187	4.27
830.364	-1.88
830.542	-32.6
830.719	92.33
830.896	71.85
831.073	43.18
831.25	37.03
831.427	43.18
831.604	8.36
831.782	-106.32
831.959	18.6
832.136	-65.36
832.313	8.36
832.49	28.84
832.667	-51.03
832.844	-46.93
833.021	65.71
833.198	8.36
833.374	14.51
833.551	45.23
833.728	-38.74
833.905	43.18
834.082	-114.52
834.259	0.17
834.436	88.23
834.612	-118.61
834.789	30.89
834.966	8.36
835.143	-16.21
835.319	-67.41
835.496	90.28
835.673	8.36
835.85	73.9
836.026	20.65
836.203	110.76
836.38	-69.46
836.556	18.6
836.733	-20.31
836.909	121
837.086	-12.12
837.262	-153.43
837.439	10.41
837.616	-34.64
837.792	-69.46
837.968	41.13
838.145	-81.75
838.321	16.55
838.498	30.89
838.674	6.31
838.851	-30.55
839.027	-48.98
839.203	-36.69
839.38	-26.45
839.556	-73.56
839.732	26.79
839.909	-18.26
840.085	86.19
840.261	-26.45
840.437	14.51
840.614	-102.23
840.79	131.24
840.966	110.76
841.142	6.31
841.318	-69.46
841.494	-1.88
841.671	75.95
841.847	-30.55
842.023	-85.84
842.199	26.79
842.375	39.08
842.551	-159.57
842.727	-77.65
842.903	88.23
843.079	-116.56
843.255	75.95
843.431	-5.97
843.607	77.99
843.783	-153.43
843.959	82.09
844.134	-44.88
844.31	102.57
844.486	6.31
844.662	-87.89
844.838	-20.31
845.013	6.31
845.189	65.71
845.365	18.6
845.541	-5.97
845.716	57.51
845.892	86.19
846.068	-102.23
846.244	-20.31
846.419	37.03
846.595	10.41
846.77	-75.6
846.946	26.79
847.122	-59.22
847.297	30.89
847.473	161.96
847.648	-59.22
847.824	-34.64
847.999	-137.04
848.175	-18.26
848.35	20.65
848.526	18.6
848.701	108.71
848.876	104.62
849.052	49.32
849.227	-14.17
849.403	39.08
849.578	41.13
849.753	-16.21
849.929	26.79
850.104	-79.7
850.279	45.23
850.454	-22.36
850.63	69.8
850.805	16.55
850.98	37.03
851.155	0.17
851.33	28.84
851.505	-77.65
851.681	92.33
851.856	-40.79
852.031	28.84
852.206	57.51
852.381	-118.61
852.556	-87.89
852.731	-34.64
852.906	28.84
853.081	32.94
853.256	53.42
853.431	-30.55
853.606	-44.88
853.781	-30.55
853.956	-169.81
854.131	88.23
854.305	-100.18
854.48	-32.6
854.655	-44.88
854.83	-126.8
855.005	14.51
855.18	88.23
855.354	-71.51
855.529	86.19
855.704	24.75
855.879	-8.02
856.053	6.31
856.228	-28.5
856.403	-59.22
856.577	14.51
856.752	-83.8
856.926	-42.84
857.101	-48.98
857.276	-118.61
857.45	-30.55
857.625	18.6
857.799	49.32
857.974	-36.69
858.148	-83.8
858.323	22.7
858.497	-40.79
858.672	-89.94
858.846	-89.94
859.02	63.66
859.195	-79.7
859.369	45.23
859.543	26.79
859.718	16.55
859.892	2.22
860.066	22.7
860.241	-79.7
860.415	-130.9
860.589	-48.98
860.763	-63.32
860.938	12.46
861.112	92.33
861.286	0.17
861.46	-18.26
861.634	-81.75
861.808	-16.21
861.982	-77.65
862.157	-120.66
862.331	-102.23
862.505	-116.56
862.679	-75.6
862.853	-36.69
863.027	-34.64
863.201	77.99
863.375	-85.84
863.549	-61.27
863.722	37.03
863.896	67.75
864.07	-102.23
864.244	-18.26
864.418	82.09
864.592	18.6
864.766	4.27
864.939	24.75
865.113	-141.14
865.287	-53.08
865.461	-85.84
865.634	6.31
865.808	-67.41
865.982	-3.93
866.156	-77.65
866.329	-38.74
866.503	-48.98
866.676	53.42
866.85	6.31
867.024	-34.64
867.197	32.94
867.371	39.08
867.544	108.71
867.718	-112.47
867.891	100.52
868.065	-147.28
868.238	20.65
868.412	41.13
868.585	-20.31
868.759	-59.22
868.932	-77.65
869.105	-96.08
869.279	-38.74
869.452	-96.08
869.625	16.55
869.799	-36.69
869.972	-89.94
870.145	-10.07
870.319	90.28
870.492	-16.21
870.665	-16.21
870.838	-114.52
871.011	-110.42
871.185	-30.55
871.358	-18.26
871.531	82.09
871.704	-79.7
871.877	-3.93
872.05	-120.66
872.223	-48.98
872.396	94.38
872.569	80.04
872.742	-89.94
872.915	-18.26
873.088	-22.36
873.261	-61.27
873.434	71.85
873.607	-46.93
873.78	34.99
873.953	-42.84
874.126	24.75
874.299	55.47
874.471	-1.88
874.644	-51.03
874.817	41.13
874.99	118.95
875.163	-24.4
875.335	-8.02
875.508	-10.07
875.681	53.42
875.853	-71.51
876.026	63.66
876.199	8.36
876.371	24.75
876.544	22.7
876.717	-36.69
876.889	-53.08
877.062	39.08
877.234	-102.23
877.407	4.27
877.579	-67.41
877.752	71.85
877.924	57.51
878.097	-26.45
878.269	-40.79
878.442	80.04
878.614	61.61
878.786	51.37
878.959	-10.07
879.131	16.55
879.303	-137.04
879.476	26.79
879.648	141.48
879.82	22.7
879.993	-83.8
880.165	-40.79
880.337	-141.14
880.509	39.08
880.681	-38.74
880.854	-28.5
881.026	16.55
881.198	151.72
881.37	-61.27
881.542	-46.93
881.714	-1.88
881.886	-59.22
882.058	-1.88
882.23	16.55
882.402	-34.64
882.574	-36.69
882.746	-1.88
882.918	88.23
883.09	-1.88
883.262	-30.55
883.434	12.46
883.606	-194.39
883.778	-38.74
883.95	55.47
884.122	37.03
884.293	6.31
884.465	43.18
884.637	73.9
884.809	-44.88
884.98	28.84
885.152	-24.4
885.324	127.14
885.496	-40.79
885.667	-87.89
885.839	0.17
886.011	118.95
886.182	63.66
886.354	-40.79
886.525	-3.93
886.697	34.99
886.869	-87.89
887.04	-110.42
887.212	170.15
887.383	86.19
887.555	-24.4
887.726	-51.03
887.897	-71.51
888.069	12.46
888.24	55.47
888.412	-1.88
888.583	-32.6
888.754	-98.13
888.926	-75.6
889.097	-30.55
889.268	-79.7
889.44	-65.36
889.611	-5.97
889.782	-61.27
889.953	-169.81
890.125	18.6
890.296	-44.88
890.467	-59.22
890.638	-67.41
890.809	-85.84
890.98	-94.04
891.151	-48.98
891.323	12.46
891.494	-26.45
891.665	12.46
891.836	-5.97
892.007	2.22
892.178	-42.84
892.349	-61.27
892.52	-100.18
892.691	-5.97
892.862	-71.51
893.032	-118.61
893.203	-79.7
893.374	-73.56
893.545	77.99
893.716	-104.28
893.887	-67.41
894.057	-77.65
894.228	-40.79
894.399	-87.89
894.57	37.03
894.74	-8.02
894.911	-5.97
895.082	-14.17
895.253	-102.23
895.423	30.89
895.594	39.08
895.764	14.51
895.935	-167.76
896.106	-8.02
896.276	-112.47
896.447	-12.12
896.617	-44.88
896.788	-110.42
896.958	10.41
897.129	-44.88
897.299	-83.8
897.47	133.29
897.64	-14.17
897.81	-71.51
897.981	12.46
898.151	-55.12
898.322	-44.88
898.492	-30.55
898.662	-67.41
898.832	-20.31
899.003	-67.41
899.173	45.23
899.343	-3.93
899.513	-28.5
