Data from USB4F104151__214__11-05-51-328.txt Node

Date: Wed Feb 26 11:05:51 EST 2025
User: louis
Spectrometer: USB4F10415
Trigger mode: 4
Integration Time (sec): 1.000000E-1
Scans to average: 1
Electric dark correction enabled: true
Nonlinearity correction enabled: false
Boxcar width: 0
XAxis mode: Wavelengths
Number of Pixels in Spectrum: 3648
>>>>>Begin Spectral Data<<<<<
178.204	-360.61
178.424	-360.61
178.644	-360.61
178.864	-374.95
179.084	-401.57
179.304	-10.41
179.524	24.4
179.744	-10.41
179.964	20.31
180.184	126.8
180.404	30.55
180.624	-71.85
180.844	-2.22
181.064	-65.71
181.283	-8.36
181.503	-80.04
181.723	46.93
181.943	-55.47
182.163	212.82
182.383	1.88
182.602	40.79
182.822	137.04
183.042	46.93
183.262	-41.13
183.482	-14.51
183.701	16.21
183.921	22.36
184.141	-30.89
184.361	12.12
184.58	100.18
184.8	59.22
185.02	14.17
185.239	81.75
185.459	106.32
185.679	87.89
185.898	-82.09
186.118	-16.55
186.338	-2.22
186.557	79.7
186.777	5.97
186.997	51.03
187.216	12.12
187.436	276.31
187.655	32.6
187.875	128.85
188.095	67.41
188.314	192.34
188.534	110.42
188.753	-88.23
188.973	89.94
189.192	169.81
189.412	-4.27
189.631	34.64
189.851	63.32
190.07	143.19
190.29	-43.18
190.509	-37.03
190.729	34.64
190.948	196.43
191.168	241.49
191.387	57.17
191.607	5.97
191.826	104.28
192.045	24.4
192.265	-12.46
192.484	75.6
192.704	87.89
192.923	-127.14
193.142	143.19
193.362	55.12
193.581	180.05
193.8	16.21
194.02	18.26
194.239	10.07
194.458	149.33
194.678	42.84
194.897	-41.13
195.116	124.76
195.335	36.69
195.555	20.31
195.774	32.6
195.993	108.37
196.212	-37.03
196.432	-24.75
196.651	-55.47
196.87	1.88
197.089	173.91
197.308	42.84
197.528	5.97
197.747	-55.47
197.966	44.88
198.185	106.32
198.404	12.12
198.623	161.62
198.842	102.23
199.062	137.04
199.281	112.47
199.5	22.36
199.719	20.31
199.938	46.93
200.157	46.93
200.376	128.85
200.595	118.61
200.814	34.64
201.033	-18.6
201.252	155.47
201.471	77.65
201.69	51.03
201.909	32.6
202.128	55.12
202.347	135
202.566	-8.36
202.785	-63.66
203.004	30.55
203.223	194.39
203.442	81.75
203.661	-53.42
203.879	108.37
204.098	165.71
204.317	18.26
204.536	87.89
204.755	159.57
204.974	106.32
205.193	-22.7
205.411	153.43
205.63	79.7
205.849	44.88
206.068	-12.46
206.287	-59.56
206.505	69.46
206.724	30.55
206.943	-71.85
207.162	55.12
207.381	100.18
207.599	-14.51
207.818	42.84
208.037	-26.79
208.255	85.84
208.474	157.52
208.693	77.65
208.911	69.46
209.13	83.8
209.349	46.93
209.567	73.56
209.786	-8.36
210.005	42.84
210.223	28.5
210.442	-133.29
210.661	1.88
210.879	18.26
211.098	-10.41
211.316	-10.41
211.535	81.75
211.753	81.75
211.972	73.56
212.191	-26.79
212.409	-59.56
212.628	34.64
212.846	63.32
213.065	38.74
213.283	98.13
213.502	40.79
213.72	-12.46
213.938	-18.6
214.157	-0.17
214.375	79.7
214.594	1.88
214.812	26.45
215.031	36.69
215.249	44.88
215.467	20.31
215.686	57.17
215.904	118.61
216.122	44.88
216.341	128.85
216.559	-28.84
216.778	120.66
216.996	108.37
217.214	98.13
217.432	48.98
217.651	-88.23
217.869	73.56
218.087	28.5
218.306	18.26
218.524	69.46
218.742	20.31
218.96	34.64
219.179	38.74
219.397	-12.46
219.615	292.69
219.833	24.4
220.051	-8.36
220.27	22.36
220.488	20.31
220.706	63.32
220.924	-59.56
221.142	-18.6
221.36	75.6
221.578	42.84
221.796	-2.22
222.015	61.27
222.233	-26.79
222.451	85.84
222.669	-0.17
222.887	128.85
223.105	-59.56
223.323	55.12
223.541	-51.37
223.759	85.84
223.977	44.88
224.195	229.2
224.413	124.76
224.631	-0.17
224.849	81.75
225.067	204.63
225.285	32.6
225.503	-55.47
225.721	-77.99
225.939	-18.6
226.157	20.31
226.375	194.39
226.592	-41.13
226.81	3.93
227.028	87.89
227.246	175.95
227.464	22.36
227.682	63.32
227.9	63.32
228.117	75.6
228.335	94.04
228.553	10.07
228.771	-61.61
228.989	59.22
229.206	63.32
229.424	-28.84
229.642	-80.04
229.86	-98.47
230.077	161.62
230.295	42.84
230.513	63.32
230.731	165.71
230.948	147.28
231.166	116.56
231.384	-10.41
231.601	-28.84
231.819	184.15
232.037	51.03
232.254	-43.18
232.472	-45.23
232.689	-10.41
232.907	141.14
233.125	67.41
233.342	-41.13
233.56	26.45
233.777	3.93
233.995	63.32
234.213	81.75
234.43	91.99
234.648	14.17
234.865	-8.36
235.083	112.47
235.3	106.32
235.518	36.69
235.735	100.18
235.953	57.17
236.17	8.02
236.388	-61.61
236.605	32.6
236.822	40.79
237.04	77.65
237.257	-0.17
237.475	-49.32
237.692	112.47
237.909	67.41
238.127	16.21
238.344	155.47
238.562	96.08
238.779	-28.84
238.996	-34.99
239.214	-22.7
239.431	-16.55
239.648	38.74
239.865	122.71
240.083	124.76
240.3	-43.18
240.517	3.93
240.735	-32.94
240.952	137.04
241.169	135
241.386	24.4
241.603	36.69
241.821	-34.99
242.038	51.03
242.255	67.41
242.472	-51.37
242.689	96.08
242.907	114.52
243.124	36.69
243.341	32.6
243.558	-22.7
243.775	-20.65
243.992	-59.56
244.209	116.56
244.426	126.8
244.643	24.4
244.86	-16.55
245.078	57.17
245.295	26.45
245.512	-24.75
245.729	14.17
245.946	22.36
246.163	44.88
246.38	26.45
246.597	53.08
246.814	73.56
247.031	32.6
247.248	46.93
247.464	42.84
247.681	44.88
247.898	94.04
248.115	-0.17
248.332	48.98
248.549	212.82
248.766	210.77
248.983	69.46
249.2	32.6
249.417	100.18
249.633	-8.36
249.85	79.7
250.067	59.22
250.284	-4.27
250.501	108.37
250.717	71.51
250.934	3.93
251.151	-12.46
251.368	-6.31
251.585	112.47
251.801	-8.36
252.018	-20.65
252.235	46.93
252.451	-65.71
252.668	-51.37
252.885	126.8
253.102	42.84
253.318	-18.6
253.535	44.88
253.752	-34.99
253.968	8.02
254.185	-57.51
254.401	112.47
254.618	135
254.835	-37.03
255.051	71.51
255.268	83.8
255.484	3.93
255.701	28.5
255.917	75.6
256.134	-10.41
256.351	26.45
256.567	-61.61
256.784	12.12
257	-104.62
257.217	94.04
257.433	83.8
257.65	63.32
257.866	139.09
258.082	-24.75
258.299	-39.08
258.515	36.69
258.732	-0.17
258.948	51.03
259.165	73.56
259.381	-49.32
259.597	20.31
259.814	-30.89
260.03	1.88
260.246	32.6
260.463	85.84
260.679	130.9
260.895	30.55
261.112	-8.36
261.328	-41.13
261.544	-24.75
261.761	137.04
261.977	-4.27
262.193	-30.89
262.409	83.8
262.626	12.12
262.842	-26.79
263.058	1.88
263.274	71.51
263.49	16.21
263.707	69.46
263.923	38.74
264.139	-51.37
264.355	22.36
264.571	124.76
264.787	114.52
265.004	106.32
265.22	32.6
265.436	-69.8
265.652	48.98
265.868	18.26
266.084	-24.75
266.3	-26.79
266.516	1.88
266.732	-26.79
266.948	-2.22
267.164	44.88
267.38	77.65
267.596	102.23
267.812	175.95
268.028	69.46
268.244	46.93
268.46	77.65
268.676	16.21
268.892	10.07
269.108	5.97
269.324	-73.9
269.54	-69.8
269.756	51.03
269.972	-18.6
270.188	73.56
270.403	-4.27
270.619	75.6
270.835	71.51
271.051	89.94
271.267	-30.89
271.483	-0.17
271.698	89.94
271.914	65.36
272.13	40.79
272.346	-82.09
272.562	32.6
272.777	100.18
272.993	16.21
273.209	-2.22
273.425	44.88
273.64	-114.86
273.856	14.17
274.072	-26.79
274.287	-12.46
274.503	153.43
274.719	46.93
274.934	59.22
275.15	-57.51
275.366	42.84
275.581	-73.9
275.797	87.89
276.012	59.22
276.228	3.93
276.444	77.65
276.659	98.13
276.875	-4.27
277.09	-32.94
277.306	-4.27
277.521	28.5
277.737	-10.41
277.952	22.36
278.168	57.17
278.383	57.17
278.599	-24.75
278.814	67.41
279.03	48.98
279.245	81.75
279.461	-0.17
279.676	-0.17
279.892	-28.84
280.107	-32.94
280.322	-10.41
280.538	36.69
280.753	-22.7
280.969	34.64
281.184	38.74
281.399	198.48
281.615	32.6
281.83	94.04
282.045	-16.55
282.26	-26.79
282.476	24.4
282.691	32.6
282.906	71.51
283.122	5.97
283.337	-32.94
283.552	28.5
283.767	-8.36
283.983	69.46
284.198	32.6
284.413	22.36
284.628	-104.62
284.843	57.17
285.058	36.69
285.274	28.5
285.489	-37.03
285.704	132.95
285.919	-12.46
286.134	-16.55
286.349	55.12
286.564	46.93
286.779	145.24
286.995	44.88
287.21	-73.9
287.425	51.03
287.64	16.21
287.855	59.22
288.07	-75.95
288.285	173.91
288.5	124.76
288.715	126.8
288.93	16.21
289.145	42.84
289.36	151.38
289.575	-16.55
289.79	75.6
290.004	-4.27
290.219	59.22
290.434	-53.42
290.649	-104.62
290.864	-34.99
291.079	48.98
291.294	42.84
291.509	98.13
291.724	28.5
291.938	-22.7
292.153	59.22
292.368	22.36
292.583	128.85
292.798	169.81
293.012	1.88
293.227	10.07
293.442	-18.6
293.657	65.36
293.871	143.19
294.086	104.28
294.301	229.2
294.516	44.88
294.73	28.5
294.945	-65.71
295.16	-28.84
295.374	130.9
295.589	149.33
295.804	30.55
296.018	77.65
296.233	69.46
296.447	63.32
296.662	1.88
296.877	116.56
297.091	63.32
297.306	-0.17
297.52	-6.31
297.735	-10.41
297.949	24.4
298.164	48.98
298.378	57.17
298.593	-65.71
298.807	-63.66
299.022	20.31
299.236	210.77
299.451	12.12
299.665	-18.6
299.88	-45.23
300.094	71.51
300.309	67.41
300.523	63.32
300.737	-16.55
300.952	-0.17
301.166	61.27
301.381	-16.55
301.595	-14.51
301.809	53.08
302.024	38.74
302.238	-90.28
302.452	194.39
302.667	10.07
302.881	102.23
303.095	57.17
303.309	100.18
303.524	16.21
303.738	-90.28
303.952	38.74
304.166	128.85
304.381	-84.14
304.595	173.91
304.809	8.02
305.023	1.88
305.237	-24.75
305.452	-14.51
305.666	118.61
305.88	69.46
306.094	85.84
306.308	51.03
306.522	-6.31
306.736	42.84
306.95	96.08
307.164	75.6
307.379	71.51
307.593	79.7
307.807	126.8
308.021	12.12
308.235	132.95
308.449	-43.18
308.663	-24.75
308.877	208.72
309.091	14.17
309.305	89.94
309.519	-88.23
309.733	81.75
309.947	-139.43
310.161	73.56
310.374	44.88
310.588	94.04
310.802	-12.46
311.016	85.84
311.23	26.45
311.444	-86.19
311.658	94.04
311.872	165.71
312.085	112.47
312.299	87.89
312.513	145.24
312.727	-20.65
312.941	-4.27
313.154	96.08
313.368	59.22
313.582	-51.37
313.796	24.4
314.009	-18.6
314.223	173.91
314.437	26.45
314.651	147.28
314.864	-39.08
315.078	1.88
315.292	-51.37
315.505	-0.17
315.719	5.97
315.933	112.47
316.146	-22.7
316.36	-4.27
316.573	100.18
316.787	75.6
317.001	83.8
317.214	-63.66
317.428	34.64
317.641	-67.75
317.855	-63.66
318.068	-6.31
318.282	34.64
318.495	192.34
318.709	108.37
318.922	18.26
319.136	126.8
319.349	139.09
319.563	-2.22
319.776	98.13
319.99	-96.43
320.203	83.8
320.417	48.98
320.63	65.36
320.843	132.95
321.057	46.93
321.27	-75.95
321.483	63.32
321.697	118.61
321.91	38.74
322.124	59.22
322.337	67.41
322.55	26.45
322.763	32.6
322.977	77.65
323.19	42.84
323.403	34.64
323.617	114.52
323.83	85.84
324.043	51.03
324.256	59.22
324.469	-22.7
324.683	71.51
324.896	126.8
325.109	5.97
325.322	-75.95
325.535	75.6
325.748	137.04
325.962	-55.47
326.175	96.08
326.388	57.17
326.601	116.56
326.814	26.45
327.027	98.13
327.24	139.09
327.453	-145.58
327.666	22.36
327.879	40.79
328.092	51.03
328.305	83.8
328.518	24.4
328.731	20.31
328.944	32.6
329.157	69.46
329.37	-20.65
329.583	128.85
329.796	81.75
330.009	-32.94
330.222	-32.94
330.435	135
330.648	53.08
330.861	75.6
331.073	46.93
331.286	108.37
331.499	89.94
331.712	26.45
331.925	30.55
332.138	53.08
332.35	83.8
332.563	-16.55
332.776	87.89
332.989	-4.27
333.202	26.45
333.414	-24.75
333.627	32.6
333.84	53.08
334.053	40.79
334.265	36.69
334.478	3.93
334.691	-14.51
334.903	48.98
335.116	75.6
335.329	14.17
335.541	22.36
335.754	137.04
335.966	71.51
336.179	32.6
336.392	24.4
336.604	20.31
336.817	132.95
337.029	87.89
337.242	12.12
337.454	87.89
337.667	5.97
337.88	161.62
338.092	69.46
338.305	100.18
338.517	22.36
338.729	151.38
338.942	151.38
339.154	-88.23
339.367	-37.03
339.579	96.08
339.792	-14.51
340.004	143.19
340.217	116.56
340.429	16.21
340.641	-37.03
340.854	-61.61
341.066	12.12
341.278	114.52
341.491	114.52
341.703	36.69
341.915	-65.71
342.128	32.6
342.34	51.03
342.552	-18.6
342.764	14.17
342.977	-12.46
343.189	42.84
343.401	79.7
343.613	-18.6
343.826	79.7
344.038	-20.65
344.25	67.41
344.462	-26.79
344.674	89.94
344.886	-4.27
345.099	89.94
345.311	28.5
345.523	32.6
345.735	-137.38
345.947	65.36
346.159	32.6
346.371	104.28
346.583	85.84
346.795	210.77
347.007	-2.22
347.219	12.12
347.431	-49.32
347.643	114.52
347.855	-88.23
348.067	59.22
348.279	-77.99
348.491	-2.22
348.703	65.36
348.915	63.32
349.127	3.93
349.339	-32.94
349.551	-34.99
349.763	83.8
349.975	55.12
350.187	118.61
350.399	155.47
350.61	132.95
350.822	65.36
351.034	42.84
351.246	-16.55
351.458	51.03
351.669	163.67
351.881	143.19
352.093	87.89
352.305	124.76
352.517	122.71
352.728	147.28
352.94	51.03
353.152	38.74
353.363	32.6
353.575	57.17
353.787	180.05
353.999	28.5
354.21	110.42
354.422	-37.03
354.633	-14.51
354.845	-30.89
355.057	-10.41
355.268	34.64
355.48	38.74
355.692	-69.8
355.903	38.74
356.115	-0.17
356.326	-39.08
356.538	126.8
356.749	159.57
356.961	132.95
357.172	96.08
357.384	-10.41
357.595	225.11
357.807	-45.23
358.018	-22.7
358.23	-10.41
358.441	124.76
358.653	26.45
358.864	42.84
359.075	-28.84
359.287	48.98
359.498	104.28
359.709	83.8
359.921	40.79
360.132	18.26
360.344	-4.27
360.555	53.08
360.766	36.69
360.977	5.97
361.189	130.9
361.4	-16.55
361.611	71.51
361.823	184.15
362.034	55.12
362.245	-51.37
362.456	98.13
362.667	100.18
362.879	-26.79
363.09	87.89
363.301	26.45
363.512	3.93
363.723	44.88
363.935	55.12
364.146	75.6
364.357	-16.55
364.568	36.69
364.779	-151.72
364.99	212.82
365.201	-14.51
365.412	63.32
365.623	-94.38
365.834	65.36
366.045	10.07
366.256	180.05
366.467	32.6
366.678	51.03
366.889	3.93
367.1	10.07
367.311	145.24
367.522	-61.61
367.733	98.13
367.944	102.23
368.155	135
368.366	122.71
368.577	225.11
368.788	87.89
368.999	-49.32
369.209	-24.75
369.42	218.96
369.631	268.11
369.842	63.32
370.053	-32.94
370.264	130.9
370.474	-59.56
370.685	8.02
370.896	40.79
371.107	139.09
371.317	26.45
371.528	-26.79
371.739	122.71
371.95	81.75
372.16	40.79
372.371	-16.55
372.582	3.93
372.792	38.74
373.003	51.03
373.214	73.56
373.424	124.76
373.635	-18.6
373.846	147.28
374.056	-20.65
374.267	87.89
374.477	63.32
374.688	-37.03
374.898	10.07
375.109	-57.51
375.319	28.5
375.53	112.47
375.74	91.99
375.951	-20.65
376.161	-47.27
376.372	79.7
376.582	1.88
376.793	120.66
377.003	-61.61
377.214	-4.27
377.424	85.84
377.635	69.46
377.845	-32.94
378.055	124.76
378.266	-84.14
378.476	-41.13
378.686	42.84
378.897	57.17
379.107	106.32
379.317	73.56
379.528	-14.51
379.738	18.26
379.948	8.02
380.158	104.28
380.369	108.37
380.579	114.52
380.789	141.14
380.999	55.12
381.21	128.85
381.42	159.57
381.63	-30.89
381.84	110.42
382.05	79.7
382.261	18.26
382.471	67.41
382.681	42.84
382.891	91.99
383.101	81.75
383.311	53.08
383.521	-4.27
383.731	75.6
383.941	169.81
384.151	51.03
384.361	12.12
384.571	32.6
384.781	53.08
384.991	180.05
385.201	159.57
385.411	57.17
385.621	53.08
385.831	118.61
386.041	116.56
386.251	30.55
386.461	71.51
386.671	-4.27
386.881	34.64
387.091	38.74
387.301	153.43
387.511	57.17
387.72	24.4
387.93	184.15
388.14	-82.09
388.35	40.79
388.56	110.42
388.769	67.41
388.979	57.17
389.189	28.5
389.399	122.71
389.609	137.04
389.818	106.32
390.028	69.46
390.238	-22.7
390.447	36.69
390.657	128.85
390.867	-28.84
391.076	-53.42
391.286	91.99
391.496	48.98
391.705	14.17
391.915	79.7
392.125	110.42
392.334	-43.18
392.544	132.95
392.753	118.61
392.963	-49.32
393.172	73.56
393.382	-24.75
393.591	192.34
393.801	8.02
394.01	157.52
394.22	116.56
394.429	-4.27
394.639	89.94
394.848	36.69
395.058	116.56
395.267	51.03
395.477	69.46
395.686	91.99
395.895	212.82
396.105	190.29
396.314	32.6
396.524	53.08
396.733	46.93
396.942	98.13
397.152	77.65
397.361	71.51
397.57	106.32
397.78	51.03
397.989	94.04
398.198	233.3
398.407	-26.79
398.617	85.84
398.826	65.36
399.035	12.12
399.244	81.75
399.453	79.7
399.663	139.09
399.872	77.65
400.081	-37.03
400.29	128.85
400.499	-39.08
400.708	128.85
400.917	73.56
401.127	22.36
401.336	22.36
401.545	229.2
401.754	110.42
401.963	108.37
402.172	42.84
402.381	-51.37
402.59	87.89
402.799	3.93
403.008	106.32
403.217	63.32
403.426	46.93
403.635	-55.47
403.844	38.74
404.053	59.22
404.262	14.17
404.471	116.56
404.68	5.97
404.888	-22.7
405.097	61.27
405.306	55.12
405.515	59.22
405.724	-12.46
405.933	122.71
406.142	149.33
406.35	171.86
406.559	24.4
406.768	18.26
406.977	204.63
407.185	143.19
407.394	128.85
407.603	22.36
407.812	48.98
408.02	108.37
408.229	10.07
408.438	34.64
408.646	-41.13
408.855	-26.79
409.064	114.52
409.272	-4.27
409.481	85.84
409.69	14.17
409.898	-28.84
410.107	57.17
410.315	79.7
410.524	42.84
410.733	61.27
410.941	91.99
411.15	120.66
411.358	147.28
411.567	106.32
411.775	57.17
411.984	55.12
412.192	81.75
412.401	-24.75
412.609	135
412.818	96.08
413.026	91.99
413.234	28.5
413.443	38.74
413.651	-8.36
413.86	102.23
414.068	198.48
414.276	169.81
414.485	53.08
414.693	155.47
414.901	200.53
415.11	67.41
415.318	59.22
415.526	59.22
415.734	102.23
415.943	1.88
416.151	110.42
416.359	81.75
416.567	57.17
416.776	149.33
416.984	91.99
417.192	110.42
417.4	61.27
417.608	26.45
417.817	16.21
418.025	69.46
418.233	100.18
418.441	-26.79
418.649	-32.94
418.857	85.84
419.065	161.62
419.273	22.36
419.481	69.46
419.689	46.93
419.897	20.31
420.105	-8.36
420.313	122.71
420.521	163.67
420.729	59.22
420.937	34.64
421.145	-22.7
421.353	157.52
421.561	122.71
421.769	75.6
421.977	3.93
422.185	118.61
422.393	46.93
422.601	151.38
422.809	178
423.017	59.22
423.224	38.74
423.432	102.23
423.64	-4.27
423.848	167.76
424.056	-32.94
424.263	108.37
424.471	73.56
424.679	122.71
424.887	12.12
425.094	120.66
425.302	-0.17
425.51	96.08
425.718	120.66
425.925	44.88
426.133	89.94
426.341	206.67
426.548	89.94
426.756	-37.03
426.964	110.42
427.171	26.45
427.379	32.6
427.586	53.08
427.794	141.14
428.001	94.04
428.209	128.85
428.417	182.1
428.624	186.19
428.832	67.41
429.039	53.08
429.247	139.09
429.454	163.67
429.662	239.44
429.869	135
430.076	145.24
430.284	182.1
430.491	216.91
430.699	128.85
430.906	212.82
431.114	112.47
431.321	100.18
431.528	112.47
431.736	139.09
431.943	184.15
432.15	159.57
432.358	227.15
432.565	175.95
432.772	-84.14
432.979	186.19
433.187	192.34
433.394	231.25
433.601	145.24
433.808	278.35
434.016	280.4
434.223	335.7
434.43	155.47
434.637	323.41
434.844	218.96
435.052	235.35
435.259	251.73
435.466	272.21
435.673	309.07
435.88	235.35
436.087	323.41
436.294	362.32
436.501	374.61
436.708	345.94
436.915	370.51
437.122	421.71
437.329	268.11
437.537	378.7
437.743	304.98
437.95	458.57
438.157	427.85
438.364	429.9
438.571	350.03
438.778	477.01
438.985	472.91
439.192	560.97
439.399	495.44
439.606	497.49
439.813	638.8
440.02	665.42
440.227	644.94
440.433	665.42
440.64	620.36
440.847	520.01
441.054	634.7
441.261	802.63
441.467	720.71
441.674	663.37
441.881	759.63
442.088	802.63
442.294	819.02
442.501	933.7
442.708	878.41
442.914	917.32
443.121	939.85
443.328	898.89
443.534	1029.96
443.741	927.56
443.948	954.18
444.154	1062.73
444.361	1390.4
444.568	1101.64
444.774	1144.64
444.981	1048.39
445.187	1376.06
445.394	1371.97
445.6	1308.48
445.807	1496.89
446.013	1390.4
446.22	1443.65
446.426	1595.2
446.633	1689.4
446.839	1802.04
447.046	1630.01
447.252	1886.01
447.459	1920.82
447.665	1851.19
447.871	2076.47
448.078	2271.03
448.284	2160.44
448.491	2295.6
448.697	2365.23
448.903	2459.44
449.11	2479.92
449.316	2627.37
449.522	2801.45
449.728	2897.71
449.935	2828.07
450.141	2922.28
450.347	3133.22
450.553	2998.06
450.76	3108.65
450.966	3305.25
451.172	3512.1
451.378	3460.9
451.584	3587.87
451.791	3888.92
451.997	4011.8
452.203	3979.03
452.409	4241.17
452.615	4599.57
452.821	4499.22
453.027	4390.67
453.233	4767.5
453.44	4996.87
453.646	5183.24
453.852	5330.69
454.058	5373.7
454.264	5666.56
454.47	5994.23
454.676	6170.36
454.882	6596.34
455.088	6207.22
455.294	6586.1
455.5	7055.08
455.705	7442.15
455.911	7245.54
456.117	7761.63
456.323	7960.28
456.529	7870.17
456.735	8648.4
456.941	8812.24
457.147	9144.01
457.352	9488.07
457.558	9850.56
457.764	10221.24
457.97	10630.84
458.176	10927.79
458.381	11636.39
458.587	11810.47
458.793	12392.09
458.999	12101.28
459.204	13981.31
459.41	14276.22
459.616	14163.58
459.821	15242.86
460.027	15695.46
460.233	16178.78
460.438	16543.32
460.644	17073.74
460.85	17653.32
461.055	18286.14
461.261	19322.41
461.466	19027.51
461.672	19222.06
461.878	21423.63
462.083	21339.66
462.289	21712.39
462.494	22550.01
462.7	22523.39
462.905	23076.34
463.111	24669.66
463.316	25849.29
463.522	26566.08
463.727	27362.74
463.932	28495.27
464.138	29302.17
464.343	30383.49
464.549	30494.08
464.754	32615.78
464.959	33561.94
465.165	34274.63
465.37	34170.19
465.575	33910.1
465.781	36111.66
465.986	37391.64
466.191	36545.83
466.397	37279
466.602	36062.51
466.807	38057.23
467.012	38857.99
467.218	39621.88
467.423	39546.11
467.628	40621.29
467.833	43039.94
468.038	42106.07
468.244	41409.76
468.449	43379.9
468.654	42695.88
468.859	42558.67
469.064	42675.4
469.269	41716.95
469.474	42077.4
469.679	43171.01
469.885	41886.93
470.09	42745.03
470.295	42390.73
470.5	41469.15
470.705	41618.65
470.91	40862.95
471.115	40135.92
471.32	40836.33
471.525	40553.71
471.73	39611.64
471.935	39533.82
472.139	37747.99
472.344	38157.58
472.549	37883.16
472.754	36728.1
472.959	36633.89
473.164	34823.49
473.369	34536.77
473.574	35595.57
473.778	34483.53
473.983	34491.72
474.188	33348.95
474.393	31804.78
474.598	31884.65
474.802	30932.35
475.007	30920.06
475.212	30373.25
475.417	29013.4
475.621	29058.46
475.826	28824.99
476.031	27866.54
476.235	27248.05
476.44	27346.36
476.645	26869.18
476.849	26682.81
477.054	25994.7
477.259	25179.61
477.463	25402.83
477.668	24479.2
477.872	24739.29
478.077	23973.35
478.282	23428.59
478.486	23223.79
478.691	22777.34
478.895	22537.73
479.1	22490.62
479.304	22408.7
479.509	21474.83
479.713	21878.28
479.918	21214.74
480.122	21106.2
480.326	20874.77
480.531	20880.92
480.735	20672.03
480.94	20186.66
481.144	20868.63
481.348	19791.4
481.553	20010.53
481.757	19410.48
481.961	19609.13
482.166	19848.74
482.37	19576.36
482.574	18861.62
482.778	19183.15
482.983	19213.87
483.187	18769.46
483.391	18806.33
483.595	18191.94
483.8	18193.98
484.004	18331.2
484.208	17833.54
484.412	17763.91
484.616	17725
484.821	17643.08
485.025	17165.9
485.229	17378.89
485.433	16805.46
485.637	16709.21
485.841	16297.56
486.045	16361.05
486.249	16272.99
486.453	15502.95
486.657	15730.28
486.861	15474.28
487.065	14927.47
487.269	14937.71
487.473	14339.71
487.677	14732.92
487.881	14478.97
488.085	13901.44
488.289	13741.7
488.493	13575.81
488.697	13358.73
488.901	13145.74
489.105	12838.55
489.309	12555.93
489.512	12424.86
489.716	12304.03
489.92	11904.67
490.124	11656.87
490.328	11728.55
490.531	11404.97
490.735	11185.83
490.939	11032.24
491.143	10716.85
491.346	10491.57
491.55	10460.85
491.754	10346.17
491.958	10290.87
492.161	9883.33
492.365	9846.46
492.569	9543.36
492.772	9690.82
492.976	9365.19
493.18	9105.1
493.383	9113.29
493.587	8695.5
493.79	8976.08
493.994	8693.46
494.197	8767.18
494.401	8707.79
494.605	8416.98
494.808	8509.14
495.012	8247
495.215	8070.87
495.419	8337.11
495.622	7993.05
495.825	8015.58
496.029	7966.43
496.232	8199.9
496.436	7972.57
496.639	8185.56
496.843	7575.27
497.046	7958.24
497.249	8025.82
497.453	7976.67
497.656	7677.66
497.859	7911.13
498.063	7878.37
498.266	7837.41
498.469	7630.56
498.673	7855.84
498.876	7974.62
499.079	7892.7
499.282	7896.8
499.485	8212.18
499.689	8132.31
499.892	8238.81
500.095	8197.85
500.298	8273.62
500.501	8191.7
500.705	8355.54
500.908	8529.62
501.111	8433.36
501.314	8597.2
501.517	8490.71
501.72	8656.59
501.923	8570.58
502.126	8908.49
502.329	9219.78
502.532	9029.32
502.735	9025.23
502.938	9488.07
503.141	9262.79
503.344	9330.37
503.547	9475.78
503.75	9569.99
503.953	9645.76
504.156	9963.2
504.359	9959.1
504.562	10106.56
504.765	10395.32
504.968	10356.41
505.17	10548.92
505.373	10665.65
505.576	10858.16
505.779	11022
505.982	11302.57
506.185	11613.86
506.387	11595.43
506.59	11751.07
506.793	11978.4
506.996	12220.06
507.198	12596.89
507.401	12658.32
507.604	12791.44
507.807	13229.71
508.009	13541
508.212	13792.9
508.415	13897.35
508.617	14188.16
508.82	14704.24
509.022	14524.02
509.225	15005.3
509.428	15375.98
509.63	15748.71
509.833	15756.9
510.035	16459.35
510.238	16256.61
510.44	16787.03
510.643	17286.73
510.845	18017.86
511.048	17712.71
511.25	18257.47
511.453	18626.11
511.655	19465.77
511.858	19797.54
512.06	20059.68
512.262	20686.36
512.465	20858.39
512.667	21646.86
512.87	22007.3
513.072	22203.91
513.274	23049.72
513.477	23490.03
513.679	23854.57
513.881	24360.42
514.084	25308.63
514.286	25243.09
514.488	26002.89
514.69	27098.55
514.893	27338.16
515.095	27592.11
515.297	28415.4
515.499	29003.16
515.701	29504.92
515.904	30338.44
516.106	30686.59
516.308	31749.49
516.51	32269.67
516.712	32877.92
516.914	33418.58
517.116	34391.37
517.318	34524.49
517.52	35480.89
517.722	35847.47
517.925	36912.42
518.127	37180.7
518.329	38225.17
518.531	37893.4
518.733	39052.55
518.935	39947.51
519.136	40414.44
519.338	41123.04
519.54	41706.71
519.742	42509.52
519.944	42636.49
520.146	44180.66
520.348	44244.15
520.55	44960.94
520.752	44911.78
520.954	46240.92
521.155	45771.93
521.357	46945.42
521.559	47670.4
521.761	48610.42
521.963	48190.58
522.164	49038.44
522.366	48880.75
522.568	49710.17
522.77	50179.16
522.971	50795.6
523.173	50760.78
523.375	51295.3
523.576	51379.27
523.778	51342.41
523.98	52425.78
524.181	52526.13
524.383	52554.8
524.584	52816.94
524.786	52759.6
524.988	52694.07
525.189	53050.41
525.391	53365.8
525.592	53414.95
525.794	53345.32
525.995	53201.96
526.197	52847.66
526.398	53107.75
526.6	53247.02
526.801	53320.74
527.003	53425.19
527.204	52444.21
527.406	52862
527.607	52872.24
527.808	52587.57
528.01	51149.9
528.211	51534.91
528.412	51801.15
528.614	51113.03
528.815	51448.9
529.016	51215.43
529.218	50232.41
529.419	50029.66
529.62	49081.45
529.822	49146.98
530.023	48528.5
530.224	48338.04
530.425	47889.53
530.626	46886.03
530.828	46478.48
531.029	46828.68
531.23	45718.68
531.431	45259.94
531.632	44633.26
531.833	44938.41
532.035	43822.26
532.236	43371.71
532.437	43236.55
532.638	42411.21
532.839	41712.86
533.04	41678.04
533.241	40883.43
533.442	40711.4
533.643	40264.94
533.844	39122.18
534.045	38851.84
534.246	37823.76
534.447	38026.51
534.648	37315.87
534.849	36777.25
535.05	35949.87
535.251	35630.39
535.451	35743.03
535.652	34940.22
535.853	34551.11
536.054	34362.7
536.255	33414.49
536.456	32732.51
536.657	33262.94
536.857	31954.29
537.058	31784.3
537.259	31772.02
537.46	31014.27
537.66	30508.42
537.861	30430.6
538.062	29529.49
538.263	29568.4
538.463	28751.26
538.664	28822.94
538.865	28067.24
539.065	28251.56
539.266	27264.44
539.466	27366.84
539.667	26609.09
539.868	26668.48
540.068	26334.66
540.269	25968.07
540.469	25515.47
540.67	25296.34
540.87	25103.83
541.071	24575.45
541.271	24729.05
541.472	24423.9
541.672	23793.13
541.873	23475.7
542.073	23467.5
542.274	23332.34
542.474	23004.66
542.675	22302.21
542.875	22582.78
543.075	21956.1
543.276	21569.04
543.476	21827.08
543.676	21294.61
543.877	21075.48
544.077	21038.61
544.277	20667.93
544.478	20428.32
544.678	20088.35
544.878	20121.12
545.078	19811.88
545.279	19461.68
545.479	19037.75
545.679	19605.03
545.879	18781.75
546.079	18826.81
546.28	18333.25
546.48	18159.17
546.68	17999.43
546.88	17772.1
547.08	17436.24
547.28	17120.85
547.48	17036.88
547.68	16973.39
547.88	16729.69
548.081	16561.75
548.281	16096.86
548.481	16070.24
548.681	15914.59
548.881	15515.24
549.081	15568.49
549.28	15074.93
549.48	15222.38
549.68	14884.47
549.88	14999.15
550.08	14521.98
550.28	14349.95
550.48	14327.42
550.68	13891.2
550.88	13706.88
551.08	13545.09
551.279	13375.11
551.479	12977.81
551.679	12942.99
551.879	12879.5
552.079	12512.92
552.278	12578.45
552.478	12414.62
552.678	12166.81
552.878	11968.16
553.077	11519.65
553.277	11595.43
553.477	11411.11
553.676	11144.88
553.876	11017.9
554.076	10872.5
554.275	10473.14
554.475	10233.53
554.674	10538.68
554.874	10133.18
555.074	9924.29
555.273	9750.21
555.473	9756.35
555.672	9502.4
555.872	9217.74
556.071	9303.75
556.271	9197.26
556.47	8853.2
556.67	8728.27
556.869	8556.24
557.068	8425.17
557.268	8236.76
557.467	8163.03
557.667	8304.34
557.866	8038.11
558.065	7681.76
558.265	7540.45
558.464	7481.06
558.663	7440.1
558.863	7329.51
559.062	7212.78
559.261	7026.41
559.461	7046.89
559.66	6647.54
559.859	6702.83
560.058	6473.46
560.258	6600.43
560.457	6180.6
560.656	6577.9
560.855	6170.36
561.054	6119.16
561.253	5961.47
561.453	5930.75
561.652	5854.97
561.851	5861.12
562.05	5533.44
562.249	5388.04
562.448	5574.4
562.647	5361.41
562.846	5312.26
563.045	5330.69
563.244	5048.07
563.443	5138.18
563.642	4945.67
563.841	4957.96
564.04	4884.23
564.239	4656.91
564.438	4720.4
564.637	4591.38
564.836	4585.23
565.035	4282.13
565.234	4290.32
565.432	4366.1
565.631	4435.73
565.83	4302.61
566.029	4093.72
566.228	4206.36
566.427	4157.21
566.625	3878.68
566.824	4056.86
567.023	3997.46
567.222	3776.28
567.42	3778.33
567.619	3696.41
567.818	3780.38
568.016	3735.32
568.215	3598.11
568.414	3585.82
568.612	3413.79
568.811	3462.94
569.01	3397.41
569.208	3378.98
569.407	3243.81
569.605	3256.1
569.804	3254.05
570.002	3196.71
570.201	2987.82
570.4	3145.51
570.598	2916.14
570.797	2903.85
570.995	2756.4
571.193	2922.28
571.392	2770.73
571.59	2668.33
571.789	2807.59
571.987	2717.48
572.186	2688.81
572.384	2586.41
572.582	2391.86
572.781	2598.7
572.979	2395.95
573.177	2416.43
573.376	2383.66
573.574	2412.34
573.772	2297.65
573.971	2219.83
574.169	2135.86
574.367	2275.12
574.565	2262.83
574.763	2135.86
574.962	2006.84
575.16	2076.47
575.358	1943.35
575.556	2037.56
575.754	1896.25
575.952	1972.02
576.151	1947.45
576.349	1904.44
576.547	1799.99
576.745	1867.58
576.943	1738.55
577.141	1775.42
577.339	1627.96
577.537	1664.83
577.735	1797.95
577.933	1847.1
578.131	1648.44
578.329	1587.01
578.527	1654.59
578.725	1621.82
578.923	1500.99
579.121	1591.1
579.319	1324.87
579.516	1521.47
579.714	1513.28
579.912	1384.26
580.11	1357.63
580.308	1371.97
580.506	1318.72
580.704	1265.47
580.901	1263.43
581.099	1429.31
581.297	1263.43
581.495	1224.51
581.692	1161.03
581.89	1314.63
582.088	1224.51
582.285	1179.46
582.483	1113.92
582.681	1130.31
582.878	1085.25
583.076	1034.05
583.274	1167.17
583.471	1271.62
583.669	1075.01
583.866	1017.67
584.064	1079.11
584.262	933.7
584.459	1001.29
584.657	976.71
584.854	1122.12
585.052	939.85
585.249	1032.01
585.447	921.42
585.644	839.5
585.841	927.56
586.039	907.08
586.236	980.81
586.434	874.31
586.631	849.74
586.828	796.49
587.026	900.94
587.223	671.56
587.42	833.35
587.618	876.36
587.815	892.74
588.012	837.45
588.21	769.87
588.407	710.47
588.604	825.16
588.801	667.47
588.999	802.63
589.196	825.16
589.393	700.23
589.59	657.23
589.787	753.48
589.984	710.47
590.182	767.82
590.379	698.19
590.576	687.95
590.773	696.14
590.97	698.19
591.167	749.39
591.364	712.52
591.561	702.28
591.758	788.3
591.955	728.91
592.152	634.7
592.349	671.56
592.546	606.03
592.743	624.46
592.94	595.79
593.137	653.13
593.334	702.28
593.531	767.82
593.727	767.82
593.924	685.9
594.121	685.9
594.318	657.23
594.515	720.71
594.712	823.11
594.908	771.91
595.105	679.75
595.302	839.5
595.499	665.42
595.696	905.03
595.892	745.29
596.089	827.21
596.286	804.68
596.482	1009.48
596.679	841.54
596.876	776.01
597.072	923.46
597.269	765.77
597.466	872.26
597.662	909.13
597.859	919.37
598.055	978.76
598.252	1038.15
598.448	1091.4
598.645	1177.41
598.841	1093.44
599.038	1218.37
599.234	1357.63
599.431	1306.43
599.627	1331.01
599.824	1337.15
600.02	1388.35
600.217	1408.83
600.413	1410.88
600.609	1425.22
600.806	1875.77
601.002	1650.49
601.198	1658.68
601.395	1797.95
601.591	1853.24
601.787	2010.93
601.984	2000.69
602.18	2021.17
602.376	2113.33
602.572	2266.93
602.769	2246.45
602.965	2443.06
603.161	2516.78
603.357	2588.46
603.553	2643.76
603.75	2610.99
603.946	2770.73
604.142	2989.86
604.338	3139.37
604.534	3028.78
604.73	3194.66
604.926	3409.7
605.122	3557.15
605.318	3495.71
605.514	3628.83
605.71	3757.85
605.906	3878.68
606.102	3913.5
606.298	4189.97
606.494	4210.45
606.69	4349.71
606.886	4509.46
607.082	4579.09
607.278	4783.88
607.474	4824.84
607.67	4912.91
607.866	5043.98
608.062	5345.03
608.257	5492.48
608.453	5402.37
608.649	5693.18
608.845	5674.75
609.041	5953.27
609.236	6256.37
609.432	6342.39
609.628	6610.67
609.824	6825.71
610.019	6764.27
610.215	6915.82
610.411	7341.8
610.606	7323.37
610.802	7458.53
610.998	7896.8
611.193	7958.24
611.389	8105.69
611.584	8480.47
611.78	8619.73
611.976	8890.06
612.171	9062.09
612.367	9219.78
612.562	9422.53
612.758	9692.87
612.953	9871.04
613.149	10366.65
613.344	10258.1
613.539	10921.65
613.735	11128.49
613.93	11413.16
614.126	11564.71
614.321	12175
614.517	12316.31
614.712	12598.93
614.907	12732.05
615.103	12951.18
615.298	13573.77
615.493	14083.71
615.688	14026.37
615.884	14800.5
616.079	14671.48
616.274	15367.79
616.47	15877.73
616.665	16029.28
616.86	16512.6
617.055	16860.76
617.25	17258.06
617.445	18048.58
617.641	18126.4
617.836	18775.61
618.031	18755.13
618.226	19586.6
618.421	20129.31
618.616	20815.38
618.811	20966.93
619.006	21474.83
619.201	21560.84
619.396	22648.32
619.591	22478.33
619.786	23363.06
619.981	23373.3
620.176	24331.75
620.371	24471.01
620.566	25413.07
620.761	26090.95
620.956	26516.93
621.151	26498.5
621.346	27628.98
621.541	27612.59
621.735	28724.64
621.93	28564.9
622.125	29427.09
622.32	29711.76
622.515	30508.42
622.709	30776.7
622.904	31634.8
623.099	32066.92
623.294	32824.67
623.488	32566.63
623.683	34032.97
623.878	33873.23
624.072	34831.68
624.267	34913.6
624.462	35691.83
624.656	36033.84
624.851	36801.83
625.046	37326.11
625.24	37829.91
625.435	38145.3
625.629	38628.62
625.824	39136.51
626.018	39877.88
626.213	39644.41
626.407	40733.93
626.602	40746.22
626.796	41581.79
626.991	42200.27
627.185	42220.75
627.38	41936.09
627.574	42460.37
627.768	42659.02
627.963	42581.2
628.157	42499.28
628.352	43267.27
628.546	43021.51
628.74	43521.21
628.935	42595.53
629.129	43066.56
629.323	42396.88
629.517	42341.58
629.712	42028.24
629.906	41977.04
630.1	41037.03
630.294	41348.32
630.489	40404.2
630.683	40514.8
630.877	39062.79
631.071	38579.46
631.265	38407.44
631.459	37416.22
631.653	36775.2
631.848	36048.18
632.042	34866.5
632.236	34673.99
632.43	33144.16
632.624	32808.29
632.818	31444.34
633.012	30764.42
633.206	29502.87
633.4	28945.82
633.594	27407.8
633.788	26842.56
633.982	26062.28
634.176	25173.46
634.369	23938.54
634.563	23256.56
634.757	22138.37
634.951	21503.5
635.145	20723.23
635.339	19740.2
635.533	18562.62
635.726	18462.27
635.92	17120.85
636.114	16647.77
636.308	15978.08
636.501	15570.54
636.695	15003.25
636.889	14007.94
637.083	13727.36
637.276	13088.4
637.47	12394.14
637.664	12156.57
637.857	11407.02
638.051	10864.3
638.244	10753.71
638.438	10213.05
638.632	9936.57
638.825	9426.63
639.019	9064.14
639.212	8539.86
639.406	8292.05
639.599	7999.2
639.793	7698.14
639.986	7345.89
640.18	7126.76
640.373	6913.77
640.567	6473.46
640.76	6280.95
640.954	6184.69
641.147	5947.13
641.34	5508.87
641.534	5482.24
641.727	5308.16
641.92	4890.38
642.114	4863.76
642.307	4691.73
642.5	4388.63
642.694	4230.93
642.887	4206.36
643.08	3958.55
643.273	3948.31
643.467	3698.46
643.66	3501.86
643.853	3268.39
644.046	3231.52
644.239	3133.22
644.432	2752.3
644.626	2780.97
644.819	2754.35
645.012	2598.7
645.205	2610.99
645.398	2643.76
645.591	2322.23
645.784	2273.07
645.977	2142
646.17	1961.78
646.363	2000.69
646.556	1920.82
646.749	1791.8
646.942	1896.25
647.135	1742.65
647.328	1736.51
647.521	1748.79
647.714	1437.5
647.907	1535.81
648.099	1365.82
648.292	1550.14
648.485	1369.92
648.678	1249.09
648.871	1206.08
649.064	1212.23
649.256	1075.01
649.449	1126.21
649.642	964.42
649.835	1111.88
650.027	968.52
650.22	1023.81
650.413	827.21
650.605	1032.01
650.798	821.06
650.991	810.82
651.183	862.02
651.376	941.89
651.568	810.82
651.761	780.11
651.954	808.78
652.146	753.48
652.339	769.87
652.531	687.95
652.724	575.31
652.916	522.06
653.109	454.48
653.301	628.56
653.494	620.36
653.686	563.02
653.879	694.09
654.071	563.02
654.263	448.33
654.456	499.53
654.648	440.14
654.84	448.33
655.033	470.86
655.225	601.93
655.417	278.35
655.61	452.43
655.802	522.06
655.994	462.67
656.186	388.94
656.379	366.42
656.571	278.35
656.763	315.22
656.955	241.49
657.148	352.08
657.34	446.29
657.532	345.94
657.724	321.36
657.916	345.94
658.108	347.98
658.3	245.59
658.492	339.79
658.684	235.35
658.876	409.42
659.068	229.2
659.26	151.38
659.452	130.9
659.644	253.78
659.836	345.94
660.028	311.12
660.22	221.01
660.412	194.39
660.604	268.11
660.796	212.82
660.988	331.6
661.18	206.67
661.372	282.45
661.563	231.25
661.755	227.15
661.947	167.76
662.139	204.63
662.331	227.15
662.522	270.16
662.714	182.1
662.906	104.28
663.097	214.87
663.289	173.91
663.481	30.55
663.673	132.95
663.864	128.85
664.056	143.19
664.247	71.51
664.439	266.07
664.631	188.24
664.822	235.35
665.014	149.33
665.205	149.33
665.397	159.57
665.588	231.25
665.78	161.62
665.971	245.59
666.163	214.87
666.354	171.86
666.546	190.29
666.737	53.08
666.929	104.28
667.12	147.28
667.311	87.89
667.503	137.04
667.694	151.38
667.885	171.86
668.077	288.59
668.268	65.36
668.459	118.61
668.651	124.76
668.842	149.33
669.033	135
669.224	73.56
669.416	327.5
669.607	114.52
669.798	71.51
669.989	161.62
670.18	73.56
670.371	112.47
670.563	67.41
670.754	198.48
670.945	139.09
671.136	163.67
671.327	59.22
671.518	196.43
671.709	345.94
671.9	202.58
672.091	313.17
672.282	135
672.473	149.33
672.664	83.8
672.855	26.45
673.046	153.43
673.237	188.24
673.428	116.56
673.619	251.73
673.809	63.32
674	280.4
674.191	120.66
674.382	141.14
674.573	143.19
674.764	229.2
674.954	165.71
675.145	130.9
675.336	59.22
675.527	83.8
675.717	104.28
675.908	118.61
676.099	98.13
676.289	163.67
676.48	38.74
676.671	194.39
676.861	122.71
677.052	161.62
677.243	89.94
677.433	167.76
677.624	167.76
677.814	218.96
678.005	75.6
678.195	253.78
678.386	110.42
678.576	141.14
678.767	106.32
678.957	208.72
679.148	249.68
679.338	307.02
679.529	268.11
679.719	128.85
679.909	302.93
680.1	221.01
680.29	253.78
680.481	153.43
680.671	233.3
680.861	284.5
681.052	171.86
681.242	190.29
681.432	259.92
681.622	145.24
681.813	157.52
682.003	175.95
682.193	157.52
682.383	192.34
682.573	139.09
682.764	180.05
682.954	173.91
683.144	261.97
683.334	216.91
683.524	178
683.714	247.63
683.904	214.87
684.094	276.31
684.284	186.19
684.474	382.8
684.664	282.45
684.854	276.31
685.044	198.48
685.234	229.2
685.424	202.58
685.614	196.43
685.804	434
685.994	317.26
686.184	223.06
686.374	270.16
686.564	198.48
686.753	276.31
686.943	110.42
687.133	294.74
687.323	169.81
687.513	210.77
687.702	272.21
687.892	173.91
688.082	284.5
688.272	339.79
688.461	253.78
688.651	386.9
688.841	302.93
689.03	147.28
689.22	253.78
689.41	317.26
689.599	284.5
689.789	204.63
689.979	313.17
690.168	206.67
690.358	255.83
690.547	325.46
690.737	155.47
690.926	311.12
691.116	307.02
691.305	366.42
691.495	257.87
691.684	149.33
691.874	141.14
692.063	309.07
692.252	356.18
692.442	255.83
692.631	202.58
692.82	264.02
693.01	302.93
693.199	233.3
693.388	169.81
693.578	161.62
693.767	257.87
693.956	245.59
694.146	216.91
694.335	274.26
694.524	167.76
694.713	270.16
694.902	178
695.092	132.95
695.281	231.25
695.47	81.75
695.659	120.66
695.848	135
696.037	175.95
696.226	292.69
696.415	218.96
696.604	347.98
696.793	210.77
696.982	180.05
697.171	390.99
697.36	175.95
697.549	214.87
697.738	73.56
697.927	194.39
698.116	137.04
698.305	243.54
698.494	278.35
698.683	186.19
698.872	358.22
699.061	231.25
699.25	159.57
699.438	188.24
699.627	126.8
699.816	352.08
700.005	122.71
700.193	135
700.382	198.48
700.571	175.95
700.76	165.71
700.948	237.39
701.137	190.29
701.326	302.93
701.514	198.48
701.703	270.16
701.892	184.15
702.08	407.38
702.269	206.67
702.457	202.58
702.646	294.74
702.834	192.34
703.023	315.22
703.212	274.26
703.4	237.39
703.589	153.43
703.777	184.15
703.965	87.89
704.154	169.81
704.342	69.46
704.531	126.8
704.719	235.35
704.907	251.73
705.096	184.15
705.284	200.53
705.472	284.5
705.661	216.91
705.849	278.35
706.037	294.74
706.226	212.82
706.414	210.77
706.602	153.43
706.79	333.65
706.979	249.68
707.167	229.2
707.355	57.17
707.543	190.29
707.731	221.01
707.919	163.67
708.107	149.33
708.296	225.11
708.484	112.47
708.672	225.11
708.86	249.68
709.048	190.29
709.236	202.58
709.424	257.87
709.612	184.15
709.8	128.85
709.988	202.58
710.176	300.88
710.364	282.45
710.551	204.63
710.739	259.92
710.927	165.71
711.115	221.01
711.303	268.11
711.491	268.11
711.679	243.54
711.866	319.31
712.054	186.19
712.242	290.64
712.43	307.02
712.617	241.49
712.805	200.53
712.993	132.95
713.181	155.47
713.368	243.54
713.556	239.44
713.744	186.19
713.931	382.8
714.119	331.6
714.306	159.57
714.494	216.91
714.682	206.67
714.869	167.76
715.057	245.59
715.244	104.28
715.432	259.92
715.619	159.57
715.807	167.76
715.994	208.72
716.182	151.38
716.369	333.65
716.556	300.88
716.744	104.28
716.931	147.28
717.119	331.6
717.306	141.14
717.493	290.64
717.681	175.95
717.868	210.77
718.055	243.54
718.242	141.14
718.43	221.01
718.617	276.31
718.804	167.76
718.991	280.4
719.179	264.02
719.366	188.24
719.553	288.59
719.74	239.44
719.927	268.11
720.114	237.39
720.301	182.1
720.488	184.15
720.676	171.86
720.863	333.65
721.05	319.31
721.237	128.85
721.424	264.02
721.611	192.34
721.798	120.66
721.985	190.29
722.172	274.26
722.358	264.02
722.545	266.07
722.732	309.07
722.919	362.32
723.106	173.91
723.293	282.45
723.48	309.07
723.667	231.25
723.853	313.17
724.04	393.04
724.227	206.67
724.414	229.2
724.6	296.78
724.787	466.77
724.974	413.52
725.161	243.54
725.347	229.2
725.534	321.36
725.72	266.07
725.907	286.54
726.094	415.57
726.28	259.92
726.467	329.55
726.653	188.24
726.84	335.7
727.027	337.74
727.213	182.1
727.4	323.41
727.586	261.97
727.773	264.02
727.959	276.31
728.145	266.07
728.332	261.97
728.518	239.44
728.705	317.26
728.891	257.87
729.077	280.4
729.264	116.56
729.45	300.88
729.636	337.74
729.823	251.73
730.009	315.22
730.195	253.78
730.382	337.74
730.568	212.82
730.754	214.87
730.94	206.67
731.126	190.29
731.313	347.98
731.499	292.69
731.685	329.55
731.871	319.31
732.057	313.17
732.243	315.22
732.429	229.2
732.615	331.6
732.801	335.7
732.987	243.54
733.173	329.55
733.359	202.58
733.545	315.22
733.731	227.15
733.917	366.42
734.103	259.92
734.289	352.08
734.475	241.49
734.661	421.71
734.847	251.73
735.033	292.69
735.219	374.61
735.404	214.87
735.59	192.34
735.776	237.39
735.962	315.22
736.148	249.68
736.333	431.95
736.519	272.21
736.705	257.87
736.89	292.69
737.076	329.55
737.262	206.67
737.447	212.82
737.633	335.7
737.819	388.94
738.004	280.4
738.19	261.97
738.375	272.21
738.561	261.97
738.747	251.73
738.932	212.82
739.118	407.38
739.303	311.12
739.489	288.59
739.674	296.78
739.859	214.87
740.045	286.54
740.23	259.92
740.416	143.19
740.601	329.55
740.786	233.3
740.972	259.92
741.157	268.11
741.342	194.39
741.528	182.1
741.713	264.02
741.898	247.63
742.084	233.3
742.269	186.19
742.454	272.21
742.639	333.65
742.824	233.3
743.01	339.79
743.195	390.99
743.38	313.17
743.565	266.07
743.75	286.54
743.935	261.97
744.12	319.31
744.305	206.67
744.49	266.07
744.675	255.83
744.86	304.98
745.045	276.31
745.23	243.54
745.415	292.69
745.6	393.04
745.785	216.91
745.97	288.59
746.155	255.83
746.34	337.74
746.525	284.5
746.71	251.73
746.895	251.73
747.079	161.62
747.264	261.97
747.449	270.16
747.634	294.74
747.819	231.25
748.003	171.86
748.188	225.11
748.373	350.03
748.557	276.31
748.742	259.92
748.927	282.45
749.111	284.5
749.296	188.24
749.481	278.35
749.665	173.91
749.85	149.33
750.034	206.67
750.219	243.54
750.404	182.1
750.588	233.3
750.773	165.71
750.957	223.06
751.141	175.95
751.326	274.26
751.51	73.56
751.695	147.28
751.879	184.15
752.064	382.8
752.248	235.35
752.432	372.56
752.617	268.11
752.801	274.26
752.985	194.39
753.17	335.7
753.354	208.72
753.538	251.73
753.722	135
753.907	153.43
754.091	161.62
754.275	218.96
754.459	79.7
754.643	100.18
754.828	190.29
755.012	251.73
755.196	28.5
755.38	149.33
755.564	161.62
755.748	149.33
755.932	229.2
756.116	243.54
756.3	241.49
756.484	188.24
756.668	233.3
756.852	96.08
757.036	124.76
757.22	159.57
757.404	161.62
757.588	204.63
757.772	247.63
757.956	135
758.14	227.15
758.323	169.81
758.507	169.81
758.691	147.28
758.875	173.91
759.059	300.88
759.242	112.47
759.426	87.89
759.61	186.19
759.794	44.88
759.977	163.67
760.161	300.88
760.345	268.11
760.528	221.01
760.712	180.05
760.895	151.38
761.079	94.04
761.263	67.41
761.446	46.93
761.63	214.87
761.813	192.34
761.997	42.84
762.18	106.32
762.364	145.24
762.547	32.6
762.731	53.08
762.914	149.33
763.098	143.19
763.281	98.13
763.464	132.95
763.648	157.52
763.831	165.71
764.015	57.17
764.198	223.06
764.381	98.13
764.564	169.81
764.748	173.91
764.931	206.67
765.114	61.27
765.297	159.57
765.481	32.6
765.664	118.61
765.847	67.41
766.03	202.58
766.213	81.75
766.397	48.98
766.58	61.27
766.763	157.52
766.946	65.36
767.129	124.76
767.312	139.09
767.495	77.65
767.678	12.12
767.861	122.71
768.044	143.19
768.227	57.17
768.41	116.56
768.593	141.14
768.776	130.9
768.959	83.8
769.142	171.86
769.324	122.71
769.507	139.09
769.69	10.07
769.873	75.6
770.056	231.25
770.239	116.56
770.421	137.04
770.604	114.52
770.787	124.76
770.97	63.32
771.152	8.02
771.335	178
771.518	16.21
771.7	194.39
771.883	163.67
772.066	22.36
772.248	124.76
772.431	192.34
772.613	157.52
772.796	114.52
772.978	104.28
773.161	178
773.343	59.22
773.526	51.03
773.708	5.97
773.891	-10.41
774.073	73.56
774.256	36.69
774.438	175.95
774.621	-0.17
774.803	48.98
774.985	10.07
775.168	73.56
775.35	94.04
775.532	81.75
775.715	-34.99
775.897	73.56
776.079	71.51
776.261	100.18
776.444	87.89
776.626	-26.79
776.808	40.79
776.99	-37.03
777.173	104.28
777.355	77.65
777.537	46.93
777.719	137.04
777.901	-20.65
778.083	-10.41
778.265	94.04
778.447	73.56
778.629	-2.22
778.811	26.45
778.993	108.37
779.175	34.64
779.357	26.45
779.539	-24.75
779.721	46.93
779.903	67.41
780.085	32.6
780.267	79.7
780.449	110.42
780.631	110.42
780.812	118.61
780.994	22.36
781.176	128.85
781.358	-2.22
781.54	55.12
781.721	126.8
781.903	126.8
782.085	26.45
782.267	180.05
782.448	-59.56
782.63	53.08
782.812	147.28
782.993	124.76
783.175	53.08
783.357	-0.17
783.538	53.08
783.72	-59.56
783.901	30.55
784.083	104.28
784.264	87.89
784.446	-51.37
784.627	-2.22
784.809	67.41
784.99	48.98
785.172	-2.22
785.353	22.36
785.535	85.84
785.716	36.69
785.897	18.26
786.079	-6.31
786.26	36.69
786.441	63.32
786.623	-34.99
786.804	30.55
786.985	51.03
787.167	59.22
787.348	87.89
787.529	42.84
787.71	241.49
787.891	65.36
788.073	20.31
788.254	-88.23
788.435	139.09
788.616	48.98
788.797	-98.47
788.978	81.75
789.159	36.69
789.34	38.74
789.522	34.64
789.703	-43.18
789.884	81.75
790.065	-8.36
790.246	149.33
790.427	28.5
790.607	114.52
790.788	110.42
790.969	-16.55
791.15	106.32
791.331	83.8
791.512	20.31
791.693	-114.86
791.874	28.5
792.054	192.34
792.235	128.85
792.416	-39.08
792.597	-71.85
792.778	51.03
792.958	20.31
793.139	71.51
793.32	-18.6
793.5	16.21
793.681	157.52
793.862	65.36
794.042	-45.23
794.223	-73.9
794.404	26.45
794.584	-75.95
794.765	16.21
794.945	14.17
795.126	44.88
795.306	83.8
795.487	-22.7
795.667	-16.55
795.848	16.21
796.028	46.93
796.209	77.65
796.389	-10.41
796.57	-12.46
796.75	-125.1
796.93	-45.23
797.111	-18.6
797.291	-2.22
797.471	38.74
797.652	69.46
797.832	-24.75
798.012	28.5
798.192	-49.32
798.373	-51.37
798.553	12.12
798.733	44.88
798.913	-51.37
799.093	-22.7
799.274	53.08
799.454	12.12
799.634	89.94
799.814	48.98
799.994	71.51
800.174	42.84
800.354	-32.94
800.534	-51.37
800.714	79.7
800.894	-24.75
801.074	-49.32
801.254	-53.42
801.434	48.98
801.614	69.46
801.794	-41.13
801.974	1789.75
802.154	-24.75
802.334	38.74
802.514	-55.47
802.693	26.45
802.873	46.93
803.053	104.28
803.233	26.45
803.413	-18.6
803.592	-8.36
803.772	-2.22
803.952	32.6
804.131	-133.29
804.311	102.23
804.491	137.04
804.67	-63.66
804.85	-69.8
805.03	22.36
805.209	36.69
805.389	-20.65
805.568	-30.89
805.748	-2.22
805.928	30.55
806.107	112.47
806.287	32.6
806.466	26.45
806.646	-41.13
806.825	28.5
807.004	-41.13
807.184	98.13
807.363	59.22
807.543	-14.51
807.722	-133.29
807.901	77.65
808.081	65.36
808.26	-192.68
808.439	-24.75
808.619	34.64
808.798	-67.75
808.977	-6.31
809.156	100.18
809.336	42.84
809.515	20.31
809.694	22.36
809.873	-16.55
810.052	51.03
810.231	85.84
810.411	87.89
810.59	145.24
810.769	81.75
810.948	71.51
811.127	-164.01
811.306	-63.66
811.485	-39.08
811.664	149.33
811.843	-55.47
812.022	48.98
812.201	-61.61
812.38	34.64
812.559	-37.03
812.737	-10.41
812.916	-137.38
813.095	-51.37
813.274	42.84
813.453	3.93
813.632	139.09
813.811	173.91
813.989	-166.06
814.168	-6.31
814.347	-129.19
814.526	-14.51
814.704	73.56
814.883	57.17
815.062	-65.71
815.24	5.97
815.419	-55.47
815.598	-8.36
815.776	-41.13
815.955	-55.47
816.133	-198.82
816.312	-20.65
816.49	14.17
816.669	18.26
816.847	-47.27
817.026	59.22
817.204	12.12
817.383	-71.85
817.561	-82.09
817.74	14.17
817.918	26.45
818.097	-116.9
818.275	-94.38
818.453	112.47
818.632	102.23
818.81	-37.03
818.988	-59.56
819.167	1.88
819.345	8.02
819.523	-102.57
819.701	1.88
819.879	71.51
820.058	22.36
820.236	42.84
820.414	55.12
820.592	-18.6
820.77	-14.51
820.948	-125.1
821.127	-86.19
821.305	34.64
821.483	-34.99
821.661	69.46
821.839	3.93
822.017	-75.95
822.195	-49.32
822.373	135
822.551	-22.7
822.729	116.56
822.907	-45.23
823.085	34.64
823.262	67.41
823.44	-90.28
823.618	-77.99
823.796	-80.04
823.974	-86.19
824.152	-26.79
824.329	44.88
824.507	-16.55
824.685	69.46
824.863	-51.37
825.04	36.69
825.218	-8.36
825.396	-30.89
825.574	57.17
825.751	12.12
825.929	63.32
826.107	-73.9
826.284	32.6
826.462	57.17
826.639	-77.99
826.817	-118.95
826.994	38.74
827.172	-131.24
827.349	139.09
827.527	71.51
827.704	-12.46
827.882	53.08
828.059	-6.31
828.237	-43.18
828.414	91.99
828.591	-125.1
828.769	22.36
828.946	-51.37
829.124	75.6
829.301	18.26
829.478	-26.79
829.655	-86.19
829.833	-82.09
830.01	-88.23
830.187	28.5
830.364	67.41
830.542	-6.31
830.719	157.52
830.896	38.74
831.073	-53.42
831.25	38.74
831.427	79.7
831.604	-16.55
831.782	-127.14
831.959	1.88
832.136	-28.84
832.313	59.22
832.49	42.84
832.667	-34.99
832.844	-32.94
833.021	112.47
833.198	-49.32
833.374	65.36
833.551	24.4
833.728	-30.89
833.905	114.52
834.082	-149.67
834.259	61.27
834.436	130.9
834.612	-8.36
834.789	106.32
834.966	-4.27
835.143	59.22
835.319	-106.67
835.496	44.88
835.673	51.03
835.85	71.51
836.026	48.98
836.203	108.37
836.38	-43.18
836.556	5.97
836.733	18.26
836.909	73.56
837.086	-16.55
837.262	-84.14
837.439	-51.37
837.616	-82.09
837.792	-67.75
837.968	61.27
838.145	-143.53
838.321	-24.75
838.498	30.55
838.674	38.74
838.851	24.4
839.027	-65.71
839.203	42.84
839.38	67.41
839.556	20.31
839.732	79.7
839.909	-41.13
840.085	12.12
840.261	-77.99
840.437	44.88
840.614	-98.47
840.79	73.56
840.966	-12.46
841.142	79.7
841.318	-125.1
841.494	5.97
841.671	71.51
841.847	-69.8
842.023	-32.94
842.199	71.51
842.375	12.12
842.551	-137.38
842.727	-59.56
842.903	126.8
843.079	-0.17
843.255	91.99
843.431	8.02
843.607	32.6
843.783	-223.4
843.959	46.93
844.134	-108.71
844.31	83.8
844.486	-65.71
844.662	-80.04
844.838	-22.7
845.013	120.66
845.189	18.26
845.365	18.26
845.541	-32.94
845.716	-20.65
845.892	42.84
846.068	-24.75
846.244	-14.51
846.419	-39.08
846.595	-41.13
846.77	-63.66
846.946	75.6
847.122	-12.46
847.297	10.07
847.473	81.75
847.648	-100.52
847.824	-49.32
847.999	-82.09
848.175	-41.13
848.35	-4.27
848.526	46.93
848.701	42.84
848.876	30.55
849.052	104.28
849.227	-37.03
849.403	-57.51
849.578	28.5
849.753	-2.22
849.929	8.02
850.104	-53.42
850.279	-47.27
850.454	-43.18
850.63	20.31
850.805	-14.51
850.98	-43.18
851.155	5.97
851.33	55.12
851.505	-26.79
851.681	108.37
851.856	-32.94
852.031	20.31
852.206	40.79
852.381	-34.99
852.556	42.84
852.731	-47.27
852.906	55.12
853.081	12.12
853.256	112.47
853.431	-100.52
853.606	-2.22
853.781	22.36
853.956	-110.76
854.131	14.17
854.305	-24.75
854.48	10.07
854.655	-6.31
854.83	20.31
855.005	-10.41
855.18	-55.47
855.354	-37.03
855.529	-0.17
855.704	-12.46
855.879	28.5
856.053	-20.65
856.228	77.65
856.403	-174.25
856.577	30.55
856.752	-127.14
856.926	1.88
857.101	-10.41
857.276	-116.9
857.45	63.32
857.625	8.02
857.799	59.22
857.974	69.46
858.148	-98.47
858.323	-2.22
858.497	22.36
858.672	-88.23
858.846	-49.32
859.02	-22.7
859.195	-20.65
859.369	40.79
859.543	8.02
859.718	-69.8
859.892	42.84
860.066	-18.6
860.241	-45.23
860.415	-59.56
860.589	-32.94
860.763	-14.51
860.938	-4.27
861.112	65.36
861.286	-28.84
861.46	-94.38
861.634	-73.9
861.808	65.36
861.982	-14.51
862.157	-108.71
862.331	-57.51
862.505	-14.51
862.679	-77.99
862.853	-34.99
863.027	5.97
863.201	126.8
863.375	-96.43
863.549	-14.51
863.722	8.02
863.896	102.23
864.07	-28.84
864.244	30.55
864.418	18.26
864.592	-0.17
864.766	22.36
864.939	-20.65
865.113	-71.85
865.287	85.84
865.461	-123.05
865.634	61.27
865.808	51.03
865.982	-75.95
866.156	-24.75
866.329	-90.28
866.503	-24.75
866.676	44.88
866.85	-20.65
867.024	-26.79
867.197	3.93
867.371	83.8
867.544	55.12
867.718	-92.33
867.891	57.17
868.065	-102.57
868.238	-4.27
868.412	1.88
868.585	24.4
868.759	-100.52
868.932	-41.13
869.105	-55.47
869.279	46.93
869.452	-84.14
869.625	26.45
869.799	-57.51
869.972	-67.75
870.145	-28.84
870.319	89.94
870.492	-28.84
870.665	-24.75
870.838	-39.08
871.011	-114.86
871.185	8.02
871.358	-34.99
871.531	14.17
871.704	-57.51
871.877	32.6
872.05	-114.86
872.223	-59.56
872.396	30.55
872.569	-4.27
872.742	-12.46
872.915	44.88
873.088	-24.75
873.261	-98.47
873.434	14.17
873.607	-45.23
873.78	112.47
873.953	-69.8
874.126	-12.46
874.299	81.75
874.471	-77.99
874.644	22.36
874.817	16.21
874.99	69.46
875.163	-45.23
875.335	61.27
875.508	-34.99
875.681	116.56
875.853	-22.7
876.026	-6.31
876.199	108.37
876.371	-37.03
876.544	-14.51
876.717	77.65
876.889	-6.31
877.062	-2.22
877.234	-125.1
877.407	-51.37
877.579	-6.31
877.752	-2.22
877.924	-28.84
878.097	-12.46
878.269	-18.6
878.442	36.69
878.614	22.36
878.786	-12.46
878.959	-4.27
879.131	59.22
879.303	-92.33
879.476	-49.32
879.648	44.88
879.82	-73.9
879.993	14.17
880.165	-53.42
880.337	-22.7
880.509	20.31
880.681	-123.05
880.854	-24.75
881.026	34.64
881.198	112.47
881.37	16.21
881.542	-20.65
881.714	-2.22
881.886	-20.65
882.058	-2.22
882.23	-28.84
882.402	-22.7
882.574	12.12
882.746	-32.94
882.918	135
883.09	10.07
883.262	-47.27
883.434	-86.19
883.606	-112.81
883.778	-82.09
883.95	108.37
884.122	-51.37
884.293	1.88
884.465	1.88
884.637	98.13
884.809	-4.27
884.98	71.51
885.152	-28.84
885.324	42.84
885.496	-110.76
885.667	-98.47
885.839	-55.47
886.011	116.56
886.182	10.07
886.354	38.74
886.525	32.6
886.697	28.5
886.869	-39.08
887.04	-55.47
887.212	120.66
887.383	141.14
887.555	-8.36
887.726	-65.71
887.897	-69.8
888.069	118.61
888.24	10.07
888.412	-24.75
888.583	46.93
888.754	-125.1
888.926	-110.76
889.097	-55.47
889.268	-71.85
889.44	-24.75
889.611	-55.47
889.782	-39.08
889.953	-108.71
890.125	-20.65
890.296	-161.96
890.467	-100.52
890.638	-77.99
890.809	-82.09
890.98	-98.47
891.151	28.5
891.323	51.03
891.494	-37.03
891.665	-32.94
891.836	-69.8
892.007	24.4
892.178	-37.03
892.349	71.51
892.52	-80.04
892.691	10.07
892.862	-65.71
893.032	-63.66
893.203	-39.08
893.374	110.42
893.545	77.65
893.716	-92.33
893.887	42.84
894.057	42.84
894.228	-43.18
894.399	-18.6
894.57	22.36
894.74	-2.22
894.911	83.8
895.082	-26.79
895.253	-63.66
895.423	18.26
895.594	61.27
895.764	-47.27
895.935	-77.99
896.106	143.19
896.276	-57.51
896.447	-55.47
896.617	-116.9
896.788	-96.43
896.958	-39.08
897.129	-39.08
897.299	-118.95
897.47	69.46
897.64	42.84
897.81	-26.79
897.981	46.93
898.151	-92.33
898.322	65.36
898.492	83.8
898.662	-34.99
898.832	-61.61
899.003	-51.37
899.173	34.64
899.343	-86.19
899.513	-129.19
