Data from USB4F104151__263__11-20-27-233.txt Node

Date: Wed Feb 26 11:20:27 EST 2025
User: louis
Spectrometer: USB4F10415
Trigger mode: 4
Integration Time (sec): 1.000000E-1
Scans to average: 1
Electric dark correction enabled: true
Nonlinearity correction enabled: false
Boxcar width: 0
XAxis mode: Wavelengths
Number of Pixels in Spectrum: 3648
>>>>>Begin Spectral Data<<<<<
178.204	-384.34
178.424	-384.34
178.644	-384.34
178.864	-386.38
179.084	-388.43
179.304	-46.42
179.524	-48.47
179.744	12.97
179.964	68.27
180.184	-17.75
180.404	43.69
180.624	27.31
180.844	-71
181.064	-27.99
181.283	12.97
181.503	-13.65
181.723	60.07
181.943	-73.04
182.163	217.77
182.383	-7.51
182.602	-17.75
182.822	168.62
183.042	119.46
183.262	25.26
183.482	-23.89
183.701	0.68
183.921	-19.8
184.141	27.31
184.361	31.4
184.58	58.03
184.8	49.83
185.02	49.83
185.239	127.66
185.459	90.79
185.679	176.81
185.898	-124.24
186.118	47.79
186.338	6.83
186.557	17.07
186.777	-58.71
186.997	88.75
187.216	-17.75
187.436	215.72
187.655	109.22
187.875	19.11
188.095	-11.61
188.314	103.08
188.534	160.42
188.753	-25.94
188.973	121.51
189.192	164.52
189.412	2.73
189.631	27.31
189.851	123.56
190.07	207.53
190.29	-40.28
190.509	25.26
190.729	8.87
190.948	146.09
191.168	258.73
191.387	92.84
191.607	64.17
191.826	96.94
192.045	2.73
192.265	-15.7
192.484	74.41
192.704	27.31
192.923	-124.24
193.142	119.46
193.362	109.22
193.581	105.13
193.8	98.99
194.02	49.83
194.239	43.69
194.458	64.17
194.678	90.79
194.897	21.16
195.116	115.37
195.335	70.31
195.555	39.59
195.774	-34.13
195.993	113.32
196.212	53.93
196.432	33.45
196.651	4.78
196.87	35.5
197.089	277.16
197.308	29.35
197.528	41.64
197.747	-15.7
197.966	27.31
198.185	195.24
198.404	-58.71
198.623	115.37
198.842	45.74
199.062	111.27
199.281	62.12
199.5	29.35
199.719	41.64
199.938	88.75
200.157	96.94
200.376	94.89
200.595	111.27
200.814	-25.94
201.033	-48.47
201.252	111.27
201.471	0.68
201.69	35.5
201.909	68.27
202.128	43.69
202.347	66.22
202.566	19.11
202.785	-130.39
203.004	10.92
203.223	238.25
203.442	19.11
203.661	-42.32
203.879	133.8
204.098	117.42
204.317	-75.09
204.536	144.04
204.755	88.75
204.974	109.22
205.193	35.5
205.411	131.75
205.63	23.21
205.849	10.92
206.068	-54.61
206.287	-9.56
206.505	195.24
206.724	27.31
206.943	-81.24
207.162	-62.8
207.381	47.79
207.599	-1.37
207.818	103.08
208.037	-23.89
208.255	-3.41
208.474	21.16
208.693	74.41
208.911	6.83
209.13	113.32
209.349	98.99
209.567	121.51
209.786	55.98
210.005	131.75
210.223	88.75
210.442	-58.71
210.661	39.59
210.879	43.69
211.098	-9.56
211.316	17.07
211.535	80.55
211.753	31.4
211.972	60.07
212.191	-27.99
212.409	-13.65
212.628	53.93
212.846	-38.23
213.065	64.17
213.283	78.51
213.502	41.64
213.72	27.31
213.938	4.78
214.157	41.64
214.375	146.09
214.594	-58.71
214.812	90.79
215.031	45.74
215.249	66.22
215.467	-17.75
215.686	27.31
215.904	109.22
216.122	45.74
216.341	72.36
216.559	53.93
216.778	84.65
216.996	144.04
217.214	45.74
217.432	31.4
217.651	15.02
217.869	10.92
218.087	6.83
218.306	-9.56
218.524	2.73
218.742	-21.85
218.96	-11.61
219.179	125.61
219.397	-15.7
219.615	103.08
219.833	60.07
220.051	27.31
220.27	111.27
220.488	21.16
220.706	86.7
220.924	-40.28
221.142	51.88
221.36	72.36
221.578	19.11
221.796	41.64
222.015	51.88
222.233	45.74
222.451	107.18
222.669	2.73
222.887	96.94
223.105	4.78
223.323	15.02
223.541	-11.61
223.759	35.5
223.977	-9.56
224.195	197.29
224.413	137.9
224.631	98.99
224.849	105.13
225.067	211.62
225.285	64.17
225.503	8.87
225.721	-60.76
225.939	62.12
226.157	25.26
226.375	219.82
226.592	2.73
226.81	72.36
227.028	88.75
227.246	68.27
227.464	78.51
227.682	90.79
227.9	98.99
228.117	-5.46
228.335	76.46
228.553	15.02
228.771	-46.42
228.989	10.92
229.206	131.75
229.424	-25.94
229.642	4.78
229.86	-73.04
230.077	115.37
230.295	41.64
230.513	117.42
230.731	-5.46
230.948	174.76
231.166	137.9
231.384	-13.65
231.601	-73.04
231.819	182.95
232.037	-25.94
232.254	-25.94
232.472	35.5
232.689	19.11
232.907	127.66
233.125	-25.94
233.342	-15.7
233.56	0.68
233.777	17.07
233.995	-13.65
234.213	43.69
234.43	10.92
234.648	115.37
234.865	37.55
235.083	88.75
235.3	51.88
235.518	98.99
235.735	211.62
235.953	6.83
236.17	41.64
236.388	49.83
236.605	21.16
236.822	74.41
237.04	76.46
237.257	29.35
237.475	-19.8
237.692	43.69
237.909	45.74
238.127	-3.41
238.344	4.78
238.562	39.59
238.779	-11.61
238.996	-34.13
239.214	68.27
239.431	156.33
239.648	-1.37
239.865	98.99
240.083	55.98
240.3	-68.95
240.517	6.83
240.735	21.16
240.952	84.65
241.169	55.98
241.386	78.51
241.603	49.83
241.821	-32.08
242.038	123.56
242.255	191.14
242.472	-44.37
242.689	62.12
242.907	98.99
243.124	109.22
243.341	39.59
243.558	-64.85
243.775	-128.34
243.992	-5.46
244.209	92.84
244.426	72.36
244.643	23.21
244.86	41.64
245.078	103.08
245.295	-21.85
245.512	-1.37
245.729	-1.37
245.946	37.55
246.163	64.17
246.38	4.78
246.597	2.73
246.814	39.59
247.031	96.94
247.248	10.92
247.464	55.98
247.681	60.07
247.898	43.69
248.115	-11.61
248.332	-27.99
248.549	58.03
248.766	180.9
248.983	76.46
249.2	72.36
249.417	139.94
249.633	-34.13
249.85	58.03
250.067	64.17
250.284	23.21
250.501	47.79
250.717	68.27
250.934	-36.18
251.151	64.17
251.368	47.79
251.585	6.83
251.801	23.21
252.018	-66.9
252.235	168.62
252.451	-93.52
252.668	6.83
252.885	94.89
253.102	41.64
253.318	-3.41
253.535	43.69
253.752	-1.37
253.968	-23.89
254.185	19.11
254.401	68.27
254.618	10.92
254.835	-75.09
255.051	53.93
255.268	105.13
255.484	176.81
255.701	35.5
255.917	103.08
256.134	35.5
256.351	6.83
256.567	-17.75
256.784	-15.7
257	-81.24
257.217	-17.75
257.433	121.51
257.65	70.31
257.866	111.27
258.082	-44.37
258.299	-54.61
258.515	58.03
258.732	2.73
258.948	-13.65
259.165	10.92
259.381	-62.8
259.597	66.22
259.814	45.74
260.03	17.07
260.246	10.92
260.463	94.89
260.679	96.94
260.895	33.45
261.112	51.88
261.328	2.73
261.544	-5.46
261.761	86.7
261.977	-9.56
262.193	-27.99
262.409	107.18
262.626	90.79
262.842	35.5
263.058	-52.56
263.274	80.55
263.49	-11.61
263.707	66.22
263.923	103.08
264.139	-87.38
264.355	74.41
264.571	154.28
264.787	121.51
265.004	94.89
265.22	33.45
265.436	-46.42
265.652	2.73
265.868	37.55
266.084	-52.56
266.3	-32.08
266.516	-77.14
266.732	35.5
266.948	2.73
267.164	12.97
267.38	70.31
267.596	78.51
267.812	211.62
268.028	53.93
268.244	-23.89
268.46	-27.99
268.676	-7.51
268.892	17.07
269.108	51.88
269.324	-56.66
269.54	-75.09
269.756	88.75
269.972	-56.66
270.188	123.56
270.403	-116.05
270.619	33.45
270.835	88.75
271.051	-23.89
271.267	-60.76
271.483	66.22
271.698	84.65
271.914	96.94
272.13	39.59
272.346	-1.37
272.562	51.88
272.777	105.13
272.993	82.6
273.209	-71
273.425	21.16
273.64	-132.44
273.856	41.64
274.072	-25.94
274.287	29.35
274.503	101.03
274.719	37.55
274.934	2.73
275.15	-116.05
275.366	-7.51
275.581	-42.32
275.797	37.55
276.012	60.07
276.228	43.69
276.444	39.59
276.659	117.42
276.875	-48.47
277.09	-7.51
277.306	113.32
277.521	12.97
277.737	31.4
277.952	119.46
278.168	2.73
278.383	68.27
278.599	43.69
278.814	74.41
279.03	31.4
279.245	144.04
279.461	82.6
279.676	49.83
279.892	-58.71
280.107	-11.61
280.322	25.26
280.538	88.75
280.753	-7.51
280.969	60.07
281.184	76.46
281.399	146.09
281.615	2.73
281.83	98.99
282.045	-17.75
282.26	29.35
282.476	27.31
282.691	72.36
282.906	8.87
283.122	2.73
283.337	-3.41
283.552	74.41
283.767	-1.37
283.983	39.59
284.198	62.12
284.413	27.31
284.628	-101.72
284.843	39.59
285.058	35.5
285.274	-52.56
285.489	-77.14
285.704	164.52
285.919	-30.04
286.134	15.02
286.349	78.51
286.564	17.07
286.779	119.46
286.995	41.64
287.21	-42.32
287.425	82.6
287.64	23.21
287.855	70.31
288.07	-71
288.285	68.27
288.5	154.28
288.715	119.46
288.93	80.55
289.145	-81.24
289.36	78.51
289.575	8.87
289.79	133.8
290.004	15.02
290.219	94.89
290.434	29.35
290.649	-62.8
290.864	-21.85
291.079	4.78
291.294	12.97
291.509	76.46
291.724	55.98
291.938	15.02
292.153	88.75
292.368	101.03
292.583	31.4
292.798	39.59
293.012	90.79
293.227	78.51
293.442	-27.99
293.657	84.65
293.871	101.03
294.086	60.07
294.301	141.99
294.516	101.03
294.73	45.74
294.945	-58.71
295.16	86.7
295.374	115.37
295.589	105.13
295.804	19.11
296.018	39.59
296.233	162.47
296.447	98.99
296.662	0.68
296.877	137.9
297.091	68.27
297.306	45.74
297.52	-58.71
297.735	74.41
297.949	-21.85
298.164	19.11
298.378	12.97
298.593	29.35
298.807	55.98
299.022	43.69
299.236	176.81
299.451	15.02
299.665	17.07
299.88	6.83
300.094	17.07
300.309	19.11
300.523	62.12
300.737	70.31
300.952	92.84
301.166	51.88
301.381	-68.95
301.595	-50.52
301.809	58.03
302.024	55.98
302.238	-50.52
302.452	82.6
302.667	55.98
302.881	146.09
303.095	49.83
303.309	-7.51
303.524	45.74
303.738	-50.52
303.952	-30.04
304.166	58.03
304.381	-97.62
304.595	223.91
304.809	25.26
305.023	86.7
305.237	29.35
305.452	-75.09
305.666	107.18
305.88	82.6
306.094	96.94
306.308	-9.56
306.522	144.04
306.736	68.27
306.95	82.6
307.164	-38.23
307.379	-56.66
307.593	158.38
307.807	60.07
308.021	96.94
308.235	123.56
308.449	-46.42
308.663	27.31
308.877	236.2
309.091	-15.7
309.305	109.22
309.519	-111.96
309.733	201.38
309.947	-124.24
310.161	64.17
310.374	115.37
310.588	152.23
310.802	-62.8
311.016	29.35
311.23	29.35
311.444	-32.08
311.658	-48.47
311.872	156.33
312.085	127.66
312.299	221.86
312.513	152.23
312.727	27.31
312.941	-48.47
313.154	111.27
313.368	98.99
313.582	15.02
313.796	43.69
314.009	88.75
314.223	105.13
314.437	47.79
314.651	131.75
314.864	-13.65
315.078	35.5
315.292	-126.29
315.505	27.31
315.719	92.84
315.933	88.75
316.146	8.87
316.36	-32.08
316.573	125.61
316.787	15.02
317.001	6.83
317.214	-1.37
317.428	96.94
317.641	-77.14
317.855	-30.04
318.068	58.03
318.282	19.11
318.495	234.15
318.709	121.51
318.922	43.69
319.136	121.51
319.349	123.56
319.563	-25.94
319.776	41.64
319.99	-27.99
320.203	74.41
320.417	-68.95
320.63	-17.75
320.843	195.24
321.057	41.64
321.27	-44.37
321.483	23.21
321.697	49.83
321.91	12.97
322.124	12.97
322.337	17.07
322.55	-3.41
322.763	80.55
322.977	-48.47
323.19	2.73
323.403	23.21
323.617	78.51
323.83	133.8
324.043	-7.51
324.256	27.31
324.469	19.11
324.683	94.89
324.896	96.94
325.109	15.02
325.322	-79.19
325.535	-3.41
325.748	33.45
325.962	29.35
326.175	23.21
326.388	31.4
326.601	148.14
326.814	-32.08
327.027	-1.37
327.24	64.17
327.453	-40.28
327.666	19.11
327.879	178.86
328.092	119.46
328.305	43.69
328.518	10.92
328.731	-13.65
328.944	74.41
329.157	78.51
329.37	-27.99
329.583	107.18
329.796	47.79
330.009	-58.71
330.222	86.7
330.435	90.79
330.648	92.84
330.861	74.41
331.073	29.35
331.286	84.65
331.499	17.07
331.712	-25.94
331.925	-3.41
332.138	-36.18
332.35	92.84
332.563	-42.32
332.776	166.57
332.989	-27.99
333.202	39.59
333.414	49.83
333.627	94.89
333.84	25.26
334.053	82.6
334.265	0.68
334.478	21.16
334.691	35.5
334.903	12.97
335.116	-54.61
335.329	58.03
335.541	6.83
335.754	211.62
335.966	-13.65
336.179	-3.41
336.392	82.6
336.604	-15.7
336.817	37.55
337.029	25.26
337.242	8.87
337.454	10.92
337.667	78.51
337.88	162.47
338.092	0.68
338.305	49.83
338.517	-19.8
338.729	78.51
338.942	88.75
339.154	-79.19
339.367	4.78
339.579	62.12
339.792	6.83
340.004	107.18
340.217	66.22
340.429	58.03
340.641	-83.28
340.854	-38.23
341.066	49.83
341.278	68.27
341.491	123.56
341.703	53.93
341.915	-48.47
342.128	146.09
342.34	94.89
342.552	-40.28
342.764	76.46
342.977	72.36
343.189	115.37
343.401	84.65
343.613	-114
343.826	2.73
344.038	-97.62
344.25	6.83
344.462	60.07
344.674	49.83
344.886	33.45
345.099	45.74
345.311	10.92
345.523	-3.41
345.735	-116.05
345.947	64.17
346.159	96.94
346.371	45.74
346.583	37.55
346.795	221.86
347.007	37.55
347.219	0.68
347.431	-23.89
347.643	103.08
347.855	12.97
348.067	96.94
348.279	-71
348.491	60.07
348.703	49.83
348.915	84.65
349.127	37.55
349.339	86.7
349.551	66.22
349.763	68.27
349.975	62.12
350.187	98.99
350.399	113.32
350.61	62.12
350.822	84.65
351.034	84.65
351.246	-13.65
351.458	62.12
351.669	76.46
351.881	123.56
352.093	53.93
352.305	58.03
352.517	23.21
352.728	62.12
352.94	103.08
353.152	17.07
353.363	-44.37
353.575	86.7
353.787	191.14
353.999	37.55
354.21	199.34
354.422	-11.61
354.633	10.92
354.845	-3.41
355.057	35.5
355.268	55.98
355.48	76.46
355.692	-81.24
355.903	141.99
356.115	10.92
356.326	-101.72
356.538	148.14
356.749	33.45
356.961	156.33
357.172	66.22
357.384	-48.47
357.595	193.19
357.807	-11.61
358.018	2.73
358.23	-17.75
358.441	211.62
358.653	84.65
358.864	-52.56
359.075	-17.75
359.287	21.16
359.498	98.99
359.709	129.7
359.921	-9.56
360.132	58.03
360.344	29.35
360.555	-91.48
360.766	60.07
360.977	53.93
361.189	72.36
361.4	23.21
361.611	92.84
361.823	72.36
362.034	78.51
362.245	-79.19
362.456	0.68
362.667	49.83
362.879	10.92
363.09	-23.89
363.301	115.37
363.512	-11.61
363.723	-38.23
363.935	-54.61
364.146	119.46
364.357	60.07
364.568	-9.56
364.779	-54.61
364.99	125.61
365.201	-46.42
365.412	123.56
365.623	-46.42
365.834	70.31
366.045	86.7
366.256	58.03
366.467	105.13
366.678	51.88
366.889	8.87
367.1	103.08
367.311	111.27
367.522	-99.67
367.733	90.79
367.944	66.22
368.155	62.12
368.366	107.18
368.577	119.46
368.788	154.28
368.999	8.87
369.209	82.6
369.42	217.77
369.631	217.77
369.842	6.83
370.053	35.5
370.264	96.94
370.474	-19.8
370.685	92.84
370.896	25.26
371.107	162.47
371.317	88.75
371.528	51.88
371.739	133.8
371.95	19.11
372.16	-3.41
372.371	-30.04
372.582	-91.48
372.792	96.94
373.003	84.65
373.214	45.74
373.424	103.08
373.635	-27.99
373.846	176.81
374.056	53.93
374.267	94.89
374.477	33.45
374.688	-56.66
374.898	45.74
375.109	94.89
375.319	109.22
375.53	103.08
375.74	152.23
375.951	68.27
376.161	41.64
376.372	109.22
376.582	39.59
376.793	72.36
377.003	4.78
377.214	29.35
377.424	33.45
377.635	-21.85
377.845	43.69
378.055	105.13
378.266	-42.32
378.476	82.6
378.686	10.92
378.897	23.21
379.107	80.55
379.317	88.75
379.528	-15.7
379.738	37.55
379.948	-91.48
380.158	43.69
380.369	-17.75
380.579	121.51
380.789	8.87
380.999	74.41
381.21	96.94
381.42	180.9
381.63	53.93
381.84	58.03
382.05	25.26
382.261	180.9
382.471	103.08
382.681	-23.89
382.891	160.42
383.101	-34.13
383.311	-5.46
383.521	-1.37
383.731	76.46
383.941	55.98
384.151	31.4
384.361	37.55
384.571	35.5
384.781	29.35
384.991	135.85
385.201	158.38
385.411	84.65
385.621	-9.56
385.831	53.93
386.041	72.36
386.251	105.13
386.461	129.7
386.671	-9.56
386.881	39.59
387.091	-1.37
387.301	117.42
387.511	19.11
387.72	27.31
387.93	82.6
388.14	-52.56
388.35	6.83
388.56	101.03
388.769	111.27
388.979	-3.41
389.189	-25.94
389.399	74.41
389.609	98.99
389.818	172.71
390.028	21.16
390.238	141.99
390.447	-7.51
390.657	94.89
390.867	4.78
391.076	-46.42
391.286	60.07
391.496	4.78
391.705	76.46
391.915	94.89
392.125	98.99
392.334	-42.32
392.544	172.71
392.753	74.41
392.963	19.11
393.172	74.41
393.382	-40.28
393.591	203.43
393.801	31.4
394.01	144.04
394.22	53.93
394.429	49.83
394.639	109.22
394.848	23.21
395.058	43.69
395.267	-15.7
395.477	88.75
395.686	-32.08
395.895	209.58
396.105	172.71
396.314	39.59
396.524	60.07
396.733	37.55
396.942	207.53
397.152	115.37
397.361	125.61
397.57	86.7
397.78	21.16
397.989	39.59
398.198	182.95
398.407	37.55
398.617	92.84
398.826	129.7
399.035	60.07
399.244	156.33
399.453	17.07
399.663	31.4
399.872	53.93
400.081	-50.52
400.29	96.94
400.499	-3.41
400.708	135.85
400.917	60.07
401.127	29.35
401.336	-44.37
401.545	152.23
401.754	43.69
401.963	49.83
402.172	21.16
402.381	-58.71
402.59	-52.56
402.799	49.83
403.008	133.8
403.217	137.9
403.426	2.73
403.635	-60.76
403.844	125.61
404.053	41.64
404.262	105.13
404.471	178.86
404.68	141.99
404.888	25.26
405.097	84.65
405.306	53.93
405.515	90.79
405.724	21.16
405.933	70.31
406.142	47.79
406.35	144.04
406.559	25.26
406.768	51.88
406.977	178.86
407.185	60.07
407.394	189.1
407.603	15.02
407.812	-36.18
408.02	76.46
408.229	-42.32
408.438	111.27
408.646	-54.61
408.855	23.21
409.064	150.18
409.272	70.31
409.481	25.26
409.69	-32.08
409.898	-58.71
410.107	141.99
410.315	53.93
410.524	33.45
410.733	90.79
410.941	21.16
411.15	101.03
411.358	141.99
411.567	86.7
411.775	66.22
411.984	62.12
412.192	64.17
412.401	-15.7
412.609	225.96
412.818	129.7
413.026	78.51
413.234	-9.56
413.443	68.27
413.651	47.79
413.86	107.18
414.068	170.66
414.276	98.99
414.485	51.88
414.693	180.9
414.901	223.91
415.11	96.94
415.318	78.51
415.526	103.08
415.734	170.66
415.943	66.22
416.151	144.04
416.359	72.36
416.567	141.99
416.776	62.12
416.984	62.12
417.192	141.99
417.4	25.26
417.608	19.11
417.817	-36.18
418.025	82.6
418.233	185
418.441	-32.08
418.649	-71
418.857	70.31
419.065	154.28
419.273	-5.46
419.481	12.97
419.689	39.59
419.897	8.87
420.105	6.83
420.313	115.37
420.521	88.75
420.729	166.57
420.937	2.73
421.145	-15.7
421.353	111.27
421.561	166.57
421.769	10.92
421.977	53.93
422.185	53.93
422.393	98.99
422.601	72.36
422.809	66.22
423.017	-5.46
423.224	45.74
423.432	43.69
423.64	64.17
423.848	201.38
424.056	17.07
424.263	113.32
424.471	178.86
424.679	146.09
424.887	-97.62
425.094	137.9
425.302	96.94
425.51	15.02
425.718	129.7
425.925	164.52
426.133	53.93
426.341	209.58
426.548	49.83
426.756	105.13
426.964	66.22
427.171	17.07
427.379	19.11
427.586	180.9
427.794	144.04
428.001	156.33
428.209	141.99
428.417	141.99
428.624	144.04
428.832	105.13
429.039	45.74
429.247	31.4
429.454	109.22
429.662	166.57
429.869	88.75
430.076	82.6
430.284	213.67
430.491	256.68
430.699	129.7
430.906	150.18
431.114	174.76
431.321	242.34
431.528	119.46
431.736	191.14
431.943	123.56
432.15	125.61
432.358	178.86
432.565	258.73
432.772	53.93
432.979	244.39
433.187	101.03
433.394	203.43
433.601	62.12
433.808	232.1
434.016	230.06
434.223	295.59
434.43	291.49
434.637	279.21
434.844	240.29
435.052	166.57
435.259	277.16
435.466	357.03
435.673	334.5
435.88	281.25
436.087	303.78
436.294	305.83
436.501	381.6
436.708	352.93
436.915	324.26
437.122	418.47
437.329	234.15
437.537	383.65
437.743	479.91
437.95	508.58
438.157	459.43
438.364	465.57
438.571	404.13
438.778	522.91
438.985	567.97
439.192	533.15
439.399	498.34
439.606	455.33
439.813	645.79
440.02	676.51
440.227	692.9
440.433	563.87
440.64	537.25
440.847	578.21
441.054	662.18
441.261	740
441.467	674.46
441.674	674.46
441.881	783.01
442.088	674.46
442.294	780.96
442.501	836.25
442.708	932.51
442.914	905.88
443.121	969.37
443.328	924.32
443.534	946.84
443.741	912.03
443.948	965.28
444.154	1106.59
444.361	1157.78
444.568	1086.11
444.774	1102.49
444.981	1077.91
445.187	1276.57
445.394	1286.81
445.6	1190.55
445.807	1454.74
446.013	1409.69
446.22	1376.92
446.426	1573.52
446.633	1673.87
446.839	1813.13
447.046	1641.11
447.252	1845.9
447.459	1854.09
447.665	1839.76
447.871	2042.51
448.078	2185.87
448.284	2067.08
448.491	2218.63
448.697	2409.09
448.903	2394.76
449.11	2357.89
449.316	2507.4
449.522	2710.15
449.728	2779.78
449.935	2849.41
450.141	2673.28
450.347	3013.24
450.553	2943.61
450.76	3041.92
450.966	3154.55
451.172	3371.64
451.378	3345.02
451.584	3605.11
451.791	3854.96
451.997	3869.3
452.203	4000.37
452.409	4065.9
452.615	4405.86
452.821	4258.41
453.027	4309.61
453.233	4901.47
453.44	4790.88
453.646	4897.38
453.852	5067.36
454.058	5284.44
454.264	5464.66
454.47	5874.26
454.676	5978.7
454.882	6513.22
455.088	6109.77
455.294	6410.82
455.5	6920.77
455.705	7359.03
455.911	7195.2
456.117	7500.34
456.323	7565.88
456.529	7793.2
456.735	8401.45
456.941	8602.15
457.147	8935.97
457.352	9284.12
457.558	9540.12
457.764	10002.96
457.97	10377.74
458.176	10445.32
458.381	11139.58
458.587	11414.01
458.793	12020.21
458.999	12044.79
459.204	13476.32
459.41	14080.47
459.616	13746.65
459.821	14655.95
460.027	15102.4
460.233	15774.14
460.438	16058.81
460.644	16824.75
460.85	17146.28
461.055	17537.44
461.261	18731.4
461.466	18373.01
461.672	18323.86
461.878	20500.85
462.083	20289.91
462.289	20967.79
462.494	21741.92
462.7	21791.07
462.905	22309.21
463.111	24191.29
463.316	25323.82
463.522	25729.31
463.727	26562.84
463.932	27287.82
464.138	27975.94
464.343	29507.82
464.549	29573.35
464.754	31305.93
464.959	32508.09
465.165	32594.11
465.37	32739.51
465.575	32800.95
465.781	34863.25
465.986	36182.15
466.191	35281.04
466.397	35948.68
466.602	35408.01
466.807	37173.36
467.012	37687.4
467.218	38160.48
467.423	38328.42
467.628	39901.26
467.833	41359.41
468.038	40579.14
468.244	39866.44
468.449	41902.12
468.654	41226.29
468.859	41039.93
469.064	41328.69
469.269	40161.35
469.474	40493.12
469.679	41318.45
469.885	40538.18
470.09	41216.05
470.295	41017.4
470.5	40085.57
470.705	40536.13
470.91	39493.71
471.115	38973.53
471.32	39968.84
471.525	39325.78
471.73	38459.49
471.935	38174.82
472.139	36843.64
472.344	36868.22
472.549	36544.64
472.754	35567.76
472.959	35131.54
473.164	33738.92
473.369	33087.67
473.574	34369.69
473.778	33794.21
473.983	33263.79
474.188	32602.3
474.393	30613.72
474.598	30957.78
474.802	30316.76
475.007	30040.29
475.212	29806.82
475.417	28647.67
475.621	28039.42
475.826	27517.19
476.031	26997.01
476.235	26374.42
476.44	26605.84
476.645	25911.58
476.849	25434.41
477.054	25139.5
477.259	24949.04
477.463	24785.2
477.668	23656.77
477.872	24015.16
478.077	23361.86
478.282	22526.29
478.486	22151.51
478.691	22118.75
478.895	21899.61
479.1	21971.29
479.304	21748.06
479.509	20859.24
479.713	21176.68
479.918	20765.04
480.122	20498.8
480.326	20246.9
480.531	20423.03
480.735	20152.7
480.94	19911.03
481.144	20386.16
481.348	19128.71
481.553	19214.73
481.757	18962.83
481.961	18944.39
482.166	19141
482.37	18870.67
482.574	18215.32
482.778	18387.35
482.983	18751.88
483.187	18164.12
483.391	18164.12
483.595	17965.46
483.8	17584.54
484.004	17826.2
484.208	17770.91
484.412	17514.91
484.616	17392.03
484.821	17217.96
485.025	16548.27
485.229	16683.44
485.433	16261.55
485.637	16429.49
485.841	15763.9
486.045	15731.13
486.249	15645.12
486.453	15364.54
486.657	14920.14
486.861	14961.09
487.065	14344.66
487.269	14672.33
487.473	13982.17
487.677	13928.92
487.881	13973.97
488.085	13455.84
488.289	13425.12
488.493	13048.29
488.697	13347.29
488.901	12939.75
489.105	12397.04
489.309	12304.88
489.512	12089.84
489.716	11901.43
489.92	11880.95
490.124	11471.36
490.328	11475.45
490.531	10891.78
490.735	10842.63
490.939	10517
491.143	10471.95
491.346	10330.64
491.55	10318.35
491.754	10201.61
491.958	9884.18
492.161	9896.47
492.365	9660.95
492.569	9282.08
492.772	9237.02
492.976	9194.01
493.18	9007.65
493.383	8905.25
493.587	8776.23
493.79	8878.63
493.994	8553
494.197	8264.24
494.401	8440.36
494.605	8356.4
494.808	8385.07
495.012	8208.94
495.215	8254
495.419	8215.09
495.622	7961.14
495.825	8016.43
496.029	7729.72
496.232	7903.79
496.436	7789.11
496.639	8153.65
496.843	7852.59
497.046	7795.25
497.249	7969.33
497.453	7967.28
497.656	7787.06
497.859	7823.92
498.063	8026.67
498.266	7694.9
498.469	7819.83
498.673	7758.39
498.876	7934.51
499.079	7832.12
499.282	7836.21
499.485	8315.44
499.689	8030.77
499.892	8196.65
500.095	8049.2
500.298	8249.9
500.501	7969.33
500.705	8358.44
500.908	8378.92
501.111	8374.83
501.314	8450.6
501.517	8688.17
501.72	8596.01
501.923	8616.49
502.126	8636.97
502.329	8913.44
502.532	8944.16
502.735	9036.32
502.938	9411.1
503.141	9314.84
503.344	9308.7
503.547	9636.38
503.75	9523.74
503.953	9730.58
504.156	9888.28
504.359	9828.88
504.562	9814.55
504.765	10433.04
504.968	10404.36
505.17	10623.5
505.373	10551.82
505.576	11067.91
505.779	11274.75
505.982	11155.97
506.185	11555.32
506.387	11618.81
506.59	11674.1
506.793	11956.72
506.996	12288.5
507.198	12845.54
507.401	12562.92
507.604	13097.44
507.807	13302.24
508.009	13224.42
508.212	13525.47
508.415	13879.77
508.617	14201.3
508.82	14823.88
509.022	14737.87
509.225	15163.84
509.428	15368.64
509.63	15708.6
509.833	15745.47
510.035	16691.63
510.238	16755.11
510.44	17027.49
510.643	17541.53
510.845	17904.03
511.048	18241.94
511.25	18864.52
511.453	18911.63
511.655	19884.41
511.858	19812.73
512.06	20341.11
512.262	20595.06
512.465	20908.4
512.667	21684.58
512.87	22139.22
513.072	22720.85
513.274	23351.62
513.477	23689.54
513.679	24168.76
513.881	24981.81
514.084	25481.51
514.286	25850.14
514.488	26126.62
514.69	26992.91
514.893	27666.69
515.095	27951.36
515.297	28705.01
515.499	29237.48
515.701	29960.42
515.904	30400.73
516.106	31064.27
516.308	31979.71
516.51	32647.35
516.712	33159.34
516.914	34048.16
517.116	34783.38
517.318	34900.12
517.52	35498.12
517.722	36227.2
517.925	37064.82
518.127	37709.93
518.329	38555.74
518.531	38578.27
518.733	39362.64
518.935	40499.26
519.136	40814.65
519.338	41695.28
519.54	42078.25
519.742	43094.04
519.944	43225.11
520.146	44042.25
520.348	45002.75
520.55	45324.28
520.752	45400.05
520.954	46360.55
521.155	46231.53
521.357	47519.7
521.559	47943.63
521.761	49119.17
521.963	48918.46
522.164	48893.89
522.366	49586.1
522.568	50474.92
522.77	50288.56
522.971	51494.81
523.173	50841.51
523.375	51507.1
523.576	51689.37
523.778	51994.51
523.98	52977.54
524.181	52971.39
524.383	52785.03
524.584	53778.29
524.786	53145.47
524.988	52756.36
525.189	53362.56
525.391	53682.04
525.592	53880.69
525.794	54017.91
525.995	53784.44
526.197	53530.49
526.398	53610.36
526.6	53679.99
526.801	53372.8
527.003	53342.08
527.204	53124.99
527.406	53450.62
527.607	53026.69
527.808	52981.63
528.01	51781.52
528.211	51910.55
528.412	52754.31
528.614	51994.51
528.815	51154.85
529.016	51290.01
529.218	50507.69
529.419	50313.13
529.62	49749.94
529.822	49653.68
530.023	48957.38
530.224	48697.28
530.425	48377.8
530.626	47595.48
530.828	46772.19
531.029	47345.62
531.23	46036.97
531.431	45639.67
531.632	45254.65
531.833	45324.28
532.035	44740.61
532.236	44042.25
532.437	43159.58
532.638	42870.81
532.839	42381.35
533.04	42072.1
533.241	40886.33
533.442	41265.21
533.643	39956.55
533.844	39837.77
534.045	39639.12
534.246	38297.7
534.447	38195.3
534.648	37793.9
534.849	37542
535.05	36487.29
535.251	36057.22
535.451	35692.68
535.652	35541.13
535.853	35215.51
536.054	34375.84
536.255	33947.81
536.456	33179.82
536.657	33577.13
536.857	32721.08
537.058	32139.46
537.259	31928.52
537.46	31445.19
537.66	30974.16
537.861	30658.77
538.062	30261.47
538.263	29702.37
538.463	29245.68
538.664	29272.3
538.865	28815.6
539.065	28342.52
539.266	27529.48
539.466	27771.14
539.667	26775.83
539.868	27160.84
540.068	26446.1
540.269	26407.19
540.469	25932.06
540.67	25674.02
540.87	25448.74
541.071	25151.79
541.271	24916.27
541.472	24752.43
541.672	24150.33
541.873	23710.02
542.073	23558.47
542.274	23277.9
542.474	23032.14
542.675	22677.84
542.875	22931.79
543.075	22331.73
543.276	21657.95
543.476	22311.25
543.676	21414.24
543.877	21225.83
544.077	21569.89
544.277	21043.56
544.478	20619.63
544.678	20781.42
544.878	20294
545.078	20154.74
545.279	20040.06
545.479	19325.32
545.679	19337.6
545.879	19030.41
546.079	18842
546.28	18610.57
546.48	18330
546.68	18211.22
546.88	18260.37
547.08	17996.18
547.28	17637.79
547.48	17152.42
547.68	17281.44
547.88	16929.19
548.081	16828.84
548.281	16468.4
548.481	15880.63
548.681	16245.17
548.881	16003.51
549.081	15616.44
549.28	15628.73
549.48	15479.23
549.68	14893.51
549.88	15010.25
550.08	14614.99
550.28	14596.56
550.48	14375.38
550.68	14242.26
550.88	13775.32
551.08	13877.72
551.279	13638.11
551.479	13375.97
551.679	13226.46
551.879	12945.89
552.079	12739.05
552.278	12599.79
552.478	12364.27
552.678	12138.99
552.878	12003.83
553.077	11753.98
553.277	11444.73
553.477	11688.44
553.676	11348.48
553.876	11155.97
554.076	11014.66
554.275	10584.59
554.475	10574.35
554.674	10560.01
554.874	10394.12
555.074	10070.55
555.273	10117.65
555.473	9847.32
555.672	9462.3
555.872	9605.66
556.071	9523.74
556.271	9044.51
556.47	8985.12
556.67	8849.96
556.869	8634.92
557.068	8708.65
557.268	8571.43
557.467	8217.13
557.667	8364.59
557.866	8192.56
558.065	7873.07
558.265	7686.71
558.464	7639.61
558.663	7592.5
558.863	7432.76
559.062	7283.26
559.261	7144
559.461	7311.93
559.66	6761.03
559.859	6779.46
560.058	6576.71
560.258	6517.32
560.457	6435.4
560.656	6597.19
560.855	6240.84
561.054	6218.32
561.253	6236.75
561.453	5980.75
561.652	5900.88
561.851	5798.48
562.05	5753.43
562.249	5511.77
562.448	5569.11
562.647	5403.22
562.846	5390.94
563.045	5479
563.244	5145.18
563.443	5243.48
563.642	5083.74
563.841	5073.5
564.04	4823.65
564.239	4895.33
564.438	4688.48
564.637	4692.58
564.836	4631.14
565.035	4639.33
565.234	4528.74
565.432	4432.49
565.631	4538.98
565.83	4375.14
566.029	4287.08
566.228	4223.59
566.427	4233.83
566.625	3994.22
566.824	4211.31
567.023	4020.85
567.222	3881.58
567.42	4008.56
567.619	3889.78
567.818	3713.65
568.016	3949.17
568.215	3627.64
568.414	3562.1
568.612	3508.85
568.811	3361.4
569.01	3486.33
569.208	3385.97
569.407	3535.48
569.605	3297.91
569.804	3353.21
570.002	3105.4
570.201	3074.68
570.4	2992.76
570.598	2974.33
570.797	3078.78
570.995	2810.5
571.193	2951.81
571.392	2929.28
571.59	2763.39
571.789	2882.17
571.987	2771.58
572.186	2726.53
572.384	2595.46
572.582	2585.22
572.781	2609.79
572.979	2398.85
573.177	2452.1
573.376	2486.92
573.574	2507.4
573.772	2314.89
573.971	2341.51
574.169	2204.3
574.367	2267.78
574.565	2116.23
574.763	2169.48
574.962	2122.38
575.16	2132.62
575.358	2069.13
575.556	2079.37
575.754	2024.08
575.952	1999.5
576.151	1944.2
576.349	2056.84
576.547	1870.48
576.745	1970.83
576.943	1876.62
577.141	1804.94
577.339	1735.31
577.537	1782.42
577.735	1817.23
577.933	1804.94
578.131	1589.91
578.329	1747.6
578.527	1483.41
578.725	1594
578.923	1483.41
579.121	1577.62
579.319	1419.92
579.516	1473.17
579.714	1669.78
579.912	1555.09
580.11	1309.33
580.308	1419.92
580.506	1360.53
580.704	1249.94
580.901	1288.85
581.099	1415.83
581.297	1297.05
581.495	1260.18
581.692	1135.26
581.89	1358.49
582.088	1260.18
582.285	1247.9
582.483	1225.37
582.681	1204.89
582.878	1172.12
583.076	1170.07
583.274	1145.5
583.471	1247.9
583.669	1051.29
583.866	987.8
584.064	1010.33
584.262	922.27
584.459	998.04
584.657	959.13
584.854	1067.67
585.052	1010.33
585.249	1030.81
585.447	1004.19
585.644	844.45
585.841	965.28
586.039	977.56
586.236	985.76
586.434	905.88
586.631	793.25
586.828	819.87
587.026	883.36
587.223	766.62
587.42	862.88
587.618	817.82
587.815	924.32
588.012	799.39
588.21	799.39
588.407	844.45
588.604	768.67
588.801	727.71
588.999	778.91
589.196	871.07
589.393	680.61
589.59	785.05
589.787	797.34
589.984	711.33
590.182	793.25
590.379	785.05
590.576	733.86
590.773	670.37
590.97	705.18
591.167	733.86
591.364	725.66
591.561	621.22
591.758	844.45
591.955	774.81
592.152	783.01
592.349	709.28
592.546	653.98
592.743	690.85
592.94	686.75
593.137	744.1
593.334	776.86
593.531	752.29
593.727	703.14
593.924	748.19
594.121	678.56
594.318	740
594.515	680.61
594.712	828.06
594.908	832.16
595.105	649.89
595.302	735.9
595.499	727.71
595.696	860.83
595.892	662.18
596.089	764.57
596.286	795.29
596.482	961.18
596.679	813.73
596.876	903.84
597.072	862.88
597.269	848.54
597.466	885.41
597.662	869.02
597.859	873.12
598.055	873.12
598.252	993.95
598.448	1118.87
598.645	1084.06
598.841	1225.37
599.038	1235.61
599.234	1229.46
599.431	1268.38
599.627	1251.99
599.824	1374.87
600.02	1325.72
600.217	1297.05
600.413	1530.52
600.609	1526.42
600.806	1876.62
601.002	1696.4
601.198	1645.2
601.395	1788.56
601.591	1905.29
601.787	1890.96
601.984	2151.05
602.18	2132.62
602.376	2159.24
602.572	2208.39
602.769	2335.37
602.965	2429.57
603.161	2507.4
603.357	2615.94
603.553	2697.86
603.75	2665.09
603.946	2740.86
604.142	2871.93
604.338	3097.21
604.534	3000.96
604.73	3127.93
604.926	3252.86
605.122	3545.72
605.318	3342.97
605.514	3711.6
605.71	3619.44
605.906	3926.64
606.102	3943.02
606.298	4119.15
606.494	4184.68
606.69	4332.14
606.886	4577.89
607.082	4538.98
607.278	4700.77
607.474	4880.99
607.67	4979.29
607.866	4893.28
608.062	5413.46
608.257	5403.22
608.453	5532.25
608.649	5616.21
608.845	5691.99
609.041	5796.43
609.236	6140.49
609.432	6277.71
609.628	6443.59
609.824	6599.24
610.019	6906.43
610.215	6859.33
610.411	7268.92
610.606	7426.62
610.802	7703.09
610.998	7701.05
611.193	8026.67
611.389	8118.83
611.584	8325.68
611.78	8374.83
611.976	8682.02
612.171	9112.1
612.367	9390.62
612.562	9511.45
612.758	9402.91
612.953	9859.6
613.149	10301.97
613.344	10449.42
613.539	10596.87
613.735	11098.63
613.93	11262.46
614.126	11592.19
614.321	11923.96
614.517	12247.54
614.712	12542.44
614.907	12638.7
615.103	13093.35
615.298	13304.29
615.493	13806.04
615.688	13887.96
615.884	14678.47
616.079	14602.7
616.274	15182.27
616.47	15413.7
616.665	15829.43
616.86	16300.47
617.055	16839.08
617.25	17033.64
617.445	17863.07
617.641	17885.59
617.836	18751.88
618.031	18332.05
618.226	19302.79
618.421	19767.68
618.616	20361.59
618.811	20398.45
619.006	21094.76
619.201	21248.36
619.396	22065.5
619.591	22171.99
619.786	23214.41
619.981	23107.91
620.176	24148.28
620.371	24371.51
620.566	25106.73
620.761	25655.59
620.956	26276.12
621.151	26108.19
621.346	27017.49
621.541	27201.8
621.735	28172.54
621.93	28061.95
622.125	28987.63
622.32	29315.31
622.515	30036.19
622.709	30628.06
622.904	31178.96
623.099	31314.12
623.294	32483.51
623.488	32514.23
623.683	33362.09
623.878	33507.5
624.072	34396.32
624.267	34869.4
624.462	35311.76
624.656	35924.1
624.851	36337.79
625.046	36810.87
625.24	37400.69
625.435	37451.89
625.629	38262.88
625.824	38850.65
626.018	39110.74
626.213	39327.83
626.407	40317
626.602	40366.15
626.796	41148.47
626.991	41465.91
627.185	41189.43
627.38	41926.7
627.574	42154.02
627.768	42133.54
627.963	42580
628.157	42440.74
628.352	43243.54
628.546	42246.18
628.74	43345.94
628.935	42385.44
629.129	42897.44
629.323	42078.25
629.517	42334.24
629.712	41969.71
629.906	41791.53
630.1	41289.78
630.294	41207.86
630.489	40591.42
630.683	40394.82
630.877	39213.14
631.071	38842.46
631.265	38344.8
631.459	38072.42
631.653	37073.01
631.848	35801.22
632.042	35352.72
632.236	34607.26
632.43	33407.15
632.624	32596.15
632.818	31690.95
633.012	30857.43
633.206	29815.01
633.4	29096.17
633.594	28045.57
633.788	27101.45
633.982	25899.3
634.176	25162.03
634.369	24353.08
634.563	23474.5
634.757	22188.38
634.951	21811.55
635.145	20959.59
635.339	20132.22
635.533	19251.59
635.726	18737.55
635.92	17682.84
636.114	16900.52
636.308	16302.51
636.501	15485.37
636.695	15053.25
636.889	14483.92
637.083	13902.29
637.276	13267.42
637.47	12657.13
637.664	12362.22
637.857	11796.98
638.051	11334.14
638.244	10609.16
638.438	10408.46
638.632	10000.91
638.825	9277.98
639.019	9191.97
639.212	8831.52
639.406	8561.19
639.599	7858.74
639.793	7778.87
639.986	7399.99
640.18	7162.43
640.373	6828.61
640.567	6711.88
640.76	6459.98
640.954	6232.65
641.147	5841.49
641.34	5700.18
641.534	5528.15
641.727	5243.48
641.92	5048.93
642.114	5034.59
642.307	4723.3
642.5	4532.84
642.694	4328.04
642.887	4203.11
643.08	4131.44
643.273	3871.34
643.467	3834.48
643.66	3433.08
643.853	3412.6
644.046	3314.3
644.239	3201.66
644.432	3060.35
644.626	2808.45
644.819	2749.06
645.012	2769.54
645.205	2712.19
645.398	2677.38
645.591	2429.57
645.784	2181.77
645.977	2224.78
646.17	2069.13
646.363	2087.56
646.556	1931.92
646.749	1872.53
646.942	1831.57
647.135	1825.42
647.328	1718.93
647.521	1680.02
647.714	1534.61
647.907	1514.13
648.099	1393.3
648.292	1499.8
648.485	1317.53
648.678	1276.57
648.871	1249.94
649.064	1249.94
649.256	1039
649.449	1006.24
649.642	1018.52
649.835	955.04
650.027	891.55
650.22	1102.49
650.413	873.12
650.605	889.5
650.798	873.12
650.991	854.69
651.183	776.86
651.376	862.88
651.568	848.54
651.761	785.05
651.954	748.19
652.146	647.84
652.339	756.38
652.531	709.28
652.724	619.17
652.916	553.63
653.109	400.04
653.301	651.94
653.494	541.35
653.686	561.83
653.879	684.7
654.071	484
654.263	467.62
654.456	387.75
654.648	533.15
654.84	545.44
655.033	426.66
655.225	549.54
655.417	381.6
655.61	504.48
655.802	481.96
655.994	459.43
656.186	273.06
656.379	502.43
656.571	295.59
656.763	328.36
656.955	275.11
657.148	383.65
657.34	527.01
657.532	324.26
657.724	324.26
657.916	377.51
658.108	293.54
658.3	375.46
658.492	330.41
658.684	232.1
658.876	277.16
659.068	254.63
659.26	158.38
659.452	264.87
659.644	252.58
659.836	322.21
660.028	230.06
660.22	137.9
660.412	271.01
660.604	225.96
660.796	223.91
660.988	256.68
661.18	273.06
661.372	240.29
661.563	180.9
661.755	228.01
661.947	117.42
662.139	27.31
662.331	225.96
662.522	191.14
662.714	154.28
662.906	23.21
663.097	215.72
663.289	172.71
663.481	47.79
663.673	252.58
663.864	168.62
664.056	193.19
664.247	137.9
664.439	254.63
664.631	174.76
664.822	211.62
665.014	162.47
665.205	96.94
665.397	74.41
665.588	162.47
665.78	244.39
665.971	201.38
666.163	117.42
666.354	164.52
666.546	74.41
666.737	133.8
666.929	197.29
667.12	82.6
667.311	187.05
667.503	158.38
667.694	131.75
667.885	113.32
668.077	244.39
668.268	55.98
668.459	139.94
668.651	103.08
668.842	150.18
669.033	162.47
669.224	25.26
669.416	268.97
669.607	111.27
669.798	76.46
669.989	225.96
670.18	88.75
670.371	125.61
670.563	60.07
670.754	150.18
670.945	170.66
671.136	125.61
671.327	58.03
671.518	234.15
671.709	305.83
671.9	170.66
672.091	207.53
672.282	168.62
672.473	176.81
672.664	10.92
672.855	111.27
673.046	127.66
673.237	152.23
673.428	101.03
673.619	172.71
673.809	123.56
674	258.73
674.191	242.34
674.382	144.04
674.573	113.32
674.764	62.12
674.954	160.42
675.145	94.89
675.336	119.46
675.527	98.99
675.717	107.18
675.908	135.85
676.099	96.94
676.289	185
676.48	21.16
676.671	139.94
676.861	162.47
677.052	219.82
677.243	58.03
677.433	148.14
677.624	174.76
677.814	164.52
678.005	78.51
678.195	193.19
678.386	37.55
678.576	174.76
678.767	51.88
678.957	154.28
679.148	170.66
679.338	213.67
679.529	230.06
679.719	60.07
679.909	185
680.1	221.86
680.29	217.77
680.481	68.27
680.671	195.24
680.861	195.24
681.052	144.04
681.242	27.31
681.432	199.34
681.622	178.86
681.813	98.99
682.003	158.38
682.193	17.07
682.383	164.52
682.573	256.68
682.764	55.98
682.954	174.76
683.144	301.73
683.334	135.85
683.524	131.75
683.714	232.1
683.904	168.62
684.094	123.56
684.284	213.67
684.474	352.93
684.664	240.29
684.854	193.19
685.044	162.47
685.234	160.42
685.424	176.81
685.614	129.7
685.804	303.78
685.994	221.86
686.184	103.08
686.374	199.34
686.564	197.29
686.753	129.7
686.943	96.94
687.133	254.63
687.323	88.75
687.513	158.38
687.702	127.66
687.892	141.99
688.082	295.59
688.272	238.25
688.461	262.82
688.651	350.89
688.841	191.14
689.03	117.42
689.22	101.03
689.41	193.19
689.599	213.67
689.789	96.94
689.979	350.89
690.168	158.38
690.358	268.97
690.547	201.38
690.737	242.34
690.926	236.2
691.116	285.35
691.305	242.34
691.495	199.34
691.684	162.47
691.874	133.8
692.063	246.44
692.252	148.14
692.442	303.78
692.631	103.08
692.82	121.51
693.01	228.01
693.199	172.71
693.388	236.2
693.578	123.56
693.767	223.91
693.956	250.53
694.146	170.66
694.335	203.43
694.524	182.95
694.713	189.1
694.902	187.05
695.092	84.65
695.281	279.21
695.47	168.62
695.659	199.34
695.848	182.95
696.037	166.57
696.226	158.38
696.415	158.38
696.604	219.82
696.793	232.1
696.982	141.99
697.171	309.93
697.36	55.98
697.549	166.57
697.738	45.74
697.927	129.7
698.116	17.07
698.305	199.34
698.494	129.7
698.683	119.46
698.872	318.12
699.061	154.28
699.25	211.62
699.438	115.37
699.627	101.03
699.816	324.26
700.005	41.64
700.193	96.94
700.382	244.39
700.571	248.49
700.76	96.94
700.948	191.14
701.137	256.68
701.326	201.38
701.514	58.03
701.703	228.01
701.892	225.96
702.08	293.54
702.269	193.19
702.457	133.8
702.646	172.71
702.834	150.18
703.023	354.98
703.212	236.2
703.4	141.99
703.589	158.38
703.777	103.08
703.965	33.45
704.154	72.36
704.342	131.75
704.531	199.34
704.719	187.05
704.907	242.34
705.096	76.46
705.284	82.6
705.472	129.7
705.661	133.8
705.849	225.96
706.037	228.01
706.226	154.28
706.414	113.32
706.602	176.81
706.79	193.19
706.979	92.84
707.167	144.04
707.355	68.27
707.543	166.57
707.731	232.1
707.919	193.19
708.107	168.62
708.296	70.31
708.484	68.27
708.672	213.67
708.86	170.66
709.048	176.81
709.236	148.14
709.424	230.06
709.612	191.14
709.8	103.08
709.988	111.27
710.176	250.53
710.364	268.97
710.551	182.95
710.739	129.7
710.927	168.62
711.115	135.85
711.303	197.29
711.491	217.77
711.679	60.07
711.866	113.32
712.054	80.55
712.242	213.67
712.43	289.45
712.617	141.99
712.805	221.86
712.993	242.34
713.181	8.87
713.368	185
713.556	213.67
713.744	189.1
713.931	332.45
714.119	187.05
714.306	121.51
714.494	174.76
714.682	225.96
714.869	47.79
715.057	139.94
715.244	103.08
715.432	201.38
715.619	137.9
715.807	201.38
715.994	146.09
716.182	232.1
716.369	283.3
716.556	223.91
716.744	96.94
716.931	72.36
717.119	170.66
717.306	195.24
717.493	191.14
717.681	146.09
717.868	137.9
718.055	217.77
718.242	154.28
718.43	150.18
718.617	232.1
718.804	174.76
718.991	240.29
719.179	197.29
719.366	285.35
719.553	193.19
719.74	144.04
719.927	225.96
720.114	146.09
720.301	144.04
720.488	170.66
720.676	150.18
720.863	277.16
721.05	299.69
721.237	248.49
721.424	322.21
721.611	187.05
721.798	121.51
721.985	133.8
722.172	187.05
722.358	260.77
722.545	289.45
722.732	195.24
722.919	262.82
723.106	203.43
723.293	223.91
723.48	225.96
723.667	98.99
723.853	318.12
724.04	205.48
724.227	277.16
724.414	139.94
724.6	170.66
724.787	201.38
724.974	383.65
725.161	176.81
725.347	236.2
725.534	219.82
725.72	223.91
725.907	275.11
726.094	232.1
726.28	152.23
726.467	219.82
726.653	82.6
726.84	332.45
727.027	385.7
727.213	185
727.4	248.49
727.586	154.28
727.773	242.34
727.959	170.66
728.145	217.77
728.332	205.48
728.518	129.7
728.705	244.39
728.891	254.63
729.077	146.09
729.264	144.04
729.45	146.09
729.636	262.82
729.823	234.15
730.009	338.6
730.195	156.33
730.382	244.39
730.568	170.66
730.754	223.91
730.94	178.86
731.126	146.09
731.313	262.82
731.499	197.29
731.685	334.5
731.871	203.43
732.057	238.25
732.243	303.78
732.429	234.15
732.615	322.21
732.801	230.06
732.987	197.29
733.173	246.44
733.359	158.38
733.545	264.87
733.731	148.14
733.917	328.36
734.103	322.21
734.289	254.63
734.475	172.71
734.661	344.74
734.847	199.34
735.033	228.01
735.219	258.73
735.404	197.29
735.59	187.05
735.776	141.99
735.962	266.92
736.148	180.9
736.333	291.49
736.519	205.48
736.705	82.6
736.89	225.96
737.076	242.34
737.262	135.85
737.447	172.71
737.633	211.62
737.819	336.55
738.004	162.47
738.19	225.96
738.375	234.15
738.561	303.78
738.747	178.86
738.932	137.9
739.118	293.54
739.303	246.44
739.489	293.54
739.674	248.49
739.859	107.18
740.045	295.59
740.23	268.97
740.416	49.83
740.601	234.15
740.786	219.82
740.972	230.06
741.157	193.19
741.342	225.96
741.528	182.95
741.713	404.13
741.898	158.38
742.084	101.03
742.269	199.34
742.454	279.21
742.639	238.25
742.824	172.71
743.01	291.49
743.195	275.11
743.38	170.66
743.565	182.95
743.75	225.96
743.935	264.87
744.12	285.35
744.305	217.77
744.49	182.95
744.675	193.19
744.86	170.66
745.045	205.48
745.23	287.4
745.415	230.06
745.6	260.77
745.785	98.99
745.97	260.77
746.155	271.01
746.34	244.39
746.525	185
746.71	264.87
746.895	141.99
747.079	53.93
747.264	187.05
747.449	201.38
747.634	248.49
747.819	215.72
748.003	162.47
748.188	131.75
748.373	242.34
748.557	166.57
748.742	230.06
748.927	240.29
749.111	207.53
749.296	174.76
749.481	158.38
749.665	156.33
749.85	109.22
750.034	172.71
750.219	176.81
750.404	90.79
750.588	209.58
750.773	203.43
750.957	178.86
751.141	115.37
751.326	250.53
751.51	82.6
751.695	166.57
751.879	98.99
752.064	213.67
752.248	152.23
752.432	223.91
752.617	187.05
752.801	279.21
752.985	137.9
753.17	258.73
753.354	189.1
753.538	129.7
753.722	109.22
753.907	121.51
754.091	98.99
754.275	185
754.459	4.78
754.643	58.03
754.828	127.66
755.012	158.38
755.196	66.22
755.38	170.66
755.564	107.18
755.748	107.18
755.932	230.06
756.116	264.87
756.3	213.67
756.484	131.75
756.668	230.06
756.852	0.68
757.036	209.58
757.22	193.19
757.404	141.99
757.588	41.64
757.772	47.79
757.956	250.53
758.14	242.34
758.323	27.31
758.507	164.52
758.691	2.73
758.875	215.72
759.059	211.62
759.242	88.75
759.426	117.42
759.61	107.18
759.794	174.76
759.977	125.61
760.161	393.89
760.345	260.77
760.528	199.34
760.712	160.42
760.895	139.94
761.079	64.17
761.263	19.11
761.446	88.75
761.63	125.61
761.813	201.38
761.997	74.41
762.18	117.42
762.364	113.32
762.547	21.16
762.731	29.35
762.914	131.75
763.098	189.1
763.281	101.03
763.464	78.51
763.648	123.56
763.831	72.36
764.015	66.22
764.198	158.38
764.381	101.03
764.564	98.99
764.748	84.65
764.931	92.84
765.114	123.56
765.297	123.56
765.481	33.45
765.664	103.08
765.847	37.55
766.03	172.71
766.213	-42.32
766.397	90.79
766.58	-21.85
766.763	103.08
766.946	68.27
767.129	86.7
767.312	-1.37
767.495	115.37
767.678	88.75
767.861	6.83
768.044	148.14
768.227	139.94
768.41	47.79
768.593	55.98
768.776	84.65
768.959	101.03
769.142	70.31
769.324	15.02
769.507	80.55
769.69	66.22
769.873	78.51
770.056	209.58
770.239	31.4
770.421	150.18
770.604	137.9
770.787	15.02
770.97	60.07
771.152	33.45
771.335	66.22
771.518	125.61
771.7	178.86
771.883	174.76
772.066	123.56
772.248	70.31
772.431	62.12
772.613	84.65
772.796	58.03
772.978	43.69
773.161	141.99
773.343	43.69
773.526	-19.8
773.708	10.92
773.891	-32.08
774.073	47.79
774.256	47.79
774.438	215.72
774.621	53.93
774.803	137.9
774.985	62.12
775.168	105.13
775.35	60.07
775.532	127.66
775.715	0.68
775.897	27.31
776.079	21.16
776.261	92.84
776.444	12.97
776.626	49.83
776.808	109.22
776.99	-19.8
777.173	43.69
777.355	80.55
777.537	47.79
777.719	17.07
777.901	131.75
778.083	27.31
778.265	-17.75
778.447	68.27
778.629	-71
778.811	15.02
778.993	148.14
779.175	51.88
779.357	19.11
779.539	25.26
779.721	29.35
779.903	94.89
780.085	-64.85
780.267	-46.42
780.449	86.7
780.631	58.03
780.812	117.42
780.994	23.21
781.176	76.46
781.358	-1.37
781.54	35.5
781.721	109.22
781.903	131.75
782.085	19.11
782.267	182.95
782.448	-66.9
782.63	-15.7
782.812	64.17
782.993	129.7
783.175	84.65
783.357	2.73
783.538	90.79
783.72	-56.66
783.901	80.55
784.083	117.42
784.264	64.17
784.446	-79.19
784.627	10.92
784.809	109.22
784.99	-50.52
785.172	76.46
785.353	60.07
785.535	-25.94
785.716	-38.23
785.897	-34.13
786.079	-73.04
786.26	-68.95
786.441	2.73
786.623	4.78
786.804	15.02
786.985	21.16
787.167	58.03
787.348	-11.61
787.529	33.45
787.71	156.33
787.891	96.94
788.073	-15.7
788.254	-44.37
788.435	164.52
788.616	2.73
788.797	-9.56
788.978	8.87
789.159	19.11
789.34	23.21
789.522	82.6
789.703	-50.52
789.884	82.6
790.065	84.65
790.246	129.7
790.427	-9.56
790.607	105.13
790.788	12.97
790.969	37.55
791.15	39.59
791.331	12.97
791.512	33.45
791.693	-27.99
791.874	-23.89
792.054	123.56
792.235	37.55
792.416	-77.14
792.597	-50.52
792.778	125.61
792.958	35.5
793.139	117.42
793.32	25.26
793.5	-34.13
793.681	156.33
793.862	53.93
794.042	2.73
794.223	51.88
794.404	-27.99
794.584	-116.05
794.765	-50.52
794.945	-5.46
795.126	-34.13
795.306	139.94
795.487	23.21
795.667	-1.37
795.848	45.74
796.028	31.4
796.209	64.17
796.389	109.22
796.57	27.31
796.75	-66.9
796.93	68.27
797.111	-25.94
797.291	-13.65
797.471	64.17
797.652	47.79
797.832	-21.85
798.012	47.79
798.192	-9.56
798.373	-27.99
798.553	25.26
798.733	-1.37
798.913	-11.61
799.093	-3.41
799.274	96.94
799.454	78.51
799.634	51.88
799.814	27.31
799.994	17.07
800.174	92.84
800.354	29.35
800.534	-54.61
800.714	82.6
800.894	-68.95
801.074	-68.95
801.254	-36.18
801.434	84.65
801.614	-27.99
801.794	-54.61
801.974	1788.56
802.154	-89.43
802.334	119.46
802.514	-23.89
802.693	43.69
802.873	-54.61
803.053	88.75
803.233	-11.61
803.413	29.35
803.592	31.4
803.772	-23.89
803.952	0.68
804.131	-173.39
804.311	49.83
804.491	72.36
804.67	-107.86
804.85	-48.47
805.03	84.65
805.209	137.9
805.389	37.55
805.568	-60.76
805.748	70.31
805.928	23.21
806.107	101.03
806.287	-46.42
806.466	62.12
806.646	-54.61
806.825	-36.18
807.004	-9.56
807.184	-7.51
807.363	-15.7
807.543	49.83
807.722	-7.51
807.901	131.75
808.081	37.55
808.26	-120.15
808.439	12.97
808.619	15.02
808.798	-68.95
808.977	43.69
809.156	96.94
809.336	-52.56
809.515	96.94
809.694	-75.09
809.873	-58.71
810.052	15.02
810.231	-3.41
810.411	82.6
810.59	27.31
810.769	-9.56
810.948	119.46
811.127	-173.39
811.306	-44.37
811.485	-62.8
811.664	133.8
811.843	86.7
812.022	25.26
812.201	-46.42
812.38	39.59
812.559	-13.65
812.737	111.27
812.916	-38.23
813.095	-54.61
813.274	37.55
813.453	58.03
813.632	117.42
813.811	0.68
813.989	-66.9
814.168	6.83
814.347	-73.04
814.526	25.26
814.704	105.13
814.883	68.27
815.062	-99.67
815.24	78.51
815.419	-11.61
815.598	70.31
815.776	-91.48
815.955	0.68
816.133	-157.01
816.312	-23.89
816.49	-7.51
816.669	-1.37
816.847	10.92
817.026	2.73
817.204	29.35
817.383	-36.18
817.561	-38.23
817.74	-42.32
817.918	27.31
818.097	-40.28
818.275	-11.61
818.453	-17.75
818.632	92.84
818.81	21.16
818.988	-89.43
819.167	12.97
819.345	-83.28
819.523	-21.85
819.701	-25.94
819.879	74.41
820.058	25.26
820.236	43.69
820.414	15.02
820.592	33.45
820.77	17.07
820.948	-40.28
821.127	-99.67
821.305	-1.37
821.483	-9.56
821.661	103.08
821.839	49.83
822.017	-134.48
822.195	-64.85
822.373	45.74
822.551	21.16
822.729	15.02
822.907	47.79
823.085	4.78
823.262	-5.46
823.44	-62.8
823.618	-7.51
823.796	-13.65
823.974	-107.86
824.152	-3.41
824.329	49.83
824.507	-27.99
824.685	133.8
824.863	0.68
825.04	35.5
825.218	70.31
825.396	37.55
825.574	6.83
825.751	-27.99
825.929	-1.37
826.107	-46.42
826.284	0.68
826.462	21.16
826.639	-99.67
826.817	-36.18
826.994	2.73
827.172	-142.68
827.349	119.46
827.527	-21.85
827.704	-7.51
827.882	86.7
828.059	-3.41
828.237	4.78
828.414	70.31
828.591	-111.96
828.769	21.16
828.946	-30.04
829.124	19.11
829.301	117.42
829.478	8.87
829.655	41.64
829.833	-13.65
830.01	-175.44
830.187	-15.7
830.364	8.87
830.542	27.31
830.719	121.51
830.896	10.92
831.073	-40.28
831.25	-21.85
831.427	2.73
831.604	43.69
831.782	-62.8
831.959	29.35
832.136	-27.99
832.313	23.21
832.49	-87.38
832.667	49.83
832.844	-52.56
833.021	90.79
833.198	35.5
833.374	19.11
833.551	-1.37
833.728	-56.66
833.905	6.83
834.082	-30.04
834.259	19.11
834.436	90.79
834.612	-48.47
834.789	-21.85
834.966	-34.13
835.143	-30.04
835.319	-83.28
835.496	103.08
835.673	6.83
835.85	37.55
836.026	31.4
836.203	121.51
836.38	-36.18
836.556	-68.95
836.733	-30.04
836.909	31.4
837.086	6.83
837.262	-95.57
837.439	29.35
837.616	-62.8
837.792	-64.85
837.968	121.51
838.145	-71
838.321	-42.32
838.498	37.55
838.674	-3.41
838.851	41.64
839.027	-30.04
839.203	58.03
839.38	98.99
839.556	21.16
839.732	135.85
839.909	39.59
840.085	60.07
840.261	-77.14
840.437	37.55
840.614	-40.28
840.79	53.93
840.966	-15.7
841.142	74.41
841.318	-38.23
841.494	-1.37
841.671	21.16
841.847	-23.89
842.023	-116.05
842.199	12.97
842.375	60.07
842.551	-101.72
842.727	-75.09
842.903	107.18
843.079	-68.95
843.255	84.65
843.431	-27.99
843.607	51.88
843.783	-101.72
843.959	70.31
844.134	-122.2
844.31	111.27
844.486	-66.9
844.662	-177.49
844.838	8.87
845.013	-23.89
845.189	76.46
845.365	-25.94
845.541	66.22
845.716	-7.51
845.892	55.98
846.068	-66.9
846.244	-48.47
846.419	-27.99
846.595	-50.52
846.77	-32.08
846.946	82.6
847.122	-15.7
847.297	-81.24
847.473	111.27
847.648	-116.05
847.824	35.5
847.999	-128.34
848.175	-13.65
848.35	-27.99
848.526	37.55
848.701	-13.65
848.876	27.31
849.052	33.45
849.227	4.78
849.403	80.55
849.578	-66.9
849.753	-25.94
849.929	41.64
850.104	-75.09
850.279	35.5
850.454	-25.94
850.63	107.18
850.805	-9.56
850.98	23.21
851.155	-23.89
851.33	33.45
851.505	-97.62
851.681	111.27
851.856	-87.38
852.031	-17.75
852.206	55.98
852.381	-83.28
852.556	-19.8
852.731	109.22
852.906	47.79
853.081	45.74
853.256	213.67
853.431	-11.61
853.606	2.73
853.781	-48.47
853.956	-173.39
854.131	12.97
854.305	-79.19
854.48	29.35
854.655	-118.1
854.83	-34.13
855.005	-62.8
855.18	-48.47
855.354	-52.56
855.529	-21.85
855.704	-25.94
855.879	8.87
856.053	-134.48
856.228	37.55
856.403	-19.8
856.577	43.69
856.752	-134.48
856.926	37.55
857.101	70.31
857.276	-58.71
857.45	47.79
857.625	80.55
857.799	-13.65
857.974	-32.08
858.148	-116.05
858.323	25.26
858.497	-23.89
858.672	-75.09
858.846	-15.7
859.02	82.6
859.195	-60.76
859.369	0.68
859.543	17.07
859.718	-89.43
859.892	-25.94
860.066	17.07
860.241	-34.13
860.415	-50.52
860.589	-32.08
860.763	-97.62
860.938	-75.09
861.112	8.87
861.286	4.78
861.46	-5.46
861.634	-23.89
861.808	43.69
861.982	-46.42
862.157	-114
862.331	2.73
862.505	-83.28
862.679	-118.1
862.853	-89.43
863.027	-19.8
863.201	127.66
863.375	-111.96
863.549	115.37
863.722	-30.04
863.896	113.32
864.07	-95.57
864.244	-60.76
864.418	-9.56
864.592	84.65
864.766	-1.37
864.939	-7.51
865.113	-105.81
865.287	62.12
865.461	-140.63
865.634	21.16
865.808	-48.47
865.982	-3.41
866.156	-77.14
866.329	-52.56
866.503	47.79
866.676	-46.42
866.85	62.12
867.024	-3.41
867.197	15.02
867.371	23.21
867.544	88.75
867.718	-56.66
867.891	-11.61
868.065	-91.48
868.238	6.83
868.412	88.75
868.585	-62.8
868.759	19.11
868.932	-34.13
869.105	-138.58
869.279	10.92
869.452	-58.71
869.625	-9.56
869.799	-64.85
869.972	-181.59
870.145	-19.8
870.319	8.87
870.492	-83.28
870.665	8.87
870.838	-128.34
871.011	-99.67
871.185	-128.34
871.358	-27.99
871.531	41.64
871.704	-5.46
871.877	33.45
872.05	-46.42
872.223	-83.28
872.396	51.88
872.569	109.22
872.742	-128.34
872.915	-19.8
873.088	-97.62
873.261	-146.77
873.434	21.16
873.607	-58.71
873.78	49.83
873.953	-101.72
874.126	12.97
874.299	-9.56
874.471	-46.42
874.644	-46.42
874.817	33.45
874.99	146.09
875.163	-5.46
875.335	12.97
875.508	-50.52
875.681	25.26
875.853	-93.52
876.026	-1.37
876.199	45.74
876.371	-56.66
876.544	-9.56
876.717	12.97
876.889	-40.28
877.062	37.55
877.234	-77.14
877.407	-52.56
877.579	21.16
877.752	-9.56
877.924	-9.56
878.097	31.4
878.269	-30.04
878.442	-25.94
878.614	74.41
878.786	-27.99
878.959	8.87
879.131	33.45
879.303	-165.2
879.476	-64.85
879.648	113.32
879.82	-64.85
879.993	-13.65
880.165	-50.52
880.337	-50.52
880.509	12.97
880.681	-91.48
880.854	-32.08
881.026	43.69
881.198	123.56
881.37	-7.51
881.542	-89.43
881.714	-95.57
881.886	-56.66
882.058	33.45
882.23	-68.95
882.402	-93.52
882.574	-13.65
882.746	19.11
882.918	135.85
883.09	12.97
883.262	-48.47
883.434	23.21
883.606	-120.15
883.778	-66.9
883.95	129.7
884.122	-34.13
884.293	51.88
884.465	-25.94
884.637	37.55
884.809	-114
884.98	-32.08
885.152	119.46
885.324	29.35
885.496	-71
885.667	-111.96
885.839	-15.7
886.011	146.09
886.182	19.11
886.354	70.31
886.525	-32.08
886.697	-27.99
886.869	-77.14
887.04	-17.75
887.212	109.22
887.383	141.99
887.555	-3.41
887.726	-128.34
887.897	-30.04
888.069	74.41
888.24	82.6
888.412	-27.99
888.583	-42.32
888.754	53.93
888.926	-105.81
889.097	-36.18
889.268	-93.52
889.44	60.07
889.611	-25.94
889.782	-118.1
889.953	-60.76
890.125	139.94
890.296	27.31
890.467	-114
890.638	-36.18
890.809	19.11
890.98	-77.14
891.151	-83.28
891.323	31.4
891.494	17.07
891.665	-19.8
891.836	4.78
892.007	-97.62
892.178	-46.42
892.349	15.02
892.52	-32.08
892.691	27.31
892.862	-77.14
893.032	-107.86
893.203	12.97
893.374	-1.37
893.545	82.6
893.716	-124.24
893.887	82.6
894.057	-93.52
894.228	-1.37
894.399	-38.23
894.57	78.51
894.74	-60.76
894.911	-50.52
895.082	-103.76
895.253	8.87
895.423	-34.13
895.594	19.11
895.764	55.98
895.935	-77.14
896.106	-44.37
896.276	-27.99
896.447	-15.7
896.617	8.87
896.788	-109.91
896.958	-9.56
897.129	-30.04
897.299	-25.94
897.47	80.55
897.64	98.99
897.81	-75.09
897.981	47.79
898.151	-75.09
898.322	-58.71
898.492	29.35
898.662	-77.14
898.832	-138.58
899.003	-58.71
899.173	78.51
899.343	-44.37
899.513	-81.24
