Data from USB4F104151__176__11-05-02-134.txt Node

Date: Wed Feb 26 11:05:02 EST 2025
User: louis
Spectrometer: USB4F10415
Trigger mode: 4
Integration Time (sec): 1.000000E-1
Scans to average: 1
Electric dark correction enabled: true
Nonlinearity correction enabled: false
Boxcar width: 0
XAxis mode: Wavelengths
Number of Pixels in Spectrum: 3648
>>>>>Begin Spectral Data<<<<<
178.204	-442.7
178.424	-442.7
178.644	-442.7
178.864	-424.27
179.084	-364.88
179.304	-35.16
179.524	-59.73
179.744	-6.49
179.964	40.62
180.184	-61.78
180.404	26.28
180.624	-47.44
180.844	73.39
181.064	-41.3
181.283	36.52
181.503	5.8
181.723	69.29
181.943	-106.84
182.163	147.11
182.383	-55.64
182.602	-18.77
182.822	147.11
183.042	24.23
183.262	-37.2
183.482	-41.3
183.701	38.57
183.921	26.28
184.141	-53.59
184.361	36.52
184.58	16.04
184.8	26.28
185.02	-47.44
185.239	102.06
185.459	-6.49
185.679	147.11
185.898	-96.6
186.118	48.81
186.338	36.52
186.557	134.82
186.777	-49.49
186.997	28.33
187.216	20.14
187.436	161.45
187.655	24.23
187.875	38.57
188.095	59.05
188.314	143.02
188.534	143.02
188.753	-92.5
188.973	126.63
189.192	229.03
189.412	-16.73
189.631	-10.58
189.851	36.52
190.07	145.06
190.29	-86.36
190.509	-35.16
190.729	7.85
190.948	186.02
191.168	210.6
191.387	40.62
191.607	20.14
191.826	57
192.045	42.67
192.265	-2.39
192.484	59.05
192.704	38.57
192.923	-39.25
193.142	186.02
193.362	22.19
193.581	177.83
193.8	73.39
194.02	57
194.239	-2.39
194.458	46.76
194.678	7.85
194.897	-90.45
195.116	57
195.335	-10.58
195.555	-10.58
195.774	-51.54
195.993	95.91
196.212	-4.44
196.432	-39.25
196.651	-45.4
196.87	26.28
197.089	231.08
197.308	67.24
197.528	44.71
197.747	-86.36
197.966	-24.92
198.185	120.49
198.404	-55.64
198.623	93.87
198.842	124.58
199.062	126.63
199.281	95.91
199.5	-22.87
199.719	40.62
199.938	116.39
200.157	73.39
200.376	116.39
200.595	87.72
200.814	-45.4
201.033	-33.11
201.252	224.94
201.471	26.28
201.69	75.43
201.909	-53.59
202.128	44.71
202.347	54.95
202.566	50.86
202.785	-29.01
203.004	-16.73
203.223	167.59
203.442	89.77
203.661	-2.39
203.879	40.62
204.098	112.3
204.317	-18.77
204.536	59.05
204.755	95.91
204.974	54.95
205.193	-2.39
205.411	118.44
205.63	85.67
205.849	95.91
206.068	-78.16
206.287	89.77
206.505	124.58
206.724	71.34
206.943	3.75
207.162	-67.92
207.381	85.67
207.599	30.38
207.818	5.8
208.037	-12.63
208.255	38.57
208.474	57
208.693	50.86
208.911	36.52
209.13	54.95
209.349	128.68
209.567	71.34
209.786	22.19
210.005	122.54
210.223	-16.73
210.442	-104.79
210.661	24.23
210.879	36.52
211.098	26.28
211.316	73.39
211.535	13.99
211.753	77.48
211.972	46.76
212.191	-31.06
212.409	7.85
212.628	116.39
212.846	-74.07
213.065	132.78
213.283	69.29
213.502	32.43
213.72	46.76
213.938	46.76
214.157	-84.31
214.375	112.3
214.594	3.75
214.812	26.28
215.031	22.19
215.249	48.81
215.467	52.91
215.686	-39.25
215.904	77.48
216.122	75.43
216.341	91.82
216.559	-0.34
216.778	97.96
216.996	138.92
217.214	65.19
217.432	-10.58
217.651	-41.3
217.869	110.25
218.087	77.48
218.306	-39.25
218.524	52.91
218.742	11.95
218.96	9.9
219.179	20.14
219.397	36.52
219.615	126.63
219.833	89.77
220.051	-49.49
220.27	-10.58
220.488	149.16
220.706	11.95
220.924	50.86
221.142	-61.78
221.36	69.29
221.578	85.67
221.796	5.8
222.015	50.86
222.233	100.01
222.451	188.07
222.669	-4.44
222.887	61.1
223.105	-59.73
223.323	-2.39
223.541	-24.92
223.759	32.43
223.977	100.01
224.195	126.63
224.413	46.76
224.631	-29.01
224.849	16.04
225.067	202.41
225.285	-80.21
225.503	-78.16
225.721	-90.45
225.939	38.57
226.157	36.52
226.375	253.61
226.592	-6.49
226.81	-20.82
227.028	110.25
227.246	102.06
227.464	-35.16
227.682	13.99
227.9	44.71
228.117	40.62
228.335	36.52
228.553	36.52
228.771	3.75
228.989	30.38
229.206	71.34
229.424	-10.58
229.642	11.95
229.86	-29.01
230.077	159.4
230.295	13.99
230.513	59.05
230.731	83.63
230.948	179.88
231.166	95.91
231.384	32.43
231.601	13.99
231.819	173.74
232.037	-4.44
232.254	-18.77
232.472	-2.39
232.689	-41.3
232.907	108.2
233.125	7.85
233.342	26.28
233.56	44.71
233.777	-96.6
233.995	-57.68
234.213	130.73
234.43	-8.53
234.648	3.75
234.865	-6.49
235.083	69.29
235.3	79.53
235.518	13.99
235.735	102.06
235.953	102.06
236.17	22.19
236.388	-0.34
236.605	-14.68
236.822	28.33
237.04	67.24
237.257	36.52
237.475	-65.88
237.692	-14.68
237.909	7.85
238.127	9.9
238.344	46.76
238.562	-2.39
238.779	-80.21
238.996	-115.03
239.214	-4.44
239.431	147.11
239.648	-57.68
239.865	104.11
240.083	63.15
240.3	-41.3
240.517	16.04
240.735	7.85
240.952	91.82
241.169	61.1
241.386	38.57
241.603	-45.4
241.821	9.9
242.038	32.43
242.255	63.15
242.472	-39.25
242.689	83.63
242.907	-4.44
243.124	48.81
243.341	22.19
243.558	7.85
243.775	-26.96
243.992	-129.36
244.209	140.97
244.426	169.64
244.643	11.95
244.86	106.15
245.078	-10.58
245.295	85.67
245.512	7.85
245.729	7.85
245.946	59.05
246.163	38.57
246.38	3.75
246.597	-41.3
246.814	75.43
247.031	38.57
247.248	-16.73
247.464	38.57
247.681	28.33
247.898	38.57
248.115	67.24
248.332	28.33
248.549	126.63
248.766	136.87
248.983	95.91
249.2	44.71
249.417	38.57
249.633	3.75
249.85	13.99
250.067	-2.39
250.284	-0.34
250.501	52.91
250.717	-37.2
250.934	-102.74
251.151	36.52
251.368	26.28
251.585	32.43
251.801	54.95
252.018	-43.35
252.235	52.91
252.451	-63.83
252.668	52.91
252.885	126.63
253.102	48.81
253.318	-29.01
253.535	-31.06
253.752	-37.2
253.968	7.85
254.185	-82.26
254.401	81.58
254.618	59.05
254.835	50.86
255.051	77.48
255.268	102.06
255.484	20.14
255.701	81.58
255.917	54.95
256.134	-6.49
256.351	3.75
256.567	-6.49
256.784	-43.35
257	-108.88
257.217	102.06
257.433	145.06
257.65	-0.34
257.866	79.53
258.082	36.52
258.299	-10.58
258.515	48.81
258.732	54.95
258.948	-43.35
259.165	34.47
259.381	-131.41
259.597	69.29
259.814	7.85
260.03	89.77
260.246	-14.68
260.463	89.77
260.679	120.49
260.895	50.86
261.112	22.19
261.328	13.99
261.544	-37.2
261.761	132.78
261.977	-10.58
262.193	-43.35
262.409	36.52
262.626	63.15
262.842	-14.68
263.058	-92.5
263.274	22.19
263.49	34.47
263.707	87.72
263.923	106.15
264.139	1.71
264.355	44.71
264.571	79.53
264.787	44.71
265.004	73.39
265.22	9.9
265.436	-12.63
265.652	-29.01
265.868	83.63
266.084	-55.64
266.3	93.87
266.516	-4.44
266.732	-33.11
266.948	3.75
267.164	36.52
267.38	149.16
267.596	50.86
267.812	145.06
268.028	46.76
268.244	-49.49
268.46	44.71
268.676	100.01
268.892	48.81
269.108	-12.63
269.324	16.04
269.54	-139.6
269.756	73.39
269.972	-4.44
270.188	-26.96
270.403	-63.83
270.619	9.9
270.835	79.53
271.051	16.04
271.267	32.43
271.483	-24.92
271.698	20.14
271.914	30.38
272.13	40.62
272.346	22.19
272.562	54.95
272.777	77.48
272.993	13.99
273.209	-4.44
273.425	30.38
273.64	-155.99
273.856	63.15
274.072	-51.54
274.287	9.9
274.503	44.71
274.719	24.23
274.934	38.57
275.15	-110.93
275.366	16.04
275.581	-65.88
275.797	-2.39
276.012	-37.2
276.228	-31.06
276.444	-35.16
276.659	100.01
276.875	-88.4
277.09	-45.4
277.306	-65.88
277.521	11.95
277.737	20.14
277.952	30.38
278.168	26.28
278.383	87.72
278.599	1.71
278.814	63.15
279.03	69.29
279.245	108.2
279.461	11.95
279.676	73.39
279.892	-90.45
280.107	-86.36
280.322	-90.45
280.538	-26.96
280.753	-65.88
280.969	48.81
281.184	-16.73
281.399	118.44
281.615	50.86
281.83	95.91
282.045	-10.58
282.26	-29.01
282.476	-8.53
282.691	54.95
282.906	57
283.122	93.87
283.337	-18.77
283.552	77.48
283.767	-31.06
283.983	24.23
284.198	79.53
284.413	114.34
284.628	-18.77
284.843	-2.39
285.058	75.43
285.274	24.23
285.489	9.9
285.704	81.58
285.919	32.43
286.134	22.19
286.349	18.09
286.564	59.05
286.779	120.49
286.995	-35.16
287.21	-41.3
287.425	50.86
287.64	11.95
287.855	59.05
288.07	7.85
288.285	89.77
288.5	202.41
288.715	50.86
288.93	77.48
289.145	5.8
289.36	81.58
289.575	-55.64
289.79	91.82
290.004	-26.96
290.219	167.59
290.434	18.09
290.649	-43.35
290.864	-16.73
291.079	34.47
291.294	34.47
291.509	-10.58
291.724	-18.77
291.938	-0.34
292.153	28.33
292.368	-57.68
292.583	118.44
292.798	134.82
293.012	-49.49
293.227	63.15
293.442	-18.77
293.657	26.28
293.871	93.87
294.086	46.76
294.301	183.98
294.516	155.3
294.73	48.81
294.945	-102.74
295.16	3.75
295.374	69.29
295.589	104.11
295.804	-20.82
296.018	7.85
296.233	77.48
296.447	34.47
296.662	50.86
296.877	77.48
297.091	54.95
297.306	20.14
297.52	7.85
297.735	-12.63
297.949	77.48
298.164	52.91
298.378	11.95
298.593	-12.63
298.807	-31.06
299.022	73.39
299.236	71.34
299.451	-16.73
299.665	18.09
299.88	75.43
300.094	42.67
300.309	69.29
300.523	-20.82
300.737	71.34
300.952	18.09
301.166	71.34
301.381	-63.83
301.595	22.19
301.809	52.91
302.024	-4.44
302.238	9.9
302.452	104.11
302.667	-20.82
302.881	91.82
303.095	63.15
303.309	32.43
303.524	1.71
303.738	61.1
303.952	-55.64
304.166	7.85
304.381	-155.99
304.595	145.06
304.809	-82.26
305.023	81.58
305.237	9.9
305.452	-33.11
305.666	89.77
305.88	57
306.094	97.96
306.308	38.57
306.522	116.39
306.736	26.28
306.95	16.04
307.164	30.38
307.379	65.19
307.593	50.86
307.807	134.82
308.021	85.67
308.235	138.92
308.449	-72.02
308.663	-39.25
308.877	159.4
309.091	16.04
309.305	54.95
309.519	-98.64
309.733	36.52
309.947	-90.45
310.161	67.24
310.374	63.15
310.588	102.06
310.802	7.85
311.016	34.47
311.23	85.67
311.444	-43.35
311.658	-18.77
311.872	61.1
312.085	140.97
312.299	165.54
312.513	44.71
312.727	11.95
312.941	-39.25
313.154	100.01
313.368	16.04
313.582	26.28
313.796	75.43
314.009	-45.4
314.223	165.54
314.437	18.09
314.651	36.52
314.864	-51.54
315.078	-49.49
315.292	-51.54
315.505	-22.87
315.719	18.09
315.933	-6.49
316.146	67.24
316.36	-67.92
316.573	24.23
316.787	-0.34
317.001	42.67
317.214	-117.08
317.428	71.34
317.641	11.95
317.855	52.91
318.068	34.47
318.282	36.52
318.495	106.15
318.709	26.28
318.922	-8.53
319.136	151.21
319.349	83.63
319.563	-0.34
319.776	-18.77
319.99	-10.58
320.203	50.86
320.417	26.28
320.63	22.19
320.843	136.87
321.057	65.19
321.27	-22.87
321.483	63.15
321.697	130.73
321.91	42.67
322.124	-2.39
322.337	38.57
322.55	-4.44
322.763	34.47
322.977	-55.64
323.19	-63.83
323.403	22.19
323.617	18.09
323.83	54.95
324.043	48.81
324.256	110.25
324.469	-104.79
324.683	106.15
324.896	65.19
325.109	-33.11
325.322	-82.26
325.535	59.05
325.748	91.82
325.962	54.95
326.175	50.86
326.388	75.43
326.601	67.24
326.814	-94.55
327.027	40.62
327.24	149.16
327.453	-139.6
327.666	-22.87
327.879	104.11
328.092	61.1
328.305	-41.3
328.518	3.75
328.731	71.34
328.944	-47.44
329.157	114.34
329.37	-59.73
329.583	83.63
329.796	130.73
330.009	-29.01
330.222	59.05
330.435	57
330.648	11.95
330.861	3.75
331.073	83.63
331.286	38.57
331.499	44.71
331.712	-26.96
331.925	-31.06
332.138	104.11
332.35	163.5
332.563	46.76
332.776	65.19
332.989	20.14
333.202	42.67
333.414	42.67
333.627	-4.44
333.84	-0.34
334.053	81.58
334.265	-31.06
334.478	-29.01
334.691	-24.92
334.903	61.1
335.116	-31.06
335.329	3.75
335.541	100.01
335.754	169.64
335.966	48.81
336.179	-8.53
336.392	32.43
336.604	1.71
336.817	128.68
337.029	-6.49
337.242	-51.54
337.454	79.53
337.667	16.04
337.88	46.76
338.092	81.58
338.305	83.63
338.517	-33.11
338.729	50.86
338.942	63.15
339.154	7.85
339.367	-74.07
339.579	36.52
339.792	-22.87
340.004	77.48
340.217	11.95
340.429	79.53
340.641	-43.35
340.854	-45.4
341.066	63.15
341.278	122.54
341.491	157.35
341.703	-2.39
341.915	-0.34
342.128	167.59
342.34	63.15
342.552	-18.77
342.764	-33.11
342.977	-16.73
343.189	77.48
343.401	46.76
343.613	-69.97
343.826	57
344.038	-49.49
344.25	71.34
344.462	-47.44
344.674	46.76
344.886	-33.11
345.099	63.15
345.311	-4.44
345.523	52.91
345.735	-168.27
345.947	-4.44
346.159	-53.59
346.371	1.71
346.583	-8.53
346.795	165.54
347.007	-51.54
347.219	120.49
347.431	59.05
347.643	79.53
347.855	-0.34
348.067	140.97
348.279	-51.54
348.491	114.34
348.703	9.9
348.915	-6.49
349.127	-4.44
349.339	-0.34
349.551	5.8
349.763	126.63
349.975	40.62
350.187	63.15
350.399	143.02
350.61	24.23
350.822	36.52
351.034	-20.82
351.246	-6.49
351.458	79.53
351.669	104.11
351.881	71.34
352.093	40.62
352.305	89.77
352.517	5.8
352.728	44.71
352.94	61.1
353.152	128.68
353.363	-41.3
353.575	-10.58
353.787	194.22
353.999	83.63
354.21	100.01
354.422	-41.3
354.633	59.05
354.845	5.8
355.057	79.53
355.268	11.95
355.48	-2.39
355.692	-84.31
355.903	42.67
356.115	-31.06
356.326	-88.4
356.538	167.59
356.749	116.39
356.961	183.98
357.172	20.14
357.384	26.28
357.595	218.79
357.807	16.04
358.018	34.47
358.23	63.15
358.441	186.02
358.653	91.82
358.864	18.09
359.075	-18.77
359.287	7.85
359.498	85.67
359.709	42.67
359.921	-18.77
360.132	67.24
360.344	18.09
360.555	-61.78
360.766	38.57
360.977	18.09
361.189	79.53
361.4	3.75
361.611	48.81
361.823	46.76
362.034	48.81
362.245	5.8
362.456	42.67
362.667	100.01
362.879	-6.49
363.09	77.48
363.301	50.86
363.512	52.91
363.723	-39.25
363.935	65.19
364.146	79.53
364.357	1.71
364.568	38.57
364.779	-80.21
364.99	126.63
365.201	-47.44
365.412	48.81
365.623	-92.5
365.834	77.48
366.045	54.95
366.256	32.43
366.467	18.09
366.678	-12.63
366.889	11.95
367.1	-49.49
367.311	73.39
367.522	-55.64
367.733	48.81
367.944	104.11
368.155	-76.12
368.366	79.53
368.577	116.39
368.788	48.81
368.999	-0.34
369.209	5.8
369.42	177.83
369.631	247.46
369.842	46.76
370.053	-41.3
370.264	67.24
370.474	26.28
370.685	95.91
370.896	-45.4
371.107	188.07
371.317	5.8
371.528	63.15
371.739	89.77
371.95	71.34
372.16	91.82
372.371	-121.17
372.582	16.04
372.792	71.34
373.003	63.15
373.214	57
373.424	42.67
373.635	-8.53
373.846	122.54
374.056	-26.96
374.267	36.52
374.477	89.77
374.688	-86.36
374.898	65.19
375.109	-10.58
375.319	5.8
375.53	143.02
375.74	59.05
375.951	28.33
376.161	-14.68
376.372	44.71
376.582	18.09
376.793	95.91
377.003	-45.4
377.214	-37.2
377.424	67.24
377.635	-12.63
377.845	-65.88
378.055	143.02
378.266	-37.2
378.476	36.52
378.686	89.77
378.897	52.91
379.107	61.1
379.317	85.67
379.528	-31.06
379.738	32.43
379.948	-92.5
380.158	77.48
380.369	-43.35
380.579	81.58
380.789	-2.39
380.999	97.96
381.21	95.91
381.42	108.2
381.63	-2.39
381.84	104.11
382.05	100.01
382.261	-16.73
382.471	143.02
382.681	-41.3
382.891	100.01
383.101	9.9
383.311	-39.25
383.521	3.75
383.731	54.95
383.941	24.23
384.151	65.19
384.361	57
384.571	32.43
384.781	-4.44
384.991	165.54
385.201	104.11
385.411	73.39
385.621	61.1
385.831	67.24
386.041	16.04
386.251	71.34
386.461	52.91
386.671	28.33
386.881	-12.63
387.091	-51.54
387.301	89.77
387.511	7.85
387.72	104.11
387.93	87.72
388.14	-39.25
388.35	-22.87
388.56	102.06
388.769	-4.44
388.979	75.43
389.189	-4.44
389.399	22.19
389.609	24.23
389.818	63.15
390.028	67.24
390.238	67.24
390.447	-88.4
390.657	-10.58
390.867	-0.34
391.076	-59.73
391.286	46.76
391.496	-53.59
391.705	-20.82
391.915	52.91
392.125	140.97
392.334	87.72
392.544	179.88
392.753	79.53
392.963	-108.88
393.172	87.72
393.382	-37.2
393.591	95.91
393.801	-47.44
394.01	114.34
394.22	93.87
394.429	-4.44
394.639	5.8
394.848	54.95
395.058	48.81
395.267	44.71
395.477	169.64
395.686	40.62
395.895	235.18
396.105	175.78
396.314	120.49
396.524	30.38
396.733	1.71
396.942	79.53
397.152	75.43
397.361	116.39
397.57	93.87
397.78	93.87
397.989	140.97
398.198	132.78
398.407	73.39
398.617	30.38
398.826	38.57
399.035	38.57
399.244	59.05
399.453	40.62
399.663	-12.63
399.872	40.62
400.081	-119.12
400.29	145.06
400.499	7.85
400.708	128.68
400.917	95.91
401.127	24.23
401.336	18.09
401.545	161.45
401.754	40.62
401.963	104.11
402.172	16.04
402.381	-96.6
402.59	-35.16
402.799	36.52
403.008	89.77
403.217	16.04
403.426	11.95
403.635	-72.02
403.844	-12.63
404.053	22.19
404.262	22.19
404.471	190.12
404.68	-2.39
404.888	54.95
405.097	65.19
405.306	40.62
405.515	87.72
405.724	42.67
405.933	79.53
406.142	38.57
406.35	108.2
406.559	59.05
406.768	93.87
406.977	173.74
407.185	22.19
407.394	79.53
407.603	-67.92
407.812	77.48
408.02	145.06
408.229	48.81
408.438	61.1
408.646	-67.92
408.855	-39.25
409.064	63.15
409.272	65.19
409.481	130.73
409.69	-8.53
409.898	-39.25
410.107	-37.2
410.315	118.44
410.524	48.81
410.733	83.63
410.941	40.62
411.15	110.25
411.358	116.39
411.567	165.54
411.775	7.85
411.984	81.58
412.192	151.21
412.401	-14.68
412.609	169.64
412.818	120.49
413.026	61.1
413.234	50.86
413.443	28.33
413.651	-43.35
413.86	1.71
414.068	59.05
414.276	112.3
414.485	7.85
414.693	128.68
414.901	151.21
415.11	93.87
415.318	26.28
415.526	32.43
415.734	102.06
415.943	9.9
416.151	153.26
416.359	69.29
416.567	46.76
416.776	93.87
416.984	173.74
417.192	147.11
417.4	-61.78
417.608	13.99
417.817	36.52
418.025	130.73
418.233	87.72
418.441	-24.92
418.649	-12.63
418.857	110.25
419.065	149.16
419.273	1.71
419.481	11.95
419.689	48.81
419.897	-0.34
420.105	-41.3
420.313	97.96
420.521	136.87
420.729	216.74
420.937	-88.4
421.145	-2.39
421.353	95.91
421.561	122.54
421.769	61.1
421.977	-24.92
422.185	22.19
422.393	50.86
422.601	149.16
422.809	24.23
423.017	65.19
423.224	54.95
423.432	77.48
423.64	116.39
423.848	126.63
424.056	5.8
424.263	147.11
424.471	18.09
424.679	134.82
424.887	-55.64
425.094	48.81
425.302	108.2
425.51	59.05
425.718	104.11
425.925	114.34
426.133	-2.39
426.341	149.16
426.548	52.91
426.756	-0.34
426.964	126.63
427.171	81.58
427.379	85.67
427.586	34.47
427.794	145.06
428.001	124.58
428.209	112.3
428.417	112.3
428.624	112.3
428.832	149.16
429.039	89.77
429.247	106.15
429.454	63.15
429.662	132.78
429.869	65.19
430.076	85.67
430.284	102.06
430.491	212.65
430.699	50.86
430.906	181.93
431.114	120.49
431.321	138.92
431.528	75.43
431.736	155.3
431.943	145.06
432.15	188.07
432.358	114.34
432.565	212.65
432.772	11.95
432.979	136.87
433.187	61.1
433.394	149.16
433.601	130.73
433.808	233.13
434.016	196.26
434.223	208.55
434.43	163.5
434.637	192.17
434.844	247.46
435.052	169.64
435.259	188.07
435.466	212.65
435.673	231.08
435.88	272.04
436.087	284.33
436.294	337.57
436.501	335.53
436.708	194.22
436.915	272.04
437.122	333.48
437.329	169.64
437.537	274.09
437.743	360.1
437.95	366.25
438.157	427.68
438.364	411.3
438.571	356.01
438.778	298.66
438.985	413.35
439.192	401.06
439.399	446.12
439.606	423.59
439.813	536.23
440.02	540.32
440.227	687.78
440.433	511.65
440.64	439.97
440.847	425.64
441.054	487.08
441.261	700.06
441.467	556.71
441.674	509.6
441.881	607.91
442.088	597.67
442.294	743.07
442.501	738.98
442.708	757.41
442.914	677.54
443.121	831.13
443.328	714.4
443.534	945.82
443.741	855.71
443.948	751.26
444.154	935.58
444.361	1087.13
444.568	954.01
444.774	908.96
444.981	970.4
445.187	1142.43
445.394	1085.08
445.6	990.88
445.807	1275.54
446.013	1195.67
446.22	1212.06
446.426	1470.1
446.633	1308.31
446.839	1572.5
447.046	1308.31
447.252	1547.92
447.459	1592.98
447.665	1611.41
447.871	1775.25
448.078	1891.98
448.284	1789.58
448.491	1957.52
448.697	1980.04
448.903	2041.48
449.11	2059.92
449.316	2061.96
449.522	2358.92
449.728	2336.39
449.935	2485.89
450.141	2442.89
450.347	2557.57
450.553	2504.32
450.76	2621.06
450.966	2801.28
451.172	2932.35
451.378	2973.31
451.584	3077.76
451.791	3204.73
451.997	3464.82
452.203	3440.25
452.409	3511.93
452.615	3634.8
452.821	3659.38
453.027	3798.64
453.233	4146.8
453.44	3956.33
453.646	4300.39
453.852	4478.57
454.058	4494.95
454.264	4777.57
454.47	5006.94
454.676	4986.46
454.882	5529.17
455.088	5387.86
455.294	5572.18
455.5	5992.02
455.705	6340.17
455.911	6303.31
456.117	6575.69
456.323	6719.04
456.529	6620.74
456.735	7364.15
456.941	7573.05
457.147	8042.03
457.352	8101.42
457.558	8304.17
457.764	8912.42
457.97	9076.26
458.176	9360.92
458.381	9872.92
458.587	9991.7
458.793	10735.11
458.999	10438.16
459.204	11736.57
459.41	12340.72
459.616	11904.5
459.821	12733.93
460.027	13340.13
460.233	14083.54
460.438	14194.13
460.644	14654.92
460.85	14896.58
461.055	15584.7
461.261	16149.94
461.466	15934.9
461.672	16289.2
461.878	18288.02
462.083	18027.93
462.289	18343.31
462.494	19262.85
462.7	19314.05
462.905	19656.06
463.111	21294.44
463.316	22084.95
463.522	22279.51
463.727	23362.89
463.932	24304.95
464.138	24968.49
464.343	26041.63
464.549	26184.99
464.754	28151.04
464.959	28992.75
465.165	29240.56
465.37	29369.58
465.575	28931.31
465.781	30950.61
465.986	32029.89
466.191	31182.03
466.397	31784.13
466.602	30762.2
466.807	32971.96
467.012	33197.23
467.218	33721.51
467.423	34235.55
467.628	35400.85
467.833	36600.96
468.038	36039.81
468.244	35599.5
468.449	37174.39
468.654	36412.54
468.859	35929.22
469.064	36330.62
469.269	35132.56
469.474	35763.34
469.679	37018.74
469.885	35894.41
470.09	36377.73
470.295	36750.46
470.5	35769.48
470.705	35712.14
470.91	34790.55
471.115	34538.65
471.32	35007.64
471.525	35075.22
471.73	33543.34
471.935	33492.14
472.139	32582.84
472.344	32115.9
472.549	32588.99
472.754	31665.35
472.959	30878.93
473.164	30248.16
473.369	29652.2
473.574	30420.19
473.778	29863.14
473.983	29109.49
474.188	28544.25
474.393	26979.6
474.598	27217.16
474.802	26383.64
475.007	26418.46
475.212	26154.27
475.417	24960.3
475.621	24812.85
475.826	24612.15
476.031	23813.44
476.235	23479.62
476.44	23342.41
476.645	22625.62
476.849	22400.34
477.054	22187.35
477.259	21781.85
477.463	21323.11
477.668	20833.64
477.872	20989.29
478.077	20479.35
478.282	19803.52
478.486	19678.59
478.691	19516.8
478.895	19135.88
479.1	19158.41
479.304	19031.43
479.509	18271.64
479.713	18619.79
479.918	18185.62
480.122	18144.66
480.326	18101.65
480.531	18161.05
480.735	17649.05
480.94	17388.96
481.144	18183.57
481.348	17139.11
481.553	17063.33
481.757	16815.53
481.961	17241.51
482.166	17196.45
482.37	16715.18
482.574	16276.91
482.778	16414.13
482.983	16635.31
483.187	16504.24
483.391	16113.08
483.595	15963.58
483.8	15547.84
484.004	15785.4
484.208	15779.26
484.412	15553.98
484.616	15435.2
484.821	15039.94
485.025	14652.88
485.229	14644.68
485.433	14482.89
485.637	14196.18
485.841	14366.16
486.045	14159.31
486.249	13950.42
486.453	13749.72
486.657	13463.01
486.861	13231.58
487.065	12746.22
487.269	12846.57
487.473	12451.31
487.677	12500.46
487.881	12297.71
488.085	11816.44
488.289	11806.2
488.493	11640.31
488.697	11634.17
488.901	11359.74
489.105	11058.69
489.309	10800.65
489.512	10987.01
489.716	10386.96
489.92	10235.41
490.124	10114.58
490.328	10032.66
490.531	9817.62
490.735	9807.38
490.939	9393.69
491.143	9268.77
491.346	9080.35
491.55	8904.23
491.754	8859.17
491.958	8775.2
492.161	8531.5
492.365	8498.73
492.569	8154.67
492.772	8095.28
492.976	8003.12
493.18	8017.46
493.383	7966.26
493.587	7929.39
493.79	7802.42
493.994	7509.56
494.197	7538.23
494.401	7351.87
494.605	7235.13
494.808	7280.19
495.012	7376.44
495.215	7067.2
495.419	7169.6
495.622	6909.51
495.825	6876.74
496.029	6979.14
496.232	7046.72
496.436	7046.72
496.639	6952.51
496.843	6897.22
497.046	6893.12
497.249	6895.17
497.453	6991.42
497.656	6817.35
497.859	6940.22
498.063	6848.07
498.266	6796.87
498.469	6669.89
498.673	6870.59
498.876	6891.07
499.079	6968.9
499.282	7077.44
499.485	7329.34
499.689	6999.62
499.892	7110.21
500.095	7081.53
500.298	7276.09
500.501	7030.34
500.705	7265.85
500.908	7511.61
501.111	7474.74
501.314	7689.78
501.517	7573.05
501.72	7691.83
501.923	7454.26
502.126	7714.36
502.329	7882.29
502.532	7843.38
502.735	7951.92
502.938	8189.49
503.141	8166.96
503.344	8201.77
503.547	8289.84
503.75	8496.68
503.953	8551.98
504.156	8793.64
504.359	8713.77
504.562	8846.88
504.765	8992.29
504.968	9338.4
505.17	9285.15
505.373	9467.42
505.576	9543.19
505.779	9750.04
505.982	9938.45
506.185	10059.28
506.387	10149.39
506.59	10399.24
506.793	10518.03
506.996	10698.25
507.198	11177.47
507.401	10966.53
507.604	11447.8
507.807	11613.69
508.009	11814.39
508.212	12148.21
508.415	12434.92
508.617	12457.45
508.82	12477.93
509.022	12819.94
509.225	13278.69
509.428	13506.01
509.63	13518.3
509.833	13878.74
510.035	14589.39
510.238	14458.32
510.44	14900.68
510.643	15521.21
510.845	15818.17
511.048	16115.12
511.25	16174.52
511.453	16528.81
511.655	17278.37
511.858	17315.23
512.06	17974.68
512.262	18347.41
512.465	18414.99
512.667	19096.97
512.87	19381.63
513.072	19877.24
513.274	20534.64
513.477	20854.12
513.679	21122.41
513.881	21708.13
514.084	22031.71
514.286	22564.18
514.488	23205.19
514.69	23768.38
514.893	24124.73
515.095	24591.67
515.297	25218.35
515.499	25634.08
515.701	26471.7
515.904	26940.69
516.106	27245.83
516.308	27895.04
516.51	28726.52
516.712	28988.66
516.914	29512.94
517.116	30096.61
517.318	30622.94
517.52	31304.91
517.722	31505.61
517.925	32715.96
518.127	33467.56
518.329	33424.56
518.531	33778.86
518.733	34927.77
518.935	35511.44
519.136	35114.13
519.338	36502.65
519.54	36715.64
519.742	37493.87
519.944	37837.93
520.146	38759.52
520.348	39087.19
520.55	39380.05
520.752	39992.39
520.954	40817.72
521.155	40631.36
521.357	41579.57
521.559	42085.42
521.761	42630.18
521.963	42839.07
522.164	43207.7
522.366	43977.74
522.568	44041.23
522.77	44248.07
522.971	45071.35
523.173	44790.78
523.375	45161.47
523.576	45231.1
523.778	45368.31
523.98	46302.18
524.181	46439.4
524.383	46128.11
524.584	46892
524.786	46601.19
524.988	46502.89
525.189	46713.83
525.391	47000.54
525.592	47442.9
525.794	46738.4
525.995	46627.81
526.197	46898.14
526.398	46805.98
526.6	46769.12
526.801	47037.4
527.003	46398.44
527.204	46377.96
527.406	46590.95
527.607	45962.22
527.808	46078.96
528.01	44946.43
528.211	45265.91
528.412	45978.61
528.614	45642.74
528.815	44995.58
529.016	44887.04
529.218	43975.69
529.419	43627.54
529.62	43512.85
529.822	43052.06
530.023	42839.07
530.224	42576.93
530.425	41858.09
530.626	41208.89
530.828	40528.96
531.029	40907.83
531.23	40260.68
531.431	39677.01
531.632	39400.53
531.833	39470.16
532.035	38339.68
532.236	38169.7
532.437	37811.31
532.638	36979.83
532.839	36949.11
533.04	36379.78
533.241	35554.44
533.442	35595.4
533.643	35101.84
533.844	34512.03
534.045	34299.04
534.246	33418.41
534.447	33033.39
534.648	32402.62
534.849	32459.96
535.05	31526.09
535.251	31040.72
535.451	30999.76
535.652	30723.29
535.853	30184.67
536.054	29916.39
536.255	29553.9
536.456	28749.04
536.657	29070.58
536.857	28249.34
537.058	28003.58
537.259	27747.59
537.46	26791.19
537.66	26637.59
537.861	26475.8
538.062	26113.31
538.263	25644.32
538.463	25480.49
538.664	25259.31
538.865	24790.32
539.065	24573.24
539.266	23967.04
539.466	24141.11
539.667	23375.17
539.868	23455.04
540.068	22898
540.269	22613.33
540.469	22598.99
540.67	22166.87
540.87	22031.71
541.071	21794.14
541.271	21648.74
541.472	21441.89
541.672	21087.59
541.873	20659.57
542.073	20137.34
542.274	20399.48
542.474	20075.9
542.675	19897.72
542.875	19604.86
543.075	19123.59
543.276	19146.12
543.476	19457.41
543.676	18705.81
543.877	18476.43
544.077	18443.67
544.277	18257.3
544.478	18150.81
544.678	17993.11
544.878	17409.44
545.078	17366.43
545.279	16760.23
545.479	16870.83
545.679	16690.6
545.879	16412.08
546.079	16477.62
546.28	15961.53
546.48	15883.7
546.68	16092.6
546.88	15814.07
547.08	15775.16
547.28	15220.16
547.48	15046.09
547.68	15072.71
547.88	14665.16
548.081	14718.41
548.281	14407.12
548.481	14101.97
548.681	13741.53
548.881	13661.66
549.081	13487.58
549.28	13413.85
549.48	13301.22
549.68	13125.09
549.88	13260.26
550.08	12641.77
550.28	12641.77
550.48	12406.25
550.68	12357.1
550.88	12037.62
551.08	12041.71
551.279	11722.23
551.479	11372.03
551.679	11412.99
551.879	11212.29
552.079	11236.86
552.278	10798.6
552.478	10937.86
552.678	10771.97
552.878	10743.3
553.077	10409.48
553.277	10077.71
553.477	9917.97
553.676	9700.89
553.876	9713.17
554.076	9596.44
554.275	9461.27
554.475	9274.91
554.674	9250.33
554.874	9106.98
555.074	8730.15
555.273	8832.55
555.473	8601.13
555.672	8416.81
555.872	8287.79
556.071	8056.37
556.271	8191.53
556.47	7951.92
556.67	7640.63
556.869	7484.98
557.068	7491.13
557.268	7462.46
557.467	7097.92
557.667	7226.94
557.866	6934.08
558.065	6846.02
558.265	6813.25
558.464	6653.51
558.663	6635.08
558.863	6450.76
559.062	6245.96
559.261	6256.2
559.461	6426.18
559.66	6121.04
559.859	5895.76
560.058	6026.83
560.258	5713.49
560.457	5693.01
560.656	5842.51
560.855	5596.76
561.054	5527.13
561.253	5412.44
561.453	5199.45
561.652	5273.18
561.851	5099.1
562.05	4947.55
562.249	4896.35
562.448	4830.82
562.647	4572.77
562.846	4742.75
563.045	4861.54
563.244	4578.92
563.443	4527.72
563.642	4433.51
563.841	4417.13
564.04	4288.11
564.239	4396.65
564.438	4118.12
564.637	4163.18
564.836	4130.41
565.035	4064.88
565.234	3921.52
565.432	3849.84
565.631	3903.09
565.83	3868.27
566.029	3737.2
566.228	3589.75
566.427	3733.11
566.625	3501.69
566.824	3563.12
567.023	3483.25
567.222	3452.53
567.42	3341.94
567.619	3290.74
567.818	3323.51
568.016	3466.87
568.215	3266.17
568.414	3112.57
568.612	3198.59
568.811	3083.9
569.01	3077.76
569.208	2997.88
569.407	2977.41
569.605	2856.58
569.804	2815.62
570.002	2748.03
570.201	2786.94
570.4	2870.91
570.598	2596.48
570.797	2584.2
570.995	2573.96
571.193	2489.99
571.392	2629.25
571.59	2356.87
571.789	2418.31
571.987	2510.47
572.186	2506.37
572.384	2444.93
572.582	2373.25
572.781	2274.95
572.979	2162.31
573.177	2188.94
573.376	2252.42
573.574	2229.9
573.772	2092.68
573.971	2047.63
574.169	1998.48
574.367	2014.86
574.565	1875.6
574.763	1912.46
574.962	1980.04
575.16	1861.26
575.358	1775.25
575.556	1787.54
575.754	1836.69
575.952	1687.18
576.151	1752.72
576.349	1742.48
576.547	1617.55
576.745	1648.27
576.943	1795.73
577.141	1597.07
577.339	1564.31
577.537	1459.86
577.735	1574.55
577.933	1537.68
578.131	1484.44
578.329	1568.4
578.527	1341.08
578.725	1560.21
578.923	1291.93
579.121	1478.29
579.319	1246.87
579.516	1322.65
579.714	1529.49
579.912	1412.76
580.11	1220.25
580.308	1212.06
580.506	1277.59
580.704	1136.28
580.901	1167
581.099	1267.35
581.297	1277.59
581.495	1027.74
581.692	1185.43
581.89	1283.74
582.088	1171.1
582.285	1085.08
582.483	972.44
582.681	1033.88
582.878	964.25
583.076	1119.9
583.274	1033.88
583.471	1130.14
583.669	976.54
583.866	947.87
584.064	917.15
584.262	886.43
584.459	808.61
584.657	888.48
584.854	884.38
585.052	925.34
585.249	935.58
585.447	945.82
585.644	784.03
585.841	835.23
586.039	943.77
586.236	915.1
586.434	822.94
586.631	710.3
586.828	741.02
587.026	849.57
587.223	659.1
587.42	689.82
587.618	704.16
587.815	833.18
588.012	638.62
588.21	714.4
588.407	681.63
588.604	706.21
588.801	599.71
588.999	677.54
589.196	724.64
589.393	556.71
589.59	698.02
589.787	681.63
589.984	800.41
590.182	689.82
590.379	671.39
590.576	562.85
590.773	575.14
590.97	585.38
591.167	612
591.364	636.58
591.561	605.86
591.758	718.5
591.955	702.11
592.152	599.71
592.349	620.19
592.546	536.23
592.743	640.67
592.94	634.53
593.137	609.95
593.334	626.34
593.531	677.54
593.727	552.61
593.924	579.23
594.121	626.34
594.318	618.15
594.515	622.24
594.712	734.88
594.908	794.27
595.105	546.47
595.302	669.34
595.499	747.17
595.696	865.95
595.892	646.82
596.089	804.51
596.286	730.78
596.482	861.85
596.679	788.13
596.876	659.1
597.072	814.75
597.269	788.13
597.466	810.65
597.662	810.65
597.859	878.24
598.055	941.72
598.252	974.49
598.448	1013.4
598.645	1042.07
598.841	1062.55
599.038	1126.04
599.234	1250.97
599.431	1142.43
599.627	1164.95
599.824	1179.29
600.02	1271.45
600.217	1302.17
600.413	1439.38
600.609	1375.89
600.806	1689.23
601.002	1560.21
601.198	1418.9
601.395	1719.95
601.591	1719.95
601.787	1820.3
601.984	1922.7
602.18	1941.13
602.376	2057.87
602.572	2123.4
602.769	2254.47
602.965	2297.48
603.161	2385.54
603.357	2524.8
603.553	2514.56
603.75	2434.69
603.946	2616.96
604.142	2700.93
604.338	2825.86
604.534	2885.25
604.73	3128.95
604.926	2983.55
605.122	3272.31
605.318	3212.92
605.514	3372.66
605.71	3368.57
605.906	3622.52
606.102	3677.81
606.298	3962.48
606.494	3966.57
606.69	4050.54
606.886	4073.07
607.082	4173.42
607.278	4386.41
607.474	4511.33
607.67	4570.72
607.866	4646.5
608.062	4904.54
608.257	4978.27
608.453	5006.94
608.649	5326.43
608.845	5238.36
609.041	5559.89
609.236	5877.33
609.432	5834.32
609.628	6047.31
609.824	6301.26
610.019	6266.44
610.215	6454.86
610.411	6714.95
610.606	6878.79
610.802	6938.18
610.998	7075.39
611.193	7480.89
611.389	7437.88
611.584	7743.03
611.78	7978.54
611.976	8156.72
612.171	8515.11
612.367	8711.72
612.562	8904.23
612.758	8928.8
612.953	9100.83
613.149	9561.62
613.344	9629.21
613.539	10110.48
613.735	10327.57
613.93	10737.16
614.126	10771.97
614.321	11103.75
614.517	11605.5
614.712	11531.77
614.907	11904.5
615.103	12400.11
615.298	12588.52
615.493	12824.04
615.688	13114.85
615.884	13702.62
616.079	13749.72
616.274	14245.33
616.47	14448.08
616.665	14812.62
616.86	15384
617.055	15412.67
617.25	16059.83
617.445	16469.42
617.641	16649.64
617.836	17253.8
618.031	17358.24
618.226	18253.2
618.421	18529.68
618.616	19174.79
618.811	19182.98
619.006	20018.55
619.201	20215.16
619.396	20884.84
619.591	20768.11
619.786	21497.19
619.981	21781.85
620.176	22564.18
620.371	22639.95
620.566	23311.69
620.761	23620.93
620.956	24290.62
621.151	24577.33
621.346	25154.86
621.541	25394.47
621.735	26375.45
621.93	26582.29
622.125	26987.79
622.32	27055.37
622.515	28218.62
622.709	28521.72
622.904	29052.14
623.099	29512.94
623.294	30119.14
623.488	30448.86
623.683	30854.36
623.878	31184.08
624.072	32167.1
624.267	32650.42
624.462	33078.45
624.656	33109.17
624.851	34075.81
625.046	34266.27
625.24	35015.83
625.435	34960.53
625.629	35517.58
625.824	36428.93
626.018	36850.81
626.213	36639.87
626.407	37209.2
626.602	37336.18
626.796	38014.05
626.991	38259.81
627.185	38937.69
627.38	38380.64
627.574	39113.81
627.768	39087.19
627.963	39224.4
628.157	39359.57
628.352	39734.35
628.546	39033.94
628.74	39599.18
628.935	39394.39
629.129	39384.15
629.323	39064.66
629.517	39038.04
629.712	38544.48
629.906	38083.69
630.1	37362.8
630.294	37964.9
630.489	36621.44
630.683	36762.75
630.877	35505.29
631.071	35097.75
631.265	34970.77
631.459	33774.76
631.653	33029.3
631.848	32539.83
632.042	31298.77
632.236	30919.89
632.43	29881.57
632.624	29146.35
632.818	28321.02
633.012	27497.74
633.206	26420.5
633.4	25949.47
633.594	24573.24
633.788	24220.99
633.982	23319.88
634.176	22250.84
634.369	21376.36
634.563	20688.24
634.757	19533.18
634.951	19105.16
635.145	18591.12
635.339	17556.89
635.533	17016.23
635.726	16324.02
635.92	15494.59
636.114	14812.62
636.308	14499.28
636.501	13667.8
636.695	13202.91
636.889	12580.33
637.083	12027.38
637.276	11447.8
637.47	11159.04
637.664	10683.91
637.857	10307.09
638.051	9840.15
638.244	9541.15
638.438	9070.11
638.632	8742.44
638.825	8121.9
639.019	8152.62
639.212	7730.74
639.406	7527.99
639.599	7081.53
639.793	6850.11
639.986	6573.64
640.18	6508.1
640.373	6123.09
640.567	5826.13
640.76	5641.81
640.954	5439.06
641.147	5041.76
641.34	4925.02
641.534	4779.62
641.727	4798.05
641.92	4453.99
642.114	4355.69
642.307	4101.74
642.5	3974.77
642.694	3819.12
642.887	3722.87
643.08	3518.07
643.273	3493.49
643.467	3229.31
643.66	3094.14
643.853	3020.41
644.046	2887.29
644.239	2766.46
644.432	2596.48
644.626	2467.46
644.819	2533
645.012	2305.67
645.205	2262.66
645.398	2283.14
645.591	2004.62
645.784	2004.62
645.977	1930.89
646.17	1750.67
646.363	1842.83
646.556	1744.53
646.749	1601.17
646.942	1660.56
647.135	1625.75
647.328	1394.33
647.521	1384.09
647.714	1425.04
647.907	1363.61
648.099	1205.91
648.292	1336.98
648.485	1320.6
648.678	1080.99
648.871	1068.7
649.064	1023.64
649.256	949.92
649.449	951.96
649.642	890.53
649.835	896.67
650.027	843.42
650.22	886.43
650.413	790.17
650.605	781.98
650.798	763.55
650.991	673.44
651.183	710.3
651.376	691.87
651.568	732.83
651.761	650.91
651.954	605.86
652.146	626.34
652.339	628.39
652.531	669.34
652.724	550.56
652.916	446.12
653.109	356.01
653.301	521.89
653.494	550.56
653.686	458.4
653.879	558.75
654.071	472.74
654.263	399.01
654.456	382.63
654.648	468.64
654.84	550.56
655.033	413.35
655.225	394.92
655.417	235.18
655.61	409.25
655.802	462.5
655.994	372.39
656.186	226.98
656.379	372.39
656.571	280.23
656.763	292.52
656.955	265.89
657.148	313
657.34	401.06
657.532	282.28
657.724	286.37
657.916	294.57
658.108	317.09
658.3	376.48
658.492	347.81
658.684	147.11
658.876	282.28
659.068	143.02
659.26	169.64
659.452	239.27
659.644	224.94
659.836	333.48
660.028	249.51
660.22	134.82
660.412	167.59
660.604	202.41
660.796	190.12
660.988	253.61
661.18	263.85
661.372	212.65
661.563	165.54
661.755	224.94
661.947	134.82
662.139	143.02
662.331	165.54
662.522	157.35
662.714	155.3
662.906	161.45
663.097	155.3
663.289	159.4
663.481	38.57
663.673	186.02
663.864	120.49
664.056	190.12
664.247	91.82
664.439	267.94
664.631	124.58
664.822	259.75
665.014	104.11
665.205	13.99
665.397	59.05
665.588	163.5
665.78	110.25
665.971	128.68
666.163	42.67
666.354	204.46
666.546	54.95
666.737	108.2
666.929	69.29
667.12	9.9
667.311	104.11
667.503	118.44
667.694	153.26
667.885	134.82
668.077	163.5
668.268	79.53
668.459	130.73
668.651	136.87
668.842	157.35
669.033	73.39
669.224	52.91
669.416	313
669.607	112.3
669.798	36.52
669.989	159.4
670.18	108.2
670.371	214.7
670.563	65.19
670.754	202.41
670.945	140.97
671.136	175.78
671.327	20.14
671.518	251.56
671.709	231.08
671.9	190.12
672.091	126.63
672.282	138.92
672.473	85.67
672.664	83.63
672.855	229.03
673.046	124.58
673.237	198.31
673.428	106.15
673.619	116.39
673.809	93.87
674	151.21
674.191	120.49
674.382	57
674.573	69.29
674.764	30.38
674.954	204.46
675.145	102.06
675.336	83.63
675.527	65.19
675.717	28.33
675.908	61.1
676.099	52.91
676.289	171.69
676.48	-4.44
676.671	114.34
676.861	89.77
677.052	177.83
677.243	67.24
677.433	65.19
677.624	167.59
677.814	134.82
678.005	126.63
678.195	190.12
678.386	83.63
678.576	140.97
678.767	26.28
678.957	67.24
679.148	183.98
679.338	163.5
679.529	145.06
679.719	157.35
679.909	210.6
680.1	263.85
680.29	226.98
680.481	32.43
680.671	177.83
680.861	97.96
681.052	157.35
681.242	-26.96
681.432	75.43
681.622	140.97
681.813	75.43
682.003	175.78
682.193	69.29
682.383	97.96
682.573	77.48
682.764	114.34
682.954	163.5
683.144	198.31
683.334	48.81
683.524	126.63
683.714	165.54
683.904	143.02
684.094	95.91
684.284	122.54
684.474	200.36
684.664	167.59
684.854	179.88
685.044	124.58
685.234	163.5
685.424	110.25
685.614	106.15
685.804	300.71
685.994	183.98
686.184	38.57
686.374	179.88
686.564	104.11
686.753	173.74
686.943	67.24
687.133	157.35
687.323	46.76
687.513	177.83
687.702	163.5
687.892	116.39
688.082	329.38
688.272	216.74
688.461	138.92
688.651	325.29
688.841	104.11
689.03	147.11
689.22	128.68
689.41	188.07
689.599	175.78
689.789	134.82
689.979	206.5
690.168	81.58
690.358	257.7
690.547	173.74
690.737	243.37
690.926	183.98
691.116	128.68
691.305	188.07
691.495	210.6
691.684	63.15
691.874	61.1
692.063	95.91
692.252	204.46
692.442	188.07
692.631	122.54
692.82	167.59
693.01	175.78
693.199	75.43
693.388	233.13
693.578	143.02
693.767	200.36
693.956	245.41
694.146	167.59
694.335	229.03
694.524	54.95
694.713	128.68
694.902	206.5
695.092	108.2
695.281	210.6
695.47	100.01
695.659	106.15
695.848	124.58
696.037	52.91
696.226	210.6
696.415	157.35
696.604	243.37
696.793	186.02
696.982	183.98
697.171	308.9
697.36	145.06
697.549	124.58
697.738	28.33
697.927	112.3
698.116	108.2
698.305	175.78
698.494	177.83
698.683	159.4
698.872	284.33
699.061	106.15
699.25	208.55
699.438	116.39
699.627	128.68
699.816	274.09
700.005	-41.3
700.193	36.52
700.382	169.64
700.571	192.17
700.76	159.4
700.948	216.74
701.137	216.74
701.326	261.8
701.514	95.91
701.703	104.11
701.892	145.06
702.08	188.07
702.269	100.01
702.457	110.25
702.646	181.93
702.834	181.93
703.023	229.03
703.212	241.32
703.4	161.45
703.589	128.68
703.777	63.15
703.965	147.11
704.154	128.68
704.342	65.19
704.531	77.48
704.719	134.82
704.907	249.51
705.096	26.28
705.284	124.58
705.472	77.48
705.661	163.5
705.849	136.87
706.037	179.88
706.226	128.68
706.414	116.39
706.602	143.02
706.79	216.74
706.979	97.96
707.167	198.31
707.355	73.39
707.543	122.54
707.731	161.45
707.919	91.82
708.107	108.2
708.296	36.52
708.484	126.63
708.672	116.39
708.86	214.7
709.048	30.38
709.236	138.92
709.424	126.63
709.612	198.31
709.8	-6.49
709.988	126.63
710.176	106.15
710.364	171.69
710.551	91.82
710.739	91.82
710.927	134.82
711.115	73.39
711.303	196.26
711.491	235.18
711.679	114.34
711.866	161.45
712.054	136.87
712.242	181.93
712.43	218.79
712.617	157.35
712.805	196.26
712.993	157.35
713.181	3.75
713.368	126.63
713.556	175.78
713.744	136.87
713.931	298.66
714.119	243.37
714.306	63.15
714.494	118.44
714.682	132.78
714.869	-51.54
715.057	61.1
715.244	173.74
715.432	169.64
715.619	69.29
715.807	175.78
715.994	112.3
716.182	179.88
716.369	194.22
716.556	161.45
716.744	57
716.931	136.87
717.119	190.12
717.306	212.65
717.493	163.5
717.681	165.54
717.868	116.39
718.055	206.5
718.242	179.88
718.43	190.12
718.617	257.7
718.804	32.43
718.991	186.02
719.179	136.87
719.366	145.06
719.553	202.41
719.74	77.48
719.927	124.58
720.114	165.54
720.301	149.16
720.488	73.39
720.676	93.87
720.863	345.77
721.05	267.94
721.237	179.88
721.424	259.75
721.611	216.74
721.798	22.19
721.985	198.31
722.172	108.2
722.358	173.74
722.545	206.5
722.732	89.77
722.919	294.57
723.106	116.39
723.293	171.69
723.48	147.11
723.667	118.44
723.853	214.7
724.04	243.37
724.227	255.65
724.414	126.63
724.6	288.42
724.787	286.37
724.974	313
725.161	120.49
725.347	130.73
725.534	190.12
725.72	196.26
725.907	233.13
726.094	171.69
726.28	104.11
726.467	143.02
726.653	87.72
726.84	321.19
727.027	155.3
727.213	175.78
727.4	147.11
727.586	177.83
727.773	138.92
727.959	214.7
728.145	145.06
728.332	188.07
728.518	106.15
728.705	210.6
728.891	153.26
729.077	222.89
729.264	104.11
729.45	138.92
729.636	255.65
729.823	163.5
730.009	157.35
730.195	224.94
730.382	183.98
730.568	77.48
730.754	243.37
730.94	122.54
731.126	177.83
731.313	165.54
731.499	200.36
731.685	208.55
731.871	235.18
732.057	214.7
732.243	245.41
732.429	214.7
732.615	315.05
732.801	214.7
732.987	186.02
733.173	181.93
733.359	173.74
733.545	186.02
733.731	202.41
733.917	306.85
734.103	198.31
734.289	259.75
734.475	93.87
734.661	308.9
734.847	198.31
735.033	161.45
735.219	261.8
735.404	204.46
735.59	247.46
735.776	214.7
735.962	243.37
736.148	257.7
736.333	331.43
736.519	188.07
736.705	202.41
736.89	173.74
737.076	226.98
737.262	116.39
737.447	188.07
737.633	165.54
737.819	267.94
738.004	167.59
738.19	239.27
738.375	192.17
738.561	317.09
738.747	163.5
738.932	140.97
739.118	380.58
739.303	204.46
739.489	226.98
739.674	257.7
739.859	85.67
740.045	206.5
740.23	249.51
740.416	22.19
740.601	208.55
740.786	149.16
740.972	126.63
741.157	151.21
741.342	163.5
741.528	149.16
741.713	300.71
741.898	186.02
742.084	190.12
742.269	208.55
742.454	257.7
742.639	241.32
742.824	143.02
743.01	261.8
743.195	265.89
743.38	159.4
743.565	167.59
743.75	145.06
743.935	224.94
744.12	239.27
744.305	120.49
744.49	204.46
744.675	132.78
744.86	165.54
745.045	300.71
745.23	159.4
745.415	112.3
745.6	280.23
745.785	134.82
745.97	204.46
746.155	302.76
746.34	253.61
746.525	190.12
746.71	313
746.895	112.3
747.079	61.1
747.264	89.77
747.449	175.78
747.634	269.99
747.819	206.5
748.003	186.02
748.188	46.76
748.373	237.22
748.557	175.78
748.742	190.12
748.927	69.29
749.111	151.21
749.296	128.68
749.481	272.04
749.665	143.02
749.85	136.87
750.034	145.06
750.219	177.83
750.404	71.34
750.588	175.78
750.773	79.53
750.957	149.16
751.141	120.49
751.326	204.46
751.51	97.96
751.695	116.39
751.879	147.11
752.064	255.65
752.248	106.15
752.432	249.51
752.617	218.79
752.801	181.93
752.985	212.65
753.17	259.75
753.354	120.49
753.538	167.59
753.722	100.01
753.907	61.1
754.091	93.87
754.275	235.18
754.459	11.95
754.643	40.62
754.828	116.39
755.012	159.4
755.196	18.09
755.38	138.92
755.564	26.28
755.748	153.26
755.932	157.35
756.116	165.54
756.3	216.74
756.484	81.58
756.668	126.63
756.852	-20.82
757.036	67.24
757.22	110.25
757.404	7.85
757.588	7.85
757.772	196.26
757.956	118.44
758.14	235.18
758.323	-12.63
758.507	161.45
758.691	22.19
758.875	85.67
759.059	210.6
759.242	112.3
759.426	210.6
759.61	124.58
759.794	-18.77
759.977	183.98
760.161	306.85
760.345	251.56
760.528	218.79
760.712	147.11
760.895	83.63
761.079	128.68
761.263	-41.3
761.446	-4.44
761.63	118.44
761.813	171.69
761.997	-26.96
762.18	36.52
762.364	155.3
762.547	18.09
762.731	16.04
762.914	63.15
763.098	75.43
763.281	73.39
763.464	20.14
763.648	97.96
763.831	67.24
764.015	34.47
764.198	134.82
764.381	30.38
764.564	52.91
764.748	46.76
764.931	179.88
765.114	112.3
765.297	132.78
765.481	-31.06
765.664	65.19
765.847	34.47
766.03	63.15
766.213	-24.92
766.397	61.1
766.58	-37.2
766.763	85.67
766.946	87.72
767.129	81.58
767.312	-51.54
767.495	26.28
767.678	46.76
767.861	147.11
768.044	16.04
768.227	30.38
768.41	52.91
768.593	151.21
768.776	9.9
768.959	87.72
769.142	132.78
769.324	-39.25
769.507	50.86
769.69	-8.53
769.873	3.75
770.056	241.32
770.239	34.47
770.421	89.77
770.604	71.34
770.787	9.9
770.97	65.19
771.152	-0.34
771.335	46.76
771.518	-63.83
771.7	126.63
771.883	257.7
772.066	-22.87
772.248	126.63
772.431	108.2
772.613	155.3
772.796	145.06
772.978	18.09
773.161	136.87
773.343	32.43
773.526	-6.49
773.708	-20.82
773.891	-55.64
774.073	71.34
774.256	71.34
774.438	149.16
774.621	-0.34
774.803	73.39
774.985	-22.87
775.168	81.58
775.35	-22.87
775.532	140.97
775.715	-4.44
775.897	89.77
776.079	-24.92
776.261	18.09
776.444	-8.53
776.626	-35.16
776.808	89.77
776.99	11.95
777.173	-2.39
777.355	75.43
777.537	26.28
777.719	67.24
777.901	-37.2
778.083	-16.73
778.265	-41.3
778.447	87.72
778.629	-12.63
778.811	-49.49
778.993	65.19
779.175	112.3
779.357	40.62
779.539	-6.49
779.721	93.87
779.903	36.52
780.085	57
780.267	57
780.449	48.81
780.631	26.28
780.812	79.53
780.994	30.38
781.176	16.04
781.358	-53.59
781.54	75.43
781.721	22.19
781.903	52.91
782.085	83.63
782.267	116.39
782.448	-59.73
782.63	-22.87
782.812	26.28
782.993	34.47
783.175	59.05
783.357	-82.26
783.538	118.44
783.72	5.8
783.901	-22.87
784.083	61.1
784.264	-26.96
784.446	-78.16
784.627	-39.25
784.809	30.38
784.99	-2.39
785.172	91.82
785.353	-65.88
785.535	42.67
785.716	9.9
785.897	-78.16
786.079	32.43
786.26	46.76
786.441	65.19
786.623	-59.73
786.804	9.9
786.985	1.71
787.167	73.39
787.348	79.53
787.529	-33.11
787.71	151.21
787.891	73.39
788.073	-39.25
788.254	-112.98
788.435	161.45
788.616	79.53
788.797	-51.54
788.978	13.99
789.159	-10.58
789.34	-10.58
789.522	-33.11
789.703	-90.45
789.884	-4.44
790.065	22.19
790.246	3.75
790.427	-6.49
790.607	93.87
790.788	61.1
790.969	-88.4
791.15	73.39
791.331	-92.5
791.512	26.28
791.693	-31.06
791.874	-0.34
792.054	157.35
792.235	91.82
792.416	-110.93
792.597	7.85
792.778	89.77
792.958	20.14
793.139	52.91
793.32	79.53
793.5	-78.16
793.681	151.21
793.862	24.23
794.042	95.91
794.223	-41.3
794.404	-12.63
794.584	-127.32
794.765	-55.64
794.945	-59.73
795.126	20.14
795.306	104.11
795.487	-12.63
795.667	-35.16
795.848	-4.44
796.028	13.99
796.209	50.86
796.389	-29.01
796.57	-10.58
796.75	-51.54
796.93	-35.16
797.111	-51.54
797.291	-61.78
797.471	104.11
797.652	30.38
797.832	-104.79
798.012	48.81
798.192	-53.59
798.373	-100.69
798.553	-26.96
798.733	32.43
798.913	-78.16
799.093	-94.55
799.274	-4.44
799.454	-10.58
799.634	108.2
799.814	-8.53
799.994	59.05
800.174	52.91
800.354	-29.01
800.534	-141.65
800.714	34.47
800.894	-72.02
801.074	-37.2
801.254	-41.3
801.434	42.67
801.614	-31.06
801.794	-69.97
801.974	2021
802.154	-59.73
802.334	110.25
802.514	-72.02
802.693	-37.2
802.873	5.8
803.053	16.04
803.233	89.77
803.413	-18.77
803.592	-49.49
803.772	-84.31
803.952	48.81
804.131	5.8
804.311	40.62
804.491	122.54
804.67	-20.82
804.85	-121.17
805.03	106.15
805.209	114.34
805.389	-6.49
805.568	-31.06
805.748	-12.63
805.928	-10.58
806.107	-55.64
806.287	50.86
806.466	11.95
806.646	-72.02
806.825	38.57
807.004	-65.88
807.184	71.34
807.363	63.15
807.543	-4.44
807.722	-76.12
807.901	122.54
808.081	83.63
808.26	-121.17
808.439	-74.07
808.619	-4.44
808.798	-43.35
808.977	20.14
809.156	73.39
809.336	57
809.515	3.75
809.694	-88.4
809.873	-76.12
810.052	20.14
810.231	120.49
810.411	7.85
810.59	59.05
810.769	-18.77
810.948	46.76
811.127	-100.69
811.306	-119.12
811.485	-84.31
811.664	93.87
811.843	65.19
812.022	-53.59
812.201	3.75
812.38	-29.01
812.559	-63.83
812.737	1.71
812.916	-72.02
813.095	-90.45
813.274	30.38
813.453	-51.54
813.632	100.01
813.811	28.33
813.989	-102.74
814.168	13.99
814.347	-33.11
814.526	48.81
814.704	104.11
814.883	57
815.062	-147.8
815.24	24.23
815.419	-12.63
815.598	-51.54
815.776	-147.8
815.955	-33.11
816.133	-127.32
816.312	-63.83
816.49	-129.36
816.669	20.14
816.847	-22.87
817.026	13.99
817.204	30.38
817.383	-29.01
817.561	-141.65
817.74	-53.59
817.918	18.09
818.097	-6.49
818.275	-90.45
818.453	75.43
818.632	20.14
818.81	3.75
818.988	-33.11
819.167	-35.16
819.345	11.95
819.523	-80.21
819.701	22.19
819.879	40.62
820.058	-16.73
820.236	11.95
820.414	3.75
820.592	-41.3
820.77	-31.06
820.948	-112.98
821.127	-92.5
821.305	22.19
821.483	-96.6
821.661	38.57
821.839	20.14
822.017	-61.78
822.195	-41.3
822.373	46.76
822.551	40.62
822.729	73.39
822.907	3.75
823.085	77.48
823.262	-24.92
823.44	-2.39
823.618	-33.11
823.796	83.63
823.974	-37.2
824.152	-0.34
824.329	-76.12
824.507	-55.64
824.685	-55.64
824.863	-86.36
825.04	-22.87
825.218	20.14
825.396	11.95
825.574	46.76
825.751	-82.26
825.929	-0.34
826.107	-53.59
826.284	3.75
826.462	20.14
826.639	-110.93
826.817	-123.22
826.994	40.62
827.172	-92.5
827.349	126.63
827.527	28.33
827.704	116.39
827.882	110.25
828.059	-29.01
828.237	-57.68
828.414	69.29
828.591	-149.84
828.769	-0.34
828.946	-4.44
829.124	75.43
829.301	30.38
829.478	-72.02
829.655	16.04
829.833	-51.54
830.01	-67.92
830.187	20.14
830.364	-29.01
830.542	-86.36
830.719	65.19
830.896	28.33
831.073	-8.53
831.25	87.72
831.427	34.47
831.604	28.33
831.782	-39.25
831.959	26.28
832.136	-2.39
832.313	44.71
832.49	-121.17
832.667	-49.49
832.844	-4.44
833.021	69.29
833.198	38.57
833.374	7.85
833.551	83.63
833.728	-59.73
833.905	63.15
834.082	-147.8
834.259	110.25
834.436	93.87
834.612	-147.8
834.789	69.29
834.966	-37.2
835.143	38.57
835.319	18.09
835.496	81.58
835.673	-20.82
835.85	42.67
836.026	34.47
836.203	120.49
836.38	16.04
836.556	-41.3
836.733	-143.7
836.909	106.15
837.086	-24.92
837.262	-151.89
837.439	-86.36
837.616	-63.83
837.792	28.33
837.968	-22.87
838.145	-196.95
838.321	-31.06
838.498	48.81
838.674	-12.63
838.851	-31.06
839.027	-16.73
839.203	22.19
839.38	61.1
839.556	-121.17
839.732	38.57
839.909	-63.83
840.085	38.57
840.261	-102.74
840.437	-26.96
840.614	-20.82
840.79	50.86
840.966	91.82
841.142	-26.96
841.318	-8.53
841.494	-47.44
841.671	40.62
841.847	-47.44
842.023	-74.07
842.199	42.67
842.375	87.72
842.551	-94.55
842.727	-119.12
842.903	40.62
843.079	-90.45
843.255	118.44
843.431	48.81
843.607	9.9
843.783	-188.75
843.959	59.05
844.134	-16.73
844.31	104.11
844.486	-35.16
844.662	-2.39
844.838	5.8
845.013	11.95
845.189	-31.06
845.365	-65.88
845.541	-49.49
845.716	-33.11
845.892	-31.06
846.068	-104.79
846.244	-63.83
846.419	34.47
846.595	-51.54
846.77	-106.84
846.946	22.19
847.122	-31.06
847.297	1.71
847.473	114.34
847.648	-117.08
847.824	11.95
847.999	-37.2
848.175	-133.46
848.35	20.14
848.526	16.04
848.701	30.38
848.876	149.16
849.052	30.38
849.227	-65.88
849.403	-112.98
849.578	1.71
849.753	-41.3
849.929	93.87
850.104	-53.59
850.279	-18.77
850.454	-35.16
850.63	-8.53
850.805	44.71
850.98	18.09
851.155	-24.92
851.33	-8.53
851.505	-121.17
851.681	44.71
851.856	-74.07
852.031	3.75
852.206	-14.68
852.381	-86.36
852.556	-106.84
852.731	-45.4
852.906	-72.02
853.081	22.19
853.256	116.39
853.431	-22.87
853.606	-35.16
853.781	-141.65
853.956	-125.27
854.131	-74.07
854.305	-115.03
854.48	-43.35
854.655	-57.68
854.83	-51.54
855.005	-4.44
855.18	63.15
855.354	16.04
855.529	1.71
855.704	-20.82
855.879	75.43
856.053	-59.73
856.228	52.91
856.403	-45.4
856.577	-6.49
856.752	-129.36
856.926	16.04
857.101	48.81
857.276	-115.03
857.45	-10.58
857.625	-10.58
857.799	-57.68
857.974	-55.64
858.148	-2.39
858.323	-33.11
858.497	-12.63
858.672	-100.69
858.846	-72.02
859.02	83.63
859.195	-133.46
859.369	-51.54
859.543	-22.87
859.718	3.75
859.892	34.47
860.066	-41.3
860.241	-14.68
860.415	-49.49
860.589	-2.39
860.763	13.99
860.938	-29.01
861.112	-2.39
861.286	-131.41
861.46	-2.39
861.634	-37.2
861.808	73.39
861.982	-33.11
862.157	-117.08
862.331	-59.73
862.505	-139.6
862.679	-137.56
862.853	-69.97
863.027	-10.58
863.201	112.3
863.375	-65.88
863.549	11.95
863.722	-26.96
863.896	143.02
864.07	-41.3
864.244	-76.12
864.418	54.95
864.592	-72.02
864.766	-2.39
864.939	-55.64
865.113	-115.03
865.287	89.77
865.461	-57.68
865.634	-63.83
865.808	28.33
865.982	-51.54
866.156	16.04
866.329	-76.12
866.503	42.67
866.676	83.63
866.85	1.71
867.024	-74.07
867.197	140.97
867.371	69.29
867.544	26.28
867.718	-104.79
867.891	13.99
868.065	-106.84
868.238	30.38
868.412	52.91
868.585	-78.16
868.759	-108.88
868.932	-41.3
869.105	-166.23
869.279	13.99
869.452	-20.82
869.625	77.48
869.799	-20.82
869.972	-55.64
870.145	-55.64
870.319	61.1
870.492	-72.02
870.665	-57.68
870.838	48.81
871.011	-145.75
871.185	-82.26
871.358	-55.64
871.531	44.71
871.704	-115.03
871.877	32.43
872.05	-22.87
872.223	-55.64
872.396	44.71
872.569	16.04
872.742	-31.06
872.915	46.76
873.088	-90.45
873.261	-139.6
873.434	32.43
873.607	-24.92
873.78	110.25
873.953	-133.46
874.126	54.95
874.299	48.81
874.471	-24.92
874.644	-43.35
874.817	22.19
874.99	171.69
875.163	-16.73
875.335	-2.39
875.508	-88.4
875.681	85.67
875.853	-90.45
876.026	-8.53
876.199	30.38
876.371	-63.83
876.544	-6.49
876.717	38.57
876.889	-24.92
877.062	46.76
877.234	-51.54
877.407	-63.83
877.579	-14.68
877.752	3.75
877.924	7.85
878.097	-29.01
878.269	-0.34
878.442	-53.59
878.614	75.43
878.786	-67.92
878.959	-53.59
879.131	-55.64
879.303	-41.3
879.476	-82.26
879.648	38.57
879.82	3.75
879.993	-55.64
880.165	-94.55
880.337	-108.88
880.509	7.85
880.681	-121.17
880.854	-33.11
881.026	61.1
881.198	108.2
881.37	-24.92
881.542	-4.44
881.714	-31.06
881.886	-49.49
882.058	-29.01
882.23	-8.53
882.402	-12.63
882.574	-14.68
882.746	38.57
882.918	75.43
883.09	20.14
883.262	-49.49
883.434	34.47
883.606	-86.36
883.778	40.62
883.95	100.01
884.122	-84.31
884.293	73.39
884.465	-16.73
884.637	63.15
884.809	-57.68
884.98	-18.77
885.152	-22.87
885.324	54.95
885.496	-94.55
885.667	-74.07
885.839	-106.84
886.011	11.95
886.182	18.09
886.354	71.34
886.525	67.24
886.697	-55.64
886.869	-51.54
887.04	-20.82
887.212	26.28
887.383	153.26
887.555	42.67
887.726	-26.96
887.897	16.04
888.069	-78.16
888.24	73.39
888.412	-10.58
888.583	1.71
888.754	-43.35
888.926	-53.59
889.097	-67.92
889.268	-129.36
889.44	93.87
889.611	-31.06
889.782	-98.64
889.953	-63.83
890.125	134.82
890.296	-80.21
890.467	-110.93
890.638	5.8
890.809	-16.73
890.98	-82.26
891.151	34.47
891.323	67.24
891.494	52.91
891.665	7.85
891.836	-29.01
892.007	-117.08
892.178	-94.55
892.349	-20.82
892.52	-57.68
892.691	-18.77
892.862	-61.78
893.032	-162.13
893.203	-112.98
893.374	18.09
893.545	1.71
893.716	-67.92
893.887	38.57
894.057	-51.54
894.228	-37.2
894.399	-47.44
894.57	-0.34
894.74	-2.39
894.911	-31.06
895.082	7.85
895.253	-135.51
895.423	-31.06
895.594	-8.53
895.764	36.52
895.935	-76.12
896.106	52.91
896.276	-86.36
896.447	-0.34
896.617	-20.82
896.788	-88.4
896.958	-41.3
897.129	-33.11
897.299	-29.01
897.47	22.19
897.64	46.76
897.81	-80.21
897.981	85.67
898.151	-82.26
898.322	-12.63
898.492	16.04
898.662	-67.92
898.832	22.19
899.003	-74.07
899.173	-29.01
899.343	-121.17
899.513	-43.35
