Data from USB4F104151__224__11-06-11-226.txt Node

Date: Wed Feb 26 11:06:11 EST 2025
User: louis
Spectrometer: USB4F10415
Trigger mode: 4
Integration Time (sec): 1.000000E-1
Scans to average: 1
Electric dark correction enabled: true
Nonlinearity correction enabled: false
Boxcar width: 0
XAxis mode: Wavelengths
Number of Pixels in Spectrum: 3648
>>>>>Begin Spectral Data<<<<<
178.204	-393.21
178.424	-393.21
178.644	-393.21
178.864	-473.08
179.084	-374.78
179.304	-40.96
179.524	-40.96
179.744	4.1
179.964	38.91
180.184	63.49
180.404	-32.77
180.624	18.43
180.844	-28.67
181.064	-49.15
181.283	40.96
181.503	8.19
181.723	18.43
181.943	-83.97
182.163	131.07
182.383	47.1
182.602	73.73
182.822	106.49
183.042	83.97
183.262	-96.25
183.482	51.2
183.701	12.29
183.921	-6.14
184.141	-47.1
184.361	30.72
184.58	53.25
184.8	-10.24
185.02	-81.92
185.239	100.35
185.459	141.31
185.679	120.83
185.898	-20.48
186.118	102.4
186.338	118.78
186.557	155.65
186.777	-4.1
186.997	-40.96
187.216	94.21
187.436	202.75
187.655	81.92
187.875	94.21
188.095	10.24
188.314	200.7
188.534	149.5
188.753	-51.2
188.973	161.79
189.192	174.08
189.412	63.49
189.631	14.34
189.851	90.11
190.07	174.08
190.29	-100.35
190.509	-24.58
190.729	59.39
190.948	108.54
191.168	327.67
191.387	137.21
191.607	-57.34
191.826	22.53
192.045	-4.1
192.265	-18.43
192.484	135.17
192.704	96.25
192.923	-67.58
193.142	149.5
193.362	124.93
193.581	118.78
193.8	45.06
194.02	133.12
194.239	0
194.458	90.11
194.678	4.1
194.897	26.62
195.116	110.59
195.335	28.67
195.555	-22.53
195.774	-6.14
195.993	73.73
196.212	-24.58
196.432	-71.68
196.651	40.96
196.87	16.38
197.089	212.99
197.308	34.82
197.528	110.59
197.747	-47.1
197.966	-10.24
198.185	180.22
198.404	-10.24
198.623	108.54
198.842	145.41
199.062	61.44
199.281	83.97
199.5	38.91
199.719	38.91
199.938	12.29
200.157	92.16
200.376	120.83
200.595	120.83
200.814	34.82
201.033	63.49
201.252	131.07
201.471	79.87
201.69	129.02
201.909	0
202.128	163.84
202.347	75.77
202.566	88.06
202.785	-51.2
203.004	10.24
203.223	268.28
203.442	55.3
203.661	32.77
203.879	92.16
204.098	243.71
204.317	-53.25
204.536	118.78
204.755	137.21
204.974	86.01
205.193	118.78
205.411	161.79
205.63	147.45
205.849	118.78
206.068	14.34
206.287	-16.38
206.505	126.97
206.724	71.68
206.943	22.53
207.162	16.38
207.381	141.31
207.599	16.38
207.818	0
208.037	-12.29
208.255	102.4
208.474	65.54
208.693	67.58
208.911	36.86
209.13	71.68
209.349	137.21
209.567	137.21
209.786	36.86
210.005	100.35
210.223	45.06
210.442	-61.44
210.661	12.29
210.879	32.77
211.098	75.77
211.316	34.82
211.535	63.49
211.753	20.48
211.972	90.11
212.191	-30.72
212.409	0
212.628	116.73
212.846	-20.48
213.065	30.72
213.283	61.44
213.502	112.64
213.72	86.01
213.938	18.43
214.157	36.86
214.375	22.53
214.594	55.3
214.812	77.82
215.031	10.24
215.249	100.35
215.467	61.44
215.686	102.4
215.904	49.15
216.122	65.54
216.341	153.6
216.559	86.01
216.778	45.06
216.996	163.84
217.214	63.49
217.432	34.82
217.651	-26.62
217.869	120.83
218.087	57.34
218.306	94.21
218.524	53.25
218.742	-26.62
218.96	8.19
219.179	24.58
219.397	16.38
219.615	235.52
219.833	30.72
220.051	-16.38
220.27	51.2
220.488	122.88
220.706	53.25
220.924	-26.62
221.142	-24.58
221.36	45.06
221.578	28.67
221.796	100.35
222.015	12.29
222.233	53.25
222.451	264.19
222.669	-6.14
222.887	96.25
223.105	18.43
223.323	40.96
223.541	-73.73
223.759	100.35
223.977	40.96
224.195	202.75
224.413	141.31
224.631	49.15
224.849	43.01
225.067	225.28
225.285	-55.3
225.503	-26.62
225.721	-36.86
225.939	30.72
226.157	120.83
226.375	208.89
226.592	-30.72
226.81	73.73
227.028	110.59
227.246	153.6
227.464	-10.24
227.682	96.25
227.9	26.62
228.117	14.34
228.335	51.2
228.553	43.01
228.771	16.38
228.989	0
229.206	98.3
229.424	59.39
229.642	36.86
229.86	-55.3
230.077	167.93
230.295	100.35
230.513	172.03
230.731	49.15
230.948	194.56
231.166	157.69
231.384	57.34
231.601	40.96
231.819	264.19
232.037	-2.05
232.254	-55.3
232.472	-10.24
232.689	22.53
232.907	65.54
233.125	2.05
233.342	14.34
233.56	4.1
233.777	30.72
233.995	0
234.213	165.89
234.43	145.41
234.648	28.67
234.865	8.19
235.083	86.01
235.3	120.83
235.518	79.87
235.735	149.5
235.953	94.21
236.17	53.25
236.388	-10.24
236.605	53.25
236.822	43.01
237.04	133.12
237.257	145.41
237.475	-32.77
237.692	61.44
237.909	120.83
238.127	59.39
238.344	90.11
238.562	59.39
238.779	-57.34
238.996	2.05
239.214	47.1
239.431	86.01
239.648	47.1
239.865	55.3
240.083	98.3
240.3	6.14
240.517	-20.48
240.735	28.67
240.952	139.26
241.169	-6.14
241.386	77.82
241.603	-36.86
241.821	-49.15
242.038	67.58
242.255	143.36
242.472	-45.06
242.689	106.49
242.907	100.35
243.124	36.86
243.341	110.59
243.558	38.91
243.775	-28.67
243.992	-10.24
244.209	104.45
244.426	178.17
244.643	106.49
244.86	53.25
245.078	86.01
245.295	57.34
245.512	43.01
245.729	38.91
245.946	96.25
246.163	59.39
246.38	-16.38
246.597	59.39
246.814	61.44
247.031	63.49
247.248	-14.34
247.464	141.31
247.681	106.49
247.898	69.63
248.115	157.69
248.332	-53.25
248.549	124.93
248.766	200.7
248.983	108.54
249.2	51.2
249.417	188.41
249.633	22.53
249.85	28.67
250.067	96.25
250.284	16.38
250.501	77.82
250.717	104.45
250.934	28.67
251.151	51.2
251.368	53.25
251.585	55.3
251.801	81.92
252.018	-49.15
252.235	110.59
252.451	-77.82
252.668	43.01
252.885	120.83
253.102	124.93
253.318	6.14
253.535	51.2
253.752	14.34
253.968	16.38
254.185	6.14
254.401	73.73
254.618	86.01
254.835	-45.06
255.051	129.02
255.268	40.96
255.484	83.97
255.701	-20.48
255.917	34.82
256.134	-34.82
256.351	-12.29
256.567	-28.67
256.784	51.2
257	-104.45
257.217	75.77
257.433	102.4
257.65	71.68
257.866	108.54
258.082	-10.24
258.299	26.62
258.515	18.43
258.732	40.96
258.948	30.72
259.165	57.34
259.381	26.62
259.597	110.59
259.814	-4.1
260.03	20.48
260.246	77.82
260.463	135.17
260.679	131.07
260.895	86.01
261.112	71.68
261.328	69.63
261.544	2.05
261.761	167.93
261.977	14.34
262.193	-47.1
262.409	118.78
262.626	14.34
262.842	59.39
263.058	6.14
263.274	167.93
263.49	-55.3
263.707	90.11
263.923	110.59
264.139	-73.73
264.355	-28.67
264.571	131.07
264.787	100.35
265.004	98.3
265.22	38.91
265.436	-14.34
265.652	49.15
265.868	45.06
266.084	10.24
266.3	55.3
266.516	2.05
266.732	147.45
266.948	55.3
267.164	112.64
267.38	55.3
267.596	71.68
267.812	190.46
268.028	116.73
268.244	-34.82
268.46	108.54
268.676	4.1
268.892	63.49
269.108	-96.25
269.324	34.82
269.54	6.14
269.756	45.06
269.972	-38.91
270.188	24.58
270.403	-22.53
270.619	-6.14
270.835	45.06
271.051	10.24
271.267	-18.43
271.483	-10.24
271.698	47.1
271.914	106.49
272.13	45.06
272.346	79.87
272.562	63.49
272.777	94.21
272.993	67.58
273.209	18.43
273.425	43.01
273.64	-30.72
273.856	135.17
274.072	14.34
274.287	53.25
274.503	81.92
274.719	133.12
274.934	-32.77
275.15	-53.25
275.366	43.01
275.581	77.82
275.797	6.14
276.012	77.82
276.228	63.49
276.444	59.39
276.659	159.74
276.875	18.43
277.09	36.86
277.306	-22.53
277.521	79.87
277.737	73.73
277.952	32.77
278.168	24.58
278.383	-36.86
278.599	-24.58
278.814	120.83
279.03	49.15
279.245	114.69
279.461	71.68
279.676	141.31
279.892	-96.25
280.107	-86.01
280.322	73.73
280.538	12.29
280.753	-16.38
280.969	77.82
281.184	55.3
281.399	122.88
281.615	20.48
281.83	-6.14
282.045	-22.53
282.26	-6.14
282.476	-22.53
282.691	65.54
282.906	81.92
283.122	77.82
283.337	-24.58
283.552	96.25
283.767	20.48
283.983	106.49
284.198	92.16
284.413	73.73
284.628	-30.72
284.843	-24.58
285.058	90.11
285.274	40.96
285.489	-22.53
285.704	96.25
285.919	-30.72
286.134	28.67
286.349	45.06
286.564	38.91
286.779	176.13
286.995	-59.39
287.21	-34.82
287.425	30.72
287.64	-22.53
287.855	-14.34
288.07	59.39
288.285	108.54
288.5	108.54
288.715	59.39
288.93	-6.14
289.145	-18.43
289.36	100.35
289.575	-26.62
289.79	139.26
290.004	55.3
290.219	165.89
290.434	4.1
290.649	49.15
290.864	6.14
291.079	-10.24
291.294	137.21
291.509	-2.05
291.724	61.44
291.938	-24.58
292.153	47.1
292.368	26.62
292.583	4.1
292.798	38.91
293.012	75.77
293.227	57.34
293.442	-16.38
293.657	106.49
293.871	153.6
294.086	59.39
294.301	235.52
294.516	65.54
294.73	55.3
294.945	45.06
295.16	55.3
295.374	151.55
295.589	73.73
295.804	-51.2
296.018	-8.19
296.233	172.03
296.447	12.29
296.662	-4.1
296.877	147.45
297.091	135.17
297.306	90.11
297.52	67.58
297.735	86.01
297.949	106.49
298.164	49.15
298.378	-6.14
298.593	-6.14
298.807	-24.58
299.022	63.49
299.236	141.31
299.451	24.58
299.665	57.34
299.88	49.15
300.094	71.68
300.309	20.48
300.523	96.25
300.737	-43.01
300.952	61.44
301.166	59.39
301.381	14.34
301.595	-16.38
301.809	24.58
302.024	22.53
302.238	-55.3
302.452	178.17
302.667	43.01
302.881	143.36
303.095	69.63
303.309	116.73
303.524	14.34
303.738	38.91
303.952	32.77
304.166	108.54
304.381	-139.26
304.595	163.84
304.809	-14.34
305.023	47.1
305.237	-16.38
305.452	61.44
305.666	14.34
305.88	100.35
306.094	61.44
306.308	67.58
306.522	61.44
306.736	118.78
306.95	83.97
307.164	16.38
307.379	32.77
307.593	143.36
307.807	149.5
308.021	75.77
308.235	-4.1
308.449	0
308.663	45.06
308.877	223.23
309.091	55.3
309.305	100.35
309.519	-73.73
309.733	192.51
309.947	-124.93
310.161	75.77
310.374	114.69
310.588	172.03
310.802	32.77
311.016	94.21
311.23	112.64
311.444	30.72
311.658	36.86
311.872	180.22
312.085	90.11
312.299	120.83
312.513	129.02
312.727	55.3
312.941	-51.2
313.154	86.01
313.368	-45.06
313.582	63.49
313.796	57.34
314.009	6.14
314.223	135.17
314.437	98.3
314.651	102.4
314.864	57.34
315.078	36.86
315.292	-34.82
315.505	-2.05
315.719	131.07
315.933	92.16
316.146	16.38
316.36	22.53
316.573	43.01
316.787	102.4
317.001	38.91
317.214	-12.29
317.428	96.25
317.641	-22.53
317.855	0
318.068	18.43
318.282	40.96
318.495	149.5
318.709	139.26
318.922	32.77
319.136	159.74
319.349	79.87
319.563	-63.49
319.776	90.11
319.99	-61.44
320.203	147.45
320.417	61.44
320.63	176.13
320.843	233.47
321.057	30.72
321.27	98.3
321.483	137.21
321.697	120.83
321.91	38.91
322.124	49.15
322.337	22.53
322.55	-32.77
322.763	32.77
322.977	18.43
323.19	61.44
323.403	63.49
323.617	79.87
323.83	145.41
324.043	-16.38
324.256	43.01
324.469	-24.58
324.683	163.84
324.896	20.48
325.109	22.53
325.322	24.58
325.535	65.54
325.748	116.73
325.962	22.53
326.175	108.54
326.388	90.11
326.601	98.3
326.814	26.62
327.027	-43.01
327.24	153.6
327.453	-32.77
327.666	55.3
327.879	118.78
328.092	108.54
328.305	47.1
328.518	28.67
328.731	12.29
328.944	57.34
329.157	108.54
329.37	28.67
329.583	227.32
329.796	102.4
330.009	-38.91
330.222	112.64
330.435	55.3
330.648	2.05
330.861	57.34
331.073	51.2
331.286	81.92
331.499	63.49
331.712	-59.39
331.925	40.96
332.138	10.24
332.35	114.69
332.563	57.34
332.776	196.61
332.989	-28.67
333.202	-16.38
333.414	98.3
333.627	16.38
333.84	47.1
334.053	49.15
334.265	90.11
334.478	-18.43
334.691	-2.05
334.903	71.68
335.116	-8.19
335.329	45.06
335.541	73.73
335.754	174.08
335.966	-26.62
336.179	79.87
336.392	-4.1
336.604	88.06
336.817	26.62
337.029	63.49
337.242	-18.43
337.454	120.83
337.667	57.34
337.88	155.65
338.092	108.54
338.305	161.79
338.517	-6.14
338.729	139.26
338.942	124.93
339.154	-90.11
339.367	10.24
339.579	100.35
339.792	-38.91
340.004	73.73
340.217	61.44
340.429	49.15
340.641	14.34
340.854	32.77
341.066	-18.43
341.278	122.88
341.491	143.36
341.703	69.63
341.915	18.43
342.128	90.11
342.34	26.62
342.552	-6.14
342.764	-34.82
342.977	47.1
343.189	26.62
343.401	28.67
343.613	-92.16
343.826	104.45
344.038	26.62
344.25	126.97
344.462	-20.48
344.674	63.49
344.886	63.49
345.099	43.01
345.311	28.67
345.523	28.67
345.735	-34.82
345.947	20.48
346.159	73.73
346.371	43.01
346.583	-14.34
346.795	110.59
347.007	6.14
347.219	96.25
347.431	40.96
347.643	102.4
347.855	14.34
348.067	126.97
348.279	104.45
348.491	47.1
348.703	81.92
348.915	0
349.127	-36.86
349.339	14.34
349.551	-30.72
349.763	157.69
349.975	126.97
350.187	110.59
350.399	186.37
350.61	102.4
350.822	28.67
351.034	133.12
351.246	53.25
351.458	75.77
351.669	81.92
351.881	145.41
352.093	122.88
352.305	167.93
352.517	94.21
352.728	122.88
352.94	10.24
353.152	106.49
353.363	-10.24
353.575	61.44
353.787	180.22
353.999	157.69
354.21	145.41
354.422	-14.34
354.633	18.43
354.845	86.01
355.057	94.21
355.268	79.87
355.48	122.88
355.692	34.82
355.903	-18.43
356.115	-22.53
356.326	-65.54
356.538	122.88
356.749	49.15
356.961	94.21
357.172	-38.91
357.384	-73.73
357.595	153.6
357.807	-10.24
358.018	-18.43
358.23	-20.48
358.441	131.07
358.653	63.49
358.864	28.67
359.075	28.67
359.287	86.01
359.498	106.49
359.709	135.17
359.921	59.39
360.132	122.88
360.344	30.72
360.555	-53.25
360.766	94.21
360.977	-26.62
361.189	71.68
361.4	12.29
361.611	108.54
361.823	106.49
362.034	53.25
362.245	-94.21
362.456	2.05
362.667	143.36
362.879	-10.24
363.09	86.01
363.301	63.49
363.512	65.54
363.723	-24.58
363.935	71.68
364.146	141.31
364.357	28.67
364.568	57.34
364.779	-24.58
364.99	141.31
365.201	32.77
365.412	63.49
365.623	-32.77
365.834	122.88
366.045	-53.25
366.256	86.01
366.467	141.31
366.678	-24.58
366.889	10.24
367.1	18.43
367.311	38.91
367.522	-38.91
367.733	116.73
367.944	126.97
368.155	24.58
368.366	65.54
368.577	102.4
368.788	145.41
368.999	0
369.209	18.43
369.42	233.47
369.631	212.99
369.842	47.1
370.053	18.43
370.264	45.06
370.474	-12.29
370.685	73.73
370.896	88.06
371.107	143.36
371.317	55.3
371.528	16.38
371.739	126.97
371.95	104.45
372.16	167.93
372.371	4.1
372.582	-28.67
372.792	106.49
373.003	71.68
373.214	112.64
373.424	131.07
373.635	-63.49
373.846	155.65
374.056	2.05
374.267	59.39
374.477	145.41
374.688	-22.53
374.898	71.68
375.109	59.39
375.319	30.72
375.53	79.87
375.74	161.79
375.951	28.67
376.161	94.21
376.372	81.92
376.582	-4.1
376.793	49.15
377.003	-61.44
377.214	49.15
377.424	110.59
377.635	116.73
377.845	16.38
378.055	38.91
378.266	-34.82
378.476	61.44
378.686	40.96
378.897	86.01
379.107	133.12
379.317	110.59
379.528	43.01
379.738	92.16
379.948	24.58
380.158	180.22
380.369	110.59
380.579	167.93
380.789	-20.48
380.999	22.53
381.21	88.06
381.42	223.23
381.63	8.19
381.84	118.78
382.05	122.88
382.261	53.25
382.471	161.79
382.681	-8.19
382.891	139.26
383.101	137.21
383.311	18.43
383.521	26.62
383.731	26.62
383.941	96.25
384.151	65.54
384.361	32.77
384.571	104.45
384.781	112.64
384.991	249.85
385.201	169.98
385.411	212.99
385.621	53.25
385.831	28.67
386.041	-32.77
386.251	96.25
386.461	135.17
386.671	69.63
386.881	24.58
387.091	30.72
387.301	151.55
387.511	86.01
387.72	110.59
387.93	73.73
388.14	-53.25
388.35	88.06
388.56	143.36
388.769	141.31
388.979	-2.05
389.189	-53.25
389.399	90.11
389.609	143.36
389.818	124.93
390.028	14.34
390.238	104.45
390.447	-4.1
390.657	104.45
390.867	24.58
391.076	-79.87
391.286	26.62
391.496	22.53
391.705	-57.34
391.915	165.89
392.125	122.88
392.334	47.1
392.544	172.03
392.753	34.82
392.963	-22.53
393.172	59.39
393.382	40.96
393.591	176.13
393.801	43.01
394.01	153.6
394.22	110.59
394.429	22.53
394.639	45.06
394.848	131.07
395.058	47.1
395.267	34.82
395.477	98.3
395.686	83.97
395.895	186.37
396.105	225.28
396.314	196.61
396.524	-12.29
396.733	16.38
396.942	106.49
397.152	67.58
397.361	94.21
397.57	32.77
397.78	137.21
397.989	36.86
398.198	210.94
398.407	106.49
398.617	30.72
398.826	59.39
399.035	20.48
399.244	151.55
399.453	-12.29
399.663	122.88
399.872	92.16
400.081	-30.72
400.29	88.06
400.499	-30.72
400.708	88.06
400.917	118.78
401.127	2.05
401.336	49.15
401.545	198.65
401.754	108.54
401.963	94.21
402.172	63.49
402.381	-49.15
402.59	20.48
402.799	38.91
403.008	143.36
403.217	81.92
403.426	26.62
403.635	-75.77
403.844	32.77
404.053	79.87
404.262	-8.19
404.471	157.69
404.68	94.21
404.888	81.92
405.097	43.01
405.306	75.77
405.515	139.26
405.724	0
405.933	104.45
406.142	100.35
406.35	100.35
406.559	34.82
406.768	135.17
406.977	169.98
407.185	67.58
407.394	59.39
407.603	-2.05
407.812	139.26
408.02	176.13
408.229	73.73
408.438	100.35
408.646	6.14
408.855	59.39
409.064	12.29
409.272	-30.72
409.481	83.97
409.69	16.38
409.898	36.86
410.107	63.49
410.315	129.02
410.524	-45.06
410.733	149.5
410.941	94.21
411.15	176.13
411.358	94.21
411.567	69.63
411.775	98.3
411.984	59.39
412.192	102.4
412.401	30.72
412.609	247.8
412.818	149.5
413.026	92.16
413.234	45.06
413.443	114.69
413.651	22.53
413.86	22.53
414.068	176.13
414.276	178.17
414.485	55.3
414.693	212.99
414.901	219.13
415.11	49.15
415.318	36.86
415.526	43.01
415.734	184.32
415.943	43.01
416.151	116.73
416.359	77.82
416.567	139.26
416.776	141.31
416.984	102.4
417.192	137.21
417.4	4.1
417.608	36.86
417.817	12.29
418.025	129.02
418.233	147.45
418.441	6.14
418.649	45.06
418.857	77.82
419.065	194.56
419.273	-53.25
419.481	77.82
419.689	69.63
419.897	-12.29
420.105	-92.16
420.313	83.97
420.521	176.13
420.729	122.88
420.937	59.39
421.145	-55.3
421.353	147.45
421.561	186.37
421.769	86.01
421.977	0
422.185	114.69
422.393	81.92
422.601	90.11
422.809	129.02
423.017	176.13
423.224	92.16
423.432	137.21
423.64	86.01
423.848	133.12
424.056	51.2
424.263	69.63
424.471	24.58
424.679	43.01
424.887	-12.29
425.094	131.07
425.302	28.67
425.51	34.82
425.718	153.6
425.925	126.97
426.133	45.06
426.341	186.37
426.548	180.22
426.756	-14.34
426.964	153.6
427.171	98.3
427.379	114.69
427.586	63.49
427.794	143.36
428.001	157.69
428.209	129.02
428.417	135.17
428.624	194.56
428.832	63.49
429.039	71.68
429.247	71.68
429.454	161.79
429.662	212.99
429.869	118.78
430.076	155.65
430.284	104.45
430.491	225.28
430.699	184.32
430.906	190.46
431.114	178.17
431.321	174.08
431.528	182.27
431.736	151.55
431.943	153.6
432.15	79.87
432.358	219.13
432.565	266.24
432.772	63.49
432.979	194.56
433.187	122.88
433.394	223.23
433.601	96.25
433.808	299
434.016	235.52
434.223	167.93
434.43	151.55
434.637	249.85
434.844	307.2
435.052	212.99
435.259	270.33
435.466	315.39
435.673	204.8
435.88	272.38
436.087	262.14
436.294	243.71
436.501	344.06
436.708	270.33
436.915	395.26
437.122	325.63
437.329	321.53
437.537	382.97
437.743	413.69
437.95	434.17
438.157	360.44
438.364	360.44
438.571	364.54
438.778	419.83
438.985	409.59
439.192	389.11
439.399	452.6
439.606	395.26
439.813	456.7
440.02	591.86
440.227	698.36
440.433	524.28
440.64	491.51
440.847	530.42
441.054	571.38
441.261	710.65
441.467	667.64
441.674	604.15
441.881	731.12
442.088	671.73
442.294	706.55
442.501	794.61
442.708	741.36
442.914	636.92
443.121	911.35
443.328	755.7
443.534	903.15
443.741	835.57
443.948	849.91
444.154	1019.89
444.361	1130.48
444.568	899.06
444.774	933.87
444.981	958.45
445.187	1210.35
445.394	1112.05
445.6	1142.77
445.807	1234.93
446.013	1226.73
446.22	1120.24
446.426	1251.31
446.633	1423.34
446.839	1570.79
447.046	1382.38
447.252	1619.94
447.459	1419.24
447.665	1615.85
447.871	1777.64
448.078	1884.13
448.284	1718.25
448.491	1861.6
448.697	1935.33
448.903	1986.53
449.11	2050.02
449.316	2033.63
449.522	2344.92
449.728	2392.03
449.935	2351.07
450.141	2373.6
450.347	2586.58
450.553	2562.01
450.76	2664.41
450.966	2752.47
451.172	2826.2
451.378	2867.16
451.584	2990.03
451.791	3319.76
451.997	3366.86
452.203	3442.64
452.409	3538.89
452.615	3690.44
452.821	3653.58
453.027	3635.14
453.233	4095.94
453.44	3991.49
453.646	4130.75
453.852	4284.35
454.058	4603.83
454.264	4751.29
454.47	5085.11
454.676	5130.16
454.882	5445.55
455.088	5257.14
455.294	5353.39
455.5	5912.49
455.705	6360.99
455.911	6266.78
456.117	6395.81
456.323	6504.35
456.529	6680.47
456.735	7268.24
456.941	7382.93
457.147	7655.31
457.352	7985.03
457.558	8230.79
457.764	8693.63
457.97	8900.47
458.176	9322.35
458.381	9535.34
458.587	9959.27
458.793	10309.47
458.999	10071.91
459.204	11548.5
459.41	12089.16
459.616	11874.12
459.821	12461.89
460.027	13092.66
460.233	13682.48
460.438	13692.72
460.644	14470.95
460.85	14587.68
461.055	15185.69
461.261	16025.36
461.466	15562.51
461.672	15955.72
461.878	17886.96
462.083	17493.75
462.289	17942.25
462.494	18730.72
462.7	18458.34
462.905	19351.26
463.111	20592.33
463.316	21634.74
463.522	22025.9
463.727	22752.93
463.932	23678.61
464.138	24557.19
464.343	25380.48
464.549	25484.92
464.754	27387.49
464.959	28245.58
465.165	28747.34
465.37	28159.57
465.575	28446.29
465.781	30008.89
465.986	31127.08
466.191	30477.87
466.397	31102.5
466.602	30406.19
466.807	31821.34
467.012	32411.15
467.218	33160.71
467.423	33525.25
467.628	33957.37
467.833	35833.31
468.038	34962.92
468.244	34463.22
468.449	36357.59
468.654	36064.73
468.859	35419.62
469.064	36005.34
469.269	34786.8
469.474	35182.06
469.679	36115.93
469.885	34969.07
470.09	35878.36
470.295	35753.44
470.5	34717.17
470.705	35098.09
470.91	34196.98
471.115	33844.73
471.32	34442.74
471.525	34436.59
471.73	33381.89
471.935	33338.88
472.139	31888.92
472.344	31987.22
472.549	31804.95
472.754	30762.54
472.959	30371.38
473.164	29564.48
473.369	28915.27
473.574	29875.77
473.778	29234.75
473.983	28542.54
474.188	27995.73
474.393	26789.48
474.598	26682.98
474.802	26367.6
475.007	25753.21
475.212	25615.99
475.417	24761.99
475.621	23975.57
475.826	23994
476.031	23469.72
476.235	22859.43
476.44	22830.76
476.645	22402.73
476.849	22132.4
477.054	22046.38
477.259	21302.97
477.463	21505.72
477.668	20610.76
477.872	20842.18
478.077	20070.09
478.282	19664.6
478.486	19568.34
478.691	19179.23
478.895	19136.22
479.1	19146.46
479.304	18519.78
479.509	18126.57
479.713	18261.74
479.918	17811.18
480.122	17559.28
480.326	17774.32
480.531	17880.82
480.735	17420.02
480.94	17217.27
481.144	17743.6
481.348	16795.39
481.553	16959.23
481.757	16533.25
481.961	16809.73
482.166	16572.16
482.37	16357.13
482.574	16166.67
482.778	16303.88
482.983	16416.52
483.187	15980.3
483.391	15968.01
483.595	15527.7
483.8	15277.85
484.004	15437.59
484.208	15513.36
484.412	15062.81
484.616	15064.86
484.821	14966.56
485.025	14219.05
485.229	14548.77
485.433	14337.83
485.637	14163.75
485.841	14067.5
486.045	13678.38
486.249	13807.41
486.453	13559.6
486.657	13299.51
486.861	13168.44
487.065	12590.91
487.269	12664.64
487.473	12216.13
487.677	12482.37
487.881	12289.86
488.085	11741
488.289	11816.78
488.493	11474.77
488.697	11640.65
488.901	11220.82
489.105	10831.71
489.309	10784.6
489.512	10418.02
489.716	10430.3
489.92	10336.1
490.124	9910.12
490.328	10088.29
490.531	9768.81
490.735	9607.02
490.939	9320.31
491.143	9262.96
491.346	9021.3
491.55	8820.6
491.754	8820.6
491.958	8656.76
492.161	8451.97
492.365	8517.5
492.569	8195.97
492.772	8011.65
492.976	8193.92
493.18	7831.43
493.383	7774.09
493.587	7749.51
493.79	7739.27
493.994	7346.06
494.197	7325.58
494.401	7421.84
494.605	7270.29
494.808	7231.38
495.012	7315.34
495.215	7235.47
495.419	7053.2
495.622	6946.71
495.825	7032.72
496.029	6983.57
496.232	7108.5
496.436	6961.05
496.639	7073.68
496.843	6746.01
497.046	6889.37
497.249	6913.94
497.453	6987.67
497.656	6862.74
497.859	7092.12
498.063	6883.22
498.266	7075.73
498.469	6739.87
498.673	6963.09
498.876	7067.54
499.079	7012.24
499.282	7036.82
499.485	7274.39
499.689	7167.89
499.892	7081.88
500.095	6981.53
500.298	7321.49
500.501	6983.57
500.705	7522.19
500.908	7452.56
501.111	7489.42
501.314	7554.96
501.517	7571.34
501.72	7653.26
501.923	7597.96
502.126	7774.09
502.329	7978.89
502.532	7939.97
502.735	8038.28
502.938	8155.01
503.141	8253.31
503.344	8411.01
503.547	8599.42
503.75	8710.01
503.953	8589.18
504.156	9009.01
504.359	8955.77
504.562	9054.07
504.765	9269.11
504.968	9420.66
505.17	9322.35
505.373	9762.67
505.576	9764.72
505.779	10006.38
505.982	10194.79
506.185	10213.22
506.387	10407.78
506.59	10596.19
506.793	10805.08
506.996	11054.94
507.198	11315.03
507.401	11513.68
507.604	11718.48
507.807	11986.76
508.009	12009.29
508.212	12351.3
508.415	12445.51
508.617	12597.06
508.82	13057.85
509.022	13166.39
509.225	13573.94
509.428	13944.62
509.63	14018.35
509.833	14346.02
510.035	14954.27
510.238	14941.98
510.44	15329.05
510.643	15890.19
510.845	16099.08
511.048	16264.97
511.25	16654.08
511.453	16813.82
511.655	18085.61
511.858	18095.85
512.06	18317.03
512.262	18562.79
512.465	19080.92
512.667	19453.66
512.87	19996.37
513.072	20242.12
513.274	20965.06
513.477	21286.59
513.679	21726.9
513.881	22242.99
514.084	22978.21
514.286	23258.78
514.488	23584.41
514.69	24434.32
514.893	24739.46
515.095	25357.95
515.297	26005.11
515.499	26465.9
515.701	26986.08
515.904	27727.45
516.106	28376.65
516.308	28884.55
516.51	29259.33
516.712	29625.92
516.914	30567.98
517.116	31180.32
517.318	31727.13
517.52	32103.96
517.722	32523.79
517.925	32988.68
518.127	34004.47
518.329	34579.95
518.531	34776.56
518.733	35657.18
518.935	36087.26
519.136	36900.3
519.338	37240.26
519.54	37840.32
519.742	38671.79
519.944	38925.74
520.146	39908.77
520.348	40195.48
520.55	40646.04
520.752	40932.75
520.954	41946.5
521.155	41794.95
521.357	42777.97
521.559	43246.96
521.761	43920.74
521.963	43980.13
522.164	44520.79
522.366	44860.76
522.568	45292.88
522.77	45268.3
522.971	46263.61
523.173	46386.49
523.375	46779.7
523.576	46421.31
523.778	46689.59
523.98	47613.23
524.181	47576.36
524.383	47707.43
524.584	47752.49
524.786	48041.25
524.988	47811.88
525.189	48344.35
525.391	48395.55
525.592	48180.51
525.794	48471.32
525.995	48254.24
526.197	47926.56
526.398	47707.43
526.6	48291.1
526.801	48106.79
527.003	48307.49
527.204	47897.89
527.406	48233.76
527.607	47295.79
527.808	47787.3
528.01	46636.34
528.211	47076.66
528.412	47070.51
528.614	46779.7
528.815	46122.3
529.016	46359.87
529.218	45749.57
529.419	45157.71
529.62	44807.51
529.822	44469.59
530.023	44146.01
530.224	43879.78
530.425	43074.93
530.626	42397.05
530.828	42159.48
531.029	42399.1
531.23	41418.12
531.431	41106.83
531.632	40684.95
531.833	40193.43
532.035	39697.83
532.236	39450.02
532.437	39304.62
532.638	38464.95
532.839	38059.45
533.04	37617.09
533.241	36507.09
533.442	37246.41
533.643	36236.76
533.844	35669.47
534.045	35327.46
534.246	34639.34
534.447	34188.79
534.648	34029.05
534.849	33572.35
535.05	32857.61
535.251	33054.22
535.451	31985.18
535.652	32040.47
535.853	31376.93
536.054	30813.74
536.255	30305.84
536.456	30037.56
536.657	29965.88
536.857	29234.75
537.058	28773.96
537.259	28589.64
537.46	27917.91
537.66	27577.95
537.861	27426.4
538.062	26809.96
538.263	26752.62
538.463	26490.48
538.664	26183.28
538.865	25423.48
539.065	25722.49
539.266	25024.13
539.466	25259.65
539.667	24419.98
539.868	24413.84
540.068	23695
540.269	23750.29
540.469	23551.64
540.67	23006.88
540.87	22990.5
541.071	22433.45
541.271	22312.62
541.472	21960.37
541.672	21687.99
541.873	21528.25
542.073	21024.45
542.274	21176
542.474	20604.61
542.675	20330.19
542.875	20336.33
543.075	20137.68
543.276	19640.02
543.476	19861.2
543.676	19533.53
543.877	19408.6
544.077	19089.12
544.277	18808.54
544.478	18759.39
544.678	18644.71
544.878	17919.73
545.078	18130.67
545.279	17590
545.479	17354.49
545.679	17487.61
545.879	17131.26
546.079	16957.18
546.28	16738.05
546.48	16502.53
546.68	16410.37
546.88	16471.81
547.08	15955.72
547.28	15841.04
547.48	15406.87
547.68	15513.36
547.88	15214.36
548.081	15062.81
548.281	14993.18
548.481	14798.62
548.681	14706.46
548.881	14417.7
549.081	14204.71
549.28	13926.19
549.48	13729.58
549.68	13780.78
549.88	13573.94
550.08	13129.53
550.28	13160.25
550.48	12969.79
550.68	12842.81
550.88	12531.52
551.08	12330.82
551.279	12304.2
551.479	11804.49
551.679	11927.37
551.879	11677.52
552.079	11456.34
552.278	11415.38
552.478	11341.65
552.678	11077.46
552.878	11095.89
553.077	10555.23
553.277	10358.63
553.477	10444.64
553.676	10403.68
553.876	10141.54
554.076	9750.38
554.275	9750.38
554.475	9447.28
554.674	9426.8
554.874	9248.63
555.074	9211.76
555.273	9095.03
555.473	8701.82
555.672	8806.27
555.872	8445.82
556.071	8447.87
556.271	8513.41
556.47	8206.21
556.67	7892.87
556.869	7948.17
557.068	7808.9
557.268	7657.36
557.467	7573.39
557.667	7456.65
557.866	7417.74
558.065	7157.65
558.265	7098.26
558.464	7018.39
558.663	6791.06
558.863	6676.38
559.062	6686.62
559.261	6559.64
559.461	6447.01
559.66	6231.97
559.859	6213.54
560.058	6127.52
560.258	5941.16
560.457	5762.98
560.656	5971.88
560.855	5662.63
561.054	5746.6
561.253	5431.21
561.453	5521.32
561.652	5453.74
561.851	5337.01
562.05	5259.18
562.249	5054.39
562.448	5224.37
562.647	4906.93
562.846	4894.65
563.045	4974.52
563.244	4843.45
563.443	4710.33
563.642	4554.68
563.841	4546.49
564.04	4491.2
564.239	4464.57
564.438	4421.56
564.637	4210.62
564.836	4118.47
565.035	4192.19
565.234	3999.68
565.432	4050.88
565.631	4059.07
565.83	3938.24
566.029	3792.84
566.228	4036.55
566.427	3780.55
566.625	3620.81
566.824	3676.1
567.023	3555.27
567.222	3598.28
567.42	3520.46
567.619	3600.33
567.818	3368.91
568.016	3545.03
568.215	3260.37
568.414	3289.04
568.612	3305.42
568.811	3119.06
569.01	2998.23
569.208	3160.02
569.407	3006.42
569.605	3004.37
569.804	2963.41
570.002	2912.21
570.201	2803.67
570.4	2807.77
570.598	2779.09
570.797	2668.5
570.995	2721.75
571.193	2519
571.392	2682.84
571.59	2519
571.789	2514.91
571.987	2539.48
572.186	2639.83
572.384	2248.67
572.582	2400.22
572.781	2523.1
572.979	2279.39
573.177	2410.46
573.376	2308.06
573.574	2342.88
573.772	2127.84
573.971	2140.13
574.169	2093.02
574.367	2033.63
574.565	2052.06
574.763	2058.21
574.962	1931.23
575.16	2007.01
575.358	1857.51
575.556	1914.85
575.754	1853.41
575.952	1748.97
576.151	1798.12
576.349	1968.1
576.547	1699.81
576.745	1783.78
576.943	1769.44
577.141	1722.34
577.339	1662.95
577.537	1630.18
577.735	1691.62
577.933	1624.04
578.131	1505.26
578.329	1667.05
578.527	1538.02
578.725	1513.45
578.923	1396.71
579.121	1398.76
579.319	1429.48
579.516	1411.05
579.714	1718.25
579.912	1425.39
580.11	1214.45
580.308	1286.12
580.506	1253.36
580.704	1124.33
580.901	1308.65
581.099	1431.53
581.297	1288.17
581.495	1210.35
581.692	1183.73
581.89	1230.83
582.088	1271.79
582.285	1226.73
582.483	1058.8
582.681	1097.71
582.878	1050.61
583.076	1146.86
583.274	1060.85
583.471	1095.66
583.669	1044.46
583.866	923.63
584.064	976.88
584.262	854
584.459	894.96
584.657	966.64
584.854	968.69
585.052	1044.46
585.249	1005.55
585.447	976.88
585.644	829.43
585.841	1015.79
586.039	970.74
586.236	970.74
586.434	757.75
586.631	833.52
586.828	737.27
587.026	831.48
587.223	684.02
587.42	811
587.618	776.18
587.815	831.48
588.012	716.79
588.21	739.32
588.407	774.13
588.604	776.18
588.801	704.5
588.999	765.94
589.196	866.29
589.393	634.87
589.59	692.21
589.787	677.88
589.984	739.32
590.182	759.8
590.379	684.02
590.576	657.4
590.773	663.54
590.97	677.88
591.167	716.79
591.364	702.45
591.561	604.15
591.758	817.14
591.955	710.65
592.152	616.44
592.349	649.21
592.546	667.64
592.743	577.53
592.94	614.39
593.137	806.9
593.334	743.41
593.531	610.29
593.727	706.55
593.924	675.83
594.121	606.2
594.318	610.29
594.515	716.79
594.712	815.09
594.908	720.88
595.105	604.15
595.302	761.84
595.499	679.93
595.696	843.76
595.892	577.53
596.089	843.76
596.286	636.92
596.482	837.62
596.679	851.96
596.876	774.13
597.072	870.39
597.269	747.51
597.466	890.87
597.662	866.29
597.859	890.87
598.055	847.86
598.252	1015.79
598.448	1001.46
598.645	1085.42
598.841	1128.43
599.038	1159.15
599.234	1298.41
599.431	1148.91
599.627	1216.49
599.824	1265.64
600.02	1368.04
600.217	1271.79
600.413	1513.45
600.609	1441.77
600.806	1681.38
601.002	1488.87
601.198	1447.91
601.395	1660.9
601.591	1785.83
601.787	1724.39
601.984	1894.37
602.18	1972.19
602.376	1933.28
602.572	2228.19
602.769	2203.61
602.965	2250.72
603.161	2287.58
603.357	2344.92
603.553	2537.43
603.75	2525.15
603.946	2648.02
604.142	2734.04
604.338	2881.49
604.534	2836.44
604.73	3020.75
604.926	3043.28
605.122	3354.57
605.318	3223.5
605.514	3489.74
605.71	3309.52
605.906	3585.99
606.102	3616.71
606.298	3944.39
606.494	3868.61
606.69	4130.75
606.886	4009.92
607.082	4216.77
607.278	4306.88
607.474	4480.96
607.67	4614.07
607.866	4507.58
608.062	4851.64
608.257	5078.96
608.453	4872.12
608.649	5377.97
608.845	5199.79
609.041	5423.02
609.236	5648.3
609.432	5830.57
609.628	6004.64
609.824	6119.33
610.019	6240.16
610.215	6356.89
610.411	6709.15
610.606	6770.58
610.802	7135.12
610.998	7079.83
611.193	7337.87
611.389	7464.85
611.584	7694.22
611.78	7747.47
611.976	8175.49
612.171	8505.21
612.367	8458.11
612.562	8601.47
612.758	8761.21
612.953	9144.18
613.149	9443.18
613.344	9494.38
613.539	9899.88
613.735	10096.49
613.93	10536.8
614.126	10354.53
614.321	11136.85
614.517	11382.61
614.712	11392.85
614.907	11882.31
615.103	12179.27
615.298	12267.33
615.493	12558.14
615.688	12863.29
615.884	13391.67
616.079	13553.46
616.274	14145.32
616.47	14110.5
616.665	14651.17
616.86	14901.02
617.055	15380.25
617.25	15660.82
617.445	16492.29
617.641	16496.39
617.836	17008.38
618.031	16981.76
618.226	17956.59
618.421	18147.05
618.616	18736.87
618.811	18869.98
619.006	19463.9
619.201	19846.87
619.396	20229.84
619.591	20489.93
619.786	21321.4
619.981	21501.62
620.176	22197.93
620.371	22236.84
620.566	22929.06
620.761	23309.98
620.956	24166.03
621.151	24034.96
621.346	24962.69
621.541	24884.87
621.735	25882.23
621.93	25767.54
622.125	26865.25
622.32	26721.9
622.515	27375.2
622.709	28175.95
622.904	28513.87
623.099	28780.1
623.294	30078.52
623.488	29847.1
623.683	30881.32
623.878	30580.27
624.072	31378.98
624.267	32081.43
624.462	32185.88
624.656	32740.88
624.851	33515.01
625.046	33646.08
625.24	34342.39
625.435	34375.16
625.629	35147.24
625.824	35548.64
626.018	36152.79
626.213	35821.02
626.407	36660.69
626.602	37045.71
626.796	37795.26
626.991	37854.65
627.185	37789.12
627.38	38161.85
627.574	38710.71
627.768	38952.37
627.963	39024.04
628.157	38802.86
628.352	39540.13
628.546	38882.73
628.74	39484.84
628.935	39120.3
629.129	39204.27
629.323	38684.08
629.517	38530.48
629.712	38137.27
629.906	38258.1
630.1	37500.36
630.294	37385.67
630.489	36799.95
630.683	36814.29
630.877	35921.37
631.071	35071.46
631.265	34831.85
631.459	33648.13
631.653	33089.03
631.848	32845.32
632.042	31786.52
632.236	31305.25
632.43	30201.4
632.624	29742.65
632.818	28434
633.012	27381.34
633.206	27047.52
633.4	26297.97
633.594	24966.79
633.788	24325.77
633.982	23404.19
634.176	22767.27
634.369	21690.04
634.563	20817.6
634.757	20254.41
634.951	19418.84
635.145	18824.93
635.339	17882.86
635.533	17321.72
635.726	16602.88
635.92	15433.49
636.114	15382.29
636.308	14700.32
636.501	14288.68
636.695	13399.86
636.889	12697.41
637.083	12502.85
637.276	11917.13
637.47	11329.36
637.664	10991.45
637.857	10510.18
638.051	9908.07
638.244	9736.04
638.438	9254.77
638.632	8791.93
638.825	8595.32
639.019	8406.91
639.212	7653.26
639.406	7702.41
639.599	7133.08
639.793	7108.5
639.986	6739.87
640.18	6526.88
640.373	6164.39
640.567	5855.14
640.76	5775.27
640.954	5578.67
641.147	5341.1
641.34	4933.56
641.534	4974.52
641.727	4822.97
641.92	4577.21
642.114	4440
642.307	4188.1
642.5	4130.75
642.694	3702.73
642.887	3872.71
643.08	3647.43
643.273	3520.46
643.467	3442.64
643.66	3176.4
643.853	3030.99
644.046	2969.55
644.239	2803.67
644.432	2678.74
644.626	2684.89
644.819	2461.66
645.012	2465.75
645.205	2420.7
645.398	2267.1
645.591	2168.8
645.784	2185.18
645.977	2027.49
646.17	1916.9
646.363	1900.52
646.556	1701.86
646.749	1689.57
646.942	1689.57
647.135	1757.16
647.328	1515.5
647.521	1529.83
647.714	1396.71
647.907	1392.62
648.099	1218.54
648.292	1347.56
648.485	1290.22
648.678	1155.05
648.871	1095.66
649.064	1071.09
649.256	1005.55
649.449	907.25
649.642	874.48
649.835	854
650.027	888.82
650.22	899.06
650.413	856.05
650.605	815.09
650.798	727.03
650.991	817.14
651.183	804.85
651.376	747.51
651.568	733.17
651.761	722.93
651.954	636.92
652.146	739.32
652.339	673.78
652.531	653.3
652.724	544.76
652.916	471.03
653.109	446.46
653.301	567.29
653.494	604.15
653.686	579.58
653.879	557.05
654.071	471.03
654.263	352.25
654.456	466.94
654.648	475.13
654.84	440.31
655.033	278.52
655.225	546.81
655.417	258.04
655.61	511.99
655.802	497.66
655.994	444.41
656.186	280.57
656.379	380.92
656.571	301.05
656.763	350.2
656.955	296.96
657.148	309.24
657.34	370.68
657.532	217.08
657.724	272.38
657.916	296.96
658.108	368.63
658.3	337.91
658.492	315.39
658.684	229.37
658.876	344.06
659.068	276.48
659.26	245.76
659.452	210.94
659.644	229.37
659.836	364.54
660.028	169.98
660.22	227.32
660.412	176.13
660.604	153.6
660.796	210.94
660.988	266.24
661.18	206.84
661.372	258.04
661.563	231.42
661.755	172.03
661.947	77.82
662.139	122.88
662.331	210.94
662.522	202.75
662.714	112.64
662.906	67.58
663.097	174.08
663.289	163.84
663.481	77.82
663.673	137.21
663.864	237.56
664.056	223.23
664.247	-40.96
664.439	299
664.631	133.12
664.822	225.28
665.014	192.51
665.205	77.82
665.397	124.93
665.588	141.31
665.78	163.84
665.971	245.76
666.163	165.89
666.354	145.41
666.546	59.39
666.737	73.73
666.929	176.13
667.12	139.26
667.311	151.55
667.503	174.08
667.694	233.47
667.885	135.17
668.077	155.65
668.268	34.82
668.459	208.89
668.651	190.46
668.842	231.42
669.033	65.54
669.224	59.39
669.416	331.77
669.607	90.11
669.798	96.25
669.989	249.85
670.18	126.97
670.371	180.22
670.563	114.69
670.754	159.74
670.945	131.07
671.136	221.18
671.327	55.3
671.518	192.51
671.709	296.96
671.9	174.08
672.091	233.47
672.282	126.97
672.473	217.08
672.664	4.1
672.855	149.5
673.046	149.5
673.237	202.75
673.428	112.64
673.619	206.84
673.809	51.2
674	268.28
674.191	116.73
674.382	139.26
674.573	126.97
674.764	165.89
674.954	149.5
675.145	81.92
675.336	161.79
675.527	49.15
675.717	106.49
675.908	57.34
676.099	96.25
676.289	45.06
676.48	16.38
676.671	194.56
676.861	151.55
677.052	231.42
677.243	92.16
677.433	108.54
677.624	184.32
677.814	129.02
678.005	96.25
678.195	192.51
678.386	100.35
678.576	135.17
678.767	59.39
678.957	192.51
679.148	186.37
679.338	253.95
679.529	129.02
679.719	65.54
679.909	280.57
680.1	235.52
680.29	110.59
680.481	67.58
680.671	251.9
680.861	229.37
681.052	141.31
681.242	118.78
681.432	210.94
681.622	157.69
681.813	34.82
682.003	124.93
682.193	-12.29
682.383	167.93
682.573	151.55
682.764	149.5
682.954	163.84
683.144	143.36
683.334	116.73
683.524	169.98
683.714	192.51
683.904	237.56
684.094	116.73
684.284	147.45
684.474	274.43
684.664	172.03
684.854	122.88
685.044	182.27
685.234	202.75
685.424	245.76
685.614	108.54
685.804	344.06
685.994	241.66
686.184	176.13
686.374	190.46
686.564	169.98
686.753	163.84
686.943	83.97
687.133	135.17
687.323	151.55
687.513	174.08
687.702	204.8
687.892	182.27
688.082	161.79
688.272	292.86
688.461	264.19
688.651	268.28
688.841	176.13
689.03	208.89
689.22	221.18
689.41	235.52
689.599	233.47
689.789	145.41
689.979	256
690.168	208.89
690.358	188.41
690.547	172.03
690.737	141.31
690.926	225.28
691.116	268.28
691.305	262.14
691.495	157.69
691.684	92.16
691.874	182.27
692.063	192.51
692.252	145.41
692.442	235.52
692.631	96.25
692.82	210.94
693.01	219.13
693.199	217.08
693.388	133.12
693.578	149.5
693.767	169.98
693.956	212.99
694.146	217.08
694.335	153.6
694.524	159.74
694.713	301.05
694.902	145.41
695.092	108.54
695.281	229.37
695.47	161.79
695.659	92.16
695.848	247.8
696.037	30.72
696.226	194.56
696.415	174.08
696.604	315.39
696.793	225.28
696.982	198.65
697.171	260.09
697.36	110.59
697.549	202.75
697.738	90.11
697.927	124.93
698.116	77.82
698.305	217.08
698.494	180.22
698.683	178.17
698.872	282.62
699.061	155.65
699.25	165.89
699.438	208.89
699.627	100.35
699.816	331.77
700.005	81.92
700.193	192.51
700.382	274.43
700.571	194.56
700.76	151.55
700.948	243.71
701.137	223.23
701.326	157.69
701.514	53.25
701.703	204.8
701.892	225.28
702.08	301.05
702.269	155.65
702.457	92.16
702.646	212.99
702.834	92.16
703.023	114.69
703.212	245.76
703.4	124.93
703.589	182.27
703.777	141.31
703.965	100.35
704.154	145.41
704.342	129.02
704.531	79.87
704.719	215.04
704.907	270.33
705.096	67.58
705.284	43.01
705.472	233.47
705.661	184.32
705.849	167.93
706.037	299
706.226	206.84
706.414	157.69
706.602	147.45
706.79	196.61
706.979	161.79
707.167	174.08
707.355	88.06
707.543	186.37
707.731	235.52
707.919	157.69
708.107	141.31
708.296	126.97
708.484	116.73
708.672	180.22
708.86	202.75
709.048	260.09
709.236	55.3
709.424	280.57
709.612	221.18
709.8	32.77
709.988	200.7
710.176	165.89
710.364	172.03
710.551	176.13
710.739	104.45
710.927	147.45
711.115	204.8
711.303	266.24
711.491	212.99
711.679	149.5
711.866	184.32
712.054	167.93
712.242	137.21
712.43	251.9
712.617	157.69
712.805	309.24
712.993	210.94
713.181	88.06
713.368	176.13
713.556	151.55
713.744	212.99
713.931	380.92
714.119	282.62
714.306	167.93
714.494	88.06
714.682	118.78
714.869	51.2
715.057	141.31
715.244	14.34
715.432	200.7
715.619	143.36
715.807	147.45
715.994	262.14
716.182	225.28
716.369	196.61
716.556	239.61
716.744	122.88
716.931	124.93
717.119	169.98
717.306	159.74
717.493	122.88
717.681	94.21
717.868	100.35
718.055	233.47
718.242	217.08
718.43	223.23
718.617	202.75
718.804	124.93
718.991	198.65
719.179	190.46
719.366	196.61
719.553	151.55
719.74	120.83
719.927	219.13
720.114	290.81
720.301	163.84
720.488	102.4
720.676	131.07
720.863	276.48
721.05	309.24
721.237	174.08
721.424	231.42
721.611	235.52
721.798	151.55
721.985	194.56
722.172	141.31
722.358	159.74
722.545	251.9
722.732	200.7
722.919	178.17
723.106	272.38
723.293	225.28
723.48	190.46
723.667	145.41
723.853	329.72
724.04	245.76
724.227	270.33
724.414	153.6
724.6	284.67
724.787	317.44
724.974	350.2
725.161	219.13
725.347	182.27
725.534	253.95
725.72	251.9
725.907	276.48
726.094	210.94
726.28	145.41
726.467	215.04
726.653	151.55
726.84	323.58
727.027	280.57
727.213	192.51
727.4	194.56
727.586	165.89
727.773	157.69
727.959	210.94
728.145	184.32
728.332	245.76
728.518	194.56
728.705	192.51
728.891	110.59
729.077	184.32
729.264	145.41
729.45	151.55
729.636	253.95
729.823	223.23
730.009	241.66
730.195	258.04
730.382	264.19
730.568	176.13
730.754	212.99
730.94	172.03
731.126	210.94
731.313	280.57
731.499	264.19
731.685	299
731.871	251.9
732.057	182.27
732.243	286.72
732.429	249.85
732.615	299
732.801	284.67
732.987	198.65
733.173	178.17
733.359	184.32
733.545	174.08
733.731	262.14
733.917	278.52
734.103	278.52
734.289	245.76
734.475	165.89
734.661	382.97
734.847	200.7
735.033	239.61
735.219	309.24
735.404	188.41
735.59	194.56
735.776	223.23
735.962	231.42
736.148	241.66
736.333	335.87
736.519	235.52
736.705	202.75
736.89	251.9
737.076	212.99
737.262	176.13
737.447	182.27
737.633	176.13
737.819	284.67
738.004	258.04
738.19	219.13
738.375	299
738.561	256
738.747	182.27
738.932	151.55
739.118	376.83
739.303	317.44
739.489	243.71
739.674	135.17
739.859	198.65
740.045	151.55
740.23	233.47
740.416	94.21
740.601	258.04
740.786	256
740.972	221.18
741.157	163.84
741.342	151.55
741.528	145.41
741.713	239.61
741.898	237.56
742.084	243.71
742.269	182.27
742.454	272.38
742.639	272.38
742.824	174.08
743.01	272.38
743.195	288.76
743.38	270.33
743.565	223.23
743.75	223.23
743.935	264.19
744.12	325.63
744.305	190.46
744.49	221.18
744.675	235.52
744.86	174.08
745.045	284.67
745.23	235.52
745.415	225.28
745.6	260.09
745.785	155.65
745.97	196.61
746.155	309.24
746.34	229.37
746.525	169.98
746.71	296.96
746.895	223.23
747.079	102.4
747.264	120.83
747.449	247.8
747.634	198.65
747.819	192.51
748.003	202.75
748.188	88.06
748.373	264.19
748.557	301.05
748.742	264.19
748.927	122.88
749.111	206.84
749.296	75.77
749.481	217.08
749.665	276.48
749.85	157.69
750.034	188.41
750.219	196.61
750.404	167.93
750.588	245.76
750.773	112.64
750.957	196.61
751.141	124.93
751.326	174.08
751.51	116.73
751.695	172.03
751.879	227.32
752.064	284.67
752.248	157.69
752.432	313.34
752.617	219.13
752.801	260.09
752.985	215.04
753.17	237.56
753.354	184.32
753.538	149.5
753.722	104.45
753.907	57.34
754.091	61.44
754.275	206.84
754.459	67.58
754.643	147.45
754.828	155.65
755.012	167.93
755.196	100.35
755.38	124.93
755.564	118.78
755.748	108.54
755.932	126.97
756.116	165.89
756.3	262.14
756.484	108.54
756.668	208.89
756.852	49.15
757.036	145.41
757.22	194.56
757.404	86.01
757.588	69.63
757.772	202.75
757.956	153.6
758.14	266.24
758.323	79.87
758.507	169.98
758.691	94.21
758.875	172.03
759.059	153.6
759.242	79.87
759.426	96.25
759.61	165.89
759.794	184.32
759.977	149.5
760.161	358.39
760.345	286.72
760.528	161.79
760.712	124.93
760.895	153.6
761.079	49.15
761.263	108.54
761.446	51.2
761.63	104.45
761.813	243.71
761.997	81.92
762.18	131.07
762.364	200.7
762.547	-24.58
762.731	104.45
762.914	104.45
763.098	96.25
763.281	71.68
763.464	26.62
763.648	114.69
763.831	73.73
764.015	53.25
764.198	118.78
764.381	61.44
764.564	194.56
764.748	88.06
764.931	149.5
765.114	86.01
765.297	79.87
765.481	-4.1
765.664	120.83
765.847	79.87
766.03	219.13
766.213	-38.91
766.397	38.91
766.58	45.06
766.763	73.73
766.946	30.72
767.129	-45.06
767.312	73.73
767.495	81.92
767.678	120.83
767.861	69.63
768.044	94.21
768.227	34.82
768.41	112.64
768.593	83.97
768.776	165.89
768.959	53.25
769.142	120.83
769.324	149.5
769.507	104.45
769.69	100.35
769.873	63.49
770.056	292.86
770.239	36.86
770.421	182.27
770.604	118.78
770.787	86.01
770.97	135.17
771.152	-45.06
771.335	131.07
771.518	14.34
771.7	126.97
771.883	239.61
772.066	94.21
772.248	120.83
772.431	88.06
772.613	122.88
772.796	57.34
772.978	118.78
773.161	217.08
773.343	34.82
773.526	79.87
773.708	32.77
773.891	-40.96
774.073	43.01
774.256	2.05
774.438	251.9
774.621	67.58
774.803	108.54
774.985	16.38
775.168	75.77
775.35	73.73
775.532	124.93
775.715	26.62
775.897	81.92
776.079	49.15
776.261	122.88
776.444	51.2
776.626	43.01
776.808	59.39
776.99	28.67
777.173	120.83
777.355	30.72
777.537	59.39
777.719	110.59
777.901	28.67
778.083	18.43
778.265	-43.01
778.447	141.31
778.629	-10.24
778.811	-24.58
778.993	81.92
779.175	133.12
779.357	12.29
779.539	-6.14
779.721	47.1
779.903	155.65
780.085	36.86
780.267	22.53
780.449	118.78
780.631	81.92
780.812	202.75
780.994	47.1
781.176	133.12
781.358	-16.38
781.54	26.62
781.721	96.25
781.903	83.97
782.085	67.58
782.267	161.79
782.448	14.34
782.63	-32.77
782.812	147.45
782.993	120.83
783.175	141.31
783.357	2.05
783.538	86.01
783.72	26.62
783.901	73.73
784.083	98.3
784.264	174.08
784.446	-16.38
784.627	-67.58
784.809	104.45
784.99	-14.34
785.172	36.86
785.353	12.29
785.535	30.72
785.716	-6.14
785.897	-16.38
786.079	-12.29
786.26	43.01
786.441	6.14
786.623	-20.48
786.804	-40.96
786.985	108.54
787.167	86.01
787.348	16.38
787.529	88.06
787.71	188.41
787.891	86.01
788.073	20.48
788.254	10.24
788.435	137.21
788.616	59.39
788.797	51.2
788.978	43.01
789.159	-18.43
789.34	112.64
789.522	-51.2
789.703	10.24
789.884	77.82
790.065	45.06
790.246	116.73
790.427	-6.14
790.607	133.12
790.788	139.26
790.969	-67.58
791.15	63.49
791.331	-100.35
791.512	-38.91
791.693	49.15
791.874	28.67
792.054	223.23
792.235	192.51
792.416	4.1
792.597	8.19
792.778	131.07
792.958	116.73
793.139	71.68
793.32	45.06
793.5	-10.24
793.681	145.41
793.862	77.82
794.042	22.53
794.223	-90.11
794.404	-10.24
794.584	6.14
794.765	-2.05
794.945	-10.24
795.126	118.78
795.306	45.06
795.487	22.53
795.667	-28.67
795.848	73.73
796.028	10.24
796.209	36.86
796.389	79.87
796.57	26.62
796.75	-67.58
796.93	114.69
797.111	2.05
797.291	36.86
797.471	79.87
797.652	12.29
797.832	-2.05
798.012	61.44
798.192	-2.05
798.373	-106.49
798.553	-4.1
798.733	28.67
798.913	10.24
799.093	-43.01
799.274	49.15
799.454	55.3
799.634	36.86
799.814	40.96
799.994	49.15
800.174	53.25
800.354	14.34
800.534	-149.5
800.714	108.54
800.894	-83.97
801.074	-67.58
801.254	-24.58
801.434	141.31
801.614	30.72
801.794	-59.39
801.974	1851.36
802.154	-36.86
802.334	63.49
802.514	22.53
802.693	2.05
802.873	75.77
803.053	126.97
803.233	59.39
803.413	28.67
803.592	-57.34
803.772	-18.43
803.952	61.44
804.131	8.19
804.311	104.45
804.491	69.63
804.67	-30.72
804.85	-59.39
805.03	34.82
805.209	165.89
805.389	-14.34
805.568	-108.54
805.748	8.19
805.928	-38.91
806.107	108.54
806.287	14.34
806.466	45.06
806.646	-4.1
806.825	-73.73
807.004	40.96
807.184	34.82
807.363	40.96
807.543	40.96
807.722	4.1
807.901	94.21
808.081	77.82
808.26	-172.03
808.439	90.11
808.619	4.1
808.798	43.01
808.977	81.92
809.156	92.16
809.336	49.15
809.515	14.34
809.694	-75.77
809.873	20.48
810.052	73.73
810.231	169.98
810.411	38.91
810.59	63.49
810.769	30.72
810.948	102.4
811.127	-83.97
811.306	-51.2
811.485	24.58
811.664	63.49
811.843	45.06
812.022	75.77
812.201	26.62
812.38	16.38
812.559	-36.86
812.737	-18.43
812.916	-10.24
813.095	-55.3
813.274	88.06
813.453	75.77
813.632	124.93
813.811	71.68
813.989	-63.49
814.168	96.25
814.347	-55.3
814.526	-40.96
814.704	137.21
814.883	69.63
815.062	-75.77
815.24	81.92
815.419	-38.91
815.598	10.24
815.776	-73.73
815.955	20.48
816.133	-104.45
816.312	-8.19
816.49	-73.73
816.669	43.01
816.847	-6.14
817.026	-34.82
817.204	43.01
817.383	16.38
817.561	-36.86
817.74	43.01
817.918	118.78
818.097	8.19
818.275	-10.24
818.453	28.67
818.632	88.06
818.81	-61.44
818.988	32.77
819.167	-81.92
819.345	16.38
819.523	-18.43
819.701	47.1
819.879	43.01
820.058	55.3
820.236	18.43
820.414	-30.72
820.592	-57.34
820.77	51.2
820.948	-45.06
821.127	24.58
821.305	-22.53
821.483	-86.01
821.661	4.1
821.839	32.77
822.017	0
822.195	-10.24
822.373	104.45
822.551	-30.72
822.729	14.34
822.907	75.77
823.085	75.77
823.262	10.24
823.44	-43.01
823.618	-49.15
823.796	92.16
823.974	61.44
824.152	-124.93
824.329	63.49
824.507	22.53
824.685	-14.34
824.863	-57.34
825.04	34.82
825.218	-2.05
825.396	22.53
825.574	16.38
825.751	16.38
825.929	73.73
826.107	-6.14
826.284	26.62
826.462	2.05
826.639	-51.2
826.817	-169.98
826.994	18.43
827.172	-83.97
827.349	186.37
827.527	51.2
827.704	16.38
827.882	45.06
828.059	18.43
828.237	-45.06
828.414	86.01
828.591	-96.25
828.769	92.16
828.946	-24.58
829.124	0
829.301	-2.05
829.478	20.48
829.655	18.43
829.833	120.83
830.01	-59.39
830.187	30.72
830.364	-38.91
830.542	-47.1
830.719	131.07
830.896	57.34
831.073	-20.48
831.25	10.24
831.427	28.67
831.604	135.17
831.782	-18.43
831.959	94.21
832.136	45.06
832.313	14.34
832.49	-51.2
832.667	67.58
832.844	-53.25
833.021	100.35
833.198	69.63
833.374	24.58
833.551	59.39
833.728	18.43
833.905	104.45
834.082	-86.01
834.259	36.86
834.436	90.11
834.612	-47.1
834.789	73.73
834.966	-75.77
835.143	16.38
835.319	-120.83
835.496	53.25
835.673	73.73
835.85	53.25
836.026	-8.19
836.203	110.59
836.38	-94.21
836.556	-22.53
836.733	-32.77
836.909	86.01
837.086	-10.24
837.262	-67.58
837.439	18.43
837.616	-116.73
837.792	-6.14
837.968	18.43
838.145	-51.2
838.321	-51.2
838.498	26.62
838.674	38.91
838.851	14.34
839.027	-22.53
839.203	-71.68
839.38	-22.53
839.556	-51.2
839.732	131.07
839.909	16.38
840.085	100.35
840.261	45.06
840.437	-61.44
840.614	-18.43
840.79	8.19
840.966	6.14
841.142	38.91
841.318	-18.43
841.494	45.06
841.671	45.06
841.847	-73.73
842.023	-36.86
842.199	36.86
842.375	53.25
842.551	-133.12
842.727	-73.73
842.903	112.64
843.079	-6.14
843.255	96.25
843.431	81.92
843.607	0
843.783	-167.93
843.959	-10.24
844.134	-45.06
844.31	53.25
844.486	18.43
844.662	-30.72
844.838	-26.62
845.013	-2.05
845.189	112.64
845.365	26.62
845.541	63.49
845.716	32.77
845.892	43.01
846.068	-43.01
846.244	-22.53
846.419	-10.24
846.595	-98.3
846.77	-47.1
846.946	86.01
847.122	-92.16
847.297	14.34
847.473	153.6
847.648	-38.91
847.824	-12.29
847.999	-90.11
848.175	-2.05
848.35	77.82
848.526	104.45
848.701	30.72
848.876	32.77
849.052	131.07
849.227	20.48
849.403	69.63
849.578	-92.16
849.753	-2.05
849.929	59.39
850.104	-83.97
850.279	22.53
850.454	-51.2
850.63	122.88
850.805	63.49
850.98	26.62
851.155	16.38
851.33	26.62
851.505	-108.54
851.681	139.26
851.856	-14.34
852.031	-28.67
852.206	8.19
852.381	-92.16
852.556	20.48
852.731	55.3
852.906	51.2
853.081	8.19
853.256	104.45
853.431	20.48
853.606	-32.77
853.781	-53.25
853.956	-135.17
854.131	36.86
854.305	-65.54
854.48	-12.29
854.655	-63.49
854.83	-77.82
855.005	77.82
855.18	10.24
855.354	10.24
855.529	12.29
855.704	10.24
855.879	14.34
856.053	-38.91
856.228	26.62
856.403	-6.14
856.577	51.2
856.752	4.1
856.926	-51.2
857.101	45.06
857.276	-102.4
857.45	55.3
857.625	112.64
857.799	-2.05
857.974	14.34
858.148	8.19
858.323	57.34
858.497	43.01
858.672	-24.58
858.846	-24.58
859.02	47.1
859.195	-180.22
859.369	-20.48
859.543	-43.01
859.718	-38.91
859.892	26.62
860.066	83.97
860.241	-10.24
860.415	40.96
860.589	-12.29
860.763	73.73
860.938	-12.29
861.112	47.1
861.286	12.29
861.46	51.2
861.634	-18.43
861.808	63.49
861.982	-45.06
862.157	-49.15
862.331	-4.1
862.505	-49.15
862.679	-100.35
862.853	-18.43
863.027	16.38
863.201	165.89
863.375	-36.86
863.549	26.62
863.722	12.29
863.896	22.53
864.07	14.34
864.244	-57.34
864.418	67.58
864.592	2.05
864.766	47.1
864.939	-47.1
865.113	-59.39
865.287	47.1
865.461	-65.54
865.634	86.01
865.808	-22.53
865.982	-96.25
866.156	-75.77
866.329	-88.06
866.503	18.43
866.676	-16.38
866.85	-6.14
867.024	-53.25
867.197	-14.34
867.371	28.67
867.544	47.1
867.718	-96.25
867.891	145.41
868.065	-92.16
868.238	86.01
868.412	112.64
868.585	-8.19
868.759	14.34
868.932	-47.1
869.105	-114.69
869.279	2.05
869.452	-57.34
869.625	88.06
869.799	-6.14
869.972	-96.25
870.145	67.58
870.319	61.44
870.492	-30.72
870.665	-47.1
870.838	36.86
871.011	-149.5
871.185	-67.58
871.358	14.34
871.531	86.01
871.704	-45.06
871.877	28.67
872.05	-20.48
872.223	-59.39
872.396	34.82
872.569	49.15
872.742	-159.74
872.915	36.86
873.088	28.67
873.261	-92.16
873.434	79.87
873.607	-18.43
873.78	104.45
873.953	-26.62
874.126	18.43
874.299	24.58
874.471	-26.62
874.644	10.24
874.817	8.19
874.99	61.44
875.163	-55.3
875.335	-53.25
875.508	20.48
875.681	67.58
875.853	-53.25
876.026	-102.4
876.199	24.58
876.371	61.44
876.544	-28.67
876.717	16.38
876.889	-38.91
877.062	65.54
877.234	-98.3
877.407	-12.29
877.579	-26.62
877.752	51.2
877.924	108.54
878.097	16.38
878.269	77.82
878.442	4.1
878.614	55.3
878.786	30.72
878.959	34.82
879.131	59.39
879.303	-88.06
879.476	12.29
879.648	100.35
879.82	-34.82
879.993	-2.05
880.165	-38.91
880.337	-77.82
880.509	-8.19
880.681	-61.44
880.854	-92.16
881.026	145.41
881.198	153.6
881.37	38.91
881.542	-32.77
881.714	83.97
881.886	-59.39
882.058	-47.1
882.23	2.05
882.402	-77.82
882.574	30.72
882.746	57.34
882.918	102.4
883.09	88.06
883.262	-30.72
883.434	32.77
883.606	-133.12
883.778	-34.82
883.95	157.69
884.122	-55.3
884.293	38.91
884.465	40.96
884.637	137.21
884.809	-79.87
884.98	59.39
885.152	-14.34
885.324	24.58
885.496	-75.77
885.667	-38.91
885.839	-32.77
886.011	94.21
886.182	16.38
886.354	45.06
886.525	34.82
886.697	57.34
886.869	-63.49
887.04	-2.05
887.212	129.02
887.383	112.64
887.555	0
887.726	-26.62
887.897	-49.15
888.069	2.05
888.24	169.98
888.412	59.39
888.583	-2.05
888.754	26.62
888.926	-159.74
889.097	-43.01
889.268	-83.97
889.44	-94.21
889.611	-100.35
889.782	-129.02
889.953	-30.72
890.125	63.49
890.296	-47.1
890.467	-14.34
890.638	-81.92
890.809	-26.62
890.98	49.15
891.151	26.62
891.323	57.34
891.494	55.3
891.665	8.19
891.836	12.29
892.007	2.05
892.178	38.91
892.349	26.62
892.52	-6.14
892.691	92.16
892.862	-69.63
893.032	-57.34
893.203	-26.62
893.374	4.1
893.545	22.53
893.716	-34.82
893.887	75.77
894.057	-34.82
894.228	36.86
894.399	-55.3
894.57	116.73
894.74	-26.62
894.911	-57.34
895.082	-36.86
895.253	-122.88
895.423	2.05
895.594	-24.58
895.764	18.43
895.935	-10.24
896.106	-59.39
896.276	-16.38
896.447	57.34
896.617	12.29
896.788	-51.2
896.958	-22.53
897.129	-45.06
897.299	-4.1
897.47	-24.58
897.64	53.25
897.81	-28.67
897.981	-24.58
898.151	-90.11
898.322	55.3
898.492	45.06
898.662	-16.38
898.832	-88.06
899.003	-32.77
899.173	-24.58
899.343	22.53
899.513	-12.29
