Data from USB4F104151__4__10-41-14-590.txt Node

Date: Wed Feb 26 10:41:14 EST 2025
User: louis
Spectrometer: USB4F10415
Trigger mode: 4
Integration Time (sec): 1.000000E-1
Scans to average: 1
Electric dark correction enabled: true
Nonlinearity correction enabled: false
Boxcar width: 0
XAxis mode: Wavelengths
Number of Pixels in Spectrum: 3648
>>>>>Begin Spectral Data<<<<<
178.204	-416.08
178.424	-416.08
178.644	-416.08
178.864	-401.74
179.084	-473.42
179.304	22.19
179.524	-37.2
179.744	18.09
179.964	20.14
180.184	54.95
180.404	34.47
180.624	-59.73
180.844	-12.63
181.064	-74.07
181.283	3.75
181.503	-39.25
181.723	69.29
181.943	-129.36
182.163	163.5
182.383	-65.88
182.602	87.72
182.822	130.73
183.042	-20.82
183.262	-31.06
183.482	-35.16
183.701	-2.39
183.921	61.1
184.141	22.19
184.361	85.67
184.58	120.49
184.8	63.15
185.02	-51.54
185.239	112.3
185.459	65.19
185.679	175.78
185.898	-57.68
186.118	13.99
186.338	85.67
186.557	40.62
186.777	-35.16
186.997	5.8
187.216	40.62
187.436	239.27
187.655	-18.77
187.875	83.63
188.095	69.29
188.314	157.35
188.534	100.01
188.753	-26.96
188.973	104.11
189.192	151.21
189.412	61.1
189.631	20.14
189.851	50.86
190.07	120.49
190.29	-61.78
190.509	-59.73
190.729	65.19
190.948	71.34
191.168	235.18
191.387	122.54
191.607	20.14
191.826	122.54
192.045	63.15
192.265	-12.63
192.484	44.71
192.704	-4.44
192.923	-24.92
193.142	169.64
193.362	100.01
193.581	44.71
193.8	28.33
194.02	134.82
194.239	9.9
194.458	95.91
194.678	-37.2
194.897	-18.77
195.116	-8.53
195.335	69.29
195.555	38.57
195.774	-63.83
195.993	106.15
196.212	44.71
196.432	-84.31
196.651	-65.88
196.87	-12.63
197.089	239.27
197.308	46.76
197.528	73.39
197.747	26.28
197.966	32.43
198.185	136.87
198.404	-41.3
198.623	83.63
198.842	122.54
199.062	89.77
199.281	132.78
199.5	87.72
199.719	73.39
199.938	120.49
200.157	87.72
200.376	73.39
200.595	106.15
200.814	120.49
201.033	75.43
201.252	132.78
201.471	40.62
201.69	138.92
201.909	61.1
202.128	48.81
202.347	83.63
202.566	36.52
202.785	-78.16
203.004	-33.11
203.223	192.17
203.442	40.62
203.661	36.52
203.879	24.23
204.098	112.3
204.317	11.95
204.536	97.96
204.755	81.58
204.974	200.36
205.193	16.04
205.411	149.16
205.63	69.29
205.849	79.53
206.068	-0.34
206.287	-20.82
206.505	118.44
206.724	-49.49
206.943	-2.39
207.162	-49.49
207.381	59.05
207.599	79.53
207.818	77.48
208.037	20.14
208.255	93.87
208.474	13.99
208.693	42.67
208.911	-33.11
209.13	110.25
209.349	85.67
209.567	38.57
209.786	40.62
210.005	40.62
210.223	48.81
210.442	-102.74
210.661	-8.53
210.879	1.71
211.098	20.14
211.316	108.2
211.535	73.39
211.753	52.91
211.972	110.25
212.191	-22.87
212.409	32.43
212.628	112.3
212.846	36.52
213.065	34.47
213.283	134.82
213.502	106.15
213.72	34.47
213.938	44.71
214.157	48.81
214.375	134.82
214.594	-12.63
214.812	75.43
215.031	24.23
215.249	57
215.467	71.34
215.686	-12.63
215.904	120.49
216.122	3.75
216.341	120.49
216.559	91.82
216.778	130.73
216.996	120.49
217.214	9.9
217.432	36.52
217.651	-16.73
217.869	28.33
218.087	63.15
218.306	54.95
218.524	22.19
218.742	30.38
218.96	73.39
219.179	108.2
219.397	40.62
219.615	300.71
219.833	167.59
220.051	-22.87
220.27	104.11
220.488	151.21
220.706	-24.92
220.924	-33.11
221.142	-63.83
221.36	130.73
221.578	11.95
221.796	46.76
222.015	54.95
222.233	5.8
222.451	145.06
222.669	-51.54
222.887	104.11
223.105	20.14
223.323	20.14
223.541	30.38
223.759	30.38
223.977	40.62
224.195	118.44
224.413	130.73
224.631	13.99
224.849	77.48
225.067	206.5
225.285	-20.82
225.503	11.95
225.721	-102.74
225.939	32.43
226.157	85.67
226.375	177.83
226.592	5.8
226.81	59.05
227.028	157.35
227.246	161.45
227.464	1.71
227.682	104.11
227.9	36.52
228.117	54.95
228.335	-18.77
228.553	81.58
228.771	59.05
228.989	36.52
229.206	104.11
229.424	-33.11
229.642	65.19
229.86	13.99
230.077	69.29
230.295	30.38
230.513	130.73
230.731	44.71
230.948	202.41
231.166	149.16
231.384	26.28
231.601	-102.74
231.819	206.5
232.037	-67.92
232.254	-67.92
232.472	-31.06
232.689	13.99
232.907	134.82
233.125	59.05
233.342	-10.58
233.56	-31.06
233.777	46.76
233.995	5.8
234.213	97.96
234.43	138.92
234.648	57
234.865	-6.49
235.083	50.86
235.3	46.76
235.518	120.49
235.735	91.82
235.953	50.86
236.17	-2.39
236.388	34.47
236.605	34.47
236.822	59.05
237.04	112.3
237.257	24.23
237.475	-61.78
237.692	22.19
237.909	108.2
238.127	9.9
238.344	95.91
238.562	100.01
238.779	-33.11
238.996	-31.06
239.214	-10.58
239.431	85.67
239.648	7.85
239.865	93.87
240.083	20.14
240.3	34.47
240.517	28.33
240.735	63.15
240.952	110.25
241.169	13.99
241.386	77.48
241.603	89.77
241.821	32.43
242.038	48.81
242.255	118.44
242.472	-22.87
242.689	36.52
242.907	52.91
243.124	63.15
243.341	69.29
243.558	28.33
243.775	-41.3
243.992	-61.78
244.209	32.43
244.426	200.36
244.643	13.99
244.86	-33.11
245.078	61.1
245.295	83.63
245.512	26.28
245.729	-4.44
245.946	159.4
246.163	30.38
246.38	50.86
246.597	28.33
246.814	73.39
247.031	106.15
247.248	63.15
247.464	42.67
247.681	83.63
247.898	93.87
248.115	50.86
248.332	-26.96
248.549	116.39
248.766	155.3
248.983	97.96
249.2	73.39
249.417	93.87
249.633	1.71
249.85	108.2
250.067	-72.02
250.284	34.47
250.501	126.63
250.717	46.76
250.934	-51.54
251.151	-31.06
251.368	79.53
251.585	61.1
251.801	-37.2
252.018	-2.39
252.235	46.76
252.451	7.85
252.668	44.71
252.885	188.07
253.102	3.75
253.318	38.57
253.535	-2.39
253.752	-12.63
253.968	34.47
254.185	-47.44
254.401	79.53
254.618	26.28
254.835	1.71
255.051	140.97
255.268	20.14
255.484	36.52
255.701	30.38
255.917	28.33
256.134	3.75
256.351	20.14
256.567	-51.54
256.784	46.76
257	-39.25
257.217	87.72
257.433	102.06
257.65	-33.11
257.866	153.26
258.082	-8.53
258.299	16.04
258.515	52.91
258.732	3.75
258.948	-33.11
259.165	9.9
259.381	7.85
259.597	85.67
259.814	11.95
260.03	-24.92
260.246	-37.2
260.463	38.57
260.679	130.73
260.895	102.06
261.112	57
261.328	-29.01
261.544	42.67
261.761	136.87
261.977	-10.58
262.193	-26.96
262.409	85.67
262.626	32.43
262.842	69.29
263.058	-53.59
263.274	28.33
263.49	77.48
263.707	57
263.923	28.33
264.139	-65.88
264.355	50.86
264.571	102.06
264.787	-0.34
265.004	65.19
265.22	40.62
265.436	65.19
265.652	3.75
265.868	75.43
266.084	-69.97
266.3	3.75
266.516	-45.4
266.732	48.81
266.948	97.96
267.164	20.14
267.38	186.02
267.596	130.73
267.812	206.5
268.028	20.14
268.244	34.47
268.46	52.91
268.676	-24.92
268.892	28.33
269.108	7.85
269.324	30.38
269.54	-98.64
269.756	120.49
269.972	7.85
270.188	20.14
270.403	-4.44
270.619	32.43
270.835	81.58
271.051	63.15
271.267	-55.64
271.483	28.33
271.698	102.06
271.914	54.95
272.13	77.48
272.346	69.29
272.562	61.1
272.777	157.35
272.993	-10.58
273.209	-18.77
273.425	52.91
273.64	-4.44
273.856	104.11
274.072	32.43
274.287	9.9
274.503	65.19
274.719	48.81
274.934	11.95
275.15	-78.16
275.366	67.24
275.581	-18.77
275.797	18.09
276.012	26.28
276.228	-51.54
276.444	7.85
276.659	136.87
276.875	-16.73
277.09	24.23
277.306	61.1
277.521	73.39
277.737	-4.44
277.952	42.67
278.168	59.05
278.383	32.43
278.599	38.57
278.814	145.06
279.03	46.76
279.245	124.58
279.461	91.82
279.676	136.87
279.892	-18.77
280.107	-18.77
280.322	-49.49
280.538	73.39
280.753	-20.82
280.969	134.82
281.184	44.71
281.399	167.59
281.615	-18.77
281.83	-0.34
282.045	-102.74
282.26	-6.49
282.476	36.52
282.691	71.34
282.906	52.91
283.122	34.47
283.337	-49.49
283.552	61.1
283.767	-20.82
283.983	120.49
284.198	87.72
284.413	34.47
284.628	44.71
284.843	11.95
285.058	120.49
285.274	24.23
285.489	-51.54
285.704	67.24
285.919	-16.73
286.134	40.62
286.349	32.43
286.564	71.34
286.779	188.07
286.995	-35.16
287.21	-39.25
287.425	132.78
287.64	18.09
287.855	91.82
288.07	-14.68
288.285	186.02
288.5	102.06
288.715	5.8
288.93	22.19
289.145	13.99
289.36	169.64
289.575	22.19
289.79	181.93
290.004	67.24
290.219	110.25
290.434	9.9
290.649	1.71
290.864	5.8
291.079	59.05
291.294	110.25
291.509	13.99
291.724	-12.63
291.938	-16.73
292.153	75.43
292.368	-61.78
292.583	97.96
292.798	30.38
293.012	48.81
293.227	20.14
293.442	-41.3
293.657	93.87
293.871	167.59
294.086	9.9
294.301	59.05
294.516	102.06
294.73	57
294.945	-41.3
295.16	61.1
295.374	97.96
295.589	145.06
295.804	7.85
296.018	93.87
296.233	91.82
296.447	40.62
296.662	54.95
296.877	34.47
297.091	155.3
297.306	54.95
297.52	16.04
297.735	26.28
297.949	-16.73
298.164	52.91
298.378	87.72
298.593	-61.78
298.807	-12.63
299.022	40.62
299.236	104.11
299.451	20.14
299.665	22.19
299.88	57
300.094	59.05
300.309	20.14
300.523	50.86
300.737	77.48
300.952	77.48
301.166	26.28
301.381	36.52
301.595	-10.58
301.809	-6.49
302.024	81.58
302.238	1.71
302.452	120.49
302.667	67.24
302.881	151.21
303.095	69.29
303.309	73.39
303.524	-37.2
303.738	65.19
303.952	22.19
304.166	108.2
304.381	-104.79
304.595	177.83
304.809	-12.63
305.023	50.86
305.237	28.33
305.452	-0.34
305.666	48.81
305.88	134.82
306.094	91.82
306.308	69.29
306.522	81.58
306.736	106.15
306.95	71.34
307.164	5.8
307.379	26.28
307.593	110.25
307.807	120.49
308.021	140.97
308.235	95.91
308.449	-57.68
308.663	28.33
308.877	120.49
309.091	65.19
309.305	16.04
309.519	-86.36
309.733	95.91
309.947	-43.35
310.161	108.2
310.374	163.5
310.588	124.58
310.802	3.75
311.016	28.33
311.23	52.91
311.444	40.62
311.658	73.39
311.872	100.01
312.085	151.21
312.299	104.11
312.513	143.02
312.727	93.87
312.941	-45.4
313.154	75.43
313.368	102.06
313.582	11.95
313.796	40.62
314.009	7.85
314.223	50.86
314.437	50.86
314.651	120.49
314.864	28.33
315.078	-33.11
315.292	11.95
315.505	-37.2
315.719	-8.53
315.933	110.25
316.146	24.23
316.36	26.28
316.573	48.81
316.787	26.28
317.001	34.47
317.214	-63.83
317.428	79.53
317.641	20.14
317.855	-61.78
318.068	65.19
318.282	59.05
318.495	206.5
318.709	114.34
318.922	50.86
319.136	206.5
319.349	147.11
319.563	-35.16
319.776	169.64
319.99	-31.06
320.203	91.82
320.417	16.04
320.63	134.82
320.843	206.5
321.057	67.24
321.27	42.67
321.483	122.54
321.697	91.82
321.91	30.38
322.124	38.57
322.337	71.34
322.55	-55.64
322.763	-24.92
322.977	26.28
323.19	26.28
323.403	-0.34
323.617	79.53
323.83	118.44
324.043	-6.49
324.256	42.67
324.469	-117.08
324.683	57
324.896	16.04
325.109	-26.96
325.322	-74.07
325.535	120.49
325.748	126.63
325.962	32.43
326.175	36.52
326.388	120.49
326.601	102.06
326.814	69.29
327.027	-24.92
327.24	186.02
327.453	-63.83
327.666	32.43
327.879	161.45
328.092	63.15
328.305	7.85
328.518	-12.63
328.731	-61.78
328.944	40.62
329.157	116.39
329.37	-20.82
329.583	171.69
329.796	102.06
330.009	-55.64
330.222	52.91
330.435	138.92
330.648	97.96
330.861	95.91
331.073	61.1
331.286	120.49
331.499	61.1
331.712	3.75
331.925	13.99
332.138	-18.77
332.35	36.52
332.563	-6.49
332.776	91.82
332.989	-4.44
333.202	24.23
333.414	61.1
333.627	48.81
333.84	1.71
334.053	-8.53
334.265	-10.58
334.478	-10.58
334.691	61.1
334.903	77.48
335.116	-8.53
335.329	54.95
335.541	59.05
335.754	100.01
335.966	-20.82
336.179	38.57
336.392	28.33
336.604	48.81
336.817	57
337.029	20.14
337.242	73.39
337.454	42.67
337.667	54.95
337.88	175.78
338.092	140.97
338.305	126.63
338.517	30.38
338.729	85.67
338.942	106.15
339.154	-14.68
339.367	-65.88
339.579	108.2
339.792	-51.54
340.004	63.15
340.217	13.99
340.429	-0.34
340.641	-63.83
340.854	-55.64
341.066	50.86
341.278	7.85
341.491	138.92
341.703	118.44
341.915	-94.55
342.128	118.44
342.34	132.78
342.552	-16.73
342.764	63.15
342.977	52.91
343.189	36.52
343.401	128.68
343.613	-43.35
343.826	36.52
344.038	-0.34
344.25	110.25
344.462	-26.96
344.674	7.85
344.886	16.04
345.099	104.11
345.311	61.1
345.523	-4.44
345.735	-35.16
345.947	61.1
346.159	30.38
346.371	11.95
346.583	22.19
346.795	122.54
347.007	65.19
347.219	44.71
347.431	32.43
347.643	140.97
347.855	22.19
348.067	140.97
348.279	-31.06
348.491	7.85
348.703	95.91
348.915	1.71
349.127	-45.4
349.339	102.06
349.551	34.47
349.763	48.81
349.975	30.38
350.187	83.63
350.399	83.63
350.61	73.39
350.822	1.71
351.034	81.58
351.246	147.11
351.458	79.53
351.669	18.09
351.881	104.11
352.093	85.67
352.305	106.15
352.517	63.15
352.728	159.4
352.94	36.52
353.152	87.72
353.363	-29.01
353.575	40.62
353.787	163.5
353.999	102.06
354.21	169.64
354.422	-86.36
354.633	-0.34
354.845	112.3
355.057	106.15
355.268	-2.39
355.48	157.35
355.692	40.62
355.903	26.28
356.115	-29.01
356.326	-59.73
356.538	216.74
356.749	71.34
356.961	73.39
357.172	9.9
357.384	-4.44
357.595	190.12
357.807	-33.11
358.018	26.28
358.23	42.67
358.441	114.34
358.653	57
358.864	22.19
359.075	75.43
359.287	32.43
359.498	93.87
359.709	83.63
359.921	134.82
360.132	18.09
360.344	59.05
360.555	24.23
360.766	38.57
360.977	54.95
361.189	177.83
361.4	67.24
361.611	81.58
361.823	118.44
362.034	69.29
362.245	-98.64
362.456	-35.16
362.667	130.73
362.879	-6.49
363.09	-12.63
363.301	18.09
363.512	52.91
363.723	-4.44
363.935	65.19
364.146	87.72
364.357	40.62
364.568	-8.53
364.779	-76.12
364.99	128.68
365.201	-33.11
365.412	112.3
365.623	-41.3
365.834	63.15
366.045	24.23
366.256	79.53
366.467	69.29
366.678	59.05
366.889	83.63
367.1	28.33
367.311	100.01
367.522	36.52
367.733	110.25
367.944	102.06
368.155	112.3
368.366	73.39
368.577	118.44
368.788	57
368.999	-82.26
369.209	48.81
369.42	222.89
369.631	245.41
369.842	59.05
370.053	61.1
370.264	81.58
370.474	-63.83
370.685	110.25
370.896	48.81
371.107	100.01
371.317	126.63
371.528	75.43
371.739	134.82
371.95	46.76
372.16	110.25
372.371	-20.82
372.582	32.43
372.792	91.82
373.003	30.38
373.214	114.34
373.424	110.25
373.635	-4.44
373.846	173.74
374.056	102.06
374.267	83.63
374.477	151.21
374.688	-20.82
374.898	3.75
375.109	13.99
375.319	63.15
375.53	110.25
375.74	93.87
375.951	57
376.161	79.53
376.372	95.91
376.582	-49.49
376.793	-6.49
377.003	9.9
377.214	-10.58
377.424	83.63
377.635	1.71
377.845	7.85
378.055	126.63
378.266	-20.82
378.476	38.57
378.686	108.2
378.897	-8.53
379.107	42.67
379.317	173.74
379.528	-49.49
379.738	85.67
379.948	24.23
380.158	122.54
380.369	54.95
380.579	128.68
380.789	42.67
380.999	89.77
381.21	93.87
381.42	188.07
381.63	44.71
381.84	81.58
382.05	52.91
382.261	54.95
382.471	100.01
382.681	36.52
382.891	179.88
383.101	97.96
383.311	42.67
383.521	-74.07
383.731	46.76
383.941	140.97
384.151	16.04
384.361	-4.44
384.571	-0.34
384.781	67.24
384.991	136.87
385.201	140.97
385.411	38.57
385.621	97.96
385.831	93.87
386.041	44.71
386.251	-10.58
386.461	97.96
386.671	116.39
386.881	75.43
387.091	13.99
387.301	132.78
387.511	114.34
387.72	108.2
387.93	97.96
388.14	-6.49
388.35	153.26
388.56	85.67
388.769	95.91
388.979	73.39
389.189	1.71
389.399	67.24
389.609	161.45
389.818	159.4
390.028	114.34
390.238	108.2
390.447	-35.16
390.657	71.34
390.867	-18.77
391.076	-63.83
391.286	75.43
391.496	18.09
391.705	77.48
391.915	112.3
392.125	85.67
392.334	3.75
392.544	73.39
392.753	-8.53
392.963	-49.49
393.172	63.15
393.382	-0.34
393.591	112.3
393.801	-16.73
394.01	171.69
394.22	128.68
394.429	57
394.639	-16.73
394.848	36.52
395.058	81.58
395.267	-16.73
395.477	44.71
395.686	71.34
395.895	179.88
396.105	179.88
396.314	52.91
396.524	71.34
396.733	11.95
396.942	122.54
397.152	24.23
397.361	50.86
397.57	20.14
397.78	20.14
397.989	75.43
398.198	151.21
398.407	69.29
398.617	-16.73
398.826	63.15
399.035	-6.49
399.244	83.63
399.453	30.38
399.663	110.25
399.872	136.87
400.081	-67.92
400.29	151.21
400.499	-29.01
400.708	177.83
400.917	69.29
401.127	38.57
401.336	-14.68
401.545	206.5
401.754	110.25
401.963	136.87
402.172	63.15
402.381	-6.49
402.59	7.85
402.799	67.24
403.008	57
403.217	54.95
403.426	57
403.635	-20.82
403.844	-26.96
404.053	26.28
404.262	7.85
404.471	212.65
404.68	75.43
404.888	71.34
405.097	42.67
405.306	3.75
405.515	106.15
405.724	24.23
405.933	93.87
406.142	106.15
406.35	175.78
406.559	9.9
406.768	16.04
406.977	124.58
407.185	13.99
407.394	118.44
407.603	-0.34
407.812	106.15
408.02	93.87
408.229	16.04
408.438	52.91
408.646	-43.35
408.855	77.48
409.064	3.75
409.272	65.19
409.481	59.05
409.69	-14.68
409.898	-10.58
410.107	97.96
410.315	110.25
410.524	-49.49
410.733	147.11
410.941	48.81
411.15	132.78
411.358	149.16
411.567	173.74
411.775	28.33
411.984	36.52
412.192	36.52
412.401	22.19
412.609	171.69
412.818	165.54
413.026	124.58
413.234	34.47
413.443	18.09
413.651	42.67
413.86	46.76
414.068	77.48
414.276	153.26
414.485	24.23
414.693	132.78
414.901	169.64
415.11	95.91
415.318	-12.63
415.526	77.48
415.734	65.19
415.943	81.58
416.151	183.98
416.359	57
416.567	67.24
416.776	77.48
416.984	167.59
417.192	177.83
417.4	-45.4
417.608	28.33
417.817	-6.49
418.025	165.54
418.233	237.22
418.441	1.71
418.649	-69.97
418.857	32.43
419.065	181.93
419.273	-41.3
419.481	89.77
419.689	85.67
419.897	30.38
420.105	-72.02
420.313	54.95
420.521	138.92
420.729	134.82
420.937	-2.39
421.145	-53.59
421.353	75.43
421.561	151.21
421.769	124.58
421.977	-6.49
422.185	75.43
422.393	16.04
422.601	181.93
422.809	93.87
423.017	65.19
423.224	77.48
423.432	91.82
423.64	-12.63
423.848	155.3
424.056	13.99
424.263	100.01
424.471	18.09
424.679	177.83
424.887	32.43
425.094	81.58
425.302	108.2
425.51	-4.44
425.718	71.34
425.925	89.77
426.133	-63.83
426.341	212.65
426.548	5.8
426.756	52.91
426.964	116.39
427.171	40.62
427.379	134.82
427.586	61.1
427.794	165.54
428.001	130.73
428.209	87.72
428.417	138.92
428.624	175.78
428.832	95.91
429.039	120.49
429.247	57
429.454	157.35
429.662	235.18
429.869	173.74
430.076	57
430.284	97.96
430.491	267.94
430.699	181.93
430.906	218.79
431.114	126.63
431.321	198.31
431.528	73.39
431.736	179.88
431.943	171.69
432.15	165.54
432.358	171.69
432.565	220.84
432.772	-10.58
432.979	116.39
433.187	46.76
433.394	183.98
433.601	93.87
433.808	272.04
434.016	173.74
434.223	179.88
434.43	171.69
434.637	286.37
434.844	276.13
435.052	298.66
435.259	239.27
435.466	302.76
435.673	200.36
435.88	267.94
436.087	214.7
436.294	304.81
436.501	284.33
436.708	353.96
436.915	337.57
437.122	353.96
437.329	237.22
437.537	255.65
437.743	321.19
437.95	466.6
438.157	374.44
438.364	376.48
438.571	372.39
438.778	411.3
438.985	450.21
439.192	425.64
439.399	407.2
439.606	409.25
439.813	454.31
440.02	528.03
440.227	667.3
440.433	595.62
440.64	396.96
440.847	487.08
441.054	452.26
441.261	691.87
441.467	511.65
441.674	581.28
441.881	732.83
442.088	583.33
442.294	745.12
442.501	777.89
442.708	794.27
442.914	843.42
443.121	827.04
443.328	747.17
443.534	876.19
443.741	878.24
443.948	730.78
444.154	870.05
444.361	1074.84
444.568	888.48
444.774	1003.16
444.981	880.29
445.187	1017.5
445.394	1107.61
445.6	1070.75
445.807	1293.97
446.013	1146.52
446.22	1173.14
446.426	1300.12
446.633	1429.14
446.839	1504.92
447.046	1248.92
447.252	1527.44
447.459	1513.11
447.665	1537.68
447.871	1787.54
448.078	1844.88
448.284	1812.11
448.491	1941.13
448.697	1945.23
448.903	1945.23
449.11	2061.96
449.316	2049.68
449.522	2229.9
449.728	2293.38
449.935	2489.99
450.141	2317.96
450.347	2666.11
450.553	2539.14
450.76	2694.79
450.966	2821.76
451.172	2745.98
451.378	2930.3
451.584	2995.84
451.791	3192.44
451.997	3272.31
452.203	3288.7
452.409	3569.27
452.615	3712.63
452.821	3571.32
453.027	3593.84
453.233	4150.89
453.44	3929.71
453.646	4220.52
453.852	4406.89
454.058	4374.12
454.264	4572.77
454.47	4845.15
454.676	5076.57
454.882	5592.66
455.088	5242.46
455.294	5539.41
455.5	5674.58
455.705	6227.53
455.911	6100.56
456.117	6389.32
456.323	6497.86
456.529	6465.1
456.735	7194.17
456.941	7296.57
457.147	7745.08
457.352	7689.78
457.558	7835.19
457.764	8568.36
457.97	8803.88
458.176	9080.35
458.381	9485.85
458.587	9862.68
458.793	10188.3
458.999	10169.87
459.204	11437.56
459.41	11554.3
459.616	11499
459.821	12299.76
460.027	12912.1
460.233	13460.96
460.438	13512.16
460.644	14253.52
460.85	14542.28
461.055	14927.3
461.261	15676.86
461.466	15412.67
461.672	15603.13
461.878	17454.5
462.083	17450.4
462.289	17829.27
462.494	18460.05
462.7	18705.81
462.905	18929.03
463.111	20403.57
463.316	21517.67
463.522	21863.77
463.727	22449.49
463.932	23375.17
464.138	24114.49
464.343	24841.52
464.549	24935.73
464.754	27041.04
464.959	27776.26
465.165	28232.96
465.37	27841.79
465.575	27757.83
465.781	29740.26
465.986	30637.27
466.191	30248.16
466.397	30665.94
466.602	29904.1
466.807	31282.38
467.012	31933.64
467.218	32601.27
467.423	32511.16
467.628	33719.46
467.833	35251.34
468.038	34677.91
468.244	34256.03
468.449	35710.09
468.654	35062.93
468.859	34978.96
469.064	34882.71
469.269	34276.51
469.474	34591.9
469.679	35378.32
469.885	34426.01
470.09	35136.66
470.295	35499.15
470.5	34442.4
470.705	34677.91
470.91	33715.37
471.115	33105.07
471.32	34442.4
471.525	33916.07
471.73	32560.31
471.935	32607.42
472.139	31251.66
472.344	31513.8
472.549	31331.53
472.754	30711
472.959	30252.25
473.164	28771.57
473.369	28497.14
473.574	29512.94
473.778	28622.07
473.983	28409.08
474.188	27800.83
474.393	26318.11
474.598	26309.91
474.802	26252.57
475.007	25564.45
475.212	25335.08
475.417	24028.48
475.621	23967.04
475.826	23977.28
476.031	23190.86
476.235	22826.32
476.44	22834.51
476.645	22500.69
476.849	21882.2
477.054	21386.6
477.259	21263.72
477.463	21153.13
477.668	20249.97
477.872	20559.22
478.077	19998.07
478.282	19379.59
478.486	19586.43
478.691	18734.48
478.895	18916.75
479.1	18437.52
479.304	18347.41
479.509	17911.19
479.713	18267.54
479.918	17708.44
480.122	17419.68
480.326	17407.39
480.531	17370.53
480.735	17202.6
480.94	16956.84
481.144	17565.09
481.348	16557.49
481.553	16661.93
481.757	16197.04
481.961	16346.55
482.166	16719.28
482.37	16045.49
482.574	16076.21
482.778	15789.5
482.983	16188.85
483.187	15891.9
483.391	15691.2
483.595	15443.39
483.8	15156.68
484.004	15216.07
484.208	15316.42
484.412	14929.35
484.616	14798.28
484.821	14861.77
485.025	14263.76
485.229	14620.11
485.433	14175.7
485.637	14061.01
485.841	13753.82
486.045	13719
486.249	13651.42
486.453	13293.02
486.657	13155.81
486.861	13071.84
487.065	12553.71
487.269	12637.67
487.473	12109.3
487.677	12330.48
487.881	12408.3
488.085	11886.07
488.289	11836.92
488.493	11322.88
488.697	11382.27
488.901	11148.8
489.105	10853.89
489.309	10544.65
489.512	10534.41
489.716	10292.75
489.92	10196.5
490.124	9999.89
490.328	10063.38
490.531	9637.4
490.735	9614.87
490.939	9303.58
491.143	9276.96
491.346	8873.51
491.55	8889.89
491.754	8803.88
491.958	8728.1
492.161	8418.86
492.365	8359.47
492.569	8248.88
492.772	8064.56
492.976	8207.92
493.18	8025.65
493.383	7964.21
493.587	7757.36
493.79	7892.53
493.994	7458.36
494.197	7573.05
494.401	7464.5
494.605	7284.28
494.808	7378.49
495.012	7290.43
495.215	7165.5
495.419	7237.18
495.622	7089.73
495.825	6995.52
496.029	7106.11
496.232	7202.36
496.436	6876.74
496.639	7280.19
496.843	7169.6
497.046	7233.08
497.249	7218.75
497.453	7222.84
497.656	6975.04
497.859	7028.29
498.063	7132.73
498.266	7231.04
498.469	7108.16
498.673	7089.73
498.876	7196.22
499.079	7194.17
499.282	7151.17
499.485	7603.77
499.689	7276.09
499.892	7470.65
500.095	7347.77
500.298	7386.68
500.501	7456.31
500.705	7622.2
500.908	7896.63
501.111	7704.12
501.314	7941.68
501.517	8091.18
501.72	7990.83
501.923	8076.85
502.126	8218.16
502.329	8578.6
502.532	8336.94
502.735	8533.54
502.938	8797.73
503.141	8746.53
503.344	8939.04
503.547	8982.05
503.75	8936.99
503.953	8951.33
504.156	9346.59
504.359	9379.36
504.562	9270.81
504.765	9776.66
504.968	9629.21
505.17	10038.8
505.373	10143.25
505.576	10348.04
505.779	10610.18
505.982	10538.51
506.185	10851.85
506.387	10966.53
506.59	11066.88
506.793	11345.41
506.996	11636.22
507.198	11920.88
507.401	12107.25
507.604	12174.83
507.807	12731.88
508.009	12852.71
508.212	12985.83
508.415	13391.33
508.617	13616.6
508.82	13708.76
509.022	13831.64
509.225	14790.09
509.428	14835.14
509.63	15050.18
509.833	15214.02
510.035	16039.35
510.238	15893.94
510.44	16215.48
510.643	16887.21
510.845	17106.34
511.048	17513.89
511.25	17837.47
511.453	18122.13
511.655	18955.66
511.858	19174.79
512.06	19541.38
512.262	19733.89
512.465	20192.63
512.667	20921.71
512.87	21222.76
513.072	21638.5
513.274	22353.24
513.477	22996.3
513.679	23246.15
513.881	24069.44
514.084	24536.37
514.286	24900.91
514.488	25003.31
514.69	26332.44
514.893	26309.91
515.095	27012.37
515.297	27720.96
515.499	28017.92
515.701	28835.06
515.904	29420.78
516.106	30153.95
516.308	30627.03
516.51	31192.27
516.712	31575.24
516.914	32627.9
517.116	32926.9
517.318	33399.98
517.52	34245.79
517.722	34528.41
517.925	35650.7
518.127	36099.2
518.329	37172.34
518.531	37039.22
518.733	38263.91
518.935	38700.12
519.136	39246.93
519.338	39908.43
519.54	40238.15
519.742	41444.4
519.944	41675.82
520.146	42374.18
520.348	42910.75
520.55	43164.7
520.752	43863.05
520.954	44753.92
521.155	44796.93
521.357	45769.71
521.559	46304.23
521.761	46920.67
521.963	47029.21
522.164	47545.3
522.366	47727.57
522.568	48591.81
522.77	48636.87
522.971	49200.06
523.173	49021.89
523.375	49771.44
523.576	49738.68
523.778	49841.07
523.98	50676.65
524.181	50936.74
524.383	50961.31
524.584	51313.56
524.786	51524.5
524.988	50869.15
525.189	51919.76
525.391	51833.75
525.592	51717.01
525.794	51559.32
525.995	51454.87
526.197	51616.66
526.398	51170.21
526.6	51624.85
526.801	51188.64
527.003	51467.16
527.204	51006.37
527.406	51434.39
527.607	50850.72
527.808	50594.73
528.01	49667
528.211	49511.35
528.412	50662.31
528.614	49808.31
528.815	49732.53
529.016	49482.68
529.218	48726.98
529.419	48655.3
529.62	47700.95
529.822	47168.47
530.023	46967.77
530.224	46830.56
530.425	46347.24
530.626	45466.61
530.828	45411.32
531.029	45573.11
531.23	44495.88
531.431	43686.93
531.632	43658.26
531.833	43328.53
532.035	42533.92
532.236	42454.05
532.437	41899.05
532.638	40948.79
532.839	40924.22
533.04	40412.23
533.241	39486.54
533.442	39894.09
533.643	38773.85
533.844	38300.77
534.045	37801.07
534.246	37151.86
534.447	36758.65
534.648	36162.69
534.849	35865.74
535.05	34989.2
535.251	35099.8
535.451	34399.39
535.652	33809.57
535.853	33406.12
536.054	33060.02
536.255	32627.9
536.456	31976.64
536.657	32490.68
536.857	31364.3
537.058	30776.53
537.259	30684.37
537.46	30541.02
537.66	29875.43
537.861	29469.93
538.062	28812.53
538.263	28507.38
538.463	28048.64
538.664	27649.28
538.865	27460.87
539.065	27172.11
539.266	26764.56
539.466	26826
539.667	26072.35
539.868	26428.7
540.068	25703.71
540.269	25365.8
540.469	25001.26
540.67	25083.18
540.87	24896.81
541.071	24147.26
541.271	24137.02
541.472	23852.35
541.672	23446.85
541.873	22996.3
542.073	22529.36
542.274	22922.57
542.474	22357.33
542.675	21986.65
542.875	22087
543.075	21470.56
543.276	21290.34
543.476	21187.94
543.676	20850.03
543.877	20813.17
544.077	20569.46
544.277	20274.55
544.478	19899.77
544.678	19879.29
544.878	19455.36
545.078	19432.83
545.279	19066.25
545.479	18830.73
545.679	18959.75
545.879	18607.5
546.079	18122.13
546.28	17995.16
546.48	17888.67
546.68	17636.77
546.88	17530.27
547.08	17335.71
547.28	17085.86
547.48	16575.92
547.68	16893.35
547.88	16375.22
548.081	16217.52
548.281	15895.99
548.481	16139.7
548.681	15642.04
548.881	15386.05
549.081	15318.46
549.28	14880.2
549.48	14923.21
549.68	14626.25
549.88	14443.98
550.08	14286.29
550.28	14005.72
550.48	13854.17
550.68	13721.05
550.88	13460.96
551.08	13243.87
551.279	13217.25
551.479	12785.13
551.679	12770.79
551.879	12445.16
552.079	12551.66
552.278	12281.33
552.478	12367.34
552.678	11972.08
552.878	11967.99
553.077	11554.3
553.277	11265.53
553.477	11202.05
553.676	10860.04
553.876	10954.24
554.076	10475.02
554.275	10606.09
554.475	10374.67
554.674	10300.94
554.874	10077.71
555.074	9750.04
555.273	9590.3
555.473	9494.04
555.672	9520.67
555.872	9311.77
556.071	9328.16
556.271	9049.63
556.47	8830.5
556.67	8695.33
556.869	8425
557.068	8318.51
557.268	8089.14
557.467	8087.09
557.667	7976.5
557.866	7900.72
558.065	7732.79
558.265	7638.58
558.464	7466.55
558.663	7532.09
558.863	7265.85
559.062	7226.94
559.261	7011.9
559.461	6903.36
559.66	6766.15
559.859	6688.32
560.058	6569.54
560.258	6465.1
560.457	6321.74
560.656	6571.59
560.855	6041.17
561.054	6086.22
561.253	6078.03
561.453	5805.65
561.652	5869.14
561.851	5983.82
562.05	5604.95
562.249	5539.41
562.448	5369.43
562.647	5301.85
562.846	5555.8
563.045	5387.86
563.244	5019.23
563.443	5217.88
563.642	4927.07
563.841	4982.37
564.04	4957.79
564.239	4785.76
564.438	4812.39
564.637	4677.22
564.836	4511.33
565.035	4623.97
565.234	4339.3
565.432	4433.51
565.631	4259.43
565.83	4296.3
566.029	4271.72
566.228	4028.01
566.427	4042.35
566.625	3892.85
566.824	3978.86
567.023	3933.81
567.222	3927.66
567.42	3806.83
567.619	3669.62
567.818	3620.47
568.016	3741.3
568.215	3714.67
568.414	3614.32
568.612	3487.35
568.811	3448.44
569.01	3356.28
569.208	3274.36
569.407	3337.85
569.605	3309.18
569.804	3161.72
570.002	3184.25
570.201	3233.4
570.4	3157.63
570.598	3018.36
570.797	2973.31
570.995	2850.43
571.193	2819.71
571.392	2834.05
571.59	2760.32
571.789	2850.43
571.987	2799.23
572.186	2614.91
572.384	2739.84
572.582	2684.55
572.781	2758.27
572.979	2438.79
573.177	2451.08
573.376	2535.04
573.574	2543.24
573.772	2369.16
573.971	2203.27
574.169	2184.84
574.367	2262.66
574.565	2293.38
574.763	2178.7
574.962	2115.21
575.16	2066.06
575.358	2100.87
575.556	1992.33
575.754	1994.38
575.952	2039.44
576.151	2117.26
576.349	1984.14
576.547	1846.93
576.745	1861.26
576.943	1857.17
577.141	1875.6
577.339	1660.56
577.537	1722
577.735	1836.69
577.933	1701.52
578.131	1599.12
578.329	1785.49
578.527	1719.95
578.725	1629.84
578.923	1466
579.121	1629.84
579.319	1451.67
579.516	1412.76
579.714	1730.19
579.912	1549.97
580.11	1345.17
580.308	1402.52
580.506	1312.41
580.704	1230.49
580.901	1318.55
581.099	1517.2
581.297	1343.13
581.495	1310.36
581.692	1261.21
581.89	1394.33
582.088	1214.1
582.285	1203.86
582.483	1162.9
582.681	1138.33
582.878	1146.52
583.076	1150.62
583.274	1158.81
583.471	1230.49
583.669	1130.14
583.866	1136.28
584.064	1009.31
584.262	1058.46
584.459	1029.79
584.657	1107.61
584.854	1064.6
585.052	935.58
585.249	999.07
585.447	1003.16
585.644	818.85
585.841	939.68
586.039	978.59
586.236	1019.55
586.434	908.96
586.631	906.91
586.828	874.14
587.026	917.15
587.223	878.24
587.42	714.4
587.618	820.89
587.815	872.09
588.012	814.75
588.21	804.51
588.407	806.56
588.604	870.05
588.801	757.41
588.999	822.94
589.196	855.71
589.393	763.55
589.59	724.64
589.787	765.6
589.984	769.69
590.182	794.27
590.379	786.08
590.576	659.1
590.773	722.59
590.97	728.74
591.167	681.63
591.364	710.3
591.561	657.06
591.758	870.05
591.955	650.91
592.152	763.55
592.349	628.39
592.546	720.54
592.743	638.62
592.94	609.95
593.137	718.5
593.334	769.69
593.531	747.17
593.727	695.97
593.924	818.85
594.121	732.83
594.318	714.4
594.515	675.49
594.712	800.41
594.908	790.17
595.105	698.02
595.302	757.41
595.499	712.35
595.696	888.48
595.892	679.58
596.089	798.37
596.286	851.61
596.482	822.94
596.679	853.66
596.876	771.74
597.072	937.63
597.269	806.56
597.466	831.13
597.662	890.53
597.859	976.54
598.055	1017.5
598.252	1025.69
598.448	1013.4
598.645	1089.18
598.841	1134.23
599.038	1273.5
599.234	1228.44
599.431	1244.82
599.627	1293.97
599.824	1273.5
600.02	1275.54
600.217	1308.31
600.413	1437.33
600.609	1418.9
600.806	1769.1
601.002	1627.79
601.198	1482.39
601.395	1771.15
601.591	1795.73
601.787	1853.07
601.984	1926.8
602.18	1986.19
602.376	2061.96
602.572	2186.89
602.769	2240.14
602.965	2248.33
603.161	2283.14
603.357	2424.45
603.553	2573.96
603.75	2705.03
603.946	2655.87
604.142	2803.33
604.338	2979.45
604.534	2944.64
604.73	3040.89
604.926	3083.9
605.122	3292.79
605.318	3343.99
605.514	3477.11
605.71	3544.69
605.906	3767.92
606.102	3714.67
606.298	3935.85
606.494	3944.05
606.69	4320.87
606.886	4128.36
607.082	4234.86
607.278	4464.23
607.474	4546.15
607.67	4734.56
607.866	4675.17
608.062	5002.85
608.257	5252.7
608.453	5207.64
608.649	5555.8
608.845	5301.85
609.041	5633.62
609.236	5840.47
609.432	5963.34
609.628	6411.85
609.824	6358.6
610.019	6422.09
610.215	6751.81
610.411	6762.05
610.606	7124.54
610.802	7056.96
610.998	7202.36
611.193	7568.95
611.389	7650.87
611.584	7953.97
611.78	7978.54
611.976	8310.32
612.171	8736.29
612.367	8807.97
612.562	9055.78
612.758	9166.37
612.953	9358.88
613.149	9659.93
613.344	9948.69
613.539	10513.93
613.735	10552.84
613.93	10921.48
614.126	10878.47
614.321	11431.42
614.517	11603.45
614.712	11978.23
614.907	12334.57
615.103	12600.81
615.298	12860.9
615.493	13223.39
615.688	13395.42
615.884	14036.44
616.079	14142.93
616.274	14689.74
616.47	15001.03
616.665	15592.89
616.86	15564.22
617.055	16055.73
617.25	16362.93
617.445	17026.47
617.641	17178.02
617.836	17683.87
618.031	17921.43
618.226	18605.45
618.421	18906.51
618.616	19656.06
618.811	19754.37
619.006	20510.07
619.201	20837.74
619.396	21398.88
619.591	21040.49
619.786	22148.44
619.981	22218.07
620.176	23164.23
620.371	23373.13
620.566	23885.12
620.761	24368.44
620.956	25201.96
621.151	25431.33
621.346	25818.4
621.541	26217.75
621.735	27223.31
621.93	27307.27
622.125	28065.02
622.32	27995.39
622.515	28943.6
622.709	29482.22
622.904	29908.19
623.099	30250.21
623.294	30856.4
623.488	30905.56
623.683	31941.83
623.878	31941.83
624.072	32881.84
624.267	33086.64
624.462	34305.18
624.656	33895.59
624.851	35042.45
625.046	35378.32
625.24	35880.07
625.435	36226.18
625.629	37016.69
625.824	37088.37
626.018	37745.77
626.213	37692.52
626.407	38777.95
626.602	38659.16
626.796	39459.92
626.991	39844.94
627.185	40158.28
627.38	40217.67
627.574	40899.64
627.768	40432.71
627.963	40899.64
628.157	41147.45
628.352	41530.42
628.546	40803.39
628.74	41575.47
628.935	41239.61
629.129	40938.55
629.323	40717.37
629.517	40799.29
629.712	40420.42
629.906	40019.02
630.1	39507.02
630.294	39740.49
630.489	38816.86
630.683	39060.57
630.877	38098.02
631.071	37016.69
631.265	37065.85
631.459	36152.45
631.653	35024.02
631.848	34503.84
632.042	33965.22
632.236	32998.58
632.43	32093.38
632.624	31470.79
632.818	30319.84
633.012	29185.26
633.206	28458.23
633.4	27337.99
633.594	26514.71
633.788	26060.06
633.982	25341.22
634.176	24139.07
634.369	22994.25
634.563	22048.09
634.757	21456.23
634.951	21122.41
635.145	19973.5
635.339	19217.8
635.533	18374.03
635.726	17909.15
635.92	16516.53
636.114	16301.49
636.308	15467.97
636.501	14798.28
636.695	14163.41
636.889	13766.1
637.083	13055.46
637.276	12637.67
637.47	12019.19
637.664	11501.05
637.857	11154.94
638.051	10540.55
638.244	10386.96
638.438	9762.33
638.632	9416.22
638.825	8883.75
639.019	8857.12
639.212	8252.97
639.406	8291.88
639.599	7697.97
639.793	7519.8
639.986	7091.77
640.18	6891.07
640.373	6565.45
640.567	6241.87
640.76	6237.77
640.954	5967.44
641.147	5484.12
641.34	5381.72
641.534	5189.21
641.727	5127.77
641.92	4904.54
642.114	4769.38
642.307	4484.71
642.5	4304.49
642.694	3913.33
642.887	3892.85
643.08	4003.44
643.273	3823.22
643.467	3579.51
643.66	3407.48
643.853	3253.88
644.046	3069.56
644.239	2983.55
644.432	2850.43
644.626	2940.54
644.819	2657.92
645.012	2557.57
645.205	2543.24
645.398	2522.76
645.591	2320.01
645.784	2211.46
645.977	2104.97
646.17	2039.44
646.363	1982.09
646.556	1883.79
646.749	1797.78
646.942	1836.69
647.135	1853.07
647.328	1511.06
647.521	1633.94
647.714	1470.1
647.907	1439.38
648.099	1347.22
648.292	1423
648.485	1343.13
648.678	1210.01
648.871	1130.14
649.064	1193.62
649.256	1046.17
649.449	1062.55
649.642	988.83
649.835	921.24
650.027	980.64
650.22	1050.27
650.413	851.61
650.605	929.44
650.798	818.85
650.991	841.37
651.183	833.18
651.376	845.47
651.568	790.17
651.761	689.82
651.954	689.82
652.146	646.82
652.339	827.04
652.531	712.35
652.724	571.04
652.916	564.9
653.109	460.45
653.301	607.91
653.494	620.19
653.686	550.56
653.879	495.27
654.071	632.48
654.263	487.08
654.456	472.74
654.648	491.17
654.84	534.18
655.033	450.21
655.225	495.27
655.417	333.48
655.61	523.94
655.802	433.83
655.994	390.82
656.186	347.81
656.379	468.64
656.571	337.57
656.763	337.57
656.955	349.86
657.148	378.53
657.34	472.74
657.532	290.47
657.724	315.05
657.916	358.05
658.108	366.25
658.3	384.68
658.492	396.96
658.684	243.37
658.876	380.58
659.068	282.28
659.26	163.5
659.452	206.5
659.644	286.37
659.836	478.88
660.028	237.22
660.22	247.46
660.412	321.19
660.604	290.47
660.796	298.66
660.988	323.24
661.18	245.41
661.372	304.81
661.563	259.75
661.755	198.31
661.947	138.92
662.139	196.26
662.331	243.37
662.522	188.07
662.714	163.5
662.906	159.4
663.097	190.12
663.289	165.54
663.481	116.39
663.673	306.85
663.864	161.45
664.056	247.46
664.247	87.72
664.439	298.66
664.631	153.26
664.822	255.65
665.014	138.92
665.205	159.4
665.397	212.65
665.588	200.36
665.78	179.88
665.971	310.95
666.163	155.3
666.354	282.28
666.546	132.78
666.737	149.16
666.929	196.26
667.12	132.78
667.311	222.89
667.503	167.59
667.694	208.55
667.885	200.36
668.077	155.3
668.268	112.3
668.459	75.43
668.651	181.93
668.842	159.4
669.033	95.91
669.224	134.82
669.416	313
669.607	128.68
669.798	93.87
669.989	269.99
670.18	147.11
670.371	212.65
670.563	38.57
670.754	245.41
670.945	222.89
671.136	292.52
671.327	138.92
671.518	292.52
671.709	315.05
671.9	239.27
672.091	294.57
672.282	186.02
672.473	243.37
672.664	167.59
672.855	145.06
673.046	204.46
673.237	290.47
673.428	206.5
673.619	259.75
673.809	177.83
674	239.27
674.191	274.09
674.382	216.74
674.573	163.5
674.764	208.55
674.954	259.75
675.145	212.65
675.336	151.21
675.527	157.35
675.717	122.54
675.908	233.13
676.099	134.82
676.289	183.98
676.48	157.35
676.671	188.07
676.861	159.4
677.052	290.47
677.243	190.12
677.433	161.45
677.624	196.26
677.814	210.6
678.005	249.51
678.195	315.05
678.386	183.98
678.576	249.51
678.767	226.98
678.957	204.46
679.148	313
679.338	306.85
679.529	269.99
679.719	278.18
679.909	390.82
680.1	280.23
680.29	317.09
680.481	122.54
680.671	286.37
680.861	235.18
681.052	384.68
681.242	147.11
681.432	325.29
681.622	323.24
681.813	259.75
682.003	292.52
682.193	261.8
682.383	226.98
682.573	245.41
682.764	315.05
682.954	351.91
683.144	341.67
683.334	282.28
683.524	304.81
683.714	413.35
683.904	368.29
684.094	325.29
684.284	317.09
684.474	505.51
684.664	364.2
684.854	269.99
685.044	356.01
685.234	341.67
685.424	358.05
685.614	372.39
685.804	462.5
685.994	376.48
686.184	302.76
686.374	325.29
686.564	323.24
686.753	216.74
686.943	313
687.133	278.18
687.323	353.96
687.513	315.05
687.702	343.72
687.892	308.9
688.082	306.85
688.272	450.21
688.461	245.41
688.651	519.84
688.841	372.39
689.03	306.85
689.22	353.96
689.41	292.52
689.599	300.71
689.789	257.7
689.979	388.77
690.168	274.09
690.358	390.82
690.547	229.03
690.737	272.04
690.926	265.89
691.116	280.23
691.305	276.13
691.495	364.2
691.684	226.98
691.874	294.57
692.063	351.91
692.252	335.53
692.442	364.2
692.631	204.46
692.82	245.41
693.01	329.38
693.199	259.75
693.388	321.19
693.578	372.39
693.767	329.38
693.956	353.96
694.146	224.94
694.335	267.94
694.524	265.89
694.713	292.52
694.902	245.41
695.092	171.69
695.281	327.33
695.47	341.67
695.659	249.51
695.848	302.76
696.037	290.47
696.226	337.57
696.415	202.41
696.604	310.95
696.793	290.47
696.982	241.32
697.171	327.33
697.36	265.89
697.549	251.56
697.738	145.06
697.927	177.83
698.116	198.31
698.305	286.37
698.494	272.04
698.683	288.42
698.872	374.44
699.061	265.89
699.25	220.84
699.438	231.08
699.627	192.17
699.816	394.92
700.005	163.5
700.193	241.32
700.382	329.38
700.571	308.9
700.76	214.7
700.948	310.95
701.137	356.01
701.326	313
701.514	196.26
701.703	308.9
701.892	255.65
702.08	378.53
702.269	237.22
702.457	241.32
702.646	292.52
702.834	269.99
703.023	265.89
703.212	331.43
703.4	300.71
703.589	237.22
703.777	245.41
703.965	261.8
704.154	298.66
704.342	233.13
704.531	231.08
704.719	261.8
704.907	315.05
705.096	183.98
705.284	257.7
705.472	313
705.661	194.22
705.849	347.81
706.037	358.05
706.226	247.46
706.414	280.23
706.602	145.06
706.79	341.67
706.979	169.64
707.167	276.13
707.355	155.3
707.543	321.19
707.731	278.18
707.919	257.7
708.107	239.27
708.296	165.54
708.484	216.74
708.672	364.2
708.86	327.33
709.048	255.65
709.236	235.18
709.424	220.84
709.612	259.75
709.8	89.77
709.988	298.66
710.176	335.53
710.364	331.43
710.551	259.75
710.739	255.65
710.927	261.8
711.115	233.13
711.303	347.81
711.491	247.46
711.679	237.22
711.866	329.38
712.054	286.37
712.242	259.75
712.43	339.62
712.617	261.8
712.805	345.77
712.993	261.8
713.181	110.25
713.368	308.9
713.556	253.61
713.744	222.89
713.931	403.11
714.119	296.61
714.306	214.7
714.494	282.28
714.682	183.98
714.869	175.78
715.057	226.98
715.244	161.45
715.432	302.76
715.619	194.22
715.807	229.03
715.994	218.79
716.182	241.32
716.369	347.81
716.556	329.38
716.744	188.07
716.931	165.54
717.119	296.61
717.306	286.37
717.493	335.53
717.681	208.55
717.868	218.79
718.055	255.65
718.242	132.78
718.43	280.23
718.617	302.76
718.804	257.7
718.991	370.34
719.179	341.67
719.366	276.13
719.553	298.66
719.74	253.61
719.927	276.13
720.114	300.71
720.301	196.26
720.488	278.18
720.676	206.5
720.863	349.86
721.05	448.16
721.237	339.62
721.424	343.72
721.611	276.13
721.798	138.92
721.985	224.94
722.172	284.33
722.358	292.52
722.545	368.29
722.732	294.57
722.919	341.67
723.106	300.71
723.293	226.98
723.48	210.6
723.667	272.04
723.853	319.14
724.04	401.06
724.227	376.48
724.414	294.57
724.6	351.91
724.787	474.79
724.974	423.59
725.161	347.81
725.347	278.18
725.534	337.57
725.72	333.48
725.907	392.87
726.094	339.62
726.28	294.57
726.467	253.61
726.653	253.61
726.84	403.11
727.027	429.73
727.213	190.12
727.4	345.77
727.586	372.39
727.773	290.47
727.959	290.47
728.145	243.37
728.332	282.28
728.518	294.57
728.705	335.53
728.891	251.56
729.077	321.19
729.264	163.5
729.45	300.71
729.636	356.01
729.823	317.09
730.009	315.05
730.195	308.9
730.382	405.16
730.568	292.52
730.754	282.28
730.94	308.9
731.126	341.67
731.313	386.72
731.499	292.52
731.685	337.57
731.871	353.96
732.057	347.81
732.243	380.58
732.429	462.5
732.615	392.87
732.801	298.66
732.987	345.77
733.173	347.81
733.359	319.14
733.545	429.73
733.731	306.85
733.917	482.98
734.103	417.44
734.289	356.01
734.475	229.03
734.661	507.55
734.847	366.25
735.033	401.06
735.219	401.06
735.404	341.67
735.59	315.05
735.776	259.75
735.962	337.57
736.148	358.05
736.333	403.11
736.519	392.87
736.705	345.77
736.89	325.29
737.076	394.92
737.262	249.51
737.447	306.85
737.633	202.41
737.819	442.02
738.004	331.43
738.19	278.18
738.375	394.92
738.561	405.16
738.747	370.34
738.932	267.94
739.118	356.01
739.303	405.16
739.489	290.47
739.674	374.44
739.859	272.04
740.045	421.54
740.23	313
740.416	239.27
740.601	360.1
740.786	276.13
740.972	280.23
741.157	317.09
741.342	169.64
741.528	313
741.713	425.64
741.898	374.44
742.084	411.3
742.269	329.38
742.454	415.4
742.639	376.48
742.824	272.04
743.01	339.62
743.195	474.79
743.38	310.95
743.565	263.85
743.75	315.05
743.935	315.05
744.12	454.31
744.305	186.02
744.49	249.51
744.675	226.98
744.86	251.56
745.045	388.77
745.23	247.46
745.415	261.8
745.6	360.1
745.785	206.5
745.97	380.58
746.155	353.96
746.34	349.86
746.525	331.43
746.71	380.58
746.895	200.36
747.079	186.02
747.264	302.76
747.449	401.06
747.634	313
747.819	345.77
748.003	261.8
748.188	233.13
748.373	341.67
748.557	356.01
748.742	269.99
748.927	321.19
749.111	241.32
749.296	294.57
749.481	290.47
749.665	280.23
749.85	276.13
750.034	274.09
750.219	288.42
750.404	220.84
750.588	329.38
750.773	231.08
750.957	216.74
751.141	304.81
751.326	257.7
751.51	210.6
751.695	183.98
751.879	218.79
752.064	456.36
752.248	222.89
752.432	286.37
752.617	325.29
752.801	272.04
752.985	106.15
753.17	333.48
753.354	286.37
753.538	300.71
753.722	231.08
753.907	192.17
754.091	124.58
754.275	272.04
754.459	46.76
754.643	132.78
754.828	276.13
755.012	239.27
755.196	165.54
755.38	186.02
755.564	132.78
755.748	288.42
755.932	198.31
756.116	214.7
756.3	233.13
756.484	151.21
756.668	267.94
756.852	89.77
757.036	216.74
757.22	186.02
757.404	126.63
757.588	112.3
757.772	249.51
757.956	206.5
758.14	323.24
758.323	124.58
758.507	308.9
758.691	179.88
758.875	229.03
759.059	358.05
759.242	106.15
759.426	233.13
759.61	214.7
759.794	147.11
759.977	208.55
760.161	360.1
760.345	269.99
760.528	151.21
760.712	149.16
760.895	206.5
761.079	175.78
761.263	89.77
761.446	112.3
761.63	100.01
761.813	237.22
761.997	73.39
762.18	169.64
762.364	206.5
762.547	77.48
762.731	186.02
762.914	151.21
763.098	69.29
763.281	167.59
763.464	130.73
763.648	169.64
763.831	163.5
764.015	65.19
764.198	220.84
764.381	155.3
764.564	63.15
764.748	183.98
764.931	118.44
765.114	134.82
765.297	153.26
765.481	13.99
765.664	149.16
765.847	91.82
766.03	175.78
766.213	9.9
766.397	106.15
766.58	112.3
766.763	222.89
766.946	48.81
767.129	132.78
767.312	36.52
767.495	71.34
767.678	50.86
767.861	108.2
768.044	132.78
768.227	65.19
768.41	46.76
768.593	110.25
768.776	116.39
768.959	126.63
769.142	114.34
769.324	136.87
769.507	52.91
769.69	75.43
769.873	85.67
770.056	284.33
770.239	67.24
770.421	249.51
770.604	159.4
770.787	112.3
770.97	134.82
771.152	40.62
771.335	138.92
771.518	116.39
771.7	147.11
771.883	149.16
772.066	44.71
772.248	159.4
772.431	216.74
772.613	128.68
772.796	77.48
772.978	132.78
773.161	155.3
773.343	18.09
773.526	40.62
773.708	42.67
773.891	-2.39
774.073	28.33
774.256	114.34
774.438	206.5
774.621	36.52
774.803	138.92
774.985	75.43
775.168	128.68
775.35	61.1
775.532	57
775.715	-10.58
775.897	-4.44
776.079	95.91
776.261	116.39
776.444	93.87
776.626	-2.39
776.808	87.72
776.99	36.52
777.173	104.11
777.355	122.54
777.537	-22.87
777.719	71.34
777.901	5.8
778.083	65.19
778.265	-65.88
778.447	102.06
778.629	-65.88
778.811	97.96
778.993	95.91
779.175	216.74
779.357	83.63
779.539	40.62
779.721	71.34
779.903	134.82
780.085	67.24
780.267	100.01
780.449	46.76
780.631	75.43
780.812	134.82
780.994	57
781.176	54.95
781.358	73.39
781.54	102.06
781.721	95.91
781.903	167.59
782.085	-18.77
782.267	118.44
782.448	-20.82
782.63	52.91
782.812	100.01
782.993	69.29
783.175	73.39
783.357	-4.44
783.538	110.25
783.72	-18.77
783.901	16.04
784.083	128.68
784.264	44.71
784.446	-31.06
784.627	-35.16
784.809	34.47
784.99	79.53
785.172	106.15
785.353	46.76
785.535	126.63
785.716	9.9
785.897	38.57
786.079	3.75
786.26	46.76
786.441	93.87
786.623	-49.49
786.804	85.67
786.985	77.48
787.167	32.43
787.348	-55.64
787.529	44.71
787.71	106.15
787.891	85.67
788.073	44.71
788.254	-2.39
788.435	186.02
788.616	122.54
788.797	-41.3
788.978	-29.01
789.159	22.19
789.34	65.19
789.522	20.14
789.703	67.24
789.884	40.62
790.065	34.47
790.246	161.45
790.427	20.14
790.607	186.02
790.788	106.15
790.969	3.75
791.15	100.01
791.331	65.19
791.512	-10.58
791.693	-43.35
791.874	-96.6
792.054	208.55
792.235	108.2
792.416	30.38
792.597	-8.53
792.778	151.21
792.958	120.49
793.139	65.19
793.32	7.85
793.5	-39.25
793.681	110.25
793.862	97.96
794.042	36.52
794.223	-10.58
794.404	13.99
794.584	-129.36
794.765	7.85
794.945	11.95
795.126	89.77
795.306	110.25
795.487	46.76
795.667	-22.87
795.848	95.91
796.028	9.9
796.209	44.71
796.389	91.82
796.57	77.48
796.75	-65.88
796.93	63.15
797.111	5.8
797.291	26.28
797.471	52.91
797.652	22.19
797.832	-2.39
798.012	124.58
798.192	26.28
798.373	-45.4
798.553	-24.92
798.733	118.44
798.913	-6.49
799.093	-45.4
799.274	16.04
799.454	114.34
799.634	26.28
799.814	157.35
799.994	108.2
800.174	65.19
800.354	93.87
800.534	-49.49
800.714	52.91
800.894	-24.92
801.074	-67.92
801.254	52.91
801.434	69.29
801.614	-72.02
801.794	-76.12
801.974	1748.62
802.154	20.14
802.334	102.06
802.514	-41.3
802.693	-12.63
802.873	-49.49
803.053	161.45
803.233	130.73
803.413	-49.49
803.592	-2.39
803.772	-24.92
803.952	3.75
804.131	-33.11
804.311	46.76
804.491	83.63
804.67	-31.06
804.85	-57.68
805.03	73.39
805.209	104.11
805.389	7.85
805.568	-18.77
805.748	9.9
805.928	85.67
806.107	3.75
806.287	102.06
806.466	97.96
806.646	-53.59
806.825	-29.01
807.004	-69.97
807.184	91.82
807.363	114.34
807.543	16.04
807.722	-20.82
807.901	81.58
808.081	57
808.26	-119.12
808.439	77.48
808.619	-69.97
808.798	-84.31
808.977	9.9
809.156	106.15
809.336	73.39
809.515	89.77
809.694	-82.26
809.873	7.85
810.052	112.3
810.231	79.53
810.411	40.62
810.59	126.63
810.769	5.8
810.948	-35.16
811.127	-135.51
811.306	-4.44
811.485	34.47
811.664	73.39
811.843	54.95
812.022	-22.87
812.201	-22.87
812.38	7.85
812.559	-35.16
812.737	-6.49
812.916	-127.32
813.095	-4.44
813.274	48.81
813.453	57
813.632	106.15
813.811	57
813.989	-31.06
814.168	16.04
814.347	-49.49
814.526	-26.96
814.704	145.06
814.883	183.98
815.062	-20.82
815.24	102.06
815.419	-43.35
815.598	20.14
815.776	-125.27
815.955	-18.77
816.133	-110.93
816.312	-125.27
816.49	-18.77
816.669	63.15
816.847	-78.16
817.026	75.43
817.204	7.85
817.383	24.23
817.561	-6.49
817.74	116.39
817.918	-4.44
818.097	-6.49
818.275	-41.3
818.453	71.34
818.632	104.11
818.81	26.28
818.988	24.23
819.167	3.75
819.345	-6.49
819.523	-53.59
819.701	22.19
819.879	81.58
820.058	65.19
820.236	30.38
820.414	13.99
820.592	40.62
820.77	5.8
820.948	-39.25
821.127	-65.88
821.305	-31.06
821.483	-6.49
821.661	73.39
821.839	-0.34
822.017	-53.59
822.195	9.9
822.373	28.33
822.551	-61.78
822.729	128.68
822.907	-20.82
823.085	26.28
823.262	-65.88
823.44	-0.34
823.618	-2.39
823.796	13.99
823.974	-63.83
824.152	48.81
824.329	-18.77
824.507	-6.49
824.685	11.95
824.863	-33.11
825.04	44.71
825.218	-14.68
825.396	-18.77
825.574	5.8
825.751	1.71
825.929	38.57
826.107	-49.49
826.284	32.43
826.462	36.52
826.639	-112.98
826.817	-117.08
826.994	38.57
827.172	-16.73
827.349	136.87
827.527	34.47
827.704	-12.63
827.882	-26.96
828.059	-14.68
828.237	-12.63
828.414	65.19
828.591	-117.08
828.769	36.52
828.946	16.04
829.124	26.28
829.301	57
829.478	69.29
829.655	22.19
829.833	-2.39
830.01	-110.93
830.187	114.34
830.364	13.99
830.542	7.85
830.719	85.67
830.896	91.82
831.073	48.81
831.25	34.47
831.427	100.01
831.604	22.19
831.782	-20.82
831.959	36.52
832.136	-31.06
832.313	5.8
832.49	3.75
832.667	-43.35
832.844	-82.26
833.021	110.25
833.198	-4.44
833.374	59.05
833.551	7.85
833.728	-106.84
833.905	57
834.082	-61.78
834.259	57
834.436	106.15
834.612	-41.3
834.789	69.29
834.966	-61.78
835.143	61.1
835.319	-80.21
835.496	79.53
835.673	79.53
835.85	13.99
836.026	26.28
836.203	95.91
836.38	-82.26
836.556	22.19
836.733	13.99
836.909	134.82
837.086	-16.73
837.262	-82.26
837.439	18.09
837.616	-10.58
837.792	-47.44
837.968	40.62
838.145	-59.73
838.321	-20.82
838.498	3.75
838.674	22.19
838.851	-12.63
839.027	-16.73
839.203	-12.63
839.38	73.39
839.556	-2.39
839.732	59.05
839.909	13.99
840.085	5.8
840.261	-33.11
840.437	38.57
840.614	-53.59
840.79	44.71
840.966	106.15
841.142	34.47
841.318	-49.49
841.494	67.24
841.671	79.53
841.847	-86.36
842.023	-174.42
842.199	-39.25
842.375	65.19
842.551	-69.97
842.727	-4.44
842.903	140.97
843.079	-72.02
843.255	63.15
843.431	-6.49
843.607	48.81
843.783	-110.93
843.959	-14.68
844.134	-4.44
844.31	83.63
844.486	-10.58
844.662	-61.78
844.838	-18.77
845.013	3.75
845.189	128.68
845.365	-65.88
845.541	22.19
845.716	-20.82
845.892	100.01
846.068	9.9
846.244	-41.3
846.419	-22.87
846.595	-151.89
846.77	-49.49
846.946	91.82
847.122	-65.88
847.297	-90.45
847.473	138.92
847.648	-69.97
847.824	-59.73
847.999	-82.26
848.175	-39.25
848.35	-35.16
848.526	79.53
848.701	-45.4
848.876	36.52
849.052	57
849.227	50.86
849.403	-37.2
849.578	-94.55
849.753	-45.4
849.929	44.71
850.104	-94.55
850.279	-0.34
850.454	32.43
850.63	-26.96
850.805	-37.2
850.98	-55.64
851.155	13.99
851.33	24.23
851.505	-80.21
851.681	67.24
851.856	-49.49
852.031	1.71
852.206	102.06
852.381	-49.49
852.556	-45.4
852.731	59.05
852.906	104.11
853.081	-29.01
853.256	73.39
853.431	-6.49
853.606	-59.73
853.781	-43.35
853.956	-178.51
854.131	-14.68
854.305	-26.96
854.48	-41.3
854.655	-20.82
854.83	-67.92
855.005	-37.2
855.18	-35.16
855.354	3.75
855.529	34.47
855.704	-74.07
855.879	65.19
856.053	-67.92
856.228	26.28
856.403	-29.01
856.577	42.67
856.752	-149.84
856.926	-43.35
857.101	-29.01
857.276	-14.68
857.45	-49.49
857.625	36.52
857.799	-31.06
857.974	5.8
858.148	-98.64
858.323	-61.78
858.497	-16.73
858.672	-47.44
858.846	-51.54
859.02	-20.82
859.195	-61.78
859.369	-49.49
859.543	9.9
859.718	-18.77
859.892	11.95
860.066	-16.73
860.241	-10.58
860.415	-47.44
860.589	-31.06
860.763	-57.68
860.938	95.91
861.112	20.14
861.286	16.04
861.46	3.75
861.634	-39.25
861.808	59.05
861.982	-0.34
862.157	-90.45
862.331	-74.07
862.505	-67.92
862.679	-82.26
862.853	-69.97
863.027	-69.97
863.201	140.97
863.375	-61.78
863.549	89.77
863.722	-47.44
863.896	16.04
864.07	36.52
864.244	42.67
864.418	71.34
864.592	-63.83
864.766	-4.44
864.939	-47.44
865.113	-20.82
865.287	118.44
865.461	20.14
865.634	-18.77
865.808	7.85
865.982	9.9
866.156	-108.88
866.329	-72.02
866.503	1.71
866.676	81.58
866.85	-67.92
867.024	-67.92
867.197	18.09
867.371	7.85
867.544	-20.82
867.718	-145.75
867.891	104.11
868.065	-90.45
868.238	-18.77
868.412	-37.2
868.585	-57.68
868.759	-16.73
868.932	-31.06
869.105	-67.92
869.279	-33.11
869.452	-98.64
869.625	40.62
869.799	-4.44
869.972	-86.36
870.145	-55.64
870.319	57
870.492	-37.2
870.665	52.91
870.838	-35.16
871.011	-96.6
871.185	-6.49
871.358	-16.73
871.531	26.28
871.704	-69.97
871.877	93.87
872.05	26.28
872.223	-74.07
872.396	34.47
872.569	67.24
872.742	-35.16
872.915	24.23
873.088	-49.49
873.261	-147.8
873.434	122.54
873.607	83.63
873.78	97.96
873.953	-98.64
874.126	102.06
874.299	-2.39
874.471	-35.16
874.644	-0.34
874.817	5.8
874.99	132.78
875.163	-43.35
875.335	28.33
875.508	-84.31
875.681	50.86
875.853	-80.21
876.026	-45.4
876.199	30.38
876.371	38.57
876.544	-22.87
876.717	-67.92
876.889	-12.63
877.062	28.33
877.234	-104.79
877.407	-16.73
877.579	44.71
877.752	73.39
877.924	52.91
878.097	1.71
878.269	-57.68
878.442	18.09
878.614	114.34
878.786	63.15
878.959	-22.87
879.131	85.67
879.303	-123.22
879.476	-14.68
879.648	28.33
879.82	-18.77
879.993	22.19
880.165	-61.78
880.337	-74.07
880.509	42.67
880.681	-12.63
880.854	-53.59
881.026	22.19
881.198	145.06
881.37	-47.44
881.542	18.09
881.714	-31.06
881.886	-31.06
882.058	73.39
882.23	-43.35
882.402	18.09
882.574	-29.01
882.746	118.44
882.918	104.11
883.09	-12.63
883.262	-12.63
883.434	-35.16
883.606	-117.08
883.778	-20.82
883.95	52.91
884.122	-82.26
884.293	77.48
884.465	-72.02
884.637	122.54
884.809	-26.96
884.98	3.75
885.152	5.8
885.324	32.43
885.496	-135.51
885.667	-76.12
885.839	-10.58
886.011	91.82
886.182	24.23
886.354	130.73
886.525	26.28
886.697	59.05
886.869	-24.92
887.04	-4.44
887.212	134.82
887.383	120.49
887.555	-16.73
887.726	-0.34
887.897	-16.73
888.069	112.3
888.24	7.85
888.412	-26.96
888.583	-47.44
888.754	-8.53
888.926	-125.27
889.097	-45.4
889.268	-33.11
889.44	44.71
889.611	-133.46
889.782	-90.45
889.953	-78.16
890.125	95.91
890.296	-29.01
890.467	-24.92
890.638	7.85
890.809	-4.44
890.98	-49.49
891.151	-2.39
891.323	128.68
891.494	32.43
891.665	3.75
891.836	40.62
892.007	-55.64
892.178	7.85
892.349	-12.63
892.52	-26.96
892.691	28.33
892.862	1.71
893.032	-131.41
893.203	-20.82
893.374	-8.53
893.545	30.38
893.716	-39.25
893.887	3.75
894.057	-57.68
894.228	34.47
894.399	24.23
894.57	69.29
894.74	30.38
894.911	26.28
895.082	-20.82
895.253	-45.4
895.423	26.28
895.594	38.57
895.764	54.95
895.935	-20.82
896.106	32.43
896.276	-41.3
896.447	-43.35
896.617	-80.21
896.788	-0.34
896.958	-12.63
897.129	-86.36
897.299	-90.45
897.47	36.52
897.64	132.78
897.81	-86.36
897.981	-45.4
898.151	-20.82
898.322	1.71
898.492	-78.16
898.662	-123.22
898.832	-10.58
899.003	-69.97
899.173	42.67
899.343	-61.78
899.513	-51.54
