Data from USB4F104151__173__11-04-58-335.txt Node

Date: Wed Feb 26 11:04:58 EST 2025
User: louis
Spectrometer: USB4F10415
Trigger mode: 4
Integration Time (sec): 1.000000E-1
Scans to average: 1
Electric dark correction enabled: true
Nonlinearity correction enabled: false
Boxcar width: 0
XAxis mode: Wavelengths
Number of Pixels in Spectrum: 3648
>>>>>Begin Spectral Data<<<<<
178.204	-469.16
178.424	-469.16
178.644	-469.16
178.864	-407.72
179.084	-415.91
179.304	91.99
179.524	-26.79
179.744	61.27
179.964	-26.79
180.184	55.12
180.404	30.55
180.624	-88.23
180.844	-61.61
181.064	-57.51
181.283	71.51
181.503	-45.23
181.723	-4.27
181.943	-51.37
182.163	223.06
182.383	-59.56
182.602	130.9
182.822	124.76
183.042	124.76
183.262	-24.75
183.482	3.93
183.701	34.64
183.921	61.27
184.141	-4.27
184.361	59.22
184.58	128.85
184.8	110.42
185.02	-73.9
185.239	126.8
185.459	102.23
185.679	42.84
185.898	-43.18
186.118	87.89
186.338	94.04
186.557	143.19
186.777	-55.47
186.997	22.36
187.216	-34.99
187.436	190.29
187.655	89.94
187.875	48.98
188.095	-10.41
188.314	157.52
188.534	137.04
188.753	-39.08
188.973	55.12
189.192	161.62
189.412	28.5
189.631	34.64
189.851	18.26
190.07	159.57
190.29	-37.03
190.509	-34.99
190.729	-8.36
190.948	114.52
191.168	249.68
191.387	34.64
191.607	96.08
191.826	108.37
192.045	30.55
192.265	-43.18
192.484	98.13
192.704	3.93
192.923	16.21
193.142	165.71
193.362	48.98
193.581	128.85
193.8	91.99
194.02	40.79
194.239	126.8
194.458	149.33
194.678	22.36
194.897	16.21
195.116	157.52
195.335	5.97
195.555	81.75
195.774	38.74
195.993	79.7
196.212	-28.84
196.432	55.12
196.651	-12.46
196.87	59.22
197.089	171.86
197.308	108.37
197.528	67.41
197.747	-45.23
197.966	-12.46
198.185	182.1
198.404	-82.09
198.623	130.9
198.842	153.43
199.062	190.29
199.281	59.22
199.5	53.08
199.719	77.65
199.938	132.95
200.157	-0.17
200.376	77.65
200.595	135
200.814	69.46
201.033	-16.55
201.252	137.04
201.471	57.17
201.69	63.32
201.909	-10.41
202.128	16.21
202.347	32.6
202.566	20.31
202.785	-53.42
203.004	-6.31
203.223	257.87
203.442	-8.36
203.661	-47.27
203.879	87.89
204.098	126.8
204.317	-80.04
204.536	135
204.755	122.71
204.974	102.23
205.193	32.6
205.411	91.99
205.63	104.28
205.849	100.18
206.068	-2.22
206.287	1.88
206.505	178
206.724	18.26
206.943	40.79
207.162	-14.51
207.381	10.07
207.599	59.22
207.818	-24.75
208.037	-2.22
208.255	40.79
208.474	36.69
208.693	71.51
208.911	98.13
209.13	24.4
209.349	51.03
209.567	89.94
209.786	110.42
210.005	157.52
210.223	116.56
210.442	-94.38
210.661	10.07
210.879	55.12
211.098	44.88
211.316	26.45
211.535	44.88
211.753	63.32
211.972	-20.65
212.191	8.02
212.409	46.93
212.628	151.38
212.846	-69.8
213.065	-24.75
213.283	122.71
213.502	26.45
213.72	48.98
213.938	57.17
214.157	-12.46
214.375	51.03
214.594	55.12
214.812	100.18
215.031	8.02
215.249	106.32
215.467	89.94
215.686	-16.55
215.904	83.8
216.122	30.55
216.341	153.43
216.559	104.28
216.778	75.6
216.996	149.33
217.214	-14.51
217.432	-2.22
217.651	-37.03
217.869	18.26
218.087	16.21
218.306	-34.99
218.524	36.69
218.742	28.5
218.96	126.8
219.179	-4.27
219.397	-8.36
219.615	229.2
219.833	153.43
220.051	-67.75
220.27	67.41
220.488	100.18
220.706	46.93
220.924	-88.23
221.142	14.17
221.36	102.23
221.578	87.89
221.796	38.74
222.015	-16.55
222.233	71.51
222.451	130.9
222.669	-71.85
222.887	89.94
223.105	40.79
223.323	44.88
223.541	40.79
223.759	98.13
223.977	-0.17
224.195	196.43
224.413	28.5
224.631	14.17
224.849	51.03
225.067	249.68
225.285	5.97
225.503	12.12
225.721	-157.86
225.939	-4.27
226.157	-59.56
226.375	231.25
226.592	-6.31
226.81	28.5
227.028	30.55
227.246	69.46
227.464	106.32
227.682	169.81
227.9	165.71
228.117	34.64
228.335	135
228.553	36.69
228.771	51.03
228.989	94.04
229.206	141.14
229.424	46.93
229.642	16.21
229.86	-90.28
230.077	190.29
230.295	83.8
230.513	128.85
230.731	63.32
230.948	163.67
231.166	128.85
231.384	48.98
231.601	16.21
231.819	139.09
232.037	8.02
232.254	-0.17
232.472	89.94
232.689	-47.27
232.907	143.19
233.125	26.45
233.342	-47.27
233.56	126.8
233.777	20.31
233.995	46.93
234.213	22.36
234.43	124.76
234.648	-4.27
234.865	22.36
235.083	83.8
235.3	94.04
235.518	137.04
235.735	180.05
235.953	145.24
236.17	44.88
236.388	-4.27
236.605	48.98
236.822	147.28
237.04	155.47
237.257	59.22
237.475	26.45
237.692	59.22
237.909	114.52
238.127	5.97
238.344	100.18
238.562	100.18
238.779	-2.22
238.996	-18.6
239.214	139.09
239.431	53.08
239.648	-0.17
239.865	85.84
240.083	53.08
240.3	75.6
240.517	12.12
240.735	12.12
240.952	81.75
241.169	100.18
241.386	75.6
241.603	-80.04
241.821	-41.13
242.038	106.32
242.255	61.27
242.472	-8.36
242.689	75.6
242.907	-4.27
243.124	36.69
243.341	87.89
243.558	-57.51
243.775	-34.99
243.992	-96.43
244.209	116.56
244.426	171.86
244.643	122.71
244.86	10.07
245.078	67.41
245.295	32.6
245.512	22.36
245.729	-0.17
245.946	32.6
246.163	26.45
246.38	67.41
246.597	96.08
246.814	14.17
247.031	38.74
247.248	36.69
247.464	85.84
247.681	38.74
247.898	149.33
248.115	16.21
248.332	-16.55
248.549	135
248.766	153.43
248.983	34.64
249.2	85.84
249.417	51.03
249.633	-55.47
249.85	108.37
250.067	14.17
250.284	122.71
250.501	108.37
250.717	61.27
250.934	-77.99
251.151	51.03
251.368	42.84
251.585	120.66
251.801	-63.66
252.018	-28.84
252.235	135
252.451	-71.85
252.668	-41.13
252.885	69.46
253.102	120.66
253.318	1.88
253.535	44.88
253.752	-24.75
253.968	-82.09
254.185	-98.47
254.401	126.8
254.618	67.41
254.835	-34.99
255.051	188.24
255.268	67.41
255.484	61.27
255.701	75.6
255.917	71.51
256.134	40.79
256.351	102.23
256.567	-30.89
256.784	108.37
257	-45.23
257.217	91.99
257.433	143.19
257.65	59.22
257.866	132.95
258.082	32.6
258.299	-22.7
258.515	83.8
258.732	12.12
258.948	20.31
259.165	57.17
259.381	34.64
259.597	-6.31
259.814	36.69
260.03	-6.31
260.246	5.97
260.463	96.08
260.679	206.67
260.895	53.08
261.112	26.45
261.328	73.56
261.544	-92.33
261.761	184.15
261.977	14.17
262.193	-65.71
262.409	102.23
262.626	42.84
262.842	1.88
263.058	1.88
263.274	96.08
263.49	20.31
263.707	120.66
263.923	59.22
264.139	-114.86
264.355	30.55
264.571	122.71
264.787	-4.27
265.004	102.23
265.22	-6.31
265.436	12.12
265.652	30.55
265.868	104.28
266.084	-63.66
266.3	28.5
266.516	-53.42
266.732	1.88
266.948	55.12
267.164	-59.56
267.38	83.8
267.596	12.12
267.812	130.9
268.028	61.27
268.244	104.28
268.46	-80.04
268.676	10.07
268.892	51.03
269.108	-6.31
269.324	-53.42
269.54	-53.42
269.756	59.22
269.972	-90.28
270.188	-12.46
270.403	-49.32
270.619	22.36
270.835	-8.36
271.051	110.42
271.267	-10.41
271.483	22.36
271.698	81.75
271.914	12.12
272.13	-12.46
272.346	79.7
272.562	59.22
272.777	153.43
272.993	3.93
273.209	28.5
273.425	114.52
273.64	-88.23
273.856	48.98
274.072	-24.75
274.287	10.07
274.503	67.41
274.719	139.09
274.934	-26.79
275.15	-59.56
275.366	26.45
275.581	-14.51
275.797	55.12
276.012	20.31
276.228	16.21
276.444	48.98
276.659	83.8
276.875	18.26
277.09	-45.23
277.306	3.93
277.521	44.88
277.737	30.55
277.952	112.47
278.168	71.51
278.383	38.74
278.599	53.08
278.814	61.27
279.03	-18.6
279.245	151.38
279.461	-20.65
279.676	57.17
279.892	-12.46
280.107	-10.41
280.322	-65.71
280.538	69.46
280.753	-16.55
280.969	20.31
281.184	75.6
281.399	184.15
281.615	-41.13
281.83	57.17
282.045	-24.75
282.26	-14.51
282.476	-43.18
282.691	157.52
282.906	69.46
283.122	159.57
283.337	44.88
283.552	53.08
283.767	26.45
283.983	184.15
284.198	-18.6
284.413	73.56
284.628	-53.42
284.843	5.97
285.058	104.28
285.274	67.41
285.489	-32.94
285.704	108.37
285.919	22.36
286.134	-12.46
286.349	-10.41
286.564	-61.61
286.779	89.94
286.995	46.93
287.21	-59.56
287.425	102.23
287.64	-8.36
287.855	1.88
288.07	-65.71
288.285	120.66
288.5	81.75
288.715	-6.31
288.93	65.36
289.145	-6.31
289.36	89.94
289.575	-8.36
289.79	81.75
290.004	20.31
290.219	112.47
290.434	42.84
290.649	-43.18
290.864	-20.65
291.079	12.12
291.294	61.27
291.509	61.27
291.724	-22.7
291.938	57.17
292.153	-8.36
292.368	44.88
292.583	75.6
292.798	145.24
293.012	-10.41
293.227	55.12
293.442	-4.27
293.657	79.7
293.871	67.41
294.086	69.46
294.301	147.28
294.516	159.57
294.73	26.45
294.945	30.55
295.16	18.26
295.374	165.71
295.589	73.56
295.804	-16.55
296.018	-8.36
296.233	98.13
296.447	59.22
296.662	-2.22
296.877	180.05
297.091	143.19
297.306	30.55
297.52	83.8
297.735	67.41
297.949	36.69
298.164	48.98
298.378	34.64
298.593	-77.99
298.807	-16.55
299.022	40.79
299.236	126.8
299.451	10.07
299.665	63.32
299.88	-4.27
300.094	98.13
300.309	-37.03
300.523	44.88
300.737	10.07
300.952	85.84
301.166	-8.36
301.381	-8.36
301.595	12.12
301.809	85.84
302.024	44.88
302.238	-28.84
302.452	143.19
302.667	44.88
302.881	106.32
303.095	46.93
303.309	48.98
303.524	-16.55
303.738	12.12
303.952	3.93
304.166	100.18
304.381	-110.76
304.595	147.28
304.809	38.74
305.023	-8.36
305.237	-0.17
305.452	30.55
305.666	40.79
305.88	112.47
306.094	116.56
306.308	57.17
306.522	128.85
306.736	20.31
306.95	59.22
307.164	-14.51
307.379	10.07
307.593	157.52
307.807	132.95
308.021	110.42
308.235	110.42
308.449	-71.85
308.663	16.21
308.877	249.68
309.091	18.26
309.305	34.64
309.519	-18.6
309.733	69.46
309.947	-47.27
310.161	135
310.374	67.41
310.588	190.29
310.802	-92.33
311.016	20.31
311.23	67.41
311.444	-59.56
311.658	57.17
311.872	85.84
312.085	10.07
312.299	122.71
312.513	116.56
312.727	89.94
312.941	-73.9
313.154	132.95
313.368	36.69
313.582	65.36
313.796	5.97
314.009	28.5
314.223	87.89
314.437	51.03
314.651	120.66
314.864	-2.22
315.078	-8.36
315.292	-59.56
315.505	-47.27
315.719	34.64
315.933	26.45
316.146	44.88
316.36	-63.66
316.573	122.71
316.787	69.46
317.001	124.76
317.214	-26.79
317.428	16.21
317.641	3.93
317.855	26.45
318.068	34.64
318.282	51.03
318.495	212.82
318.709	34.64
318.922	34.64
319.136	149.33
319.349	89.94
319.563	-61.61
319.776	79.7
319.99	-53.42
320.203	81.75
320.417	73.56
320.63	130.9
320.843	206.67
321.057	73.56
321.27	63.32
321.483	102.23
321.697	94.04
321.91	100.18
322.124	14.17
322.337	51.03
322.55	-18.6
322.763	71.51
322.977	26.45
323.19	-77.99
323.403	32.6
323.617	-14.51
323.83	139.09
324.043	-10.41
324.256	77.65
324.469	28.5
324.683	122.71
324.896	18.26
325.109	98.13
325.322	-75.95
325.535	55.12
325.748	122.71
325.962	42.84
326.175	-6.31
326.388	38.74
326.601	120.66
326.814	8.02
327.027	116.56
327.24	202.58
327.453	-14.51
327.666	100.18
327.879	130.9
328.092	124.76
328.305	40.79
328.518	-6.31
328.731	-16.55
328.944	20.31
329.157	71.51
329.37	8.02
329.583	157.52
329.796	210.77
330.009	-4.27
330.222	71.51
330.435	79.7
330.648	48.98
330.861	20.31
331.073	110.42
331.286	98.13
331.499	91.99
331.712	-65.71
331.925	53.08
332.138	-8.36
332.35	130.9
332.563	-10.41
332.776	161.62
332.989	-73.9
333.202	-6.31
333.414	18.26
333.627	-22.7
333.84	30.55
334.053	46.93
334.265	-6.31
334.478	28.5
334.691	-49.32
334.903	75.6
335.116	40.79
335.329	14.17
335.541	89.94
335.754	169.81
335.966	14.17
336.179	5.97
336.392	5.97
336.604	73.56
336.817	94.04
337.029	110.42
337.242	51.03
337.454	175.95
337.667	36.69
337.88	106.32
338.092	24.4
338.305	89.94
338.517	16.21
338.729	28.5
338.942	128.85
339.154	-45.23
339.367	-49.32
339.579	28.5
339.792	-80.04
340.004	36.69
340.217	14.17
340.429	104.28
340.641	-4.27
340.854	12.12
341.066	30.55
341.278	122.71
341.491	126.8
341.703	77.65
341.915	-12.46
342.128	110.42
342.34	22.36
342.552	48.98
342.764	-8.36
342.977	77.65
343.189	55.12
343.401	63.32
343.613	-71.85
343.826	-4.27
344.038	-10.41
344.25	89.94
344.462	10.07
344.674	34.64
344.886	38.74
345.099	42.84
345.311	102.23
345.523	-51.37
345.735	-63.66
345.947	106.32
346.159	24.4
346.371	44.88
346.583	-59.56
346.795	180.05
347.007	-28.84
347.219	128.85
347.431	55.12
347.643	159.57
347.855	-26.79
348.067	104.28
348.279	-59.56
348.491	100.18
348.703	102.23
348.915	32.6
349.127	-86.19
349.339	59.22
349.551	44.88
349.763	53.08
349.975	81.75
350.187	48.98
350.399	135
350.61	67.41
350.822	79.7
351.034	10.07
351.246	48.98
351.458	24.4
351.669	59.22
351.881	114.52
352.093	100.18
352.305	55.12
352.517	87.89
352.728	128.85
352.94	87.89
353.152	71.51
353.363	-41.13
353.575	36.69
353.787	165.71
353.999	73.56
354.21	141.14
354.422	-43.18
354.633	53.08
354.845	-34.99
355.057	26.45
355.268	67.41
355.48	104.28
355.692	-108.71
355.903	30.55
356.115	14.17
356.326	-43.18
356.538	89.94
356.749	55.12
356.961	169.81
357.172	-39.08
357.384	73.56
357.595	214.87
357.807	79.7
358.018	22.36
358.23	87.89
358.441	155.47
358.653	87.89
358.864	34.64
359.075	-20.65
359.287	24.4
359.498	85.84
359.709	30.55
359.921	-57.51
360.132	87.89
360.344	-59.56
360.555	-0.17
360.766	36.69
360.977	55.12
361.189	130.9
361.4	-16.55
361.611	94.04
361.823	126.8
362.034	51.03
362.245	-32.94
362.456	18.26
362.667	65.36
362.879	-84.14
363.09	79.7
363.301	87.89
363.512	36.69
363.723	-37.03
363.935	-32.94
364.146	114.52
364.357	46.93
364.568	-4.27
364.779	-84.14
364.99	114.52
365.201	-10.41
365.412	118.61
365.623	-112.81
365.834	-34.99
366.045	81.75
366.256	65.36
366.467	98.13
366.678	-55.47
366.889	51.03
367.1	-90.28
367.311	126.8
367.522	-4.27
367.733	65.36
367.944	77.65
368.155	12.12
368.366	100.18
368.577	85.84
368.788	98.13
368.999	-65.71
369.209	18.26
369.42	212.82
369.631	171.86
369.842	79.7
370.053	83.8
370.264	77.65
370.474	63.32
370.685	46.93
370.896	32.6
371.107	155.47
371.317	69.46
371.528	71.51
371.739	91.99
371.95	106.32
372.16	114.52
372.371	-20.65
372.582	61.27
372.792	114.52
373.003	65.36
373.214	75.6
373.424	10.07
373.635	-18.6
373.846	122.71
374.056	71.51
374.267	32.6
374.477	106.32
374.688	16.21
374.898	51.03
375.109	63.32
375.319	59.22
375.53	116.56
375.74	120.66
375.951	3.93
376.161	94.04
376.372	145.24
376.582	-0.17
376.793	87.89
377.003	34.64
377.214	-32.94
377.424	63.32
377.635	77.65
377.845	40.79
378.055	184.15
378.266	-41.13
378.476	110.42
378.686	141.14
378.897	44.88
379.107	94.04
379.317	12.12
379.528	-53.42
379.738	106.32
379.948	-26.79
380.158	42.84
380.369	-2.22
380.579	126.8
380.789	77.65
380.999	53.08
381.21	171.86
381.42	112.47
381.63	34.64
381.84	98.13
382.05	83.8
382.261	126.8
382.471	85.84
382.681	10.07
382.891	141.14
383.101	22.36
383.311	-77.99
383.521	91.99
383.731	98.13
383.941	104.28
384.151	89.94
384.361	-49.32
384.571	57.17
384.781	145.24
384.991	225.11
385.201	175.95
385.411	44.88
385.621	126.8
385.831	83.8
386.041	46.93
386.251	30.55
386.461	130.9
386.671	36.69
386.881	26.45
387.091	100.18
387.301	34.64
387.511	77.65
387.72	36.69
387.93	110.42
388.14	-43.18
388.35	77.65
388.56	89.94
388.769	59.22
388.979	79.7
389.189	32.6
389.399	36.69
389.609	53.08
389.818	135
390.028	69.46
390.238	141.14
390.447	36.69
390.657	122.71
390.867	38.74
391.076	-67.75
391.286	118.61
391.496	83.8
391.705	51.03
391.915	161.62
392.125	147.28
392.334	46.93
392.544	159.57
392.753	108.37
392.963	14.17
393.172	71.51
393.382	14.17
393.591	178
393.801	87.89
394.01	163.67
394.22	85.84
394.429	30.55
394.639	18.26
394.848	28.5
395.058	34.64
395.267	-0.17
395.477	151.38
395.686	61.27
395.895	188.24
396.105	161.62
396.314	63.32
396.524	-8.36
396.733	83.8
396.942	118.61
397.152	67.41
397.361	65.36
397.57	44.88
397.78	59.22
397.989	110.42
398.198	274.26
398.407	71.51
398.617	75.6
398.826	-4.27
399.035	-14.51
399.244	186.19
399.453	100.18
399.663	-6.31
399.872	10.07
400.081	-32.94
400.29	91.99
400.499	-8.36
400.708	147.28
400.917	20.31
401.127	106.32
401.336	-53.42
401.545	104.28
401.754	173.91
401.963	81.75
402.172	-61.61
402.381	10.07
402.59	-12.46
402.799	61.27
403.008	122.71
403.217	20.31
403.426	147.28
403.635	-34.99
403.844	46.93
404.053	30.55
404.262	20.31
404.471	190.29
404.68	73.56
404.888	30.55
405.097	-34.99
405.306	34.64
405.515	112.47
405.724	-2.22
405.933	171.86
406.142	-57.51
406.35	120.66
406.559	73.56
406.768	83.8
406.977	151.38
407.185	63.32
407.394	10.07
407.603	-26.79
407.812	-22.7
408.02	120.66
408.229	110.42
408.438	81.75
408.646	-43.18
408.855	46.93
409.064	67.41
409.272	69.46
409.481	116.56
409.69	-45.23
409.898	-24.75
410.107	100.18
410.315	89.94
410.524	12.12
410.733	75.6
410.941	55.12
411.15	63.32
411.358	151.38
411.567	149.33
411.775	118.61
411.984	14.17
412.192	143.19
412.401	26.45
412.609	239.44
412.818	157.52
413.026	63.32
413.234	8.02
413.443	73.56
413.651	-34.99
413.86	34.64
414.068	91.99
414.276	147.28
414.485	44.88
414.693	155.47
414.901	239.44
415.11	-4.27
415.318	126.8
415.526	3.93
415.734	141.14
415.943	-4.27
416.151	89.94
416.359	32.6
416.567	3.93
416.776	110.42
416.984	161.62
417.192	206.67
417.4	30.55
417.608	-14.51
417.817	-34.99
418.025	147.28
418.233	83.8
418.441	-20.65
418.649	-22.7
418.857	79.7
419.065	149.33
419.273	102.23
419.481	83.8
419.689	71.51
419.897	63.32
420.105	26.45
420.313	73.56
420.521	237.39
420.729	214.87
420.937	14.17
421.145	-18.6
421.353	102.23
421.561	81.75
421.769	104.28
421.977	42.84
422.185	206.67
422.393	98.13
422.601	132.95
422.809	53.08
423.017	55.12
423.224	108.37
423.432	161.62
423.64	5.97
423.848	126.8
424.056	-18.6
424.263	128.85
424.471	26.45
424.679	89.94
424.887	40.79
425.094	145.24
425.302	137.04
425.51	-2.22
425.718	118.61
425.925	100.18
426.133	-12.46
426.341	145.24
426.548	61.27
426.756	106.32
426.964	139.09
427.171	53.08
427.379	53.08
427.586	32.6
427.794	132.95
428.001	153.43
428.209	51.03
428.417	130.9
428.624	182.1
428.832	149.33
429.039	159.57
429.247	89.94
429.454	132.95
429.662	190.29
429.869	192.34
430.076	151.38
430.284	118.61
430.491	225.11
430.699	200.53
430.906	221.01
431.114	75.6
431.321	180.05
431.528	155.47
431.736	192.34
431.943	218.96
432.15	149.33
432.358	108.37
432.565	268.11
432.772	-6.31
432.979	157.52
433.187	132.95
433.394	137.04
433.601	116.56
433.808	218.96
434.016	282.45
434.223	233.3
434.43	202.58
434.637	182.1
434.844	290.64
435.052	259.92
435.259	247.63
435.466	321.36
435.673	296.78
435.88	368.46
436.087	282.45
436.294	360.27
436.501	354.13
436.708	399.18
436.915	298.83
437.122	315.22
437.329	266.07
437.537	386.9
437.743	284.5
437.95	501.58
438.157	331.6
438.364	374.61
438.571	382.8
438.778	399.18
438.985	462.67
439.192	571.21
439.399	380.75
439.606	503.63
439.813	487.25
440.02	655.18
440.227	733
440.433	556.88
440.64	530.25
440.847	526.16
441.054	556.88
441.261	700.23
441.467	687.95
441.674	649.04
441.881	767.82
442.088	591.69
442.294	724.81
442.501	823.11
442.708	843.59
442.914	825.16
443.121	831.3
443.328	882.5
443.534	984.9
443.741	929.61
443.948	847.69
444.154	997.19
444.361	1302.34
444.568	1038.15
444.774	1083.2
444.981	1081.16
445.187	1247.04
445.394	1220.42
445.6	1158.98
445.807	1380.16
446.013	1322.82
446.22	1306.43
446.426	1525.57
446.633	1584.96
446.839	1681.21
447.046	1500.99
447.252	1670.97
447.459	1705.79
447.665	1740.6
447.871	1838.91
448.078	1926.97
448.284	1922.87
448.491	2029.37
448.697	2268.98
448.903	2258.74
449.11	2342.71
449.316	2209.59
449.522	2447.15
449.728	2674.48
449.935	2625.33
450.141	2555.69
450.347	3032.87
450.553	2795.31
450.76	2875.18
450.966	3137.32
451.172	3014.44
451.378	3112.74
451.584	3274.53
451.791	3583.77
451.997	3698.46
452.203	3772.19
452.409	3970.84
452.615	4063
452.821	3919.64
453.027	3952.41
453.233	4486.93
453.44	4464.4
453.646	4663.05
453.852	4921.1
454.058	5035.78
454.264	5254.92
454.47	5517.06
454.676	5431.04
454.882	6117.11
455.088	5822.2
455.294	6047.48
455.5	6514.42
455.705	6760.17
455.911	6983.4
456.117	7075.56
456.323	7327.46
456.529	7384.8
456.735	7935.71
456.941	8128.22
457.147	8611.54
457.352	8769.23
457.558	8890.06
457.764	9615.04
457.97	9846.46
458.176	10376.89
458.381	10663.6
458.587	10938.03
458.793	11304.62
458.999	11404.97
459.204	12904.08
459.41	13551.24
459.616	13115.02
459.821	13991.55
460.027	14550.65
460.233	15074.93
460.438	15154.8
460.644	16119.39
460.85	16160.35
461.055	16971.35
461.261	17790.53
461.466	17305.17
461.672	17710.66
461.878	19676.71
462.083	19568.17
462.289	19924.52
462.494	20723.23
462.7	20948.5
462.905	21493.26
463.111	23117.3
463.316	24051.17
463.522	24425.95
463.727	25531.86
463.932	26107.33
464.138	27098.55
464.343	28241.32
464.549	28403.11
464.754	30358.92
464.959	31290.74
465.165	31960.43
465.37	31411.57
465.575	31753.58
465.781	33809.75
465.986	34612.55
466.191	34465.1
466.397	34338.12
466.602	33682.77
466.807	35448.12
467.012	36410.67
467.218	36594.98
467.423	36627.75
467.628	37725.46
467.833	39576.83
468.038	38827.27
468.244	38085.9
468.449	40537.32
468.654	39707.9
468.859	39582.97
469.064	39087.36
469.269	38300.94
469.474	38880.52
469.679	40097.01
469.885	38771.97
470.09	39290.11
470.295	39228.67
470.5	38968.58
470.705	38778.12
470.91	37940.5
471.115	37772.56
471.32	37967.12
471.525	37782.8
471.73	37033.25
471.935	36453.67
472.139	35243.32
472.344	35452.22
472.549	34731.33
472.754	34088.27
472.959	33690.96
473.164	32275.82
473.369	32185.71
473.574	32882.02
473.778	32030.06
473.983	31354.23
474.188	31223.16
474.393	29353.37
474.598	29537.68
474.802	28947.87
475.007	28292.52
475.212	28159.4
475.417	27084.22
475.621	26791.36
475.826	26527.17
476.031	25794
476.235	25503.18
476.44	25087.45
476.645	24964.57
476.849	24499.68
477.054	24143.33
477.259	23246.32
477.463	23549.42
477.668	22769.15
477.872	22601.21
478.077	22326.78
478.282	21741.07
478.486	21249.55
478.691	21091.86
478.895	20747.8
479.1	20866.58
479.304	20737.56
479.509	19824.17
479.713	20272.67
479.918	19473.96
480.122	19316.27
480.326	19478.06
480.531	19645.99
480.735	19113.52
480.94	18734.65
481.144	19568.17
481.348	18574.91
481.553	18576.95
481.757	18056.77
481.961	18402.88
482.166	18329.15
482.37	18351.68
482.574	17854.02
482.778	17610.31
482.983	18013.76
483.187	17612.36
483.391	17485.39
483.595	17237.58
483.8	16873.04
484.004	16733.78
484.208	16871
484.412	16809.56
484.616	16631.38
484.821	16326.24
485.025	15871.59
485.229	16006.75
485.433	15795.81
485.637	15480.43
485.841	15259.24
486.045	15208.05
486.249	14898.8
486.453	14487.16
486.657	14716.53
486.861	14227.07
487.065	13905.54
487.269	13876.87
487.473	13452.94
487.677	13397.64
487.881	13571.72
488.085	13043.34
488.289	12859.03
488.493	12396.18
488.697	12600.98
488.901	12218.01
489.105	11824.8
489.309	11736.74
489.512	11497.13
489.716	11372.2
489.92	10964.65
490.124	11058.86
490.328	11067.05
490.531	10768.05
490.735	10501.81
490.939	10374.84
491.143	9879.23
491.346	9881.28
491.55	9635.52
491.754	9332.42
491.958	9514.69
492.161	9389.77
492.365	9096.91
492.569	9068.23
492.772	8898.25
492.976	8715.98
493.18	8570.58
493.383	8496.85
493.587	8562.39
493.79	8337.11
493.994	8015.58
494.197	7923.42
494.401	8007.39
494.605	7978.72
494.808	8046.3
495.012	7739.1
495.215	7837.41
495.419	7755.49
495.622	7558.88
495.825	7472.87
496.029	7540.45
496.232	7745.25
496.436	7366.37
496.639	7544.55
496.843	7548.64
497.046	7513.83
497.249	7642.85
497.453	7589.6
497.656	7450.34
497.859	7483.11
498.063	7517.92
498.266	7648.99
498.469	7519.97
498.673	7507.68
498.876	7804.64
499.079	7558.88
499.282	7655.14
499.485	7927.52
499.689	7737.06
499.892	7837.41
500.095	7712.48
500.298	7909.08
500.501	7743.2
500.705	7880.41
500.908	8191.7
501.111	7978.72
501.314	8195.8
501.517	8474.32
501.72	8290.01
501.923	8437.46
502.126	8476.37
502.329	8638.16
502.532	8660.69
502.735	8582.87
502.938	8859.34
503.141	8685.26
503.344	9115.34
503.547	9103.05
503.75	9164.49
503.953	9551.56
504.156	9701.06
504.359	9680.58
504.562	9862.85
504.765	9928.38
504.968	10247.86
505.17	10127.03
505.373	10397.37
505.576	10755.76
505.779	10714.8
505.982	10860.21
506.185	11077.29
506.387	11085.48
506.59	11521.7
506.793	11771.55
506.996	11779.75
507.198	12127.9
507.401	12226.2
507.604	12422.81
507.807	12869.26
508.009	12957.33
508.212	13293.19
508.415	13362.83
508.617	13659.78
508.82	13860.48
509.022	14169.73
509.225	14820.98
509.428	15091.31
509.63	15283.82
509.833	15461.99
510.035	16215.65
510.238	16127.58
510.44	16332.38
510.643	16780.89
510.845	17423.95
511.048	17421.9
511.25	17757.77
511.453	18468.41
511.655	19166.77
511.858	19443.24
512.06	19617.32
512.262	19906.09
512.465	20264.48
512.667	21110.29
512.87	21317.14
513.072	21880.33
513.274	22846.97
513.477	22941.18
513.679	23617
513.881	23860.71
514.084	24507.87
514.286	24839.64
514.488	25521.62
514.69	26396.1
514.893	26371.52
515.095	27219.38
515.297	28067.24
515.499	28302.76
515.701	28751.26
515.904	29543.83
516.106	30080.39
516.308	30834.05
516.51	31430.01
516.712	31966.57
516.914	32701.79
517.116	33553.75
517.318	34016.59
517.52	34489.67
517.722	34874.69
517.925	35702.07
518.127	36261.16
518.329	36674.85
518.531	37281.05
518.733	38286.61
518.935	38620.42
519.136	38987.01
519.338	40060.15
519.54	40541.42
519.742	41002.21
519.944	41929.94
520.146	42521.8
520.348	43091.14
520.55	43439.29
520.752	43820.22
520.954	44469.42
521.155	44651.69
521.357	45595.81
521.559	46075.03
521.761	47002.76
521.963	47207.56
522.164	47299.72
522.366	47645.82
522.568	48379
522.77	48471.15
522.971	49269.86
523.173	48544.88
523.375	49507.43
523.576	49476.71
523.778	49671.26
523.98	50177.11
524.181	50760.78
524.383	50461.78
524.584	51133.51
524.786	50642
524.988	50314.33
525.189	51409.99
525.391	51536.96
525.592	51682.37
525.794	51688.51
525.995	51627.07
526.197	51020.87
526.398	51092.55
526.6	50969.68
526.801	51123.27
527.003	50811.98
527.204	50877.52
527.406	50771.02
527.607	50426.96
527.808	50816.08
528.01	49556.58
528.211	49562.72
528.412	49904.73
528.614	49069.16
528.815	48972.91
529.016	49159.27
529.218	48202.87
529.419	47637.63
529.62	47561.86
529.822	46746.76
530.023	46601.36
530.224	46238.87
530.425	45522.08
530.626	44852.39
530.828	44233.91
531.029	44958.89
531.23	44133.56
531.431	43261.12
531.632	42826.95
531.833	42552.52
532.035	42058.96
532.236	41405.66
532.437	41333.98
532.638	40594.67
532.839	40047.86
533.04	39752.95
533.241	38683.91
533.442	39089.41
533.643	38376.72
533.844	38098.19
534.045	36900.13
534.246	36300.08
534.447	36310.32
534.648	35286.33
534.849	35351.87
535.05	34846.02
535.251	34180.43
535.451	33369.43
535.652	33492.31
535.853	32976.22
536.054	32408.93
536.255	32445.8
536.456	31372.66
536.657	31477.11
536.857	30596.48
537.058	30623.11
537.259	30166.41
537.46	29963.66
537.66	28759.45
537.861	28870.04
538.062	28190.12
538.263	27901.36
538.463	27882.92
538.664	27289.01
538.865	27278.77
539.065	26940.86
539.266	26191.3
539.466	26189.25
539.667	25789.9
539.868	25449.94
540.068	25226.71
540.269	24765.92
540.469	24794.59
540.67	24493.54
540.87	24075.75
541.071	23932.39
541.271	23680.49
541.472	23369.2
541.672	22963.7
541.873	22554.11
542.073	22398.46
542.274	21972.49
542.474	21614.09
542.675	21483.02
542.875	21569.04
543.075	21126.67
543.276	20985.37
543.476	21048.85
543.676	20538.91
543.877	20381.21
544.077	20098.59
544.277	19668.52
544.478	19394.09
544.678	19375.66
544.878	19230.26
545.078	19101.23
545.279	18867.77
545.479	18703.93
545.679	18341.44
545.879	18034.24
546.079	18280
546.28	17524.3
546.48	17571.4
546.68	17268.3
546.88	17176.14
547.08	17206.86
547.28	16666.2
547.48	16242.27
547.68	16510.55
547.88	16180.83
548.081	16066.14
548.281	15695.46
548.481	15429.23
548.681	15437.42
548.881	15310.44
549.081	14919.28
549.28	14712.44
549.48	14489.21
549.68	14112.38
549.88	14450.3
550.08	13883.01
550.28	13653.64
550.48	13725.32
550.68	13328.01
550.88	13076.11
551.08	12971.66
551.279	13061.77
551.479	12390.04
551.679	12502.68
551.879	12062.37
552.079	12078.75
552.278	12093.08
552.478	11878.05
552.678	11493.03
552.878	11701.92
553.077	11380.39
553.277	10974.89
553.477	11062.96
553.676	10690.23
553.876	10753.71
554.076	10380.98
554.275	10294.97
554.475	9850.56
554.674	10112.7
554.874	9912
555.074	9526.98
555.273	9504.45
555.473	9350.85
555.672	9021.13
555.872	8974.03
556.071	8820.43
556.271	8885.97
556.47	8701.65
556.67	8392.41
556.869	8490.71
557.068	8339.16
557.268	8154.84
557.467	8011.48
557.667	7958.24
557.866	7732.96
558.065	7376.61
558.265	7376.61
558.464	7319.27
558.663	7358.18
558.863	7087.85
559.062	7077.61
559.261	6805.23
559.461	6897.39
559.66	6674.16
559.859	6360.82
560.058	6405.88
560.258	6315.76
560.457	6270.71
560.656	6412.02
560.855	5818.11
561.054	6065.91
561.253	5811.96
561.453	5746.43
561.652	5803.77
561.851	5719.81
562.05	5398.27
562.249	5324.55
562.448	5359.36
562.647	5023.5
562.846	5132.04
563.045	5250.82
563.244	5025.54
563.443	4982.54
563.642	4830.99
563.841	4814.6
564.04	4794.12
564.239	4634.38
564.438	4652.81
564.637	4468.5
564.836	4390.67
565.035	4462.35
565.234	4327.19
565.432	4267.8
565.631	4327.19
565.83	4134.68
566.029	4042.52
566.228	4028.18
566.427	3995.42
566.625	3819.29
566.824	3882.78
567.023	3856.15
567.222	3698.46
567.42	3649.31
567.619	3708.7
567.818	3628.83
568.016	3747.61
568.215	3571.49
568.414	3602.21
568.612	3485.47
568.811	3333.92
569.01	3327.78
569.208	3239.72
569.407	3227.43
569.605	3182.37
569.804	3131.17
570.002	3116.84
570.201	2926.38
570.4	3018.54
570.598	3018.54
570.797	2985.77
570.995	2848.55
571.193	2805.55
571.392	2809.64
571.59	2621.23
571.789	2631.47
571.987	2707.24
572.186	2840.36
572.384	2559.79
572.582	2430.77
572.781	2680.62
572.979	2295.6
573.177	2508.59
573.376	2469.68
573.574	2459.44
573.772	2371.38
573.971	2144.05
574.169	2209.59
574.367	2291.51
574.565	2201.4
574.763	2053.94
574.962	2039.61
575.16	2127.67
575.358	2021.17
575.556	2154.29
575.754	1992.5
575.952	1902.39
576.151	2109.24
576.349	1980.22
576.547	1679.16
576.745	1812.28
576.943	1826.62
577.141	1791.8
577.339	1652.54
577.537	1744.7
577.735	1713.98
577.933	1730.36
578.131	1548.09
578.329	1740.6
578.527	1488.7
578.725	1570.62
578.923	1484.61
579.121	1484.61
579.319	1388.35
579.516	1386.3
579.714	1677.12
579.912	1421.12
580.11	1288
580.308	1408.83
580.506	1296.19
580.704	1269.57
580.901	1341.25
581.099	1353.54
581.297	1177.41
581.495	1314.63
581.692	1288
581.89	1361.73
582.088	1216.32
582.285	1177.41
582.483	1195.84
582.681	1142.6
582.878	1187.65
583.076	1156.93
583.274	1097.54
583.471	1273.67
583.669	1066.82
583.866	1019.72
584.064	1077.06
584.262	937.8
584.459	894.79
584.657	993.09
584.854	1109.83
585.052	997.19
585.249	1103.68
585.447	1023.81
585.644	870.22
585.841	1021.77
586.039	935.75
586.236	954.18
586.434	890.7
586.631	851.78
586.828	909.13
587.026	849.74
587.223	718.67
587.42	724.81
587.618	792.39
587.815	857.93
588.012	816.97
588.21	798.54
588.407	821.06
588.604	843.59
588.801	726.86
588.999	784.2
589.196	798.54
589.393	612.17
589.59	845.64
589.787	796.49
589.984	833.35
590.182	733
590.379	630.6
590.576	614.22
590.773	681.8
590.97	767.82
591.167	780.11
591.364	778.06
591.561	673.61
591.758	765.77
591.955	782.15
592.152	743.24
592.349	610.12
592.546	587.6
592.743	663.37
592.94	673.61
593.137	669.52
593.334	755.53
593.531	778.06
593.727	733
593.924	700.23
594.121	679.75
594.318	663.37
594.515	642.89
594.712	819.02
594.908	816.97
595.105	581.45
595.302	814.92
595.499	806.73
595.696	847.69
595.892	689.99
596.089	837.45
596.286	745.29
596.482	831.3
596.679	765.77
596.876	802.63
597.072	929.61
597.269	968.52
597.466	1038.15
597.662	919.37
597.859	929.61
598.055	1083.2
598.252	1079.11
598.448	1107.78
598.645	1199.94
598.841	1181.51
599.038	1247.04
599.234	1261.38
599.431	1351.49
599.627	1394.5
599.824	1449.79
600.02	1400.64
600.217	1408.83
600.413	1632.06
600.609	1556.29
600.806	1859.38
601.002	1779.51
601.198	1730.36
601.395	1804.09
601.591	1908.54
601.787	1986.36
601.984	2064.18
602.18	2039.61
602.376	2209.59
602.572	2334.51
602.769	2539.31
602.965	2416.43
603.161	2733.87
603.357	2727.72
603.553	2840.36
603.75	2807.59
603.946	2903.85
604.142	3006.25
604.338	3178.28
604.534	3213.09
604.73	3223.33
604.926	3497.76
605.122	3557.15
605.318	3548.96
605.514	3831.58
605.71	3905.31
605.906	3970.84
606.102	4099.86
606.298	4271.89
606.494	4470.55
606.69	4615.95
606.886	4570.9
607.082	4675.34
607.278	4794.12
607.474	5005.06
607.67	5127.94
607.866	5027.59
608.062	5457.67
608.257	5617.41
608.453	5420.8
608.649	5922.55
608.845	5906.17
609.041	5934.84
609.236	6274.81
609.432	6483.7
609.628	6653.68
609.824	6792.94
610.019	6944.49
610.215	7208.68
610.411	7515.87
610.606	7595.75
610.802	7720.67
610.998	7923.42
611.193	8158.94
611.389	8247
611.584	8763.09
611.78	8746.7
611.976	8988.36
612.171	9498.31
612.367	9639.62
612.562	9758.4
612.758	9842.37
612.953	10008.25
613.149	10639.03
613.344	10585.78
613.539	10833.58
613.735	11415.21
613.93	11607.72
614.126	11906.72
614.321	12363.42
614.517	12756.63
614.712	12869.26
614.907	13078.16
615.103	13866.63
615.298	13674.12
615.493	14249.6
615.688	14499.45
615.884	14966.38
616.079	15388.27
616.274	15795.81
616.47	15930.98
616.665	16631.38
616.86	16694.87
617.055	17286.73
617.25	17788.49
617.445	18402.88
617.641	18216.51
617.836	19117.62
618.031	19402.29
618.226	20137.51
618.421	20389.41
618.616	21141.01
618.811	21341.71
619.006	22124.04
619.201	22148.61
619.396	22846.97
619.591	23109.11
619.786	23778.79
619.981	24100.33
620.176	25003.48
620.371	25144.79
620.566	25828.81
620.761	26432.96
620.956	27092.41
621.151	27446.71
621.346	28034.47
621.541	27977.13
621.735	29105.56
621.93	29216.15
622.125	29930.89
622.32	30121.35
622.515	30934.4
622.709	31427.96
622.904	32236.91
623.099	32863.58
623.294	32988.51
623.488	33539.41
623.683	34372.94
623.878	34307.4
624.072	35896.63
624.267	35958.06
624.462	36584.74
624.656	36701.48
624.851	37608.73
625.046	37895.44
625.24	38753.54
625.435	38698.25
625.629	39404.8
625.824	40047.86
626.018	40666.34
626.213	40447.21
626.407	41307.36
626.602	41331.93
626.796	41993.43
626.991	42577.1
627.185	42462.41
627.38	42941.64
627.574	43066.56
627.768	43340.99
627.963	43191.49
628.157	43562.17
628.352	44203.19
628.546	43234.5
628.74	43807.93
628.935	43568.32
629.129	43574.46
629.323	42935.49
629.517	43064.52
629.712	42663.11
629.906	42431.69
630.1	41782.49
630.294	41395.42
630.489	41032.93
630.683	40615.15
630.877	39132.42
631.071	38685.96
631.265	38511.88
631.459	37698.84
631.653	36726.05
631.848	35964.21
632.042	34768.19
632.236	34663.75
632.43	33064.28
632.624	32453.99
632.818	31384.95
633.012	30078.35
633.206	29881.74
633.4	28419.49
633.594	27370.93
633.788	26584.51
633.982	25685.45
634.176	24772.06
634.369	23739.88
634.563	23000.57
634.757	22017.54
634.951	21667.34
635.145	20579.87
635.339	19562.03
635.533	18810.42
635.726	18034.24
635.92	17174.1
636.114	16725.59
636.308	15816.29
636.501	15351.4
636.695	14757.49
636.889	13905.54
637.083	13289.1
637.276	12895.89
637.47	12263.07
637.664	11925.15
637.857	11286.19
638.051	10852.02
638.244	10720.95
638.438	10258.1
638.632	9713.35
638.825	9084.62
639.019	8953.55
639.212	8597.2
639.406	8367.83
639.599	8013.53
639.793	7595.75
639.986	7341.8
640.18	7186.15
640.373	6870.76
640.567	6383.35
640.76	6289.14
640.954	6207.22
641.147	5715.71
641.34	5574.4
641.534	5361.41
641.727	5216.01
641.92	5013.26
642.114	4650.77
642.307	4493.07
642.5	4488.98
642.694	4124.44
642.887	4128.53
643.08	3942.17
643.273	3981.08
643.467	3626.78
643.66	3381.03
643.853	3270.44
644.046	3165.99
644.239	3149.61
644.432	3006.25
644.626	2805.55
644.819	2871.08
645.012	2721.58
645.205	2641.71
645.398	2549.55
645.591	2266.93
645.784	2348.85
645.977	2137.91
646.17	2146.1
646.363	2133.81
646.556	1947.45
646.749	1855.29
646.942	1808.19
647.135	1781.56
647.328	1728.31
647.521	1566.53
647.714	1648.44
647.907	1533.76
648.099	1386.3
648.292	1441.6
648.485	1333.06
648.678	1363.78
648.871	1113.92
649.064	1214.27
649.256	1003.33
649.449	1046.34
649.642	972.61
649.835	993.09
650.027	907.08
650.22	1027.91
650.413	972.61
650.605	923.46
650.798	878.41
650.991	831.3
651.183	825.16
651.376	851.78
651.568	929.61
651.761	796.49
651.954	735.05
652.146	735.05
652.339	724.81
652.531	735.05
652.724	630.6
652.916	569.16
653.109	442.19
653.301	657.23
653.494	606.03
653.686	546.64
653.879	603.98
654.071	532.3
654.263	511.82
654.456	495.44
654.648	542.54
654.84	548.68
655.033	390.99
655.225	585.55
655.417	331.6
655.61	548.68
655.802	491.34
655.994	477.01
656.186	325.46
656.379	382.8
656.571	274.26
656.763	356.18
656.955	294.74
657.148	313.17
657.34	372.56
657.532	378.7
657.724	378.7
657.916	245.59
658.108	352.08
658.3	227.15
658.492	331.6
658.684	261.97
658.876	292.69
659.068	212.82
659.26	190.29
659.452	198.48
659.644	300.88
659.836	417.61
660.028	241.49
660.22	188.24
660.412	229.2
660.604	261.97
660.796	165.71
660.988	302.93
661.18	186.19
661.372	274.26
661.563	147.28
661.755	233.3
661.947	124.76
662.139	141.14
662.331	259.92
662.522	186.19
662.714	157.52
662.906	102.23
663.097	198.48
663.289	175.95
663.481	204.63
663.673	186.19
663.864	192.34
664.056	169.81
664.247	139.09
664.439	178
664.631	167.76
664.822	202.58
665.014	167.76
665.205	130.9
665.397	81.75
665.588	165.71
665.78	132.95
665.971	216.91
666.163	157.52
666.354	200.53
666.546	65.36
666.737	139.09
666.929	194.39
667.12	108.37
667.311	167.76
667.503	161.62
667.694	135
667.885	159.57
668.077	188.24
668.268	46.93
668.459	106.32
668.651	104.28
668.842	157.52
669.033	169.81
669.224	75.6
669.416	307.02
669.607	55.12
669.798	77.65
669.989	278.35
670.18	44.88
670.371	229.2
670.563	79.7
670.754	286.54
670.945	163.67
671.136	192.34
671.327	-0.17
671.518	163.67
671.709	341.84
671.9	151.38
672.091	216.91
672.282	173.91
672.473	118.61
672.664	14.17
672.855	73.56
673.046	139.09
673.237	157.52
673.428	120.66
673.619	126.8
673.809	83.8
674	153.43
674.191	126.8
674.382	233.3
674.573	147.28
674.764	110.42
674.954	192.34
675.145	149.33
675.336	128.85
675.527	149.33
675.717	116.56
675.908	83.8
676.099	98.13
676.289	104.28
676.48	-26.79
676.671	116.56
676.861	122.71
677.052	61.27
677.243	69.46
677.433	126.8
677.624	180.05
677.814	147.28
678.005	36.69
678.195	278.35
678.386	65.36
678.576	214.87
678.767	110.42
678.957	159.57
679.148	153.43
679.338	284.5
679.529	159.57
679.719	65.36
679.909	196.43
680.1	190.29
680.29	186.19
680.481	71.51
680.671	196.43
680.861	180.05
681.052	214.87
681.242	77.65
681.432	188.24
681.622	186.19
681.813	40.79
682.003	167.76
682.193	128.85
682.383	169.81
682.573	81.75
682.764	165.71
682.954	237.39
683.144	251.73
683.334	175.95
683.524	100.18
683.714	264.02
683.904	180.05
684.094	175.95
684.284	130.9
684.474	251.73
684.664	225.11
684.854	225.11
685.044	190.29
685.234	120.66
685.424	198.48
685.614	151.38
685.804	245.59
685.994	169.81
686.184	139.09
686.374	237.39
686.564	143.19
686.753	165.71
686.943	110.42
687.133	153.43
687.323	173.91
687.513	145.24
687.702	171.86
687.892	128.85
688.082	212.82
688.272	261.97
688.461	178
688.651	257.87
688.841	149.33
689.03	96.08
689.22	208.72
689.41	231.25
689.599	245.59
689.789	98.13
689.979	294.74
690.168	237.39
690.358	173.91
690.547	159.57
690.737	135
690.926	83.8
691.116	206.67
691.305	139.09
691.495	167.76
691.684	104.28
691.874	145.24
692.063	145.24
692.252	153.43
692.442	196.43
692.631	135
692.82	149.33
693.01	163.67
693.199	161.62
693.388	161.62
693.578	167.76
693.767	169.81
693.956	112.47
694.146	112.47
694.335	135
694.524	106.32
694.713	182.1
694.902	57.17
695.092	155.47
695.281	149.33
695.47	102.23
695.659	108.37
695.848	194.39
696.037	73.56
696.226	290.64
696.415	149.33
696.604	270.16
696.793	163.67
696.982	59.22
697.171	225.11
697.36	110.42
697.549	89.94
697.738	-0.17
697.927	118.61
698.116	98.13
698.305	247.63
698.494	128.85
698.683	118.61
698.872	253.78
699.061	108.37
699.25	77.65
699.438	153.43
699.627	173.91
699.816	345.94
700.005	73.56
700.193	153.43
700.382	221.01
700.571	221.01
700.76	208.72
700.948	225.11
701.137	225.11
701.326	272.21
701.514	51.03
701.703	204.63
701.892	178
702.08	345.94
702.269	132.95
702.457	124.76
702.646	149.33
702.834	155.47
703.023	204.63
703.212	190.29
703.4	153.43
703.589	165.71
703.777	130.9
703.965	112.47
704.154	139.09
704.342	51.03
704.531	116.56
704.719	178
704.907	233.3
705.096	48.98
705.284	87.89
705.472	186.19
705.661	192.34
705.849	188.24
706.037	241.49
706.226	98.13
706.414	169.81
706.602	59.22
706.79	202.58
706.979	98.13
707.167	135
707.355	91.99
707.543	159.57
707.731	251.73
707.919	161.62
708.107	132.95
708.296	122.71
708.484	87.89
708.672	167.76
708.86	186.19
709.048	135
709.236	110.42
709.424	202.58
709.612	184.15
709.8	51.03
709.988	104.28
710.176	243.54
710.364	253.78
710.551	202.58
710.739	135
710.927	159.57
711.115	241.49
711.303	335.7
711.491	180.05
711.679	83.8
711.866	264.02
712.054	104.28
712.242	135
712.43	259.92
712.617	116.56
712.805	231.25
712.993	135
713.181	48.98
713.368	241.49
713.556	163.67
713.744	132.95
713.931	286.54
714.119	243.54
714.306	161.62
714.494	143.19
714.682	182.1
714.869	79.7
715.057	155.47
715.244	59.22
715.432	214.87
715.619	98.13
715.807	96.08
715.994	104.28
716.182	79.7
716.369	210.77
716.556	206.67
716.744	137.04
716.931	153.43
717.119	212.82
717.306	186.19
717.493	206.67
717.681	159.57
717.868	180.05
718.055	159.57
718.242	165.71
718.43	270.16
718.617	221.01
718.804	227.15
718.991	241.49
719.179	266.07
719.366	126.8
719.553	188.24
719.74	180.05
719.927	218.96
720.114	200.53
720.301	83.8
720.488	102.23
720.676	157.52
720.863	190.29
721.05	241.49
721.237	266.07
721.424	276.31
721.611	188.24
721.798	96.08
721.985	44.88
722.172	87.89
722.358	173.91
722.545	249.68
722.732	239.44
722.919	339.79
723.106	223.06
723.293	112.47
723.48	255.83
723.667	149.33
723.853	259.92
724.04	253.78
724.227	266.07
724.414	94.04
724.6	210.77
724.787	313.17
724.974	321.36
725.161	251.73
725.347	89.94
725.534	132.95
725.72	194.39
725.907	302.93
726.094	278.35
726.28	161.62
726.467	202.58
726.653	75.6
726.84	264.02
727.027	225.11
727.213	251.73
727.4	237.39
727.586	245.59
727.773	237.39
727.959	214.87
728.145	278.35
728.332	274.26
728.518	114.52
728.705	235.35
728.891	163.67
729.077	135
729.264	216.91
729.45	149.33
729.636	239.44
729.823	225.11
730.009	194.39
730.195	210.77
730.382	229.2
730.568	120.66
730.754	171.86
730.94	132.95
731.126	200.53
731.313	243.54
731.499	255.83
731.685	245.59
731.871	231.25
732.057	294.74
732.243	261.97
732.429	130.9
732.615	333.65
732.801	233.3
732.987	218.96
733.173	204.63
733.359	245.59
733.545	225.11
733.731	145.24
733.917	251.73
734.103	221.01
734.289	321.36
734.475	173.91
734.661	307.02
734.847	218.96
735.033	194.39
735.219	223.06
735.404	184.15
735.59	223.06
735.776	204.63
735.962	233.3
736.148	337.74
736.333	245.59
736.519	198.48
736.705	231.25
736.89	184.15
737.076	319.31
737.262	126.8
737.447	204.63
737.633	188.24
737.819	257.87
738.004	145.24
738.19	247.63
738.375	276.31
738.561	266.07
738.747	309.07
738.932	100.18
739.118	405.33
739.303	204.63
739.489	221.01
739.674	227.15
739.859	206.67
740.045	276.31
740.23	163.67
740.416	165.71
740.601	188.24
740.786	208.72
740.972	94.04
741.157	200.53
741.342	132.95
741.528	98.13
741.713	298.83
741.898	227.15
742.084	257.87
742.269	255.83
742.454	251.73
742.639	292.69
742.824	235.35
743.01	272.21
743.195	309.07
743.38	175.95
743.565	229.2
743.75	184.15
743.935	202.58
744.12	212.82
744.305	169.81
744.49	231.25
744.675	202.58
744.86	214.87
745.045	206.67
745.23	225.11
745.415	132.95
745.6	253.78
745.785	165.71
745.97	227.15
746.155	241.49
746.34	225.11
746.525	208.72
746.71	317.26
746.895	112.47
747.079	104.28
747.264	204.63
747.449	204.63
747.634	227.15
747.819	206.67
748.003	167.76
748.188	100.18
748.373	241.49
748.557	233.3
748.742	190.29
748.927	214.87
749.111	169.81
749.296	186.19
749.481	296.78
749.665	169.81
749.85	126.8
750.034	137.04
750.219	192.34
750.404	163.67
750.588	124.76
750.773	135
750.957	202.58
751.141	116.56
751.326	196.43
751.51	55.12
751.695	118.61
751.879	239.44
752.064	225.11
752.248	214.87
752.432	313.17
752.617	216.91
752.801	227.15
752.985	128.85
753.17	194.39
753.354	259.92
753.538	202.58
753.722	77.65
753.907	147.28
754.091	91.99
754.275	216.91
754.459	116.56
754.643	57.17
754.828	231.25
755.012	282.45
755.196	147.28
755.38	145.24
755.564	87.89
755.748	139.09
755.932	132.95
756.116	204.63
756.3	130.9
756.484	145.24
756.668	130.9
756.852	40.79
757.036	132.95
757.22	114.52
757.404	55.12
757.588	36.69
757.772	135
757.956	98.13
758.14	194.39
758.323	44.88
758.507	153.43
758.691	128.85
758.875	237.39
759.059	171.86
759.242	153.43
759.426	81.75
759.61	89.94
759.794	91.99
759.977	178
760.161	274.26
760.345	210.77
760.528	204.63
760.712	81.75
760.895	188.24
761.079	61.27
761.263	57.17
761.446	16.21
761.63	163.67
761.813	198.48
761.997	16.21
762.18	83.8
762.364	184.15
762.547	-98.47
762.731	83.8
762.914	48.98
763.098	36.69
763.281	73.56
763.464	118.61
763.648	120.66
763.831	163.67
764.015	36.69
764.198	112.47
764.381	157.52
764.564	55.12
764.748	132.95
764.931	28.5
765.114	110.42
765.297	143.19
765.481	42.84
765.664	106.32
765.847	87.89
766.03	186.19
766.213	3.93
766.397	67.41
766.58	12.12
766.763	118.61
766.946	85.84
767.129	42.84
767.312	44.88
767.495	106.32
767.678	-39.08
767.861	104.28
768.044	83.8
768.227	120.66
768.41	108.37
768.593	40.79
768.776	104.28
768.959	67.41
769.142	151.38
769.324	10.07
769.507	36.69
769.69	24.4
769.873	48.98
770.056	294.74
770.239	12.12
770.421	79.7
770.604	147.28
770.787	192.34
770.97	73.56
771.152	-51.37
771.335	98.13
771.518	-4.27
771.7	102.23
771.883	192.34
772.066	-24.75
772.248	151.38
772.431	194.39
772.613	122.71
772.796	32.6
772.978	153.43
773.161	233.3
773.343	28.5
773.526	16.21
773.708	-55.47
773.891	75.6
774.073	38.74
774.256	104.28
774.438	264.02
774.621	-22.7
774.803	122.71
774.985	8.02
775.168	161.62
775.35	24.4
775.532	130.9
775.715	26.45
775.897	81.75
776.079	46.93
776.261	59.22
776.444	65.36
776.626	55.12
776.808	122.71
776.99	-16.55
777.173	83.8
777.355	24.4
777.537	57.17
777.719	42.84
777.901	48.98
778.083	163.67
778.265	-108.71
778.447	198.48
778.629	51.03
778.811	120.66
778.993	51.03
779.175	116.56
779.357	42.84
779.539	-34.99
779.721	100.18
779.903	73.56
780.085	24.4
780.267	32.6
780.449	-0.17
780.631	77.65
780.812	204.63
780.994	65.36
781.176	26.45
781.358	18.26
781.54	91.99
781.721	141.14
781.903	24.4
782.085	22.36
782.267	77.65
782.448	24.4
782.63	-2.22
782.812	130.9
782.993	75.6
783.175	53.08
783.357	44.88
783.538	65.36
783.72	-20.65
783.901	5.97
784.083	104.28
784.264	55.12
784.446	-45.23
784.627	-53.42
784.809	48.98
784.99	-22.7
785.172	40.79
785.353	46.93
785.535	10.07
785.716	-61.61
785.897	-6.31
786.079	-73.9
786.26	48.98
786.441	98.13
786.623	-73.9
786.804	-47.27
786.985	8.02
787.167	10.07
787.348	26.45
787.529	18.26
787.71	145.24
787.891	118.61
788.073	18.26
788.254	-63.66
788.435	120.66
788.616	46.93
788.797	-18.6
788.978	-41.13
789.159	-18.6
789.34	120.66
789.522	12.12
789.703	-55.47
789.884	12.12
790.065	51.03
790.246	100.18
790.427	38.74
790.607	85.84
790.788	36.69
790.969	-118.95
791.15	18.26
791.331	-10.41
791.512	36.69
791.693	24.4
791.874	-41.13
792.054	167.76
792.235	59.22
792.416	3.93
792.597	8.02
792.778	34.64
792.958	53.08
793.139	20.31
793.32	28.5
793.5	-37.03
793.681	135
793.862	57.17
794.042	26.45
794.223	-32.94
794.404	-8.36
794.584	-84.14
794.765	-8.36
794.945	5.97
795.126	81.75
795.306	32.6
795.487	22.36
795.667	79.7
795.848	32.6
796.028	-57.51
796.209	5.97
796.389	87.89
796.57	-16.55
796.75	-16.55
796.93	46.93
797.111	-63.66
797.291	24.4
797.471	106.32
797.652	-20.65
797.832	-53.42
798.012	67.41
798.192	-20.65
798.373	-96.43
798.553	36.69
798.733	77.65
798.913	-34.99
799.093	16.21
799.274	55.12
799.454	98.13
799.634	61.27
799.814	59.22
799.994	89.94
800.174	26.45
800.354	12.12
800.534	-73.9
800.714	108.37
800.894	-55.47
801.074	-96.43
801.254	-73.9
801.434	57.17
801.614	-90.28
801.794	-67.75
801.974	1765.18
802.154	59.22
802.334	118.61
802.514	-6.31
802.693	14.17
802.873	-8.36
803.053	114.52
803.233	26.45
803.413	-96.43
803.592	-26.79
803.772	-59.56
803.952	8.02
804.131	-37.03
804.311	94.04
804.491	202.58
804.67	-75.95
804.85	-24.75
805.03	53.08
805.209	87.89
805.389	-45.23
805.568	-65.71
805.748	18.26
805.928	12.12
806.107	5.97
806.287	89.94
806.466	42.84
806.646	-16.55
806.825	-22.7
807.004	-2.22
807.184	48.98
807.363	51.03
807.543	65.36
807.722	-26.79
807.901	104.28
808.081	122.71
808.26	-112.81
808.439	61.27
808.619	53.08
808.798	-34.99
808.977	48.98
809.156	32.6
809.336	-16.55
809.515	51.03
809.694	-6.31
809.873	-37.03
810.052	110.42
810.231	114.52
810.411	122.71
810.59	94.04
810.769	-22.7
810.948	57.17
811.127	-82.09
811.306	-26.79
811.485	-4.27
811.664	106.32
811.843	-28.84
812.022	-16.55
812.201	3.93
812.38	91.99
812.559	-30.89
812.737	14.17
812.916	-96.43
813.095	-75.95
813.274	46.93
813.453	-6.31
813.632	163.67
813.811	28.5
813.989	-82.09
814.168	28.5
814.347	-75.95
814.526	-4.27
814.704	137.04
814.883	85.84
815.062	-100.52
815.24	22.36
815.419	-114.86
815.598	51.03
815.776	-24.75
815.955	-22.7
816.133	-116.9
816.312	22.36
816.49	5.97
816.669	26.45
816.847	-26.79
817.026	81.75
817.204	73.56
817.383	40.79
817.561	-45.23
817.74	26.45
817.918	-6.31
818.097	-2.22
818.275	34.64
818.453	65.36
818.632	104.28
818.81	-96.43
818.988	-47.27
819.167	-12.46
819.345	-4.27
819.523	-39.08
819.701	-22.7
819.879	36.69
820.058	38.74
820.236	-8.36
820.414	71.51
820.592	-57.51
820.77	94.04
820.948	-63.66
821.127	-61.61
821.305	110.42
821.483	-71.85
821.661	98.13
821.839	-16.55
822.017	-71.85
822.195	51.03
822.373	85.84
822.551	55.12
822.729	14.17
822.907	22.36
823.085	108.37
823.262	75.6
823.44	-59.56
823.618	-121
823.796	-8.36
823.974	-18.6
824.152	36.69
824.329	-45.23
824.507	-0.17
824.685	26.45
824.863	-41.13
825.04	-47.27
825.218	67.41
825.396	48.98
825.574	38.74
825.751	44.88
825.929	12.12
826.107	-39.08
826.284	42.84
826.462	38.74
826.639	-125.1
826.817	-32.94
826.994	-59.56
827.172	5.97
827.349	126.8
827.527	-16.55
827.704	67.41
827.882	40.79
828.059	38.74
828.237	-73.9
828.414	40.79
828.591	-123.05
828.769	71.51
828.946	-51.37
829.124	-26.79
829.301	96.08
829.478	-28.84
829.655	59.22
829.833	-16.55
830.01	-116.9
830.187	40.79
830.364	-6.31
830.542	89.94
830.719	63.32
830.896	38.74
831.073	10.07
831.25	12.12
831.427	67.41
831.604	-12.46
831.782	-41.13
831.959	38.74
832.136	-92.33
832.313	-63.66
832.49	-53.42
832.667	-12.46
832.844	-67.75
833.021	135
833.198	-14.51
833.374	-24.75
833.551	69.46
833.728	5.97
833.905	30.55
834.082	-102.57
834.259	26.45
834.436	22.36
834.612	-47.27
834.789	20.31
834.966	18.26
835.143	24.4
835.319	-94.38
835.496	53.08
835.673	48.98
835.85	12.12
836.026	36.69
836.203	143.19
836.38	-34.99
836.556	-172.2
836.733	-80.04
836.909	79.7
837.086	-88.23
837.262	-67.75
837.439	-53.42
837.616	-6.31
837.792	-45.23
837.968	12.12
838.145	-110.76
838.321	34.64
838.498	-30.89
838.674	-37.03
838.851	-20.65
839.027	-4.27
839.203	-39.08
839.38	32.6
839.556	-26.79
839.732	85.84
839.909	-39.08
840.085	20.31
840.261	-86.19
840.437	1.88
840.614	-53.42
840.79	28.5
840.966	116.56
841.142	-16.55
841.318	-30.89
841.494	46.93
841.671	57.17
841.847	-41.13
842.023	-86.19
842.199	28.5
842.375	63.32
842.551	-133.29
842.727	-118.95
842.903	42.84
843.079	-51.37
843.255	169.81
843.431	20.31
843.607	34.64
843.783	-143.53
843.959	3.93
844.134	-121
844.31	75.6
844.486	-24.75
844.662	-30.89
844.838	-57.51
845.013	14.17
845.189	34.64
845.365	67.41
845.541	-4.27
845.716	53.08
845.892	44.88
846.068	12.12
846.244	-71.85
846.419	28.5
846.595	-55.47
846.77	-100.52
846.946	98.13
847.122	-63.66
847.297	38.74
847.473	132.95
847.648	-86.19
847.824	51.03
847.999	-82.09
848.175	-24.75
848.35	-12.46
848.526	83.8
848.701	132.95
848.876	3.93
849.052	-18.6
849.227	28.5
849.403	-61.61
849.578	-65.71
849.753	53.08
849.929	51.03
850.104	-51.37
850.279	20.31
850.454	-26.79
850.63	71.51
850.805	104.28
850.98	8.02
851.155	-92.33
851.33	-4.27
851.505	-20.65
851.681	124.76
851.856	-77.99
852.031	42.84
852.206	40.79
852.381	-131.24
852.556	5.97
852.731	16.21
852.906	34.64
853.081	12.12
853.256	102.23
853.431	-22.7
853.606	-63.66
853.781	-94.38
853.956	-180.39
854.131	-51.37
854.305	-137.38
854.48	-47.27
854.655	-39.08
854.83	-63.66
855.005	18.26
855.18	-18.6
855.354	14.17
855.529	-4.27
855.704	-6.31
855.879	71.51
856.053	-41.13
856.228	12.12
856.403	-43.18
856.577	128.85
856.752	-155.82
856.926	-65.71
857.101	-22.7
857.276	-112.81
857.45	-8.36
857.625	67.41
857.799	51.03
857.974	32.6
858.148	-114.86
858.323	55.12
858.497	1.88
858.672	-112.81
858.846	-141.48
859.02	5.97
859.195	-106.67
859.369	-67.75
859.543	48.98
859.718	-10.41
859.892	36.69
860.066	-24.75
860.241	22.36
860.415	-34.99
860.589	-43.18
860.763	34.64
860.938	-59.56
861.112	120.66
861.286	-47.27
861.46	8.02
861.634	-16.55
861.808	79.7
861.982	-57.51
862.157	-43.18
862.331	12.12
862.505	-98.47
862.679	-37.03
862.853	-37.03
863.027	-24.75
863.201	77.65
863.375	-63.66
863.549	22.36
863.722	81.75
863.896	79.7
864.07	-20.65
864.244	30.55
864.418	89.94
864.592	3.93
864.766	-28.84
864.939	48.98
865.113	-106.67
865.287	91.99
865.461	-77.99
865.634	32.6
865.808	-41.13
865.982	20.31
866.156	-69.8
866.329	-82.09
866.503	-57.51
866.676	65.36
866.85	61.27
867.024	-10.41
867.197	20.31
867.371	85.84
867.544	116.56
867.718	-37.03
867.891	34.64
868.065	-147.62
868.238	-16.55
868.412	20.31
868.585	16.21
868.759	-88.23
868.932	48.98
869.105	-20.65
869.279	-16.55
869.452	-63.66
869.625	18.26
869.799	1.88
869.972	-47.27
870.145	-118.95
870.319	85.84
870.492	-49.32
870.665	-51.37
870.838	-55.47
871.011	-30.89
871.185	-18.6
871.358	-14.51
871.531	65.36
871.704	-102.57
871.877	42.84
872.05	-47.27
872.223	-116.9
872.396	36.69
872.569	26.45
872.742	-145.58
872.915	71.51
873.088	-102.57
873.261	-53.42
873.434	89.94
873.607	-80.04
873.78	67.41
873.953	-18.6
874.126	38.74
874.299	69.46
874.471	22.36
874.644	-30.89
874.817	32.6
874.99	102.23
875.163	-45.23
875.335	-28.84
875.508	-32.94
875.681	57.17
875.853	-32.94
876.026	18.26
876.199	85.84
876.371	46.93
876.544	12.12
876.717	-20.65
876.889	-32.94
877.062	-24.75
877.234	-131.24
877.407	-32.94
877.579	-94.38
877.752	-0.17
877.924	34.64
878.097	135
878.269	63.32
878.442	-22.7
878.614	51.03
878.786	79.7
878.959	-22.7
879.131	5.97
879.303	-86.19
879.476	-10.41
879.648	96.08
879.82	12.12
879.993	14.17
880.165	-8.36
880.337	-98.47
880.509	1.88
880.681	-10.41
880.854	-170.15
881.026	10.07
881.198	89.94
881.37	-45.23
881.542	22.36
881.714	-37.03
881.886	-32.94
882.058	5.97
882.23	-67.75
882.402	-4.27
882.574	-43.18
882.746	96.08
882.918	48.98
883.09	44.88
883.262	-51.37
883.434	67.41
883.606	-147.62
883.778	-14.51
883.95	159.57
884.122	-26.79
884.293	67.41
884.465	16.21
884.637	96.08
884.809	-26.79
884.98	135
885.152	28.5
885.324	79.7
885.496	-6.31
885.667	-51.37
885.839	-59.56
886.011	91.99
886.182	-8.36
886.354	83.8
886.525	20.31
886.697	18.26
886.869	-73.9
887.04	-41.13
887.212	104.28
887.383	157.52
887.555	14.17
887.726	-14.51
887.897	-28.84
888.069	-43.18
888.24	77.65
888.412	18.26
888.583	8.02
888.754	-2.22
888.926	-123.05
889.097	-53.42
889.268	-82.09
889.44	-4.27
889.611	-139.43
889.782	-84.14
889.953	-22.7
890.125	85.84
890.296	-123.05
890.467	-26.79
890.638	-143.53
890.809	18.26
890.98	-86.19
891.151	-24.75
891.323	55.12
891.494	-12.46
891.665	-10.41
891.836	-18.6
892.007	-12.46
892.178	22.36
892.349	-10.41
892.52	-34.99
892.691	14.17
892.862	-135.34
893.032	-127.14
893.203	-28.84
893.374	67.41
893.545	126.8
893.716	-28.84
893.887	130.9
894.057	-22.7
894.228	-69.8
894.399	-20.65
894.57	87.89
894.74	-92.33
894.911	-39.08
895.082	-0.17
895.253	-143.53
895.423	-45.23
895.594	-32.94
895.764	-8.36
895.935	-125.1
896.106	-0.17
896.276	20.31
896.447	3.93
896.617	-39.08
896.788	-90.28
896.958	-67.75
897.129	-86.19
897.299	-4.27
897.47	110.42
897.64	-6.31
897.81	-32.94
897.981	-43.18
898.151	-26.79
898.322	83.8
898.492	-6.31
898.662	-65.71
898.832	-80.04
899.003	14.17
899.173	5.97
899.343	-118.95
899.513	-4.27
