Data from USB4F104151__49__10-43-22-076.txt Node

Date: Wed Feb 26 10:43:22 EST 2025
User: louis
Spectrometer: USB4F10415
Trigger mode: 4
Integration Time (sec): 1.000000E-1
Scans to average: 1
Electric dark correction enabled: true
Nonlinearity correction enabled: false
Boxcar width: 0
XAxis mode: Wavelengths
Number of Pixels in Spectrum: 3648
>>>>>Begin Spectral Data<<<<<
178.204	-397.48
178.424	-397.48
178.644	-397.48
178.864	-391.33
179.084	-477.35
179.304	-43.18
179.524	-49.32
179.744	-41.13
179.964	46.93
180.184	22.36
180.404	28.5
180.624	-0.17
180.844	-55.47
181.064	-2.22
181.283	51.03
181.503	-6.31
181.723	48.98
181.943	-69.8
182.163	130.9
182.383	20.31
182.602	83.8
182.822	202.58
183.042	91.99
183.262	-47.27
183.482	-0.17
183.701	-14.51
183.921	10.07
184.141	-100.52
184.361	51.03
184.58	51.03
184.8	96.08
185.02	-41.13
185.239	143.19
185.459	98.13
185.679	120.66
185.898	-129.19
186.118	79.7
186.338	-45.23
186.557	155.47
186.777	12.12
186.997	-2.22
187.216	-22.7
187.436	194.39
187.655	16.21
187.875	67.41
188.095	61.27
188.314	104.28
188.534	126.8
188.753	-14.51
188.973	48.98
189.192	223.06
189.412	-26.79
189.631	26.45
189.851	34.64
190.07	167.76
190.29	14.17
190.509	-49.32
190.729	53.08
190.948	149.33
191.168	182.1
191.387	42.84
191.607	42.84
191.826	53.08
192.045	20.31
192.265	8.02
192.484	89.94
192.704	36.69
192.923	-84.14
193.142	128.85
193.362	46.93
193.581	147.28
193.8	102.23
194.02	126.8
194.239	22.36
194.458	104.28
194.678	26.45
194.897	20.31
195.116	42.84
195.335	75.6
195.555	89.94
195.774	5.97
195.993	118.61
196.212	165.71
196.432	-92.33
196.651	16.21
196.87	51.03
197.089	264.02
197.308	57.17
197.528	61.27
197.747	-26.79
197.966	10.07
198.185	159.57
198.404	-18.6
198.623	114.52
198.842	147.28
199.062	55.12
199.281	65.36
199.5	44.88
199.719	110.42
199.938	28.5
200.157	145.24
200.376	89.94
200.595	161.62
200.814	55.12
201.033	-69.8
201.252	149.33
201.471	3.93
201.69	10.07
201.909	-32.94
202.128	32.6
202.347	63.32
202.566	79.7
202.785	-61.61
203.004	-51.37
203.223	282.45
203.442	96.08
203.661	-8.36
203.879	14.17
204.098	42.84
204.317	-34.99
204.536	57.17
204.755	75.6
204.974	108.37
205.193	-10.41
205.411	165.71
205.63	122.71
205.849	87.89
206.068	-6.31
206.287	8.02
206.505	124.76
206.724	44.88
206.943	-2.22
207.162	-4.27
207.381	53.08
207.599	28.5
207.818	65.36
208.037	-41.13
208.255	-16.55
208.474	85.84
208.693	53.08
208.911	3.93
209.13	120.66
209.349	132.95
209.567	67.41
209.786	79.7
210.005	147.28
210.223	-2.22
210.442	-32.94
210.661	26.45
210.879	40.79
211.098	53.08
211.316	96.08
211.535	132.95
211.753	-16.55
211.972	100.18
212.191	-6.31
212.409	36.69
212.628	118.61
212.846	-20.65
213.065	81.75
213.283	83.8
213.502	32.6
213.72	22.36
213.938	8.02
214.157	-18.6
214.375	63.32
214.594	-14.51
214.812	63.32
215.031	14.17
215.249	22.36
215.467	26.45
215.686	44.88
215.904	85.84
216.122	3.93
216.341	120.66
216.559	3.93
216.778	100.18
216.996	149.33
217.214	-8.36
217.432	28.5
217.651	-39.08
217.869	79.7
218.087	-20.65
218.306	34.64
218.524	83.8
218.742	1.88
218.96	110.42
219.179	44.88
219.397	44.88
219.615	241.49
219.833	163.67
220.051	-45.23
220.27	157.52
220.488	32.6
220.706	85.84
220.924	-16.55
221.142	-18.6
221.36	98.13
221.578	96.08
221.796	40.79
222.015	67.41
222.233	51.03
222.451	89.94
222.669	28.5
222.887	128.85
223.105	3.93
223.323	8.02
223.541	-2.22
223.759	69.46
223.977	22.36
224.195	147.28
224.413	12.12
224.631	38.74
224.849	65.36
225.067	190.29
225.285	-10.41
225.503	-4.27
225.721	-55.47
225.939	96.08
226.157	104.28
226.375	229.2
226.592	12.12
226.81	20.31
227.028	104.28
227.246	94.04
227.464	114.52
227.682	59.22
227.9	151.38
228.117	73.56
228.335	106.32
228.553	48.98
228.771	48.98
228.989	24.4
229.206	75.6
229.424	-2.22
229.642	-53.42
229.86	-43.18
230.077	139.09
230.295	3.93
230.513	128.85
230.731	42.84
230.948	186.19
231.166	171.86
231.384	-10.41
231.601	-49.32
231.819	190.29
232.037	24.4
232.254	12.12
232.472	18.26
232.689	65.36
232.907	61.27
233.125	8.02
233.342	10.07
233.56	40.79
233.777	-16.55
233.995	-18.6
234.213	122.71
234.43	1.88
234.648	-6.31
234.865	22.36
235.083	118.61
235.3	5.97
235.518	40.79
235.735	132.95
235.953	38.74
236.17	59.22
236.388	-39.08
236.605	102.23
236.822	151.38
237.04	57.17
237.257	83.8
237.475	-51.37
237.692	55.12
237.909	61.27
238.127	40.79
238.344	10.07
238.562	38.74
238.779	-30.89
238.996	-49.32
239.214	55.12
239.431	61.27
239.648	36.69
239.865	116.56
240.083	89.94
240.3	51.03
240.517	65.36
240.735	51.03
240.952	85.84
241.169	91.99
241.386	106.32
241.603	96.08
241.821	-73.9
242.038	143.19
242.255	106.32
242.472	-110.76
242.689	77.65
242.907	1.88
243.124	110.42
243.341	-34.99
243.558	-14.51
243.775	-8.36
243.992	-106.67
244.209	61.27
244.426	167.76
244.643	91.99
244.86	28.5
245.078	155.47
245.295	73.56
245.512	-10.41
245.729	61.27
245.946	18.26
246.163	73.56
246.38	26.45
246.597	1.88
246.814	36.69
247.031	24.4
247.248	12.12
247.464	124.76
247.681	1.88
247.898	57.17
248.115	71.51
248.332	12.12
248.549	67.41
248.766	208.72
248.983	36.69
249.2	30.55
249.417	75.6
249.633	-61.61
249.85	-37.03
250.067	98.13
250.284	53.08
250.501	-2.22
250.717	71.51
250.934	-49.32
251.151	57.17
251.368	28.5
251.585	100.18
251.801	20.31
252.018	-8.36
252.235	139.09
252.451	8.02
252.668	67.41
252.885	124.76
253.102	65.36
253.318	-49.32
253.535	48.98
253.752	-10.41
253.968	16.21
254.185	-37.03
254.401	77.65
254.618	104.28
254.835	-18.6
255.051	151.38
255.268	28.5
255.484	1.88
255.701	10.07
255.917	96.08
256.134	-12.46
256.351	16.21
256.567	-43.18
256.784	28.5
257	-51.37
257.217	126.8
257.433	69.46
257.65	85.84
257.866	149.33
258.082	-41.13
258.299	-84.14
258.515	-37.03
258.732	14.17
258.948	-20.65
259.165	57.17
259.381	-28.84
259.597	104.28
259.814	34.64
260.03	38.74
260.246	36.69
260.463	149.33
260.679	63.32
260.895	61.27
261.112	73.56
261.328	114.52
261.544	-55.47
261.761	198.48
261.977	-18.6
262.193	-51.37
262.409	69.46
262.626	-61.61
262.842	46.93
263.058	1.88
263.274	96.08
263.49	87.89
263.707	114.52
263.923	126.8
264.139	-57.51
264.355	16.21
264.571	94.04
264.787	-8.36
265.004	178
265.22	12.12
265.436	18.26
265.652	87.89
265.868	63.32
266.084	-8.36
266.3	26.45
266.516	-90.28
266.732	-6.31
266.948	110.42
267.164	85.84
267.38	61.27
267.596	104.28
267.812	151.38
268.028	75.6
268.244	-2.22
268.46	108.37
268.676	22.36
268.892	67.41
269.108	-18.6
269.324	5.97
269.54	-57.51
269.756	137.04
269.972	-18.6
270.188	-14.51
270.403	-16.55
270.619	-37.03
270.835	98.13
271.051	-12.46
271.267	-41.13
271.483	-73.9
271.698	57.17
271.914	30.55
272.13	57.17
272.346	22.36
272.562	12.12
272.777	81.75
272.993	46.93
273.209	-16.55
273.425	-4.27
273.64	8.02
273.856	98.13
274.072	-41.13
274.287	20.31
274.503	122.71
274.719	48.98
274.934	-57.51
275.15	-75.95
275.366	28.5
275.581	-22.7
275.797	-28.84
276.012	-12.46
276.228	-16.55
276.444	20.31
276.659	98.13
276.875	10.07
277.09	22.36
277.306	34.64
277.521	116.56
277.737	51.03
277.952	137.04
278.168	-2.22
278.383	30.55
278.599	59.22
278.814	32.6
279.03	59.22
279.245	77.65
279.461	-14.51
279.676	57.17
279.892	-41.13
280.107	-67.75
280.322	-61.61
280.538	57.17
280.753	-0.17
280.969	24.4
281.184	-2.22
281.399	169.81
281.615	32.6
281.83	44.88
282.045	-63.66
282.26	-73.9
282.476	71.51
282.691	159.57
282.906	36.69
283.122	-8.36
283.337	-4.27
283.552	89.94
283.767	-47.27
283.983	87.89
284.198	3.93
284.413	126.8
284.628	-39.08
284.843	77.65
285.058	59.22
285.274	-69.8
285.489	44.88
285.704	75.6
285.919	59.22
286.134	14.17
286.349	-28.84
286.564	3.93
286.779	180.05
286.995	-4.27
287.21	-6.31
287.425	63.32
287.64	28.5
287.855	112.47
288.07	-88.23
288.285	130.9
288.5	108.37
288.715	104.28
288.93	42.84
289.145	-69.8
289.36	108.37
289.575	-32.94
289.79	61.27
290.004	-0.17
290.219	-12.46
290.434	8.02
290.649	14.17
290.864	-18.6
291.079	18.26
291.294	130.9
291.509	108.37
291.724	44.88
291.938	12.12
292.153	100.18
292.368	8.02
292.583	128.85
292.798	46.93
293.012	10.07
293.227	102.23
293.442	-26.79
293.657	79.7
293.871	167.76
294.086	53.08
294.301	194.39
294.516	59.22
294.73	53.08
294.945	-41.13
295.16	36.69
295.374	120.66
295.589	83.8
295.804	-41.13
296.018	69.46
296.233	91.99
296.447	14.17
296.662	-28.84
296.877	57.17
297.091	59.22
297.306	18.26
297.52	-96.43
297.735	-12.46
297.949	67.41
298.164	-10.41
298.378	81.75
298.593	18.26
298.807	-28.84
299.022	61.27
299.236	102.23
299.451	87.89
299.665	16.21
299.88	16.21
300.094	46.93
300.309	73.56
300.523	3.93
300.737	14.17
300.952	75.6
301.166	75.6
301.381	-16.55
301.595	-22.7
301.809	51.03
302.024	26.45
302.238	26.45
302.452	180.05
302.667	24.4
302.881	116.56
303.095	75.6
303.309	-14.51
303.524	-77.99
303.738	34.64
303.952	12.12
304.166	57.17
304.381	-90.28
304.595	159.57
304.809	3.93
305.023	-22.7
305.237	118.61
305.452	67.41
305.666	75.6
305.88	89.94
306.094	38.74
306.308	98.13
306.522	81.75
306.736	139.09
306.95	79.7
307.164	36.69
307.379	36.69
307.593	175.95
307.807	175.95
308.021	139.09
308.235	-6.31
308.449	-47.27
308.663	-16.55
308.877	247.63
309.091	91.99
309.305	44.88
309.519	-65.71
309.733	94.04
309.947	-61.61
310.161	91.99
310.374	75.6
310.588	112.47
310.802	-39.08
311.016	24.4
311.23	28.5
311.444	67.41
311.658	32.6
311.872	83.8
312.085	137.04
312.299	200.53
312.513	79.7
312.727	79.7
312.941	-49.32
313.154	14.17
313.368	18.26
313.582	63.32
313.796	53.08
314.009	-4.27
314.223	137.04
314.437	73.56
314.651	145.24
314.864	67.41
315.078	-20.65
315.292	-98.47
315.505	-49.32
315.719	44.88
315.933	139.09
316.146	-43.18
316.36	16.21
316.573	102.23
316.787	53.08
317.001	75.6
317.214	-49.32
317.428	48.98
317.641	-2.22
317.855	57.17
318.068	48.98
318.282	44.88
318.495	206.67
318.709	89.94
318.922	36.69
319.136	141.14
319.349	112.47
319.563	-14.51
319.776	128.85
319.99	-65.71
320.203	114.52
320.417	34.64
320.63	135
320.843	178
321.057	96.08
321.27	-8.36
321.483	42.84
321.697	85.84
321.91	28.5
322.124	118.61
322.337	48.98
322.55	-32.94
322.763	42.84
322.977	51.03
323.19	53.08
323.403	75.6
323.617	118.61
323.83	89.94
324.043	77.65
324.256	157.52
324.469	-16.55
324.683	124.76
324.896	69.46
325.109	114.52
325.322	-80.04
325.535	104.28
325.748	48.98
325.962	-75.95
326.175	83.8
326.388	102.23
326.601	98.13
326.814	-30.89
327.027	94.04
327.24	149.33
327.453	-28.84
327.666	114.52
327.879	77.65
328.092	106.32
328.305	55.12
328.518	44.88
328.731	20.31
328.944	51.03
329.157	100.18
329.37	-6.31
329.583	130.9
329.796	128.85
330.009	-73.9
330.222	116.56
330.435	104.28
330.648	24.4
330.861	5.97
331.073	126.8
331.286	81.75
331.499	69.46
331.712	-45.23
331.925	18.26
332.138	48.98
332.35	100.18
332.563	51.03
332.776	114.52
332.989	-0.17
333.202	-22.7
333.414	-43.18
333.627	-24.75
333.84	24.4
334.053	57.17
334.265	59.22
334.478	-51.37
334.691	67.41
334.903	53.08
335.116	-98.47
335.329	10.07
335.541	34.64
335.754	165.71
335.966	-73.9
336.179	-6.31
336.392	-18.6
336.604	36.69
336.817	135
337.029	83.8
337.242	57.17
337.454	85.84
337.667	71.51
337.88	85.84
338.092	112.47
338.305	44.88
338.517	-26.79
338.729	3.93
338.942	165.71
339.154	12.12
339.367	5.97
339.579	63.32
339.792	10.07
340.004	57.17
340.217	28.5
340.429	59.22
340.641	-4.27
340.854	-41.13
341.066	3.93
341.278	79.7
341.491	141.14
341.703	63.32
341.915	20.31
342.128	110.42
342.34	5.97
342.552	-39.08
342.764	98.13
342.977	-39.08
343.189	81.75
343.401	40.79
343.613	-57.51
343.826	143.19
344.038	-22.7
344.25	51.03
344.462	-47.27
344.674	94.04
344.886	-24.75
345.099	73.56
345.311	81.75
345.523	-6.31
345.735	-49.32
345.947	16.21
346.159	59.22
346.371	38.74
346.583	-4.27
346.795	110.42
347.007	8.02
347.219	110.42
347.431	-24.75
347.643	108.37
347.855	-10.41
348.067	128.85
348.279	-69.8
348.491	46.93
348.703	16.21
348.915	34.64
349.127	10.07
349.339	24.4
349.551	-55.47
349.763	48.98
349.975	16.21
350.187	104.28
350.399	206.67
350.61	59.22
350.822	71.51
351.034	53.08
351.246	96.08
351.458	106.32
351.669	98.13
351.881	46.93
352.093	42.84
352.305	167.76
352.517	67.41
352.728	22.36
352.94	44.88
353.152	53.08
353.363	8.02
353.575	71.51
353.787	155.47
353.999	-20.65
354.21	167.76
354.422	22.36
354.633	-16.55
354.845	51.03
355.057	85.84
355.268	69.46
355.48	110.42
355.692	1.88
355.903	24.4
356.115	-0.17
356.326	-43.18
356.538	98.13
356.749	130.9
356.961	151.38
357.172	59.22
357.384	-8.36
357.595	311.12
357.807	-51.37
358.018	1.88
358.23	36.69
358.441	149.33
358.653	87.89
358.864	-41.13
359.075	-4.27
359.287	77.65
359.498	149.33
359.709	42.84
359.921	104.28
360.132	71.51
360.344	38.74
360.555	-12.46
360.766	51.03
360.977	5.97
361.189	178
361.4	28.5
361.611	132.95
361.823	98.13
362.034	-24.75
362.245	-94.38
362.456	14.17
362.667	53.08
362.879	-4.27
363.09	73.56
363.301	38.74
363.512	-22.7
363.723	-6.31
363.935	10.07
364.146	120.66
364.357	85.84
364.568	16.21
364.779	38.74
364.99	182.1
365.201	-6.31
365.412	63.32
365.623	-110.76
365.834	22.36
366.045	77.65
366.256	120.66
366.467	159.57
366.678	46.93
366.889	18.26
367.1	-18.6
367.311	137.04
367.522	61.27
367.733	59.22
367.944	22.36
368.155	10.07
368.366	112.47
368.577	96.08
368.788	87.89
368.999	-28.84
369.209	28.5
369.42	151.38
369.631	231.25
369.842	24.4
370.053	-53.42
370.264	141.14
370.474	12.12
370.685	67.41
370.896	36.69
371.107	96.08
371.317	87.89
371.528	28.5
371.739	118.61
371.95	141.14
372.16	57.17
372.371	-37.03
372.582	-32.94
372.792	69.46
373.003	112.47
373.214	77.65
373.424	40.79
373.635	-34.99
373.846	184.15
374.056	44.88
374.267	38.74
374.477	65.36
374.688	-8.36
374.898	-45.23
375.109	14.17
375.319	130.9
375.53	85.84
375.74	81.75
375.951	77.65
376.161	116.56
376.372	71.51
376.582	-4.27
376.793	122.71
377.003	40.79
377.214	3.93
377.424	102.23
377.635	-18.6
377.845	-39.08
378.055	227.15
378.266	-26.79
378.476	38.74
378.686	104.28
378.897	77.65
379.107	85.84
379.317	94.04
379.528	-14.51
379.738	100.18
379.948	24.4
380.158	57.17
380.369	-4.27
380.579	14.17
380.789	-28.84
380.999	63.32
381.21	67.41
381.42	182.1
381.63	-22.7
381.84	89.94
382.05	89.94
382.261	182.1
382.471	128.85
382.681	-45.23
382.891	94.04
383.101	40.79
383.311	-28.84
383.521	-80.04
383.731	106.32
383.941	198.48
384.151	10.07
384.361	65.36
384.571	67.41
384.781	65.36
384.991	231.25
385.201	247.63
385.411	147.28
385.621	36.69
385.831	-22.7
386.041	36.69
386.251	87.89
386.461	81.75
386.671	63.32
386.881	75.6
387.091	-10.41
387.301	124.76
387.511	91.99
387.72	122.71
387.93	132.95
388.14	-28.84
388.35	102.23
388.56	12.12
388.769	137.04
388.979	-6.31
389.189	-0.17
389.399	28.5
389.609	16.21
389.818	169.81
390.028	104.28
390.238	40.79
390.447	-0.17
390.657	100.18
390.867	42.84
391.076	1.88
391.286	48.98
391.496	53.08
391.705	5.97
391.915	182.1
392.125	141.14
392.334	-45.23
392.544	118.61
392.753	-30.89
392.963	-86.19
393.172	24.4
393.382	-2.22
393.591	223.06
393.801	-49.32
394.01	149.33
394.22	91.99
394.429	51.03
394.639	30.55
394.848	104.28
395.058	44.88
395.267	36.69
395.477	71.51
395.686	69.46
395.895	225.11
396.105	198.48
396.314	63.32
396.524	98.13
396.733	26.45
396.942	126.8
397.152	63.32
397.361	63.32
397.57	143.19
397.78	65.36
397.989	65.36
398.198	268.11
398.407	-6.31
398.617	40.79
398.826	51.03
399.035	-94.38
399.244	180.05
399.453	28.5
399.663	81.75
399.872	40.79
400.081	-24.75
400.29	108.37
400.499	-2.22
400.708	42.84
400.917	106.32
401.127	22.36
401.336	5.97
401.545	147.28
401.754	98.13
401.963	118.61
402.172	51.03
402.381	-49.32
402.59	8.02
402.799	24.4
403.008	155.47
403.217	30.55
403.426	57.17
403.635	-80.04
403.844	38.74
404.053	55.12
404.262	-53.42
404.471	141.14
404.68	63.32
404.888	-10.41
405.097	3.93
405.306	96.08
405.515	79.7
405.724	-2.22
405.933	96.08
406.142	100.18
406.35	155.47
406.559	40.79
406.768	126.8
406.977	163.67
407.185	102.23
407.394	81.75
407.603	18.26
407.812	100.18
408.02	173.91
408.229	5.97
408.438	48.98
408.646	-32.94
408.855	38.74
409.064	40.79
409.272	55.12
409.481	59.22
409.69	5.97
409.898	-26.79
410.107	65.36
410.315	81.75
410.524	-61.61
410.733	30.55
410.941	30.55
411.15	110.42
411.358	114.52
411.567	145.24
411.775	118.61
411.984	28.5
412.192	81.75
412.401	-18.6
412.609	208.72
412.818	85.84
413.026	141.14
413.234	-2.22
413.443	-16.55
413.651	71.51
413.86	77.65
414.068	122.71
414.276	221.01
414.485	24.4
414.693	178
414.901	227.15
415.11	75.6
415.318	36.69
415.526	79.7
415.734	151.38
415.943	48.98
416.151	102.23
416.359	73.56
416.567	20.31
416.776	42.84
416.984	120.66
417.192	98.13
417.4	12.12
417.608	-10.41
417.817	16.21
418.025	83.8
418.233	114.52
418.441	-12.46
418.649	-61.61
418.857	112.47
419.065	173.91
419.273	-26.79
419.481	3.93
419.689	30.55
419.897	38.74
420.105	46.93
420.313	98.13
420.521	149.33
420.729	132.95
420.937	34.64
421.145	48.98
421.353	126.8
421.561	202.58
421.769	36.69
421.977	-30.89
422.185	100.18
422.393	38.74
422.601	149.33
422.809	145.24
423.017	73.56
423.224	40.79
423.432	55.12
423.64	67.41
423.848	178
424.056	-12.46
424.263	112.47
424.471	24.4
424.679	167.76
424.887	-22.7
425.094	79.7
425.302	122.71
425.51	91.99
425.718	147.28
425.925	38.74
426.133	108.37
426.341	204.63
426.548	26.45
426.756	1.88
426.964	79.7
427.171	135
427.379	94.04
427.586	102.23
427.794	73.56
428.001	79.7
428.209	26.45
428.417	165.71
428.624	122.71
428.832	147.28
429.039	147.28
429.247	173.91
429.454	100.18
429.662	223.06
429.869	98.13
430.076	112.47
430.284	120.66
430.491	249.68
430.699	190.29
430.906	221.01
431.114	149.33
431.321	206.67
431.528	122.71
431.736	102.23
431.943	153.43
432.15	264.02
432.358	149.33
432.565	284.5
432.772	-14.51
432.979	245.59
433.187	163.67
433.394	249.68
433.601	216.91
433.808	266.07
434.016	206.67
434.223	282.45
434.43	266.07
434.637	268.11
434.844	255.83
435.052	261.97
435.259	278.35
435.466	284.5
435.673	259.92
435.88	331.6
436.087	360.27
436.294	399.18
436.501	372.56
436.708	284.5
436.915	345.94
437.122	431.95
437.329	268.11
437.537	345.94
437.743	378.7
437.95	438.09
438.157	456.53
438.364	464.72
438.571	474.96
438.778	485.2
438.985	554.83
439.192	628.56
439.399	462.67
439.606	587.6
439.813	569.16
440.02	667.47
440.227	667.47
440.433	679.75
440.64	644.94
440.847	528.21
441.054	626.51
441.261	808.78
441.467	696.14
441.674	671.56
441.881	810.82
442.088	702.28
442.294	821.06
442.501	798.54
442.708	839.5
442.914	866.12
443.121	958.28
443.328	937.8
443.534	1068.87
443.741	982.85
443.948	862.02
444.154	1048.39
444.361	1318.72
444.568	1165.12
444.774	1230.66
444.981	1206.08
445.187	1339.2
445.394	1417.02
445.6	1402.69
445.807	1521.47
446.013	1388.35
446.22	1455.94
446.426	1558.33
446.633	1707.84
446.839	1847.1
447.046	1677.12
447.252	1916.73
447.459	1861.43
447.665	1908.54
447.871	2072.37
448.078	2146.1
448.284	2019.13
448.491	2354.99
448.697	2314.03
448.903	2410.29
449.11	2475.82
449.316	2459.44
449.522	2729.77
449.728	2809.64
449.935	2826.03
450.141	2895.66
450.347	3094.31
450.553	3110.69
450.76	3172.13
450.966	3264.29
451.172	3426.08
451.378	3657.5
451.584	3725.08
451.791	3895.07
451.997	3956.5
452.203	4185.88
452.409	4445.97
452.615	4484.88
452.821	4280.08
453.027	4351.76
453.233	5023.5
453.44	4718.35
453.646	5068.55
453.852	5388.04
454.058	5478.15
454.264	5670.65
454.47	6166.26
454.676	6002.43
454.882	6641.39
455.088	6389.49
455.294	6629.1
455.5	7214.82
455.705	7530.21
455.911	7532.26
456.117	7821.02
456.323	7950.04
456.529	8019.67
456.735	9000.65
456.941	9014.99
457.147	9494.21
457.352	9504.45
457.558	9782.98
457.764	10563.25
457.97	10718.9
458.176	11013.81
458.381	11806.37
458.587	12105.37
458.793	12570.26
458.999	12404.38
459.204	14055.04
459.41	14540.41
459.616	14286.46
459.821	15279.72
460.027	15674.98
460.233	16455.26
460.438	16748.12
460.644	17765.96
460.85	17628.74
461.055	18202.18
461.261	19385.9
461.466	19072.56
461.672	19349.04
461.878	21714.44
462.083	21067.28
462.289	22142.47
462.494	22803.96
462.7	22789.63
462.905	23182.84
463.111	25013.72
463.316	26219.97
463.522	26813.88
463.727	27848.11
463.932	28865.95
464.138	29648.27
464.343	30553.48
464.549	31118.71
464.754	32824.67
464.959	34006.35
465.165	34530.63
465.37	34553.16
465.575	34411.85
465.781	36437.29
465.986	37852.44
466.191	36957.47
466.397	37475.61
466.602	36570.41
466.807	38558.98
467.012	39136.51
467.218	40248.56
467.423	40076.53
467.628	41362.65
467.833	43482.3
468.038	43029.7
468.244	42167.51
468.449	44106.93
468.654	43105.48
468.859	42935.49
469.064	43123.91
469.269	42194.13
469.474	42386.64
469.679	43848.89
469.885	42742.99
470.09	43050.18
470.295	43115.72
470.5	42351.82
470.705	42439.89
470.91	41653.47
471.115	41258.21
471.32	41938.13
471.525	40998.12
471.73	40066.29
471.935	40008.95
472.139	38436.11
472.344	38917.38
472.549	38227.21
472.754	37862.68
472.959	37121.31
473.164	35900.72
473.369	35188.03
473.574	36134.19
473.778	35603.77
473.983	34952.51
474.188	34116.94
474.393	32861.54
474.598	32650.6
474.802	31737.2
475.007	31790.45
475.212	31139.19
475.417	29810.06
475.621	29664.66
475.826	29345.17
476.031	28495.27
476.235	28005.8
476.44	28013.99
476.645	27522.48
476.849	27207.09
477.054	26584.51
477.259	26023.37
477.463	26170.82
477.668	25120.21
477.872	25171.41
478.077	24815.07
478.282	24032.74
478.486	23895.53
478.691	23303.67
478.895	23260.66
479.1	22990.33
479.304	23184.88
479.509	21800.46
479.713	22801.91
479.918	21470.73
480.122	21523.98
480.326	21698.06
480.531	21773.83
480.735	21337.62
480.94	20956.69
481.144	21569.04
481.348	20463.13
481.553	20479.52
481.757	19809.83
481.961	20274.72
482.166	20401.69
482.37	19885.61
482.574	19453.48
482.778	19723.82
482.983	19744.3
483.187	19527.21
483.391	19549.74
483.595	19082.8
483.8	18746.94
484.004	18757.18
484.208	18798.13
484.412	18398.78
484.616	18458.17
484.821	18034.24
485.025	17446.48
485.229	17634.89
485.433	17155.66
485.637	17241.68
485.841	17065.55
486.045	16873.04
486.249	16639.58
486.453	16055.9
486.657	16410.2
486.861	15842.92
487.065	15156.85
487.269	15287.92
487.473	14861.94
487.677	15064.69
487.881	15001.2
488.085	14462.58
488.289	14190.2
488.493	13760.13
488.697	14059.13
488.901	13596.29
489.105	13022.86
489.309	13086.35
489.512	12967.57
489.716	12781.2
489.92	12453.53
490.124	12142.24
490.328	12306.07
490.531	11724.45
490.735	11806.37
490.939	11425.45
491.143	11022
491.346	10950.32
491.55	10839.73
491.754	10757.81
491.958	10389.17
492.161	10358.46
492.365	10305.21
492.569	9901.76
492.772	9971.39
492.976	9868.99
493.18	9449.16
493.383	9434.82
493.587	9440.97
493.79	9328.33
493.994	8758.99
494.197	8914.64
494.401	8779.47
494.605	8726.22
494.808	8740.56
495.012	8853.2
495.215	8726.22
495.419	8691.41
495.622	8345.3
495.825	8503
496.029	8351.45
496.232	8511.19
496.436	8238.81
496.639	8459.99
496.843	8306.39
497.046	8318.68
497.249	8304.34
497.453	8394.45
497.656	8189.66
497.859	8150.74
498.063	8279.77
498.266	8322.77
498.469	8177.37
498.673	8197.85
498.876	8472.28
499.079	8453.84
499.282	8335.06
499.485	8584.91
499.689	8484.56
499.892	8611.54
500.095	8613.59
500.298	8709.84
500.501	8429.27
500.705	8670.93
500.908	8728.27
501.111	8910.54
501.314	8740.56
501.517	8947.4
501.72	9164.49
501.923	9137.87
502.126	9313.99
502.329	9443.01
502.532	9580.23
502.735	9414.34
502.938	9633.47
503.141	9688.77
503.344	9934.53
503.547	9799.36
503.75	10022.59
503.953	10167.99
504.156	10452.66
504.359	10448.57
504.562	10532.53
504.765	10852.02
504.968	10884.78
505.17	11214.51
505.373	11304.62
505.576	11374.25
505.779	11509.41
505.982	11566.76
506.185	12127.9
506.387	11863.71
506.59	12381.85
506.793	12709.52
506.996	12590.74
507.198	13088.4
507.401	13405.83
507.604	13287.05
507.807	13870.72
508.009	14214.78
508.212	14384.76
508.415	14651
508.617	14849.65
508.82	14945.91
509.022	15382.12
509.225	15697.51
509.428	16096.86
509.63	16303.71
509.833	16549.46
510.035	17182.29
510.238	17172.05
510.44	17528.39
510.643	18339.39
510.845	18636.34
511.048	18875.96
511.25	19230.26
511.453	19764.78
511.655	20708.89
511.858	20581.92
512.06	21321.23
512.262	21483.02
512.465	21822.98
512.667	22613.5
512.87	23246.32
513.072	23492.08
513.274	24104.42
513.477	24878.55
513.679	25157.08
513.881	25681.36
514.084	26168.77
514.286	26521.02
514.488	27272.63
514.69	28304.81
514.893	28528.03
515.095	29287.83
515.297	29613.46
515.499	30330.25
515.701	31186.3
515.904	31853.94
516.106	32544.1
516.308	32707.94
516.51	33916.24
516.712	34080.08
516.914	35044.67
517.116	35816.75
517.318	36154.67
517.52	37014.82
517.722	37440.79
517.925	38069.52
518.127	39034.11
518.329	39879.92
518.531	39890.16
518.733	40699.11
518.935	41688.28
519.136	42237.14
519.338	42853.58
519.54	43361.47
519.742	43953.33
519.944	44594.35
520.146	45702.3
520.348	45810.84
520.55	46441.62
520.752	46714
520.954	47844.48
521.155	47733.88
521.357	48827.5
521.559	49341.54
521.761	49914.97
521.963	50156.63
522.164	50510.93
522.366	51031.11
522.568	51883.07
522.77	51582.02
522.971	52667.44
523.173	52454.45
523.375	53154.86
523.576	53105.71
523.778	52956.21
523.98	53959.71
524.181	54174.75
524.383	54096.92
524.584	54608.92
524.786	54694.93
524.988	54070.3
525.189	55198.73
525.391	54952.97
525.592	55153.68
525.794	55350.28
525.995	54477.85
526.197	54350.87
526.398	55098.38
526.6	54987.79
526.801	54643.73
527.003	54516.76
527.204	54547.48
527.406	54322.2
527.607	54320.15
527.808	53818.4
528.01	52657.2
528.211	53247.02
528.412	53969.95
528.614	53117.99
528.815	52679.73
529.016	52659.25
529.218	51418.18
529.419	51631.17
529.62	50787.41
529.822	50697.3
530.023	50150.49
530.224	49839.2
530.425	49568.86
530.626	48012.41
530.828	48047.22
531.029	48327.8
531.23	47328.39
531.431	46785.68
531.632	46265.49
531.833	46075.03
532.035	45634.72
532.236	44399.79
532.437	44512.43
532.638	43322.56
532.839	43406.53
533.04	42794.18
533.241	41811.16
533.442	42108.11
533.643	41108.71
533.844	40529.13
534.045	40090.87
534.246	39320.83
534.447	39099.65
534.648	38618.38
534.849	38040.85
535.05	37162.27
535.251	36885.79
535.451	36865.31
535.652	36218.16
535.853	35429.69
536.054	35202.36
536.255	35220.8
536.456	33797.46
536.657	34045.26
536.857	33191.26
537.058	32699.75
537.259	32390.5
537.46	32197.99
537.66	31726.96
537.861	31260.02
538.062	30782.85
538.263	30573.95
538.463	29867.41
538.664	29545.87
538.865	29519.25
539.065	29195.67
539.266	28474.79
539.466	28206.5
539.667	27694.51
539.868	27678.13
540.068	27389.36
540.269	27112.89
540.469	26693.05
540.67	26629.57
540.87	26078.66
541.071	25654.73
541.271	25308.63
541.472	25046.49
541.672	24743.39
541.873	24593.89
542.073	24196.58
542.274	24061.41
542.474	23903.72
542.675	23465.46
542.875	23340.53
543.075	23270.9
543.276	22685.18
543.476	22416.9
543.676	22201.86
543.877	22048.26
544.077	22068.74
544.277	21403.15
544.478	21272.08
544.678	21241.36
544.878	20741.66
545.078	20520.48
545.279	20170.27
545.479	19942.95
545.679	20135.46
545.879	19600.94
546.079	19205.68
546.28	19080.75
546.48	18961.97
546.68	18753.08
546.88	18624.06
547.08	18452.03
547.28	18236.99
547.48	17811.01
547.68	17798.73
547.88	17276.49
548.081	17329.74
548.281	16924.24
548.481	16680.53
548.681	16885.33
548.881	16418.39
549.081	16285.28
549.28	15875.68
549.48	15812.2
549.68	15529.58
549.88	15685.22
550.08	14943.86
550.28	14720.63
550.48	14749.3
550.68	14579.32
550.88	14249.6
551.08	14093.95
551.279	14259.84
551.479	13561.48
551.679	13463.18
551.879	13299.34
552.079	13166.22
552.278	12986
552.478	12977.81
552.678	12609.17
552.878	12549.78
553.077	12156.57
553.277	11773.6
553.477	11900.58
553.676	11620
553.876	11464.36
554.076	11364.01
554.275	11263.66
554.475	10831.54
554.674	10747.57
554.874	10688.18
555.074	10342.07
555.273	10247.86
555.473	10069.69
555.672	10100.41
555.872	9701.06
556.071	9455.3
556.271	9598.66
556.47	9162.44
556.67	9238.22
556.869	9115.34
557.068	8992.46
557.268	8707.79
557.467	8539.86
557.667	8410.84
557.866	8488.66
558.065	8081.11
558.265	8156.89
558.464	7954.14
558.663	7966.43
558.863	7763.68
559.062	7646.94
559.261	7220.97
559.461	7509.73
559.66	7053.03
559.859	7098.09
560.058	6911.72
560.258	6739.69
560.457	6647.54
560.656	6682.35
560.855	6530.8
561.054	6561.52
561.253	6258.42
561.453	6328.05
561.652	6233.85
561.851	6119.16
562.05	6029.05
562.249	5768.96
562.448	5897.98
562.647	5795.58
562.846	5463.81
563.045	5676.8
563.244	5517.06
563.443	5449.47
563.642	5248.77
563.841	5158.66
564.04	5078.79
564.239	5189.38
564.438	4800.27
564.637	4859.66
564.836	4830.99
565.035	4687.63
565.234	4763.4
565.432	4726.54
565.631	4654.86
565.83	4587.28
566.029	4478.74
566.228	4390.67
566.427	4452.11
566.625	4118.29
566.824	4210.45
567.023	4220.69
567.222	4077.34
567.42	3858.2
567.619	4022.04
567.818	3903.26
568.016	3964.7
568.215	3786.52
568.414	3907.35
568.612	3680.03
568.811	3729.18
569.01	3610.4
569.208	3477.28
569.407	3577.63
569.605	3491.62
569.804	3309.35
570.002	3456.8
570.201	3204.9
570.4	3321.63
570.598	3116.84
570.797	3174.18
570.995	3045.16
571.193	3002.15
571.392	3010.34
571.59	2832.17
571.789	2963.24
571.987	2938.66
572.186	2838.31
572.384	2805.55
572.582	2828.07
572.781	2797.35
572.979	2549.55
573.177	2586.41
573.376	2490.16
573.574	2563.89
573.772	2559.79
573.971	2451.25
574.169	2318.13
574.367	2436.91
574.565	2379.57
574.763	2385.71
574.962	2363.19
575.16	2314.03
575.358	2285.36
575.556	2180.92
575.754	2121.52
575.952	2117.43
576.151	2158.39
576.349	2088.76
576.547	1914.68
576.745	2010.93
576.943	1988.41
577.141	1828.67
577.339	1797.95
577.537	1787.71
577.735	1984.31
577.933	1904.44
578.131	1705.79
578.329	1894.2
578.527	1742.65
578.725	1795.9
578.923	1572.67
579.121	1660.73
579.319	1548.09
579.516	1498.94
579.714	1802.04
579.912	1527.61
580.11	1402.69
580.308	1525.57
580.506	1517.37
580.704	1333.06
580.901	1419.07
581.099	1500.99
581.297	1462.08
581.495	1347.39
581.692	1267.52
581.89	1484.61
582.088	1437.5
582.285	1240.9
582.483	1259.33
582.681	1206.08
582.878	1206.08
583.076	1154.88
583.274	1247.04
583.471	1314.63
583.669	1144.64
583.866	1183.56
584.064	1120.07
584.262	1075.01
584.459	991.05
584.657	1048.39
584.854	1081.16
585.052	1103.68
585.249	1109.83
585.447	1079.11
585.644	972.61
585.841	1087.3
586.039	1025.86
586.236	1011.53
586.434	915.27
586.631	843.59
586.828	825.16
587.026	921.42
587.223	839.5
587.42	884.55
587.618	888.65
587.815	886.6
588.012	814.92
588.21	821.06
588.407	876.36
588.604	909.13
588.801	806.73
588.999	829.26
589.196	823.11
589.393	833.35
589.59	806.73
589.787	814.92
589.984	821.06
590.182	814.92
590.379	698.19
590.576	679.75
590.773	790.35
590.97	624.46
591.167	739.15
591.364	829.26
591.561	710.47
591.758	921.42
591.955	831.3
592.152	784.2
592.349	683.85
592.546	606.03
592.743	692.04
592.94	819.02
593.137	759.63
593.334	720.71
593.531	677.71
593.727	773.96
593.924	812.87
594.121	741.19
594.318	700.23
594.515	819.02
594.712	831.3
594.908	890.7
595.105	681.8
595.302	657.23
595.499	761.67
595.696	925.51
595.892	849.74
596.089	839.5
596.286	810.82
596.482	882.5
596.679	847.69
596.876	790.35
597.072	915.27
597.269	978.76
597.466	945.99
597.662	966.47
597.859	909.13
598.055	1015.62
598.252	1050.44
598.448	1132.36
598.645	1154.88
598.841	1220.42
599.038	1337.15
599.234	1312.58
599.431	1406.78
599.627	1437.5
599.824	1392.45
600.02	1453.89
600.217	1496.89
600.413	1597.24
600.609	1515.33
600.806	1900.34
601.002	1797.95
601.198	1718.08
601.395	1957.69
601.591	2021.17
601.787	2043.7
601.984	2051.89
602.18	2158.39
602.376	2185.01
602.572	2324.27
602.769	2434.86
602.965	2471.73
603.161	2606.89
603.357	2799.4
603.553	2807.59
603.75	2883.37
603.946	3084.07
604.142	3012.39
604.338	3262.24
604.534	3338.02
604.73	3370.79
604.926	3493.66
605.122	3766.04
605.318	3581.73
605.514	3841.82
605.71	3948.31
605.906	4179.73
606.102	4159.25
606.298	4300.56
606.494	4538.13
606.69	4728.59
606.886	4644.62
607.082	4726.54
607.278	5027.59
607.474	5173
607.67	5322.5
607.866	5259.01
608.062	5730.05
608.257	5631.74
608.453	5795.58
608.649	6039.29
608.845	6119.16
609.041	6164.22
609.236	6672.11
609.432	6819.57
609.628	6838
609.824	7048.94
610.019	7233.25
610.215	7393
610.411	7892.7
610.606	7904.99
610.802	7943.9
610.998	8335.06
611.193	8810.19
611.389	8439.51
611.584	8855.25
611.78	8976.08
611.976	9389.77
612.171	9676.48
612.367	9987.77
612.562	10225.34
612.758	10411.7
612.953	10450.61
613.149	11101.87
613.344	11198.12
613.539	11499.17
613.735	11792.03
613.93	12177.05
614.126	12144.28
614.321	12693.14
614.517	13192.84
614.712	13491.85
614.907	13655.68
615.103	14112.38
615.298	14247.55
615.493	14739.06
615.688	15044.21
615.884	15715.94
616.079	15703.65
616.274	16459.35
616.47	16590.42
616.665	17147.47
616.86	17448.52
617.055	17907.27
617.25	18337.34
617.445	19093.04
617.641	18998.84
617.836	19965.48
618.031	19871.27
618.226	21007.89
618.421	21143.06
618.616	21976.58
618.811	22111.75
619.006	23004.66
619.201	22992.37
619.396	23905.77
619.591	23956.97
619.786	24761.82
619.981	25173.46
620.176	26011.08
620.371	25978.31
620.566	26860.99
620.761	27010.49
620.956	27973.03
621.151	28163.5
621.346	29279.64
621.541	29314.45
621.735	30145.93
621.93	30655.87
622.125	31253.88
622.32	31278.46
622.515	32308.58
622.709	33135.96
622.904	33619.28
623.099	34098.51
623.294	34583.88
623.488	34860.35
623.683	36097.33
623.878	36121.9
624.072	36904.23
624.267	37565.72
624.462	37727.51
624.656	38102.29
624.851	39212.29
625.046	39408.89
625.24	40162.54
625.435	40449.26
625.629	41252.06
625.824	41626.84
626.018	42353.87
626.213	41675.99
626.407	43107.52
626.602	42859.72
626.796	44205.23
626.991	44635.31
627.185	44778.67
627.38	45173.92
627.574	44463.28
627.768	45294.75
627.963	45395.1
628.157	45765.79
628.352	46075.03
628.546	45522.08
628.74	46486.67
628.935	46013.59
629.129	46199.96
629.323	45419.68
629.517	45651.1
629.712	45110.44
629.906	45116.58
630.1	44217.52
630.294	44385.46
630.489	43345.09
630.683	43459.77
630.877	42173.65
631.071	41456.86
631.265	41487.58
631.459	40543.47
631.653	39390.46
631.848	39259.39
632.042	37852.44
632.236	37244.19
632.43	36175.15
632.624	35278.14
632.818	34075.98
633.012	32941.41
633.206	32501.09
633.4	31356.28
633.594	29943.18
633.788	29425.04
633.982	28579.23
634.176	27598.26
634.369	26183.11
634.563	25347.54
634.757	24225.25
634.951	23713.26
635.145	22572.54
635.339	21478.93
635.533	20930.07
635.726	20088.35
635.92	19131.95
636.114	18421.31
636.308	17671.75
636.501	16787.03
636.695	16244.32
636.889	15750.76
637.083	15091.31
637.276	14466.68
637.47	13737.6
637.664	13127.31
637.857	12803.73
638.051	12408.47
638.244	11843.23
638.438	11361.96
638.632	10938.03
638.825	10223.29
639.019	10045.12
639.212	9465.54
639.406	9203.4
639.599	8943.31
639.793	8441.56
639.986	8070.87
640.18	7898.84
640.373	7491.3
640.567	7266.02
640.76	7046.89
640.954	6723.31
641.147	6371.06
641.34	6203.13
641.534	5967.61
641.727	5867.26
641.92	5580.54
642.114	5246.73
642.307	5156.61
642.5	4818.7
642.694	4587.28
642.887	4372.24
643.08	4579.09
643.273	4392.72
643.467	4130.58
643.66	3952.41
643.853	3757.85
644.046	3669.79
644.239	3473.18
644.432	3286.82
644.626	3036.97
644.819	3133.22
645.012	2991.91
645.205	2807.59
645.398	2770.73
645.591	2668.33
645.784	2594.61
645.977	2357.04
646.17	2295.6
646.363	2283.31
646.556	2027.32
646.749	2164.53
646.942	2148.15
647.135	1974.07
647.328	1881.91
647.521	1865.53
647.714	1797.95
647.907	1756.99
648.099	1646.4
648.292	1668.92
648.485	1521.47
648.678	1394.5
648.871	1367.87
649.064	1318.72
649.256	1195.84
649.449	1187.65
649.642	1144.64
649.835	1107.78
650.027	1056.58
650.22	1097.54
650.413	1029.96
650.605	991.05
650.798	995.14
650.991	943.94
651.183	931.66
651.376	894.79
651.568	849.74
651.761	782.15
651.954	859.98
652.146	665.42
652.339	823.11
652.531	735.05
652.724	628.56
652.916	628.56
653.109	517.97
653.301	763.72
653.494	665.42
653.686	575.31
653.879	700.23
654.071	552.78
654.263	522.06
654.456	466.77
654.648	554.83
654.84	499.53
655.033	390.99
655.225	585.55
655.417	372.56
655.61	536.4
655.802	483.15
655.994	538.45
656.186	315.22
656.379	468.81
656.571	315.22
656.763	354.13
656.955	442.19
657.148	360.27
657.34	429.9
657.532	315.22
657.724	339.79
657.916	302.93
658.108	368.46
658.3	304.98
658.492	413.52
658.684	233.3
658.876	407.38
659.068	206.67
659.26	227.15
659.452	280.4
659.644	288.59
659.836	298.83
660.028	239.44
660.22	278.35
660.412	284.5
660.604	255.83
660.796	212.82
660.988	307.02
661.18	231.25
661.372	329.55
661.563	225.11
661.755	223.06
661.947	200.53
662.139	270.16
662.331	216.91
662.522	178
662.714	65.36
662.906	141.14
663.097	274.26
663.289	153.43
663.481	85.84
663.673	233.3
663.864	184.15
664.056	249.68
664.247	231.25
664.439	270.16
664.631	237.39
664.822	251.73
665.014	274.26
665.205	110.42
665.397	132.95
665.588	163.67
665.78	110.42
665.971	225.11
666.163	120.66
666.354	196.43
666.546	112.47
666.737	100.18
666.929	139.09
667.12	85.84
667.311	173.91
667.503	141.14
667.694	159.57
667.885	167.76
668.077	139.09
668.268	24.4
668.459	126.8
668.651	106.32
668.842	186.19
669.033	120.66
669.224	106.32
669.416	337.74
669.607	112.47
669.798	108.37
669.989	190.29
670.18	116.56
670.371	239.44
670.563	32.6
670.754	218.96
670.945	104.28
671.136	212.82
671.327	16.21
671.518	272.21
671.709	237.39
671.9	155.47
672.091	218.96
672.282	143.19
672.473	198.48
672.664	55.12
672.855	143.19
673.046	165.71
673.237	280.4
673.428	151.38
673.619	135
673.809	55.12
674	253.78
674.191	212.82
674.382	182.1
674.573	153.43
674.764	155.47
674.954	165.71
675.145	139.09
675.336	96.08
675.527	149.33
675.717	69.46
675.908	126.8
676.099	44.88
676.289	120.66
676.48	178
676.671	143.19
676.861	155.47
677.052	69.46
677.243	98.13
677.433	81.75
677.624	175.95
677.814	114.52
678.005	96.08
678.195	282.45
678.386	44.88
678.576	118.61
678.767	55.12
678.957	112.47
679.148	239.44
679.338	261.97
679.529	270.16
679.719	145.24
679.909	276.31
680.1	216.91
680.29	237.39
680.481	91.99
680.671	288.59
680.861	161.62
681.052	190.29
681.242	116.56
681.432	188.24
681.622	91.99
681.813	40.79
682.003	223.06
682.193	126.8
682.383	188.24
682.573	153.43
682.764	108.37
682.954	180.05
683.144	304.98
683.334	130.9
683.524	169.81
683.714	264.02
683.904	223.06
684.094	102.23
684.284	87.89
684.474	311.12
684.664	151.38
684.854	182.1
685.044	210.77
685.234	122.71
685.424	143.19
685.614	143.19
685.804	253.78
685.994	241.49
686.184	227.15
686.374	194.39
686.564	202.58
686.753	233.3
686.943	87.89
687.133	198.48
687.323	188.24
687.513	237.39
687.702	247.63
687.892	145.24
688.082	257.87
688.272	206.67
688.461	210.77
688.651	270.16
688.841	223.06
689.03	71.51
689.22	147.28
689.41	229.2
689.599	165.71
689.789	155.47
689.979	214.87
690.168	94.04
690.358	212.82
690.547	233.3
690.737	184.15
690.926	208.72
691.116	198.48
691.305	229.2
691.495	257.87
691.684	151.38
691.874	196.43
692.063	91.99
692.252	259.92
692.442	235.35
692.631	186.19
692.82	141.14
693.01	221.01
693.199	147.28
693.388	227.15
693.578	178
693.767	192.34
693.956	221.01
694.146	67.41
694.335	182.1
694.524	202.58
694.713	227.15
694.902	202.58
695.092	198.48
695.281	161.62
695.47	243.54
695.659	137.04
695.848	192.34
696.037	157.52
696.226	221.01
696.415	114.52
696.604	304.98
696.793	212.82
696.982	182.1
697.171	304.98
697.36	208.72
697.549	167.76
697.738	96.08
697.927	171.86
698.116	163.67
698.305	223.06
698.494	151.38
698.683	204.63
698.872	313.17
699.061	253.78
699.25	143.19
699.438	169.81
699.627	132.95
699.816	286.54
700.005	124.76
700.193	94.04
700.382	139.09
700.571	157.52
700.76	155.47
700.948	227.15
701.137	155.47
701.326	214.87
701.514	10.07
701.703	223.06
701.892	161.62
702.08	331.6
702.269	126.8
702.457	159.57
702.646	110.42
702.834	141.14
703.023	245.59
703.212	264.02
703.4	196.43
703.589	79.7
703.777	155.47
703.965	124.76
704.154	128.85
704.342	112.47
704.531	186.19
704.719	137.04
704.907	192.34
705.096	141.14
705.284	55.12
705.472	257.87
705.661	184.15
705.849	243.54
706.037	278.35
706.226	190.29
706.414	257.87
706.602	194.39
706.79	194.39
706.979	85.84
707.167	173.91
707.355	59.22
707.543	206.67
707.731	167.76
707.919	124.76
708.107	145.24
708.296	91.99
708.484	153.43
708.672	186.19
708.86	210.77
709.048	155.47
709.236	65.36
709.424	282.45
709.612	186.19
709.8	128.85
709.988	251.73
710.176	282.45
710.364	210.77
710.551	190.29
710.739	159.57
710.927	87.89
711.115	272.21
711.303	241.49
711.491	272.21
711.679	175.95
711.866	188.24
712.054	139.09
712.242	259.92
712.43	200.53
712.617	96.08
712.805	237.39
712.993	118.61
713.181	130.9
713.368	266.07
713.556	120.66
713.744	161.62
713.931	317.26
714.119	159.57
714.306	83.8
714.494	149.33
714.682	114.52
714.869	173.91
715.057	118.61
715.244	85.84
715.432	126.8
715.619	182.1
715.807	126.8
715.994	208.72
716.182	290.64
716.369	231.25
716.556	229.2
716.744	100.18
716.931	108.37
717.119	190.29
717.306	167.76
717.493	212.82
717.681	149.33
717.868	120.66
718.055	137.04
718.242	110.42
718.43	208.72
718.617	274.26
718.804	165.71
718.991	237.39
719.179	206.67
719.366	120.66
719.553	212.82
719.74	190.29
719.927	229.2
720.114	153.43
720.301	169.81
720.488	112.47
720.676	114.52
720.863	243.54
721.05	245.59
721.237	139.09
721.424	274.26
721.611	173.91
721.798	151.38
721.985	100.18
722.172	77.65
722.358	96.08
722.545	178
722.732	186.19
722.919	229.2
723.106	261.97
723.293	194.39
723.48	184.15
723.667	233.3
723.853	257.87
724.04	264.02
724.227	206.67
724.414	171.86
724.6	251.73
724.787	255.83
724.974	331.6
725.161	173.91
725.347	112.47
725.534	227.15
725.72	270.16
725.907	212.82
726.094	227.15
726.28	173.91
726.467	216.91
726.653	141.14
726.84	198.48
727.027	304.98
727.213	212.82
727.4	212.82
727.586	188.24
727.773	153.43
727.959	165.71
728.145	200.53
728.332	237.39
728.518	235.35
728.705	315.22
728.891	180.05
729.077	257.87
729.264	77.65
729.45	141.14
729.636	321.36
729.823	214.87
730.009	171.86
730.195	280.4
730.382	247.63
730.568	153.43
730.754	216.91
730.94	325.46
731.126	218.96
731.313	288.59
731.499	223.06
731.685	212.82
731.871	235.35
732.057	331.6
732.243	188.24
732.429	167.76
732.615	345.94
732.801	274.26
732.987	171.86
733.173	180.05
733.359	114.52
733.545	139.09
733.731	288.59
733.917	366.42
734.103	231.25
734.289	190.29
734.475	167.76
734.661	268.11
734.847	208.72
735.033	175.95
735.219	204.63
735.404	128.85
735.59	79.7
735.776	206.67
735.962	284.5
736.148	259.92
736.333	294.74
736.519	274.26
736.705	157.52
736.89	175.95
737.076	124.76
737.262	190.29
737.447	247.63
737.633	192.34
737.819	315.22
738.004	243.54
738.19	286.54
738.375	251.73
738.561	362.32
738.747	147.28
738.932	178
739.118	376.66
739.303	202.58
739.489	280.4
739.674	216.91
739.859	79.7
740.045	245.59
740.23	257.87
740.416	223.06
740.601	182.1
740.786	227.15
740.972	223.06
741.157	151.38
741.342	167.76
741.528	155.47
741.713	309.07
741.898	143.19
742.084	206.67
742.269	175.95
742.454	202.58
742.639	194.39
742.824	212.82
743.01	282.45
743.195	477.01
743.38	221.01
743.565	155.47
743.75	239.44
743.935	323.41
744.12	290.64
744.305	182.1
744.49	198.48
744.675	210.77
744.86	100.18
745.045	274.26
745.23	167.76
745.415	216.91
745.6	300.88
745.785	143.19
745.97	249.68
746.155	247.63
746.34	272.21
746.525	294.74
746.71	261.97
746.895	118.61
747.079	157.52
747.264	223.06
747.449	202.58
747.634	292.69
747.819	167.76
748.003	186.19
748.188	91.99
748.373	223.06
748.557	184.15
748.742	214.87
748.927	186.19
749.111	216.91
749.296	208.72
749.481	264.02
749.665	208.72
749.85	221.01
750.034	196.43
750.219	235.35
750.404	202.58
750.588	241.49
750.773	81.75
750.957	157.52
751.141	175.95
751.326	261.97
751.51	77.65
751.695	151.38
751.879	139.09
752.064	225.11
752.248	102.23
752.432	229.2
752.617	212.82
752.801	227.15
752.985	184.15
753.17	214.87
753.354	223.06
753.538	188.24
753.722	98.13
753.907	116.56
754.091	20.31
754.275	194.39
754.459	122.71
754.643	98.13
754.828	122.71
755.012	167.76
755.196	147.28
755.38	130.9
755.564	110.42
755.748	169.81
755.932	212.82
756.116	227.15
756.3	180.05
756.484	135
756.668	130.9
756.852	46.93
757.036	112.47
757.22	132.95
757.404	116.56
757.588	165.71
757.772	120.66
757.956	182.1
758.14	352.08
758.323	96.08
758.507	141.14
758.691	91.99
758.875	186.19
759.059	210.77
759.242	87.89
759.426	118.61
759.61	96.08
759.794	18.26
759.977	165.71
760.161	323.41
760.345	155.47
760.528	124.76
760.712	180.05
760.895	128.85
761.079	30.55
761.263	69.46
761.446	20.31
761.63	194.39
761.813	139.09
761.997	73.56
762.18	135
762.364	85.84
762.547	5.97
762.731	100.18
762.914	153.43
763.098	159.57
763.281	102.23
763.464	108.37
763.648	143.19
763.831	108.37
764.015	81.75
764.198	173.91
764.381	14.17
764.564	63.32
764.748	151.38
764.931	149.33
765.114	106.32
765.297	251.73
765.481	67.41
765.664	110.42
765.847	5.97
766.03	48.98
766.213	3.93
766.397	30.55
766.58	10.07
766.763	104.28
766.946	122.71
767.129	48.98
767.312	-8.36
767.495	40.79
767.678	-28.84
767.861	108.37
768.044	61.27
768.227	83.8
768.41	71.51
768.593	44.88
768.776	120.66
768.959	16.21
769.142	163.67
769.324	53.08
769.507	10.07
769.69	63.32
769.873	51.03
770.056	186.19
770.239	53.08
770.421	100.18
770.604	67.41
770.787	96.08
770.97	118.61
771.152	73.56
771.335	81.75
771.518	59.22
771.7	126.8
771.883	198.48
772.066	85.84
772.248	151.38
772.431	128.85
772.613	77.65
772.796	34.64
772.978	48.98
773.161	208.72
773.343	91.99
773.526	40.79
773.708	-16.55
773.891	-0.17
774.073	10.07
774.256	22.36
774.438	221.01
774.621	30.55
774.803	83.8
774.985	40.79
775.168	102.23
775.35	32.6
775.532	143.19
775.715	-59.56
775.897	118.61
776.079	57.17
776.261	96.08
776.444	67.41
776.626	85.84
776.808	20.31
776.99	-26.79
777.173	65.36
777.355	40.79
777.537	57.17
777.719	57.17
777.901	-18.6
778.083	36.69
778.265	-49.32
778.447	106.32
778.629	20.31
778.811	20.31
778.993	124.76
779.175	182.1
779.357	12.12
779.539	-6.31
779.721	12.12
779.903	116.56
780.085	16.21
780.267	132.95
780.449	16.21
780.631	87.89
780.812	159.57
780.994	48.98
781.176	51.03
781.358	48.98
781.54	-32.94
781.721	44.88
781.903	147.28
782.085	24.4
782.267	124.76
782.448	-65.71
782.63	-34.99
782.812	81.75
782.993	83.8
783.175	59.22
783.357	36.69
783.538	81.75
783.72	-10.41
783.901	-43.18
784.083	71.51
784.264	85.84
784.446	-90.28
784.627	8.02
784.809	53.08
784.99	104.28
785.172	73.56
785.353	22.36
785.535	59.22
785.716	-24.75
785.897	-30.89
786.079	-30.89
786.26	30.55
786.441	104.28
786.623	-80.04
786.804	20.31
786.985	32.6
787.167	75.6
787.348	53.08
787.529	16.21
787.71	155.47
787.891	30.55
788.073	-45.23
788.254	-10.41
788.435	153.43
788.616	53.08
788.797	-0.17
788.978	36.69
789.159	24.4
789.34	32.6
789.522	10.07
789.703	1.88
789.884	151.38
790.065	-0.17
790.246	218.96
790.427	-20.65
790.607	126.8
790.788	120.66
790.969	28.5
791.15	28.5
791.331	16.21
791.512	8.02
791.693	-41.13
791.874	-8.36
792.054	171.86
792.235	57.17
792.416	-135.34
792.597	-18.6
792.778	53.08
792.958	14.17
793.139	12.12
793.32	67.41
793.5	-84.14
793.681	149.33
793.862	16.21
794.042	-8.36
794.223	-102.57
794.404	-37.03
794.584	-82.09
794.765	67.41
794.945	22.36
795.126	112.47
795.306	167.76
795.487	-26.79
795.667	-53.42
795.848	16.21
796.028	5.97
796.209	-14.51
796.389	100.18
796.57	-71.85
796.75	16.21
796.93	-34.99
797.111	-75.95
797.291	40.79
797.471	89.94
797.652	34.64
797.832	-96.43
798.012	48.98
798.192	44.88
798.373	-49.32
798.553	-51.37
798.733	55.12
798.913	-16.55
799.093	-34.99
799.274	-55.47
799.454	36.69
799.634	122.71
799.814	89.94
799.994	98.13
800.174	73.56
800.354	30.55
800.534	-47.27
800.714	38.74
800.894	-139.43
801.074	-84.14
801.254	-18.6
801.434	44.88
801.614	12.12
801.794	-41.13
801.974	1890.1
802.154	-10.41
802.334	96.08
802.514	-47.27
802.693	-2.22
802.873	-61.61
803.053	145.24
803.233	73.56
803.413	34.64
803.592	-2.22
803.772	32.6
803.952	-0.17
804.131	-75.95
804.311	126.8
804.491	112.47
804.67	-32.94
804.85	-55.47
805.03	-16.55
805.209	102.23
805.389	24.4
805.568	-45.23
805.748	-28.84
805.928	24.4
806.107	75.6
806.287	40.79
806.466	40.79
806.646	-34.99
806.825	-10.41
807.004	-18.6
807.184	-0.17
807.363	59.22
807.543	40.79
807.722	-22.7
807.901	57.17
808.081	61.27
808.26	-43.18
808.439	-49.32
808.619	-6.31
808.798	-20.65
808.977	-51.37
809.156	63.32
809.336	10.07
809.515	44.88
809.694	-63.66
809.873	-24.75
810.052	100.18
810.231	91.99
810.411	57.17
810.59	91.99
810.769	-110.76
810.948	85.84
811.127	-65.71
811.306	-24.75
811.485	-63.66
811.664	157.52
811.843	-22.7
812.022	-0.17
812.201	-18.6
812.38	42.84
812.559	-20.65
812.737	30.55
812.916	-34.99
813.095	-51.37
813.274	-69.8
813.453	63.32
813.632	44.88
813.811	57.17
813.989	-110.76
814.168	48.98
814.347	-69.8
814.526	26.45
814.704	128.85
814.883	110.42
815.062	46.93
815.24	-4.27
815.419	-41.13
815.598	24.4
815.776	-108.71
815.955	12.12
816.133	-137.38
816.312	-63.66
816.49	-71.85
816.669	48.98
816.847	14.17
817.026	65.36
817.204	-65.71
817.383	22.36
817.561	-65.71
817.74	-14.51
817.918	-28.84
818.097	-28.84
818.275	-143.53
818.453	63.32
818.632	44.88
818.81	-63.66
818.988	3.93
819.167	-8.36
819.345	48.98
819.523	-118.95
819.701	55.12
819.879	12.12
820.058	36.69
820.236	-20.65
820.414	-57.51
820.592	-75.95
820.77	-43.18
820.948	-14.51
821.127	-12.46
821.305	-8.36
821.483	-8.36
821.661	28.5
821.839	71.51
822.017	-116.9
822.195	-104.62
822.373	20.31
822.551	-24.75
822.729	132.95
822.907	-0.17
823.085	59.22
823.262	-16.55
823.44	-67.75
823.618	-43.18
823.796	-28.84
823.974	-34.99
824.152	-100.52
824.329	22.36
824.507	-26.79
824.685	57.17
824.863	20.31
825.04	-6.31
825.218	32.6
825.396	-34.99
825.574	-37.03
825.751	102.23
825.929	91.99
826.107	-41.13
826.284	73.56
826.462	-28.84
826.639	-0.17
826.817	-141.48
826.994	-10.41
827.172	-16.55
827.349	94.04
827.527	65.36
827.704	-12.46
827.882	14.17
828.059	16.21
828.237	1.88
828.414	28.5
828.591	-118.95
828.769	-20.65
828.946	-102.57
829.124	63.32
829.301	59.22
829.478	-6.31
829.655	1.88
829.833	8.02
830.01	-94.38
830.187	20.31
830.364	63.32
830.542	42.84
830.719	128.85
830.896	44.88
831.073	-2.22
831.25	-8.36
831.427	-10.41
831.604	75.6
831.782	18.26
831.959	44.88
832.136	36.69
832.313	1.88
832.49	-55.47
832.667	18.26
832.844	-57.51
833.021	57.17
833.198	36.69
833.374	-20.65
833.551	106.32
833.728	22.36
833.905	44.88
834.082	-129.19
834.259	-20.65
834.436	65.36
834.612	-73.9
834.789	26.45
834.966	5.97
835.143	1.88
835.319	-65.71
835.496	5.97
835.673	51.03
835.85	102.23
836.026	57.17
836.203	81.75
836.38	-28.84
836.556	-4.27
836.733	-57.51
836.909	139.09
837.086	-32.94
837.262	-65.71
837.439	32.6
837.616	-0.17
837.792	-96.43
837.968	-55.47
838.145	-30.89
838.321	32.6
838.498	-39.08
838.674	57.17
838.851	34.64
839.027	-32.94
839.203	8.02
839.38	48.98
839.556	-0.17
839.732	3.93
839.909	24.4
840.085	100.18
840.261	-100.52
840.437	40.79
840.614	-10.41
840.79	53.08
840.966	71.51
841.142	51.03
841.318	-18.6
841.494	-2.22
841.671	81.75
841.847	-92.33
842.023	-77.99
842.199	-12.46
842.375	53.08
842.551	-133.29
842.727	-86.19
842.903	51.03
843.079	-84.14
843.255	61.27
843.431	40.79
843.607	8.02
843.783	-174.25
843.959	53.08
844.134	-47.27
844.31	91.99
844.486	-6.31
844.662	-14.51
844.838	38.74
845.013	36.69
845.189	77.65
845.365	-55.47
845.541	-30.89
845.716	38.74
845.892	30.55
846.068	-49.32
846.244	-18.6
846.419	24.4
846.595	28.5
846.77	-94.38
846.946	8.02
847.122	-30.89
847.297	-24.75
847.473	48.98
847.648	-73.9
847.824	46.93
847.999	-71.85
848.175	18.26
848.35	28.5
848.526	128.85
848.701	67.41
848.876	67.41
849.052	65.36
849.227	5.97
849.403	12.12
849.578	-18.6
849.753	89.94
849.929	30.55
850.104	-75.95
850.279	28.5
850.454	40.79
850.63	87.89
850.805	59.22
850.98	-18.6
851.155	20.31
851.33	-41.13
851.505	-41.13
851.681	106.32
851.856	-123.05
852.031	36.69
852.206	61.27
852.381	-94.38
852.556	-18.6
852.731	-34.99
852.906	46.93
853.081	34.64
853.256	34.64
853.431	1.88
853.606	-20.65
853.781	-100.52
853.956	-166.06
854.131	-18.6
854.305	-67.75
854.48	-61.61
854.655	-77.99
854.83	-51.37
855.005	28.5
855.18	-6.31
855.354	-61.61
855.529	53.08
855.704	-90.28
855.879	-10.41
856.053	-20.65
856.228	-51.37
856.403	-123.05
856.577	12.12
856.752	-63.66
856.926	-43.18
857.101	1.88
857.276	-73.9
857.45	30.55
857.625	40.79
857.799	-135.34
857.974	30.55
858.148	-102.57
858.323	30.55
858.497	-26.79
858.672	-41.13
858.846	-20.65
859.02	77.65
859.195	-96.43
859.369	-0.17
859.543	46.93
859.718	44.88
859.892	14.17
860.066	-34.99
860.241	-28.84
860.415	-32.94
860.589	-69.8
860.763	-4.27
860.938	-18.6
861.112	12.12
861.286	-37.03
861.46	12.12
861.634	-43.18
861.808	-14.51
861.982	-67.75
862.157	-96.43
862.331	-43.18
862.505	-71.85
862.679	-110.76
862.853	-53.42
863.027	-37.03
863.201	147.28
863.375	-32.94
863.549	10.07
863.722	55.12
863.896	91.99
864.07	-82.09
864.244	24.4
864.418	75.6
864.592	14.17
864.766	8.02
864.939	34.64
865.113	-110.76
865.287	48.98
865.461	-18.6
865.634	-0.17
865.808	-28.84
865.982	-96.43
866.156	-110.76
866.329	-82.09
866.503	-4.27
866.676	36.69
866.85	22.36
867.024	-37.03
867.197	34.64
867.371	24.4
867.544	12.12
867.718	-77.99
867.891	104.28
868.065	-96.43
868.238	-43.18
868.412	75.6
868.585	20.31
868.759	-86.19
868.932	-26.79
869.105	-28.84
869.279	-34.99
869.452	1.88
869.625	100.18
869.799	-34.99
869.972	-51.37
870.145	-34.99
870.319	8.02
870.492	-26.79
870.665	-90.28
870.838	10.07
871.011	-188.58
871.185	16.21
871.358	-22.7
871.531	8.02
871.704	-26.79
871.877	-47.27
872.05	-73.9
872.223	-67.75
872.396	85.84
872.569	30.55
872.742	-84.14
872.915	44.88
873.088	-59.56
873.261	-51.37
873.434	38.74
873.607	20.31
873.78	69.46
873.953	-69.8
874.126	-12.46
874.299	14.17
874.471	-28.84
874.644	14.17
874.817	12.12
874.99	145.24
875.163	-28.84
875.335	124.76
875.508	-47.27
875.681	79.7
875.853	-71.85
876.026	-12.46
876.199	61.27
876.371	-28.84
876.544	71.51
876.717	-26.79
876.889	-106.67
877.062	116.56
877.234	-114.86
877.407	-59.56
877.579	-12.46
877.752	1.88
877.924	79.7
878.097	14.17
878.269	-14.51
878.442	-45.23
878.614	-4.27
878.786	30.55
878.959	-4.27
879.131	87.89
879.303	-114.86
879.476	12.12
879.648	75.6
879.82	24.4
879.993	-47.27
880.165	-47.27
880.337	-174.25
880.509	-4.27
880.681	-20.65
880.854	-141.48
881.026	77.65
881.198	104.28
881.37	-16.55
881.542	-39.08
881.714	-28.84
881.886	-84.14
882.058	-32.94
882.23	16.21
882.402	-53.42
882.574	79.7
882.746	79.7
882.918	42.84
883.09	22.36
883.262	-8.36
883.434	28.5
883.606	-73.9
883.778	53.08
883.95	104.28
884.122	-65.71
884.293	69.46
884.465	36.69
884.637	69.46
884.809	-45.23
884.98	44.88
885.152	46.93
885.324	16.21
885.496	-28.84
885.667	-71.85
885.839	18.26
886.011	147.28
886.182	22.36
886.354	71.51
886.525	-6.31
886.697	32.6
886.869	8.02
887.04	-20.65
887.212	57.17
887.383	143.19
887.555	61.27
887.726	-59.56
887.897	-77.99
888.069	-67.75
888.24	40.79
888.412	-77.99
888.583	-0.17
888.754	-39.08
888.926	-149.67
889.097	-69.8
889.268	-135.34
889.44	-34.99
889.611	-73.9
889.782	-86.19
889.953	-69.8
890.125	65.36
890.296	-55.47
890.467	-2.22
890.638	-18.6
890.809	-37.03
890.98	-65.71
891.151	-45.23
891.323	75.6
891.494	51.03
891.665	-88.23
891.836	-0.17
892.007	-12.46
892.178	22.36
892.349	-4.27
892.52	-6.31
892.691	-32.94
892.862	-102.57
893.032	-135.34
893.203	18.26
893.374	-53.42
893.545	61.27
893.716	-67.75
893.887	61.27
894.057	87.89
894.228	-32.94
894.399	8.02
894.57	42.84
894.74	-55.47
894.911	-55.47
895.082	-18.6
895.253	-118.95
895.423	-24.75
895.594	53.08
895.764	-37.03
895.935	-151.72
896.106	-4.27
896.276	-37.03
896.447	24.4
896.617	-118.95
896.788	-45.23
896.958	-30.89
897.129	51.03
897.299	-139.43
897.47	42.84
897.64	22.36
897.81	28.5
897.981	44.88
898.151	12.12
898.322	34.64
898.492	98.13
898.662	-51.37
898.832	-92.33
899.003	-129.19
899.173	44.88
899.343	-114.86
899.513	-37.03
