Data from USB4F104151__213__11-05-50-529.txt Node

Date: Wed Feb 26 11:05:50 EST 2025
User: louis
Spectrometer: USB4F10415
Trigger mode: 4
Integration Time (sec): 1.000000E-1
Scans to average: 1
Electric dark correction enabled: true
Nonlinearity correction enabled: false
Boxcar width: 0
XAxis mode: Wavelengths
Number of Pixels in Spectrum: 3648
>>>>>Begin Spectral Data<<<<<
178.204	-391.67
178.424	-391.67
178.644	-391.67
178.864	-391.67
179.084	-383.48
179.304	-16.9
179.524	-53.76
179.744	24.06
179.964	-0.51
180.184	99.84
180.404	-41.47
180.624	-23.04
180.844	-47.62
181.064	-33.28
181.283	19.97
181.503	15.87
181.723	56.83
181.943	-119.29
182.163	194.05
182.383	34.3
182.602	105.98
182.822	175.61
183.042	50.69
183.262	-23.04
183.482	3.58
183.701	-43.52
183.921	60.93
184.141	-2.56
184.361	24.06
184.58	32.26
184.8	-8.7
185.02	-59.9
185.239	60.93
185.459	112.13
185.679	105.98
185.898	-102.91
186.118	120.32
186.338	30.21
186.557	108.03
186.777	7.68
186.997	-68.09
187.216	-6.66
187.436	89.6
187.655	112.13
187.875	54.78
188.095	67.07
188.314	144.89
188.534	83.45
188.753	-68.09
188.973	93.69
189.192	177.66
189.412	54.78
189.631	46.59
189.851	97.79
190.07	200.19
190.29	-31.23
190.509	-45.57
190.729	65.02
190.948	130.56
191.168	228.86
191.387	54.78
191.607	11.78
191.826	77.31
192.045	-16.9
192.265	22.02
192.484	77.31
192.704	97.79
192.923	-100.86
193.142	177.66
193.362	87.55
193.581	171.52
193.8	3.58
194.02	40.45
194.239	71.17
194.458	105.98
194.678	9.73
194.897	50.69
195.116	11.78
195.335	9.73
195.555	13.82
195.774	-2.56
195.993	42.5
196.212	48.64
196.432	42.5
196.651	-10.75
196.87	26.11
197.089	249.34
197.308	34.3
197.528	50.69
197.747	-55.81
197.966	34.3
198.185	153.09
198.404	-96.77
198.623	42.5
198.842	103.93
199.062	67.07
199.281	116.22
199.5	17.92
199.719	24.06
199.938	108.03
200.157	105.98
200.376	101.89
200.595	157.18
200.814	-4.61
201.033	46.59
201.252	146.94
201.471	77.31
201.69	163.33
201.909	-23.04
202.128	77.31
202.347	79.36
202.566	67.07
202.785	-53.76
203.004	-68.09
203.223	224.76
203.442	77.31
203.661	32.26
203.879	114.17
204.098	81.41
204.317	-88.57
204.536	138.75
204.755	42.5
204.974	40.45
205.193	-35.33
205.411	194.05
205.63	118.27
205.849	11.78
206.068	11.78
206.287	-33.28
206.505	128.51
206.724	-39.42
206.943	-18.94
207.162	-41.47
207.381	11.78
207.599	-41.47
207.818	42.5
208.037	-31.23
208.255	30.21
208.474	24.06
208.693	9.73
208.911	-16.9
209.13	56.83
209.349	34.3
209.567	93.69
209.786	62.98
210.005	126.46
210.223	3.58
210.442	-78.33
210.661	40.45
210.879	22.02
211.098	34.3
211.316	30.21
211.535	124.41
211.753	46.59
211.972	95.74
212.191	24.06
212.409	-68.09
212.628	124.41
212.846	79.36
213.065	17.92
213.283	11.78
213.502	44.54
213.72	62.98
213.938	87.55
214.157	-20.99
214.375	101.89
214.594	-35.33
214.812	122.37
215.031	-25.09
215.249	65.02
215.467	-8.7
215.686	124.41
215.904	87.55
216.122	62.98
216.341	124.41
216.559	-10.75
216.778	99.84
216.996	83.45
217.214	77.31
217.432	11.78
217.651	-88.57
217.869	7.68
218.087	79.36
218.306	24.06
218.524	36.35
218.742	67.07
218.96	30.21
219.179	-8.7
219.397	-2.56
219.615	329.21
219.833	-20.99
220.051	-51.71
220.27	103.93
220.488	62.98
220.706	48.64
220.924	-20.99
221.142	-35.33
221.36	46.59
221.578	79.36
221.796	60.93
222.015	22.02
222.233	97.79
222.451	128.51
222.669	38.4
222.887	40.45
223.105	-37.38
223.323	-39.42
223.541	-6.66
223.759	87.55
223.977	85.5
224.195	89.6
224.413	40.45
224.631	-14.85
224.849	58.88
225.067	222.72
225.285	24.06
225.503	-76.29
225.721	-86.53
225.939	13.82
226.157	1.54
226.375	157.18
226.592	9.73
226.81	30.21
227.028	157.18
227.246	132.61
227.464	60.93
227.682	140.8
227.9	24.06
228.117	11.78
228.335	77.31
228.553	-43.52
228.771	89.6
228.989	24.06
229.206	99.84
229.424	36.35
229.642	-14.85
229.86	-33.28
230.077	77.31
230.295	108.03
230.513	62.98
230.731	60.93
230.948	173.57
231.166	85.5
231.384	-78.33
231.601	1.54
231.819	99.84
232.037	22.02
232.254	-57.86
232.472	22.02
232.689	-25.09
232.907	73.21
233.125	-43.52
233.342	-74.24
233.56	-2.56
233.777	32.26
233.995	26.11
234.213	75.26
234.43	97.79
234.648	-0.51
234.865	48.64
235.083	52.74
235.3	22.02
235.518	-4.61
235.735	69.12
235.953	50.69
236.17	-6.66
236.388	-0.51
236.605	71.17
236.822	65.02
237.04	83.45
237.257	105.98
237.475	3.58
237.692	19.97
237.909	52.74
238.127	-14.85
238.344	110.08
238.562	44.54
238.779	-39.42
238.996	-117.25
239.214	75.26
239.431	67.07
239.648	-39.42
239.865	46.59
240.083	69.12
240.3	11.78
240.517	-0.51
240.735	17.92
240.952	77.31
241.169	44.54
241.386	69.12
241.603	32.26
241.821	-96.77
242.038	124.41
242.255	30.21
242.472	9.73
242.689	1.54
242.907	65.02
243.124	54.78
243.341	79.36
243.558	-12.8
243.775	-25.09
243.992	5.63
244.209	93.69
244.426	81.41
244.643	42.5
244.86	-8.7
245.078	97.79
245.295	-2.56
245.512	-51.71
245.729	22.02
245.946	83.45
246.163	26.11
246.38	81.41
246.597	93.69
246.814	42.5
247.031	-8.7
247.248	26.11
247.464	62.98
247.681	38.4
247.898	85.5
248.115	48.64
248.332	-20.99
248.549	183.81
248.766	200.19
248.983	67.07
249.2	46.59
249.417	38.4
249.633	-0.51
249.85	75.26
250.067	48.64
250.284	46.59
250.501	50.69
250.717	71.17
250.934	-10.75
251.151	-16.9
251.368	13.82
251.585	-12.8
251.801	3.58
252.018	-55.81
252.235	142.85
252.451	-27.14
252.668	-25.09
252.885	108.03
253.102	22.02
253.318	-12.8
253.535	58.88
253.752	-25.09
253.968	-12.8
254.185	-20.99
254.401	97.79
254.618	122.37
254.835	-88.57
255.051	120.32
255.268	75.26
255.484	73.21
255.701	3.58
255.917	75.26
256.134	26.11
256.351	1.54
256.567	-92.67
256.784	-74.24
257	-111.1
257.217	56.83
257.433	79.36
257.65	11.78
257.866	108.03
258.082	-88.57
258.299	-31.23
258.515	89.6
258.732	26.11
258.948	13.82
259.165	28.16
259.381	30.21
259.597	81.41
259.814	-10.75
260.03	3.58
260.246	58.88
260.463	146.94
260.679	54.78
260.895	97.79
261.112	52.74
261.328	73.21
261.544	-59.9
261.761	112.13
261.977	-35.33
262.193	-94.72
262.409	79.36
262.626	-4.61
262.842	87.55
263.058	11.78
263.274	110.08
263.49	97.79
263.707	-0.51
263.923	144.89
264.139	-18.94
264.355	-10.75
264.571	124.41
264.787	19.97
265.004	91.65
265.22	-14.85
265.436	-29.18
265.652	-12.8
265.868	46.59
266.084	-18.94
266.3	1.54
266.516	-33.28
266.732	3.58
266.948	30.21
267.164	-64
267.38	42.5
267.596	112.13
267.812	183.81
268.028	5.63
268.244	-6.66
268.46	32.26
268.676	-41.47
268.892	44.54
269.108	13.82
269.324	-80.38
269.54	52.74
269.756	19.97
269.972	-143.87
270.188	9.73
270.403	-37.38
270.619	24.06
270.835	77.31
271.051	87.55
271.267	-41.47
271.483	30.21
271.698	157.18
271.914	13.82
272.13	-12.8
272.346	15.87
272.562	46.59
272.777	116.22
272.993	42.5
273.209	-8.7
273.425	48.64
273.64	-57.86
273.856	151.04
274.072	-8.7
274.287	-14.85
274.503	110.08
274.719	83.45
274.934	56.83
275.15	-16.9
275.366	28.16
275.581	-64
275.797	60.93
276.012	3.58
276.228	50.69
276.444	-10.75
276.659	214.52
276.875	-74.24
277.09	-25.09
277.306	-18.94
277.521	44.54
277.737	-33.28
277.952	151.04
278.168	17.92
278.383	-35.33
278.599	11.78
278.814	67.07
279.03	-10.75
279.245	105.98
279.461	-59.9
279.676	99.84
279.892	-57.86
280.107	3.58
280.322	-6.66
280.538	79.36
280.753	5.63
280.969	-14.85
281.184	30.21
281.399	130.56
281.615	-14.85
281.83	50.69
282.045	-23.04
282.26	-61.95
282.476	-35.33
282.691	71.17
282.906	62.98
283.122	26.11
283.337	56.83
283.552	83.45
283.767	-6.66
283.983	26.11
284.198	-39.42
284.413	99.84
284.628	-45.57
284.843	60.93
285.058	-47.62
285.274	1.54
285.489	-64
285.704	36.35
285.919	-66.05
286.134	71.17
286.349	28.16
286.564	13.82
286.779	85.5
286.995	-59.9
287.21	-43.52
287.425	48.64
287.64	1.54
287.855	19.97
288.07	-41.47
288.285	26.11
288.5	192
288.715	114.17
288.93	48.64
289.145	-70.14
289.36	60.93
289.575	-35.33
289.79	44.54
290.004	-27.14
290.219	42.5
290.434	-6.66
290.649	13.82
290.864	-66.05
291.079	-12.8
291.294	58.88
291.509	79.36
291.724	-47.62
291.938	-78.33
292.153	-45.57
292.368	24.06
292.583	52.74
292.798	52.74
293.012	26.11
293.227	116.22
293.442	-18.94
293.657	28.16
293.871	159.23
294.086	5.63
294.301	169.47
294.516	97.79
294.73	3.58
294.945	-53.76
295.16	-33.28
295.374	116.22
295.589	200.19
295.804	-0.51
296.018	-86.53
296.233	114.17
296.447	42.5
296.662	-82.43
296.877	97.79
297.091	75.26
297.306	-12.8
297.52	58.88
297.735	42.5
297.949	85.5
298.164	5.63
298.378	32.26
298.593	-10.75
298.807	15.87
299.022	42.5
299.236	134.65
299.451	-10.75
299.665	-18.94
299.88	13.82
300.094	62.98
300.309	54.78
300.523	-2.56
300.737	-35.33
300.952	77.31
301.166	48.64
301.381	-45.57
301.595	-25.09
301.809	77.31
302.024	19.97
302.238	40.45
302.452	114.17
302.667	13.82
302.881	99.84
303.095	36.35
303.309	15.87
303.524	52.74
303.738	1.54
303.952	-59.9
304.166	56.83
304.381	-125.44
304.595	108.03
304.809	-51.71
305.023	120.32
305.237	17.92
305.452	-27.14
305.666	38.4
305.88	130.56
306.094	95.74
306.308	24.06
306.522	153.09
306.736	36.35
306.95	79.36
307.164	79.36
307.379	3.58
307.593	159.23
307.807	56.83
308.021	110.08
308.235	118.27
308.449	-23.04
308.663	-25.09
308.877	218.62
309.091	87.55
309.305	58.88
309.519	-61.95
309.733	58.88
309.947	-10.75
310.161	40.45
310.374	46.59
310.588	181.76
310.802	-51.71
311.016	36.35
311.23	3.58
311.444	-23.04
311.658	26.11
311.872	124.41
312.085	134.65
312.299	77.31
312.513	99.84
312.727	30.21
312.941	-82.43
313.154	40.45
313.368	17.92
313.582	122.37
313.796	65.02
314.009	75.26
314.223	183.81
314.437	22.02
314.651	116.22
314.864	-31.23
315.078	60.93
315.292	-45.57
315.505	1.54
315.719	24.06
315.933	34.3
316.146	-82.43
316.36	-84.48
316.573	187.9
316.787	110.08
317.001	116.22
317.214	-23.04
317.428	30.21
317.641	11.78
317.855	24.06
318.068	-121.34
318.282	54.78
318.495	173.57
318.709	62.98
318.922	40.45
319.136	204.28
319.349	116.22
319.563	24.06
319.776	17.92
319.99	-133.63
320.203	79.36
320.417	28.16
320.63	48.64
320.843	214.52
321.057	38.4
321.27	7.68
321.483	46.59
321.697	155.13
321.91	69.12
322.124	83.45
322.337	73.21
322.55	-123.39
322.763	-0.51
322.977	40.45
323.19	-16.9
323.403	15.87
323.617	73.21
323.83	40.45
324.043	110.08
324.256	-10.75
324.469	-25.09
324.683	108.03
324.896	56.83
325.109	-2.56
325.322	3.58
325.535	110.08
325.748	52.74
325.962	24.06
326.175	122.37
326.388	99.84
326.601	110.08
326.814	36.35
327.027	30.21
327.24	171.52
327.453	-119.29
327.666	5.63
327.879	126.46
328.092	28.16
328.305	26.11
328.518	-43.52
328.731	-53.76
328.944	24.06
329.157	-14.85
329.37	-4.61
329.583	189.95
329.796	157.18
330.009	-104.96
330.222	22.02
330.435	60.93
330.648	40.45
330.861	38.4
331.073	7.68
331.286	112.13
331.499	108.03
331.712	-20.99
331.925	71.17
332.138	34.3
332.35	144.89
332.563	-0.51
332.776	161.28
332.989	-64
333.202	-29.18
333.414	40.45
333.627	28.16
333.84	-6.66
334.053	38.4
334.265	-0.51
334.478	-92.67
334.691	15.87
334.903	-14.85
335.116	-35.33
335.329	38.4
335.541	75.26
335.754	120.32
335.966	-25.09
336.179	40.45
336.392	-27.14
336.604	101.89
336.817	103.93
337.029	77.31
337.242	32.26
337.454	130.56
337.667	50.69
337.88	120.32
338.092	112.13
338.305	28.16
338.517	-0.51
338.729	42.5
338.942	114.17
339.154	-27.14
339.367	-90.62
339.579	60.93
339.792	-96.77
340.004	65.02
340.217	89.6
340.429	73.21
340.641	-18.94
340.854	-45.57
341.066	7.68
341.278	87.55
341.491	118.27
341.703	93.69
341.915	-51.71
342.128	116.22
342.34	44.54
342.552	-55.81
342.764	-45.57
342.977	36.35
343.189	54.78
343.401	-18.94
343.613	-37.38
343.826	34.3
344.038	-4.61
344.25	56.83
344.462	-39.42
344.674	99.84
344.886	-10.75
345.099	81.41
345.311	60.93
345.523	42.5
345.735	-139.77
345.947	-16.9
346.159	44.54
346.371	-31.23
346.583	-84.48
346.795	179.71
347.007	22.02
347.219	128.51
347.431	-6.66
347.643	136.7
347.855	52.74
348.067	126.46
348.279	-51.71
348.491	42.5
348.703	62.98
348.915	-59.9
349.127	-25.09
349.339	44.54
349.551	15.87
349.763	24.06
349.975	50.69
350.187	83.45
350.399	91.65
350.61	24.06
350.822	-92.67
351.034	38.4
351.246	108.03
351.458	67.07
351.669	89.6
351.881	67.07
352.093	155.13
352.305	73.21
352.517	30.21
352.728	122.37
352.94	26.11
353.152	40.45
353.363	-2.56
353.575	116.22
353.787	157.18
353.999	24.06
354.21	146.94
354.422	-61.95
354.633	11.78
354.845	19.97
355.057	46.59
355.268	34.3
355.48	5.63
355.692	-92.67
355.903	58.88
356.115	-37.38
356.326	-51.71
356.538	157.18
356.749	7.68
356.961	148.99
357.172	60.93
357.384	-12.8
357.595	216.57
357.807	52.74
358.018	91.65
358.23	3.58
358.441	116.22
358.653	122.37
358.864	54.78
359.075	-59.9
359.287	34.3
359.498	103.93
359.709	48.64
359.921	77.31
360.132	114.17
360.344	87.55
360.555	48.64
360.766	93.69
360.977	-8.7
361.189	73.21
361.4	28.16
361.611	67.07
361.823	34.3
362.034	1.54
362.245	1.54
362.456	7.68
362.667	44.54
362.879	-43.52
363.09	7.68
363.301	65.02
363.512	9.73
363.723	5.63
363.935	-53.76
364.146	124.41
364.357	52.74
364.568	34.3
364.779	-78.33
364.99	85.5
365.201	-51.71
365.412	148.99
365.623	-55.81
365.834	69.12
366.045	30.21
366.256	155.13
366.467	105.98
366.678	-2.56
366.889	1.54
367.1	-27.14
367.311	116.22
367.522	38.4
367.733	13.82
367.944	36.35
368.155	89.6
368.366	93.69
368.577	128.51
368.788	62.98
368.999	19.97
369.209	44.54
369.42	249.34
369.631	230.91
369.842	17.92
370.053	-10.75
370.264	77.31
370.474	1.54
370.685	58.88
370.896	54.78
371.107	95.74
371.317	83.45
371.528	17.92
371.739	103.93
371.95	83.45
372.16	60.93
372.371	-37.38
372.582	-14.85
372.792	192
373.003	65.02
373.214	17.92
373.424	146.94
373.635	-57.86
373.846	73.21
374.056	26.11
374.267	71.17
374.477	17.92
374.688	-64
374.898	9.73
375.109	114.17
375.319	38.4
375.53	67.07
375.74	77.31
375.951	60.93
376.161	56.83
376.372	85.5
376.582	-59.9
376.793	46.59
377.003	-80.38
377.214	-57.86
377.424	24.06
377.635	42.5
377.845	24.06
378.055	173.57
378.266	-8.7
378.476	9.73
378.686	3.58
378.897	87.55
379.107	60.93
379.317	71.17
379.528	40.45
379.738	46.59
379.948	-72.19
380.158	124.41
380.369	26.11
380.579	11.78
380.789	7.68
380.999	7.68
381.21	159.23
381.42	151.04
381.63	17.92
381.84	56.83
382.05	26.11
382.261	85.5
382.471	108.03
382.681	-84.48
382.891	171.52
383.101	75.26
383.311	-80.38
383.521	-20.99
383.731	105.98
383.941	85.5
384.151	36.35
384.361	24.06
384.571	69.12
384.781	28.16
384.991	128.51
385.201	89.6
385.411	52.74
385.621	-20.99
385.831	34.3
386.041	48.64
386.251	-16.9
386.461	95.74
386.671	-8.7
386.881	5.63
387.091	77.31
387.301	-18.94
387.511	81.41
387.72	81.41
387.93	60.93
388.14	-84.48
388.35	67.07
388.56	28.16
388.769	118.27
388.979	34.3
389.189	26.11
389.399	28.16
389.609	77.31
389.818	103.93
390.028	91.65
390.238	1.54
390.447	32.26
390.657	144.89
390.867	38.4
391.076	-115.2
391.286	58.88
391.496	15.87
391.705	-10.75
391.915	85.5
392.125	54.78
392.334	-4.61
392.544	101.89
392.753	-37.38
392.963	22.02
393.172	34.3
393.382	15.87
393.591	169.47
393.801	-25.09
394.01	114.17
394.22	87.55
394.429	17.92
394.639	65.02
394.848	50.69
395.058	34.3
395.267	-35.33
395.477	46.59
395.686	58.88
395.895	122.37
396.105	171.52
396.314	30.21
396.524	-6.66
396.733	-47.62
396.942	159.23
397.152	32.26
397.361	85.5
397.57	38.4
397.78	65.02
397.989	112.13
398.198	142.85
398.407	3.58
398.617	-10.75
398.826	13.82
399.035	-49.66
399.244	30.21
399.453	97.79
399.663	-18.94
399.872	97.79
400.081	-29.18
400.29	69.12
400.499	-31.23
400.708	50.69
400.917	5.63
401.127	71.17
401.336	11.78
401.545	194.05
401.754	146.94
401.963	146.94
402.172	36.35
402.381	-68.09
402.59	32.26
402.799	60.93
403.008	34.3
403.217	69.12
403.426	52.74
403.635	-41.47
403.844	83.45
404.053	-33.28
404.262	-10.75
404.471	169.47
404.68	93.69
404.888	-23.04
405.097	17.92
405.306	7.68
405.515	56.83
405.724	-18.94
405.933	38.4
406.142	-2.56
406.35	181.76
406.559	22.02
406.768	93.69
406.977	97.79
407.185	71.17
407.394	161.28
407.603	46.59
407.812	85.5
408.02	144.89
408.229	62.98
408.438	9.73
408.646	-74.24
408.855	-0.51
409.064	60.93
409.272	54.78
409.481	17.92
409.69	13.82
409.898	-20.99
410.107	69.12
410.315	24.06
410.524	-47.62
410.733	58.88
410.941	-16.9
411.15	126.46
411.358	38.4
411.567	112.13
411.775	7.68
411.984	73.21
412.192	114.17
412.401	42.5
412.609	179.71
412.818	151.04
413.026	34.3
413.234	5.63
413.443	-35.33
413.651	1.54
413.86	28.16
414.068	138.75
414.276	146.94
414.485	-66.05
414.693	101.89
414.901	185.85
415.11	50.69
415.318	44.54
415.526	1.54
415.734	151.04
415.943	5.63
416.151	87.55
416.359	60.93
416.567	38.4
416.776	134.65
416.984	151.04
417.192	144.89
417.4	52.74
417.608	3.58
417.817	60.93
418.025	132.61
418.233	93.69
418.441	3.58
418.649	34.3
418.857	58.88
419.065	167.42
419.273	-53.76
419.481	26.11
419.689	103.93
419.897	-2.56
420.105	-49.66
420.313	97.79
420.521	163.33
420.729	198.14
420.937	-31.23
421.145	-2.56
421.353	77.31
421.561	101.89
421.769	9.73
421.977	-47.62
422.185	62.98
422.393	77.31
422.601	148.99
422.809	58.88
423.017	75.26
423.224	30.21
423.432	171.52
423.64	65.02
423.848	71.17
424.056	-27.14
424.263	192
424.471	48.64
424.679	95.74
424.887	-49.66
425.094	175.61
425.302	60.93
425.51	26.11
425.718	171.52
425.925	85.5
426.133	48.64
426.341	243.2
426.548	52.74
426.756	44.54
426.964	93.69
427.171	-18.94
427.379	87.55
427.586	44.54
427.794	175.61
428.001	108.03
428.209	108.03
428.417	183.81
428.624	157.18
428.832	91.65
429.039	128.51
429.247	122.37
429.454	157.18
429.662	183.81
429.869	46.59
430.076	114.17
430.284	171.52
430.491	228.86
430.699	128.51
430.906	169.47
431.114	155.13
431.321	175.61
431.528	73.21
431.736	116.22
431.943	212.48
432.15	89.6
432.358	208.38
432.565	273.92
432.772	-43.52
432.979	198.14
433.187	245.24
433.394	208.38
433.601	108.03
433.808	210.43
434.016	249.34
434.223	228.86
434.43	179.71
434.637	261.63
434.844	159.23
435.052	259.58
435.259	245.24
435.466	292.35
435.673	269.82
435.88	286.2
436.087	302.59
436.294	351.74
436.501	349.69
436.708	300.54
436.915	382.46
437.122	431.61
437.329	267.77
437.537	343.55
437.743	407.03
437.95	454.14
438.157	433.66
438.364	429.56
438.571	380.41
438.778	509.43
438.985	515.58
439.192	505.34
439.399	466.42
439.606	491
439.813	558.58
440.02	626.17
440.227	747
440.433	665.08
440.64	556.54
440.847	511.48
441.054	665.08
441.261	794.1
441.467	747
441.674	663.03
441.881	767.48
442.088	759.28
442.294	808.44
442.501	812.53
442.708	814.58
442.914	906.74
443.121	916.98
443.328	935.41
443.534	1025.52
443.741	976.37
443.948	904.69
444.154	1023.47
444.361	1258.99
444.568	1140.21
444.774	1115.63
444.981	1140.21
445.187	1269.23
445.394	1246.7
445.6	1281.52
445.807	1494.51
446.013	1324.52
446.22	1467.88
446.426	1635.82
446.633	1723.88
446.839	1834.47
447.046	1674.73
447.252	1764.84
447.459	1816.04
447.665	1813.99
447.871	1994.21
448.078	2063.84
448.284	2100.7
448.491	2149.86
448.697	2297.31
448.903	2467.29
449.11	2588.12
449.316	2506.2
449.522	2696.66
449.728	2680.28
449.935	2833.88
450.141	2831.83
450.347	3200.46
450.553	3030.48
450.76	3165.65
450.966	3395.02
451.172	3331.53
451.378	3565
451.584	3573.19
451.791	3843.53
451.997	4007.36
452.203	3980.74
452.409	4230.59
452.615	4470.2
452.821	4292.03
453.027	4314.56
453.233	5100.98
453.44	4826.55
453.646	5182.9
453.852	5223.86
454.058	5578.15
454.264	5504.43
454.47	6026.66
454.676	6041
454.882	6469.02
455.088	6243.74
455.294	6559.13
455.5	7001.49
455.705	7333.26
455.911	7421.33
456.117	7832.97
456.323	7955.85
456.529	8013.19
456.735	8689.02
456.941	8996.21
457.147	9131.38
457.352	9487.73
457.558	9641.32
457.764	10358.11
457.97	10644.83
458.176	10986.84
458.381	11556.18
458.587	11730.25
458.793	12414.27
458.999	12401.99
459.204	13743.41
459.41	14452
459.616	14163.24
459.821	14818.59
460.027	15574.29
460.233	16346.37
460.438	16516.36
460.644	17349.88
460.85	17775.86
461.055	17990.89
461.261	19082.46
461.466	18668.77
461.672	19002.59
461.878	21494.97
462.083	20991.17
462.289	21488.82
462.494	22181.04
462.7	22586.54
462.905	23002.27
463.111	24927.36
463.316	25822.33
463.522	26567.79
463.727	27165.79
463.932	28220.5
464.138	29170.75
464.343	30366.77
464.549	30612.52
464.754	32998.41
464.959	33864.7
465.165	34354.16
465.37	34192.37
465.575	34167.8
465.781	36019.16
465.986	37258.18
466.191	36694.99
466.397	37110.73
466.602	36240.34
466.807	38577.08
467.012	39082.92
467.218	39658.4
467.423	39494.57
467.628	40633.24
467.833	42433.4
468.038	41644.93
468.244	41102.22
468.449	43404.14
468.654	42660.73
468.859	42423.16
469.064	42818.42
469.269	41102.22
469.474	41911.17
469.679	42836.85
469.885	41739.14
470.09	42560.37
470.295	42296.19
470.5	41638.79
470.705	42052.48
470.91	41034.64
471.115	40430.49
471.32	40979.34
471.525	40272.79
471.73	39656.35
471.935	39324.58
472.139	37800.9
472.344	37995.45
472.549	37704.64
472.754	36830.16
472.959	36019.16
473.164	35019.75
473.369	34317.3
473.574	35458.02
473.778	34675.69
473.983	34073.59
474.188	33565.7
474.393	31579.17
474.598	31468.58
474.802	30686.25
475.007	30633
475.212	30618.67
475.417	29236.29
475.621	28849.22
475.826	28679.24
476.031	27757.66
476.235	27444.32
476.44	27501.66
476.645	26449
476.849	26543.21
477.054	26111.09
477.259	25291.9
477.463	25130.11
477.668	24384.65
477.872	24726.66
478.077	23956.63
478.282	22959.27
478.486	22938.79
478.691	22885.54
478.895	22521
479.1	22258.86
479.304	22521
479.509	21396.67
479.713	21945.52
479.918	21312.7
480.122	21019.84
480.326	20974.78
480.531	20970.69
480.735	20737.22
480.94	20268.23
481.144	20946.11
481.348	19952.85
481.553	19999.95
481.757	19453.14
481.961	19649.75
482.166	19576.02
482.37	19332.31
482.574	18867.42
482.778	18951.39
482.983	19582.17
483.187	18797.79
483.391	18859.23
483.595	18302.18
483.8	18334.95
484.004	18113.77
484.208	18263.27
484.412	18089.2
484.616	17900.78
484.821	17753.33
485.025	17128.7
485.229	17368.31
485.433	16878.85
485.637	16796.93
485.841	16303.37
486.045	16411.91
486.249	15963.4
486.453	15680.78
486.657	15605.01
486.861	15430.93
487.065	14624.03
487.269	14955.8
487.473	14226.73
487.677	14785.82
487.881	14562.59
488.085	13837.61
488.289	13696.3
488.493	13491.51
488.697	13509.94
488.901	13315.38
489.105	12655.93
489.309	12641.6
489.512	12350.79
489.716	12113.22
489.92	12002.63
490.124	11554.13
490.328	11830.6
490.531	11357.52
490.735	11177.3
490.939	10929.5
491.143	10763.61
491.346	10511.71
491.55	10351.97
491.754	9999.72
491.958	10067.3
492.161	10012.01
492.365	9780.59
492.569	9510.25
492.772	9526.64
492.976	9387.38
493.18	9295.22
493.383	9137.52
493.587	9051.51
493.79	8985.97
493.994	8693.12
494.197	8609.15
494.401	8447.36
494.605	8428.93
494.808	8471.93
495.012	8365.44
495.215	8297.86
495.419	8379.78
495.622	7832.97
495.825	8144.26
496.029	7918.98
496.232	8248.71
496.436	7728.52
496.639	8228.23
496.843	7753.1
497.046	7792.01
497.249	8099.2
497.453	7980.42
497.656	7814.54
497.859	7937.41
498.063	7888.26
498.266	7888.26
498.469	7773.58
498.673	7894.41
498.876	7855.5
499.079	8078.72
499.282	7888.26
499.485	8330.62
499.689	8039.81
499.892	8074.63
500.095	7994.76
500.298	8168.84
500.501	8142.21
500.705	8205.7
500.908	8430.98
501.111	8392.06
501.314	8615.29
501.517	8590.72
501.72	8560
501.923	8596.86
502.126	8803.71
502.329	8994.17
502.532	8865.14
502.735	8883.58
502.938	9229.68
503.141	9211.25
503.344	9178.48
503.547	9670
503.75	9352.56
503.953	9639.28
504.156	9932.14
504.359	10005.86
504.562	9919.85
504.765	10286.44
504.968	10501.47
505.17	10640.73
505.373	10771.8
505.576	10947.93
505.779	11023.7
505.982	11072.86
506.185	11568.46
506.387	11500.88
506.59	11726.16
506.793	12002.63
506.996	12014.92
507.198	12629.31
507.401	12551.49
507.604	12838.2
507.807	13434.16
508.009	13339.96
508.212	13598
508.415	13968.68
508.617	14441.76
508.82	14150.95
509.022	14419.24
509.225	15136.03
509.428	15381.78
509.63	15701.26
509.833	15582.48
510.035	16837.89
510.238	16416.01
510.44	17022.2
510.643	17308.92
510.845	17902.83
511.048	17964.27
511.25	18293.99
511.453	18775.27
511.655	19723.48
511.858	19637.46
512.06	20020.43
512.262	20346.06
512.465	20907.2
512.667	21660.85
512.87	21947.57
513.072	22461.61
513.274	23116.96
513.477	23497.88
513.679	24122.51
513.881	24528.01
514.084	24902.79
514.286	25373.82
514.488	25783.41
514.69	26967.14
514.893	27419.74
515.095	27952.21
515.297	28613.71
515.499	28902.47
515.701	29555.77
515.904	30391.34
516.106	30979.11
516.308	31624.22
516.51	32418.83
516.712	32762.89
516.914	33623.04
517.116	34372.6
517.318	34737.13
517.52	35191.78
517.722	35949.53
517.925	36676.56
518.127	37438.4
518.329	38271.93
518.531	37952.44
518.733	39250.86
518.935	39877.54
519.136	40528.79
519.338	41302.92
519.54	41470.86
519.742	42261.37
519.944	42836.85
520.146	43850.59
520.348	43973.47
520.55	44376.92
520.752	45159.25
520.954	46195.52
521.155	46385.98
521.357	47143.73
521.559	47446.83
521.761	48687.9
521.963	48388.89
522.164	49017.62
522.366	49011.48
522.568	49496.84
522.77	50178.82
522.971	50760.44
523.173	50510.59
523.375	51806.95
523.576	51409.65
523.778	51380.98
523.98	52071.14
524.181	52263.65
524.383	51757.8
524.584	52732.64
524.786	52640.48
524.988	52382.43
525.189	53324.5
525.391	53537.49
525.592	53326.55
525.794	53320.4
525.995	52839.13
526.197	53080.79
526.398	53082.84
526.6	53269.2
526.801	52738.78
527.003	52992.73
527.204	53029.59
527.406	52919
527.607	52042.47
527.808	52599.52
528.01	51356.4
528.211	51649.26
528.412	51722.99
528.614	51546.86
528.815	51223.28
529.016	50985.72
529.218	49761.03
529.419	50105.09
529.62	49314.58
529.822	49347.34
530.023	48360.22
530.224	48032.55
530.425	47917.86
530.626	46873.4
530.828	46201.66
531.029	46852.92
531.23	45841.22
531.431	45488.97
531.632	45001.55
531.833	44383.07
532.035	43793.25
532.236	43578.22
532.437	43383.66
532.638	42177.4
532.839	41890.69
533.04	41165.71
533.241	40297.37
533.442	40885.14
533.643	39941.02
533.844	39596.96
534.045	39037.87
534.246	38204.35
534.447	37995.45
534.648	37147.59
534.849	36836.3
535.05	36305.88
535.251	36191.19
535.451	35423.2
535.652	35134.44
535.853	34571.25
536.054	34102.26
536.255	33580.03
536.456	32705.55
536.657	32953.35
536.857	31857.69
537.058	31933.46
537.259	31589.41
537.46	30817.32
537.66	30626.86
537.861	30448.69
538.062	29850.68
538.263	29168.71
538.463	28744.78
538.664	28603.47
538.865	28525.64
539.065	28300.37
539.266	27085.92
539.466	27442.27
539.667	26625.13
539.868	26707.05
540.068	26176.62
540.269	25926.77
540.469	25533.56
540.67	25328.77
540.87	24814.73
541.071	24620.17
541.271	24777.86
541.472	24593.54
541.672	23907.48
541.873	23764.12
542.073	23051.42
542.274	23239.84
542.474	22633.64
542.675	22383.79
542.875	22627.49
543.075	22201.52
543.276	21757.11
543.476	21578.93
543.676	21271.74
543.877	20919.49
544.077	20837.57
544.277	20575.43
544.478	20106.45
544.678	20315.34
544.878	19991.76
545.078	19786.96
545.279	19453.14
545.479	18994.4
545.679	19178.72
545.879	18633.96
546.079	18541.8
546.28	18445.54
546.48	17730.8
546.68	17951.98
546.88	17665.27
547.08	17501.43
547.28	17356.02
547.48	16962.81
547.68	17370.36
547.88	16512.26
548.081	16448.77
548.281	16327.94
548.481	15879.44
548.681	16080.14
548.881	15668.5
549.081	15533.33
549.28	15349.01
549.48	15035.67
549.68	15181.08
549.88	14748.96
550.08	14273.83
550.28	14222.63
550.48	14226.73
550.68	14019.88
550.88	13675.82
551.08	13520.18
551.279	13534.51
551.479	13186.36
551.679	13178.17
551.879	12455.23
552.079	12557.63
552.278	12473.67
552.478	12408.13
552.678	12047.69
552.878	11679.05
553.077	11543.89
553.277	11353.43
553.477	11527.5
553.676	11171.16
553.876	10904.92
554.076	10855.77
554.275	10679.65
554.475	10255.72
554.674	10407.27
554.874	10003.82
555.074	9758.06
555.273	9844.07
555.473	9796.97
555.672	9442.67
555.872	9354.61
556.071	9219.44
556.271	9223.54
556.47	8836.47
556.67	8682.88
556.869	8650.11
557.068	8465.79
557.268	8289.67
557.467	8158.6
557.667	8226.18
557.866	7996.81
558.065	7622.03
558.265	7775.63
558.464	7478.67
558.663	7476.62
558.863	7204.24
559.062	7204.24
559.261	7019.92
559.461	7093.65
559.66	6667.67
559.859	6645.15
560.058	6555.04
560.258	6407.58
560.457	6319.52
560.656	6434.21
560.855	6262.18
561.054	6245.79
561.253	5954.98
561.453	5957.03
561.652	5944.74
561.851	5719.46
562.05	5442.99
562.249	5442.99
562.448	5473.71
562.647	5293.49
562.846	5141.94
563.045	5238.19
563.244	5199.28
563.443	5041.59
563.642	4922.8
563.841	4920.76
564.04	4855.22
564.239	4787.64
564.438	4793.78
564.637	4537.79
564.836	4519.36
565.035	4511.16
565.234	4509.12
565.432	4345.28
565.631	4427.2
565.83	4351.42
566.029	4124.1
566.228	4183.49
566.427	4163.01
566.625	3982.79
566.824	3843.53
567.023	3911.11
567.222	3909.06
567.42	3730.89
567.619	3732.94
567.818	3556.81
568.016	3777.99
568.215	3503.56
568.414	3513.8
568.612	3517.9
568.811	3409.36
569.01	3343.82
569.208	3190.22
569.407	3212.75
569.605	3407.31
569.804	3134.93
570.002	3143.12
570.201	3030.48
570.4	2995.67
570.598	2958.8
570.797	2885.08
570.995	2934.23
571.193	2780.63
571.392	2807.25
571.59	2702.81
571.789	2807.25
571.987	2745.81
572.186	2784.73
572.384	2680.28
572.582	2614.74
572.781	2643.42
572.979	2393.56
573.177	2391.52
573.376	2368.99
573.574	2334.17
573.772	2338.27
573.971	2276.83
574.169	2235.87
574.367	2125.28
574.565	2237.92
574.763	2229.73
574.962	2209.25
575.16	2031.07
575.358	2106.85
575.556	2037.22
575.754	1994.21
575.952	1930.72
576.151	1973.73
576.349	1936.87
576.547	1840.61
576.745	1828.32
576.943	1943.01
577.141	1881.57
577.339	1703.4
577.537	1758.69
577.735	1590.76
577.933	1773.03
578.131	1521.13
578.329	1709.54
578.527	1607.14
578.725	1646.05
578.923	1396.2
579.121	1478.12
579.319	1340.91
579.516	1461.74
579.714	1580.52
579.912	1320.43
580.11	1197.55
580.308	1314.28
580.506	1342.96
580.704	1164.78
580.901	1254.89
581.099	1498.6
581.297	1277.42
581.495	1375.72
581.692	1230.32
581.89	1398.25
582.088	1234.41
582.285	1109.49
582.483	1107.44
582.681	1072.62
582.878	1144.3
583.076	1064.43
583.274	1150.45
583.471	1336.81
583.669	1021.42
583.866	841.2
584.064	1062.38
584.262	900.59
584.459	959.99
584.657	1054.19
584.854	1033.71
585.052	955.89
585.249	986.61
585.447	912.88
585.644	896.5
585.841	906.74
586.039	976.37
586.236	1005.04
586.434	929.27
586.631	878.07
586.828	830.96
587.026	865.78
587.223	708.09
587.42	695.8
587.618	837.11
587.815	931.31
588.012	736.76
588.21	660.98
588.407	796.15
588.604	765.43
588.801	804.34
588.999	675.32
589.196	710.13
589.393	703.99
589.59	843.25
589.787	687.61
589.984	703.99
590.182	781.81
590.379	622.07
590.576	646.65
590.773	681.46
590.97	691.7
591.167	720.37
591.364	665.08
591.561	665.08
591.758	822.77
591.955	718.33
592.152	642.55
592.349	634.36
592.546	691.7
592.743	638.45
592.94	609.78
593.137	710.13
593.334	708.09
593.531	751.09
593.727	689.65
593.924	644.6
594.121	747
594.318	536.06
594.515	718.33
594.712	779.76
594.908	830.96
595.105	626.17
595.302	777.72
595.499	703.99
595.696	921.07
595.892	703.99
596.089	921.07
596.286	669.17
596.482	830.96
596.679	796.15
596.876	767.48
597.072	949.75
597.269	814.58
597.466	878.07
597.662	912.88
597.859	919.03
598.055	1017.33
598.252	1103.34
598.448	1054.19
598.645	1091.06
598.841	1091.06
599.038	1306.09
599.234	1162.73
599.431	1355.24
599.627	1304.04
599.824	1299.95
600.02	1404.39
600.217	1467.88
600.413	1533.42
600.609	1426.92
600.806	1883.62
601.002	1750.5
601.198	1666.53
601.395	1900
601.591	1916.39
601.787	1900
601.984	2049.5
602.18	2033.12
602.376	2026.98
602.572	2313.69
602.769	2401.76
602.965	2334.17
603.161	2528.73
603.357	2569.69
603.553	2729.43
603.75	2659.8
603.946	2766.29
604.142	3050.96
604.338	3204.56
604.534	2971.09
604.73	3212.75
604.926	3214.8
605.122	3427.79
605.318	3435.98
605.514	3679.69
605.71	3808.71
605.906	3796.42
606.102	3804.61
606.298	4124.1
606.494	4095.43
606.69	4423.1
606.886	4384.19
607.082	4531.64
607.278	4615.61
607.474	4806.07
607.67	5057.97
607.866	4971.96
608.062	5309.87
608.257	5356.97
608.453	5516.72
608.649	5741.99
608.845	5762.47
609.041	5928.36
609.236	6184.35
609.432	6389.15
609.628	6530.46
609.824	6843.8
610.019	6768.02
610.215	7101.84
610.411	7132.56
610.606	7544.2
610.802	7574.92
610.998	7726.47
611.193	7927.18
611.389	8005
611.584	8347.01
611.78	8406.4
611.976	8852.86
612.171	9102.71
612.367	9276.79
612.562	9530.73
612.758	9821.55
612.953	9889.13
613.149	10511.71
613.344	10440.03
613.539	10911.07
613.735	11269.46
613.93	11593.04
614.126	11660.62
614.321	11967.82
614.517	12481.86
614.712	12553.54
614.907	12983.61
615.103	13442.35
615.298	13428.02
615.493	14011.69
615.688	13978.92
615.884	14683.42
616.079	14601.51
616.274	15471.89
616.47	15643.92
616.665	16246.02
616.86	16614.66
617.055	16786.69
617.25	17245.43
617.445	18011.37
617.641	17962.22
617.836	18885.86
618.031	18965.73
618.226	19760.34
618.421	19948.75
618.616	20714.69
618.811	20749.51
619.006	21339.32
619.201	21464.25
619.396	22299.82
619.591	22604.97
619.786	23336.09
619.981	23485.59
620.176	24132.75
620.371	24304.78
620.566	25367.68
620.761	25836.66
620.956	26453.1
621.151	26602.6
621.346	27599.96
621.541	27481.18
621.735	28531.79
621.93	28605.52
622.125	29465.66
622.32	29305.92
622.515	30299.19
622.709	30688.3
622.904	31415.33
623.099	32111.64
623.294	32263.19
623.488	33121.29
623.683	33698.81
623.878	33815.55
624.072	34450.42
624.267	34950.12
624.462	35875.8
624.656	36359.13
624.851	37141.45
625.046	37047.24
625.24	37802.94
625.435	37927.87
625.629	38321.08
625.824	39506.85
626.018	39711.65
626.213	39758.75
626.407	40678.29
626.602	40156.06
626.796	41233.29
626.991	41925.5
627.185	41603.97
627.38	42077.05
627.574	42414.97
627.768	42765.17
627.963	42924.91
628.157	42902.39
628.352	43228.01
628.546	42412.92
628.74	43336.55
628.935	42953.58
629.129	43299.69
629.323	42449.78
629.517	42511.22
629.712	42285.95
629.906	41810.82
630.1	41030.54
630.294	41356.17
630.489	40420.25
630.683	40354.71
630.877	39066.54
631.071	38697.91
631.265	38472.63
631.459	37446.6
631.653	36588.5
631.848	36133.85
632.042	34843.63
632.236	34634.74
632.43	33270.79
632.624	32685.07
632.818	31231.01
633.012	30065.72
633.206	29490.24
633.4	28918.85
633.594	27221.09
633.788	26748.01
633.982	25525.37
634.176	25117.82
634.369	23764.12
634.563	22989.99
634.757	22383.79
634.951	21644.47
635.145	20493.51
635.339	19750.1
635.533	18967.77
635.726	18337
635.92	17378.55
636.114	16600.32
636.308	15983.88
636.501	15258.9
636.695	15117.59
636.889	14142.76
637.083	13550.9
637.276	12905.79
637.47	12600.64
637.664	11953.48
637.857	11754.83
638.051	11062.62
638.244	10702.17
638.438	10237.28
638.632	9796.97
638.825	9340.27
639.019	9127.28
639.212	8592.76
639.406	8332.67
639.599	8076.68
639.793	7695.75
639.986	7382.42
640.18	7085.46
640.373	6796.7
640.567	6483.36
640.76	6243.74
640.954	6079.91
641.147	5725.61
641.34	5574.06
641.534	5352.88
641.727	5305.78
641.92	5064.11
642.114	4801.97
642.307	4519.36
642.5	4535.74
642.694	4298.17
642.887	4060.61
643.08	4005.31
643.273	3835.33
643.467	3648.97
643.66	3485.13
643.853	3333.58
644.046	3311.05
644.239	3085.78
644.432	2825.68
644.626	2780.63
644.819	2745.81
645.012	2557.4
645.205	2643.42
645.398	2563.54
645.591	2334.17
645.784	2258.4
645.977	2170.33
646.17	2043.36
646.363	1996.26
646.556	1805.8
646.749	1830.37
646.942	1887.72
647.135	1893.86
647.328	1674.73
647.521	1721.83
647.714	1467.88
647.907	1533.42
648.099	1365.48
648.292	1435.11
648.485	1283.56
648.678	1246.7
648.871	1152.49
649.064	1252.84
649.256	1031.66
649.449	1052.14
649.642	1041.9
649.835	957.94
650.027	951.79
650.22	968.18
650.413	898.55
650.605	955.89
650.798	843.25
650.991	845.3
651.183	747
651.376	859.63
651.568	833.01
651.761	720.37
651.954	775.67
652.146	722.42
652.339	710.13
652.531	783.86
652.724	509.43
652.916	544.25
653.109	402.94
653.301	650.74
653.494	615.93
653.686	591.35
653.879	607.73
654.071	509.43
654.263	458.23
654.456	439.8
654.648	540.15
654.84	501.24
655.033	480.76
655.225	511.48
655.417	347.64
655.61	472.57
655.802	491
655.994	441.85
656.186	316.92
656.379	519.67
656.571	353.79
656.763	237.05
656.955	286.2
657.148	316.92
657.34	380.41
657.532	335.35
657.724	370.17
657.916	259.58
658.108	382.46
658.3	341.5
658.492	339.45
658.684	245.24
658.876	314.88
659.068	151.04
659.26	155.13
659.452	224.76
659.644	280.06
659.836	306.68
660.028	278.01
660.22	163.33
660.412	83.45
660.604	140.8
660.796	181.76
660.988	298.49
661.18	194.05
661.372	282.11
661.563	251.39
661.755	157.18
661.947	159.23
662.139	171.52
662.331	179.71
662.522	159.23
662.714	116.22
662.906	54.78
663.097	183.81
663.289	60.93
663.481	85.5
663.673	237.05
663.864	196.09
664.056	196.09
664.247	32.26
664.439	218.62
664.631	243.2
664.822	269.82
665.014	206.33
665.205	110.08
665.397	138.75
665.588	159.23
665.78	126.46
665.971	155.13
666.163	103.93
666.354	110.08
666.546	26.11
666.737	42.5
666.929	148.99
667.12	112.13
667.311	237.05
667.503	105.98
667.694	132.61
667.885	208.38
668.077	204.28
668.268	62.98
668.459	91.65
668.651	204.28
668.842	85.5
669.033	26.11
669.224	87.55
669.416	286.2
669.607	206.33
669.798	105.98
669.989	167.42
670.18	97.79
670.371	232.96
670.563	30.21
670.754	153.09
670.945	134.65
671.136	169.47
671.327	91.65
671.518	255.48
671.709	218.62
671.9	222.72
672.091	192
672.282	134.65
672.473	206.33
672.664	79.36
672.855	112.13
673.046	124.41
673.237	142.85
673.428	187.9
673.619	269.82
673.809	126.46
674	259.58
674.191	210.43
674.382	60.93
674.573	118.27
674.764	185.85
674.954	267.77
675.145	81.41
675.336	32.26
675.527	128.51
675.717	108.03
675.908	60.93
676.099	153.09
676.289	196.09
676.48	-4.61
676.671	204.28
676.861	110.08
677.052	196.09
677.243	200.19
677.433	136.7
677.624	142.85
677.814	202.24
678.005	157.18
678.195	251.39
678.386	73.21
678.576	235
678.767	83.45
678.957	185.85
679.148	224.76
679.338	300.54
679.529	251.39
679.719	161.28
679.909	255.48
680.1	267.77
680.29	206.33
680.481	155.13
680.671	263.68
680.861	259.58
681.052	181.76
681.242	136.7
681.432	208.38
681.622	235
681.813	101.89
682.003	247.29
682.193	157.18
682.383	228.86
682.573	183.81
682.764	167.42
682.954	261.63
683.144	302.59
683.334	157.18
683.524	259.58
683.714	173.57
683.904	298.49
684.094	218.62
684.284	280.06
684.474	308.73
684.664	251.39
684.854	206.33
685.044	198.14
685.234	247.29
685.424	220.67
685.614	161.28
685.804	343.55
685.994	308.73
686.184	179.71
686.374	210.43
686.564	245.24
686.753	265.72
686.943	179.71
687.133	200.19
687.323	210.43
687.513	298.49
687.702	179.71
687.892	202.24
688.082	294.4
688.272	312.83
688.461	241.15
688.651	357.88
688.841	300.54
689.03	212.48
689.22	278.01
689.41	282.11
689.599	267.77
689.789	89.6
689.979	314.88
690.168	200.19
690.358	243.2
690.547	294.4
690.737	194.05
690.926	312.83
691.116	232.96
691.305	251.39
691.495	271.87
691.684	124.41
691.874	253.44
692.063	245.24
692.252	323.07
692.442	241.15
692.631	247.29
692.82	185.85
693.01	216.57
693.199	189.95
693.388	259.58
693.578	261.63
693.767	163.33
693.956	216.57
694.146	206.33
694.335	253.44
694.524	228.86
694.713	257.53
694.902	171.52
695.092	243.2
695.281	286.2
695.47	189.95
695.659	189.95
695.848	194.05
696.037	206.33
696.226	290.3
696.415	226.81
696.604	292.35
696.793	269.82
696.982	245.24
697.171	325.12
697.36	144.89
697.549	212.48
697.738	112.13
697.927	89.6
698.116	130.56
698.305	206.33
698.494	286.2
698.683	230.91
698.872	341.5
699.061	212.48
699.25	249.34
699.438	144.89
699.627	245.24
699.816	329.21
700.005	89.6
700.193	116.22
700.382	257.53
700.571	259.58
700.76	228.86
700.948	247.29
701.137	220.67
701.326	275.96
701.514	155.13
701.703	232.96
701.892	187.9
702.08	349.69
702.269	187.9
702.457	216.57
702.646	202.24
702.834	218.62
703.023	296.44
703.212	267.77
703.4	251.39
703.589	153.09
703.777	112.13
703.965	167.42
704.154	216.57
704.342	114.17
704.531	105.98
704.719	243.2
704.907	181.76
705.096	124.41
705.284	122.37
705.472	140.8
705.661	220.67
705.849	282.11
706.037	335.35
706.226	306.68
706.414	271.87
706.602	140.8
706.79	212.48
706.979	165.37
707.167	237.05
707.355	93.69
707.543	284.16
707.731	292.35
707.919	175.61
708.107	237.05
708.296	95.74
708.484	120.32
708.672	230.91
708.86	212.48
709.048	179.71
709.236	202.24
709.424	302.59
709.612	220.67
709.8	114.17
709.988	230.91
710.176	316.92
710.364	222.72
710.551	177.66
710.739	220.67
710.927	196.09
711.115	210.43
711.303	235
711.491	253.44
711.679	140.8
711.866	259.58
712.054	95.74
712.242	198.14
712.43	257.53
712.617	185.85
712.805	331.26
712.993	175.61
713.181	171.52
713.368	239.1
713.556	202.24
713.744	132.61
713.931	382.46
714.119	177.66
714.306	208.38
714.494	230.91
714.682	230.91
714.869	167.42
715.057	210.43
715.244	56.83
715.432	212.48
715.619	183.81
715.807	239.1
715.994	198.14
716.182	230.91
716.369	257.53
716.556	288.25
716.744	114.17
716.931	108.03
717.119	271.87
717.306	212.48
717.493	204.28
717.681	208.38
717.868	292.35
718.055	263.68
718.242	196.09
718.43	179.71
718.617	327.16
718.804	189.95
718.991	318.97
719.179	198.14
719.366	161.28
719.553	261.63
719.74	136.7
719.927	312.83
720.114	298.49
720.301	110.08
720.488	144.89
720.676	130.56
720.863	239.1
721.05	361.98
721.237	255.48
721.424	235
721.611	206.33
721.798	214.52
721.985	273.92
722.172	183.81
722.358	171.52
722.545	296.44
722.732	134.65
722.919	284.16
723.106	292.35
723.293	175.61
723.48	284.16
723.667	255.48
723.853	339.45
724.04	194.05
724.227	249.34
724.414	239.1
724.6	220.67
724.787	282.11
724.974	376.31
725.161	232.96
725.347	132.61
725.534	245.24
725.72	296.44
725.907	310.78
726.094	239.1
726.28	175.61
726.467	261.63
726.653	116.22
726.84	294.4
727.027	337.4
727.213	239.1
727.4	292.35
727.586	228.86
727.773	273.92
727.959	271.87
728.145	245.24
728.332	198.14
728.518	194.05
728.705	351.74
728.891	230.91
729.077	300.54
729.264	67.07
729.45	173.57
729.636	314.88
729.823	263.68
730.009	296.44
730.195	292.35
730.382	318.97
730.568	235
730.754	280.06
730.94	185.85
731.126	296.44
731.313	339.45
731.499	243.2
731.685	308.73
731.871	280.06
732.057	226.81
732.243	329.21
732.429	337.4
732.615	370.17
732.801	267.77
732.987	294.4
733.173	290.3
733.359	247.29
733.545	265.72
733.731	198.14
733.917	435.71
734.103	327.16
734.289	343.55
734.475	241.15
734.661	429.56
734.847	261.63
735.033	245.24
735.219	359.93
735.404	235
735.59	269.82
735.776	210.43
735.962	286.2
736.148	300.54
736.333	370.17
736.519	284.16
736.705	255.48
736.89	226.81
737.076	228.86
737.262	200.19
737.447	241.15
737.633	218.62
737.819	392.7
738.004	267.77
738.19	370.17
738.375	347.64
738.561	355.83
738.747	394.75
738.932	247.29
739.118	480.76
739.303	310.78
739.489	298.49
739.674	204.28
739.859	189.95
740.045	286.2
740.23	288.25
740.416	148.99
740.601	308.73
740.786	241.15
740.972	251.39
741.157	222.72
741.342	161.28
741.528	196.09
741.713	339.45
741.898	263.68
742.084	216.57
742.269	183.81
742.454	339.45
742.639	384.51
742.824	253.44
743.01	378.36
743.195	431.61
743.38	278.01
743.565	192
743.75	224.76
743.935	253.44
744.12	284.16
744.305	280.06
744.49	280.06
744.675	198.14
744.86	138.75
745.045	263.68
745.23	280.06
745.415	230.91
745.6	353.79
745.785	210.43
745.97	304.64
746.155	253.44
746.34	339.45
746.525	278.01
746.71	325.12
746.895	204.28
747.079	189.95
747.264	206.33
747.449	321.02
747.634	294.4
747.819	321.02
748.003	220.67
748.188	173.57
748.373	267.77
748.557	206.33
748.742	349.69
748.927	208.38
749.111	200.19
749.296	237.05
749.481	294.4
749.665	251.39
749.85	165.37
750.034	212.48
750.219	241.15
750.404	202.24
750.588	296.44
750.773	138.75
750.957	214.52
751.141	165.37
751.326	278.01
751.51	155.13
751.695	210.43
751.879	237.05
752.064	329.21
752.248	144.89
752.432	292.35
752.617	321.02
752.801	278.01
752.985	122.37
753.17	194.05
753.354	202.24
753.538	241.15
753.722	122.37
753.907	140.8
754.091	93.69
754.275	189.95
754.459	136.7
754.643	144.89
754.828	185.85
755.012	255.48
755.196	101.89
755.38	173.57
755.564	204.28
755.748	140.8
755.932	226.81
756.116	239.1
756.3	153.09
756.484	155.13
756.668	247.29
756.852	163.33
757.036	214.52
757.22	105.98
757.404	134.65
757.588	144.89
757.772	200.19
757.956	171.52
758.14	235
758.323	95.74
758.507	210.43
758.691	157.18
758.875	189.95
759.059	218.62
759.242	-2.56
759.426	99.84
759.61	155.13
759.794	87.55
759.977	179.71
760.161	382.46
760.345	167.42
760.528	214.52
760.712	140.8
760.895	163.33
761.079	171.52
761.263	161.28
761.446	97.79
761.63	48.64
761.813	232.96
761.997	67.07
762.18	93.69
762.364	171.52
762.547	38.4
762.731	85.5
762.914	101.89
763.098	101.89
763.281	105.98
763.464	73.21
763.648	210.43
763.831	138.75
764.015	83.45
764.198	140.8
764.381	171.52
764.564	138.75
764.748	140.8
764.931	134.65
765.114	169.47
765.297	163.33
765.481	-18.94
765.664	40.45
765.847	58.88
766.03	228.86
766.213	26.11
766.397	93.69
766.58	1.54
766.763	136.7
766.946	-23.04
767.129	83.45
767.312	101.89
767.495	132.61
767.678	40.45
767.861	130.56
768.044	77.31
768.227	75.26
768.41	167.42
768.593	118.27
768.776	54.78
768.959	110.08
769.142	196.09
769.324	44.54
769.507	54.78
769.69	-10.75
769.873	-2.56
770.056	314.88
770.239	77.31
770.421	257.53
770.604	161.28
770.787	60.93
770.97	79.36
771.152	-18.94
771.335	171.52
771.518	69.12
771.7	175.61
771.883	189.95
772.066	71.17
772.248	91.65
772.431	159.23
772.613	34.3
772.796	46.59
772.978	108.03
773.161	175.61
773.343	3.58
773.526	58.88
773.708	-25.09
773.891	-2.56
774.073	19.97
774.256	5.63
774.438	243.2
774.621	-14.85
774.803	67.07
774.985	56.83
775.168	54.78
775.35	22.02
775.532	138.75
775.715	13.82
775.897	48.64
776.079	30.21
776.261	120.32
776.444	19.97
776.626	-8.7
776.808	65.02
776.99	-14.85
777.173	118.27
777.355	3.58
777.537	97.79
777.719	38.4
777.901	1.54
778.083	24.06
778.265	-4.61
778.447	108.03
778.629	-10.75
778.811	79.36
778.993	97.79
779.175	128.51
779.357	62.98
779.539	19.97
779.721	67.07
779.903	120.32
780.085	-45.57
780.267	87.55
780.449	54.78
780.631	65.02
780.812	146.94
780.994	-2.56
781.176	17.92
781.358	56.83
781.54	15.87
781.721	103.93
781.903	34.3
782.085	97.79
782.267	89.6
782.448	-20.99
782.63	-53.76
782.812	1.54
782.993	97.79
783.175	73.21
783.357	15.87
783.538	36.35
783.72	-4.61
783.901	-10.75
784.083	85.5
784.264	36.35
784.446	7.68
784.627	-59.9
784.809	-18.94
784.99	-14.85
785.172	34.3
785.353	24.06
785.535	91.65
785.716	24.06
785.897	-4.61
786.079	13.82
786.26	52.74
786.441	58.88
786.623	-55.81
786.804	32.26
786.985	38.4
787.167	118.27
787.348	38.4
787.529	-94.72
787.71	105.98
787.891	122.37
788.073	-20.99
788.254	-31.23
788.435	167.42
788.616	116.22
788.797	1.54
788.978	7.68
789.159	-111.1
789.34	15.87
789.522	-23.04
789.703	-39.42
789.884	65.02
790.065	-43.52
790.246	130.56
790.427	-25.09
790.607	142.85
790.788	62.98
790.969	-64
791.15	56.83
791.331	7.68
791.512	-23.04
791.693	-33.28
791.874	-55.81
792.054	83.45
792.235	108.03
792.416	-68.09
792.597	-12.8
792.778	118.27
792.958	69.12
793.139	38.4
793.32	56.83
793.5	-53.76
793.681	108.03
793.862	93.69
794.042	24.06
794.223	-33.28
794.404	-33.28
794.584	-84.48
794.765	-59.9
794.945	-16.9
795.126	142.85
795.306	101.89
795.487	15.87
795.667	1.54
795.848	36.35
796.028	26.11
796.209	36.35
796.389	114.17
796.57	-16.9
796.75	-20.99
796.93	-0.51
797.111	-90.62
797.291	-27.14
797.471	11.78
797.652	36.35
797.832	13.82
798.012	42.5
798.192	-29.18
798.373	-41.47
798.553	19.97
798.733	71.17
798.913	42.5
799.093	-80.38
799.274	83.45
799.454	30.21
799.634	17.92
799.814	71.17
799.994	89.6
800.174	19.97
800.354	50.69
800.534	-27.14
800.714	17.92
800.894	-57.86
801.074	-94.72
801.254	-25.09
801.434	118.27
801.614	-113.15
801.794	-66.05
801.974	1752.55
802.154	52.74
802.334	134.65
802.514	-59.9
802.693	13.82
802.873	32.26
803.053	26.11
803.233	-20.99
803.413	-16.9
803.592	-64
803.772	1.54
803.952	62.98
804.131	-88.57
804.311	-27.14
804.491	108.03
804.67	-64
804.85	28.16
805.03	73.21
805.209	95.74
805.389	-2.56
805.568	-92.67
805.748	-27.14
805.928	-41.47
806.107	-31.23
806.287	26.11
806.466	97.79
806.646	-0.51
806.825	-12.8
807.004	-113.15
807.184	46.59
807.363	99.84
807.543	50.69
807.722	5.63
807.901	69.12
808.081	-23.04
808.26	-74.24
808.439	9.73
808.619	9.73
808.798	-18.94
808.977	26.11
809.156	15.87
809.336	22.02
809.515	89.6
809.694	-55.81
809.873	-43.52
810.052	26.11
810.231	67.07
810.411	58.88
810.59	40.45
810.769	52.74
810.948	50.69
811.127	-92.67
811.306	-35.33
811.485	-31.23
811.664	148.99
811.843	46.59
812.022	1.54
812.201	-90.62
812.38	-70.14
812.559	-78.33
812.737	159.23
812.916	-107.01
813.095	-14.85
813.274	-12.8
813.453	22.02
813.632	52.74
813.811	89.6
813.989	-12.8
814.168	-23.04
814.347	-49.66
814.526	38.4
814.704	-8.7
814.883	112.13
815.062	-168.45
815.24	-10.75
815.419	-29.18
815.598	-18.94
815.776	-137.73
815.955	-49.66
816.133	-154.11
816.312	83.45
816.49	-123.39
816.669	60.93
816.847	-25.09
817.026	1.54
817.204	-72.19
817.383	-57.86
817.561	-107.01
817.74	48.64
817.918	-72.19
818.097	-6.66
818.275	-31.23
818.453	42.5
818.632	85.5
818.81	3.58
818.988	-125.44
819.167	-16.9
819.345	-16.9
819.523	-64
819.701	24.06
819.879	-23.04
820.058	-4.61
820.236	19.97
820.414	9.73
820.592	-84.48
820.77	24.06
820.948	-64
821.127	-16.9
821.305	-4.61
821.483	-68.09
821.661	79.36
821.839	-0.51
822.017	-41.47
822.195	-39.42
822.373	110.08
822.551	26.11
822.729	89.6
822.907	3.58
823.085	30.21
823.262	17.92
823.44	-33.28
823.618	-12.8
823.796	-12.8
823.974	-20.99
824.152	-31.23
824.329	42.5
824.507	-25.09
824.685	65.02
824.863	22.02
825.04	-12.8
825.218	-6.66
825.396	-45.57
825.574	13.82
825.751	7.68
825.929	52.74
826.107	-68.09
826.284	3.58
826.462	60.93
826.639	-37.38
826.817	-27.14
826.994	56.83
827.172	-125.44
827.349	120.32
827.527	69.12
827.704	58.88
827.882	42.5
828.059	-2.56
828.237	-100.86
828.414	17.92
828.591	-123.39
828.769	-61.95
828.946	-68.09
829.124	81.41
829.301	163.33
829.478	-6.66
829.655	34.3
829.833	36.35
830.01	-164.35
830.187	19.97
830.364	-43.52
830.542	1.54
830.719	105.98
830.896	62.98
831.073	108.03
831.25	58.88
831.427	13.82
831.604	-33.28
831.782	-100.86
831.959	-31.23
832.136	-6.66
832.313	46.59
832.49	13.82
832.667	36.35
832.844	-39.42
833.021	77.31
833.198	-90.62
833.374	-18.94
833.551	48.64
833.728	19.97
833.905	60.93
834.082	-160.25
834.259	13.82
834.436	50.69
834.612	-41.47
834.789	-25.09
834.966	-14.85
835.143	28.16
835.319	-88.57
835.496	-8.7
835.673	58.88
835.85	87.55
836.026	56.83
836.203	81.41
836.38	-0.51
836.556	-88.57
836.733	-64
836.909	67.07
837.086	-29.18
837.262	-88.57
837.439	3.58
837.616	-92.67
837.792	-45.57
837.968	-18.94
838.145	-76.29
838.321	-64
838.498	-12.8
838.674	81.41
838.851	15.87
839.027	-55.81
839.203	-16.9
839.38	13.82
839.556	-2.56
839.732	30.21
839.909	13.82
840.085	42.5
840.261	-41.47
840.437	-8.7
840.614	-55.81
840.79	-33.28
840.966	50.69
841.142	15.87
841.318	3.58
841.494	11.78
841.671	11.78
841.847	-119.29
842.023	-74.24
842.199	34.3
842.375	112.13
842.551	-131.58
842.727	-43.52
842.903	151.04
843.079	-74.24
843.255	73.21
843.431	-43.52
843.607	24.06
843.783	-182.78
843.959	17.92
844.134	-64
844.31	128.51
844.486	-41.47
844.662	-66.05
844.838	28.16
845.013	89.6
845.189	52.74
845.365	1.54
845.541	-20.99
845.716	-8.7
845.892	9.73
846.068	-74.24
846.244	-90.62
846.419	9.73
846.595	-143.87
846.77	-37.38
846.946	32.26
847.122	-61.95
847.297	-37.38
847.473	77.31
847.648	-70.14
847.824	42.5
847.999	-129.53
848.175	1.54
848.35	-31.23
848.526	71.17
848.701	118.27
848.876	77.31
849.052	24.06
849.227	-18.94
849.403	-57.86
849.578	-6.66
849.753	-8.7
849.929	83.45
850.104	-86.53
850.279	-41.47
850.454	26.11
850.63	24.06
850.805	-31.23
850.98	-23.04
851.155	-74.24
851.33	-35.33
851.505	-82.43
851.681	93.69
851.856	-59.9
852.031	44.54
852.206	-16.9
852.381	-129.53
852.556	-51.71
852.731	38.4
852.906	105.98
853.081	42.5
853.256	44.54
853.431	3.58
853.606	-123.39
853.781	-2.56
853.956	-162.3
854.131	89.6
854.305	-98.81
854.48	-78.33
854.655	-47.62
854.83	-76.29
855.005	22.02
855.18	-14.85
855.354	22.02
855.529	-0.51
855.704	44.54
855.879	24.06
856.053	-59.9
856.228	-49.66
856.403	-96.77
856.577	-0.51
856.752	-70.14
856.926	-12.8
857.101	42.5
857.276	-129.53
857.45	-2.56
857.625	75.26
857.799	-74.24
857.974	9.73
858.148	-76.29
858.323	65.02
858.497	7.68
858.672	-18.94
858.846	-76.29
859.02	42.5
859.195	-70.14
859.369	-20.99
859.543	-47.62
859.718	-51.71
859.892	30.21
860.066	-90.62
860.241	-195.07
860.415	-92.67
860.589	-16.9
860.763	-16.9
860.938	-137.73
861.112	114.17
861.286	-43.52
861.46	5.63
861.634	-31.23
861.808	22.02
861.982	-88.57
862.157	-147.97
862.331	-35.33
862.505	-123.39
862.679	-135.68
862.853	-57.86
863.027	-33.28
863.201	52.74
863.375	-117.25
863.549	-23.04
863.722	32.26
863.896	67.07
864.07	-23.04
864.244	-76.29
864.418	62.98
864.592	-53.76
864.766	-0.51
864.939	-51.71
865.113	-64
865.287	46.59
865.461	-109.05
865.634	-14.85
865.808	52.74
865.982	-107.01
866.156	1.54
866.329	-59.9
866.503	-57.86
866.676	28.16
866.85	-25.09
867.024	-84.48
867.197	-20.99
867.371	3.58
867.544	95.74
867.718	-193.02
867.891	-31.23
868.065	-109.05
868.238	-70.14
868.412	108.03
868.585	34.3
868.759	-47.62
868.932	-18.94
869.105	-98.81
869.279	-45.57
869.452	-96.77
869.625	-18.94
869.799	26.11
869.972	-164.35
870.145	-145.92
870.319	-0.51
870.492	-111.1
870.665	-72.19
870.838	-45.57
871.011	-107.01
871.185	-51.71
871.358	11.78
871.531	-18.94
871.704	-80.38
871.877	-14.85
872.05	-57.86
872.223	-47.62
872.396	87.55
872.569	40.45
872.742	-80.38
872.915	-51.71
873.088	-47.62
873.261	-39.42
873.434	-49.66
873.607	-16.9
873.78	75.26
873.953	-84.48
874.126	36.35
874.299	46.59
874.471	-86.53
874.644	-64
874.817	62.98
874.99	97.79
875.163	-53.76
875.335	-20.99
875.508	7.68
875.681	60.93
875.853	-84.48
876.026	-53.76
876.199	71.17
876.371	1.54
876.544	-31.23
876.717	22.02
876.889	-18.94
877.062	40.45
877.234	-55.81
877.407	-76.29
877.579	-10.75
877.752	13.82
877.924	-10.75
878.097	-33.28
878.269	-29.18
878.442	-37.38
878.614	-8.7
878.786	9.73
878.959	-25.09
879.131	24.06
879.303	-113.15
879.476	-80.38
879.648	-10.75
879.82	48.64
879.993	-51.71
880.165	-84.48
880.337	9.73
880.509	-12.8
880.681	-141.82
880.854	-86.53
881.026	-10.75
881.198	101.89
881.37	-68.09
881.542	11.78
881.714	-68.09
881.886	34.3
882.058	38.4
882.23	7.68
882.402	-6.66
882.574	-66.05
882.746	52.74
882.918	17.92
883.09	1.54
883.262	-57.86
883.434	-57.86
883.606	-115.2
883.778	5.63
883.95	34.3
884.122	-78.33
884.293	108.03
884.465	-23.04
884.637	48.64
884.809	15.87
884.98	-59.9
885.152	22.02
885.324	-45.57
885.496	-47.62
885.667	38.4
885.839	-88.57
886.011	73.21
886.182	15.87
886.354	-14.85
886.525	36.35
886.697	-14.85
886.869	-41.47
887.04	1.54
887.212	138.75
887.383	101.89
887.555	-92.67
887.726	-20.99
887.897	-27.14
888.069	-57.86
888.24	69.12
888.412	-14.85
888.583	38.4
888.754	-88.57
888.926	-80.38
889.097	-100.86
889.268	-158.21
889.44	-20.99
889.611	-55.81
889.782	-74.24
889.953	-102.91
890.125	62.98
890.296	-61.95
890.467	-88.57
890.638	-70.14
890.809	-55.81
890.98	-107.01
891.151	-59.9
891.323	34.3
891.494	30.21
891.665	9.73
891.836	-150.01
892.007	-10.75
892.178	-59.9
892.349	50.69
892.52	-49.66
892.691	-72.19
892.862	-18.94
893.032	-98.81
893.203	-43.52
893.374	-14.85
893.545	34.3
893.716	-53.76
893.887	42.5
894.057	-35.33
894.228	34.3
894.399	-80.38
894.57	19.97
894.74	-16.9
894.911	46.59
895.082	-10.75
895.253	-113.15
895.423	-14.85
895.594	5.63
895.764	1.54
895.935	-90.62
896.106	-6.66
896.276	1.54
896.447	22.02
896.617	-139.77
896.788	9.73
896.958	-133.63
897.129	-43.52
897.299	-121.34
897.47	48.64
897.64	-8.7
897.81	-66.05
897.981	11.78
898.151	-4.61
898.322	-29.18
898.492	79.36
898.662	-39.42
898.832	3.58
899.003	-59.9
899.173	34.3
899.343	-90.62
899.513	-68.09
