Data from USB4F104151__237__11-06-30-325.txt Node

Date: Wed Feb 26 11:06:30 EST 2025
User: louis
Spectrometer: USB4F10415
Trigger mode: 4
Integration Time (sec): 1.000000E-1
Scans to average: 1
Electric dark correction enabled: true
Nonlinearity correction enabled: false
Boxcar width: 0
XAxis mode: Wavelengths
Number of Pixels in Spectrum: 3648
>>>>>Begin Spectral Data<<<<<
178.204	-338.6
178.424	-338.6
178.644	-338.6
178.864	-426.66
179.084	-400.04
179.304	77.14
179.524	34.13
179.744	3.41
179.964	34.13
180.184	68.95
180.404	-12.97
180.624	-15.02
180.844	-68.27
181.064	-80.55
181.283	-39.59
181.503	-60.07
181.723	58.71
181.943	-62.12
182.163	238.93
182.383	50.52
182.602	101.72
182.822	150.87
183.042	27.99
183.262	-39.59
183.482	19.8
183.701	-15.02
183.921	89.43
184.141	-107.18
184.361	66.9
184.58	120.15
184.8	93.52
185.02	-19.11
185.239	77.14
185.459	-10.92
185.679	161.11
185.898	-37.55
186.118	93.52
186.338	60.76
186.557	95.57
186.777	11.61
186.997	-53.93
187.216	-19.11
187.436	179.54
187.655	48.47
187.875	95.57
188.095	42.32
188.314	109.91
188.534	187.73
188.753	-2.73
188.973	165.2
189.192	234.83
189.412	13.65
189.631	62.8
189.851	-8.87
190.07	105.81
190.29	-51.88
190.509	3.41
190.729	-29.35
190.948	138.58
191.168	218.45
191.387	30.04
191.607	64.85
191.826	5.46
192.045	17.75
192.265	13.65
192.484	68.95
192.704	111.96
192.923	-58.03
193.142	183.63
193.362	146.77
193.581	183.63
193.8	11.61
194.02	93.52
194.239	36.18
194.458	114
194.678	-8.87
194.897	-58.03
195.116	5.46
195.335	54.61
195.555	75.09
195.774	-21.16
195.993	146.77
196.212	60.76
196.432	-29.35
196.651	40.28
196.87	66.9
197.089	173.39
197.308	42.32
197.528	66.9
197.747	-80.55
197.966	66.9
198.185	197.97
198.404	-76.46
198.623	85.33
198.842	157.01
199.062	128.34
199.281	83.28
199.5	83.28
199.719	136.53
199.938	130.39
200.157	25.94
200.376	75.09
200.595	128.34
200.814	42.32
201.033	-35.5
201.252	152.92
201.471	-21.16
201.69	23.89
201.909	56.66
202.128	159.06
202.347	38.23
202.566	60.76
202.785	-101.03
203.004	40.28
203.223	218.45
203.442	83.28
203.661	-4.78
203.879	118.1
204.098	126.29
204.317	15.7
204.536	83.28
204.755	97.62
204.974	50.52
205.193	50.52
205.411	128.34
205.63	60.76
205.849	68.95
206.068	7.51
206.287	-10.92
206.505	75.09
206.724	3.41
206.943	38.23
207.162	-10.92
207.381	9.56
207.599	21.85
207.818	44.37
208.037	-2.73
208.255	27.99
208.474	54.61
208.693	60.76
208.911	75.09
209.13	44.37
209.349	46.42
209.567	97.62
209.786	66.9
210.005	64.85
210.223	105.81
210.442	-29.35
210.661	42.32
210.879	-10.92
211.098	83.28
211.316	52.56
211.535	81.24
211.753	77.14
211.972	58.71
212.191	13.65
212.409	-58.03
212.628	87.38
212.846	46.42
213.065	-29.35
213.283	132.44
213.502	-12.97
213.72	66.9
213.938	62.8
214.157	3.41
214.375	83.28
214.594	54.61
214.812	120.15
215.031	-23.21
215.249	62.8
215.467	60.76
215.686	118.1
215.904	87.38
216.122	77.14
216.341	154.96
216.559	34.13
216.778	79.19
216.996	163.15
217.214	89.43
217.432	36.18
217.651	-4.78
217.869	38.23
218.087	42.32
218.306	68.95
218.524	56.66
218.742	-31.4
218.96	81.24
219.179	44.37
219.397	15.7
219.615	259.41
219.833	118.1
220.051	-55.98
220.27	62.8
220.488	62.8
220.706	95.57
220.924	-29.35
221.142	-43.69
221.36	95.57
221.578	66.9
221.796	-4.78
222.015	140.63
222.233	32.08
222.451	169.3
222.669	-10.92
222.887	34.13
223.105	-19.11
223.323	-17.07
223.541	7.51
223.759	66.9
223.977	77.14
224.195	126.29
224.413	93.52
224.631	66.9
224.849	40.28
225.067	204.11
225.285	-8.87
225.503	-29.35
225.721	-101.03
225.939	60.76
226.157	17.75
226.375	251.22
226.592	15.7
226.81	66.9
227.028	89.43
227.246	75.09
227.464	44.37
227.682	25.94
227.9	118.1
228.117	73.04
228.335	89.43
228.553	54.61
228.771	50.52
228.989	17.75
229.206	126.29
229.424	85.33
229.642	9.56
229.86	-27.31
230.077	95.57
230.295	62.8
230.513	126.29
230.731	62.8
230.948	259.41
231.166	124.24
231.384	19.8
231.601	-45.74
231.819	214.35
232.037	-27.31
232.254	9.56
232.472	-8.87
232.689	165.2
232.907	126.29
233.125	-35.5
233.342	48.47
233.56	7.51
233.777	58.71
233.995	64.85
234.213	114
234.43	83.28
234.648	23.89
234.865	-60.07
235.083	50.52
235.3	68.95
235.518	89.43
235.735	87.38
235.953	89.43
236.17	116.05
236.388	19.8
236.605	140.63
236.822	126.29
237.04	116.05
237.257	148.82
237.475	-113.32
237.692	83.28
237.909	105.81
238.127	-2.73
238.344	107.86
238.562	54.61
238.779	-41.64
238.996	19.8
239.214	95.57
239.431	66.9
239.648	23.89
239.865	9.56
240.083	200.02
240.3	13.65
240.517	-39.59
240.735	21.85
240.952	204.11
241.169	144.72
241.386	124.24
241.603	73.04
241.821	38.23
242.038	109.91
242.255	171.35
242.472	-25.26
242.689	66.9
242.907	163.15
243.124	71
243.341	34.13
243.558	-25.26
243.775	-31.4
243.992	-6.83
244.209	132.44
244.426	134.48
244.643	77.14
244.86	-0.68
245.078	62.8
245.295	60.76
245.512	48.47
245.729	-15.02
245.946	44.37
246.163	-33.45
246.38	34.13
246.597	58.71
246.814	-2.73
247.031	19.8
247.248	50.52
247.464	136.53
247.681	19.8
247.898	40.28
248.115	36.18
248.332	-15.02
248.549	169.3
248.766	150.87
248.983	111.96
249.2	146.77
249.417	40.28
249.633	13.65
249.85	114
250.067	23.89
250.284	-17.07
250.501	77.14
250.717	91.48
250.934	-31.4
251.151	9.56
251.368	52.56
251.585	77.14
251.801	54.61
252.018	-43.69
252.235	91.48
252.451	-31.4
252.668	11.61
252.885	144.72
253.102	17.75
253.318	-19.11
253.535	34.13
253.752	-12.97
253.968	-60.07
254.185	-25.26
254.401	50.52
254.618	36.18
254.835	-10.92
255.051	193.87
255.268	130.39
255.484	32.08
255.701	-27.31
255.917	103.76
256.134	-109.22
256.351	23.89
256.567	-19.11
256.784	-2.73
257	-47.79
257.217	134.48
257.433	85.33
257.65	87.38
257.866	154.96
258.082	-33.45
258.299	-29.35
258.515	81.24
258.732	-80.55
258.948	-17.07
259.165	77.14
259.381	-31.4
259.597	93.52
259.814	-27.31
260.03	-74.41
260.246	25.94
260.463	148.82
260.679	181.59
260.895	52.56
261.112	62.8
261.328	21.85
261.544	19.8
261.761	161.11
261.977	-23.21
262.193	-51.88
262.409	75.09
262.626	58.71
262.842	15.7
263.058	30.04
263.274	83.28
263.49	126.29
263.707	79.19
263.923	48.47
264.139	-103.08
264.355	60.76
264.571	126.29
264.787	101.72
265.004	109.91
265.22	40.28
265.436	1.37
265.652	23.89
265.868	13.65
266.084	48.47
266.3	-12.97
266.516	17.75
266.732	23.89
266.948	34.13
267.164	23.89
267.38	89.43
267.596	107.86
267.812	197.97
268.028	114
268.244	1.37
268.46	36.18
268.676	-27.31
268.892	68.95
269.108	-47.79
269.324	-43.69
269.54	-51.88
269.756	75.09
269.972	-80.55
270.188	-0.68
270.403	-88.75
270.619	15.7
270.835	50.52
271.051	114
271.267	-6.83
271.483	15.7
271.698	128.34
271.914	116.05
272.13	89.43
272.346	-4.78
272.562	15.7
272.777	197.97
272.993	85.33
273.209	-25.26
273.425	114
273.64	-29.35
273.856	105.81
274.072	-15.02
274.287	25.94
274.503	56.66
274.719	159.06
274.934	3.41
275.15	-86.7
275.366	23.89
275.581	-68.27
275.797	30.04
276.012	54.61
276.228	-8.87
276.444	36.18
276.659	109.91
276.875	-55.98
277.09	3.41
277.306	-8.87
277.521	105.81
277.737	13.65
277.952	138.58
278.168	38.23
278.383	44.37
278.599	71
278.814	167.25
279.03	60.76
279.245	71
279.461	85.33
279.676	87.38
279.892	-58.03
280.107	-92.84
280.322	9.56
280.538	50.52
280.753	3.41
280.969	11.61
281.184	11.61
281.399	75.09
281.615	30.04
281.83	77.14
282.045	-4.78
282.26	27.99
282.476	42.32
282.691	171.35
282.906	157.01
283.122	30.04
283.337	46.42
283.552	60.76
283.767	5.46
283.983	169.3
284.198	17.75
284.413	5.46
284.628	-96.94
284.843	46.42
285.058	95.57
285.274	21.85
285.489	27.99
285.704	132.44
285.919	-10.92
286.134	-8.87
286.349	42.32
286.564	-76.46
286.779	169.3
286.995	-0.68
287.21	-137.9
287.425	107.86
287.64	50.52
287.855	167.25
288.07	-51.88
288.285	79.19
288.5	101.72
288.715	71
288.93	73.04
289.145	40.28
289.36	54.61
289.575	11.61
289.79	183.63
290.004	21.85
290.219	25.94
290.434	-10.92
290.649	30.04
290.864	17.75
291.079	11.61
291.294	58.71
291.509	13.65
291.724	15.7
291.938	75.09
292.153	79.19
292.368	122.2
292.583	105.81
292.798	83.28
293.012	89.43
293.227	32.08
293.442	25.94
293.657	111.96
293.871	97.62
294.086	107.86
294.301	167.25
294.516	140.63
294.73	15.7
294.945	-94.89
295.16	85.33
295.374	77.14
295.589	144.72
295.804	25.94
296.018	-6.83
296.233	48.47
296.447	-25.26
296.662	-8.87
296.877	177.49
297.091	103.76
297.306	-10.92
297.52	60.76
297.735	87.38
297.949	58.71
298.164	-4.78
298.378	21.85
298.593	1.37
298.807	56.66
299.022	17.75
299.236	142.68
299.451	-21.16
299.665	-15.02
299.88	71
300.094	75.09
300.309	19.8
300.523	66.9
300.737	60.76
300.952	38.23
301.166	97.62
301.381	-62.12
301.595	23.89
301.809	66.9
302.024	71
302.238	-53.93
302.452	97.62
302.667	-33.45
302.881	189.78
303.095	101.72
303.309	71
303.524	5.46
303.738	13.65
303.952	-21.16
304.166	34.13
304.381	-68.27
304.595	95.57
304.809	-8.87
305.023	3.41
305.237	30.04
305.452	-23.21
305.666	118.1
305.88	77.14
306.094	150.87
306.308	136.53
306.522	99.67
306.736	21.85
306.95	68.95
307.164	-43.69
307.379	32.08
307.593	111.96
307.807	150.87
308.021	89.43
308.235	118.1
308.449	-82.6
308.663	54.61
308.877	132.44
309.091	46.42
309.305	25.94
309.519	-21.16
309.733	169.3
309.947	-31.4
310.161	89.43
310.374	202.07
310.588	97.62
310.802	5.46
311.016	25.94
311.23	95.57
311.444	44.37
311.658	62.8
311.872	161.11
312.085	116.05
312.299	56.66
312.513	89.43
312.727	21.85
312.941	-10.92
313.154	109.91
313.368	-4.78
313.582	62.8
313.796	52.56
314.009	17.75
314.223	152.92
314.437	66.9
314.651	126.29
314.864	1.37
315.078	25.94
315.292	-39.59
315.505	-6.83
315.719	71
315.933	56.66
316.146	44.37
316.36	-2.73
316.573	89.43
316.787	114
317.001	-47.79
317.214	19.8
317.428	60.76
317.641	-45.74
317.855	54.61
318.068	58.71
318.282	105.81
318.495	157.01
318.709	95.57
318.922	79.19
319.136	222.55
319.349	163.15
319.563	58.71
319.776	109.91
319.99	-82.6
320.203	97.62
320.417	40.28
320.63	148.82
320.843	193.87
321.057	124.24
321.27	-0.68
321.483	87.38
321.697	132.44
321.91	11.61
322.124	81.24
322.337	101.72
322.55	-39.59
322.763	23.89
322.977	-25.26
323.19	-19.11
323.403	75.09
323.617	118.1
323.83	118.1
324.043	56.66
324.256	157.01
324.469	-35.5
324.683	124.24
324.896	9.56
325.109	-17.07
325.322	-6.83
325.535	81.24
325.748	177.49
325.962	71
326.175	48.47
326.388	111.96
326.601	159.06
326.814	114
327.027	-4.78
327.24	101.72
327.453	-2.73
327.666	48.47
327.879	87.38
328.092	97.62
328.305	73.04
328.518	30.04
328.731	68.95
328.944	50.52
329.157	101.72
329.37	75.09
329.583	107.86
329.796	167.25
330.009	-82.6
330.222	111.96
330.435	161.11
330.648	85.33
330.861	44.37
331.073	99.67
331.286	58.71
331.499	21.85
331.712	9.56
331.925	56.66
332.138	75.09
332.35	40.28
332.563	54.61
332.776	81.24
332.989	38.23
333.202	25.94
333.414	42.32
333.627	11.61
333.84	32.08
334.053	42.32
334.265	-0.68
334.478	60.76
334.691	107.86
334.903	44.37
335.116	15.7
335.329	89.43
335.541	81.24
335.754	165.2
335.966	17.75
336.179	60.76
336.392	-10.92
336.604	87.38
336.817	103.76
337.029	79.19
337.242	52.56
337.454	44.37
337.667	62.8
337.88	105.81
338.092	66.9
338.305	73.04
338.517	-39.59
338.729	126.29
338.942	124.24
339.154	-27.31
339.367	-0.68
339.579	91.48
339.792	54.61
340.004	130.39
340.217	25.94
340.429	34.13
340.641	40.28
340.854	-0.68
341.066	40.28
341.278	177.49
341.491	206.16
341.703	54.61
341.915	5.46
342.128	134.48
342.34	71
342.552	-27.31
342.764	73.04
342.977	25.94
343.189	42.32
343.401	138.58
343.613	-88.75
343.826	64.85
344.038	46.42
344.25	111.96
344.462	-6.83
344.674	116.05
344.886	79.19
345.099	40.28
345.311	148.82
345.523	-29.35
345.735	-15.02
345.947	-15.02
346.159	11.61
346.371	-0.68
346.583	27.99
346.795	210.26
347.007	-27.31
347.219	152.92
347.431	130.39
347.643	111.96
347.855	40.28
348.067	177.49
348.279	48.47
348.491	-17.07
348.703	116.05
348.915	-43.69
349.127	-27.31
349.339	50.52
349.551	83.28
349.763	134.48
349.975	40.28
350.187	40.28
350.399	122.2
350.61	107.86
350.822	-8.87
351.034	46.42
351.246	111.96
351.458	50.52
351.669	107.86
351.881	95.57
352.093	93.52
352.305	116.05
352.517	146.77
352.728	105.81
352.94	95.57
353.152	87.38
353.363	23.89
353.575	132.44
353.787	165.2
353.999	85.33
354.21	128.34
354.422	-84.65
354.633	58.71
354.845	91.48
355.057	73.04
355.268	25.94
355.48	50.52
355.692	-39.59
355.903	5.46
356.115	21.85
356.326	19.8
356.538	132.44
356.749	54.61
356.961	132.44
357.172	101.72
357.384	-23.21
357.595	116.05
357.807	32.08
358.018	-45.74
358.23	81.24
358.441	204.11
358.653	85.33
358.864	58.71
359.075	-17.07
359.287	54.61
359.498	146.77
359.709	56.66
359.921	97.62
360.132	48.47
360.344	13.65
360.555	13.65
360.766	120.15
360.977	9.56
361.189	81.24
361.4	-0.68
361.611	58.71
361.823	181.59
362.034	58.71
362.245	-74.41
362.456	-21.16
362.667	77.14
362.879	-0.68
363.09	144.72
363.301	81.24
363.512	3.41
363.723	9.56
363.935	9.56
364.146	44.37
364.357	99.67
364.568	93.52
364.779	30.04
364.99	52.56
365.201	36.18
365.412	42.32
365.623	-2.73
365.834	-19.11
366.045	79.19
366.256	154.96
366.467	40.28
366.678	7.51
366.889	56.66
367.1	13.65
367.311	91.48
367.522	-19.11
367.733	89.43
367.944	17.75
368.155	-29.35
368.366	124.24
368.577	97.62
368.788	161.11
368.999	-15.02
369.209	50.52
369.42	240.98
369.631	216.4
369.842	64.85
370.053	93.52
370.264	157.01
370.474	19.8
370.685	42.32
370.896	68.95
371.107	109.91
371.317	73.04
371.528	60.76
371.739	146.77
371.95	138.58
372.16	114
372.371	-43.69
372.582	15.7
372.792	103.76
373.003	58.71
373.214	93.52
373.424	159.06
373.635	13.65
373.846	111.96
374.056	44.37
374.267	58.71
374.477	144.72
374.688	-2.73
374.898	11.61
375.109	15.7
375.319	21.85
375.53	75.09
375.74	122.2
375.951	17.75
376.161	40.28
376.372	81.24
376.582	-15.02
376.793	81.24
377.003	-70.31
377.214	-19.11
377.424	91.48
377.635	17.75
377.845	25.94
378.055	124.24
378.266	-109.22
378.476	73.04
378.686	52.56
378.897	60.76
379.107	89.43
379.317	111.96
379.528	71
379.738	81.24
379.948	-27.31
380.158	146.77
380.369	107.86
380.579	120.15
380.789	114
380.999	68.95
381.21	167.25
381.42	279.89
381.63	-12.97
381.84	93.52
382.05	75.09
382.261	30.04
382.471	130.39
382.681	13.65
382.891	195.92
383.101	66.9
383.311	-10.92
383.521	64.85
383.731	89.43
383.941	122.2
384.151	116.05
384.361	7.51
384.571	66.9
384.781	93.52
384.991	197.97
385.201	101.72
385.411	44.37
385.621	107.86
385.831	91.48
386.041	54.61
386.251	40.28
386.461	165.2
386.671	54.61
386.881	5.46
387.091	25.94
387.301	167.25
387.511	58.71
387.72	138.58
387.93	144.72
388.14	-21.16
388.35	44.37
388.56	111.96
388.769	126.29
388.979	19.8
389.189	34.13
389.399	68.95
389.609	130.39
389.818	126.29
390.028	144.72
390.238	77.14
390.447	21.85
390.657	15.7
390.867	-15.02
391.076	3.41
391.286	50.52
391.496	23.89
391.705	19.8
391.915	183.63
392.125	154.96
392.334	81.24
392.544	75.09
392.753	11.61
392.963	9.56
393.172	83.28
393.382	-29.35
393.591	179.54
393.801	15.7
394.01	197.97
394.22	79.19
394.429	105.81
394.639	13.65
394.848	122.2
395.058	40.28
395.267	15.7
395.477	75.09
395.686	54.61
395.895	238.93
396.105	191.83
396.314	165.2
396.524	89.43
396.733	-25.26
396.942	73.04
397.152	105.81
397.361	97.62
397.57	95.57
397.78	95.57
397.989	32.08
398.198	218.45
398.407	-2.73
398.617	34.13
398.826	87.38
399.035	7.51
399.244	103.76
399.453	23.89
399.663	11.61
399.872	148.82
400.081	-12.97
400.29	126.29
400.499	54.61
400.708	52.56
400.917	56.66
401.127	71
401.336	9.56
401.545	218.45
401.754	79.19
401.963	93.52
402.172	-21.16
402.381	-17.07
402.59	48.47
402.799	40.28
403.008	140.63
403.217	17.75
403.426	50.52
403.635	-49.83
403.844	77.14
404.053	-17.07
404.262	87.38
404.471	161.11
404.68	62.8
404.888	34.13
405.097	99.67
405.306	136.53
405.515	109.91
405.724	46.42
405.933	124.24
406.142	44.37
406.35	107.86
406.559	-31.4
406.768	118.1
406.977	216.4
407.185	83.28
407.394	38.23
407.603	15.7
407.812	118.1
408.02	17.75
408.229	103.76
408.438	52.56
408.646	1.37
408.855	66.9
409.064	105.81
409.272	44.37
409.481	99.67
409.69	-45.74
409.898	-2.73
410.107	179.54
410.315	148.82
410.524	85.33
410.733	93.52
410.941	7.51
411.15	150.87
411.358	87.38
411.567	195.92
411.775	77.14
411.984	99.67
412.192	52.56
412.401	-29.35
412.609	234.83
412.818	175.44
413.026	138.58
413.234	-2.73
413.443	62.8
413.651	-19.11
413.86	46.42
414.068	144.72
414.276	150.87
414.485	99.67
414.693	191.83
414.901	161.11
415.11	126.29
415.318	50.52
415.526	89.43
415.734	79.19
415.943	40.28
416.151	118.1
416.359	5.46
416.567	116.05
416.776	87.38
416.984	83.28
417.192	222.55
417.4	13.65
417.608	27.99
417.817	-27.31
418.025	111.96
418.233	150.87
418.441	-27.31
418.649	-76.46
418.857	118.1
419.065	99.67
419.273	17.75
419.481	77.14
419.689	79.19
419.897	68.95
420.105	-39.59
420.313	111.96
420.521	154.96
420.729	169.3
420.937	-12.97
421.145	17.75
421.353	167.25
421.561	169.3
421.769	173.39
421.977	-47.79
422.185	132.44
422.393	83.28
422.601	157.01
422.809	83.28
423.017	101.72
423.224	126.29
423.432	109.91
423.64	126.29
423.848	181.59
424.056	-55.98
424.263	206.16
424.471	32.08
424.679	144.72
424.887	-17.07
425.094	159.06
425.302	79.19
425.51	56.66
425.718	144.72
425.925	30.04
426.133	21.85
426.341	218.45
426.548	42.32
426.756	111.96
426.964	148.82
427.171	21.85
427.379	128.34
427.586	154.96
427.794	148.82
428.001	114
428.209	134.48
428.417	187.73
428.624	154.96
428.832	144.72
429.039	58.71
429.247	81.24
429.454	107.86
429.662	216.4
429.869	126.29
430.076	116.05
430.284	148.82
430.491	118.1
430.699	189.78
430.906	230.74
431.114	159.06
431.321	191.83
431.528	122.2
431.736	130.39
431.943	175.44
432.15	202.07
432.358	234.83
432.565	243.03
432.772	1.37
432.979	251.22
433.187	179.54
433.394	263.51
433.601	181.59
433.808	232.79
434.016	300.37
434.223	290.13
434.43	351.57
434.637	290.13
434.844	331.09
435.052	423.25
435.259	384.34
435.466	324.94
435.673	277.84
435.88	281.94
436.087	408.91
436.294	398.67
436.501	402.77
436.708	380.24
436.915	447.82
437.122	398.67
437.329	400.72
437.537	402.77
437.743	415.06
437.95	468.3
438.157	460.11
438.364	429.39
438.571	476.49
438.778	537.93
438.985	587.08
439.192	529.74
439.399	492.88
439.606	509.26
439.813	578.89
440.02	748.87
440.227	724.3
440.433	673.1
440.64	695.63
440.847	599.37
441.054	677.19
441.261	795.98
441.467	730.44
441.674	679.24
441.881	863.56
442.088	701.77
442.294	857.42
442.501	830.79
442.708	955.72
442.914	963.91
443.121	1029.45
443.328	1051.97
443.534	1125.7
443.741	1088.84
443.948	972.1
444.154	1115.46
444.361	1369.41
444.568	1219.91
444.774	1271.11
444.981	1187.14
445.187	1365.31
445.394	1303.87
445.6	1447.23
445.807	1623.36
446.013	1531.2
446.22	1484.09
446.426	1611.07
446.633	1742.14
446.839	1850.68
447.046	1719.61
447.252	1961.27
447.459	2016.57
447.665	2041.14
447.871	2221.36
448.078	2180.4
448.284	2284.85
448.491	2422.06
448.697	2491.7
448.903	2518.32
449.11	2626.86
449.316	2690.35
449.522	2811.18
449.728	2919.72
449.935	3001.64
450.141	3161.38
450.347	3194.15
450.553	3173.67
450.76	3300.64
450.966	3548.45
451.172	3718.43
451.378	3714.33
451.584	3884.31
451.791	4209.94
451.997	4234.52
452.203	4388.11
452.409	4420.88
452.615	4619.53
452.821	4580.62
453.027	4547.86
453.233	5235.97
453.44	4832.52
453.646	5426.43
453.852	5471.49
454.058	5729.53
454.264	5975.29
454.47	6216.95
454.676	6464.75
454.882	6821.1
455.088	6632.69
455.294	7003.37
455.5	7541.99
455.705	7718.11
455.911	7836.89
456.117	8123.61
456.323	8385.75
456.529	8400.09
456.735	9092.3
456.941	9436.36
457.147	9587.91
457.352	9893.05
457.558	10327.22
457.764	10906.8
457.97	11095.21
458.176	11340.97
458.381	12422.3
458.587	12266.65
458.793	13227.15
458.999	13124.75
459.204	14439.55
459.41	15150.19
459.616	15068.27
459.821	15772.77
460.027	16741.46
460.233	17439.82
460.438	17110.1
460.644	18558.01
460.85	18533.43
461.055	19448.88
461.261	20300.83
461.466	19715.11
461.672	20388.89
461.878	22758.39
462.083	22166.53
462.289	22780.92
462.494	23802.86
462.7	23751.66
462.905	24386.53
463.111	26551.23
463.316	27321.27
463.522	28025.77
463.727	28736.41
463.932	30010.25
464.138	31191.93
464.343	31820.66
464.549	32217.96
464.754	34796.35
464.959	35535.67
465.165	36283.18
465.37	35842.87
465.575	35885.87
465.781	38413.07
465.986	39404.28
466.191	38849.28
466.397	39539.45
466.602	38656.78
466.807	40430.32
467.012	41335.52
467.218	41820.89
467.423	41843.41
467.628	43084.48
467.833	44978.86
468.038	44745.39
468.244	44157.62
468.449	45957.78
468.654	44935.85
468.859	44880.55
469.064	45253.28
469.269	43805.37
469.474	44210.87
469.679	45331.11
469.885	44237.49
470.09	45185.7
470.295	45204.13
470.5	43928.25
470.705	44421.81
470.91	43520.7
471.115	42973.89
471.32	43444.93
471.525	42865.35
471.73	41554.65
471.935	41786.07
472.139	40061.68
472.344	40317.68
472.549	40225.52
472.754	39256.83
472.959	38583.05
473.164	37276.44
473.369	36506.41
473.574	37755.67
473.778	36588.33
473.983	35996.46
474.188	35693.36
474.393	33940.3
474.598	33788.75
474.802	32826.21
475.007	32783.2
475.212	32215.91
475.417	30974.84
475.621	30899.07
475.826	30194.57
476.031	29916.04
476.235	28937.12
476.44	29340.57
476.645	28160.94
476.849	28171.18
477.054	27499.44
477.259	26887.1
477.463	27040.7
477.668	26233.8
477.872	26072.01
478.077	25420.75
478.282	24693.72
478.486	24673.24
478.691	24230.88
478.895	24318.95
479.1	23962.6
479.304	23845.87
479.509	22813.69
479.713	23464.94
479.918	22483.97
480.122	22479.87
480.326	22637.56
480.531	22426.62
480.735	22146.05
480.94	21675.02
481.144	22623.23
481.348	21531.66
481.553	21468.17
481.757	20988.95
481.961	21140.5
482.166	21179.41
482.37	20616.22
482.574	20421.66
482.778	20780.06
482.983	20663.32
483.187	20245.54
483.391	20034.6
483.595	20079.65
483.8	19473.45
484.004	19790.89
484.208	19858.47
484.412	19344.43
484.616	19272.75
484.821	18785.33
485.025	18191.42
485.229	18725.94
485.433	18009.15
485.637	18121.79
485.841	17591.37
486.045	17405
486.249	17491.02
486.453	16952.4
486.657	16655.45
486.861	16536.66
487.065	16110.69
487.269	16086.11
487.473	15516.78
487.677	15742.05
487.881	15481.96
488.085	15092.85
488.289	15129.71
488.493	14701.68
488.697	14543.99
488.901	14414.97
489.105	13614.21
489.309	13671.56
489.512	13501.58
489.716	13397.13
489.92	13116.56
490.124	12711.06
490.328	12788.88
490.531	12547.22
490.735	12295.32
490.939	12037.28
491.143	11451.56
491.346	11353.26
491.55	11326.63
491.754	11037.87
491.958	11009.2
492.161	10763.44
492.365	10486.97
492.569	10413.24
492.772	10202.3
492.976	10405.05
493.18	9931.97
493.383	10169.53
493.587	9936.06
493.79	9700.55
493.994	9317.58
494.197	9526.47
494.401	9303.24
494.605	9258.18
494.808	9092.3
495.012	9110.73
495.215	9129.16
495.419	9139.4
495.622	8846.54
495.825	8854.73
496.029	8639.7
496.232	8983.76
496.436	8666.32
496.639	8840.4
496.843	8742.1
497.046	8801.49
497.249	9008.33
497.453	8658.13
497.656	8672.47
497.859	8617.17
498.063	8635.6
498.266	8934.6
498.469	8662.23
498.673	8701.14
498.876	8830.16
499.079	8846.54
499.282	8891.6
499.485	9252.04
499.689	8871.12
499.892	9034.96
500.095	8946.89
500.298	9305.29
500.501	8881.36
500.705	9462.98
500.908	9462.98
501.111	9479.36
501.314	9534.66
501.517	9620.67
501.72	9549
501.923	9751.74
502.126	9897.15
502.329	10185.91
502.532	10269.88
502.735	9919.68
502.938	10362.04
503.141	10427.57
503.344	10552.5
503.547	10683.57
503.75	10665.14
503.953	10824.88
504.156	11115.69
504.359	10939.57
504.562	11220.14
504.765	11586.72
504.968	11613.35
505.17	11973.79
505.373	12231.83
505.576	12143.77
505.779	12440.73
505.982	12450.97
506.185	12717.2
506.387	13118.61
506.59	13202.57
506.793	13608.07
506.996	13550.73
507.198	14285.95
507.401	14249.08
507.604	14513.27
507.807	14675.06
508.009	14982.26
508.212	15262.83
508.415	15799.4
508.617	15830.12
508.82	16098.4
509.022	16591.96
509.225	17056.85
509.428	17454.15
509.63	17474.63
509.833	17828.93
510.035	18648.12
510.238	18527.29
510.44	19514.41
510.643	19645.48
510.845	19979.3
511.048	20149.28
511.25	20896.79
511.453	21134.35
511.655	21904.39
511.858	22002.69
512.06	22598.65
512.262	23215.09
512.465	23389.17
512.667	24101.86
512.87	24751.07
513.072	25160.66
513.274	25889.74
513.477	26379.2
513.679	27222.97
513.881	27659.18
514.084	28089.26
514.286	28687.26
514.488	29205.4
514.69	30380.93
514.893	30753.66
515.095	31001.47
515.297	31589.24
515.499	32662.37
515.701	33114.97
515.904	34106.19
516.106	34415.43
516.308	35648.31
516.51	36150.06
516.712	36354.86
516.914	37194.53
517.116	38079.25
517.318	38527.75
517.52	39191.3
517.722	39777.01
517.925	40565.48
518.127	41974.48
518.329	42412.75
518.531	42183.38
518.733	43721.4
518.935	44270.26
519.136	44845.74
519.338	45134.5
519.54	46121.62
519.742	46819.98
519.944	47159.94
520.146	48665.2
520.348	48904.81
520.55	48747.12
520.752	49744.48
520.954	50649.68
521.155	50534.99
521.357	51569.22
521.559	51866.17
521.761	53131.82
521.963	53324.33
522.164	53549.6
522.366	53852.7
522.568	54565.4
522.77	54940.18
522.971	55648.77
523.173	55271.95
523.375	55794.18
523.576	55327.24
523.778	55613.96
523.98	56691.19
524.181	56848.88
524.383	57160.17
524.584	57565.67
524.786	57100.78
524.988	57207.28
525.189	57586.15
525.391	57541.1
525.592	57827.81
525.794	57731.56
525.995	57592.29
526.197	57229.8
526.398	57223.66
526.6	57784.8
526.801	57473.51
527.003	57027.06
527.204	56736.24
527.406	56756.72
527.607	56410.62
527.808	56461.82
528.01	55779.84
528.211	55411.21
528.412	56281.59
528.614	55593.48
528.815	55192.08
529.016	55081.48
529.218	53824.03
529.419	53901.85
529.62	53873.18
529.822	52513.33
530.023	52531.76
530.224	51927.61
530.425	51407.43
530.626	50522.71
530.828	50117.21
531.029	50641.49
531.23	49461.86
531.431	49039.98
531.632	48630.38
531.833	48038.52
532.035	47213.19
532.236	46899.85
532.437	46185.11
532.638	45492.9
532.839	44835.5
533.04	45025.96
533.241	43655.87
533.442	44288.69
533.643	42633.93
533.844	42543.82
534.045	41802.46
534.246	41214.69
534.447	40962.79
534.648	40096.5
534.849	39912.18
535.05	39043.84
535.251	38402.83
535.451	37727
535.652	37817.11
535.853	37088.03
536.054	37051.17
536.255	36080.43
536.456	35502.9
536.657	35545.91
536.857	34632.52
537.058	34358.09
537.259	34003.79
537.46	33895.25
537.66	32869.22
537.861	32760.67
538.062	31734.64
538.263	31544.18
538.463	31054.72
538.664	30880.64
538.865	30509.96
539.065	30362.5
539.266	29377.43
539.466	29549.46
539.667	28560.29
539.868	29035.42
540.068	28162.98
540.269	27923.37
540.469	27917.23
540.67	27112.38
540.87	26821.56
541.071	26719.17
541.271	26344.39
541.472	25861.07
541.672	25539.54
541.873	25224.15
542.073	24878.04
542.274	24896.47
542.474	24894.43
542.675	24243.17
542.875	24118.25
543.075	24048.61
543.276	23219.19
543.476	23800.81
543.676	22981.62
543.877	22733.82
544.077	22514.69
544.277	22365.18
544.478	21912.58
544.678	21797.9
544.878	21660.68
545.078	21113.88
545.279	20876.31
545.479	20595.74
545.679	20552.73
545.879	20171.81
546.079	20253.73
546.28	19782.7
546.48	19469.36
546.68	19446.83
546.88	19172.4
547.08	19006.52
547.28	18627.64
547.48	18201.66
547.68	18426.94
547.88	17947.72
548.081	17933.38
548.281	17413.2
548.481	17394.76
548.681	17374.28
548.881	16850
549.081	16612.44
549.28	16305.24
549.48	16067.68
549.68	15952.99
549.88	16108.64
550.08	15602.79
550.28	15535.21
550.48	15201.39
550.68	15029.36
550.88	14849.14
551.08	14521.46
551.279	14599.29
551.479	14152.83
551.679	13915.26
551.879	13620.36
552.079	13878.4
552.278	13298.83
552.478	13343.88
552.678	12917.9
552.878	12813.46
553.077	12713.11
553.277	12326.04
553.477	12104.86
553.676	12086.43
553.876	11904.16
554.076	11531.43
554.275	11676.84
554.475	11316.39
554.674	11025.58
554.874	10939.57
555.074	10441.91
555.273	10476.73
555.473	10407.09
555.672	10290.36
555.872	10056.89
556.071	10091.71
556.271	9884.86
556.47	9659.59
556.67	9356.49
556.869	9256.14
557.068	9211.08
557.268	9071.82
557.467	8686.8
557.667	8711.38
557.866	8815.82
558.065	8469.72
558.265	8285.4
558.464	7972.06
558.663	8238.3
558.863	7943.39
559.062	7902.43
559.261	7685.34
559.461	7619.81
559.66	7455.97
559.859	7367.91
560.058	7116.01
560.258	6997.23
560.457	6903.02
560.656	6837.49
560.855	6563.06
561.054	6601.97
561.253	6440.18
561.453	6561.01
561.652	6456.56
561.851	6419.7
562.05	6296.82
562.249	5979.39
562.448	6190.33
562.647	5823.74
562.846	5756.16
563.045	5829.88
563.244	5567.74
563.443	5629.18
563.642	5401.86
563.841	5477.63
564.04	5399.81
564.239	5608.7
564.438	5117.19
564.637	4977.93
564.836	5068.04
565.035	4986.12
565.234	4859.15
565.432	4748.56
565.631	4793.61
565.83	4660.49
566.029	4590.86
566.228	4570.38
566.427	4621.58
566.625	4105.49
566.824	4234.52
567.023	4293.91
567.222	4195.61
567.42	4082.97
567.619	4203.8
567.818	4056.34
568.016	4119.83
568.215	3853.59
568.414	4072.73
568.612	3966.23
568.811	3769.63
569.01	3810.59
569.208	3697.95
569.407	3618.08
569.605	3558.69
569.804	3511.58
570.002	3505.44
570.201	3376.42
570.4	3398.95
570.598	3247.4
570.797	3239.2
570.995	3192.1
571.193	3253.54
571.392	3188
571.59	2977.06
571.789	2968.87
571.987	2964.78
572.186	3038.5
572.384	2805.03
572.582	2831.66
572.781	2962.73
572.979	2710.83
573.177	2827.56
573.376	2651.44
573.574	2682.16
573.772	2569.52
573.971	2381.11
574.169	2436.4
574.367	2542.89
574.565	2495.79
574.763	2340.15
574.962	2368.82
575.16	2250.03
575.358	2262.32
575.556	2166.07
575.754	2161.97
575.952	2170.16
576.151	2241.84
576.349	2229.56
576.547	2168.12
576.745	2131.25
576.943	2106.68
577.141	1953.08
577.339	1842.49
577.537	1955.13
577.735	2088.25
577.933	1826.11
578.131	1776.95
578.329	1975.61
578.527	1824.06
578.725	1926.46
578.923	1658.17
579.121	1690.94
579.319	1523.01
579.516	1772.86
579.714	1865.02
579.912	1586.49
580.11	1484.09
580.308	1594.69
580.506	1537.34
580.704	1353.02
580.901	1418.56
581.099	1561.92
581.297	1520.96
581.495	1545.53
581.692	1344.83
581.89	1594.69
582.088	1338.69
582.285	1428.8
582.483	1307.97
582.681	1295.68
582.878	1291.59
583.076	1244.48
583.274	1367.36
583.471	1326.4
583.669	1238.34
583.866	1117.51
584.064	1193.28
584.262	1078.6
584.459	1125.7
584.657	1113.41
584.854	1236.29
585.052	1187.14
585.249	1156.42
585.447	1097.03
585.644	963.91
585.841	1074.5
586.039	1035.59
586.236	1088.84
586.434	1017.16
586.631	1041.73
586.828	943.43
587.026	1021.25
587.223	945.48
587.42	929.1
587.618	1060.17
587.815	1008.97
588.012	890.18
588.21	830.79
588.407	974.15
588.604	943.43
588.801	836.94
588.999	988.49
589.196	1060.17
589.393	795.98
589.59	851.27
589.787	896.33
589.984	925
590.182	820.55
590.379	818.5
590.576	783.69
590.773	787.79
590.97	755.02
591.167	945.48
591.364	793.93
591.561	789.83
591.758	867.66
591.955	787.79
592.152	746.83
592.349	843.08
592.546	746.83
592.743	793.93
592.94	755.02
593.137	775.5
593.334	836.94
593.531	830.79
593.727	873.8
593.924	744.78
594.121	830.79
594.318	800.07
594.515	806.22
594.712	990.53
594.908	959.81
595.105	722.25
595.302	896.33
595.499	859.46
595.696	1043.78
595.892	820.55
596.089	965.96
596.286	789.83
596.482	1058.12
596.679	1000.77
596.876	947.53
597.072	1097.03
597.269	1015.11
597.466	1041.73
597.662	1113.41
597.859	1043.78
598.055	1092.93
598.252	1191.24
598.448	1228.1
598.645	1336.64
598.841	1326.4
599.038	1520.96
599.234	1514.81
599.431	1563.97
599.627	1516.86
599.824	1586.49
600.02	1631.55
600.217	1709.37
600.413	1721.66
600.609	1785.15
600.806	2143.54
601.002	1963.32
601.198	2030.9
601.395	2121.01
601.591	2110.77
601.787	2309.43
601.984	2434.35
602.18	2573.61
602.376	2481.46
602.572	2667.82
602.769	2663.72
602.965	2817.32
603.161	2921.77
603.357	3077.41
603.553	3132.71
603.75	3175.72
603.946	3239.2
604.142	3527.97
604.338	3611.93
604.534	3593.5
604.73	3798.3
604.926	3990.81
605.122	4168.98
605.318	4113.69
605.514	4334.87
605.71	4451.6
605.906	4646.16
606.102	4766.99
606.298	4977.93
606.494	5002.51
606.69	5215.49
606.886	5375.24
607.082	5422.34
607.278	5737.73
607.474	5784.83
607.67	6053.11
607.866	5934.33
608.062	6401.27
608.257	6255.86
608.453	6507.76
608.649	6790.38
608.845	6993.13
609.041	7142.63
609.236	7501.03
609.432	7337.19
609.628	7797.98
609.824	7937.24
610.019	8160.47
610.215	8467.67
610.411	8840.4
610.606	8848.59
610.802	8881.36
610.998	9344.2
611.193	9569.48
611.389	9710.79
611.584	10011.84
611.78	10339.51
611.976	10441.91
612.171	11213.99
612.367	11355.3
612.562	11533.48
612.758	11740.32
612.953	12111
613.149	12575.89
613.344	12872.85
613.539	13151.37
613.735	13317.26
613.93	13776
614.126	13943.94
614.321	14490.74
614.517	15107.18
614.712	15238.25
614.907	15703.14
615.103	15973.47
615.298	16454.75
615.493	16811.09
615.688	17255.5
615.884	17912.9
616.079	18068.55
616.274	18779.19
616.47	18854.97
616.665	19737.64
616.86	19975.2
617.055	20509.72
617.25	20747.29
617.445	21748.75
617.641	21847.05
617.836	22750.2
618.031	23227.38
618.226	23882.73
618.421	24218.6
618.616	25197.52
618.811	25281.49
619.006	26252.23
619.201	26682.3
619.396	27126.71
619.591	27358.13
619.786	28367.78
619.981	28625.82
620.176	29653.9
620.371	30065.55
620.566	31085.43
620.761	31384.44
620.956	32318.31
621.151	32566.12
621.346	33264.47
621.541	33348.44
621.735	34894.66
621.93	34710.34
622.125	35914.55
622.32	36361
622.515	37053.22
622.709	37384.99
622.904	38337.29
623.099	39062.27
623.294	39885.56
623.488	40198.9
623.683	41155.3
623.878	41054.95
624.072	42777.29
624.267	43027.14
624.462	43985.59
624.656	43799.22
624.851	44982.95
625.046	45634.21
625.24	46238.36
625.435	46967.43
625.629	47237.76
625.824	47837.82
626.018	48577.14
626.213	48276.08
626.407	49635.94
626.602	49691.23
626.796	50698.83
626.991	50922.06
627.185	50952.78
627.38	51393.09
627.574	51911.23
627.768	52025.92
627.963	52421.17
628.157	52058.68
628.352	52711.99
628.546	52355.64
628.74	53541.41
628.935	52673.07
629.129	52705.84
629.323	51954.24
629.517	52089.4
629.712	51841.6
629.906	51606.08
630.1	50682.45
630.294	50680.4
630.489	49361.51
630.683	49842.78
630.877	48075.38
631.071	47587.97
631.265	47110.79
631.459	46367.38
631.653	45034.15
631.848	44378.8
632.042	43295.42
632.236	42478.29
632.43	40891.11
632.624	40389.36
632.818	38863.62
633.012	37497.63
633.206	36459.31
633.4	35355.45
633.594	33989.45
633.788	33264.47
633.982	32123.76
634.176	30811.01
634.369	29422.48
634.563	28724.13
634.757	27257.78
634.951	26661.82
635.145	25506.77
635.339	24785.88
635.533	23725.04
635.726	23004.15
635.92	21615.63
636.114	20849.69
636.308	19840.04
636.501	19350.57
636.695	18472
636.889	17642.57
637.083	16919.64
637.276	16348.25
637.47	15494.25
637.664	14949.49
637.857	14541.94
638.051	13919.36
638.244	13300.87
638.438	12721.3
638.632	12182.68
638.825	11785.38
639.019	11441.32
639.212	10962.09
639.406	10392.76
639.599	9929.92
639.793	9592
639.986	9114.83
640.18	8963.28
640.373	8617.17
640.567	8062.17
640.76	7978.2
640.954	7705.82
641.147	7183.59
641.34	7103.72
641.534	6653.17
641.727	6618.35
641.92	6139.13
642.114	6044.92
642.307	5795.07
642.5	5715.2
642.694	5252.36
642.887	5113.1
643.08	5149.96
643.273	4883.72
643.467	4568.34
643.66	4398.35
643.853	4259.09
644.046	4375.83
644.239	4011.29
644.432	3738.91
644.626	3583.26
644.819	3497.25
645.012	3374.37
645.205	3323.17
645.398	3081.51
645.591	2942.25
645.784	2856.23
645.977	2665.77
646.17	2727.21
646.363	2628.91
646.556	2444.59
646.749	2405.68
646.942	2354.48
647.135	2272.56
647.328	2067.77
647.521	2051.38
647.714	1881.4
647.907	1875.26
648.099	1776.95
648.292	1758.52
648.485	1715.52
648.678	1676.6
648.871	1539.39
649.064	1557.82
649.256	1443.14
649.449	1314.11
649.642	1228.1
649.835	1295.68
650.027	1275.2
650.22	1330.5
650.413	1207.62
650.605	1170.76
650.798	1066.31
650.991	1090.88
651.183	1088.84
651.376	980.29
651.568	980.29
651.761	955.72
651.954	992.58
652.146	937.29
652.339	853.32
652.531	933.19
652.724	783.69
652.916	775.5
653.109	605.52
653.301	824.65
653.494	791.88
653.686	675.15
653.879	904.52
654.071	634.19
654.263	572.75
654.456	587.08
654.648	703.82
654.84	701.77
655.033	558.41
655.225	666.96
655.417	478.54
655.61	576.84
655.802	519.5
655.994	578.89
656.186	470.35
656.379	466.25
656.571	419.15
656.763	476.49
656.955	402.77
657.148	329.04
657.34	537.93
657.532	398.67
657.724	392.53
657.916	410.96
658.108	484.69
658.3	451.92
658.492	316.75
658.684	324.94
658.876	443.73
659.068	279.89
659.26	187.73
659.452	296.27
659.644	324.94
659.836	486.73
660.028	357.71
660.22	214.35
660.412	324.94
660.604	214.35
660.796	253.27
660.988	400.72
661.18	255.31
661.372	298.32
661.563	283.99
661.755	208.21
661.947	230.74
662.139	189.78
662.331	275.79
662.522	292.18
662.714	122.2
662.906	210.26
663.097	167.25
663.289	175.44
663.481	228.69
663.673	298.32
663.864	267.6
664.056	279.89
664.247	157.01
664.439	279.89
664.631	197.97
664.822	245.07
665.014	261.46
665.205	212.31
665.397	187.73
665.588	288.08
665.78	183.63
665.971	269.65
666.163	138.58
666.354	232.79
666.546	191.83
666.737	138.58
666.929	240.98
667.12	130.39
667.311	206.16
667.503	173.39
667.694	193.87
667.885	243.03
668.077	200.02
668.268	120.15
668.459	187.73
668.651	214.35
668.842	212.31
669.033	77.14
669.224	161.11
669.416	326.99
669.607	95.57
669.798	208.21
669.989	292.18
670.18	195.92
670.371	136.53
670.563	138.58
670.754	259.41
670.945	189.78
671.136	234.83
671.327	91.48
671.518	101.72
671.709	286.03
671.9	107.86
672.091	288.08
672.282	118.1
672.473	200.02
672.664	165.2
672.855	177.49
673.046	193.87
673.237	177.49
673.428	79.19
673.619	120.15
673.809	128.34
674	273.75
674.191	177.49
674.382	210.26
674.573	146.77
674.764	111.96
674.954	259.41
675.145	171.35
675.336	173.39
675.527	165.2
675.717	136.53
675.908	185.68
676.099	206.16
676.289	243.03
676.48	95.57
676.671	171.35
676.861	157.01
677.052	197.97
677.243	148.82
677.433	150.87
677.624	243.03
677.814	267.6
678.005	144.72
678.195	298.32
678.386	159.06
678.576	240.98
678.767	206.16
678.957	185.68
679.148	214.35
679.338	279.89
679.529	304.46
679.719	171.35
679.909	267.6
680.1	290.13
680.29	290.13
680.481	109.91
680.671	195.92
680.861	269.65
681.052	259.41
681.242	95.57
681.432	249.17
681.622	238.93
681.813	232.79
682.003	220.5
682.193	200.02
682.383	283.99
682.573	181.59
682.764	281.94
682.954	257.36
683.144	370
683.334	298.32
683.524	255.31
683.714	263.51
683.904	275.79
684.094	357.71
684.284	191.83
684.474	425.29
684.664	359.76
684.854	279.89
685.044	326.99
685.234	281.94
685.424	357.71
685.614	230.74
685.804	288.08
685.994	343.38
686.184	275.79
686.374	230.74
686.564	255.31
686.753	310.61
686.943	173.39
687.133	302.42
687.323	255.31
687.513	324.94
687.702	376.14
687.892	222.55
688.082	361.81
688.272	359.76
688.461	161.11
688.651	386.38
688.841	341.33
689.03	222.55
689.22	322.9
689.41	290.13
689.599	324.94
689.789	173.39
689.979	326.99
690.168	283.99
690.358	382.29
690.547	286.03
690.737	329.04
690.926	296.27
691.116	351.57
691.305	376.14
691.495	326.99
691.684	193.87
691.874	140.63
692.063	173.39
692.252	230.74
692.442	380.24
692.631	220.5
692.82	204.11
693.01	273.75
693.199	243.03
693.388	312.66
693.578	273.75
693.767	296.27
693.956	257.36
694.146	265.55
694.335	269.65
694.524	283.99
694.713	392.53
694.902	138.58
695.092	304.46
695.281	357.71
695.47	228.69
695.659	224.59
695.848	320.85
696.037	197.97
696.226	357.71
696.415	181.59
696.604	384.34
696.793	277.84
696.982	253.27
697.171	380.24
697.36	208.21
697.549	167.25
697.738	111.96
697.927	253.27
698.116	109.91
698.305	302.42
698.494	267.6
698.683	193.87
698.872	329.04
699.061	204.11
699.25	140.63
699.438	259.41
699.627	187.73
699.816	486.73
700.005	159.06
700.193	116.05
700.382	281.94
700.571	245.07
700.76	261.46
700.948	329.04
701.137	202.07
701.326	329.04
701.514	122.2
701.703	210.26
701.892	298.32
702.08	425.29
702.269	224.59
702.457	165.2
702.646	210.26
702.834	247.12
703.023	341.33
703.212	273.75
703.4	288.08
703.589	167.25
703.777	122.2
703.965	134.48
704.154	191.83
704.342	177.49
704.531	159.06
704.719	279.89
704.907	365.9
705.096	114
705.284	116.05
705.472	136.53
705.661	165.2
705.849	275.79
706.037	343.38
706.226	154.96
706.414	208.21
706.602	157.01
706.79	335.18
706.979	212.31
707.167	261.46
707.355	208.21
707.543	273.75
707.731	257.36
707.919	234.83
708.107	236.88
708.296	165.2
708.484	261.46
708.672	277.84
708.86	195.92
709.048	245.07
709.236	165.2
709.424	322.9
709.612	247.12
709.8	126.29
709.988	261.46
710.176	302.42
710.364	283.99
710.551	226.64
710.739	216.4
710.927	251.22
711.115	240.98
711.303	292.18
711.491	314.7
711.679	134.48
711.866	347.47
712.054	161.11
712.242	189.78
712.43	318.8
712.617	152.92
712.805	261.46
712.993	240.98
713.181	140.63
713.368	351.57
713.556	214.35
713.744	214.35
713.931	445.77
714.119	269.65
714.306	294.22
714.494	214.35
714.682	224.59
714.869	136.53
715.057	185.68
715.244	116.05
715.432	230.74
715.619	193.87
715.807	150.87
715.994	179.54
716.182	308.56
716.369	288.08
716.556	304.46
716.744	118.1
716.931	146.77
717.119	271.7
717.306	224.59
717.493	238.93
717.681	189.78
717.868	240.98
718.055	308.56
718.242	220.5
718.43	347.47
718.617	312.66
718.804	212.31
718.991	326.99
719.179	359.76
719.366	261.46
719.553	288.08
719.74	204.11
719.927	175.44
720.114	234.83
720.301	206.16
720.488	173.39
720.676	210.26
720.863	292.18
721.05	423.25
721.237	288.08
721.424	290.13
721.611	294.22
721.798	83.28
721.985	183.63
722.172	257.36
722.358	204.11
722.545	232.79
722.732	263.51
722.919	386.38
723.106	283.99
723.293	214.35
723.48	324.94
723.667	191.83
723.853	376.14
724.04	232.79
724.227	382.29
724.414	216.4
724.6	324.94
724.787	339.28
724.974	374.1
725.161	335.18
725.347	271.7
725.534	357.71
725.72	337.23
725.907	370
726.094	316.75
726.28	216.4
726.467	320.85
726.653	230.74
726.84	410.96
727.027	337.23
727.213	277.84
727.4	347.47
727.586	359.76
727.773	263.51
727.959	290.13
728.145	202.07
728.332	265.55
728.518	298.32
728.705	347.47
728.891	290.13
729.077	191.83
729.264	230.74
729.45	261.46
729.636	427.34
729.823	347.47
730.009	423.25
730.195	298.32
730.382	310.61
730.568	204.11
730.754	202.07
730.94	273.75
731.126	240.98
731.313	359.76
731.499	308.56
731.685	320.85
731.871	374.1
732.057	324.94
732.243	312.66
732.429	306.51
732.615	392.53
732.801	306.51
732.987	308.56
733.173	306.51
733.359	232.79
733.545	255.31
733.731	234.83
733.917	423.25
734.103	347.47
734.289	324.94
734.475	197.97
734.661	449.87
734.847	271.7
735.033	255.31
735.219	365.9
735.404	335.18
735.59	243.03
735.776	243.03
735.962	320.85
736.148	345.42
736.333	318.8
736.519	292.18
736.705	367.95
736.89	335.18
737.076	251.22
737.262	269.65
737.447	236.88
737.633	318.8
737.819	361.81
738.004	329.04
738.19	245.07
738.375	341.33
738.561	312.66
738.747	329.04
738.932	249.17
739.118	429.39
739.303	318.8
739.489	308.56
739.674	245.07
739.859	273.75
740.045	374.1
740.23	304.46
740.416	161.11
740.601	351.57
740.786	277.84
740.972	195.92
741.157	261.46
741.342	228.69
741.528	200.02
741.713	417.1
741.898	273.75
742.084	271.7
742.269	324.94
742.454	320.85
742.639	339.28
742.824	189.78
743.01	365.9
743.195	376.14
743.38	312.66
743.565	314.7
743.75	245.07
743.935	331.09
744.12	318.8
744.305	142.68
744.49	329.04
744.675	222.55
744.86	271.7
745.045	306.51
745.23	296.27
745.415	261.46
745.6	357.71
745.785	181.59
745.97	382.29
746.155	353.62
746.34	372.05
746.525	314.7
746.71	390.48
746.895	185.68
747.079	191.83
747.264	226.64
747.449	326.99
747.634	345.42
747.819	316.75
748.003	283.99
748.188	210.26
748.373	247.12
748.557	263.51
748.742	154.96
748.927	296.27
749.111	165.2
749.296	298.32
749.481	275.79
749.665	292.18
749.85	181.59
750.034	265.55
750.219	218.45
750.404	187.73
750.588	275.79
750.773	218.45
750.957	200.02
751.141	257.36
751.326	230.74
751.51	144.72
751.695	130.39
751.879	202.07
752.064	281.94
752.248	206.16
752.432	351.57
752.617	240.98
752.801	286.03
752.985	304.46
753.17	324.94
753.354	226.64
753.538	288.08
753.722	161.11
753.907	218.45
754.091	157.01
754.275	232.79
754.459	46.42
754.643	148.82
754.828	161.11
755.012	238.93
755.196	124.24
755.38	247.12
755.564	210.26
755.748	189.78
755.932	206.16
756.116	298.32
756.3	216.4
756.484	7.51
756.668	269.65
756.852	120.15
757.036	191.83
757.22	154.96
757.404	200.02
757.588	120.15
757.772	236.88
757.956	251.22
758.14	269.65
758.323	189.78
758.507	202.07
758.691	101.72
758.875	263.51
759.059	197.97
759.242	136.53
759.426	185.68
759.61	210.26
759.794	161.11
759.977	265.55
760.161	238.93
760.345	259.41
760.528	187.73
760.712	126.29
760.895	202.07
761.079	191.83
761.263	101.72
761.446	134.48
761.63	161.11
761.813	300.37
761.997	66.9
762.18	99.67
762.364	220.5
762.547	71
762.731	114
762.914	212.31
763.098	148.82
763.281	91.48
763.464	142.68
763.648	197.97
763.831	91.48
764.015	109.91
764.198	122.2
764.381	89.43
764.564	77.14
764.748	138.58
764.931	148.82
765.114	87.38
765.297	202.07
765.481	44.37
765.664	105.81
765.847	32.08
766.03	243.03
766.213	103.76
766.397	126.29
766.58	13.65
766.763	163.15
766.946	34.13
767.129	138.58
767.312	95.57
767.495	89.43
767.678	83.28
767.861	54.61
768.044	165.2
768.227	75.09
768.41	34.13
768.593	71
768.776	95.57
768.959	21.85
769.142	294.22
769.324	36.18
769.507	97.62
769.69	95.57
769.873	46.42
770.056	288.08
770.239	64.85
770.421	163.15
770.604	175.44
770.787	116.05
770.97	89.43
771.152	107.86
771.335	165.2
771.518	1.37
771.7	87.38
771.883	259.41
772.066	54.61
772.248	159.06
772.431	116.05
772.613	163.15
772.796	75.09
772.978	138.58
773.161	197.97
773.343	54.61
773.526	126.29
773.708	-66.22
773.891	30.04
774.073	136.53
774.256	21.85
774.438	243.03
774.621	-23.21
774.803	130.39
774.985	42.32
775.168	243.03
775.35	25.94
775.532	97.62
775.715	105.81
775.897	165.2
776.079	64.85
776.261	120.15
776.444	75.09
776.626	66.9
776.808	60.76
776.99	-6.83
777.173	27.99
777.355	73.04
777.537	109.91
777.719	50.52
777.901	89.43
778.083	64.85
778.265	34.13
778.447	208.21
778.629	-39.59
778.811	152.92
778.993	148.82
779.175	132.44
779.357	97.62
779.539	-19.11
779.721	-27.31
779.903	130.39
780.085	27.99
780.267	97.62
780.449	36.18
780.631	44.37
780.812	140.63
780.994	9.56
781.176	36.18
781.358	140.63
781.54	54.61
781.721	54.61
781.903	124.24
782.085	-6.83
782.267	157.01
782.448	17.75
782.63	5.46
782.812	71
782.993	177.49
783.175	134.48
783.357	42.32
783.538	73.04
783.72	7.51
783.901	64.85
784.083	91.48
784.264	109.91
784.446	-8.87
784.627	-64.17
784.809	101.72
784.99	27.99
785.172	19.8
785.353	48.47
785.535	32.08
785.716	-41.64
785.897	75.09
786.079	25.94
786.26	44.37
786.441	140.63
786.623	1.37
786.804	-17.07
786.985	-0.68
787.167	130.39
787.348	66.9
787.529	-0.68
787.71	146.77
787.891	87.38
788.073	-19.11
788.254	5.46
788.435	107.86
788.616	52.56
788.797	1.37
788.978	34.13
789.159	17.75
789.34	38.23
789.522	9.56
789.703	-72.36
789.884	34.13
790.065	81.24
790.246	114
790.427	7.51
790.607	128.34
790.788	97.62
790.969	-23.21
791.15	56.66
791.331	46.42
791.512	11.61
791.693	-45.74
791.874	-37.55
792.054	181.59
792.235	120.15
792.416	-66.22
792.597	3.41
792.778	83.28
792.958	105.81
793.139	38.23
793.32	36.18
793.5	-37.55
793.681	124.24
793.862	32.08
794.042	36.18
794.223	-68.27
794.404	73.04
794.584	-6.83
794.765	25.94
794.945	-55.98
795.126	128.34
795.306	81.24
795.487	-4.78
795.667	73.04
795.848	91.48
796.028	15.7
796.209	40.28
796.389	161.11
796.57	34.13
796.75	-43.69
796.93	36.18
797.111	-41.64
797.291	-33.45
797.471	126.29
797.652	19.8
797.832	-76.46
798.012	48.47
798.192	34.13
798.373	-84.65
798.553	23.89
798.733	58.71
798.913	-0.68
799.093	-8.87
799.274	27.99
799.454	30.04
799.634	42.32
799.814	81.24
799.994	81.24
800.174	50.52
800.354	-19.11
800.534	-33.45
800.714	101.72
800.894	-35.5
801.074	-43.69
801.254	-45.74
801.434	93.52
801.614	7.51
801.794	-41.64
801.974	1936.7
802.154	-33.45
802.334	62.8
802.514	-31.4
802.693	-43.69
802.873	7.51
803.053	87.38
803.233	56.66
803.413	-51.88
803.592	46.42
803.772	-47.79
803.952	9.56
804.131	-84.65
804.311	91.48
804.491	116.05
804.67	-17.07
804.85	-0.68
805.03	83.28
805.209	120.15
805.389	11.61
805.568	23.89
805.748	27.99
805.928	-19.11
806.107	146.77
806.287	136.53
806.466	91.48
806.646	-70.31
806.825	-31.4
807.004	5.46
807.184	89.43
807.363	54.61
807.543	34.13
807.722	-60.07
807.901	103.76
808.081	56.66
808.26	-123.56
808.439	-4.78
808.619	-78.51
808.798	-10.92
808.977	50.52
809.156	120.15
809.336	38.23
809.515	54.61
809.694	-37.55
809.873	-29.35
810.052	97.62
810.231	111.96
810.411	1.37
810.59	93.52
810.769	-2.73
810.948	116.05
811.127	-72.36
811.306	19.8
811.485	17.75
811.664	152.92
811.843	146.77
812.022	15.7
812.201	25.94
812.38	38.23
812.559	-45.74
812.737	52.56
812.916	-94.89
813.095	-4.78
813.274	21.85
813.453	-8.87
813.632	71
813.811	79.19
813.989	-68.27
814.168	50.52
814.347	-21.16
814.526	-23.21
814.704	81.24
814.883	83.28
815.062	-31.4
815.24	83.28
815.419	-78.51
815.598	30.04
815.776	-103.08
815.955	7.51
816.133	-105.13
816.312	58.71
816.49	-35.5
816.669	11.61
816.847	-0.68
817.026	32.08
817.204	-43.69
817.383	58.71
817.561	-47.79
817.74	9.56
817.918	25.94
818.097	-39.59
818.275	54.61
818.453	48.47
818.632	36.18
818.81	-166.57
818.988	17.75
819.167	-41.64
819.345	50.52
819.523	-49.83
819.701	27.99
819.879	44.37
820.058	-0.68
820.236	30.04
820.414	-0.68
820.592	3.41
820.77	77.14
820.948	-51.88
821.127	-19.11
821.305	-8.87
821.483	-41.64
821.661	103.76
821.839	34.13
822.017	62.8
822.195	-47.79
822.373	73.04
822.551	87.38
822.729	48.47
822.907	32.08
823.085	44.37
823.262	-45.74
823.44	-12.97
823.618	-29.35
823.796	-27.31
823.974	-98.99
824.152	-37.55
824.329	44.37
824.507	-55.98
824.685	56.66
824.863	-25.26
825.04	91.48
825.218	83.28
825.396	38.23
825.574	27.99
825.751	40.28
825.929	56.66
826.107	-64.17
826.284	23.89
826.462	58.71
826.639	-2.73
826.817	-53.93
826.994	64.85
827.172	-111.27
827.349	132.44
827.527	23.89
827.704	44.37
827.882	126.29
828.059	-31.4
828.237	-92.84
828.414	62.8
828.591	-135.85
828.769	-6.83
828.946	-39.59
829.124	58.71
829.301	46.42
829.478	-10.92
829.655	25.94
829.833	48.47
830.01	-113.32
830.187	42.32
830.364	15.7
830.542	44.37
830.719	73.04
830.896	91.48
831.073	132.44
831.25	68.95
831.427	21.85
831.604	38.23
831.782	-86.7
831.959	66.9
832.136	-15.02
832.313	27.99
832.49	-2.73
832.667	83.28
832.844	17.75
833.021	107.86
833.198	-15.02
833.374	42.32
833.551	126.29
833.728	17.75
833.905	91.48
834.082	-141.99
834.259	30.04
834.436	56.66
834.612	-98.99
834.789	114
834.966	3.41
835.143	58.71
835.319	-49.83
835.496	50.52
835.673	97.62
835.85	130.39
836.026	25.94
836.203	30.04
836.38	19.8
836.556	-23.21
836.733	-62.12
836.909	165.2
837.086	-55.98
837.262	-129.7
837.439	-107.18
837.616	-23.21
837.792	-29.35
837.968	-10.92
838.145	-131.75
838.321	-35.5
838.498	-31.4
838.674	58.71
838.851	54.61
839.027	44.37
839.203	50.52
839.38	-10.92
839.556	5.46
839.732	36.18
839.909	-17.07
840.085	56.66
840.261	-27.31
840.437	77.14
840.614	-19.11
840.79	95.57
840.966	77.14
841.142	27.99
841.318	-8.87
841.494	36.18
841.671	89.43
841.847	-21.16
842.023	-74.41
842.199	-17.07
842.375	79.19
842.551	-105.13
842.727	-90.79
842.903	81.24
843.079	-62.12
843.255	87.38
843.431	25.94
843.607	36.18
843.783	-125.61
843.959	40.28
844.134	-60.07
844.31	148.82
844.486	-90.79
844.662	-84.65
844.838	21.85
845.013	3.41
845.189	5.46
845.365	105.81
845.541	52.56
845.716	40.28
845.892	34.13
846.068	-66.22
846.244	60.76
846.419	32.08
846.595	13.65
846.77	25.94
846.946	95.57
847.122	-49.83
847.297	-8.87
847.473	77.14
847.648	-103.08
847.824	46.42
847.999	-133.8
848.175	23.89
848.35	44.37
848.526	40.28
848.701	85.33
848.876	62.8
849.052	56.66
849.227	-98.99
849.403	-37.55
849.578	21.85
849.753	-23.21
849.929	42.32
850.104	-60.07
850.279	30.04
850.454	40.28
850.63	93.52
850.805	11.61
850.98	5.46
851.155	-37.55
851.33	42.32
851.505	-133.8
851.681	148.82
851.856	-33.45
852.031	81.24
852.206	5.46
852.381	-55.98
852.556	-47.79
852.731	30.04
852.906	42.32
853.081	46.42
853.256	120.15
853.431	3.41
853.606	3.41
853.781	-23.21
853.956	-80.55
854.131	54.61
854.305	-58.03
854.48	-41.64
854.655	-88.75
854.83	-25.26
855.005	23.89
855.18	62.8
855.354	-27.31
855.529	9.56
855.704	-35.5
855.879	79.19
856.053	-107.18
856.228	-35.5
856.403	-76.46
856.577	60.76
856.752	-146.09
856.926	21.85
857.101	-15.02
857.276	-55.98
857.45	-55.98
857.625	99.67
857.799	-4.78
857.974	3.41
858.148	-133.8
858.323	11.61
858.497	23.89
858.672	-72.36
858.846	-72.36
859.02	81.24
859.195	-117.42
859.369	25.94
859.543	5.46
859.718	3.41
859.892	5.46
860.066	142.68
860.241	-31.4
860.415	-31.4
860.589	19.8
860.763	38.23
860.938	-47.79
861.112	15.7
861.286	34.13
861.46	-0.68
861.634	-23.21
861.808	95.57
861.982	-76.46
862.157	-156.33
862.331	-19.11
862.505	-94.89
862.679	-62.12
862.853	-111.27
863.027	-64.17
863.201	167.25
863.375	-70.31
863.549	46.42
863.722	114
863.896	89.43
864.07	-66.22
864.244	77.14
864.418	25.94
864.592	-0.68
864.766	-15.02
864.939	-15.02
865.113	-121.51
865.287	111.96
865.461	-78.51
865.634	-6.83
865.808	-37.55
865.982	-6.83
866.156	-76.46
866.329	-66.22
866.503	38.23
866.676	60.76
866.85	46.42
867.024	-25.26
867.197	95.57
867.371	-25.26
867.544	15.7
867.718	-70.31
867.891	64.85
868.065	-168.62
868.238	62.8
868.412	5.46
868.585	-55.98
868.759	-47.79
868.932	-10.92
869.105	-78.51
869.279	40.28
869.452	-98.99
869.625	9.56
869.799	-15.02
869.972	-6.83
870.145	-96.94
870.319	169.3
870.492	-6.83
870.665	-39.59
870.838	-29.35
871.011	-148.14
871.185	-4.78
871.358	-66.22
871.531	1.37
871.704	-37.55
871.877	-51.88
872.05	46.42
872.223	-35.5
872.396	23.89
872.569	95.57
872.742	-76.46
872.915	-64.17
873.088	-68.27
873.261	-25.26
873.434	9.56
873.607	42.32
873.78	105.81
873.953	-82.6
874.126	40.28
874.299	38.23
874.471	-31.4
874.644	5.46
874.817	42.32
874.99	144.72
875.163	-60.07
875.335	11.61
875.508	-8.87
875.681	7.51
875.853	-45.74
876.026	-43.69
876.199	44.37
876.371	-0.68
876.544	-21.16
876.717	66.9
876.889	-60.07
877.062	36.18
877.234	-41.64
877.407	-2.73
877.579	-10.92
877.752	83.28
877.924	25.94
878.097	-21.16
878.269	36.18
878.442	17.75
878.614	54.61
878.786	7.51
878.959	-23.21
879.131	-33.45
879.303	-113.32
879.476	-94.89
879.648	202.07
879.82	-2.73
879.993	-78.51
880.165	-109.22
880.337	-117.42
880.509	52.56
880.681	-78.51
880.854	-39.59
881.026	7.51
881.198	128.34
881.37	19.8
881.542	30.04
881.714	17.75
881.886	5.46
882.058	-47.79
882.23	-70.31
882.402	-19.11
882.574	46.42
882.746	-19.11
882.918	62.8
883.09	89.43
883.262	-25.26
883.434	13.65
883.606	-47.79
883.778	1.37
883.95	38.23
884.122	-51.88
884.293	95.57
884.465	-37.55
884.637	107.86
884.809	-37.55
884.98	5.46
885.152	27.99
885.324	1.37
885.496	-19.11
885.667	-29.35
885.839	-35.5
886.011	42.32
886.182	89.43
886.354	34.13
886.525	-0.68
886.697	-15.02
886.869	-76.46
887.04	64.85
887.212	120.15
887.383	165.2
887.555	25.94
887.726	-62.12
887.897	-47.79
888.069	-17.07
888.24	138.58
888.412	-19.11
888.583	-55.98
888.754	9.56
888.926	-90.79
889.097	-17.07
889.268	-35.5
889.44	50.52
889.611	-98.99
889.782	-80.55
889.953	-21.16
890.125	140.63
890.296	-49.83
890.467	17.75
890.638	-10.92
890.809	-23.21
890.98	-29.35
891.151	5.46
891.323	83.28
891.494	23.89
891.665	-2.73
891.836	-64.17
892.007	30.04
892.178	13.65
892.349	-33.45
892.52	-39.59
892.691	-45.74
892.862	15.7
893.032	-115.37
893.203	34.13
893.374	13.65
893.545	42.32
893.716	-4.78
893.887	71
894.057	-111.27
894.228	-72.36
894.399	38.23
894.57	-0.68
894.74	-37.55
894.911	-15.02
895.082	-115.37
895.253	-17.07
895.423	-29.35
895.594	81.24
895.764	71
895.935	-72.36
896.106	3.41
896.276	-35.5
896.447	25.94
896.617	-78.51
896.788	-76.46
896.958	-29.35
897.129	-92.84
897.299	-29.35
897.47	91.48
897.64	-2.73
897.81	-53.93
897.981	7.51
898.151	-29.35
898.322	32.08
898.492	21.85
898.662	-10.92
898.832	-55.98
899.003	7.51
899.173	111.96
899.343	-58.03
899.513	-58.03
