Data from USB4F104151__127__10-46-21-757.txt Node

Date: Wed Feb 26 10:46:21 EST 2025
User: louis
Spectrometer: USB4F10415
Trigger mode: 4
Integration Time (sec): 1.000000E-1
Scans to average: 1
Electric dark correction enabled: true
Nonlinearity correction enabled: false
Boxcar width: 0
XAxis mode: Wavelengths
Number of Pixels in Spectrum: 3648
>>>>>Begin Spectral Data<<<<<
178.204	-446.8
178.424	-446.8
178.644	-446.8
178.864	-463.18
179.084	-375.12
179.304	-61.78
179.524	-12.63
179.744	-0.34
179.964	54.95
180.184	16.04
180.404	-4.44
180.624	-4.44
180.844	28.33
181.064	-125.27
181.283	65.19
181.503	-14.68
181.723	59.05
181.943	-96.6
182.163	181.93
182.383	54.95
182.602	44.71
182.822	224.94
183.042	61.1
183.262	-10.58
183.482	-18.77
183.701	71.34
183.921	102.06
184.141	-33.11
184.361	61.1
184.58	77.48
184.8	24.23
185.02	36.52
185.239	91.82
185.459	44.71
185.679	122.54
185.898	-104.79
186.118	73.39
186.338	110.25
186.557	226.98
186.777	-14.68
186.997	42.67
187.216	36.52
187.436	106.15
187.655	149.16
187.875	128.68
188.095	52.91
188.314	61.1
188.534	126.63
188.753	-12.63
188.973	40.62
189.192	93.87
189.412	26.28
189.631	46.76
189.851	48.81
190.07	87.72
190.29	-65.88
190.509	-35.16
190.729	108.2
190.948	153.26
191.168	226.98
191.387	134.82
191.607	-0.34
191.826	104.11
192.045	63.15
192.265	85.67
192.484	161.45
192.704	-8.53
192.923	-43.35
193.142	118.44
193.362	136.87
193.581	110.25
193.8	67.24
194.02	104.11
194.239	87.72
194.458	132.78
194.678	-16.73
194.897	-29.01
195.116	118.44
195.335	-10.58
195.555	71.34
195.774	-29.01
195.993	138.92
196.212	-18.77
196.432	18.09
196.651	-49.49
196.87	3.75
197.089	269.99
197.308	-18.77
197.528	30.38
197.747	-55.64
197.966	83.63
198.185	161.45
198.404	-86.36
198.623	163.5
198.842	126.63
199.062	116.39
199.281	192.17
199.5	65.19
199.719	75.43
199.938	106.15
200.157	54.95
200.376	143.02
200.595	124.58
200.814	77.48
201.033	18.09
201.252	149.16
201.471	140.97
201.69	89.77
201.909	46.76
202.128	124.58
202.347	114.34
202.566	42.67
202.785	54.95
203.004	20.14
203.223	300.71
203.442	149.16
203.661	-59.73
203.879	97.96
204.098	194.22
204.317	-53.59
204.536	122.54
204.755	79.53
204.974	153.26
205.193	-67.92
205.411	134.82
205.63	188.07
205.849	118.44
206.068	46.76
206.287	-29.01
206.505	153.26
206.724	-49.49
206.943	-51.54
207.162	28.33
207.381	104.11
207.599	36.52
207.818	38.57
208.037	-4.44
208.255	79.53
208.474	71.34
208.693	-18.77
208.911	-31.06
209.13	71.34
209.349	73.39
209.567	140.97
209.786	54.95
210.005	130.73
210.223	50.86
210.442	-158.03
210.661	-67.92
210.879	95.91
211.098	-2.39
211.316	44.71
211.535	22.19
211.753	73.39
211.972	143.02
212.191	63.15
212.409	3.75
212.628	108.2
212.846	-2.39
213.065	79.53
213.283	67.24
213.502	97.96
213.72	11.95
213.938	-31.06
214.157	11.95
214.375	100.01
214.594	-26.96
214.812	24.23
215.031	3.75
215.249	44.71
215.467	120.49
215.686	54.95
215.904	95.91
216.122	69.29
216.341	97.96
216.559	52.91
216.778	71.34
216.996	140.97
217.214	-39.25
217.432	-2.39
217.651	34.47
217.869	-0.34
218.087	57
218.306	3.75
218.524	36.52
218.742	16.04
218.96	20.14
219.179	13.99
219.397	83.63
219.615	288.42
219.833	38.57
220.051	-8.53
220.27	50.86
220.488	147.11
220.706	-20.82
220.924	-4.44
221.142	34.47
221.36	63.15
221.578	73.39
221.796	36.52
222.015	102.06
222.233	-12.63
222.451	108.2
222.669	-35.16
222.887	-20.82
223.105	-16.73
223.323	50.86
223.541	-72.02
223.759	40.62
223.977	48.81
224.195	212.65
224.413	155.3
224.631	1.71
224.849	124.58
225.067	267.94
225.285	-14.68
225.503	-41.3
225.721	-59.73
225.939	116.39
226.157	85.67
226.375	190.12
226.592	50.86
226.81	-29.01
227.028	147.11
227.246	124.58
227.464	61.1
227.682	196.26
227.9	120.49
228.117	42.67
228.335	116.39
228.553	61.1
228.771	-24.92
228.989	28.33
229.206	136.87
229.424	50.86
229.642	59.05
229.86	-8.53
230.077	145.06
230.295	100.01
230.513	167.59
230.731	100.01
230.948	186.02
231.166	208.55
231.384	7.85
231.601	11.95
231.819	229.03
232.037	26.28
232.254	-31.06
232.472	44.71
232.689	26.28
232.907	50.86
233.125	36.52
233.342	24.23
233.56	42.67
233.777	44.71
233.995	-72.02
234.213	175.78
234.43	89.77
234.648	71.34
234.865	-8.53
235.083	-8.53
235.3	32.43
235.518	69.29
235.735	83.63
235.953	122.54
236.17	65.19
236.388	38.57
236.605	16.04
236.822	102.06
237.04	9.9
237.257	91.82
237.475	22.19
237.692	46.76
237.909	124.58
238.127	3.75
238.344	30.38
238.562	-6.49
238.779	5.8
238.996	-10.58
239.214	9.9
239.431	136.87
239.648	-37.2
239.865	79.53
240.083	79.53
240.3	44.71
240.517	11.95
240.735	73.39
240.952	118.44
241.169	40.62
241.386	28.33
241.603	157.35
241.821	28.33
242.038	69.29
242.255	161.45
242.472	1.71
242.689	59.05
242.907	34.47
243.124	48.81
243.341	67.24
243.558	3.75
243.775	5.8
243.992	-33.11
244.209	122.54
244.426	122.54
244.643	77.48
244.86	50.86
245.078	87.72
245.295	100.01
245.512	63.15
245.729	5.8
245.946	83.63
246.163	38.57
246.38	13.99
246.597	69.29
246.814	22.19
247.031	100.01
247.248	1.71
247.464	91.82
247.681	112.3
247.898	157.35
248.115	69.29
248.332	63.15
248.549	196.26
248.766	212.65
248.983	157.35
249.2	63.15
249.417	175.78
249.633	40.62
249.85	71.34
250.067	24.23
250.284	69.29
250.501	89.77
250.717	188.07
250.934	-6.49
251.151	44.71
251.368	36.52
251.585	69.29
251.801	134.82
252.018	-24.92
252.235	87.72
252.451	-24.92
252.668	83.63
252.885	175.78
253.102	91.82
253.318	11.95
253.535	1.71
253.752	5.8
253.968	-45.4
254.185	-6.49
254.401	126.63
254.618	173.74
254.835	-0.34
255.051	87.72
255.268	54.95
255.484	126.63
255.701	65.19
255.917	44.71
256.134	1.71
256.351	26.28
256.567	95.91
256.784	75.43
257	-57.68
257.217	157.35
257.433	120.49
257.65	40.62
257.866	138.92
258.082	24.23
258.299	-31.06
258.515	63.15
258.732	34.47
258.948	-22.87
259.165	52.91
259.381	-29.01
259.597	130.73
259.814	110.25
260.03	79.53
260.246	59.05
260.463	204.46
260.679	124.58
260.895	118.44
261.112	22.19
261.328	24.23
261.544	-67.92
261.761	134.82
261.977	-49.49
262.193	-16.73
262.409	120.49
262.626	28.33
262.842	83.63
263.058	-2.39
263.274	26.28
263.49	114.34
263.707	165.54
263.923	136.87
264.139	71.34
264.355	28.33
264.571	120.49
264.787	95.91
265.004	59.05
265.22	11.95
265.436	34.47
265.652	81.58
265.868	106.15
266.084	-0.34
266.3	-18.77
266.516	44.71
266.732	97.96
266.948	-0.34
267.164	42.67
267.38	24.23
267.596	22.19
267.812	188.07
268.028	46.76
268.244	-26.96
268.46	138.92
268.676	-39.25
268.892	87.72
269.108	-41.3
269.324	20.14
269.54	-49.49
269.756	87.72
269.972	-41.3
270.188	59.05
270.403	-6.49
270.619	13.99
270.835	167.59
271.051	34.47
271.267	36.52
271.483	7.85
271.698	151.21
271.914	67.24
272.13	-14.68
272.346	73.39
272.562	93.87
272.777	136.87
272.993	32.43
273.209	85.67
273.425	120.49
273.64	-78.16
273.856	116.39
274.072	24.23
274.287	44.71
274.503	63.15
274.719	75.43
274.934	13.99
275.15	-55.64
275.366	126.63
275.581	-33.11
275.797	79.53
276.012	-14.68
276.228	81.58
276.444	-26.96
276.659	75.43
276.875	26.28
277.09	34.47
277.306	36.52
277.521	118.44
277.737	-4.44
277.952	89.77
278.168	-8.53
278.383	26.28
278.599	34.47
278.814	173.74
279.03	-0.34
279.245	247.46
279.461	61.1
279.676	140.97
279.892	5.8
280.107	-53.59
280.322	-22.87
280.538	67.24
280.753	-4.44
280.969	87.72
281.184	91.82
281.399	192.17
281.615	63.15
281.83	126.63
282.045	-35.16
282.26	65.19
282.476	63.15
282.691	95.91
282.906	46.76
283.122	73.39
283.337	-12.63
283.552	112.3
283.767	-2.39
283.983	122.54
284.198	97.96
284.413	38.57
284.628	-39.25
284.843	118.44
285.058	32.43
285.274	59.05
285.489	46.76
285.704	73.39
285.919	13.99
286.134	-6.49
286.349	40.62
286.564	-4.44
286.779	140.97
286.995	67.24
287.21	-47.44
287.425	83.63
287.64	18.09
287.855	11.95
288.07	-94.55
288.285	122.54
288.5	159.4
288.715	134.82
288.93	5.8
289.145	-10.58
289.36	151.21
289.575	3.75
289.79	30.38
290.004	5.8
290.219	122.54
290.434	13.99
290.649	38.57
290.864	79.53
291.079	26.28
291.294	54.95
291.509	-4.44
291.724	69.29
291.938	-10.58
292.153	77.48
292.368	7.85
292.583	140.97
292.798	83.63
293.012	-2.39
293.227	38.57
293.442	48.81
293.657	136.87
293.871	179.88
294.086	3.75
294.301	173.74
294.516	102.06
294.73	67.24
294.945	-8.53
295.16	26.28
295.374	128.68
295.589	145.06
295.804	106.15
296.018	71.34
296.233	110.25
296.447	104.11
296.662	59.05
296.877	118.44
297.091	-10.58
297.306	34.47
297.52	11.95
297.735	79.53
297.949	46.76
298.164	61.1
298.378	46.76
298.593	13.99
298.807	-43.35
299.022	46.76
299.236	149.16
299.451	-6.49
299.665	-6.49
299.88	32.43
300.094	161.45
300.309	73.39
300.523	50.86
300.737	57
300.952	69.29
301.166	77.48
301.381	-0.34
301.595	75.43
301.809	26.28
302.024	89.77
302.238	-14.68
302.452	145.06
302.667	61.1
302.881	87.72
303.095	165.54
303.309	40.62
303.524	30.38
303.738	5.8
303.952	-88.4
304.166	34.47
304.381	-65.88
304.595	149.16
304.809	13.99
305.023	-18.77
305.237	65.19
305.452	-47.44
305.666	81.58
305.88	120.49
306.094	149.16
306.308	122.54
306.522	120.49
306.736	46.76
306.95	147.11
307.164	42.67
307.379	5.8
307.593	224.94
307.807	177.83
308.021	83.63
308.235	87.72
308.449	7.85
308.663	-22.87
308.877	239.27
309.091	-72.02
309.305	57
309.519	-94.55
309.733	126.63
309.947	-39.25
310.161	102.06
310.374	100.01
310.588	173.74
310.802	-0.34
311.016	-35.16
311.23	83.63
311.444	-8.53
311.658	-37.2
311.872	59.05
312.085	97.96
312.299	69.29
312.513	102.06
312.727	34.47
312.941	-4.44
313.154	-10.58
313.368	108.2
313.582	42.67
313.796	54.95
314.009	59.05
314.223	210.6
314.437	87.72
314.651	114.34
314.864	59.05
315.078	65.19
315.292	-31.06
315.505	-35.16
315.719	34.47
315.933	79.53
316.146	71.34
316.36	-26.96
316.573	63.15
316.787	118.44
317.001	81.58
317.214	50.86
317.428	32.43
317.641	-41.3
317.855	34.47
318.068	97.96
318.282	32.43
318.495	177.83
318.709	65.19
318.922	28.33
319.136	69.29
319.349	161.45
319.563	69.29
319.776	147.11
319.99	-82.26
320.203	171.69
320.417	120.49
320.63	132.78
320.843	200.36
321.057	100.01
321.27	46.76
321.483	149.16
321.697	253.61
321.91	46.76
322.124	93.87
322.337	138.92
322.55	54.95
322.763	59.05
322.977	36.52
323.19	-43.35
323.403	83.63
323.617	134.82
323.83	153.26
324.043	9.9
324.256	42.67
324.469	-41.3
324.683	28.33
324.896	81.58
325.109	108.2
325.322	1.71
325.535	138.92
325.748	130.73
325.962	28.33
326.175	118.44
326.388	112.3
326.601	161.45
326.814	3.75
327.027	20.14
327.24	220.84
327.453	-16.73
327.666	100.01
327.879	136.87
328.092	167.59
328.305	48.81
328.518	-0.34
328.731	75.43
328.944	81.58
329.157	24.23
329.37	54.95
329.583	190.12
329.796	251.56
330.009	9.9
330.222	69.29
330.435	83.63
330.648	61.1
330.861	63.15
331.073	75.43
331.286	175.78
331.499	54.95
331.712	40.62
331.925	97.96
332.138	50.86
332.35	138.92
332.563	52.91
332.776	134.82
332.989	32.43
333.202	9.9
333.414	100.01
333.627	63.15
333.84	28.33
334.053	54.95
334.265	34.47
334.478	11.95
334.691	71.34
334.903	67.24
335.116	54.95
335.329	18.09
335.541	97.96
335.754	153.26
335.966	-26.96
336.179	30.38
336.392	11.95
336.604	-18.77
336.817	104.11
337.029	83.63
337.242	24.23
337.454	100.01
337.667	100.01
337.88	124.58
338.092	126.63
338.305	38.57
338.517	-12.63
338.729	138.92
338.942	153.26
339.154	-26.96
339.367	-112.98
339.579	83.63
339.792	-0.34
340.004	114.34
340.217	-16.73
340.429	124.58
340.641	11.95
340.854	28.33
341.066	44.71
341.278	100.01
341.491	143.02
341.703	79.53
341.915	7.85
342.128	132.78
342.34	69.29
342.552	38.57
342.764	46.76
342.977	-29.01
343.189	93.87
343.401	83.63
343.613	-65.88
343.826	18.09
344.038	-6.49
344.25	59.05
344.462	59.05
344.674	61.1
344.886	75.43
345.099	46.76
345.311	136.87
345.523	-4.44
345.735	-112.98
345.947	46.76
346.159	18.09
346.371	73.39
346.583	-10.58
346.795	202.41
347.007	7.85
347.219	-4.44
347.431	7.85
347.643	145.06
347.855	-102.74
348.067	212.65
348.279	-47.44
348.491	59.05
348.703	83.63
348.915	1.71
349.127	61.1
349.339	-35.16
349.551	-74.07
349.763	91.82
349.975	40.62
350.187	118.44
350.399	147.11
350.61	132.78
350.822	5.8
351.034	63.15
351.246	97.96
351.458	20.14
351.669	50.86
351.881	73.39
352.093	138.92
352.305	138.92
352.517	54.95
352.728	71.34
352.94	95.91
353.152	120.49
353.363	42.67
353.575	104.11
353.787	165.54
353.999	20.14
354.21	132.78
354.422	-90.45
354.633	63.15
354.845	65.19
355.057	30.38
355.268	44.71
355.48	102.06
355.692	-8.53
355.903	-26.96
356.115	-51.54
356.326	-86.36
356.538	173.74
356.749	79.53
356.961	159.4
357.172	11.95
357.384	-18.77
357.595	239.27
357.807	100.01
358.018	-55.64
358.23	-31.06
358.441	151.21
358.653	20.14
358.864	50.86
359.075	18.09
359.287	118.44
359.498	188.07
359.709	114.34
359.921	118.44
360.132	-4.44
360.344	71.34
360.555	34.47
360.766	104.11
360.977	73.39
361.189	63.15
361.4	3.75
361.611	110.25
361.823	71.34
362.034	61.1
362.245	-8.53
362.456	44.71
362.667	173.74
362.879	-0.34
363.09	69.29
363.301	89.77
363.512	116.39
363.723	22.19
363.935	-10.58
364.146	91.82
364.357	13.99
364.568	85.67
364.779	-22.87
364.99	36.52
365.201	42.67
365.412	181.93
365.623	-76.12
365.834	52.91
366.045	57
366.256	95.91
366.467	20.14
366.678	46.76
366.889	73.39
367.1	-29.01
367.311	140.97
367.522	-96.6
367.733	59.05
367.944	54.95
368.155	-10.58
368.366	167.59
368.577	122.54
368.788	134.82
368.999	54.95
369.209	93.87
369.42	245.41
369.631	140.97
369.842	69.29
370.053	16.04
370.264	95.91
370.474	-84.31
370.685	7.85
370.896	104.11
371.107	118.44
371.317	81.58
371.528	-8.53
371.739	79.53
371.95	32.43
372.16	50.86
372.371	24.23
372.582	-29.01
372.792	54.95
373.003	69.29
373.214	69.29
373.424	186.02
373.635	69.29
373.846	149.16
374.056	63.15
374.267	69.29
374.477	13.99
374.688	-69.97
374.898	93.87
375.109	61.1
375.319	-10.58
375.53	110.25
375.74	140.97
375.951	36.52
376.161	85.67
376.372	212.65
376.582	-6.49
376.793	22.19
377.003	13.99
377.214	5.8
377.424	108.2
377.635	48.81
377.845	40.62
378.055	122.54
378.266	-51.54
378.476	34.47
378.686	67.24
378.897	61.1
379.107	122.54
379.317	95.91
379.528	32.43
379.738	128.68
379.948	-57.68
380.158	153.26
380.369	44.71
380.579	67.24
380.789	54.95
380.999	95.91
381.21	165.54
381.42	257.7
381.63	7.85
381.84	192.17
382.05	108.2
382.261	186.02
382.471	87.72
382.681	-26.96
382.891	194.22
383.101	126.63
383.311	22.19
383.521	11.95
383.731	124.58
383.941	132.78
384.151	116.39
384.361	54.95
384.571	5.8
384.781	112.3
384.991	294.57
385.201	245.41
385.411	116.39
385.621	104.11
385.831	46.76
386.041	63.15
386.251	61.1
386.461	124.58
386.671	-24.92
386.881	52.91
387.091	50.86
387.301	93.87
387.511	24.23
387.72	134.82
387.93	128.68
388.14	-125.27
388.35	130.73
388.56	134.82
388.769	112.3
388.979	65.19
389.189	-43.35
389.399	136.87
389.609	149.16
389.818	87.72
390.028	91.82
390.238	132.78
390.447	-24.92
390.657	143.02
390.867	69.29
391.076	-51.54
391.286	81.58
391.496	73.39
391.705	20.14
391.915	116.39
392.125	71.34
392.334	36.52
392.544	157.35
392.753	9.9
392.963	-35.16
393.172	36.52
393.382	22.19
393.591	196.26
393.801	83.63
394.01	214.7
394.22	192.17
394.429	50.86
394.639	-33.11
394.848	-2.39
395.058	87.72
395.267	89.77
395.477	112.3
395.686	57
395.895	200.36
396.105	167.59
396.314	93.87
396.524	40.62
396.733	-29.01
396.942	95.91
397.152	34.47
397.361	155.3
397.57	61.1
397.78	30.38
397.989	220.84
398.198	251.56
398.407	79.53
398.617	59.05
398.826	91.82
399.035	85.67
399.244	177.83
399.453	-8.53
399.663	120.49
399.872	40.62
400.081	-47.44
400.29	161.45
400.499	73.39
400.708	196.26
400.917	102.06
401.127	59.05
401.336	34.47
401.545	235.18
401.754	87.72
401.963	44.71
402.172	7.85
402.381	-31.06
402.59	3.75
402.799	50.86
403.008	222.89
403.217	93.87
403.426	69.29
403.635	-31.06
403.844	7.85
404.053	104.11
404.262	97.96
404.471	110.25
404.68	100.01
404.888	102.06
405.097	-33.11
405.306	95.91
405.515	155.3
405.724	83.63
405.933	87.72
406.142	122.54
406.35	206.5
406.559	71.34
406.768	26.28
406.977	167.59
407.185	157.35
407.394	77.48
407.603	5.8
407.812	52.91
408.02	151.21
408.229	73.39
408.438	151.21
408.646	1.71
408.855	63.15
409.064	128.68
409.272	81.58
409.481	167.59
409.69	-0.34
409.898	13.99
410.107	112.3
410.315	124.58
410.524	9.9
410.733	50.86
410.941	9.9
411.15	130.73
411.358	67.24
411.567	188.07
411.775	13.99
411.984	114.34
412.192	102.06
412.401	46.76
412.609	202.41
412.818	183.98
413.026	46.76
413.234	26.28
413.443	16.04
413.651	-0.34
413.86	100.01
414.068	134.82
414.276	155.3
414.485	34.47
414.693	171.69
414.901	208.55
415.11	190.12
415.318	48.81
415.526	102.06
415.734	212.65
415.943	30.38
416.151	186.02
416.359	159.4
416.567	67.24
416.776	102.06
416.984	171.69
417.192	208.55
417.4	13.99
417.608	52.91
417.817	46.76
418.025	140.97
418.233	173.74
418.441	-49.49
418.649	9.9
418.857	83.63
419.065	208.55
419.273	13.99
419.481	91.82
419.689	132.78
419.897	130.73
420.105	9.9
420.313	91.82
420.521	153.26
420.729	251.56
420.937	-37.2
421.145	-2.39
421.353	108.2
421.561	108.2
421.769	46.76
421.977	1.71
422.185	200.36
422.393	46.76
422.601	120.49
422.809	118.44
423.017	108.2
423.224	124.58
423.432	134.82
423.64	77.48
423.848	138.92
424.056	13.99
424.263	130.73
424.471	46.76
424.679	210.6
424.887	-33.11
425.094	161.45
425.302	77.48
425.51	32.43
425.718	161.45
425.925	151.21
426.133	67.24
426.341	222.89
426.548	54.95
426.756	79.53
426.964	73.39
427.171	32.43
427.379	106.15
427.586	159.4
427.794	179.88
428.001	194.22
428.209	140.97
428.417	229.03
428.624	145.06
428.832	198.31
429.039	93.87
429.247	169.64
429.454	122.54
429.662	302.76
429.869	108.2
430.076	194.22
430.284	183.98
430.491	206.5
430.699	118.44
430.906	396.96
431.114	167.59
431.321	210.6
431.528	159.4
431.736	206.5
431.943	218.79
432.15	204.46
432.358	210.6
432.565	308.9
432.772	87.72
432.979	272.04
433.187	134.82
433.394	237.22
433.601	145.06
433.808	331.43
434.016	304.81
434.223	308.9
434.43	274.09
434.637	233.13
434.844	298.66
435.052	276.13
435.259	257.7
435.466	347.81
435.673	290.47
435.88	384.68
436.087	302.76
436.294	407.2
436.501	409.25
436.708	302.76
436.915	435.88
437.122	403.11
437.329	364.2
437.537	401.06
437.743	446.12
437.95	458.4
438.157	435.88
438.364	454.31
438.571	464.55
438.778	437.92
438.985	482.98
439.192	593.57
439.399	501.41
439.606	612
439.813	550.56
440.02	761.5
440.227	710.3
440.433	704.16
440.64	497.32
440.847	583.33
441.054	628.39
441.261	857.76
441.467	765.6
441.674	591.52
441.881	814.75
442.088	695.97
442.294	886.43
442.501	900.76
442.708	939.68
442.914	945.82
443.121	1025.69
443.328	1048.22
443.534	992.92
443.741	972.44
443.948	1013.4
444.154	1160.86
444.361	1269.4
444.568	1201.82
444.774	1265.3
444.981	1089.18
445.187	1392.28
445.394	1445.52
445.6	1347.22
445.807	1570.45
446.013	1486.48
446.22	1556.11
446.426	1517.2
446.633	1713.81
446.839	1824.4
447.046	1625.75
447.252	1943.18
447.459	1795.73
447.665	1842.83
447.871	2117.26
448.078	2289.29
448.284	2154.12
448.491	2367.11
448.697	2434.69
448.903	2600.58
449.11	2604.67
449.316	2612.87
449.522	2817.66
449.728	2862.72
449.935	2934.4
450.141	3047.04
450.347	3229.31
450.553	3131
450.76	3182.2
450.966	3319.42
451.172	3524.21
451.378	3726.96
451.584	3823.22
451.791	3933.81
451.997	4089.45
452.203	4152.94
452.409	4255.34
452.615	4429.42
452.821	4376.17
453.027	4521.57
453.233	5086.81
453.44	4900.45
453.646	5166.68
453.852	5373.53
454.058	5631.57
454.264	5740.12
454.47	6078.03
454.676	6205
454.882	6688.32
455.088	6387.27
455.294	6858.31
455.5	7034.43
455.705	7726.64
455.911	7689.78
456.117	7867.95
456.323	8154.67
456.529	8121.9
456.735	9035.3
456.941	9002.53
457.147	9502.23
457.352	9539.1
457.558	10085.9
457.764	10745.35
457.97	10886.66
458.176	11173.38
458.381	11967.99
458.587	12140.02
458.793	12621.29
458.999	12785.13
459.204	14192.08
459.41	14708.17
459.616	14376.4
459.821	15353.28
460.027	15910.33
460.233	16598.45
460.438	16643.5
460.644	17755.55
460.85	17776.03
461.055	18517.39
461.261	19387.78
461.466	19164.55
461.672	19461.51
461.878	21814.62
462.083	21665.12
462.289	21994.84
462.494	22697.3
462.7	23102.79
462.905	23278.92
463.111	25017.64
463.316	26586.39
463.522	26772.75
463.727	27856.13
463.932	28663.03
464.138	29764.84
464.343	30696.66
464.549	30958.8
464.754	33215.66
464.959	34155.68
465.165	34559.13
465.37	34520.22
465.575	34509.98
465.781	36435.07
465.986	38028.39
466.191	36916.34
466.397	37764.2
466.602	36848.76
466.807	38970.46
467.012	39504.98
467.218	39783.5
467.423	40381.51
467.628	41143.35
467.833	43459.6
468.038	42376.23
468.244	41880.62
468.449	44016.65
468.654	43310.1
468.859	42951.71
469.064	43101.21
469.269	42122.28
469.474	42318.88
469.679	43570.19
469.885	42447.91
470.09	43150.36
470.295	42998.81
470.5	41827.37
470.705	42378.28
470.91	41159.73
471.115	40905.79
471.32	41686.06
471.525	41360.44
471.73	39949.39
471.935	39951.43
472.139	38505.57
472.344	38673.5
472.549	38468.7
472.754	37522.54
472.959	36711.55
473.164	35302.54
473.369	35046.55
473.574	35894.41
473.778	35363.98
473.983	34624.67
474.188	33971.36
474.393	32324.8
474.598	32584.89
474.802	31814.85
475.007	30848.21
475.212	30850.26
475.417	29713.64
475.621	29314.28
475.826	29033.71
476.031	28409.08
476.235	28007.68
476.44	27751.68
476.645	26916.11
476.849	26750.23
477.054	26424.6
477.259	25791.78
477.463	25421.09
477.668	24913.2
477.872	25001.26
478.077	24454.45
478.282	23682.37
478.486	23635.27
478.691	23334.21
478.895	22943.05
479.1	22766.93
479.304	22639.95
479.509	21886.3
479.713	22306.13
479.918	21953.88
480.122	21366.12
480.326	21241.19
480.531	21572.96
480.735	21149.03
480.94	20829.55
481.144	21517.67
481.348	20151.67
481.553	20573.55
481.757	19824
481.961	20340.08
482.166	20211.06
482.37	19809.66
482.574	19131.78
482.778	19481.99
482.983	19627.39
483.187	19318.15
483.391	19193.22
483.595	18836.88
483.8	18517.39
484.004	18736.52
484.208	18865.55
484.412	18341.27
484.616	18140.57
484.821	17790.36
485.025	17434.02
485.229	17540.51
485.433	16932.26
485.637	17057.19
485.841	16661.93
486.045	16532.91
486.249	16299.44
486.453	16170.42
486.657	16059.83
486.861	15685.05
487.065	15302.08
487.269	15338.94
487.473	14851.53
487.677	14861.77
487.881	14747.08
488.085	14177.75
488.289	14054.87
488.493	13821.4
488.697	13608.41
488.901	13686.23
489.105	12975.59
489.309	13016.55
489.512	12914.15
489.716	12535.28
489.92	12340.72
490.124	11924.98
490.328	12117.49
490.531	11460.09
490.735	11447.8
490.939	11290.11
491.143	11089.41
491.346	10876.42
491.55	10974.72
491.754	10665.48
491.958	10333.71
492.161	10255.89
492.365	10173.97
492.569	9840.15
492.772	9733.65
492.976	9649.69
493.18	9561.62
493.383	9631.26
493.587	9336.35
493.79	9313.82
493.994	9012.77
494.197	9205.28
494.401	9037.34
494.605	8715.81
494.808	8859.17
495.012	8549.93
495.215	8801.83
495.419	8697.38
495.622	8588.84
495.825	8482.35
496.029	8351.28
496.232	8732.2
496.436	8357.42
496.639	8576.55
496.843	8212.01
497.046	8459.82
497.249	8410.67
497.453	8341.04
497.656	8330.8
497.859	8177.2
498.063	8437.29
498.266	8453.67
498.469	8308.27
498.673	8408.62
498.876	8474.15
499.079	8695.33
499.282	8347.18
499.485	8965.67
499.689	8762.92
499.892	8574.5
500.095	8767.01
500.298	8904.23
500.501	8959.52
500.705	8908.32
500.908	8998.43
501.111	9182.75
501.314	9086.5
501.517	9426.46
501.72	9471.51
501.923	9397.79
502.126	9539.1
502.329	9836.05
502.532	9834
502.735	9868.82
502.938	10014.23
503.141	10208.78
503.344	10323.47
503.547	10608.14
503.75	10446.35
503.953	10671.62
504.156	10806.79
504.359	10817.03
504.562	11134.46
504.765	11361.79
504.968	11429.37
505.17	11691.51
505.373	11738.62
505.576	12054
505.779	12312.05
505.982	12289.52
506.185	12609
506.387	12525.04
506.59	12899.81
506.793	13278.69
506.996	13483.48
507.198	13823.45
507.401	14095.83
507.604	14345.68
507.807	14665.16
508.009	14976.45
508.212	15164.87
508.415	15502.78
508.617	15760.83
508.82	16012.73
509.022	16055.73
509.225	17087.91
509.428	16995.75
509.63	17438.11
509.833	17866.14
510.035	18298.26
510.238	18513.3
510.44	18800.01
510.643	19449.22
510.845	19860.86
511.048	20292.98
511.25	20501.87
511.453	20680.05
511.655	22074.71
511.858	22009.18
512.06	22572.37
512.262	23057.74
512.465	23086.41
512.667	23850.3
512.87	24601.91
513.072	25204.01
513.274	25752.87
513.477	26561.81
513.679	26860.82
513.881	27720.96
514.084	27993.34
514.286	28486.9
514.488	29033.71
514.69	30067.94
514.893	30747.86
515.095	31065.3
515.297	31524.04
515.499	32529.59
515.701	33107.12
515.904	34165.92
516.106	34712.73
516.308	35345.55
516.51	35775.62
516.712	36936.82
516.914	37645.42
517.116	38255.71
517.318	38792.28
517.52	39597.13
517.722	39801.93
517.925	40561.73
518.127	41882.67
518.329	42509.35
518.531	42501.15
518.733	44004.36
518.935	44426.24
519.136	44731.39
519.338	45497.33
519.54	46455.78
519.742	47045.6
519.944	47721.43
520.146	48743.36
520.348	48909.25
520.55	49468.34
520.752	50518.95
520.954	50946.98
521.155	50748.32
521.357	51989.39
521.559	52904.84
521.761	53439.36
521.963	53453.69
522.164	53861.24
522.366	54322.03
522.568	55292.77
522.77	55194.46
522.971	56312.66
523.173	55935.83
523.375	56836.94
523.576	56374.09
523.778	56777.54
523.98	57604.92
524.181	57918.26
524.383	57817.91
524.584	58166.07
524.786	57871.16
524.988	58321.71
525.189	58389.3
525.391	58506.03
525.592	58477.36
525.794	58592.04
525.995	58622.76
526.197	58647.34
526.398	58381.1
526.6	58290.99
526.801	58440.49
527.003	58190.64
527.204	57953.08
527.406	58153.78
527.607	57879.35
527.808	57869.11
528.01	56517.45
528.211	56537.93
528.412	56961.86
528.614	56443.73
528.815	56124.24
529.016	56441.68
529.218	55305.05
529.419	55081.83
529.62	54250.35
529.822	54096.75
530.023	53504.89
530.224	52865.92
530.425	52679.56
530.626	51307.42
530.828	51194.78
531.029	51794.84
531.23	50277.29
531.431	50170.8
531.632	49877.94
531.833	49163.2
532.035	48370.63
532.236	47662.04
532.437	47549.4
532.638	46390.25
532.839	46173.16
533.04	45919.21
533.241	44526.6
533.442	44913.66
533.643	44160.01
533.844	43484.18
534.045	42748.96
534.246	42437.67
534.447	42089.51
534.648	41364.53
534.849	41114.68
535.05	39924.81
535.251	39554.13
535.451	39150.68
535.652	38458.46
535.853	38114.41
536.054	37606.51
536.255	36947.06
536.456	36347.01
536.657	36668.54
536.857	35994.76
537.058	35112.08
537.259	35126.42
537.46	34309.28
537.66	33836.2
537.861	33483.95
538.062	33086.64
538.263	32236.73
538.463	31907.01
538.664	31478.99
538.865	31362.25
539.065	31165.65
539.266	30581.98
539.466	30313.69
539.667	29633.77
539.868	29848.8
540.068	29013.23
540.269	28626.17
540.469	28628.21
540.67	28110.08
540.87	27976.96
541.071	27477.26
541.271	27094.29
541.472	26809.62
541.672	26420.5
541.873	26119.45
542.073	25548.07
542.274	25949.47
542.474	25285.93
542.675	24775.98
542.875	24997.17
543.075	24384.82
543.276	23907.65
543.476	24073.53
543.676	23498.05
543.877	23491.91
544.077	23530.82
544.277	23104.84
544.478	22664.53
544.678	22660.43
544.878	22181.21
545.078	22142.3
545.279	21726.56
545.479	21241.19
545.679	21343.59
545.879	20983.15
546.079	20708.72
546.28	20301.17
546.48	20358.52
546.68	20178.29
546.88	19778.94
547.08	19484.03
547.28	19182.98
547.48	18761.1
547.68	18720.14
547.88	18685.33
548.081	18410.9
548.281	17997.21
548.481	17913.24
548.681	17878.43
548.881	17659.29
549.081	17411.49
549.28	16797.1
549.48	16850.35
549.68	16655.79
549.88	16442.8
550.08	16221.62
550.28	16129.46
550.48	15883.7
550.68	15664.57
550.88	15119.81
551.08	15031.75
551.279	15001.03
551.479	14403.02
551.679	14697.93
551.879	14044.63
552.079	14282.19
552.278	13970.9
552.478	13800.92
552.678	13501.92
552.878	13331.94
553.077	13057.51
553.277	12649.96
553.477	12557.8
553.676	12477.93
553.876	12277.23
554.076	12006.9
554.275	11703.8
554.475	11562.49
554.674	11482.62
554.874	11228.67
555.074	11152.9
555.273	10968.58
555.473	10745.35
555.672	10614.28
555.872	10421.77
556.071	10337.8
556.271	10274.32
556.47	10010.13
556.67	9590.3
556.869	9702.93
557.068	9598.49
557.268	9133.6
557.467	9268.77
557.667	9102.88
557.866	8953.38
558.065	8828.45
558.265	8556.07
558.464	8343.08
558.663	8492.59
558.863	8050.22
559.062	8187.44
559.261	7839.28
559.461	7888.43
559.66	7736.88
559.859	7558.71
560.058	7226.94
560.258	7194.17
560.457	7007.81
560.656	7331.39
560.855	6954.56
561.054	7013.95
561.253	6749.76
561.453	6727.24
561.652	6594.12
561.851	6704.71
562.05	6436.42
562.249	6100.56
562.448	6319.69
562.647	6172.24
562.846	6090.32
563.045	6065.74
563.244	5633.62
563.443	5865.04
563.642	5596.76
563.841	5426.78
564.04	5539.41
564.239	5377.62
564.438	5303.9
564.637	5297.75
564.836	5289.56
565.035	5178.97
565.234	5049.95
565.432	4867.68
565.631	4933.22
565.83	4990.56
566.029	4755.04
566.228	4697.7
566.427	4558.44
566.625	4419.18
566.824	4595.3
567.023	4353.64
567.222	4281.96
567.42	4331.11
567.619	4222.57
567.818	4163.18
568.016	4259.43
568.215	4050.54
568.414	4081.26
568.612	3868.27
568.811	3864.18
569.01	3802.74
569.208	3683.95
569.407	3808.88
569.605	3702.39
569.804	3679.86
570.002	3614.32
570.201	3438.2
570.4	3434.1
570.598	3346.04
570.797	3415.67
570.995	3409.53
571.193	3241.59
571.392	3272.31
571.59	2977.41
571.789	3278.46
571.987	3057.28
572.186	3180.15
572.384	2934.4
572.582	2842.24
572.781	3010.17
572.979	2762.37
573.177	2768.51
573.376	2946.69
573.574	2823.81
573.772	2637.44
573.971	2578.05
574.169	2596.48
574.367	2588.29
574.565	2578.05
574.763	2422.41
574.962	2567.81
575.16	2389.64
575.358	2289.29
575.556	2365.06
575.754	2350.73
575.952	2246.28
576.151	2154.12
576.349	2377.35
576.547	2088.59
576.745	2125.45
576.943	2051.72
577.141	2094.73
577.339	1939.09
577.537	2074.25
577.735	2043.53
577.933	2000.52
578.131	1881.74
578.329	2045.58
578.527	1779.34
578.725	1836.69
578.923	1707.66
579.121	1750.67
579.319	1558.16
579.516	1664.66
579.714	1724.05
579.912	1689.23
580.11	1468.05
580.308	1566.35
580.506	1576.59
580.704	1379.99
580.901	1492.63
581.099	1668.75
581.297	1404.57
581.495	1564.31
581.692	1392.28
581.89	1437.33
582.088	1386.13
582.285	1359.51
582.483	1433.24
582.681	1398.42
582.878	1293.97
583.076	1382.04
583.274	1304.21
583.471	1312.41
583.669	1230.49
583.866	1154.71
584.064	1162.9
584.262	1236.63
584.459	1099.42
584.657	1259.16
584.854	1214.1
585.052	1177.24
585.249	1179.29
585.447	1095.32
585.644	1087.13
585.841	1128.09
586.039	1056.41
586.236	1072.79
586.434	960.16
586.631	915.1
586.828	923.29
587.026	1072.79
587.223	874.14
587.42	992.92
587.618	958.11
587.815	986.78
588.012	919.2
588.21	839.33
588.407	917.15
588.604	904.86
588.801	853.66
588.999	870.05
589.196	1033.88
589.393	800.41
589.59	812.7
589.787	837.28
589.984	829.09
590.182	820.89
590.379	784.03
590.576	820.89
590.773	761.5
590.97	751.26
591.167	812.7
591.364	759.46
591.561	796.32
591.758	855.71
591.955	839.33
592.152	773.79
592.349	773.79
592.546	738.98
592.743	757.41
592.94	745.12
593.137	775.84
593.334	824.99
593.531	784.03
593.727	902.81
593.924	761.5
594.121	796.32
594.318	804.51
594.515	833.18
594.712	943.77
594.908	960.16
595.105	804.51
595.302	904.86
595.499	802.46
595.696	904.86
595.892	775.84
596.089	900.76
596.286	876.19
596.482	964.25
596.679	904.86
596.876	986.78
597.072	1070.75
597.269	968.35
597.466	1023.64
597.662	1029.79
597.859	972.44
598.055	1054.36
598.252	1109.66
598.448	1390.23
598.645	1316.5
598.841	1273.5
599.038	1412.76
599.234	1472.15
599.431	1377.94
599.627	1511.06
599.824	1525.4
600.02	1480.34
600.217	1580.69
600.413	1611.41
600.609	1754.77
600.806	1990.28
601.002	1848.97
601.198	1918.61
601.395	1984.14
601.591	2055.82
601.787	2100.87
601.984	2205.32
602.18	2244.23
602.376	2373.25
602.572	2508.42
602.769	2561.67
602.965	2563.72
603.161	2739.84
603.357	2901.63
603.553	3008.12
603.75	3053.18
603.946	3153.53
604.142	3143.29
604.338	3251.83
604.534	3393.14
604.73	3610.23
604.926	3479.16
605.122	3853.94
605.318	3851.89
605.514	4122.22
605.71	4071.02
605.906	4333.16
606.102	4259.43
606.298	4521.57
606.494	4765.28
606.69	4798.05
606.886	4855.39
607.082	4986.46
607.278	5221.98
607.474	5279.32
607.67	5406.3
607.866	5500.5
608.062	5942.86
608.257	6002.26
608.453	6075.98
608.649	6360.65
608.845	6245.96
609.041	6508.1
609.236	6878.79
609.432	7005.76
609.628	7194.17
609.824	7513.66
610.019	7491.13
610.215	7777.84
610.411	7996.98
610.606	8271.4
610.802	8291.88
610.998	8384.04
611.193	8713.77
611.389	8754.73
611.584	9217.57
611.78	9369.12
611.976	9561.62
612.171	9969.17
612.367	10176.02
612.562	10413.58
612.758	10761.73
612.953	10806.79
613.149	11294.21
613.344	11363.84
613.539	11914.74
613.735	12226.03
613.93	12496.36
614.126	12719.59
614.321	13012.45
614.517	13401.57
614.712	13854.17
614.907	14142.93
615.103	14581.2
615.298	14704.07
615.493	15347.14
615.688	15476.16
615.884	16278.96
616.079	16397.74
616.274	16846.25
616.47	17175.97
616.665	17851.8
616.86	17839.51
617.055	18343.31
617.25	19053.96
617.445	19357.06
617.641	19623.3
617.836	20456.82
618.031	20641.14
618.226	21595.49
618.421	21824.86
618.616	22429.01
618.811	22662.48
619.006	23340.36
619.201	23713.09
619.396	24409.4
619.591	24581.43
619.786	25316.65
619.981	25752.87
620.176	26754.32
620.371	26973.46
620.566	27655.43
620.761	27972.86
620.956	28945.65
621.151	29084.91
621.346	29969.63
621.541	29850.85
621.735	31222.99
621.93	31214.8
622.125	32074.95
622.32	32216.26
622.515	33170.61
622.709	33701.03
622.904	34393.25
623.099	34854.04
623.294	35689.61
623.488	35742.86
623.683	36902.01
623.878	36959.35
624.072	37670
624.267	38163.56
624.462	38829.15
624.656	39302.23
624.851	40320.07
625.046	40309.83
625.24	40979.51
625.435	41462.83
625.629	42234.92
625.824	42667.04
626.018	43215.9
626.213	43027.48
626.407	44319.75
626.602	44223.5
626.796	44790.78
626.991	45517.81
627.185	45353.97
627.38	45847.54
627.574	45964.27
627.768	46212.07
627.963	46400.49
628.157	46459.88
628.352	47258.59
628.546	46808.03
628.74	47852.5
628.935	46697.44
629.129	46992.35
629.323	46420.97
629.517	46195.69
629.712	46226.41
629.906	45906.93
630.1	45298.68
630.294	45231.1
630.489	44461.06
630.683	44463.11
630.877	43164.7
631.071	42664.99
631.265	42126.38
631.459	41145.4
631.653	40283.2
631.848	39392.34
632.042	38284.39
632.236	37987.43
632.43	36861.05
632.624	36105.35
632.818	34464.92
633.012	33305.77
633.206	32412.86
633.4	31509.71
633.594	30135.52
633.788	29377.77
633.982	28814.58
634.176	27731.2
634.369	26397.98
634.563	25701.67
634.757	24759.6
634.951	24063.29
635.145	22908.24
635.339	22101.34
635.533	20837.74
635.726	20493.68
635.92	19164.55
636.114	18478.48
636.308	17737.12
636.501	17059.24
636.695	16598.45
636.889	15906.23
637.083	15216.07
637.276	14390.74
637.47	13649.37
637.664	13157.86
637.857	12953.06
638.051	12219.89
638.244	11820.53
638.438	11263.49
638.632	11034.11
638.825	10421.77
639.019	10143.25
639.212	9758.23
639.406	9297.44
639.599	8805.92
639.793	8429.1
639.986	8039.98
640.18	7939.63
640.373	7560.76
640.567	7233.08
640.76	7073.34
640.954	6735.43
641.147	6336.07
641.34	6186.57
641.534	5916.24
641.727	5879.38
641.92	5664.34
642.114	5363.29
642.307	5062.24
642.5	4986.46
642.694	4802.15
642.887	4662.88
643.08	4486.76
643.273	4404.84
643.467	4167.28
643.66	4052.59
643.853	3602.04
644.046	3626.61
644.239	3581.56
644.432	3434.1
644.626	3133.05
644.819	3073.66
645.012	3038.84
645.205	2860.67
645.398	2915.97
645.591	2621.06
645.784	2498.18
645.977	2293.38
646.17	2322.06
646.363	2154.12
646.556	2160.27
646.749	2035.34
646.942	1992.33
647.135	2021
647.328	1853.07
647.521	1873.55
647.714	1664.66
647.907	1779.34
648.099	1627.79
648.292	1572.5
648.485	1537.68
648.678	1423
648.871	1345.17
649.064	1285.78
649.256	1279.64
649.449	1259.16
649.642	1078.94
649.835	1072.79
650.027	1126.04
650.22	1248.92
650.413	999.07
650.605	1167
650.798	915.1
650.991	949.92
651.183	986.78
651.376	902.81
651.568	837.28
651.761	806.56
651.954	927.39
652.146	655.01
652.339	798.37
652.531	755.36
652.724	638.62
652.916	624.29
653.109	636.58
653.301	671.39
653.494	726.69
653.686	591.52
653.879	741.02
654.071	732.83
654.263	530.08
654.456	548.51
654.648	632.48
654.84	532.13
655.033	519.84
655.225	632.48
655.417	368.29
655.61	634.53
655.802	525.99
655.994	507.55
656.186	372.39
656.379	528.03
656.571	362.15
656.763	386.72
656.955	358.05
657.148	341.67
657.34	495.27
657.532	413.35
657.724	353.96
657.916	372.39
658.108	462.5
658.3	388.77
658.492	335.53
658.684	263.85
658.876	372.39
659.068	229.03
659.26	267.94
659.452	263.85
659.644	343.72
659.836	399.01
660.028	337.57
660.22	233.13
660.412	216.74
660.604	202.41
660.796	321.19
660.988	380.58
661.18	253.61
661.372	210.6
661.563	183.98
661.755	292.52
661.947	149.16
662.139	233.13
662.331	233.13
662.522	239.27
662.714	171.69
662.906	212.65
663.097	157.35
663.289	183.98
663.481	155.3
663.673	216.74
663.864	216.74
664.056	233.13
664.247	216.74
664.439	251.56
664.631	194.22
664.822	233.13
665.014	229.03
665.205	153.26
665.397	192.17
665.588	181.93
665.78	210.6
665.971	288.42
666.163	210.6
666.354	259.75
666.546	147.11
666.737	136.87
666.929	183.98
667.12	159.4
667.311	239.27
667.503	208.55
667.694	179.88
667.885	163.5
668.077	251.56
668.268	48.81
668.459	183.98
668.651	118.44
668.842	167.59
669.033	67.24
669.224	104.11
669.416	325.29
669.607	138.92
669.798	79.53
669.989	251.56
670.18	183.98
670.371	249.51
670.563	69.29
670.754	329.38
670.945	208.55
671.136	257.7
671.327	122.54
671.518	278.18
671.709	259.75
671.9	202.41
672.091	308.9
672.282	173.74
672.473	183.98
672.664	165.54
672.855	143.02
673.046	165.54
673.237	292.52
673.428	202.41
673.619	212.65
673.809	214.7
674	249.51
674.191	140.97
674.382	181.93
674.573	249.51
674.764	134.82
674.954	327.33
675.145	188.07
675.336	81.58
675.527	126.63
675.717	157.35
675.908	300.71
676.099	192.17
676.289	210.6
676.48	118.44
676.671	239.27
676.861	183.98
677.052	247.46
677.243	169.64
677.433	149.16
677.624	349.86
677.814	255.65
678.005	202.41
678.195	337.57
678.386	118.44
678.576	208.55
678.767	202.41
678.957	231.08
679.148	321.19
679.338	409.25
679.529	198.31
679.719	286.37
679.909	253.61
680.1	261.8
680.29	304.81
680.481	212.65
680.671	376.48
680.861	313
681.052	300.71
681.242	183.98
681.432	333.48
681.622	280.23
681.813	188.07
682.003	294.57
682.193	235.18
682.383	351.91
682.573	296.61
682.764	210.6
682.954	229.03
683.144	411.3
683.334	204.46
683.524	265.89
683.714	296.61
683.904	325.29
684.094	233.13
684.284	276.13
684.474	360.1
684.664	356.01
684.854	345.77
685.044	310.95
685.234	263.85
685.424	263.85
685.614	196.26
685.804	478.88
685.994	263.85
686.184	239.27
686.374	396.96
686.564	360.1
686.753	300.71
686.943	175.78
687.133	286.37
687.323	245.41
687.513	261.8
687.702	272.04
687.892	212.65
688.082	335.53
688.272	390.82
688.461	298.66
688.651	427.68
688.841	265.89
689.03	292.52
689.22	315.05
689.41	341.67
689.599	349.86
689.789	239.27
689.979	419.49
690.168	208.55
690.358	358.05
690.547	298.66
690.737	255.65
690.926	313
691.116	302.76
691.305	329.38
691.495	372.39
691.684	186.02
691.874	145.06
692.063	220.84
692.252	319.14
692.442	226.98
692.631	313
692.82	294.57
693.01	366.25
693.199	329.38
693.388	343.72
693.578	159.4
693.767	290.47
693.956	265.89
694.146	298.66
694.335	313
694.524	321.19
694.713	296.61
694.902	265.89
695.092	261.8
695.281	290.47
695.47	165.54
695.659	151.21
695.848	267.94
696.037	204.46
696.226	288.42
696.415	220.84
696.604	409.25
696.793	308.9
696.982	249.51
697.171	394.92
697.36	233.13
697.549	259.75
697.738	153.26
697.927	276.13
698.116	149.16
698.305	302.76
698.494	239.27
698.683	245.41
698.872	409.25
699.061	229.03
699.25	181.93
699.438	276.13
699.627	179.88
699.816	368.29
700.005	247.46
700.193	188.07
700.382	337.57
700.571	286.37
700.76	308.9
700.948	368.29
701.137	259.75
701.326	341.67
701.514	153.26
701.703	257.7
701.892	292.52
702.08	323.24
702.269	235.18
702.457	224.94
702.646	292.52
702.834	245.41
703.023	269.99
703.212	267.94
703.4	259.75
703.589	175.78
703.777	247.46
703.965	188.07
704.154	226.98
704.342	138.92
704.531	253.61
704.719	247.46
704.907	308.9
705.096	132.78
705.284	167.59
705.472	241.32
705.661	294.57
705.849	263.85
706.037	317.09
706.226	175.78
706.414	257.7
706.602	161.45
706.79	310.95
706.979	196.26
707.167	222.89
707.355	95.91
707.543	306.85
707.731	286.37
707.919	204.46
708.107	151.21
708.296	161.45
708.484	181.93
708.672	229.03
708.86	280.23
709.048	204.46
709.236	179.88
709.424	290.47
709.612	253.61
709.8	91.82
709.988	194.22
710.176	327.33
710.364	343.72
710.551	272.04
710.739	235.18
710.927	188.07
711.115	194.22
711.303	269.99
711.491	251.56
711.679	208.55
711.866	339.62
712.054	210.6
712.242	265.89
712.43	253.61
712.617	214.7
712.805	267.94
712.993	267.94
713.181	138.92
713.368	298.66
713.556	206.5
713.744	237.22
713.931	431.78
714.119	255.65
714.306	220.84
714.494	151.21
714.682	202.41
714.869	206.5
715.057	210.6
715.244	247.46
715.432	267.94
715.619	243.37
715.807	265.89
715.994	206.5
716.182	317.09
716.369	335.53
716.556	304.81
716.744	239.27
716.931	163.5
717.119	222.89
717.306	183.98
717.493	306.85
717.681	159.4
717.868	292.52
718.055	304.81
718.242	272.04
718.43	286.37
718.617	364.2
718.804	319.14
718.991	337.57
719.179	229.03
719.366	302.76
719.553	269.99
719.74	224.94
719.927	204.46
720.114	255.65
720.301	145.06
720.488	171.69
720.676	190.12
720.863	313
721.05	360.1
721.237	319.14
721.424	276.13
721.611	253.61
721.798	243.37
721.985	208.55
722.172	216.74
722.358	177.83
722.545	282.28
722.732	224.94
722.919	333.48
723.106	319.14
723.293	286.37
723.48	261.8
723.667	183.98
723.853	321.19
724.04	325.29
724.227	286.37
724.414	186.02
724.6	317.09
724.787	300.71
724.974	419.49
725.161	345.77
725.347	179.88
725.534	296.61
725.72	331.43
725.907	343.72
726.094	405.16
726.28	280.23
726.467	263.85
726.653	263.85
726.84	388.77
727.027	474.79
727.213	259.75
727.4	286.37
727.586	278.18
727.773	247.46
727.959	265.89
728.145	300.71
728.332	257.7
728.518	198.31
728.705	333.48
728.891	259.75
729.077	317.09
729.264	194.22
729.45	212.65
729.636	298.66
729.823	405.16
730.009	370.34
730.195	376.48
730.382	300.71
730.568	229.03
730.754	251.56
730.94	313
731.126	290.47
731.313	323.24
731.499	216.74
731.685	349.86
731.871	337.57
732.057	288.42
732.243	294.57
732.429	267.94
732.615	384.68
732.801	308.9
732.987	349.86
733.173	390.82
733.359	247.46
733.545	321.19
733.731	282.28
733.917	290.47
734.103	392.87
734.289	294.57
734.475	218.79
734.661	462.5
734.847	251.56
735.033	231.08
735.219	353.96
735.404	181.93
735.59	226.98
735.776	222.89
735.962	339.62
736.148	343.72
736.333	403.11
736.519	306.85
736.705	306.85
736.89	272.04
737.076	304.81
737.262	290.47
737.447	218.79
737.633	183.98
737.819	308.9
738.004	296.61
738.19	329.38
738.375	286.37
738.561	351.91
738.747	356.01
738.932	181.93
739.118	386.72
739.303	386.72
739.489	323.24
739.674	345.77
739.859	161.45
740.045	368.29
740.23	327.33
740.416	212.65
740.601	276.13
740.786	243.37
740.972	218.79
741.157	263.85
741.342	214.7
741.528	226.98
741.713	239.27
741.898	229.03
742.084	253.61
742.269	323.24
742.454	292.52
742.639	325.29
742.824	321.19
743.01	356.01
743.195	439.97
743.38	306.85
743.565	274.09
743.75	280.23
743.935	343.72
744.12	368.29
744.305	145.06
744.49	255.65
744.675	337.57
744.86	161.45
745.045	278.18
745.23	315.05
745.415	319.14
745.6	358.05
745.785	284.33
745.97	444.07
746.155	300.71
746.34	349.86
746.525	313
746.71	296.61
746.895	128.68
747.079	196.26
747.264	267.94
747.449	313
747.634	302.76
747.819	235.18
748.003	167.59
748.188	239.27
748.373	280.23
748.557	165.54
748.742	247.46
748.927	177.83
749.111	216.74
749.296	212.65
749.481	313
749.665	224.94
749.85	108.2
750.034	247.46
750.219	235.18
750.404	286.37
750.588	290.47
750.773	153.26
750.957	245.41
751.141	198.31
751.326	286.37
751.51	95.91
751.695	282.28
751.879	155.3
752.064	339.62
752.248	169.64
752.432	356.01
752.617	296.61
752.801	235.18
752.985	253.61
753.17	288.42
753.354	243.37
753.538	173.74
753.722	153.26
753.907	126.63
754.091	130.73
754.275	202.41
754.459	171.69
754.643	214.7
754.828	161.45
755.012	200.36
755.196	181.93
755.38	208.55
755.564	87.72
755.748	186.02
755.932	214.7
756.116	224.94
756.3	269.99
756.484	167.59
756.668	245.41
756.852	46.76
757.036	143.02
757.22	161.45
757.404	190.12
757.588	157.35
757.772	190.12
757.956	124.58
758.14	315.05
758.323	124.58
758.507	220.84
758.691	145.06
758.875	237.22
759.059	288.42
759.242	124.58
759.426	186.02
759.61	202.41
759.794	63.15
759.977	247.46
760.161	399.01
760.345	237.22
760.528	169.64
760.712	208.55
760.895	114.34
761.079	114.34
761.263	138.92
761.446	93.87
761.63	132.78
761.813	204.46
761.997	65.19
762.18	183.98
762.364	208.55
762.547	3.75
762.731	143.02
762.914	198.31
763.098	77.48
763.281	67.24
763.464	73.39
763.648	163.5
763.831	79.53
764.015	73.39
764.198	89.77
764.381	149.16
764.564	140.97
764.748	134.82
764.931	108.2
765.114	190.12
765.297	151.21
765.481	77.48
765.664	130.73
765.847	196.26
766.03	253.61
766.213	128.68
766.397	93.87
766.58	143.02
766.763	169.64
766.946	85.67
767.129	112.3
767.312	79.53
767.495	102.06
767.678	128.68
767.861	73.39
768.044	87.72
768.227	77.48
768.41	26.28
768.593	100.01
768.776	106.15
768.959	18.09
769.142	167.59
769.324	122.54
769.507	81.58
769.69	67.24
769.873	75.43
770.056	265.89
770.239	110.25
770.421	171.69
770.604	204.46
770.787	85.67
770.97	73.39
771.152	20.14
771.335	114.34
771.518	77.48
771.7	179.88
771.883	243.37
772.066	108.2
772.248	128.68
772.431	212.65
772.613	190.12
772.796	-2.39
772.978	161.45
773.161	173.74
773.343	85.67
773.526	57
773.708	13.99
773.891	-2.39
774.073	104.11
774.256	34.47
774.438	212.65
774.621	63.15
774.803	79.53
774.985	75.43
775.168	57
775.35	54.95
775.532	179.88
775.715	-4.44
775.897	116.39
776.079	48.81
776.261	138.92
776.444	54.95
776.626	67.24
776.808	136.87
776.99	9.9
777.173	83.63
777.355	7.85
777.537	63.15
777.719	54.95
777.901	16.04
778.083	7.85
778.265	26.28
778.447	140.97
778.629	36.52
778.811	9.9
778.993	57
779.175	155.3
779.357	75.43
779.539	1.71
779.721	44.71
779.903	159.4
780.085	104.11
780.267	100.01
780.449	44.71
780.631	145.06
780.812	222.89
780.994	18.09
781.176	40.62
781.358	-2.39
781.54	38.57
781.721	106.15
781.903	89.77
782.085	75.43
782.267	77.48
782.448	38.57
782.63	42.67
782.812	108.2
782.993	151.21
783.175	112.3
783.357	34.47
783.538	77.48
783.72	34.47
783.901	11.95
784.083	95.91
784.264	-18.77
784.446	-12.63
784.627	-24.92
784.809	108.2
784.99	11.95
785.172	89.77
785.353	24.23
785.535	93.87
785.716	46.76
785.897	-63.83
786.079	65.19
786.26	63.15
786.441	38.57
786.623	-76.12
786.804	34.47
786.985	85.67
787.167	124.58
787.348	69.29
787.529	-0.34
787.71	218.79
787.891	104.11
788.073	-39.25
788.254	-2.39
788.435	163.5
788.616	85.67
788.797	-4.44
788.978	32.43
789.159	-33.11
789.34	138.92
789.522	48.81
789.703	36.52
789.884	38.57
790.065	130.73
790.246	198.31
790.427	30.38
790.607	222.89
790.788	116.39
790.969	-33.11
791.15	134.82
791.331	-24.92
791.512	106.15
791.693	-55.64
791.874	9.9
792.054	183.98
792.235	151.21
792.416	-57.68
792.597	-12.63
792.778	24.23
792.958	67.24
793.139	157.35
793.32	52.91
793.5	-33.11
793.681	83.63
793.862	26.28
794.042	52.91
794.223	-92.5
794.404	-94.55
794.584	-84.31
794.765	5.8
794.945	59.05
795.126	77.48
795.306	95.91
795.487	-12.63
795.667	-12.63
795.848	59.05
796.028	-22.87
796.209	40.62
796.389	130.73
796.57	71.34
796.75	9.9
796.93	-18.77
797.111	-12.63
797.291	65.19
797.471	102.06
797.652	-67.92
797.832	34.47
798.012	143.02
798.192	46.76
798.373	-59.73
798.553	40.62
798.733	40.62
798.913	-57.68
799.093	32.43
799.274	32.43
799.454	75.43
799.634	93.87
799.814	159.4
799.994	100.01
800.174	-6.49
800.354	9.9
800.534	-84.31
800.714	48.81
800.894	-41.3
801.074	-39.25
801.254	-86.36
801.434	120.49
801.614	-4.44
801.794	-88.4
801.974	1599.12
802.154	11.95
802.334	22.19
802.514	-6.49
802.693	-35.16
802.873	-8.53
803.053	77.48
803.233	40.62
803.413	42.67
803.592	-63.83
803.772	-18.77
803.952	48.81
804.131	-96.6
804.311	124.58
804.491	54.95
804.67	-37.2
804.85	-2.39
805.03	5.8
805.209	177.83
805.389	-37.2
805.568	-35.16
805.748	20.14
805.928	54.95
806.107	57
806.287	9.9
806.466	79.53
806.646	24.23
806.825	71.34
807.004	28.33
807.184	73.39
807.363	42.67
807.543	145.06
807.722	-57.68
807.901	89.77
808.081	106.15
808.26	-59.73
808.439	22.19
808.619	3.75
808.798	7.85
808.977	93.87
809.156	28.33
809.336	97.96
809.515	34.47
809.694	-35.16
809.873	7.85
810.052	52.91
810.231	102.06
810.411	61.1
810.59	124.58
810.769	-24.92
810.948	46.76
811.127	-141.65
811.306	-2.39
811.485	-96.6
811.664	42.67
811.843	59.05
812.022	11.95
812.201	18.09
812.38	-22.87
812.559	-61.78
812.737	50.86
812.916	-29.01
813.095	-20.82
813.274	75.43
813.453	50.86
813.632	95.91
813.811	83.63
813.989	-67.92
814.168	9.9
814.347	1.71
814.526	28.33
814.704	85.67
814.883	102.06
815.062	1.71
815.24	63.15
815.419	-43.35
815.598	16.04
815.776	-39.25
815.955	-2.39
816.133	-119.12
816.312	-4.44
816.49	16.04
816.669	-14.68
816.847	-14.68
817.026	11.95
817.204	32.43
817.383	32.43
817.561	-39.25
817.74	-8.53
817.918	18.09
818.097	-84.31
818.275	-10.58
818.453	26.28
818.632	24.23
818.81	20.14
818.988	9.9
819.167	30.38
819.345	22.19
819.523	-12.63
819.701	32.43
819.879	69.29
820.058	13.99
820.236	71.34
820.414	20.14
820.592	-74.07
820.77	3.75
820.948	3.75
821.127	5.8
821.305	87.72
821.483	79.53
821.661	95.91
821.839	-69.97
822.017	-41.3
822.195	-31.06
822.373	-45.4
822.551	-18.77
822.729	83.63
822.907	87.72
823.085	32.43
823.262	91.82
823.44	-69.97
823.618	32.43
823.796	36.52
823.974	-35.16
824.152	-8.53
824.329	54.95
824.507	32.43
824.685	16.04
824.863	-26.96
825.04	34.47
825.218	57
825.396	22.19
825.574	126.63
825.751	73.39
825.929	42.67
826.107	-72.02
826.284	-0.34
826.462	167.59
826.639	-55.64
826.817	-86.36
826.994	13.99
827.172	-72.02
827.349	81.58
827.527	69.29
827.704	52.91
827.882	147.11
828.059	-45.4
828.237	-10.58
828.414	11.95
828.591	-76.12
828.769	67.24
828.946	-8.53
829.124	40.62
829.301	100.01
829.478	-45.4
829.655	24.23
829.833	24.23
830.01	-88.4
830.187	28.33
830.364	-16.73
830.542	77.48
830.719	116.39
830.896	36.52
831.073	-10.58
831.25	1.71
831.427	18.09
831.604	42.67
831.782	-57.68
831.959	46.76
832.136	13.99
832.313	26.28
832.49	61.1
832.667	-22.87
832.844	-108.88
833.021	95.91
833.198	-8.53
833.374	-2.39
833.551	57
833.728	-10.58
833.905	112.3
834.082	-57.68
834.259	-10.58
834.436	134.82
834.612	-106.84
834.789	136.87
834.966	69.29
835.143	24.23
835.319	-72.02
835.496	28.33
835.673	93.87
835.85	97.96
836.026	54.95
836.203	134.82
836.38	-16.73
836.556	-88.4
836.733	13.99
836.909	116.39
837.086	63.15
837.262	-74.07
837.439	-10.58
837.616	18.09
837.792	11.95
837.968	69.29
838.145	-129.36
838.321	-2.39
838.498	77.48
838.674	-67.92
838.851	-47.44
839.027	-33.11
839.203	71.34
839.38	-57.68
839.556	-74.07
839.732	11.95
839.909	-4.44
840.085	54.95
840.261	-123.22
840.437	54.95
840.614	11.95
840.79	108.2
840.966	-22.87
841.142	38.57
841.318	-43.35
841.494	38.57
841.671	124.58
841.847	-29.01
842.023	-94.55
842.199	63.15
842.375	63.15
842.551	-176.47
842.727	-108.88
842.903	136.87
843.079	-80.21
843.255	81.58
843.431	100.01
843.607	77.48
843.783	-61.78
843.959	24.23
844.134	-102.74
844.31	128.68
844.486	-57.68
844.662	-84.31
844.838	48.81
845.013	128.68
845.189	34.47
845.365	73.39
845.541	-0.34
845.716	-35.16
845.892	-16.73
846.068	-4.44
846.244	-29.01
846.419	67.24
846.595	-57.68
846.77	-47.44
846.946	132.78
847.122	-45.4
847.297	9.9
847.473	77.48
847.648	-41.3
847.824	79.53
847.999	-86.36
848.175	71.34
848.35	28.33
848.526	77.48
848.701	46.76
848.876	85.67
849.052	7.85
849.227	-41.3
849.403	59.05
849.578	-2.39
849.753	-4.44
849.929	73.39
850.104	-69.97
850.279	42.67
850.454	-18.77
850.63	18.09
850.805	24.23
850.98	30.38
851.155	-43.35
851.33	1.71
851.505	-31.06
851.681	75.43
851.856	-100.69
852.031	59.05
852.206	36.52
852.381	38.57
852.556	-18.77
852.731	13.99
852.906	52.91
853.081	-12.63
853.256	194.22
853.431	-35.16
853.606	-6.49
853.781	-49.49
853.956	-115.03
854.131	65.19
854.305	-82.26
854.48	-47.44
854.655	-69.97
854.83	-33.11
855.005	-84.31
855.18	59.05
855.354	28.33
855.529	59.05
855.704	-63.83
855.879	87.72
856.053	-86.36
856.228	36.52
856.403	-98.64
856.577	108.2
856.752	-74.07
856.926	59.05
857.101	71.34
857.276	-98.64
857.45	24.23
857.625	79.53
857.799	34.47
857.974	75.43
858.148	-63.83
858.323	1.71
858.497	-29.01
858.672	-72.02
858.846	-102.74
859.02	81.58
859.195	-110.93
859.369	-2.39
859.543	9.9
859.718	-18.77
859.892	7.85
860.066	-74.07
860.241	44.71
860.415	-18.77
860.589	-37.2
860.763	-8.53
860.938	-12.63
861.112	79.53
861.286	-61.78
861.46	24.23
861.634	-10.58
861.808	77.48
861.982	-29.01
862.157	-37.2
862.331	-2.39
862.505	-59.73
862.679	-67.92
862.853	-74.07
863.027	-63.83
863.201	130.73
863.375	-6.49
863.549	87.72
863.722	59.05
863.896	40.62
864.07	-39.25
864.244	-20.82
864.418	52.91
864.592	-57.68
864.766	7.85
864.939	30.38
865.113	-37.2
865.287	120.49
865.461	-53.59
865.634	52.91
865.808	26.28
865.982	-55.64
866.156	-12.63
866.329	-131.41
866.503	24.23
866.676	61.1
866.85	75.43
867.024	-82.26
867.197	59.05
867.371	-53.59
867.544	11.95
867.718	-104.79
867.891	26.28
868.065	-100.69
868.238	-10.58
868.412	22.19
868.585	-41.3
868.759	-61.78
868.932	-67.92
869.105	-155.99
869.279	57
869.452	-117.08
869.625	38.57
869.799	-29.01
869.972	-22.87
870.145	-55.64
870.319	145.06
870.492	-43.35
870.665	-18.77
870.838	-106.84
871.011	-112.98
871.185	-14.68
871.358	32.43
871.531	38.57
871.704	-59.73
871.877	69.29
872.05	-10.58
872.223	-53.59
872.396	65.19
872.569	1.71
872.742	-63.83
872.915	48.81
873.088	-41.3
873.261	-63.83
873.434	7.85
873.607	-108.88
873.78	108.2
873.953	-149.84
874.126	42.67
874.299	-8.53
874.471	34.47
874.644	-55.64
874.817	3.75
874.99	196.26
875.163	28.33
875.335	5.8
875.508	20.14
875.681	48.81
875.853	-6.49
876.026	-96.6
876.199	1.71
876.371	24.23
876.544	24.23
876.717	-2.39
876.889	-63.83
877.062	-0.34
877.234	-2.39
877.407	-131.41
877.579	-35.16
877.752	30.38
877.924	71.34
878.097	-33.11
878.269	13.99
878.442	67.24
878.614	1.71
878.786	11.95
878.959	24.23
879.131	11.95
879.303	-129.36
879.476	-6.49
879.648	-8.53
879.82	16.04
879.993	-43.35
880.165	83.63
880.337	-127.32
880.509	24.23
880.681	-18.77
880.854	-26.96
881.026	-18.77
881.198	169.64
881.37	7.85
881.542	-12.63
881.714	-92.5
881.886	22.19
882.058	22.19
882.23	36.52
882.402	13.99
882.574	61.1
882.746	95.91
882.918	155.3
883.09	9.9
883.262	-49.49
883.434	-45.4
883.606	-86.36
883.778	46.76
883.95	120.49
884.122	34.47
884.293	52.91
884.465	50.86
884.637	79.53
884.809	-26.96
884.98	44.71
885.152	11.95
885.324	69.29
885.496	-135.51
885.667	-45.4
885.839	-82.26
886.011	40.62
886.182	24.23
886.354	18.09
886.525	-45.4
886.697	-49.49
886.869	-86.36
887.04	-86.36
887.212	169.64
887.383	134.82
887.555	26.28
887.726	-139.6
887.897	-37.2
888.069	5.8
888.24	32.43
888.412	50.86
888.583	36.52
888.754	-67.92
888.926	-94.55
889.097	-63.83
889.268	-59.73
889.44	-26.96
889.611	-108.88
889.782	-41.3
889.953	-104.79
890.125	63.15
890.296	-76.12
890.467	7.85
890.638	-55.64
890.809	-61.78
890.98	7.85
891.151	20.14
891.323	134.82
891.494	-55.64
891.665	40.62
891.836	-51.54
892.007	24.23
892.178	100.01
892.349	7.85
892.52	-18.77
892.691	59.05
892.862	-57.68
893.032	-108.88
893.203	-2.39
893.374	-18.77
893.545	136.87
893.716	46.76
893.887	73.39
894.057	-8.53
894.228	-67.92
894.399	-37.2
894.57	59.05
894.74	-6.49
894.911	-6.49
895.082	-10.58
895.253	-20.82
895.423	16.04
895.594	87.72
895.764	9.9
895.935	-31.06
896.106	1.71
896.276	-4.44
896.447	32.43
896.617	-33.11
896.788	-20.82
896.958	-57.68
897.129	42.67
897.299	34.47
897.47	114.34
897.64	32.43
897.81	-47.44
897.981	52.91
898.151	-65.88
898.322	57
898.492	24.23
898.662	-94.55
898.832	-6.49
899.003	-29.01
899.173	61.1
899.343	-49.49
899.513	-112.98
