Data from USB4F104151__145__11-04-19-539.txt Node

Date: Wed Feb 26 11:04:19 EST 2025
User: louis
Spectrometer: USB4F10415
Trigger mode: 4
Integration Time (sec): 1.000000E-1
Scans to average: 1
Electric dark correction enabled: true
Nonlinearity correction enabled: false
Boxcar width: 0
XAxis mode: Wavelengths
Number of Pixels in Spectrum: 3648
>>>>>Begin Spectral Data<<<<<
178.204	-323.92
178.424	-323.92
178.644	-323.92
178.864	-405.84
179.084	-397.65
179.304	24.23
179.524	-59.73
179.744	-63.83
179.964	71.34
180.184	57
180.404	-16.73
180.624	-43.35
180.844	-26.96
181.064	28.33
181.283	38.57
181.503	-47.44
181.723	38.57
181.943	-84.31
182.163	114.34
182.383	-67.92
182.602	13.99
182.822	110.25
183.042	79.53
183.262	-96.6
183.482	20.14
183.701	26.28
183.921	32.43
184.141	-0.34
184.361	87.72
184.58	59.05
184.8	22.19
185.02	-74.07
185.239	-20.82
185.459	28.33
185.679	149.16
185.898	-82.26
186.118	-0.34
186.338	34.47
186.557	116.39
186.777	20.14
186.997	-57.68
187.216	-12.63
187.436	210.6
187.655	116.39
187.875	67.24
188.095	-39.25
188.314	179.88
188.534	118.44
188.753	-2.39
188.973	124.58
189.192	120.49
189.412	13.99
189.631	13.99
189.851	3.75
190.07	136.87
190.29	-96.6
190.509	-67.92
190.729	48.81
190.948	149.16
191.168	171.69
191.387	75.43
191.607	-4.44
191.826	116.39
192.045	9.9
192.265	18.09
192.484	130.73
192.704	20.14
192.923	-59.73
193.142	124.58
193.362	87.72
193.581	177.83
193.8	18.09
194.02	81.58
194.239	3.75
194.458	34.47
194.678	-43.35
194.897	85.67
195.116	61.1
195.335	28.33
195.555	69.29
195.774	-41.3
195.993	155.3
196.212	61.1
196.432	26.28
196.651	1.71
196.87	-31.06
197.089	235.18
197.308	16.04
197.528	50.86
197.747	32.43
197.966	38.57
198.185	100.01
198.404	-6.49
198.623	81.58
198.842	95.91
199.062	120.49
199.281	147.11
199.5	73.39
199.719	87.72
199.938	22.19
200.157	32.43
200.376	136.87
200.595	108.2
200.814	-26.96
201.033	-41.3
201.252	161.45
201.471	93.87
201.69	79.53
201.909	79.53
202.128	102.06
202.347	65.19
202.566	-31.06
202.785	-45.4
203.004	26.28
203.223	224.94
203.442	79.53
203.661	-4.44
203.879	116.39
204.098	91.82
204.317	-55.64
204.536	89.77
204.755	61.1
204.974	100.01
205.193	-0.34
205.411	147.11
205.63	77.48
205.849	65.19
206.068	-88.4
206.287	-33.11
206.505	138.92
206.724	44.71
206.943	24.23
207.162	77.48
207.381	91.82
207.599	93.87
207.818	-47.44
208.037	-31.06
208.255	50.86
208.474	32.43
208.693	104.11
208.911	-61.78
209.13	120.49
209.349	93.87
209.567	52.91
209.786	89.77
210.005	83.63
210.223	-31.06
210.442	-119.12
210.661	1.71
210.879	42.67
211.098	52.91
211.316	11.95
211.535	44.71
211.753	38.57
211.972	16.04
212.191	1.71
212.409	-53.59
212.628	30.38
212.846	-24.92
213.065	9.9
213.283	140.97
213.502	77.48
213.72	28.33
213.938	69.29
214.157	9.9
214.375	38.57
214.594	-20.82
214.812	75.43
215.031	-43.35
215.249	7.85
215.467	44.71
215.686	67.24
215.904	59.05
216.122	28.33
216.341	208.55
216.559	16.04
216.778	50.86
216.996	167.59
217.214	54.95
217.432	40.62
217.651	63.15
217.869	102.06
218.087	61.1
218.306	-12.63
218.524	16.04
218.742	57
218.96	13.99
219.179	-31.06
219.397	-51.54
219.615	237.22
219.833	136.87
220.051	-86.36
220.27	65.19
220.488	59.05
220.706	16.04
220.924	-61.78
221.142	-16.73
221.36	24.23
221.578	71.34
221.796	3.75
222.015	85.67
222.233	34.47
222.451	169.64
222.669	-65.88
222.887	65.19
223.105	24.23
223.323	114.34
223.541	91.82
223.759	130.73
223.977	18.09
224.195	126.63
224.413	108.2
224.631	50.86
224.849	42.67
225.067	198.31
225.285	-20.82
225.503	13.99
225.721	-137.56
225.939	106.15
226.157	32.43
226.375	202.41
226.592	-20.82
226.81	48.81
227.028	97.96
227.246	57
227.464	42.67
227.682	61.1
227.9	48.81
228.117	71.34
228.335	67.24
228.553	1.71
228.771	34.47
228.989	22.19
229.206	34.47
229.424	-24.92
229.642	1.71
229.86	-22.87
230.077	38.57
230.295	44.71
230.513	97.96
230.731	85.67
230.948	161.45
231.166	163.5
231.384	5.8
231.601	-22.87
231.819	155.3
232.037	32.43
232.254	-115.03
232.472	38.57
232.689	-55.64
232.907	63.15
233.125	16.04
233.342	42.67
233.56	38.57
233.777	-96.6
233.995	65.19
234.213	155.3
234.43	91.82
234.648	30.38
234.865	48.81
235.083	57
235.3	77.48
235.518	54.95
235.735	167.59
235.953	54.95
236.17	91.82
236.388	46.76
236.605	89.77
236.822	26.28
237.04	52.91
237.257	67.24
237.475	16.04
237.692	75.43
237.909	85.67
238.127	-4.44
238.344	34.47
238.562	34.47
238.779	-84.31
238.996	-41.3
239.214	93.87
239.431	54.95
239.648	-33.11
239.865	95.91
240.083	75.43
240.3	-12.63
240.517	46.76
240.735	36.52
240.952	122.54
241.169	28.33
241.386	-20.82
241.603	1.71
241.821	11.95
242.038	48.81
242.255	118.44
242.472	-8.53
242.689	57
242.907	75.43
243.124	16.04
243.341	91.82
243.558	-12.63
243.775	-104.79
243.992	18.09
244.209	22.19
244.426	245.41
244.643	42.67
244.86	52.91
245.078	77.48
245.295	57
245.512	63.15
245.729	3.75
245.946	13.99
246.163	20.14
246.38	106.15
246.597	79.53
246.814	140.97
247.031	18.09
247.248	-53.59
247.464	112.3
247.681	118.44
247.898	26.28
248.115	1.71
248.332	-41.3
248.549	87.72
248.766	130.73
248.983	118.44
249.2	34.47
249.417	97.96
249.633	34.47
249.85	128.68
250.067	59.05
250.284	16.04
250.501	108.2
250.717	79.53
250.934	-53.59
251.151	9.9
251.368	-41.3
251.585	18.09
251.801	36.52
252.018	-26.96
252.235	124.58
252.451	-45.4
252.668	5.8
252.885	104.11
253.102	-2.39
253.318	65.19
253.535	-6.49
253.752	28.33
253.968	42.67
254.185	-119.12
254.401	54.95
254.618	122.54
254.835	-8.53
255.051	110.25
255.268	52.91
255.484	102.06
255.701	30.38
255.917	54.95
256.134	-24.92
256.351	28.33
256.567	-80.21
256.784	3.75
257	-20.82
257.217	134.82
257.433	81.58
257.65	81.58
257.866	124.58
258.082	-24.92
258.299	-37.2
258.515	57
258.732	46.76
258.948	-78.16
259.165	50.86
259.381	-69.97
259.597	42.67
259.814	46.76
260.03	-31.06
260.246	-43.35
260.463	93.87
260.679	112.3
260.895	20.14
261.112	134.82
261.328	-35.16
261.544	-43.35
261.761	177.83
261.977	26.28
262.193	-55.64
262.409	153.26
262.626	69.29
262.842	52.91
263.058	-12.63
263.274	46.76
263.49	77.48
263.707	52.91
263.923	110.25
264.139	-88.4
264.355	24.23
264.571	67.24
264.787	69.29
265.004	95.91
265.22	75.43
265.436	-0.34
265.652	-22.87
265.868	36.52
266.084	-35.16
266.3	42.67
266.516	-8.53
266.732	40.62
266.948	38.57
267.164	-16.73
267.38	85.67
267.596	102.06
267.812	134.82
268.028	30.38
268.244	40.62
268.46	3.75
268.676	22.19
268.892	-22.87
269.108	-10.58
269.324	-51.54
269.54	-82.26
269.756	122.54
269.972	-98.64
270.188	-2.39
270.403	3.75
270.619	9.9
270.835	50.86
271.051	-29.01
271.267	9.9
271.483	-43.35
271.698	104.11
271.914	-4.44
272.13	48.81
272.346	-47.44
272.562	20.14
272.777	136.87
272.993	87.72
273.209	-10.58
273.425	106.15
273.64	-84.31
273.856	18.09
274.072	-12.63
274.287	-37.2
274.503	42.67
274.719	89.77
274.934	9.9
275.15	-16.73
275.366	46.76
275.581	-33.11
275.797	5.8
276.012	102.06
276.228	-37.2
276.444	16.04
276.659	120.49
276.875	-16.73
277.09	18.09
277.306	61.1
277.521	79.53
277.737	-26.96
277.952	42.67
278.168	93.87
278.383	16.04
278.599	1.71
278.814	120.49
279.03	104.11
279.245	85.67
279.461	28.33
279.676	13.99
279.892	-96.6
280.107	52.91
280.322	-39.25
280.538	1.71
280.753	20.14
280.969	77.48
281.184	32.43
281.399	128.68
281.615	16.04
281.83	61.1
282.045	-49.49
282.26	5.8
282.476	-37.2
282.691	65.19
282.906	81.58
283.122	108.2
283.337	-12.63
283.552	118.44
283.767	18.09
283.983	161.45
284.198	3.75
284.413	32.43
284.628	-53.59
284.843	71.34
285.058	50.86
285.274	-84.31
285.489	-49.49
285.704	118.44
285.919	32.43
286.134	-12.63
286.349	1.71
286.564	46.76
286.779	153.26
286.995	-4.44
287.21	22.19
287.425	95.91
287.64	-45.4
287.855	140.97
288.07	-121.17
288.285	-8.53
288.5	145.06
288.715	100.01
288.93	3.75
289.145	-0.34
289.36	5.8
289.575	40.62
289.79	128.68
290.004	-41.3
290.219	-2.39
290.434	24.23
290.649	-12.63
290.864	-6.49
291.079	128.68
291.294	118.44
291.509	50.86
291.724	52.91
291.938	-20.82
292.153	79.53
292.368	-16.73
292.583	65.19
292.798	85.67
293.012	26.28
293.227	93.87
293.442	-18.77
293.657	83.63
293.871	79.53
294.086	95.91
294.301	167.59
294.516	97.96
294.73	40.62
294.945	-69.97
295.16	-37.2
295.374	114.34
295.589	95.91
295.804	20.14
296.018	-0.34
296.233	59.05
296.447	128.68
296.662	50.86
296.877	153.26
297.091	75.43
297.306	38.57
297.52	50.86
297.735	5.8
297.949	77.48
298.164	97.96
298.378	9.9
298.593	-51.54
298.807	22.19
299.022	48.81
299.236	159.4
299.451	5.8
299.665	13.99
299.88	46.76
300.094	59.05
300.309	63.15
300.523	7.85
300.737	5.8
300.952	38.57
301.166	106.15
301.381	-18.77
301.595	46.76
301.809	28.33
302.024	9.9
302.238	-20.82
302.452	42.67
302.667	81.58
302.881	81.58
303.095	97.96
303.309	59.05
303.524	-41.3
303.738	-20.82
303.952	18.09
304.166	71.34
304.381	-76.12
304.595	112.3
304.809	-8.53
305.023	42.67
305.237	24.23
305.452	5.8
305.666	91.82
305.88	38.57
306.094	32.43
306.308	44.71
306.522	36.52
306.736	118.44
306.95	30.38
307.164	-29.01
307.379	69.29
307.593	163.5
307.807	177.83
308.021	120.49
308.235	102.06
308.449	-47.44
308.663	69.29
308.877	196.26
309.091	22.19
309.305	75.43
309.519	-55.64
309.733	102.06
309.947	-102.74
310.161	28.33
310.374	50.86
310.588	120.49
310.802	-37.2
311.016	-84.31
311.23	69.29
311.444	-18.77
311.658	73.39
311.872	151.21
312.085	118.44
312.299	100.01
312.513	196.26
312.727	3.75
312.941	-63.83
313.154	11.95
313.368	1.71
313.582	-8.53
313.796	83.63
314.009	46.76
314.223	75.43
314.437	81.58
314.651	130.73
314.864	46.76
315.078	59.05
315.292	-76.12
315.505	11.95
315.719	126.63
315.933	-29.01
316.146	-55.64
316.36	-63.83
316.573	52.91
316.787	32.43
317.001	57
317.214	-37.2
317.428	54.95
317.641	-24.92
317.855	-47.44
318.068	106.15
318.282	36.52
318.495	145.06
318.709	30.38
318.922	-14.68
319.136	132.78
319.349	100.01
319.563	-78.16
319.776	59.05
319.99	-98.64
320.203	81.58
320.417	52.91
320.63	112.3
320.843	136.87
321.057	13.99
321.27	67.24
321.483	52.91
321.697	136.87
321.91	85.67
322.124	-51.54
322.337	65.19
322.55	-115.03
322.763	57
322.977	9.9
323.19	9.9
323.403	-37.2
323.617	122.54
323.83	163.5
324.043	13.99
324.256	44.71
324.469	-47.44
324.683	79.53
324.896	20.14
325.109	38.57
325.322	-31.06
325.535	71.34
325.748	79.53
325.962	52.91
326.175	67.24
326.388	112.3
326.601	136.87
326.814	-26.96
327.027	69.29
327.24	91.82
327.453	-110.93
327.666	44.71
327.879	81.58
328.092	50.86
328.305	65.19
328.518	46.76
328.731	9.9
328.944	81.58
329.157	13.99
329.37	1.71
329.583	163.5
329.796	175.78
330.009	-94.55
330.222	61.1
330.435	126.63
330.648	-0.34
330.861	7.85
331.073	95.91
331.286	104.11
331.499	57
331.712	22.19
331.925	38.57
332.138	42.67
332.35	40.62
332.563	-16.73
332.776	167.59
332.989	-18.77
333.202	30.38
333.414	11.95
333.627	93.87
333.84	11.95
334.053	-12.63
334.265	34.47
334.478	-47.44
334.691	20.14
334.903	24.23
335.116	-61.78
335.329	-16.73
335.541	50.86
335.754	81.58
335.966	1.71
336.179	-8.53
336.392	-22.87
336.604	52.91
336.817	85.67
337.029	81.58
337.242	18.09
337.454	71.34
337.667	59.05
337.88	65.19
338.092	87.72
338.305	114.34
338.517	13.99
338.729	165.54
338.942	132.78
339.154	-29.01
339.367	42.67
339.579	61.1
339.792	-16.73
340.004	118.44
340.217	-29.01
340.429	28.33
340.641	63.15
340.854	-0.34
341.066	93.87
341.278	112.3
341.491	71.34
341.703	54.95
341.915	13.99
342.128	134.82
342.34	22.19
342.552	-26.96
342.764	48.81
342.977	26.28
343.189	26.28
343.401	93.87
343.613	-59.73
343.826	77.48
344.038	-59.73
344.25	-20.82
344.462	-4.44
344.674	11.95
344.886	-2.39
345.099	36.52
345.311	104.11
345.523	1.71
345.735	-26.96
345.947	30.38
346.159	77.48
346.371	22.19
346.583	13.99
346.795	140.97
347.007	11.95
347.219	-22.87
347.431	75.43
347.643	132.78
347.855	24.23
348.067	134.82
348.279	-67.92
348.491	87.72
348.703	124.58
348.915	38.57
349.127	-51.54
349.339	54.95
349.551	-10.58
349.763	69.29
349.975	85.67
350.187	161.45
350.399	95.91
350.61	28.33
350.822	36.52
351.034	81.58
351.246	-29.01
351.458	63.15
351.669	110.25
351.881	65.19
352.093	106.15
352.305	110.25
352.517	57
352.728	161.45
352.94	83.63
353.152	46.76
353.363	5.8
353.575	48.81
353.787	120.49
353.999	85.67
354.21	210.6
354.422	-37.2
354.633	52.91
354.845	50.86
355.057	120.49
355.268	93.87
355.48	-37.2
355.692	-88.4
355.903	36.52
356.115	-2.39
356.326	-98.64
356.538	128.68
356.749	42.67
356.961	145.06
357.172	-4.44
357.384	7.85
357.595	196.26
357.807	-16.73
358.018	-49.49
358.23	67.24
358.441	157.35
358.653	169.64
358.864	5.8
359.075	-18.77
359.287	75.43
359.498	181.93
359.709	73.39
359.921	22.19
360.132	112.3
360.344	40.62
360.555	-45.4
360.766	128.68
360.977	40.62
361.189	67.24
361.4	1.71
361.611	136.87
361.823	91.82
362.034	57
362.245	-14.68
362.456	42.67
362.667	57
362.879	42.67
363.09	102.06
363.301	48.81
363.512	-20.82
363.723	1.71
363.935	38.57
364.146	36.52
364.357	-0.34
364.568	65.19
364.779	-72.02
364.99	138.92
365.201	-18.77
365.412	106.15
365.623	-135.51
365.834	71.34
366.045	24.23
366.256	77.48
366.467	110.25
366.678	48.81
366.889	57
367.1	-33.11
367.311	181.93
367.522	22.19
367.733	112.3
367.944	-29.01
368.155	-18.77
368.366	134.82
368.577	124.58
368.788	69.29
368.999	22.19
369.209	67.24
369.42	202.41
369.631	220.84
369.842	75.43
370.053	-4.44
370.264	183.98
370.474	-14.68
370.685	46.76
370.896	-0.34
371.107	149.16
371.317	38.57
371.528	24.23
371.739	97.96
371.95	104.11
372.16	57
372.371	-69.97
372.582	5.8
372.792	85.67
373.003	69.29
373.214	69.29
373.424	126.63
373.635	7.85
373.846	110.25
374.056	22.19
374.267	16.04
374.477	122.54
374.688	48.81
374.898	63.15
375.109	95.91
375.319	71.34
375.53	153.26
375.74	171.69
375.951	61.1
376.161	24.23
376.372	165.54
376.582	-26.96
376.793	46.76
377.003	-57.68
377.214	-14.68
377.424	118.44
377.635	67.24
377.845	-20.82
378.055	147.11
378.266	-106.84
378.476	20.14
378.686	36.52
378.897	-33.11
379.107	126.63
379.317	77.48
379.528	-65.88
379.738	61.1
379.948	-41.3
380.158	100.01
380.369	46.76
380.579	63.15
380.789	73.39
380.999	112.3
381.21	73.39
381.42	120.49
381.63	85.67
381.84	136.87
382.05	73.39
382.261	128.68
382.471	40.62
382.681	-88.4
382.891	104.11
383.101	42.67
383.311	-53.59
383.521	3.75
383.731	65.19
383.941	163.5
384.151	30.38
384.361	22.19
384.571	36.52
384.781	83.63
384.991	124.58
385.201	204.46
385.411	7.85
385.621	73.39
385.831	110.25
386.041	67.24
386.251	89.77
386.461	65.19
386.671	40.62
386.881	-18.77
387.091	77.48
387.301	36.52
387.511	-69.97
387.72	59.05
387.93	112.3
388.14	-119.12
388.35	50.86
388.56	136.87
388.769	149.16
388.979	30.38
389.189	65.19
389.399	-4.44
389.609	77.48
389.818	65.19
390.028	34.47
390.238	89.77
390.447	48.81
390.657	106.15
390.867	-6.49
391.076	-67.92
391.286	95.91
391.496	-12.63
391.705	1.71
391.915	128.68
392.125	50.86
392.334	54.95
392.544	140.97
392.753	-24.92
392.963	-12.63
393.172	63.15
393.382	61.1
393.591	163.5
393.801	-4.44
394.01	155.3
394.22	22.19
394.429	18.09
394.639	-59.73
394.848	147.11
395.058	73.39
395.267	16.04
395.477	126.63
395.686	57
395.895	186.02
396.105	190.12
396.314	-2.39
396.524	5.8
396.733	50.86
396.942	87.72
397.152	59.05
397.361	198.31
397.57	87.72
397.78	20.14
397.989	42.67
398.198	177.83
398.407	52.91
398.617	13.99
398.826	-22.87
399.035	124.58
399.244	102.06
399.453	153.26
399.663	11.95
399.872	54.95
400.081	-55.64
400.29	126.63
400.499	-49.49
400.708	177.83
400.917	89.77
401.127	-47.44
401.336	-47.44
401.545	147.11
401.754	61.1
401.963	69.29
402.172	59.05
402.381	-41.3
402.59	52.91
402.799	40.62
403.008	91.82
403.217	38.57
403.426	57
403.635	-88.4
403.844	-4.44
404.053	-47.44
404.262	73.39
404.471	237.22
404.68	11.95
404.888	28.33
405.097	18.09
405.306	34.47
405.515	75.43
405.724	3.75
405.933	145.06
406.142	59.05
406.35	179.88
406.559	48.81
406.768	-10.58
406.977	147.11
407.185	38.57
407.394	77.48
407.603	-51.54
407.812	100.01
408.02	59.05
408.229	54.95
408.438	165.54
408.646	13.99
408.855	38.57
409.064	83.63
409.272	81.58
409.481	54.95
409.69	40.62
409.898	67.24
410.107	-16.73
410.315	130.73
410.524	-4.44
410.733	34.47
410.941	67.24
411.15	116.39
411.358	67.24
411.567	112.3
411.775	24.23
411.984	69.29
412.192	38.57
412.401	1.71
412.609	163.5
412.818	112.3
413.026	-18.77
413.234	16.04
413.443	42.67
413.651	-24.92
413.86	20.14
414.068	157.35
414.276	118.44
414.485	44.71
414.693	151.21
414.901	196.26
415.11	110.25
415.318	28.33
415.526	9.9
415.734	65.19
415.943	159.4
416.151	186.02
416.359	77.48
416.567	83.63
416.776	89.77
416.984	83.63
417.192	175.78
417.4	-12.63
417.608	-4.44
417.817	-18.77
418.025	110.25
418.233	175.78
418.441	32.43
418.649	-67.92
418.857	110.25
419.065	112.3
419.273	26.28
419.481	7.85
419.689	-6.49
419.897	34.47
420.105	-80.21
420.313	100.01
420.521	102.06
420.729	210.6
420.937	-76.12
421.145	1.71
421.353	102.06
421.561	112.3
421.769	110.25
421.977	5.8
422.185	36.52
422.393	91.82
422.601	81.58
422.809	81.58
423.017	-18.77
423.224	89.77
423.432	179.88
423.64	114.34
423.848	163.5
424.056	-12.63
424.263	140.97
424.471	3.75
424.679	112.3
424.887	-78.16
425.094	153.26
425.302	126.63
425.51	20.14
425.718	134.82
425.925	38.57
426.133	71.34
426.341	202.41
426.548	75.43
426.756	26.28
426.964	163.5
427.171	30.38
427.379	95.91
427.586	81.58
427.794	69.29
428.001	169.64
428.209	57
428.417	224.94
428.624	161.45
428.832	188.07
429.039	136.87
429.247	136.87
429.454	153.26
429.662	304.81
429.869	145.06
430.076	91.82
430.284	183.98
430.491	196.26
430.699	104.11
430.906	288.42
431.114	128.68
431.321	161.45
431.528	138.92
431.736	83.63
431.943	235.18
432.15	159.4
432.358	218.79
432.565	300.71
432.772	91.82
432.979	147.11
433.187	194.22
433.394	286.37
433.601	112.3
433.808	282.28
434.016	243.37
434.223	278.18
434.43	192.17
434.637	282.28
434.844	360.1
435.052	243.37
435.259	337.57
435.466	356.01
435.673	245.41
435.88	317.09
436.087	327.33
436.294	333.48
436.501	302.76
436.708	241.32
436.915	392.87
437.122	437.92
437.329	290.47
437.537	333.48
437.743	446.12
437.95	546.47
438.157	497.32
438.364	444.07
438.571	415.4
438.778	446.12
438.985	470.69
439.192	554.66
439.399	513.7
439.606	515.75
439.813	525.99
440.02	743.07
440.227	698.02
440.433	685.73
440.64	579.23
440.847	464.55
441.054	726.69
441.261	796.32
441.467	655.01
441.674	718.5
441.881	835.23
442.088	712.35
442.294	812.7
442.501	945.82
442.708	841.37
442.914	798.37
443.121	970.4
443.328	929.44
443.534	1095.32
443.741	1017.5
443.948	994.97
444.154	1062.55
444.361	1322.65
444.568	1179.29
444.774	1199.77
444.981	1183.38
445.187	1308.31
445.394	1275.54
445.6	1377.94
445.807	1466
446.013	1515.16
446.22	1431.19
446.426	1656.47
446.633	1779.34
446.839	1896.08
447.046	1648.27
447.252	1859.21
447.459	1957.52
447.665	1955.47
447.871	2170.51
448.078	2246.28
448.284	2238.09
448.491	2381.45
448.697	2481.8
448.903	2340.49
449.11	2524.8
449.316	2479.75
449.522	2815.62
449.728	2827.9
449.935	3059.32
450.141	2973.31
450.347	3081.85
450.553	3245.69
450.76	3233.4
450.966	3395.19
451.172	3387
451.378	3737.2
451.584	3825.26
451.791	3960.43
451.997	4208.23
452.203	4154.99
452.409	4374.12
452.615	4605.54
452.821	4380.26
453.027	4662.88
453.233	5135.96
453.44	5097.05
453.646	5297.75
453.852	5404.25
454.058	5715.54
454.264	5944.91
454.47	6180.43
454.676	6166.09
454.882	6856.26
455.088	6581.83
455.294	6870.59
455.5	7333.43
455.705	7763.51
455.911	7603.77
456.117	7947.83
456.323	8201.77
456.529	8179.25
456.735	9111.07
456.941	9033.25
457.147	9403.93
457.352	9881.11
457.558	10223.12
457.764	10993.15
457.97	11109.89
458.176	11628.03
458.381	12107.25
458.587	12408.3
458.793	12908.01
458.999	12688.87
459.204	14638.54
459.41	14921.16
459.616	14884.3
459.821	15619.52
460.027	16297.39
460.233	17094.05
460.438	17221.03
460.644	18304.4
460.85	18357.65
461.055	19234.18
461.261	20131.19
461.466	19594.62
461.672	20084.09
461.878	22023.51
462.083	22132.06
462.289	22642
462.494	23450.95
462.7	23409.99
462.905	23940.41
463.111	25773.35
463.316	26948.88
463.522	27424.01
463.727	28630.26
463.932	29478.12
464.138	30287.07
464.343	31526.09
464.549	31653.06
464.754	34428.06
464.959	34866.33
465.165	35458.19
465.37	35150.99
465.575	35177.62
465.781	37497.97
465.986	38632.54
466.191	37885.03
466.397	38685.79
466.602	37694.57
466.807	39765.07
467.012	40537.15
467.218	40989.75
467.423	40938.55
467.628	42241.06
467.833	44768.26
468.038	43801.61
468.244	42423.33
468.449	44827.65
468.654	43918.35
468.859	43879.44
469.064	43809.81
469.269	42734.62
469.474	43578.39
469.679	44618.75
469.885	43101.21
470.09	43971.6
470.295	43658.26
470.5	42705.95
470.705	43576.34
470.91	42163.24
471.115	41677.87
471.32	41696.3
471.525	41870.38
471.73	40705.09
471.935	40565.82
472.139	38911.06
472.344	39138.39
472.549	38804.57
472.754	38184.04
472.959	37125.24
473.164	35927.17
473.369	35265.68
473.574	36260.99
473.778	35619.98
473.983	35079.32
474.188	34258.08
474.393	32957.62
474.598	32279.74
474.802	31659.21
475.007	31593.67
475.212	31057.1
475.417	30002.4
475.621	29775.08
475.826	29535.46
476.031	28554.49
476.235	28120.32
476.44	27817.22
476.645	27190.54
476.849	27147.53
477.054	26084.64
477.259	26010.91
477.463	25830.69
477.668	24986.93
477.872	25306.41
478.077	24501.56
478.282	23868.73
478.486	23459.14
478.691	23387.46
478.895	23379.27
479.1	23014.73
479.304	22965.58
479.509	21921.12
479.713	22887.76
479.918	22068.57
480.122	21257.57
480.326	21497.19
480.531	21415.27
480.735	21228.9
480.94	20626.8
481.144	21513.57
481.348	20413.81
481.553	20618.61
481.757	20114.81
481.961	20403.57
482.166	20229.49
482.37	19967.35
482.574	19608.96
482.778	19668.35
482.983	19783.04
483.187	19434.88
483.391	19293.57
483.595	18701.71
483.8	18490.77
484.004	18738.57
484.208	18595.21
484.412	18402.71
484.616	18445.71
484.821	18075.03
485.025	17606.05
485.229	17460.64
485.433	17229.22
485.637	17350.05
485.841	16737.71
486.045	16793
486.249	16414.13
486.453	16074.17
486.657	15863.22
486.861	15824.31
487.065	15297.99
487.269	15242.69
487.473	14722.51
487.677	14826.95
487.881	14794.18
488.085	14357.97
488.289	14024.15
488.493	13725.15
488.697	13708.76
488.901	13239.78
489.105	13024.74
489.309	12830.18
489.512	12518.89
489.716	12379.63
489.92	12074.48
490.124	12232.18
490.328	11980.28
490.531	11529.72
490.735	11296.25
490.939	11124.22
491.143	10890.76
491.346	10663.43
491.55	10573.32
491.754	10472.97
491.958	10329.61
492.161	10059.28
492.365	9983.51
492.569	9594.39
492.772	9645.59
492.976	9731.61
493.18	9295.39
493.383	9377.31
493.587	9405.98
493.79	9166.37
493.994	8879.65
494.197	9020.96
494.401	8924.71
494.605	8697.38
494.808	8584.74
495.012	8508.97
495.215	8582.7
495.419	8572.46
495.622	8330.8
495.825	8316.46
496.029	8193.58
496.232	8257.07
496.436	8013.36
496.639	8410.67
496.843	8119.85
497.046	8068.66
497.249	8287.79
497.453	8283.69
497.656	8179.25
497.859	8152.62
498.063	8234.54
498.266	8191.53
498.469	8109.61
498.673	8164.91
498.876	8134.19
499.079	8285.74
499.282	8218.16
499.485	8361.52
499.689	8416.81
499.892	8248.88
500.095	8326.7
500.298	8410.67
500.501	8457.77
500.705	8560.17
500.908	8611.37
501.111	8789.54
501.314	8793.64
501.517	9090.59
501.72	9113.12
501.923	9063.97
502.126	9211.42
502.329	9467.42
502.532	9399.84
502.735	9578.01
502.938	9668.12
503.141	9768.47
503.344	9840.15
503.547	10061.33
503.75	9995.79
503.953	10171.92
504.156	10386.96
504.359	10626.57
504.562	10405.39
504.765	10599.94
504.968	10817.03
505.17	10950.15
505.373	11204.1
505.576	11537.91
505.779	11546.11
505.982	11625.98
506.185	12070.39
506.387	12326.38
506.59	12361.2
506.793	12473.84
506.996	12778.98
507.198	13141.47
507.401	13198.82
507.604	13530.59
507.807	13776.34
508.009	14126.55
508.212	14153.17
508.415	14652.88
508.617	14669.26
508.82	14921.16
509.022	15265.22
509.225	15986.1
509.428	16266.67
509.63	16197.04
509.833	16489.9
510.035	17376.67
510.238	17167.78
510.44	17632.67
510.643	18261.4
510.845	18627.98
511.048	18488.72
511.25	19367.3
511.453	19590.53
511.655	20659.57
511.858	20757.87
512.06	21376.36
512.262	21808.48
512.465	22031.71
512.667	22603.09
512.87	22836.56
513.072	23485.76
513.274	24190.27
513.477	24792.37
513.679	25206.06
513.881	25799.97
514.084	26195.23
514.286	26770.71
514.488	27319.56
514.69	28409.08
514.893	28445.94
515.095	29213.93
515.297	30004.45
515.499	30684.37
515.701	31161.55
515.904	31909.06
516.106	32433.34
516.308	33123.51
516.51	34176.16
516.712	34022.56
516.914	35138.71
517.116	35810.44
517.318	36314.24
517.52	36815.99
517.722	37489.77
517.925	38270.05
518.127	38870.11
518.329	39865.42
518.531	39904.33
518.733	41008.18
518.935	41550.9
519.136	42161.19
519.338	43019.29
519.54	43711.5
519.742	44215.3
519.944	44520.45
520.146	45591.54
520.348	46210.03
520.55	46427.11
520.752	46803.94
520.954	47606.74
521.155	47973.33
521.357	49124.29
521.559	49142.72
521.761	49970.1
521.963	50146.22
522.164	50695.08
522.366	50924.45
522.568	51643.29
522.77	52128.66
522.971	52632.46
523.173	52321.16
523.375	52857.73
523.576	52853.64
523.778	53472.12
523.98	53951.35
524.181	54326.13
524.383	53732.21
524.584	54643.56
524.786	54444.91
524.988	54137.71
525.189	54897.51
525.391	54762.34
525.592	54778.73
525.794	54766.44
525.995	54961
526.197	54414.19
526.398	54365.04
526.6	54674.28
526.801	54356.85
527.003	54086.51
527.204	53949.3
527.406	54586.22
527.607	53824.37
527.808	54072.18
528.01	52689.8
528.211	53111.68
528.412	53386.11
528.614	52233.1
528.815	52411.27
529.016	52521.87
529.218	50793.38
529.419	50887.59
529.62	50406.31
529.822	50066.35
530.023	49617.85
530.224	49064.89
530.425	49025.98
530.626	48122.83
530.828	47313.88
531.029	47795.15
531.23	46488.55
531.431	46144.49
531.632	46148.59
531.833	45456.37
532.035	44778.5
532.236	44827.65
532.437	43756.56
532.638	43273.24
532.839	42439.72
533.04	42527.78
533.241	40850.49
533.442	41389.11
533.643	40629.31
533.844	39724.11
534.045	39652.43
534.246	38915.16
534.447	38796.38
534.648	37764.2
534.849	37420.14
535.05	36920.44
535.251	36547.71
535.451	36275.33
535.652	35345.55
535.853	34938.01
536.054	34587.8
536.255	34069.67
536.456	33311.92
536.657	33508.52
536.857	32724.15
537.058	32111.81
537.259	32019.65
537.46	31540.43
537.66	31038.67
537.861	30577.88
538.062	30063.84
538.263	29656.29
538.463	29390.06
538.664	29226.22
538.865	28601.59
539.065	28722.42
539.266	27823.36
539.466	27561.22
539.667	27188.49
539.868	26975.5
540.068	26748.18
540.269	26275.1
540.469	26252.57
540.67	25533.73
540.87	25312.55
541.071	25050.41
541.271	24655.15
541.472	24694.07
541.672	24014.14
541.873	23747.9
542.073	23395.65
542.274	23465.28
542.474	23391.56
542.675	22764.88
542.875	22789.45
543.075	22330.71
543.276	21892.44
543.476	21964.12
543.676	21556.58
543.877	21341.54
544.077	21046.63
544.277	21060.97
544.478	20512.11
544.678	20432.24
544.878	20424.05
545.078	20047.22
545.279	19748.22
545.479	19402.11
545.679	19486.08
545.879	18965.9
546.079	18789.77
546.28	18527.63
546.48	18136.47
546.68	18363.79
546.88	17989.02
547.08	18115.99
547.28	17601.95
547.48	16975.27
547.68	17251.75
547.88	16838.06
548.081	16868.78
548.281	16487.86
548.481	16321.97
548.681	16049.59
548.881	15955.38
549.081	15644.09
549.28	15281.6
549.48	15267.27
549.68	14994.89
549.88	15152.58
550.08	14419.41
550.28	14374.35
550.48	14486.99
550.68	14114.26
550.88	14022.1
551.08	13495.77
551.279	13391.33
551.479	12998.12
551.679	12869.09
551.879	12897.77
552.079	12754.41
552.278	12516.84
552.478	12447.21
552.678	12097.01
552.878	11830.77
553.077	11703.8
553.277	11443.71
553.477	11550.2
553.676	11122.18
553.876	11234.82
554.076	10806.79
554.275	10722.82
554.475	10472.97
554.674	10550.79
554.874	10464.78
555.074	10051.09
555.273	9813.52
555.473	9711.13
555.672	9625.11
555.872	9221.66
556.071	9219.61
556.271	9268.77
556.47	9055.78
556.67	8807.97
556.869	8672.81
557.068	8416.81
557.268	8191.53
557.467	8169.01
557.667	8279.6
557.866	8044.08
558.065	7906.87
558.265	7781.94
558.464	7458.36
558.663	7564.86
558.863	7274.04
559.062	7335.48
559.261	6942.27
559.461	7065.15
559.66	6694.47
559.859	6757.96
560.058	6811.2
560.258	6569.54
560.457	6411.85
560.656	6649.41
560.855	6071.89
561.054	6391.37
561.253	6178.38
561.453	6108.75
561.652	5994.06
561.851	6063.69
562.05	5516.89
562.249	5547.61
562.448	5555.8
562.647	5412.44
562.846	5396.06
563.045	5334.62
563.244	5283.42
563.443	5181.02
563.642	5047.9
563.841	4951.65
564.04	4890.21
564.239	4808.29
564.438	4769.38
564.637	4654.69
564.836	4554.34
565.035	4589.16
565.234	4376.17
565.432	4437.61
565.631	4241
565.83	4339.3
566.029	4279.91
566.228	4191.85
566.427	4298.35
566.625	3905.14
566.824	3937.9
567.023	3958.38
567.222	3851.89
567.42	3866.22
567.619	3767.92
567.818	3733.11
568.016	3878.51
568.215	3522.16
568.414	3667.57
568.612	3534.45
568.811	3571.32
569.01	3460.73
569.208	3358.33
569.407	3296.89
569.605	3292.79
569.804	3135.1
570.002	3311.22
570.201	3012.22
570.4	3178.11
570.598	2969.21
570.797	2915.97
570.995	2983.55
571.193	2848.38
571.392	2844.29
571.59	2680.45
571.789	2840.19
571.987	2748.03
572.186	2899.58
572.384	2676.35
572.582	2592.39
572.781	2666.11
572.979	2430.6
573.177	2387.59
573.376	2512.52
573.574	2422.41
573.772	2360.97
573.971	2201.23
574.169	2324.1
574.367	2266.76
574.565	2209.42
574.763	2188.94
574.962	2154.12
575.16	2066.06
575.358	2127.5
575.556	2002.57
575.754	2178.7
575.952	1949.32
576.151	1982.09
576.349	1986.19
576.547	1851.02
576.745	1896.08
576.943	1957.52
577.141	1836.69
577.339	1678.99
577.537	1711.76
577.735	1703.57
577.933	1767.06
578.131	1584.79
578.329	1730.19
578.527	1613.46
578.725	1523.35
578.923	1484.44
579.121	1625.75
579.319	1513.11
579.516	1488.53
579.714	1722
579.912	1486.48
580.11	1349.27
580.308	1396.37
580.506	1306.26
580.704	1177.24
580.901	1277.59
581.099	1451.67
581.297	1324.69
581.495	1349.27
581.692	1277.59
581.89	1277.59
582.088	1408.66
582.285	1324.69
582.483	1187.48
582.681	1183.38
582.878	1156.76
583.076	1171.1
583.274	1207.96
583.471	1171.1
583.669	1126.04
583.866	1119.9
584.064	976.54
584.262	986.78
584.459	929.44
584.657	958.11
584.854	1060.51
585.052	1072.79
585.249	1044.12
585.447	970.4
585.644	816.8
585.841	1062.55
586.039	923.29
586.236	931.48
586.434	847.52
586.631	777.89
586.828	845.47
587.026	960.16
587.223	865.95
587.42	818.85
587.618	872.09
587.815	898.72
588.012	874.14
588.21	786.08
588.407	855.71
588.604	831.13
588.801	693.92
588.999	837.28
589.196	857.76
589.393	679.58
589.59	755.36
589.787	749.22
589.984	706.21
590.182	790.17
590.379	642.72
590.576	804.51
590.773	741.02
590.97	702.11
591.167	761.5
591.364	788.13
591.561	671.39
591.758	886.43
591.955	681.63
592.152	716.45
592.349	755.36
592.546	593.57
592.743	685.73
592.94	689.82
593.137	650.91
593.334	655.01
593.531	726.69
593.727	700.06
593.924	704.16
594.121	581.28
594.318	695.97
594.515	741.02
594.712	751.26
594.908	841.37
595.105	607.91
595.302	841.37
595.499	777.89
595.696	941.72
595.892	751.26
596.089	841.37
596.286	818.85
596.482	847.52
596.679	917.15
596.876	747.17
597.072	931.48
597.269	896.67
597.466	956.06
597.662	929.44
597.859	870.05
598.055	1109.66
598.252	1085.08
598.448	1162.9
598.645	1312.41
598.841	1246.87
599.038	1363.61
599.234	1379.99
599.431	1339.03
599.627	1441.43
599.824	1482.39
600.02	1552.02
600.217	1527.44
600.413	1554.07
600.609	1629.84
600.806	1992.33
601.002	1736.34
601.198	1838.73
601.395	2025.1
601.591	1914.51
601.787	2047.63
601.984	2188.94
602.18	2307.72
602.376	2285.19
602.572	2395.78
602.769	2496.13
602.965	2508.42
603.161	2598.53
603.357	2737.79
603.553	3032.7
603.75	2893.44
603.946	2922.11
604.142	3053.18
604.338	3329.66
604.534	3292.79
604.73	3348.09
604.926	3634.8
605.122	3647.09
605.318	3712.63
605.514	3954.29
605.71	3999.34
605.906	4046.44
606.102	4173.42
606.298	4384.36
606.494	4656.74
606.69	4738.66
606.886	4834.91
607.082	4755.04
607.278	5066.33
607.474	5201.5
607.67	5359.19
607.866	5344.86
608.062	5746.26
608.257	5836.37
608.453	5836.37
608.649	6133.33
608.845	6141.52
609.041	6452.81
609.236	6733.38
609.432	6735.43
609.628	6954.56
609.824	7226.94
610.019	7294.52
610.215	7534.14
610.411	7669.3
610.606	7935.54
610.802	8082.99
610.998	8390.19
611.193	8648.23
611.389	8535.59
611.584	9082.4
611.78	9225.76
611.976	9537.05
612.171	9719.32
612.367	10171.92
612.562	10139.15
612.758	10374.67
612.953	10415.63
613.149	10860.04
613.344	11097.6
613.539	11638.27
613.735	12066.29
613.93	12187.12
614.126	12152.31
614.321	12885.48
614.517	13411.81
614.712	13610.46
614.907	14079.44
615.103	14220.75
615.298	14546.38
615.493	14925.25
615.688	15125.96
615.884	16053.69
616.079	15918.52
616.274	16563.63
616.47	16754.09
616.665	17517.98
616.86	17597.85
617.055	18130.33
617.25	18724.24
617.445	19408.26
617.641	19254.66
617.836	20127.1
618.031	20215.16
618.226	20759.92
618.421	21628.26
618.616	22273.37
618.811	22310.23
619.006	23004.49
619.201	23027.02
619.396	23987.52
619.591	24180.03
619.786	25253.16
619.981	25244.97
620.176	26090.78
620.371	26637.59
620.566	27329.8
620.761	27540.74
620.956	28361.98
621.151	28536.06
621.346	29424.87
621.541	29713.64
621.735	30448.86
621.93	30698.71
622.125	31691.98
622.32	32042.18
622.515	32611.51
622.709	33053.87
622.904	33434.8
623.099	34258.08
623.294	35202.19
623.488	35357.84
623.683	36476.03
623.878	36236.42
624.072	36881.53
624.267	37684.33
624.462	38315.11
624.656	38517.85
624.851	39846.99
625.046	39619.66
625.24	40434.75
625.435	41299
625.629	41399.35
625.824	41716.78
626.018	42421.28
626.213	42038.31
626.407	43770.89
626.602	43326.49
626.796	44348.42
626.991	44628.99
627.185	44499.97
627.38	44698.62
627.574	45347.83
627.768	44979.2
627.963	45429.75
628.157	45388.79
628.352	45779.95
628.546	45263.86
628.74	45693.94
628.935	45278.2
629.129	45663.22
629.323	44938.24
629.517	44690.43
629.712	44520.45
629.906	43912.2
630.1	43533.33
630.294	43193.37
630.489	42564.64
630.683	42298.41
630.877	40461.38
631.071	40320.07
631.265	40096.84
631.459	38761.56
631.653	38046.82
631.848	36945.01
632.042	36258.95
632.236	35320.98
632.43	33811.62
632.624	33717.42
632.818	32373.95
633.012	31220.94
633.206	30108.9
633.4	29447.4
633.594	27970.82
633.788	27514.12
633.982	26238.23
634.176	25296.17
634.369	24249.66
634.563	23618.88
634.757	22527.31
634.951	22068.57
635.145	21106.02
635.339	20153.72
635.533	19328.39
635.726	18546.06
635.92	17470.88
636.114	17132.97
636.308	16227.76
636.501	15584.7
636.695	15033.8
636.889	14185.94
637.083	13665.75
637.276	13118.95
637.47	12617.19
637.664	11898.36
637.857	11726.33
638.051	11275.77
638.244	10810.89
638.438	10528.27
638.632	9975.31
638.825	9471.51
639.019	9285.15
639.212	8764.96
639.406	8429.1
639.599	8085.04
639.793	7777.84
639.986	7319.1
640.18	7315
640.373	7089.73
640.567	6596.17
640.76	6436.42
640.954	6282.83
641.147	5846.61
641.34	5643.86
641.534	5516.89
641.727	5451.35
641.92	5162.59
642.114	4933.22
642.307	4779.62
642.5	4423.27
642.694	4363.88
642.887	4136.56
643.08	3958.38
643.273	3925.61
643.467	3657.33
643.66	3599.99
643.853	3313.27
644.046	3253.88
644.239	3116.67
644.432	2989.69
644.626	2836.1
644.819	2875.01
645.012	2641.54
645.205	2643.59
645.398	2512.52
645.591	2350.73
645.784	2254.47
645.977	2098.83
646.17	2104.97
646.363	2066.06
646.556	1920.65
646.749	1814.16
646.942	1859.21
647.135	1855.12
647.328	1609.36
647.521	1650.32
647.714	1597.07
647.907	1521.3
648.099	1443.48
648.292	1353.37
648.485	1326.74
648.678	1232.54
648.871	1136.28
649.064	1144.47
649.256	1185.43
649.449	1119.9
649.642	988.83
649.835	1015.45
650.027	954.01
650.22	1048.22
650.413	1054.36
650.605	982.68
650.798	863.9
650.991	741.02
651.183	796.32
651.376	876.19
651.568	824.99
651.761	708.26
651.954	798.37
652.146	755.36
652.339	829.09
652.531	669.34
652.724	628.39
652.916	564.9
653.109	503.46
653.301	677.54
653.494	589.47
653.686	540.32
653.879	675.49
654.071	568.99
654.263	534.18
654.456	464.55
654.648	456.36
654.84	505.51
655.033	425.64
655.225	546.47
655.417	237.22
655.61	560.8
655.802	429.73
655.994	544.42
656.186	292.52
656.379	532.13
656.571	313
656.763	394.92
656.955	290.47
657.148	333.48
657.34	382.63
657.532	310.95
657.724	317.09
657.916	304.81
658.108	374.44
658.3	313
658.492	319.14
658.684	200.36
658.876	331.43
659.068	155.3
659.26	212.65
659.452	245.41
659.644	325.29
659.836	380.58
660.028	208.55
660.22	251.56
660.412	218.79
660.604	229.03
660.796	255.65
660.988	306.85
661.18	280.23
661.372	224.94
661.563	243.37
661.755	224.94
661.947	149.16
662.139	120.49
662.331	190.12
662.522	157.35
662.714	171.69
662.906	177.83
663.097	67.24
663.289	134.82
663.481	57
663.673	198.31
663.864	204.46
664.056	231.08
664.247	138.92
664.439	224.94
664.631	130.73
664.822	136.87
665.014	147.11
665.205	16.04
665.397	59.05
665.588	104.11
665.78	112.3
665.971	151.21
666.163	130.73
666.354	173.74
666.546	63.15
666.737	120.49
666.929	83.63
667.12	186.02
667.311	132.78
667.503	130.73
667.694	145.06
667.885	190.12
668.077	161.45
668.268	65.19
668.459	114.34
668.651	136.87
668.842	46.76
669.033	130.73
669.224	52.91
669.416	255.65
669.607	95.91
669.798	-6.49
669.989	249.51
670.18	85.67
670.371	143.02
670.563	38.57
670.754	163.5
670.945	95.91
671.136	91.82
671.327	83.63
671.518	114.34
671.709	241.32
671.9	198.31
672.091	183.98
672.282	116.39
672.473	28.33
672.664	67.24
672.855	100.01
673.046	183.98
673.237	128.68
673.428	102.06
673.619	173.74
673.809	57
674	247.46
674.191	179.88
674.382	93.87
674.573	110.25
674.764	97.96
674.954	177.83
675.145	87.72
675.336	34.47
675.527	134.82
675.717	24.23
675.908	67.24
676.099	38.57
676.289	93.87
676.48	-0.34
676.671	134.82
676.861	87.72
677.052	63.15
677.243	97.96
677.433	-0.34
677.624	112.3
677.814	77.48
678.005	112.3
678.195	200.36
678.386	38.57
678.576	161.45
678.767	52.91
678.957	130.73
679.148	102.06
679.338	194.22
679.529	159.4
679.719	114.34
679.909	190.12
680.1	206.5
680.29	138.92
680.481	16.04
680.671	138.92
680.861	188.07
681.052	128.68
681.242	38.57
681.432	243.37
681.622	157.35
681.813	38.57
682.003	91.82
682.193	77.48
682.383	132.78
682.573	71.34
682.764	143.02
682.954	91.82
683.144	241.32
683.334	83.63
683.524	183.98
683.714	140.97
683.904	202.41
684.094	126.63
684.284	173.74
684.474	218.79
684.664	206.5
684.854	100.01
685.044	245.41
685.234	83.63
685.424	237.22
685.614	54.95
685.804	188.07
685.994	216.74
686.184	143.02
686.374	153.26
686.564	186.02
686.753	128.68
686.943	16.04
687.133	104.11
687.323	83.63
687.513	192.17
687.702	79.53
687.892	110.25
688.082	173.74
688.272	210.6
688.461	161.45
688.651	245.41
688.841	145.06
689.03	163.5
689.22	143.02
689.41	235.18
689.599	226.98
689.789	97.96
689.979	345.77
690.168	85.67
690.358	229.03
690.547	149.16
690.737	186.02
690.926	198.31
691.116	181.93
691.305	210.6
691.495	169.64
691.684	108.2
691.874	97.96
692.063	122.54
692.252	196.26
692.442	179.88
692.631	114.34
692.82	134.82
693.01	196.26
693.199	87.72
693.388	190.12
693.578	61.1
693.767	169.64
693.956	212.65
694.146	192.17
694.335	220.84
694.524	155.3
694.713	212.65
694.902	65.19
695.092	124.58
695.281	138.92
695.47	161.45
695.659	126.63
695.848	128.68
696.037	79.53
696.226	194.22
696.415	138.92
696.604	222.89
696.793	212.65
696.982	81.58
697.171	284.33
697.36	151.21
697.549	54.95
697.738	40.62
697.927	91.82
698.116	97.96
698.305	233.13
698.494	126.63
698.683	130.73
698.872	329.38
699.061	126.63
699.25	186.02
699.438	157.35
699.627	147.11
699.816	265.89
700.005	-10.58
700.193	87.72
700.382	196.26
700.571	143.02
700.76	165.54
700.948	196.26
701.137	190.12
701.326	145.06
701.514	26.28
701.703	163.5
701.892	118.44
702.08	333.48
702.269	169.64
702.457	69.29
702.646	153.26
702.834	28.33
703.023	190.12
703.212	192.17
703.4	181.93
703.589	110.25
703.777	40.62
703.965	93.87
704.154	120.49
704.342	65.19
704.531	85.67
704.719	169.64
704.907	251.56
705.096	75.43
705.284	134.82
705.472	194.22
705.661	145.06
705.849	222.89
706.037	274.09
706.226	181.93
706.414	120.49
706.602	108.2
706.79	179.88
706.979	59.05
707.167	218.79
707.355	-22.87
707.543	224.94
707.731	196.26
707.919	114.34
708.107	132.78
708.296	63.15
708.484	202.41
708.672	196.26
708.86	155.3
709.048	114.34
709.236	69.29
709.424	128.68
709.612	243.37
709.8	5.8
709.988	138.92
710.176	177.83
710.364	294.57
710.551	124.58
710.739	192.17
710.927	110.25
711.115	163.5
711.303	214.7
711.491	208.55
711.679	91.82
711.866	233.13
712.054	108.2
712.242	175.78
712.43	210.6
712.617	83.63
712.805	181.93
712.993	114.34
713.181	22.19
713.368	177.83
713.556	143.02
713.744	118.44
713.931	335.53
714.119	167.59
714.306	155.3
714.494	140.97
714.682	179.88
714.869	106.15
715.057	192.17
715.244	42.67
715.432	235.18
715.619	132.78
715.807	104.11
715.994	71.34
716.182	151.21
716.369	239.27
716.556	186.02
716.744	38.57
716.931	118.44
717.119	198.31
717.306	145.06
717.493	247.46
717.681	52.91
717.868	140.97
718.055	159.4
718.242	112.3
718.43	132.78
718.617	267.94
718.804	186.02
718.991	276.13
719.179	167.59
719.366	143.02
719.553	249.51
719.74	181.93
719.927	202.41
720.114	147.11
720.301	67.24
720.488	108.2
720.676	52.91
720.863	235.18
721.05	286.37
721.237	216.74
721.424	161.45
721.611	212.65
721.798	57
721.985	169.64
722.172	163.5
722.358	130.73
722.545	239.27
722.732	181.93
722.919	302.76
723.106	198.31
723.293	190.12
723.48	114.34
723.667	110.25
723.853	290.47
724.04	235.18
724.227	239.27
724.414	151.21
724.6	149.16
724.787	274.09
724.974	276.13
725.161	153.26
725.347	159.4
725.534	106.15
725.72	192.17
725.907	206.5
726.094	198.31
726.28	91.82
726.467	198.31
726.653	132.78
726.84	261.8
727.027	337.57
727.213	210.6
727.4	165.54
727.586	210.6
727.773	145.06
727.959	116.39
728.145	224.94
728.332	155.3
728.518	149.16
728.705	229.03
728.891	153.26
729.077	241.32
729.264	120.49
729.45	196.26
729.636	194.22
729.823	269.99
730.009	212.65
730.195	249.51
730.382	229.03
730.568	134.82
730.754	247.46
730.94	179.88
731.126	169.64
731.313	265.89
731.499	245.41
731.685	194.22
731.871	261.8
732.057	210.6
732.243	315.05
732.429	261.8
732.615	345.77
732.801	255.65
732.987	169.64
733.173	177.83
733.359	175.78
733.545	235.18
733.731	118.44
733.917	278.18
734.103	218.79
734.289	284.33
734.475	126.63
734.661	370.34
734.847	200.36
735.033	190.12
735.219	337.57
735.404	237.22
735.59	190.12
735.776	169.64
735.962	149.16
736.148	265.89
736.333	186.02
736.519	194.22
736.705	220.84
736.89	206.5
737.076	190.12
737.262	132.78
737.447	108.2
737.633	216.74
737.819	280.23
738.004	165.54
738.19	128.68
738.375	235.18
738.561	233.13
738.747	155.3
738.932	130.73
739.118	308.9
739.303	255.65
739.489	243.37
739.674	89.77
739.859	54.95
740.045	175.78
740.23	143.02
740.416	18.09
740.601	89.77
740.786	239.27
740.972	140.97
741.157	206.5
741.342	91.82
741.528	136.87
741.713	278.18
741.898	81.58
742.084	179.88
742.269	212.65
742.454	196.26
742.639	220.84
742.824	194.22
743.01	214.7
743.195	327.33
743.38	155.3
743.565	159.4
743.75	179.88
743.935	284.33
744.12	288.42
744.305	147.11
744.49	147.11
744.675	186.02
744.86	163.5
745.045	167.59
745.23	220.84
745.415	243.37
745.6	364.2
745.785	122.54
745.97	194.22
746.155	233.13
746.34	239.27
746.525	181.93
746.71	280.23
746.895	186.02
747.079	102.06
747.264	140.97
747.449	179.88
747.634	255.65
747.819	233.13
748.003	181.93
748.188	155.3
748.373	204.46
748.557	235.18
748.742	204.46
748.927	163.5
749.111	104.11
749.296	91.82
749.481	188.07
749.665	149.16
749.85	52.91
750.034	155.3
750.219	220.84
750.404	122.54
750.588	210.6
750.773	95.91
750.957	179.88
751.141	140.97
751.326	210.6
751.51	124.58
751.695	157.35
751.879	202.41
752.064	196.26
752.248	126.63
752.432	181.93
752.617	231.08
752.801	177.83
752.985	165.54
753.17	186.02
753.354	108.2
753.538	118.44
753.722	71.34
753.907	124.58
754.091	52.91
754.275	153.26
754.459	11.95
754.643	167.59
754.828	169.64
755.012	169.64
755.196	83.63
755.38	175.78
755.564	112.3
755.748	130.73
755.932	126.63
756.116	247.46
756.3	112.3
756.484	1.71
756.668	130.73
756.852	42.67
757.036	128.68
757.22	104.11
757.404	11.95
757.588	69.29
757.772	251.56
757.956	120.49
758.14	255.65
758.323	130.73
758.507	231.08
758.691	151.21
758.875	194.22
759.059	218.79
759.242	71.34
759.426	110.25
759.61	134.82
759.794	59.05
759.977	145.06
760.161	251.56
760.345	179.88
760.528	163.5
760.712	116.39
760.895	50.86
761.079	110.25
761.263	26.28
761.446	40.62
761.63	79.53
761.813	218.79
761.997	54.95
762.18	32.43
762.364	71.34
762.547	-35.16
762.731	87.72
762.914	85.67
763.098	77.48
763.281	42.67
763.464	114.34
763.648	79.53
763.831	28.33
764.015	30.38
764.198	136.87
764.381	1.71
764.564	93.87
764.748	140.97
764.931	130.73
765.114	91.82
765.297	192.17
765.481	-39.25
765.664	5.8
765.847	42.67
766.03	198.31
766.213	9.9
766.397	79.53
766.58	42.67
766.763	261.8
766.946	-31.06
767.129	22.19
767.312	-10.58
767.495	38.57
767.678	48.81
767.861	65.19
768.044	28.33
768.227	63.15
768.41	95.91
768.593	24.23
768.776	106.15
768.959	61.1
769.142	173.74
769.324	118.44
769.507	126.63
769.69	1.71
769.873	20.14
770.056	231.08
770.239	87.72
770.421	186.02
770.604	-22.87
770.787	67.24
770.97	112.3
771.152	89.77
771.335	97.96
771.518	-0.34
771.7	75.43
771.883	159.4
772.066	13.99
772.248	167.59
772.431	83.63
772.613	69.29
772.796	-6.49
772.978	54.95
773.161	112.3
773.343	32.43
773.526	3.75
773.708	22.19
773.891	-47.44
774.073	79.53
774.256	46.76
774.438	128.68
774.621	40.62
774.803	57
774.985	32.43
775.168	52.91
775.35	67.24
775.532	106.15
775.715	-72.02
775.897	108.2
776.079	61.1
776.261	81.58
776.444	7.85
776.626	114.34
776.808	63.15
776.99	-4.44
777.173	9.9
777.355	-24.92
777.537	-45.4
777.719	28.33
777.901	16.04
778.083	-8.53
778.265	22.19
778.447	83.63
778.629	26.28
778.811	48.81
778.993	97.96
779.175	89.77
779.357	57
779.539	11.95
779.721	-8.53
779.903	104.11
780.085	34.47
780.267	5.8
780.449	36.52
780.631	65.19
780.812	140.97
780.994	57
781.176	3.75
781.358	-31.06
781.54	61.1
781.721	75.43
781.903	112.3
782.085	-18.77
782.267	95.91
782.448	-82.26
782.63	1.71
782.812	5.8
782.993	54.95
783.175	71.34
783.357	-39.25
783.538	63.15
783.72	-65.88
783.901	-43.35
784.083	124.58
784.264	110.25
784.446	-45.4
784.627	-14.68
784.809	59.05
784.99	-29.01
785.172	52.91
785.353	69.29
785.535	34.47
785.716	-72.02
785.897	-8.53
786.079	112.3
786.26	57
786.441	153.26
786.623	-100.69
786.804	-14.68
786.985	57
787.167	1.71
787.348	-31.06
787.529	-49.49
787.71	169.64
787.891	79.53
788.073	26.28
788.254	-61.78
788.435	130.73
788.616	67.24
788.797	-18.77
788.978	-29.01
789.159	-49.49
789.34	-10.58
789.522	1.71
789.703	42.67
789.884	-22.87
790.065	57
790.246	124.58
790.427	7.85
790.607	102.06
790.788	79.53
790.969	-12.63
791.15	44.71
791.331	-0.34
791.512	75.43
791.693	-51.54
791.874	-37.2
792.054	186.02
792.235	42.67
792.416	-51.54
792.597	36.52
792.778	22.19
792.958	38.57
793.139	5.8
793.32	-22.87
793.5	-55.64
793.681	40.62
793.862	-6.49
794.042	13.99
794.223	-168.27
794.404	7.85
794.584	-45.4
794.765	9.9
794.945	3.75
795.126	26.28
795.306	134.82
795.487	-6.49
795.667	-39.25
795.848	-22.87
796.028	16.04
796.209	18.09
796.389	61.1
796.57	-12.63
796.75	-20.82
796.93	24.23
797.111	-31.06
797.291	-22.87
797.471	95.91
797.652	-22.87
797.832	-26.96
798.012	87.72
798.192	87.72
798.373	-6.49
798.553	7.85
798.733	22.19
798.913	-12.63
799.093	-53.59
799.274	7.85
799.454	38.57
799.634	91.82
799.814	44.71
799.994	42.67
800.174	106.15
800.354	-72.02
800.534	-86.36
800.714	38.57
800.894	-35.16
801.074	-84.31
801.254	-10.58
801.434	61.1
801.614	3.75
801.794	-104.79
801.974	1975.95
802.154	-49.49
802.334	110.25
802.514	-67.92
802.693	-47.44
802.873	9.9
803.053	91.82
803.233	36.52
803.413	-16.73
803.592	-55.64
803.772	48.81
803.952	-14.68
804.131	-74.07
804.311	57
804.491	118.44
804.67	5.8
804.85	-74.07
805.03	3.75
805.209	57
805.389	18.09
805.568	-55.64
805.748	-6.49
805.928	26.28
806.107	50.86
806.287	138.92
806.466	-39.25
806.646	-22.87
806.825	-72.02
807.004	-37.2
807.184	104.11
807.363	30.38
807.543	-29.01
807.722	-69.97
807.901	126.63
808.081	36.52
808.26	-57.68
808.439	-43.35
808.619	-12.63
808.798	-102.74
808.977	52.91
809.156	85.67
809.336	5.8
809.515	102.06
809.694	-82.26
809.873	-20.82
810.052	63.15
810.231	83.63
810.411	104.11
810.59	28.33
810.769	-20.82
810.948	79.53
811.127	-129.36
811.306	63.15
811.485	-47.44
811.664	61.1
811.843	138.92
812.022	-16.73
812.201	46.76
812.38	-24.92
812.559	-82.26
812.737	91.82
812.916	-63.83
813.095	-45.4
813.274	48.81
813.453	-67.92
813.632	57
813.811	108.2
813.989	-20.82
814.168	52.91
814.347	11.95
814.526	-41.3
814.704	128.68
814.883	93.87
815.062	-125.27
815.24	18.09
815.419	-104.79
815.598	81.58
815.776	-8.53
815.955	3.75
816.133	-78.16
816.312	-12.63
816.49	-106.84
816.669	18.09
816.847	-31.06
817.026	-16.73
817.204	11.95
817.383	-18.77
817.561	-22.87
817.74	95.91
817.918	38.57
818.097	1.71
818.275	-92.5
818.453	-37.2
818.632	81.58
818.81	-37.2
818.988	-74.07
819.167	-39.25
819.345	-0.34
819.523	-24.92
819.701	13.99
819.879	79.53
820.058	16.04
820.236	57
820.414	-43.35
820.592	-26.96
820.77	-55.64
820.948	-26.96
821.127	-63.83
821.305	5.8
821.483	-0.34
821.661	106.15
821.839	13.99
822.017	-61.78
822.195	-33.11
822.373	7.85
822.551	-18.77
822.729	18.09
822.907	-57.68
823.085	52.91
823.262	-35.16
823.44	-94.55
823.618	-43.35
823.796	-18.77
823.974	-104.79
824.152	-117.08
824.329	-110.93
824.507	5.8
824.685	38.57
824.863	-10.58
825.04	-33.11
825.218	30.38
825.396	32.43
825.574	16.04
825.751	-22.87
825.929	36.52
826.107	-102.74
826.284	46.76
826.462	18.09
826.639	-41.3
826.817	-37.2
826.994	26.28
827.172	-55.64
827.349	79.53
827.527	26.28
827.704	18.09
827.882	36.52
828.059	-31.06
828.237	-29.01
828.414	100.01
828.591	-127.32
828.769	18.09
828.946	32.43
829.124	28.33
829.301	34.47
829.478	-65.88
829.655	57
829.833	5.8
830.01	-84.31
830.187	5.8
830.364	22.19
830.542	-31.06
830.719	52.91
830.896	11.95
831.073	16.04
831.25	97.96
831.427	102.06
831.604	52.91
831.782	-108.88
831.959	73.39
832.136	-41.3
832.313	16.04
832.49	-33.11
832.667	-10.58
832.844	-0.34
833.021	69.29
833.198	30.38
833.374	7.85
833.551	1.71
833.728	-31.06
833.905	106.15
834.082	-133.46
834.259	42.67
834.436	26.28
834.612	-35.16
834.789	52.91
834.966	38.57
835.143	20.14
835.319	-69.97
835.496	91.82
835.673	85.67
835.85	63.15
836.026	89.77
836.203	85.67
836.38	-63.83
836.556	-6.49
836.733	-112.98
836.909	153.26
837.086	-33.11
837.262	-108.88
837.439	-12.63
837.616	-20.82
837.792	1.71
837.968	-20.82
838.145	-141.65
838.321	-8.53
838.498	16.04
838.674	7.85
838.851	30.38
839.027	-104.79
839.203	42.67
839.38	9.9
839.556	-22.87
839.732	46.76
839.909	-8.53
840.085	26.28
840.261	-14.68
840.437	61.1
840.614	-39.25
840.79	13.99
840.966	63.15
841.142	-92.5
841.318	34.47
841.494	89.77
841.671	108.2
841.847	-88.4
842.023	-22.87
842.199	5.8
842.375	46.76
842.551	-84.31
842.727	-102.74
842.903	126.63
843.079	-94.55
843.255	48.81
843.431	-35.16
843.607	11.95
843.783	-137.56
843.959	95.91
844.134	-90.45
844.31	73.39
844.486	-43.35
844.662	-88.4
844.838	-16.73
845.013	-41.3
845.189	97.96
845.365	93.87
845.541	9.9
845.716	-39.25
845.892	22.19
846.068	3.75
846.244	-84.31
846.419	-65.88
846.595	-94.55
846.77	24.23
846.946	83.63
847.122	-37.2
847.297	-63.83
847.473	106.15
847.648	-59.73
847.824	59.05
847.999	-115.03
848.175	-108.88
848.35	34.47
848.526	54.95
848.701	71.34
848.876	75.43
849.052	104.11
849.227	-33.11
849.403	-18.77
849.578	-0.34
849.753	-26.96
849.929	16.04
850.104	-88.4
850.279	-12.63
850.454	-12.63
850.63	13.99
850.805	59.05
850.98	44.71
851.155	3.75
851.33	-22.87
851.505	-61.78
851.681	93.87
851.856	-33.11
852.031	38.57
852.206	28.33
852.381	-166.23
852.556	-51.54
852.731	-4.44
852.906	7.85
853.081	48.81
853.256	95.91
853.431	-53.59
853.606	-59.73
853.781	-57.68
853.956	-43.35
854.131	48.81
854.305	-82.26
854.48	-51.54
854.655	-49.49
854.83	-59.73
855.005	-47.44
855.18	20.14
855.354	-16.73
855.529	20.14
855.704	16.04
855.879	50.86
856.053	-45.4
856.228	1.71
856.403	-43.35
856.577	11.95
856.752	-59.73
856.926	36.52
857.101	-24.92
857.276	-53.59
857.45	5.8
857.625	11.95
857.799	-31.06
857.974	67.24
858.148	-155.99
858.323	26.28
858.497	-0.34
858.672	-39.25
858.846	-102.74
859.02	1.71
859.195	-14.68
859.369	-106.84
859.543	-14.68
859.718	18.09
859.892	-22.87
860.066	11.95
860.241	-10.58
860.415	-10.58
860.589	11.95
860.763	-8.53
860.938	-6.49
861.112	28.33
861.286	-72.02
861.46	30.38
861.634	28.33
861.808	22.19
861.982	-63.83
862.157	-94.55
862.331	-45.4
862.505	-127.32
862.679	-43.35
862.853	-47.44
863.027	-18.77
863.201	89.77
863.375	-16.73
863.549	11.95
863.722	-80.21
863.896	42.67
864.07	5.8
864.244	38.57
864.418	28.33
864.592	-0.34
864.766	5.8
864.939	-26.96
865.113	-84.31
865.287	61.1
865.461	-43.35
865.634	-18.77
865.808	-67.92
865.982	-112.98
866.156	-139.6
866.329	-76.12
866.503	-22.87
866.676	38.57
866.85	-14.68
867.024	-94.55
867.197	22.19
867.371	42.67
867.544	42.67
867.718	-108.88
867.891	46.76
868.065	-16.73
868.238	-12.63
868.412	28.33
868.585	16.04
868.759	-33.11
868.932	-39.25
869.105	-112.98
869.279	-39.25
869.452	-69.97
869.625	65.19
869.799	-31.06
869.972	-69.97
870.145	26.28
870.319	100.01
870.492	-47.44
870.665	-14.68
870.838	7.85
871.011	-145.75
871.185	-29.01
871.358	-37.2
871.531	1.71
871.704	-78.16
871.877	7.85
872.05	-22.87
872.223	-67.92
872.396	73.39
872.569	69.29
872.742	-33.11
872.915	-102.74
873.088	-31.06
873.261	-84.31
873.434	44.71
873.607	-33.11
873.78	44.71
873.953	-94.55
874.126	50.86
874.299	61.1
874.471	-29.01
874.644	-84.31
874.817	-33.11
874.99	95.91
875.163	-110.93
875.335	7.85
875.508	-55.64
875.681	69.29
875.853	-96.6
876.026	-4.44
876.199	11.95
876.371	77.48
876.544	-84.31
876.717	40.62
876.889	-26.96
877.062	9.9
877.234	-98.64
877.407	-108.88
877.579	-31.06
877.752	-55.64
877.924	-26.96
878.097	16.04
878.269	5.8
878.442	54.95
878.614	22.19
878.786	-24.92
878.959	-8.53
879.131	-10.58
879.303	-133.46
879.476	-39.25
879.648	69.29
879.82	1.71
879.993	-18.77
880.165	-31.06
880.337	-180.56
880.509	1.71
880.681	-108.88
880.854	-26.96
881.026	34.47
881.198	112.3
881.37	-63.83
881.542	-55.64
881.714	-72.02
881.886	24.23
882.058	-72.02
882.23	-6.49
882.402	-20.82
882.574	9.9
882.746	38.57
882.918	63.15
883.09	-24.92
883.262	-49.49
883.434	-31.06
883.606	-63.83
883.778	-0.34
883.95	32.43
884.122	-20.82
884.293	38.57
884.465	-47.44
884.637	16.04
884.809	-22.87
884.98	44.71
885.152	-4.44
885.324	54.95
885.496	-88.4
885.667	-6.49
885.839	-29.01
886.011	16.04
886.182	32.43
886.354	38.57
886.525	-69.97
886.697	24.23
886.869	-143.7
887.04	-94.55
887.212	181.93
887.383	85.67
887.555	-55.64
887.726	-51.54
887.897	-49.49
888.069	-115.03
888.24	93.87
888.412	-51.54
888.583	18.09
888.754	-43.35
888.926	-129.36
889.097	-20.82
889.268	-90.45
889.44	71.34
889.611	-76.12
889.782	-67.92
889.953	-63.83
890.125	63.15
890.296	-108.88
890.467	-76.12
890.638	-14.68
890.809	44.71
890.98	-0.34
891.151	-22.87
891.323	124.58
891.494	-20.82
891.665	-18.77
891.836	22.19
892.007	20.14
892.178	5.8
892.349	28.33
892.52	-2.39
892.691	16.04
892.862	-57.68
893.032	-115.03
893.203	-57.68
893.374	-8.53
893.545	130.73
893.716	-4.44
893.887	54.95
894.057	-63.83
894.228	20.14
894.399	-31.06
894.57	13.99
894.74	-14.68
894.911	-10.58
895.082	-16.73
895.253	-69.97
895.423	-31.06
895.594	50.86
895.764	7.85
895.935	-57.68
896.106	9.9
896.276	-22.87
896.447	32.43
896.617	-129.36
896.788	-63.83
896.958	-51.54
897.129	-35.16
897.299	-86.36
897.47	106.15
897.64	65.19
897.81	-51.54
897.981	3.75
898.151	-20.82
898.322	3.75
898.492	42.67
898.662	-67.92
898.832	-88.4
899.003	-92.5
899.173	22.19
899.343	-115.03
899.513	-84.31
