Data from USB4F104151__21__10-41-59-486.txt Node

Date: Wed Feb 26 10:41:59 EST 2025
User: louis
Spectrometer: USB4F10415
Trigger mode: 4
Integration Time (sec): 1.000000E-1
Scans to average: 1
Electric dark correction enabled: true
Nonlinearity correction enabled: false
Boxcar width: 0
XAxis mode: Wavelengths
Number of Pixels in Spectrum: 3648
>>>>>Begin Spectral Data<<<<<
178.204	-444.58
178.424	-444.58
178.644	-444.58
178.864	-348.33
179.084	-356.52
179.304	-45.23
179.524	10.07
179.744	-2.22
179.964	69.46
180.184	46.93
180.404	57.17
180.624	-49.32
180.844	1.88
181.064	-110.76
181.283	8.02
181.503	-22.7
181.723	36.69
181.943	-86.19
182.163	135
182.383	10.07
182.602	40.79
182.822	178
183.042	69.46
183.262	65.36
183.482	-2.22
183.701	30.55
183.921	81.75
184.141	-73.9
184.361	141.14
184.58	75.6
184.8	87.89
185.02	-69.8
185.239	167.76
185.459	83.8
185.679	132.95
185.898	-59.56
186.118	116.56
186.338	53.08
186.557	128.85
186.777	-47.27
186.997	38.74
187.216	32.6
187.436	161.62
187.655	69.46
187.875	75.6
188.095	89.94
188.314	169.81
188.534	87.89
188.753	-65.71
188.973	173.91
189.192	116.56
189.412	-0.17
189.631	20.31
189.851	77.65
190.07	214.87
190.29	-24.75
190.509	-28.84
190.729	67.41
190.948	190.29
191.168	245.59
191.387	16.21
191.607	59.22
191.826	44.88
192.045	38.74
192.265	16.21
192.484	48.98
192.704	-10.41
192.923	-77.99
193.142	149.33
193.362	55.12
193.581	165.71
193.8	73.56
194.02	100.18
194.239	42.84
194.458	94.04
194.678	38.74
194.897	10.07
195.116	116.56
195.335	18.26
195.555	40.79
195.774	-0.17
195.993	139.09
196.212	128.85
196.432	-32.94
196.651	85.84
196.87	12.12
197.089	241.49
197.308	34.64
197.528	53.08
197.747	3.93
197.966	24.4
198.185	132.95
198.404	-24.75
198.623	163.67
198.842	91.99
199.062	110.42
199.281	184.15
199.5	100.18
199.719	130.9
199.938	24.4
200.157	94.04
200.376	153.43
200.595	255.83
200.814	91.99
201.033	-63.66
201.252	151.38
201.471	3.93
201.69	46.93
201.909	61.27
202.128	94.04
202.347	87.89
202.566	-8.36
202.785	-16.55
203.004	30.55
203.223	241.49
203.442	34.64
203.661	-37.03
203.879	96.08
204.098	67.41
204.317	-47.27
204.536	59.22
204.755	73.56
204.974	100.18
205.193	12.12
205.411	120.66
205.63	75.6
205.849	75.6
206.068	22.36
206.287	-37.03
206.505	194.39
206.724	69.46
206.943	14.17
207.162	20.31
207.381	69.46
207.599	57.17
207.818	-8.36
208.037	-8.36
208.255	32.6
208.474	12.12
208.693	89.94
208.911	26.45
209.13	91.99
209.349	85.84
209.567	67.41
209.786	69.46
210.005	28.5
210.223	-37.03
210.442	-100.52
210.661	20.31
210.879	130.9
211.098	38.74
211.316	24.4
211.535	46.93
211.753	112.47
211.972	75.6
212.191	57.17
212.409	106.32
212.628	124.76
212.846	-18.6
213.065	55.12
213.283	116.56
213.502	44.88
213.72	51.03
213.938	10.07
214.157	18.26
214.375	137.04
214.594	28.5
214.812	128.85
215.031	30.55
215.249	75.6
215.467	61.27
215.686	14.17
215.904	96.08
216.122	34.64
216.341	171.86
216.559	59.22
216.778	91.99
216.996	206.67
217.214	-24.75
217.432	12.12
217.651	-30.89
217.869	55.12
218.087	-8.36
218.306	-0.17
218.524	79.7
218.742	44.88
218.96	104.28
219.179	12.12
219.397	22.36
219.615	208.72
219.833	61.27
220.051	-28.84
220.27	77.65
220.488	36.69
220.706	65.36
220.924	1.88
221.142	28.5
221.36	55.12
221.578	67.41
221.796	-16.55
222.015	44.88
222.233	94.04
222.451	171.86
222.669	-28.84
222.887	124.76
223.105	-10.41
223.323	38.74
223.541	22.36
223.759	67.41
223.977	139.09
224.195	89.94
224.413	44.88
224.631	32.6
224.849	26.45
225.067	286.54
225.285	-14.51
225.503	34.64
225.721	-145.58
225.939	40.79
226.157	32.6
226.375	200.53
226.592	-45.23
226.81	22.36
227.028	171.86
227.246	118.61
227.464	59.22
227.682	163.67
227.9	51.03
228.117	122.71
228.335	77.65
228.553	44.88
228.771	102.23
228.989	75.6
229.206	18.26
229.424	77.65
229.642	14.17
229.86	-2.22
230.077	108.37
230.295	83.8
230.513	175.95
230.731	110.42
230.948	171.86
231.166	196.43
231.384	8.02
231.601	24.4
231.819	141.14
232.037	-24.75
232.254	-39.08
232.472	16.21
232.689	-26.79
232.907	89.94
233.125	-28.84
233.342	38.74
233.56	-2.22
233.777	-18.6
233.995	104.28
234.213	48.98
234.43	124.76
234.648	28.5
234.865	108.37
235.083	-26.79
235.3	53.08
235.518	139.09
235.735	116.56
235.953	81.75
236.17	53.08
236.388	-8.36
236.605	100.18
236.822	114.52
237.04	114.52
237.257	18.26
237.475	-45.23
237.692	18.26
237.909	46.93
238.127	-4.27
238.344	22.36
238.562	30.55
238.779	-49.32
238.996	-67.75
239.214	40.79
239.431	34.64
239.648	98.13
239.865	24.4
240.083	30.55
240.3	16.21
240.517	3.93
240.735	32.6
240.952	110.42
241.169	12.12
241.386	104.28
241.603	98.13
241.821	-75.95
242.038	87.89
242.255	120.66
242.472	-67.75
242.689	55.12
242.907	-0.17
243.124	24.4
243.341	51.03
243.558	-20.65
243.775	-53.42
243.992	-65.71
244.209	55.12
244.426	178
244.643	102.23
244.86	34.64
245.078	120.66
245.295	34.64
245.512	8.02
245.729	85.84
245.946	79.7
246.163	102.23
246.38	-0.17
246.597	65.36
246.814	55.12
247.031	40.79
247.248	94.04
247.464	100.18
247.681	44.88
247.898	18.26
248.115	40.79
248.332	10.07
248.549	169.81
248.766	126.8
248.983	85.84
249.2	55.12
249.417	128.85
249.633	-2.22
249.85	139.09
250.067	71.51
250.284	71.51
250.501	53.08
250.717	130.9
250.934	3.93
251.151	-45.23
251.368	77.65
251.585	85.84
251.801	57.17
252.018	-37.03
252.235	112.47
252.451	-6.31
252.668	40.79
252.885	112.47
253.102	57.17
253.318	-16.55
253.535	32.6
253.752	-12.46
253.968	28.5
254.185	-49.32
254.401	16.21
254.618	79.7
254.835	12.12
255.051	73.56
255.268	149.33
255.484	40.79
255.701	-16.55
255.917	46.93
256.134	-45.23
256.351	59.22
256.567	-77.99
256.784	22.36
257	-77.99
257.217	159.57
257.433	89.94
257.65	75.6
257.866	145.24
258.082	-28.84
258.299	-20.65
258.515	61.27
258.732	-51.37
258.948	-22.7
259.165	55.12
259.381	-12.46
259.597	63.32
259.814	40.79
260.03	38.74
260.246	63.32
260.463	141.14
260.679	85.84
260.895	20.31
261.112	28.5
261.328	100.18
261.544	-34.99
261.761	184.15
261.977	46.93
262.193	-86.19
262.409	171.86
262.626	71.51
262.842	-32.94
263.058	8.02
263.274	153.43
263.49	40.79
263.707	100.18
263.923	77.65
264.139	-18.6
264.355	81.75
264.571	116.56
264.787	122.71
265.004	85.84
265.22	102.23
265.436	-45.23
265.652	5.97
265.868	100.18
266.084	14.17
266.3	16.21
266.516	-32.94
266.732	106.32
266.948	83.8
267.164	55.12
267.38	122.71
267.596	104.28
267.812	163.67
268.028	30.55
268.244	-71.85
268.46	34.64
268.676	-45.23
268.892	85.84
269.108	18.26
269.324	-18.6
269.54	-45.23
269.756	169.81
269.972	-26.79
270.188	-26.79
270.403	-86.19
270.619	100.18
270.835	32.6
271.051	20.31
271.267	55.12
271.483	81.75
271.698	100.18
271.914	114.52
272.13	114.52
272.346	-0.17
272.562	-22.7
272.777	94.04
272.993	1.88
273.209	-59.56
273.425	153.43
273.64	-61.61
273.856	51.03
274.072	26.45
274.287	-34.99
274.503	108.37
274.719	59.22
274.934	-2.22
275.15	-75.95
275.366	32.6
275.581	36.69
275.797	14.17
276.012	87.89
276.228	-8.36
276.444	20.31
276.659	139.09
276.875	3.93
277.09	-18.6
277.306	24.4
277.521	112.47
277.737	67.41
277.952	67.41
278.168	69.46
278.383	77.65
278.599	71.51
278.814	5.97
279.03	-32.94
279.245	151.38
279.461	120.66
279.676	120.66
279.892	-16.55
280.107	-65.71
280.322	44.88
280.538	36.69
280.753	-57.51
280.969	89.94
281.184	42.84
281.399	147.28
281.615	14.17
281.83	61.27
282.045	-73.9
282.26	-18.6
282.476	24.4
282.691	83.8
282.906	3.93
283.122	53.08
283.337	-6.31
283.552	38.74
283.767	3.93
283.983	85.84
284.198	59.22
284.413	102.23
284.628	-28.84
284.843	59.22
285.058	69.46
285.274	65.36
285.489	-45.23
285.704	120.66
285.919	-39.08
286.134	30.55
286.349	48.98
286.564	53.08
286.779	91.99
286.995	-12.46
287.21	-65.71
287.425	85.84
287.64	-20.65
287.855	73.56
288.07	-16.55
288.285	137.04
288.5	110.42
288.715	53.08
288.93	-4.27
289.145	-22.7
289.36	124.76
289.575	-12.46
289.79	171.86
290.004	-20.65
290.219	169.81
290.434	-10.41
290.649	34.64
290.864	-4.27
291.079	57.17
291.294	40.79
291.509	132.95
291.724	24.4
291.938	32.6
292.153	132.95
292.368	57.17
292.583	102.23
292.798	108.37
293.012	104.28
293.227	81.75
293.442	104.28
293.657	79.7
293.871	139.09
294.086	18.26
294.301	132.95
294.516	98.13
294.73	65.36
294.945	-47.27
295.16	51.03
295.374	157.52
295.589	69.46
295.804	-20.65
296.018	100.18
296.233	126.8
296.447	55.12
296.662	-12.46
296.877	196.43
297.091	112.47
297.306	48.98
297.52	69.46
297.735	71.51
297.949	87.89
298.164	28.5
298.378	30.55
298.593	-108.71
298.807	3.93
299.022	44.88
299.236	157.52
299.451	-20.65
299.665	135
299.88	-104.62
300.094	122.71
300.309	75.6
300.523	57.17
300.737	57.17
300.952	14.17
301.166	46.93
301.381	-39.08
301.595	-45.23
301.809	61.27
302.024	24.4
302.238	3.93
302.452	128.85
302.667	34.64
302.881	141.14
303.095	161.62
303.309	112.47
303.524	38.74
303.738	57.17
303.952	8.02
304.166	73.56
304.381	-39.08
304.595	132.95
304.809	34.64
305.023	40.79
305.237	-22.7
305.452	-10.41
305.666	122.71
305.88	91.99
306.094	231.25
306.308	112.47
306.522	122.71
306.736	102.23
306.95	137.04
307.164	8.02
307.379	-16.55
307.593	159.57
307.807	153.43
308.021	139.09
308.235	94.04
308.449	-45.23
308.663	55.12
308.877	210.77
309.091	24.4
309.305	51.03
309.519	-65.71
309.733	114.52
309.947	-84.14
310.161	87.89
310.374	118.61
310.588	163.67
310.802	-49.32
311.016	18.26
311.23	-12.46
311.444	-32.94
311.658	3.93
311.872	100.18
312.085	163.67
312.299	130.9
312.513	130.9
312.727	61.27
312.941	20.31
313.154	87.89
313.368	91.99
313.582	59.22
313.796	67.41
314.009	53.08
314.223	100.18
314.437	116.56
314.651	139.09
314.864	16.21
315.078	18.26
315.292	-20.65
315.505	-24.75
315.719	51.03
315.933	192.34
316.146	20.31
316.36	1.88
316.573	137.04
316.787	112.47
317.001	91.99
317.214	18.26
317.428	87.89
317.641	-92.33
317.855	-88.23
318.068	20.31
318.282	40.79
318.495	161.62
318.709	149.33
318.922	57.17
319.136	157.52
319.349	24.4
319.563	-10.41
319.776	91.99
319.99	-84.14
320.203	89.94
320.417	-37.03
320.63	94.04
320.843	137.04
321.057	151.38
321.27	-28.84
321.483	100.18
321.697	145.24
321.91	-6.31
322.124	79.7
322.337	98.13
322.55	1.88
322.763	102.23
322.977	59.22
323.19	-96.43
323.403	-82.09
323.617	157.52
323.83	169.81
324.043	61.27
324.256	59.22
324.469	-45.23
324.683	155.47
324.896	67.41
325.109	3.93
325.322	8.02
325.535	77.65
325.748	98.13
325.962	73.56
326.175	75.6
326.388	20.31
326.601	81.75
326.814	96.08
327.027	-22.7
327.24	200.53
327.453	-45.23
327.666	130.9
327.879	110.42
328.092	100.18
328.305	40.79
328.518	-8.36
328.731	42.84
328.944	104.28
329.157	30.55
329.37	120.66
329.583	112.47
329.796	128.85
330.009	-12.46
330.222	108.37
330.435	61.27
330.648	53.08
330.861	51.03
331.073	36.69
331.286	116.56
331.499	53.08
331.712	-6.31
331.925	89.94
332.138	26.45
332.35	130.9
332.563	-20.65
332.776	75.6
332.989	-34.99
333.202	-22.7
333.414	96.08
333.627	46.93
333.84	28.5
334.053	94.04
334.265	12.12
334.478	38.74
334.691	-6.31
334.903	81.75
335.116	-84.14
335.329	-20.65
335.541	87.89
335.754	145.24
335.966	-8.36
336.179	10.07
336.392	38.74
336.604	57.17
336.817	108.37
337.029	-16.55
337.242	22.36
337.454	53.08
337.667	-8.36
337.88	147.28
338.092	94.04
338.305	126.8
338.517	-34.99
338.729	118.61
338.942	120.66
339.154	38.74
339.367	-55.47
339.579	-0.17
339.792	67.41
340.004	118.61
340.217	-12.46
340.429	83.8
340.641	-30.89
340.854	-69.8
341.066	24.4
341.278	51.03
341.491	149.33
341.703	67.41
341.915	32.6
342.128	51.03
342.34	63.32
342.552	63.32
342.764	10.07
342.977	34.64
343.189	32.6
343.401	26.45
343.613	-14.51
343.826	69.46
344.038	-57.51
344.25	46.93
344.462	-114.86
344.674	5.97
344.886	24.4
345.099	130.9
345.311	116.56
345.523	14.17
345.735	-96.43
345.947	63.32
346.159	16.21
346.371	10.07
346.583	-2.22
346.795	167.76
347.007	71.51
347.219	38.74
347.431	73.56
347.643	81.75
347.855	-4.27
348.067	89.94
348.279	-4.27
348.491	12.12
348.703	141.14
348.915	-6.31
349.127	20.31
349.339	34.64
349.551	42.84
349.763	175.95
349.975	79.7
350.187	83.8
350.399	161.62
350.61	98.13
350.822	42.84
351.034	87.89
351.246	69.46
351.458	102.23
351.669	153.43
351.881	100.18
352.093	67.41
352.305	182.1
352.517	8.02
352.728	169.81
352.94	81.75
353.152	46.93
353.363	32.6
353.575	53.08
353.787	200.53
353.999	18.26
354.21	178
354.422	10.07
354.633	1.88
354.845	67.41
355.057	104.28
355.268	24.4
355.48	130.9
355.692	1.88
355.903	61.27
356.115	5.97
356.326	-53.42
356.538	169.81
356.749	169.81
356.961	173.91
357.172	79.7
357.384	-20.65
357.595	212.82
357.807	5.97
358.018	59.22
358.23	12.12
358.441	89.94
358.653	98.13
358.864	73.56
359.075	-75.95
359.287	94.04
359.498	53.08
359.709	126.8
359.921	65.36
360.132	89.94
360.344	12.12
360.555	-2.22
360.766	81.75
360.977	16.21
361.189	118.61
361.4	20.31
361.611	165.71
361.823	36.69
362.034	38.74
362.245	-63.66
362.456	-16.55
362.667	87.89
362.879	18.26
363.09	112.47
363.301	87.89
363.512	98.13
363.723	-45.23
363.935	-2.22
364.146	190.29
364.357	36.69
364.568	55.12
364.779	20.31
364.99	110.42
365.201	12.12
365.412	110.42
365.623	-63.66
365.834	149.33
366.045	63.32
366.256	104.28
366.467	165.71
366.678	38.74
366.889	-73.9
367.1	-16.55
367.311	106.32
367.522	75.6
367.733	100.18
367.944	65.36
368.155	48.98
368.366	94.04
368.577	194.39
368.788	98.13
368.999	30.55
369.209	30.55
369.42	231.25
369.631	282.45
369.842	55.12
370.053	128.85
370.264	108.37
370.474	-43.18
370.685	51.03
370.896	61.27
371.107	110.42
371.317	100.18
371.528	40.79
371.739	100.18
371.95	57.17
372.16	114.52
372.371	-41.13
372.582	53.08
372.792	112.47
373.003	46.93
373.214	124.76
373.424	65.36
373.635	-8.36
373.846	186.19
374.056	94.04
374.267	59.22
374.477	73.56
374.688	120.66
374.898	91.99
375.109	89.94
375.319	63.32
375.53	147.28
375.74	53.08
375.951	-37.03
376.161	89.94
376.372	139.09
376.582	51.03
376.793	128.85
377.003	-0.17
377.214	20.31
377.424	96.08
377.635	61.27
377.845	18.26
378.055	106.32
378.266	112.47
378.476	48.98
378.686	63.32
378.897	91.99
379.107	159.57
379.317	89.94
379.528	-18.6
379.738	40.79
379.948	24.4
380.158	46.93
380.369	71.51
380.579	67.41
380.789	53.08
380.999	118.61
381.21	155.47
381.42	194.39
381.63	94.04
381.84	126.8
382.05	32.6
382.261	149.33
382.471	159.57
382.681	75.6
382.891	169.81
383.101	57.17
383.311	20.31
383.521	40.79
383.731	38.74
383.941	132.95
384.151	53.08
384.361	-16.55
384.571	75.6
384.781	3.93
384.991	188.24
385.201	188.24
385.411	106.32
385.621	44.88
385.831	61.27
386.041	18.26
386.251	32.6
386.461	139.09
386.671	67.41
386.881	143.19
387.091	-18.6
387.301	51.03
387.511	-16.55
387.72	59.22
387.93	118.61
388.14	-16.55
388.35	63.32
388.56	192.34
388.769	91.99
388.979	42.84
389.189	-8.36
389.399	112.47
389.609	38.74
389.818	96.08
390.028	81.75
390.238	91.99
390.447	28.5
390.657	83.8
390.867	28.5
391.076	-153.77
391.286	73.56
391.496	57.17
391.705	-0.17
391.915	112.47
392.125	206.67
392.334	-43.18
392.544	163.67
392.753	104.28
392.963	-0.17
393.172	48.98
393.382	34.64
393.591	196.43
393.801	3.93
394.01	120.66
394.22	61.27
394.429	-0.17
394.639	53.08
394.848	-14.51
395.058	69.46
395.267	24.4
395.477	69.46
395.686	12.12
395.895	223.06
396.105	108.37
396.314	77.65
396.524	53.08
396.733	61.27
396.942	135
397.152	63.32
397.361	159.57
397.57	18.26
397.78	28.5
397.989	85.84
398.198	261.97
398.407	-10.41
398.617	32.6
398.826	75.6
399.035	63.32
399.244	126.8
399.453	63.32
399.663	48.98
399.872	151.38
400.081	-10.41
400.29	112.47
400.499	18.26
400.708	130.9
400.917	71.51
401.127	8.02
401.336	57.17
401.545	192.34
401.754	188.24
401.963	81.75
402.172	57.17
402.381	-28.84
402.59	128.85
402.799	100.18
403.008	132.95
403.217	36.69
403.426	116.56
403.635	28.5
403.844	12.12
404.053	1.88
404.262	20.31
404.471	178
404.68	10.07
404.888	126.8
405.097	1.88
405.306	137.04
405.515	71.51
405.724	85.84
405.933	147.28
406.142	96.08
406.35	153.43
406.559	22.36
406.768	38.74
406.977	196.43
407.185	102.23
407.394	116.56
407.603	-45.23
407.812	112.47
408.02	130.9
408.229	32.6
408.438	102.23
408.646	-86.19
408.855	53.08
409.064	28.5
409.272	-0.17
409.481	81.75
409.69	-73.9
409.898	18.26
410.107	69.46
410.315	40.79
410.524	10.07
410.733	130.9
410.941	36.69
411.15	102.23
411.358	61.27
411.567	167.76
411.775	75.6
411.984	61.27
412.192	128.85
412.401	51.03
412.609	212.82
412.818	124.76
413.026	20.31
413.234	10.07
413.443	85.84
413.651	26.45
413.86	36.69
414.068	229.2
414.276	155.47
414.485	28.5
414.693	173.91
414.901	128.85
415.11	-6.31
415.318	57.17
415.526	1.88
415.734	163.67
415.943	145.24
416.151	89.94
416.359	-0.17
416.567	137.04
416.776	83.8
416.984	116.56
417.192	71.51
417.4	-49.32
417.608	55.12
417.817	-8.36
418.025	151.38
418.233	155.47
418.441	-51.37
418.649	30.55
418.857	149.33
419.065	186.19
419.273	48.98
419.481	67.41
419.689	85.84
419.897	77.65
420.105	-45.23
420.313	145.24
420.521	102.23
420.729	116.56
420.937	3.93
421.145	40.79
421.353	102.23
421.561	186.19
421.769	55.12
421.977	10.07
422.185	139.09
422.393	57.17
422.601	118.61
422.809	57.17
423.017	116.56
423.224	77.65
423.432	245.59
423.64	98.13
423.848	85.84
424.056	55.12
424.263	204.63
424.471	79.7
424.679	182.1
424.887	32.6
425.094	128.85
425.302	96.08
425.51	40.79
425.718	89.94
425.925	137.04
426.133	-37.03
426.341	229.2
426.548	69.46
426.756	28.5
426.964	218.96
427.171	28.5
427.379	79.7
427.586	61.27
427.794	155.47
428.001	208.72
428.209	180.05
428.417	139.09
428.624	155.47
428.832	210.77
429.039	104.28
429.247	89.94
429.454	298.83
429.662	251.73
429.869	165.71
430.076	151.38
430.284	61.27
430.491	198.48
430.699	227.15
430.906	309.07
431.114	212.82
431.321	241.49
431.528	151.38
431.736	153.43
431.943	196.43
432.15	208.72
432.358	218.96
432.565	249.68
432.772	114.52
432.979	270.16
433.187	116.56
433.394	227.15
433.601	75.6
433.808	354.13
434.016	253.78
434.223	335.7
434.43	259.92
434.637	294.74
434.844	366.42
435.052	296.78
435.259	300.88
435.466	397.14
435.673	354.13
435.88	339.79
436.087	395.09
436.294	364.37
436.501	399.18
436.708	374.61
436.915	378.7
437.122	483.15
437.329	337.74
437.537	417.61
437.743	368.46
437.95	509.77
438.157	466.77
438.364	442.19
438.571	556.88
438.778	472.91
438.985	530.25
439.192	438.09
439.399	546.64
439.606	513.87
439.813	636.75
440.02	651.08
440.227	712.52
440.433	661.32
440.64	714.57
440.847	681.8
441.054	733
441.261	796.49
441.467	755.53
441.674	755.53
441.881	917.32
442.088	821.06
442.294	831.3
442.501	921.42
442.708	976.71
442.914	917.32
443.121	984.9
443.328	962.37
443.534	1107.78
443.741	1093.44
443.948	997.19
444.154	1232.71
444.361	1337.15
444.568	1232.71
444.774	1150.79
444.981	1177.41
445.187	1343.3
445.394	1351.49
445.6	1386.3
445.807	1568.57
446.013	1476.41
446.22	1505.09
446.426	1656.64
446.633	1791.8
446.839	1976.12
447.046	1744.7
447.252	2047.8
447.459	2031.41
447.665	2000.69
447.871	2125.62
448.078	2416.43
448.284	2303.79
448.491	2449.2
448.697	2541.36
448.903	2572.08
449.11	2678.57
449.316	2596.65
449.522	2848.55
449.728	3073.83
449.935	3024.68
450.141	3133.22
450.347	3315.49
450.553	3403.55
450.76	3344.16
450.966	3751.71
451.172	3622.69
451.378	3815.2
451.584	3880.73
451.791	4187.93
451.997	4118.29
452.203	4314.9
452.409	4630.29
452.615	4845.32
452.821	4632.33
453.027	4736.78
453.233	5308.16
453.44	4869.9
453.646	5447.43
453.852	5551.87
454.058	5940.99
454.264	5895.93
454.47	6225.65
454.676	6495.99
454.882	6985.45
455.088	6618.86
455.294	7030.51
455.5	7689.95
455.705	8017.63
455.911	7933.66
456.117	8163.03
456.323	8408.79
456.529	8414.93
456.735	9221.83
456.941	9619.14
457.147	9899.71
457.352	10157.75
457.558	10376.89
457.764	10870.45
457.97	11450.02
458.176	11742.88
458.381	12428.95
458.587	12424.86
458.793	13217.42
458.999	13338.25
459.204	14950
459.41	15191.66
459.616	15130.22
459.821	16135.78
460.027	16883.28
460.233	17475.15
460.438	17460.81
460.644	18693.69
460.85	18865.72
461.055	19588.65
461.261	20651.55
461.466	19805.74
461.672	20567.58
461.878	22873.59
462.083	22453.76
462.289	22984.18
462.494	23932.39
462.7	24038.89
462.905	24565.21
463.111	26416.58
463.316	27553.2
463.522	28159.4
463.727	29490.58
463.932	30266.76
464.138	31147.39
464.343	32552.29
464.549	32738.66
464.754	35061.05
464.959	36093.23
465.165	36422.95
465.37	36074.8
465.575	36066.61
465.781	38886.66
465.986	39711.99
466.191	39202.05
466.397	39585.02
466.602	38714.63
466.807	40850.66
467.012	41700.57
467.218	41897.17
467.423	42556.62
467.628	43631.8
467.833	45708.44
468.038	44569.77
468.244	44203.19
468.449	46371.99
468.654	45397.15
468.859	45393.06
469.064	45431.97
469.269	44127.41
469.474	45034.66
469.679	45939.86
469.885	44471.47
470.09	45454.5
470.295	45495.46
470.5	44254.39
470.705	45135.01
470.91	43513.02
471.115	43310.27
471.32	43719.87
471.525	43486.4
471.73	42501.32
471.935	42165.46
472.139	40412.4
472.344	40500.46
472.549	40262.89
472.754	39728.38
472.959	39054.59
473.164	37553.43
473.369	37236
473.574	38130.96
473.778	36828.45
473.983	36496.68
474.188	35745.08
474.393	34274.63
474.598	34401.61
474.802	33410.39
475.007	32859.49
475.212	32716.13
475.417	31442.29
475.621	31081.85
475.826	30489.99
476.031	30027.15
476.235	29621.65
476.44	29511.06
476.645	28872.09
476.849	28818.85
477.054	27794.86
477.259	27127.22
477.463	27270.58
477.668	26394.05
477.872	26381.76
478.077	25894.35
478.282	25056.73
478.486	24983
478.691	24749.53
478.895	24339.94
479.1	24358.37
479.304	24208.87
479.509	23385.58
479.713	23268.85
479.918	22781.43
480.122	22486.53
480.326	22994.42
480.531	22451.71
480.735	22191.62
480.94	22130.18
481.144	22746.62
481.348	21698.06
481.553	21835.27
481.757	20979.22
481.961	21239.31
482.166	21405.2
482.37	21292.56
482.574	20524.57
482.778	20555.29
482.983	20905.49
483.187	20446.75
483.391	20299.3
483.595	19883.56
483.8	19627.56
484.004	19764.78
484.208	19772.97
484.412	19402.29
484.616	19336.75
484.821	19068.47
485.025	18300.48
485.229	18656.82
485.433	18179.65
485.637	17935.94
485.841	17884.74
486.045	17401.42
486.249	17583.69
486.453	17122.9
486.657	17026.64
486.861	16840.28
487.065	16381.53
487.269	16248.41
487.473	15470.19
487.677	15914.59
487.881	15658.6
488.085	15359.59
488.289	15072.88
488.493	14640.76
488.697	14808.69
488.901	14509.69
489.105	13975.17
489.309	13659.78
489.512	13631.11
489.716	13366.92
489.92	13090.45
490.124	12940.94
490.328	12809.87
490.531	12467.86
490.735	12232.35
490.939	11964.06
491.143	11910.82
491.346	11798.18
491.55	11591.33
491.754	11298.47
491.958	11327.14
492.161	10913.45
492.365	11042.48
492.569	10340.02
492.772	10499.77
492.976	10415.8
493.18	10389.17
493.383	10178.23
493.587	10184.38
493.79	10102.46
493.994	9705.15
494.197	9676.48
494.401	9641.67
494.605	9488.07
494.808	9418.44
495.012	9459.4
495.215	9500.36
495.419	9248.46
495.622	9090.76
495.825	9281.22
496.029	8855.25
496.232	9246.41
496.436	8849.1
496.639	9170.63
496.843	8922.83
497.046	9047.76
497.249	9113.29
497.453	9008.84
497.656	8967.88
497.859	9166.54
498.063	9094.86
498.266	9203.4
498.469	8990.41
498.673	8836.81
498.876	9211.59
499.079	9162.44
499.282	9002.7
499.485	9455.3
499.689	9410.25
499.892	9502.4
500.095	9508.55
500.298	9631.43
500.501	9316.04
500.705	9752.26
500.908	9748.16
501.111	9797.31
501.314	9973.44
501.517	9998.01
501.72	10149.56
501.923	9955.01
502.126	10301.11
502.329	10514.1
502.532	10546.87
502.735	10626.74
502.938	10895.02
503.141	11017.9
503.344	10864.3
503.547	11214.51
503.75	11038.38
503.953	11552.42
504.156	11652.77
504.359	11808.42
504.562	11857.57
504.765	12121.76
504.968	12244.63
505.17	12506.77
505.373	12541.59
505.576	12805.78
505.779	13219.47
505.982	13088.4
506.185	13256.33
506.387	13651.59
506.59	14063.23
506.793	14112.38
506.996	14466.68
507.198	15023.73
507.401	14728.82
507.604	15257.2
507.807	15730.28
508.009	15978.08
508.212	16395.87
508.415	16373.34
508.617	16817.75
508.82	17108.56
509.022	17378.89
509.225	17876.55
509.428	18075.2
509.63	18452.03
509.833	18763.32
510.035	19645.99
510.238	19793.45
510.44	20336.16
510.643	20708.89
510.845	20915.73
511.048	21480.97
511.25	21868.04
511.453	22390.27
511.655	23354.86
511.858	23717.36
512.06	23940.58
512.262	24638.94
512.465	24942.04
512.667	25679.31
512.87	26113.48
513.072	26721.73
513.274	27291.06
513.477	27872.68
513.679	28587.43
513.881	29287.83
514.084	29746.58
514.286	30406.02
514.488	31055.23
514.69	32183.66
514.893	32243.05
515.095	33090.91
515.297	33729.87
515.499	34370.89
515.701	35405.11
515.904	36279.6
516.106	36707.62
516.308	37485.85
516.51	38210.83
516.712	38851.84
516.914	39464.19
517.116	40494.32
517.318	40695.02
517.52	41604.31
517.722	42097.87
517.925	42943.69
518.127	43906.23
518.329	45098.15
518.531	44909.74
518.733	46320.79
518.935	46986.38
519.136	47314.05
519.338	48503.92
519.54	48587.89
519.742	49472.61
519.944	49982.55
520.146	51151.94
520.348	51688.51
520.55	51721.28
520.752	52694.07
520.954	53527.59
521.155	53799.97
521.357	54721.55
521.559	55303.18
521.761	56116.22
521.963	56179.71
522.164	56943.6
522.366	56890.35
522.568	57945.06
522.77	58184.67
522.971	58887.12
523.173	58127.33
523.375	59544.52
523.576	58643.41
523.778	59401.16
523.98	60163.01
524.181	60376
524.383	60068.8
524.584	60941.24
524.786	60275.65
524.988	60699.58
525.189	61057.97
525.391	61293.49
525.592	61096.88
525.794	61113.26
525.995	61154.22
526.197	61035.44
526.398	61033.39
526.6	60931
526.801	60797.88
527.003	60953.52
527.204	60523.45
527.406	60687.29
527.607	60486.59
527.808	60191.68
528.01	59053.01
528.211	58880.98
528.412	59028.43
528.614	58397.66
528.815	58344.41
529.016	58184.67
529.218	57529.32
529.419	56974.32
529.62	56499.19
529.822	56136.7
530.023	55639.04
530.224	55067.66
530.425	54731.79
530.626	53572.64
530.828	52866.09
531.029	53763.1
531.23	52329.53
531.431	51717.18
531.632	51471.43
531.833	51467.33
532.035	50107.48
532.236	50000.99
532.437	48905.32
532.638	48739.44
532.839	48145.53
533.04	47897.72
533.241	46591.12
533.442	46732.43
533.643	46130.33
533.844	45261.99
534.045	44821.67
534.246	44037.3
534.447	43652.28
534.648	42554.57
534.849	42247.38
535.05	41467.1
535.251	41286.88
535.451	40365.29
535.652	40314.09
535.853	39384.32
536.054	39220.48
536.255	38706.44
536.456	37831.96
536.657	37791
536.857	36971.81
537.058	36279.6
537.259	36085.04
537.46	35632.44
537.66	35044.67
537.861	34878.79
538.062	34112.84
538.263	33965.39
538.463	33316.18
538.664	32888.16
538.865	32787.81
539.065	32298.34
539.266	31425.91
539.466	31352.18
539.667	30848.38
539.868	30879.1
540.068	30358.92
540.269	30094.73
540.469	29810.06
540.67	29152.66
540.87	28868
541.071	28399.01
541.271	28177.83
541.472	28126.63
541.672	27807.15
541.873	27344.31
542.073	26549.7
542.274	26910.14
542.474	26148.29
542.675	25681.36
542.875	26250.69
543.075	25449.94
543.276	25015.77
543.476	25384.4
543.676	24559.07
543.877	24770.01
544.077	23891.43
544.277	24020.45
544.478	23719.4
544.678	23328.24
544.878	23234.03
545.078	22695.42
545.279	22294.02
545.479	22046.21
545.679	21927.43
545.879	21732.87
546.079	21448.21
546.28	21151.25
546.48	20907.54
546.68	21138.96
546.88	20575.77
547.08	20289.06
547.28	19772.97
547.48	19457.58
547.68	19627.56
547.88	19156.53
548.081	19473.96
548.281	18761.27
548.481	18515.51
548.681	18425.4
548.881	18128.45
549.081	18087.49
549.28	17454.67
549.48	17464.91
549.68	17012.31
549.88	17227.34
550.08	16731.73
550.28	16686.68
550.48	16420.44
550.68	16213.6
550.88	15801.96
551.08	15636.07
551.279	15625.83
551.479	15081.07
551.679	15093.36
551.879	14628.47
552.079	14519.93
552.278	14497.4
552.478	14229.12
552.678	13719.17
552.878	13987.46
553.077	13325.96
553.277	13180.56
553.477	13272.71
553.676	13164.17
553.876	12596.89
554.076	12566.17
554.275	12633.75
554.475	12066.46
554.674	12048.03
554.874	11732.64
555.074	11407.02
555.273	11404.97
555.473	11169.45
555.672	11114.16
555.872	10821.3
556.071	10544.82
556.271	10544.82
556.47	10161.85
556.67	10104.51
556.869	10000.06
557.068	9729.73
557.268	9662.15
557.467	9518.79
557.667	9516.74
557.866	9436.87
558.065	8957.64
558.265	9096.91
558.464	8746.7
558.663	8775.38
558.863	8586.96
559.062	8552.15
559.261	8156.89
559.461	8120.03
559.66	7909.08
559.859	7835.36
560.058	7673.57
560.258	7433.96
560.457	7438.05
560.656	7425.76
560.855	7157.48
561.054	7239.4
561.253	7128.81
561.453	7046.89
561.652	7069.42
561.851	6827.76
562.05	6549.23
562.249	6479.6
562.448	6579.95
562.647	6205.17
562.846	6196.98
563.045	6244.09
563.244	6086.39
563.443	6172.41
563.642	5754.62
563.841	5840.64
564.04	5824.25
564.239	5586.69
564.438	5613.31
564.637	5437.19
564.836	5398.27
565.035	5248.77
565.234	5306.12
565.432	5379.84
565.631	5168.9
565.83	5234.44
566.029	4835.08
566.228	4853.52
566.427	4855.56
566.625	4640.53
566.824	4706.06
567.023	4671.25
567.222	4499.22
567.42	4398.87
567.619	4427.54
567.818	4396.82
568.016	4390.67
568.215	4140.82
568.414	4187.93
568.612	4161.3
568.811	4052.76
569.01	4042.52
569.208	3854.11
569.407	3866.39
569.605	3946.27
569.804	3761.95
570.002	3940.12
570.201	3557.15
570.4	3655.45
570.598	3454.75
570.797	3495.71
570.995	3342.11
571.193	3407.65
571.392	3387.17
571.59	3237.67
571.789	3276.58
571.987	3311.39
572.186	3252
572.384	3059.49
572.582	3067.69
572.781	3112.74
572.979	2993.96
573.177	2916.14
573.376	2815.79
573.574	2920.23
573.772	2850.6
573.971	2735.92
574.169	2543.41
574.367	2756.4
574.565	2758.44
574.763	2627.37
574.962	2461.49
575.16	2455.34
575.358	2393.9
575.556	2383.66
575.754	2420.53
575.952	2449.2
576.151	2359.09
576.349	2348.85
576.547	2266.93
576.745	2230.07
576.943	2211.64
577.141	2156.34
577.339	2004.79
577.537	2021.17
577.735	2187.06
577.933	1976.12
578.131	1914.68
578.329	1955.64
578.527	1912.63
578.725	2053.94
578.923	1777.47
579.121	1824.57
579.319	1738.55
579.516	1822.52
579.714	1959.74
579.912	1826.62
580.11	1636.16
580.308	1623.87
580.506	1632.06
580.704	1572.67
580.901	1601.34
581.099	1736.51
581.297	1589.05
581.495	1539.9
581.692	1470.27
581.89	1580.86
582.088	1398.59
582.285	1312.58
582.483	1429.31
582.681	1460.03
582.878	1316.67
583.076	1361.73
583.274	1431.36
583.471	1509.18
583.669	1335.1
583.866	1234.75
584.064	1251.14
584.262	1142.6
584.459	1105.73
584.657	1255.23
584.854	1290.05
585.052	1296.19
585.249	1300.29
585.447	1189.7
585.644	1091.4
585.841	1214.27
586.039	1126.21
586.236	1204.03
586.434	1124.16
586.631	1089.35
586.828	1013.57
587.026	962.37
587.223	945.99
587.42	964.42
587.618	976.71
587.815	1138.5
588.012	968.52
588.21	984.9
588.407	1032.01
588.604	1107.78
588.801	866.12
588.999	989
589.196	1113.92
589.393	835.4
589.59	929.61
589.787	896.84
589.984	855.88
590.182	857.93
590.379	837.45
590.576	798.54
590.773	902.98
590.97	851.78
591.167	896.84
591.364	864.07
591.561	778.06
591.758	958.28
591.955	857.93
592.152	841.54
592.349	790.35
592.546	749.39
592.743	808.78
592.94	696.14
593.137	837.45
593.334	948.04
593.531	843.59
593.727	864.07
593.924	831.3
594.121	778.06
594.318	812.87
594.515	993.09
594.712	997.19
594.908	1009.48
595.105	831.3
595.302	888.65
595.499	866.12
595.696	950.09
595.892	788.3
596.089	1011.53
596.286	929.61
596.482	1077.06
596.679	1050.44
596.876	917.32
597.072	1034.05
597.269	1042.25
597.466	1077.06
597.662	1124.16
597.859	1171.27
598.055	1232.71
598.252	1226.56
598.448	1343.3
598.645	1312.58
598.841	1335.1
599.038	1533.76
599.234	1494.85
599.431	1578.81
599.627	1441.6
599.824	1611.58
600.02	1611.58
600.217	1613.63
600.413	1830.71
600.609	1732.41
600.806	2107.19
601.002	1881.91
601.198	1931.06
601.395	2090.81
601.591	2285.36
601.787	2248.5
601.984	2473.78
602.18	2508.59
602.376	2543.41
602.572	2606.89
602.769	2694.96
602.965	2920.23
603.161	2996.01
603.357	2987.82
603.553	3188.52
603.75	3202.85
603.946	3241.76
604.142	3487.52
604.338	3624.73
604.534	3534.62
604.73	3620.64
604.926	3872.54
605.122	4005.66
605.318	4052.76
605.514	4222.74
605.71	4554.51
605.906	4409.11
606.102	4558.61
606.298	4814.6
606.494	5021.45
606.69	5074.7
606.886	5265.16
607.082	5273.35
607.278	5617.41
607.474	5699.33
607.67	5938.94
607.866	5932.79
608.062	6332.15
608.257	6412.02
608.453	6516.47
608.649	6819.57
608.845	6715.12
609.041	6862.57
609.236	7237.35
609.432	7341.8
609.628	7599.84
609.824	7864.03
610.019	7911.13
610.215	8226.52
610.411	8445.65
610.606	8701.65
610.802	8875.73
610.998	9266.89
611.193	9408.2
611.389	9651.91
611.584	9877.18
611.78	10049.21
611.976	10323.64
612.171	10890.93
612.367	11140.78
612.562	11183.79
612.758	11515.56
612.953	11519.65
613.149	12095.13
613.344	12224.15
613.539	12850.83
613.735	13186.7
613.93	13502.09
614.126	13727.36
614.321	14419.58
614.517	14653.05
614.712	14771.83
614.907	15259.24
615.103	15617.64
615.298	16117.34
615.493	16123.49
615.688	16588.38
615.884	17497.67
616.079	17471.05
616.274	17950.28
616.47	18359.87
616.665	19019.32
616.86	19433
617.055	19895.85
617.25	20397.6
617.445	21110.29
617.641	21493.26
617.836	21995.01
618.031	22310.4
618.226	23115.25
618.421	23471.6
618.616	24579.55
618.811	24088.04
619.006	25298.39
619.201	25523.66
619.396	26873.28
619.591	26303.94
619.786	27577.78
619.981	28116.39
620.176	28487.07
620.371	29087.13
620.566	29646.22
620.761	30766.46
620.956	31444.34
621.151	31249.78
621.346	32464.23
621.541	32310.63
621.735	33854.8
621.93	33766.74
622.125	34504.01
622.32	34948.42
622.515	35829.04
622.709	36291.88
622.904	36992.29
623.099	37508.38
623.294	38722.82
623.488	38919.43
623.683	39720.18
623.878	40174.83
624.072	40834.28
624.267	41376.99
624.462	41751.77
624.656	42034.39
624.851	43398.34
625.046	44074.16
625.24	44350.64
625.435	44453.04
625.629	45806.75
625.824	46470.29
626.018	46638.22
626.213	46701.71
626.407	47438.98
626.602	47848.57
626.796	48628.85
626.991	49497.19
627.185	49321.06
627.38	49558.63
627.574	49591.39
627.768	50216.02
627.963	50439.25
628.157	50465.88
628.352	51158.09
628.546	50295.89
628.74	51170.38
628.935	50426.96
629.129	50748.49
629.323	50179.16
629.517	50189.4
629.712	49869.92
629.906	49835.1
630.1	48964.71
630.294	48792.68
630.489	48006.26
630.683	47932.54
630.877	46341.27
631.071	45733.02
631.265	45810.84
631.459	44674.22
631.653	43621.56
631.848	43046.08
632.042	41835.73
632.236	40932.58
632.43	39658.74
632.624	38669.58
632.818	37739.8
633.012	36453.67
633.206	35220.8
633.4	34542.92
633.594	32742.75
633.788	32101.74
633.982	30975.36
634.176	29904.27
634.369	28730.78
634.563	27964.84
634.757	26514.88
634.951	26095.05
635.145	24794.59
635.339	24118.76
635.533	22806.01
635.726	21822.98
635.92	20747.8
636.114	20235.81
636.308	18988.6
636.501	18617.91
636.695	17835.59
636.889	16819.8
637.083	16225.89
637.276	15447.66
637.47	14806.64
637.664	14564.98
637.857	13956.74
638.051	13430.41
638.244	12666.52
638.438	12187.29
638.632	11974.3
638.825	11226.79
639.019	10831.54
639.212	10395.32
639.406	10262.2
639.599	9641.67
639.793	9119.43
639.986	8885.97
640.18	8589.01
640.373	8185.56
640.567	7884.51
640.76	7577.31
640.954	7306.98
641.147	6987.5
641.34	6696.69
641.534	6534.9
641.727	6266.61
641.92	6139.64
642.114	5568.26
642.307	5742.33
642.5	5338.88
642.694	5068.55
642.887	4945.67
643.08	4775.69
643.273	4724.49
643.467	4443.92
643.66	4149.01
643.853	4056.86
644.046	3999.51
644.239	3878.68
644.432	3614.49
644.626	3321.63
644.819	3360.55
645.012	3090.21
645.205	3231.52
645.398	3172.13
645.591	2940.71
645.784	2682.67
645.977	2608.94
646.17	2594.61
646.363	2529.07
646.556	2402.1
646.749	2133.81
646.942	2228.02
647.135	2182.96
647.328	2008.89
647.521	1980.22
647.714	1851.19
647.907	1955.64
648.099	1728.31
648.292	1810.23
648.485	1550.14
648.678	1605.44
648.871	1439.55
649.064	1482.56
649.256	1341.25
649.449	1306.43
649.642	1204.03
649.835	1249.09
650.027	1181.51
650.22	1253.19
650.413	1091.4
650.605	1165.12
650.798	952.13
650.991	1040.2
651.183	978.76
651.376	972.61
651.568	1001.29
651.761	919.37
651.954	843.59
652.146	913.22
652.339	1021.77
652.531	767.82
652.724	706.38
652.916	745.29
653.109	583.5
653.301	833.35
653.494	790.35
653.686	689.99
653.879	649.04
654.071	692.04
654.263	581.45
654.456	563.02
654.648	659.28
654.84	540.49
655.033	601.93
655.225	595.79
655.417	464.72
655.61	696.14
655.802	579.4
655.994	597.84
656.186	444.24
656.379	493.39
656.571	354.13
656.763	448.33
656.955	376.66
657.148	444.24
657.34	509.77
657.532	454.48
657.724	423.76
657.916	474.96
658.108	399.18
658.3	403.28
658.492	364.37
658.684	364.37
658.876	427.85
659.068	223.06
659.26	245.59
659.452	221.01
659.644	335.7
659.836	436.05
660.028	333.65
660.22	257.87
660.412	231.25
660.604	255.83
660.796	300.88
660.988	302.93
661.18	284.5
661.372	268.11
661.563	231.25
661.755	319.31
661.947	196.43
662.139	190.29
662.331	284.5
662.522	257.87
662.714	163.67
662.906	210.77
663.097	227.15
663.289	163.67
663.481	100.18
663.673	245.59
663.864	245.59
664.056	259.92
664.247	196.43
664.439	268.11
664.631	268.11
664.822	249.68
665.014	180.05
665.205	147.28
665.397	149.33
665.588	268.11
665.78	110.42
665.971	225.11
666.163	184.15
666.354	196.43
666.546	145.24
666.737	188.24
666.929	175.95
667.12	94.04
667.311	141.14
667.503	192.34
667.694	208.72
667.885	229.2
668.077	237.39
668.268	59.22
668.459	126.8
668.651	188.24
668.842	214.87
669.033	89.94
669.224	69.46
669.416	296.78
669.607	118.61
669.798	104.28
669.989	397.14
670.18	96.08
670.371	229.2
670.563	135
670.754	225.11
670.945	61.27
671.136	149.33
671.327	135
671.518	233.3
671.709	300.88
671.9	321.36
672.091	292.69
672.282	171.86
672.473	124.76
672.664	116.56
672.855	229.2
673.046	120.66
673.237	221.01
673.428	196.43
673.619	294.74
673.809	241.49
674	253.78
674.191	233.3
674.382	159.57
674.573	204.63
674.764	294.74
674.954	175.95
675.145	221.01
675.336	206.67
675.527	110.42
675.717	237.39
675.908	221.01
676.099	206.67
676.289	194.39
676.48	75.6
676.671	122.71
676.861	135
677.052	259.92
677.243	178
677.433	196.43
677.624	304.98
677.814	239.44
678.005	108.37
678.195	239.44
678.386	175.95
678.576	198.48
678.767	106.32
678.957	175.95
679.148	198.48
679.338	341.84
679.529	239.44
679.719	218.96
679.909	337.74
680.1	243.54
680.29	253.78
680.481	159.57
680.671	323.41
680.861	204.63
681.052	333.65
681.242	233.3
681.432	247.63
681.622	272.21
681.813	163.67
682.003	278.35
682.193	272.21
682.383	216.91
682.573	282.45
682.764	276.31
682.954	253.78
683.144	294.74
683.334	210.77
683.524	270.16
683.714	243.54
683.904	292.69
684.094	257.87
684.284	280.4
684.474	360.27
684.664	235.35
684.854	317.26
685.044	276.31
685.234	245.59
685.424	247.63
685.614	229.2
685.804	415.57
685.994	268.11
686.184	268.11
686.374	329.55
686.564	257.87
686.753	272.21
686.943	216.91
687.133	249.68
687.323	296.78
687.513	257.87
687.702	243.54
687.892	286.54
688.082	290.64
688.272	253.78
688.461	296.78
688.651	448.33
688.841	300.88
689.03	188.24
689.22	266.07
689.41	229.2
689.599	364.37
689.789	237.39
689.979	388.94
690.168	290.64
690.358	292.69
690.547	290.64
690.737	247.63
690.926	315.22
691.116	292.69
691.305	319.31
691.495	298.83
691.684	196.43
691.874	233.3
692.063	284.5
692.252	216.91
692.442	339.79
692.631	247.63
692.82	212.82
693.01	264.02
693.199	290.64
693.388	210.77
693.578	253.78
693.767	237.39
693.956	327.5
694.146	229.2
694.335	208.72
694.524	231.25
694.713	276.31
694.902	241.49
695.092	143.19
695.281	266.07
695.47	288.59
695.659	202.58
695.848	247.63
696.037	216.91
696.226	304.98
696.415	249.68
696.604	356.18
696.793	278.35
696.982	251.73
697.171	315.22
697.36	159.57
697.549	266.07
697.738	141.14
697.927	229.2
698.116	173.91
698.305	317.26
698.494	284.5
698.683	178
698.872	407.38
699.061	259.92
699.25	184.15
699.438	253.78
699.627	157.52
699.816	356.18
700.005	73.56
700.193	155.47
700.382	311.12
700.571	278.35
700.76	237.39
700.948	327.5
701.137	374.61
701.326	286.54
701.514	149.33
701.703	315.22
701.892	214.87
702.08	395.09
702.269	202.58
702.457	169.81
702.646	268.11
702.834	270.16
703.023	319.31
703.212	255.83
703.4	184.15
703.589	182.1
703.777	229.2
703.965	202.58
704.154	188.24
704.342	73.56
704.531	198.48
704.719	212.82
704.907	370.51
705.096	100.18
705.284	124.76
705.472	194.39
705.661	300.88
705.849	339.79
706.037	286.54
706.226	266.07
706.414	245.59
706.602	216.91
706.79	243.54
706.979	167.76
707.167	225.11
707.355	116.56
707.543	286.54
707.731	272.21
707.919	241.49
708.107	143.19
708.296	161.62
708.484	180.05
708.672	208.72
708.86	264.02
709.048	210.77
709.236	167.76
709.424	300.88
709.612	290.64
709.8	112.47
709.988	178
710.176	323.41
710.364	296.78
710.551	233.3
710.739	241.49
710.927	155.47
711.115	233.3
711.303	292.69
711.491	261.97
711.679	245.59
711.866	216.91
712.054	233.3
712.242	272.21
712.43	296.78
712.617	182.1
712.805	296.78
712.993	130.9
713.181	110.42
713.368	309.07
713.556	237.39
713.744	208.72
713.931	405.33
714.119	239.44
714.306	210.77
714.494	227.15
714.682	198.48
714.869	143.19
715.057	212.82
715.244	163.67
715.432	173.91
715.619	225.11
715.807	202.58
715.994	264.02
716.182	196.43
716.369	309.07
716.556	309.07
716.744	159.57
716.931	135
717.119	276.31
717.306	231.25
717.493	249.68
717.681	184.15
717.868	184.15
718.055	188.24
718.242	206.67
718.43	266.07
718.617	286.54
718.804	255.83
718.991	337.74
719.179	255.83
719.366	337.74
719.553	241.49
719.74	235.35
719.927	184.15
720.114	274.26
720.301	165.71
720.488	264.02
720.676	268.11
720.863	270.16
721.05	413.52
721.237	294.74
721.424	298.83
721.611	296.78
721.798	175.95
721.985	190.29
722.172	239.44
722.358	178
722.545	268.11
722.732	251.73
722.919	288.59
723.106	307.02
723.293	225.11
723.48	302.93
723.667	288.59
723.853	370.51
724.04	221.01
724.227	286.54
724.414	212.82
724.6	282.45
724.787	384.85
724.974	307.02
725.161	227.15
725.347	225.11
725.534	151.38
725.72	249.68
725.907	403.28
726.094	362.32
726.28	237.39
726.467	264.02
726.653	210.77
726.84	352.08
727.027	378.7
727.213	247.63
727.4	264.02
727.586	374.61
727.773	300.88
727.959	298.83
728.145	233.3
728.332	264.02
728.518	261.97
728.705	347.98
728.891	347.98
729.077	212.82
729.264	282.45
729.45	331.6
729.636	288.59
729.823	249.68
730.009	245.59
730.195	350.03
730.382	307.02
730.568	241.49
730.754	243.54
730.94	294.74
731.126	286.54
731.313	393.04
731.499	313.17
731.685	323.41
731.871	339.79
732.057	249.68
732.243	397.14
732.429	315.22
732.615	333.65
732.801	345.94
732.987	194.39
733.173	288.59
733.359	212.82
733.545	360.27
733.731	276.31
733.917	382.8
734.103	249.68
734.289	233.3
734.475	241.49
734.661	489.29
734.847	272.21
735.033	304.98
735.219	354.13
735.404	276.31
735.59	192.34
735.776	208.72
735.962	280.4
736.148	372.56
736.333	354.13
736.519	247.63
736.705	331.6
736.89	239.44
737.076	364.37
737.262	278.35
737.447	208.72
737.633	196.43
737.819	247.63
738.004	257.87
738.19	364.37
738.375	321.36
738.561	315.22
738.747	380.75
738.932	223.06
739.118	358.22
739.303	354.13
739.489	294.74
739.674	276.31
739.859	261.97
740.045	364.37
740.23	214.87
740.416	184.15
740.601	343.89
740.786	294.74
740.972	245.59
741.157	249.68
741.342	241.49
741.528	153.43
741.713	456.53
741.898	237.39
742.084	278.35
742.269	296.78
742.454	378.7
742.639	327.5
742.824	206.67
743.01	364.37
743.195	298.83
743.38	286.54
743.565	243.54
743.75	286.54
743.935	327.5
744.12	368.46
744.305	290.64
744.49	218.96
744.675	333.65
744.86	167.76
745.045	352.08
745.23	182.1
745.415	302.93
745.6	364.37
745.785	221.01
745.97	325.46
746.155	298.83
746.34	296.78
746.525	214.87
746.71	354.13
746.895	182.1
747.079	110.42
747.264	241.49
747.449	229.2
747.634	304.98
747.819	329.55
748.003	239.44
748.188	208.72
748.373	175.95
748.557	329.55
748.742	206.67
748.927	292.69
749.111	184.15
749.296	149.33
749.481	276.31
749.665	221.01
749.85	173.91
750.034	237.39
750.219	319.31
750.404	167.76
750.588	257.87
750.773	122.71
750.957	186.19
751.141	229.2
751.326	298.83
751.51	120.66
751.695	180.05
751.879	245.59
752.064	327.5
752.248	208.72
752.432	393.04
752.617	345.94
752.801	345.94
752.985	237.39
753.17	345.94
753.354	186.19
753.538	237.39
753.722	124.76
753.907	223.06
754.091	182.1
754.275	237.39
754.459	100.18
754.643	130.9
754.828	274.26
755.012	200.53
755.196	165.71
755.38	231.25
755.564	216.91
755.748	276.31
755.932	137.04
756.116	157.52
756.3	218.96
756.484	196.43
756.668	280.4
756.852	53.08
757.036	155.47
757.22	182.1
757.404	96.08
757.588	108.37
757.772	237.39
757.956	167.76
758.14	292.69
758.323	75.6
758.507	218.96
758.691	122.71
758.875	216.91
759.059	270.16
759.242	122.71
759.426	147.28
759.61	221.01
759.794	53.08
759.977	167.76
760.161	460.62
760.345	243.54
760.528	182.1
760.712	169.81
760.895	153.43
761.079	159.57
761.263	132.95
761.446	96.08
761.63	100.18
761.813	214.87
761.997	87.89
762.18	161.62
762.364	196.43
762.547	65.36
762.731	141.14
762.914	190.29
763.098	26.45
763.281	130.9
763.464	65.36
763.648	180.05
763.831	153.43
764.015	-16.55
764.198	190.29
764.381	57.17
764.564	153.43
764.748	147.28
764.931	122.71
765.114	89.94
765.297	266.07
765.481	126.8
765.664	114.52
765.847	38.74
766.03	266.07
766.213	73.56
766.397	79.7
766.58	3.93
766.763	180.05
766.946	171.86
767.129	14.17
767.312	87.89
767.495	59.22
767.678	81.75
767.861	122.71
768.044	104.28
768.227	77.65
768.41	165.71
768.593	120.66
768.776	83.8
768.959	114.52
769.142	198.48
769.324	120.66
769.507	8.02
769.69	40.79
769.873	155.47
770.056	253.78
770.239	139.09
770.421	175.95
770.604	159.57
770.787	85.84
770.97	126.8
771.152	-6.31
771.335	173.91
771.518	57.17
771.7	204.63
771.883	223.06
772.066	55.12
772.248	65.36
772.431	243.54
772.613	163.67
772.796	216.91
772.978	87.89
773.161	112.47
773.343	16.21
773.526	3.93
773.708	-26.79
773.891	16.21
774.073	71.51
774.256	-2.22
774.438	257.87
774.621	91.99
774.803	145.24
774.985	108.37
775.168	196.43
775.35	53.08
775.532	98.13
775.715	71.51
775.897	100.18
776.079	40.79
776.261	112.47
776.444	81.75
776.626	73.56
776.808	3.93
776.99	-16.55
777.173	114.52
777.355	63.32
777.537	44.88
777.719	122.71
777.901	36.69
778.083	-22.7
778.265	-22.7
778.447	28.5
778.629	26.45
778.811	-8.36
778.993	149.33
779.175	204.63
779.357	57.17
779.539	32.6
779.721	36.69
779.903	130.9
780.085	83.8
780.267	59.22
780.449	81.75
780.631	100.18
780.812	139.09
780.994	81.75
781.176	42.84
781.358	-8.36
781.54	51.03
781.721	149.33
781.903	141.14
782.085	40.79
782.267	77.65
782.448	-22.7
782.63	1.88
782.812	94.04
782.993	128.85
783.175	51.03
783.357	46.93
783.538	65.36
783.72	10.07
783.901	30.55
784.083	87.89
784.264	73.56
784.446	-24.75
784.627	30.55
784.809	118.61
784.99	-0.17
785.172	110.42
785.353	63.32
785.535	61.27
785.716	55.12
785.897	-22.7
786.079	30.55
786.26	3.93
786.441	98.13
786.623	-37.03
786.804	-80.04
786.985	-8.36
787.167	40.79
787.348	51.03
787.529	-8.36
787.71	126.8
787.891	63.32
788.073	44.88
788.254	3.93
788.435	157.52
788.616	-4.27
788.797	-53.42
788.978	18.26
789.159	94.04
789.34	14.17
789.522	75.6
789.703	-34.99
789.884	28.5
790.065	149.33
790.246	159.57
790.427	-45.23
790.607	139.09
790.788	157.52
790.969	-12.46
791.15	-16.55
791.331	10.07
791.512	-41.13
791.693	-55.47
791.874	36.69
792.054	89.94
792.235	167.76
792.416	53.08
792.597	12.12
792.778	141.14
792.958	96.08
793.139	122.71
793.32	42.84
793.5	-75.95
793.681	102.23
793.862	55.12
794.042	40.79
794.223	1.88
794.404	28.5
794.584	-45.23
794.765	28.5
794.945	61.27
795.126	-10.41
795.306	145.24
795.487	-37.03
795.667	-16.55
795.848	69.46
796.028	48.98
796.209	22.36
796.389	51.03
796.57	24.4
796.75	-53.42
796.93	94.04
797.111	-116.9
797.291	14.17
797.471	81.75
797.652	-22.7
797.832	-61.61
798.012	83.8
798.192	69.46
798.373	-49.32
798.553	-14.51
798.733	30.55
798.913	-94.38
799.093	-49.32
799.274	112.47
799.454	3.93
799.634	110.42
799.814	100.18
799.994	69.46
800.174	132.95
800.354	77.65
800.534	-20.65
800.714	-4.27
800.894	-43.18
801.074	-82.09
801.254	-28.84
801.434	51.03
801.614	-59.56
801.794	-43.18
801.974	1879.86
802.154	-43.18
802.334	110.42
802.514	30.55
802.693	53.08
802.873	-41.13
803.053	94.04
803.233	100.18
803.413	65.36
803.592	48.98
803.772	24.4
803.952	-2.22
804.131	-63.66
804.311	65.36
804.491	132.95
804.67	-0.17
804.85	-14.51
805.03	5.97
805.209	32.6
805.389	-0.17
805.568	12.12
805.748	-14.51
805.928	67.41
806.107	94.04
806.287	77.65
806.466	63.32
806.646	30.55
806.825	-18.6
807.004	-24.75
807.184	163.67
807.363	12.12
807.543	91.99
807.722	-8.36
807.901	77.65
808.081	114.52
808.26	-129.19
808.439	46.93
808.619	-14.51
808.798	-49.32
808.977	26.45
809.156	112.47
809.336	28.5
809.515	73.56
809.694	-39.08
809.873	-22.7
810.052	24.4
810.231	122.71
810.411	-6.31
810.59	122.71
810.769	-57.51
810.948	38.74
811.127	-196.78
811.306	34.64
811.485	28.5
811.664	73.56
811.843	98.13
812.022	-14.51
812.201	-0.17
812.38	36.69
812.559	-12.46
812.737	28.5
812.916	-114.86
813.095	-26.79
813.274	135
813.453	-8.36
813.632	73.56
813.811	159.57
813.989	-106.67
814.168	46.93
814.347	-106.67
814.526	-45.23
814.704	89.94
814.883	36.69
815.062	22.36
815.24	89.94
815.419	-71.85
815.598	-18.6
815.776	-84.14
815.955	34.64
816.133	-6.31
816.312	8.02
816.49	-12.46
816.669	38.74
816.847	-6.31
817.026	89.94
817.204	-2.22
817.383	1.88
817.561	22.36
817.74	5.97
817.918	22.36
818.097	20.31
818.275	-39.08
818.453	32.6
818.632	44.88
818.81	24.4
818.988	-51.37
819.167	-41.13
819.345	24.4
819.523	-10.41
819.701	-0.17
819.879	38.74
820.058	-59.56
820.236	-18.6
820.414	-20.65
820.592	-37.03
820.77	-4.27
820.948	-22.7
821.127	32.6
821.305	32.6
821.483	-65.71
821.661	96.08
821.839	-10.41
822.017	-90.28
822.195	-61.61
822.373	71.51
822.551	-65.71
822.729	73.56
822.907	53.08
823.085	65.36
823.262	24.4
823.44	30.55
823.618	10.07
823.796	87.89
823.974	24.4
824.152	-18.6
824.329	3.93
824.507	110.42
824.685	12.12
824.863	-24.75
825.04	65.36
825.218	61.27
825.396	28.5
825.574	-47.27
825.751	-24.75
825.929	42.84
826.107	44.88
826.284	-0.17
826.462	-53.42
826.639	-49.32
826.817	26.45
826.994	-88.23
827.172	-39.08
827.349	118.61
827.527	89.94
827.704	14.17
827.882	1.88
828.059	24.4
828.237	-0.17
828.414	53.08
828.591	-88.23
828.769	40.79
828.946	-45.23
829.124	110.42
829.301	46.93
829.478	38.74
829.655	-30.89
829.833	46.93
830.01	-45.23
830.187	-69.8
830.364	69.46
830.542	-39.08
830.719	108.37
830.896	132.95
831.073	32.6
831.25	3.93
831.427	94.04
831.604	44.88
831.782	-24.75
831.959	1.88
832.136	-84.14
832.313	36.69
832.49	-26.79
832.667	77.65
832.844	-26.79
833.021	114.52
833.198	67.41
833.374	55.12
833.551	36.69
833.728	83.8
833.905	46.93
834.082	-180.39
834.259	81.75
834.436	44.88
834.612	34.64
834.789	81.75
834.966	-16.55
835.143	18.26
835.319	-106.67
835.496	44.88
835.673	24.4
835.85	77.65
836.026	3.93
836.203	30.55
836.38	-0.17
836.556	-88.23
836.733	-100.52
836.909	159.57
837.086	-6.31
837.262	-149.67
837.439	-10.41
837.616	-30.89
837.792	1.88
837.968	55.12
838.145	-51.37
838.321	5.97
838.498	83.8
838.674	18.26
838.851	-12.46
839.027	-53.42
839.203	-82.09
839.38	-6.31
839.556	71.51
839.732	65.36
839.909	12.12
840.085	61.27
840.261	20.31
840.437	38.74
840.614	-63.66
840.79	96.08
840.966	112.47
841.142	5.97
841.318	-65.71
841.494	-55.47
841.671	96.08
841.847	-0.17
842.023	-53.42
842.199	22.36
842.375	85.84
842.551	-100.52
842.727	-151.72
842.903	114.52
843.079	-49.32
843.255	38.74
843.431	10.07
843.607	-0.17
843.783	-180.39
843.959	1.88
844.134	-16.55
844.31	87.89
844.486	-28.84
844.662	-65.71
844.838	-37.03
845.013	81.75
845.189	67.41
845.365	44.88
845.541	24.4
845.716	-67.75
845.892	30.55
846.068	-0.17
846.244	-51.37
846.419	59.22
846.595	-37.03
846.77	-127.14
846.946	8.02
847.122	16.21
847.297	-61.61
847.473	114.52
847.648	-147.62
847.824	-32.94
847.999	-129.19
848.175	-20.65
848.35	-55.47
848.526	53.08
848.701	42.84
848.876	61.27
849.052	57.17
849.227	-0.17
849.403	-2.22
849.578	-59.56
849.753	8.02
849.929	22.36
850.104	-34.99
850.279	-8.36
850.454	-18.6
850.63	100.18
850.805	14.17
850.98	-26.79
851.155	-37.03
851.33	-61.61
851.505	-37.03
851.681	59.22
851.856	-69.8
852.031	38.74
852.206	16.21
852.381	-61.61
852.556	24.4
852.731	24.4
852.906	116.56
853.081	42.84
853.256	55.12
853.431	-24.75
853.606	-86.19
853.781	22.36
853.956	-139.43
854.131	-65.71
854.305	-47.27
854.48	-63.66
854.655	-2.22
854.83	-12.46
855.005	-2.22
855.18	14.17
855.354	-57.51
855.529	75.6
855.704	-32.94
855.879	51.03
856.053	-75.95
856.228	69.46
856.403	-20.65
856.577	65.36
856.752	-143.53
856.926	-43.18
857.101	3.93
857.276	-73.9
857.45	34.64
857.625	61.27
857.799	-8.36
857.974	-39.08
858.148	-80.04
858.323	16.21
858.497	-12.46
858.672	-49.32
858.846	-69.8
859.02	44.88
859.195	-43.18
859.369	-37.03
859.543	-12.46
859.718	20.31
859.892	55.12
860.066	-8.36
860.241	12.12
860.415	-4.27
860.589	-104.62
860.763	18.26
860.938	-82.09
861.112	-12.46
861.286	-24.75
861.46	44.88
861.634	1.88
861.808	118.61
861.982	-8.36
862.157	-65.71
862.331	-12.46
862.505	-80.04
862.679	-34.99
862.853	26.45
863.027	-90.28
863.201	155.47
863.375	-71.85
863.549	-57.51
863.722	14.17
863.896	67.41
864.07	-28.84
864.244	67.41
864.418	3.93
864.592	-12.46
864.766	-0.17
864.939	57.17
865.113	-106.67
865.287	46.93
865.461	-149.67
865.634	51.03
865.808	42.84
865.982	-57.51
866.156	-69.8
866.329	-118.95
866.503	14.17
866.676	-12.46
866.85	-43.18
867.024	-73.9
867.197	63.32
867.371	-0.17
867.544	-61.61
867.718	-112.81
867.891	104.28
868.065	-184.49
868.238	53.08
868.412	44.88
868.585	69.46
868.759	-43.18
868.932	-26.79
869.105	-24.75
869.279	14.17
869.452	-24.75
869.625	5.97
869.799	-73.9
869.972	-80.04
870.145	-84.14
870.319	63.32
870.492	-69.8
870.665	48.98
870.838	-34.99
871.011	-96.43
871.185	-57.51
871.358	-71.85
871.531	65.36
871.704	-45.23
871.877	-22.7
872.05	8.02
872.223	-59.56
872.396	77.65
872.569	40.79
872.742	-133.29
872.915	3.93
873.088	-12.46
873.261	-49.32
873.434	98.13
873.607	-88.23
873.78	124.76
873.953	-96.43
874.126	40.79
874.299	-2.22
874.471	-94.38
874.644	-20.65
874.817	8.02
874.99	75.6
875.163	-47.27
875.335	28.5
875.508	-55.47
875.681	65.36
875.853	-30.89
876.026	-63.66
876.199	38.74
876.371	8.02
876.544	20.31
876.717	-14.51
876.889	-24.75
877.062	71.51
877.234	-80.04
877.407	-41.13
877.579	26.45
877.752	-34.99
877.924	73.56
878.097	-8.36
878.269	22.36
878.442	-12.46
878.614	106.32
878.786	24.4
878.959	-20.65
879.131	28.5
879.303	-149.67
879.476	-92.33
879.648	122.71
879.82	-34.99
879.993	-4.27
880.165	-61.61
880.337	-59.56
880.509	-16.55
880.681	-65.71
880.854	-10.41
881.026	42.84
881.198	137.04
881.37	-6.31
881.542	57.17
881.714	-14.51
881.886	-61.61
882.058	-0.17
882.23	-14.51
882.402	-8.36
882.574	-14.51
882.746	-22.7
882.918	112.47
883.09	67.41
883.262	-45.23
883.434	16.21
883.606	-176.3
883.778	-30.89
883.95	77.65
884.122	-6.31
884.293	10.07
884.465	67.41
884.637	36.69
884.809	-114.86
884.98	14.17
885.152	55.12
885.324	-14.51
885.496	-98.47
885.667	-57.51
885.839	34.64
886.011	65.36
886.182	-8.36
886.354	79.7
886.525	26.45
886.697	-2.22
886.869	-88.23
887.04	-98.47
887.212	1.88
887.383	180.05
887.555	-53.42
887.726	-45.23
887.897	34.64
888.069	-63.66
888.24	55.12
888.412	-0.17
888.583	3.93
888.754	12.12
888.926	-178.34
889.097	-43.18
889.268	-176.3
889.44	-14.51
889.611	-170.15
889.782	-90.28
889.953	-90.28
890.125	75.6
890.296	-49.32
890.467	5.97
890.638	-77.99
890.809	-49.32
890.98	-63.66
891.151	-2.22
891.323	87.89
891.494	-24.75
891.665	32.6
891.836	-26.79
892.007	24.4
892.178	16.21
892.349	-49.32
892.52	24.4
892.691	-65.71
892.862	-45.23
893.032	-178.34
893.203	-96.43
893.374	12.12
893.545	-18.6
893.716	-51.37
893.887	96.08
894.057	-73.9
894.228	3.93
894.399	-53.42
894.57	-34.99
894.74	75.6
894.911	108.37
895.082	-51.37
895.253	24.4
895.423	40.79
895.594	120.66
895.764	-14.51
895.935	-104.62
896.106	71.51
896.276	-0.17
896.447	73.56
896.617	-59.56
896.788	5.97
896.958	-28.84
897.129	-86.19
897.299	-71.85
897.47	61.27
897.64	30.55
897.81	-67.75
897.981	26.45
898.151	40.79
898.322	63.32
898.492	126.8
898.662	-69.8
898.832	-61.61
899.003	-53.42
899.173	14.17
899.343	-24.75
899.513	1.88
