Data from USB4F104151__202__11-05-33-230.txt Node

Date: Wed Feb 26 11:05:33 EST 2025
User: louis
Spectrometer: USB4F10415
Trigger mode: 4
Integration Time (sec): 1.000000E-1
Scans to average: 1
Electric dark correction enabled: true
Nonlinearity correction enabled: false
Boxcar width: 0
XAxis mode: Wavelengths
Number of Pixels in Spectrum: 3648
>>>>>Begin Spectral Data<<<<<
178.204	-488.95
178.424	-488.95
178.644	-488.95
178.864	-378.36
179.084	-374.27
179.304	-17.92
179.524	10.75
179.744	88.57
179.964	0.51
180.184	-46.59
180.404	10.75
180.624	33.28
180.844	-3.58
181.064	-95.74
181.283	39.42
181.503	-36.35
181.723	16.9
181.943	-54.78
182.163	178.69
182.383	-112.13
182.602	12.8
182.822	147.97
183.042	33.28
183.262	-26.11
183.482	-1.54
183.701	68.09
183.921	-15.87
184.141	-91.65
184.361	92.67
184.58	-3.58
184.8	10.75
185.02	-71.17
185.239	57.86
185.459	76.29
185.679	133.63
185.898	-58.88
186.118	47.62
186.338	27.14
186.557	119.29
186.777	-85.5
186.997	47.62
187.216	-15.87
187.436	186.88
187.655	45.57
187.875	82.43
188.095	27.14
188.314	49.66
188.534	43.52
188.753	18.94
188.973	117.25
189.192	129.53
189.412	-50.69
189.631	-5.63
189.851	39.42
190.07	176.64
190.29	-87.55
190.509	-30.21
190.729	78.33
190.948	74.24
191.168	176.64
191.387	59.9
191.607	37.38
191.826	12.8
192.045	-9.73
192.265	29.18
192.484	39.42
192.704	14.85
192.923	-69.12
193.142	170.49
193.362	143.87
193.581	53.76
193.8	4.61
194.02	74.24
194.239	59.9
194.458	158.21
194.678	47.62
194.897	8.7
195.116	43.52
195.335	41.47
195.555	100.86
195.774	-13.82
195.993	92.67
196.212	29.18
196.432	31.23
196.651	-15.87
196.87	98.81
197.089	340.47
197.308	35.33
197.528	43.52
197.747	-97.79
197.966	121.34
198.185	88.57
198.404	-34.3
198.623	111.1
198.842	57.86
199.062	123.39
199.281	86.53
199.5	25.09
199.719	76.29
199.938	107.01
200.157	78.33
200.376	150.01
200.595	84.48
200.814	64
201.033	12.8
201.252	90.62
201.471	86.53
201.69	49.66
201.909	-9.73
202.128	78.33
202.347	27.14
202.566	68.09
202.785	-83.45
203.004	-38.4
203.223	154.11
203.442	90.62
203.661	-54.78
203.879	90.62
204.098	64
204.317	-9.73
204.536	45.57
204.755	49.66
204.974	137.73
205.193	29.18
205.411	186.88
205.63	31.23
205.849	55.81
206.068	37.38
206.287	2.56
206.505	92.67
206.724	-60.93
206.943	37.38
207.162	-26.11
207.381	31.23
207.599	31.23
207.818	16.9
208.037	-28.16
208.255	-24.06
208.474	84.48
208.693	68.09
208.911	-32.26
209.13	176.64
209.349	47.62
209.567	12.8
209.786	27.14
210.005	131.58
210.223	82.43
210.442	-71.17
210.661	6.66
210.879	25.09
211.098	51.71
211.316	6.66
211.535	31.23
211.753	41.47
211.972	66.05
212.191	35.33
212.409	55.81
212.628	25.09
212.846	-15.87
213.065	-32.26
213.283	92.67
213.502	57.86
213.72	70.14
213.938	37.38
214.157	-22.02
214.375	129.53
214.594	84.48
214.812	119.29
215.031	-26.11
215.249	-46.59
215.467	53.76
215.686	-15.87
215.904	2.56
216.122	-3.58
216.341	115.2
216.559	27.14
216.778	131.58
216.996	107.01
217.214	47.62
217.432	4.61
217.651	-42.5
217.869	-28.16
218.087	-58.88
218.306	-48.64
218.524	-11.78
218.742	-28.16
218.96	66.05
219.179	-15.87
219.397	98.81
219.615	276.99
219.833	78.33
220.051	-110.08
220.27	98.81
220.488	107.01
220.706	86.53
220.924	-93.69
221.142	10.75
221.36	35.33
221.578	82.43
221.796	2.56
222.015	68.09
222.233	-48.64
222.451	96.77
222.669	20.99
222.887	35.33
223.105	25.09
223.323	16.9
223.541	-15.87
223.759	80.38
223.977	16.9
224.195	66.05
224.413	45.57
224.631	115.2
224.849	84.48
225.067	158.21
225.285	-62.98
225.503	49.66
225.721	-159.23
225.939	41.47
226.157	-1.54
226.375	236.03
226.592	61.95
226.81	27.14
227.028	135.68
227.246	94.72
227.464	57.86
227.682	20.99
227.9	39.42
228.117	59.9
228.335	121.34
228.553	8.7
228.771	14.85
228.989	-3.58
229.206	66.05
229.424	14.85
229.642	92.67
229.86	6.66
230.077	143.87
230.295	107.01
230.513	152.06
230.731	76.29
230.948	131.58
231.166	104.96
231.384	-19.97
231.601	-26.11
231.819	143.87
232.037	8.7
232.254	-46.59
232.472	14.85
232.689	-40.45
232.907	27.14
233.125	-1.54
233.342	-91.65
233.56	12.8
233.777	12.8
233.995	37.38
234.213	137.73
234.43	66.05
234.648	47.62
234.865	55.81
235.083	-24.06
235.3	111.1
235.518	68.09
235.735	119.29
235.953	-1.54
236.17	84.48
236.388	33.28
236.605	16.9
236.822	100.86
237.04	43.52
237.257	-17.92
237.475	20.99
237.692	-22.02
237.909	31.23
238.127	33.28
238.344	86.53
238.562	33.28
238.779	-42.5
238.996	-22.02
239.214	51.71
239.431	74.24
239.648	-24.06
239.865	102.91
240.083	43.52
240.3	-83.45
240.517	82.43
240.735	43.52
240.952	104.96
241.169	86.53
241.386	14.85
241.603	4.61
241.821	-22.02
242.038	64
242.255	100.86
242.472	-32.26
242.689	107.01
242.907	102.91
243.124	70.14
243.341	27.14
243.558	-24.06
243.775	-71.17
243.992	-30.21
244.209	115.2
244.426	125.44
244.643	8.7
244.86	51.71
245.078	49.66
245.295	-19.97
245.512	25.09
245.729	49.66
245.946	53.76
246.163	96.77
246.38	-1.54
246.597	29.18
246.814	16.9
247.031	55.81
247.248	2.56
247.464	61.95
247.681	104.96
247.898	-11.78
248.115	86.53
248.332	-50.69
248.549	109.05
248.766	119.29
248.983	123.39
249.2	55.81
249.417	98.81
249.633	55.81
249.85	47.62
250.067	27.14
250.284	23.04
250.501	8.7
250.717	18.94
250.934	-36.35
251.151	43.52
251.368	18.94
251.585	64
251.801	-15.87
252.018	-1.54
252.235	115.2
252.451	-54.78
252.668	-15.87
252.885	123.39
253.102	92.67
253.318	-3.58
253.535	-22.02
253.752	25.09
253.968	-19.97
254.185	8.7
254.401	20.99
254.618	33.28
254.835	-30.21
255.051	74.24
255.268	45.57
255.484	72.19
255.701	53.76
255.917	20.99
256.134	-17.92
256.351	-3.58
256.567	-134.65
256.784	18.94
257	-13.82
257.217	59.9
257.433	133.63
257.65	57.86
257.866	115.2
258.082	-85.5
258.299	-5.63
258.515	47.62
258.732	4.61
258.948	-13.82
259.165	66.05
259.381	-19.97
259.597	100.86
259.814	10.75
260.03	-5.63
260.246	-38.4
260.463	76.29
260.679	129.53
260.895	107.01
261.112	47.62
261.328	16.9
261.544	18.94
261.761	55.81
261.977	10.75
262.193	-65.02
262.409	96.77
262.626	-36.35
262.842	-24.06
263.058	-11.78
263.274	68.09
263.49	-15.87
263.707	-65.02
263.923	80.38
264.139	6.66
264.355	0.51
264.571	125.44
264.787	143.87
265.004	98.81
265.22	-44.54
265.436	-46.59
265.652	-32.26
265.868	57.86
266.084	-126.46
266.3	39.42
266.516	-3.58
266.732	10.75
266.948	29.18
267.164	-5.63
267.38	47.62
267.596	59.9
267.812	133.63
268.028	16.9
268.244	-52.74
268.46	43.52
268.676	-28.16
268.892	18.94
269.108	-75.26
269.324	-65.02
269.54	-73.21
269.756	61.95
269.972	8.7
270.188	-67.07
270.403	-28.16
270.619	29.18
270.835	115.2
271.051	76.29
271.267	-52.74
271.483	-15.87
271.698	119.29
271.914	-3.58
272.13	39.42
272.346	8.7
272.562	8.7
272.777	223.74
272.993	-36.35
273.209	-71.17
273.425	51.71
273.64	-22.02
273.856	100.86
274.072	-62.98
274.287	16.9
274.503	51.71
274.719	37.38
274.934	-15.87
275.15	-52.74
275.366	74.24
275.581	-1.54
275.797	33.28
276.012	-5.63
276.228	-60.93
276.444	113.15
276.659	86.53
276.875	-13.82
277.09	123.39
277.306	-34.3
277.521	-5.63
277.737	-46.59
277.952	113.15
278.168	92.67
278.383	27.14
278.599	-34.3
278.814	55.81
279.03	-69.12
279.245	57.86
279.461	4.61
279.676	135.68
279.892	-50.69
280.107	-73.21
280.322	-1.54
280.538	25.09
280.753	-71.17
280.969	37.38
281.184	0.51
281.399	123.39
281.615	14.85
281.83	41.47
282.045	-15.87
282.26	-50.69
282.476	18.94
282.691	145.92
282.906	121.34
283.122	88.57
283.337	16.9
283.552	82.43
283.767	0.51
283.983	115.2
284.198	27.14
284.413	45.57
284.628	-54.78
284.843	23.04
285.058	74.24
285.274	-15.87
285.489	-48.64
285.704	92.67
285.919	-3.58
286.134	12.8
286.349	27.14
286.564	33.28
286.779	117.25
286.995	4.61
287.21	-28.16
287.425	-30.21
287.64	-13.82
287.855	-17.92
288.07	-83.45
288.285	31.23
288.5	55.81
288.715	51.71
288.93	-40.45
289.145	10.75
289.36	35.33
289.575	33.28
289.79	197.12
290.004	-9.73
290.219	115.2
290.434	-26.11
290.649	-38.4
290.864	8.7
291.079	4.61
291.294	0.51
291.509	-1.54
291.724	-24.06
291.938	-22.02
292.153	78.33
292.368	6.66
292.583	-3.58
292.798	16.9
293.012	-56.83
293.227	57.86
293.442	2.56
293.657	70.14
293.871	94.72
294.086	27.14
294.301	225.79
294.516	39.42
294.73	35.33
294.945	-44.54
295.16	72.19
295.374	86.53
295.589	82.43
295.804	6.66
296.018	61.95
296.233	172.54
296.447	33.28
296.662	-75.26
296.877	133.63
297.091	53.76
297.306	-1.54
297.52	33.28
297.735	51.71
297.949	47.62
298.164	66.05
298.378	84.48
298.593	-11.78
298.807	12.8
299.022	10.75
299.236	129.53
299.451	-17.92
299.665	-13.82
299.88	43.52
300.094	76.29
300.309	27.14
300.523	45.57
300.737	27.14
300.952	12.8
301.166	61.95
301.381	-19.97
301.595	25.09
301.809	49.66
302.024	-17.92
302.238	-44.54
302.452	125.44
302.667	100.86
302.881	143.87
303.095	107.01
303.309	0.51
303.524	31.23
303.738	45.57
303.952	37.38
304.166	64
304.381	-15.87
304.595	125.44
304.809	-5.63
305.023	-3.58
305.237	41.47
305.452	43.52
305.666	92.67
305.88	72.19
306.094	78.33
306.308	78.33
306.522	86.53
306.736	47.62
306.95	109.05
307.164	-30.21
307.379	37.38
307.593	92.67
307.807	158.21
308.021	84.48
308.235	125.44
308.449	-95.74
308.663	10.75
308.877	215.55
309.091	-32.26
309.305	8.7
309.519	-110.08
309.733	125.44
309.947	-114.17
310.161	31.23
310.374	94.72
310.588	104.96
310.802	-28.16
311.016	49.66
311.23	49.66
311.444	-40.45
311.658	12.8
311.872	74.24
312.085	78.33
312.299	104.96
312.513	92.67
312.727	39.42
312.941	-17.92
313.154	53.76
313.368	39.42
313.582	96.77
313.796	94.72
314.009	23.04
314.223	131.58
314.437	86.53
314.651	59.9
314.864	92.67
315.078	0.51
315.292	-28.16
315.505	-50.69
315.719	98.81
315.933	-34.3
316.146	8.7
316.36	-13.82
316.573	86.53
316.787	74.24
317.001	121.34
317.214	2.56
317.428	82.43
317.641	-79.36
317.855	-26.11
318.068	59.9
318.282	-73.21
318.495	113.15
318.709	119.29
318.922	-3.58
319.136	158.21
319.349	70.14
319.563	-65.02
319.776	16.9
319.99	-75.26
320.203	74.24
320.417	27.14
320.63	43.52
320.843	123.39
321.057	45.57
321.27	-1.54
321.483	98.81
321.697	135.68
321.91	-3.58
322.124	86.53
322.337	39.42
322.55	12.8
322.763	-26.11
322.977	-15.87
323.19	96.77
323.403	102.91
323.617	20.99
323.83	94.72
324.043	-7.68
324.256	-9.73
324.469	-15.87
324.683	102.91
324.896	59.9
325.109	57.86
325.322	-79.36
325.535	82.43
325.748	129.53
325.962	35.33
326.175	86.53
326.388	117.25
326.601	107.01
326.814	12.8
327.027	-22.02
327.24	154.11
327.453	-103.93
327.666	117.25
327.879	55.81
328.092	55.81
328.305	33.28
328.518	8.7
328.731	-30.21
328.944	23.04
329.157	49.66
329.37	35.33
329.583	125.44
329.796	184.83
330.009	-60.93
330.222	117.25
330.435	64
330.648	23.04
330.861	51.71
331.073	12.8
331.286	127.49
331.499	64
331.712	43.52
331.925	-15.87
332.138	6.66
332.35	115.2
332.563	-138.75
332.776	123.39
332.989	-56.83
333.202	-19.97
333.414	-11.78
333.627	90.62
333.84	-15.87
334.053	74.24
334.265	4.61
334.478	-7.68
334.691	-40.45
334.903	49.66
335.116	-26.11
335.329	51.71
335.541	127.49
335.754	147.97
335.966	20.99
336.179	-38.4
336.392	33.28
336.604	-13.82
336.817	-24.06
337.029	123.39
337.242	-19.97
337.454	41.47
337.667	0.51
337.88	37.38
338.092	96.77
338.305	0.51
338.517	-36.35
338.729	74.24
338.942	102.91
339.154	-71.17
339.367	-65.02
339.579	72.19
339.792	-7.68
340.004	88.57
340.217	29.18
340.429	74.24
340.641	-62.98
340.854	-17.92
341.066	43.52
341.278	53.76
341.491	213.5
341.703	55.81
341.915	-36.35
342.128	107.01
342.34	92.67
342.552	-34.3
342.764	33.28
342.977	47.62
343.189	107.01
343.401	12.8
343.613	-9.73
343.826	-7.68
344.038	14.85
344.25	41.47
344.462	12.8
344.674	41.47
344.886	-3.58
345.099	53.76
345.311	-46.59
345.523	-15.87
345.735	-36.35
345.947	43.52
346.159	-1.54
346.371	70.14
346.583	6.66
346.795	133.63
347.007	70.14
347.219	53.76
347.431	66.05
347.643	156.16
347.855	-3.58
348.067	94.72
348.279	-48.64
348.491	23.04
348.703	55.81
348.915	14.85
349.127	-50.69
349.339	68.09
349.551	37.38
349.763	121.34
349.975	18.94
350.187	68.09
350.399	119.29
350.61	37.38
350.822	-52.74
351.034	57.86
351.246	55.81
351.458	53.76
351.669	68.09
351.881	57.86
352.093	113.15
352.305	119.29
352.517	92.67
352.728	115.2
352.94	59.9
353.152	82.43
353.363	-32.26
353.575	25.09
353.787	162.3
353.999	55.81
354.21	156.16
354.422	-19.97
354.633	8.7
354.845	119.29
355.057	80.38
355.268	66.05
355.48	68.09
355.692	-54.78
355.903	12.8
356.115	-52.74
356.326	-81.41
356.538	82.43
356.749	33.28
356.961	154.11
357.172	20.99
357.384	-34.3
357.595	197.12
357.807	33.28
358.018	-42.5
358.23	-48.64
358.441	82.43
358.653	80.38
358.864	-30.21
359.075	-60.93
359.287	14.85
359.498	35.33
359.709	33.28
359.921	127.49
360.132	68.09
360.344	27.14
360.555	-28.16
360.766	29.18
360.977	-30.21
361.189	102.91
361.4	-44.54
361.611	107.01
361.823	90.62
362.034	0.51
362.245	-44.54
362.456	18.94
362.667	70.14
362.879	-83.45
363.09	41.47
363.301	66.05
363.512	64
363.723	-36.35
363.935	-1.54
364.146	51.71
364.357	10.75
364.568	23.04
364.779	-138.75
364.99	107.01
365.201	35.33
365.412	84.48
365.623	-79.36
365.834	96.77
366.045	23.04
366.256	23.04
366.467	18.94
366.678	72.19
366.889	37.38
367.1	37.38
367.311	78.33
367.522	4.61
367.733	104.96
367.944	10.75
368.155	-75.26
368.366	49.66
368.577	104.96
368.788	90.62
368.999	-65.02
369.209	8.7
369.42	135.68
369.631	246.27
369.842	29.18
370.053	47.62
370.264	53.76
370.474	-17.92
370.685	-22.02
370.896	-19.97
371.107	217.6
371.317	51.71
371.528	-134.65
371.739	64
371.95	-9.73
372.16	111.1
372.371	4.61
372.582	41.47
372.792	43.52
373.003	47.62
373.214	98.81
373.424	113.15
373.635	20.99
373.846	137.73
374.056	-50.69
374.267	35.33
374.477	37.38
374.688	12.8
374.898	8.7
375.109	43.52
375.319	45.57
375.53	111.1
375.74	25.09
375.951	-40.45
376.161	45.57
376.372	115.2
376.582	35.33
376.793	37.38
377.003	-28.16
377.214	41.47
377.424	59.9
377.635	55.81
377.845	-34.3
378.055	96.77
378.266	-24.06
378.476	-9.73
378.686	100.86
378.897	27.14
379.107	119.29
379.317	80.38
379.528	-36.35
379.738	115.2
379.948	-110.08
380.158	98.81
380.369	8.7
380.579	10.75
380.789	98.81
380.999	131.58
381.21	39.42
381.42	166.4
381.63	23.04
381.84	70.14
382.05	92.67
382.261	86.53
382.471	51.71
382.681	31.23
382.891	109.05
383.101	86.53
383.311	-75.26
383.521	-71.17
383.731	98.81
383.941	115.2
384.151	80.38
384.361	27.14
384.571	64
384.781	31.23
384.991	131.58
385.201	143.87
385.411	27.14
385.621	-9.73
385.831	76.29
386.041	-17.92
386.251	-79.36
386.461	113.15
386.671	29.18
386.881	137.73
387.091	31.23
387.301	98.81
387.511	82.43
387.72	37.38
387.93	72.19
388.14	-81.41
388.35	102.91
388.56	150.01
388.769	78.33
388.979	39.42
389.189	-1.54
389.399	33.28
389.609	113.15
389.818	41.47
390.028	51.71
390.238	59.9
390.447	47.62
390.657	100.86
390.867	29.18
391.076	25.09
391.286	45.57
391.496	72.19
391.705	41.47
391.915	158.21
392.125	100.86
392.334	-3.58
392.544	137.73
392.753	29.18
392.963	-50.69
393.172	23.04
393.382	57.86
393.591	162.3
393.801	-19.97
394.01	129.53
394.22	82.43
394.429	10.75
394.639	-19.97
394.848	74.24
395.058	35.33
395.267	14.85
395.477	35.33
395.686	74.24
395.895	250.36
396.105	244.22
396.314	78.33
396.524	25.09
396.733	-46.59
396.942	115.2
397.152	145.92
397.361	92.67
397.57	27.14
397.78	-17.92
397.989	78.33
398.198	213.5
398.407	64
398.617	-28.16
398.826	-15.87
399.035	84.48
399.244	123.39
399.453	107.01
399.663	-40.45
399.872	78.33
400.081	33.28
400.29	94.72
400.499	-56.83
400.708	49.66
400.917	53.76
401.127	-5.63
401.336	-32.26
401.545	145.92
401.754	168.45
401.963	111.1
402.172	-38.4
402.381	20.99
402.59	-40.45
402.799	14.85
403.008	92.67
403.217	41.47
403.426	51.71
403.635	-15.87
403.844	135.68
404.053	-26.11
404.262	49.66
404.471	168.45
404.68	45.57
404.888	86.53
405.097	33.28
405.306	70.14
405.515	18.94
405.724	64
405.933	53.76
406.142	0.51
406.35	92.67
406.559	-34.3
406.768	45.57
406.977	195.07
407.185	88.57
407.394	-13.82
407.603	-34.3
407.812	-28.16
408.02	141.82
408.229	-19.97
408.438	76.29
408.646	16.9
408.855	53.76
409.064	68.09
409.272	10.75
409.481	113.15
409.69	-34.3
409.898	-34.3
410.107	57.86
410.315	156.16
410.524	82.43
410.733	27.14
410.941	-17.92
411.15	139.77
411.358	80.38
411.567	123.39
411.775	-3.58
411.984	53.76
412.192	61.95
412.401	72.19
412.609	176.64
412.818	178.69
413.026	92.67
413.234	25.09
413.443	20.99
413.651	23.04
413.86	39.42
414.068	182.78
414.276	154.11
414.485	0.51
414.693	193.02
414.901	131.58
415.11	14.85
415.318	27.14
415.526	64
415.734	170.49
415.943	100.86
416.151	72.19
416.359	8.7
416.567	125.44
416.776	109.05
416.984	72.19
417.192	113.15
417.4	8.7
417.608	-40.45
417.817	-40.45
418.025	100.86
418.233	121.34
418.441	20.99
418.649	33.28
418.857	18.94
419.065	184.83
419.273	25.09
419.481	94.72
419.689	-17.92
419.897	59.9
420.105	-103.93
420.313	61.95
420.521	131.58
420.729	164.35
420.937	131.58
421.145	-17.92
421.353	135.68
421.561	223.74
421.769	78.33
421.977	-24.06
422.185	123.39
422.393	35.33
422.601	117.25
422.809	92.67
423.017	61.95
423.224	64
423.432	133.63
423.64	33.28
423.848	111.1
424.056	96.77
424.263	111.1
424.471	-24.06
424.679	217.6
424.887	-19.97
425.094	47.62
425.302	160.25
425.51	27.14
425.718	98.81
425.925	37.38
426.133	8.7
426.341	201.21
426.548	109.05
426.756	23.04
426.964	113.15
427.171	45.57
427.379	92.67
427.586	45.57
427.794	176.64
428.001	219.64
428.209	39.42
428.417	160.25
428.624	150.01
428.832	123.39
429.039	72.19
429.247	102.91
429.454	195.07
429.662	193.02
429.869	100.86
430.076	156.16
430.284	100.86
430.491	217.6
430.699	76.29
430.906	193.02
431.114	41.47
431.321	252.41
431.528	152.06
431.736	180.73
431.943	143.87
432.15	162.3
432.358	123.39
432.565	162.3
432.772	29.18
432.979	203.26
433.187	143.87
433.394	213.5
433.601	74.24
433.808	233.98
434.016	152.06
434.223	219.64
434.43	205.31
434.637	342.52
434.844	270.84
435.052	258.56
435.259	295.42
435.466	256.51
435.673	346.62
435.88	315.9
436.087	320
436.294	336.38
436.501	391.67
436.708	346.62
436.915	276.99
437.122	322.04
437.329	332.28
437.537	348.67
437.743	406.01
437.95	457.21
438.157	358.91
438.364	467.45
438.571	371.19
438.778	451.07
438.985	428.54
439.192	494.07
439.399	506.36
439.606	406.01
439.813	600.57
440.02	715.25
440.227	692.73
440.433	567.8
440.64	571.9
440.847	516.6
441.054	633.33
441.261	743.92
441.467	690.68
441.674	653.81
441.881	741.88
442.088	748.02
442.294	877.04
442.501	791.03
442.708	774.64
442.914	774.64
443.121	850.42
443.328	909.81
443.534	977.39
443.741	938.48
443.948	911.86
444.154	956.91
444.361	1305.07
444.568	1032.69
444.774	1104.37
444.981	1038.83
445.187	1221.1
445.394	1307.12
445.6	1159.66
445.807	1399.27
446.013	1278.44
446.22	1364.46
446.426	1440.23
446.633	1624.55
446.839	1737.19
447.046	1532.39
447.252	1675.75
447.459	1731.05
447.665	1733.09
447.871	1956.32
448.078	2140.64
448.284	2003.43
448.491	2079.2
448.697	2185.69
448.903	2343.39
449.11	2359.77
449.316	2337.24
449.522	2548.19
449.728	2693.59
449.935	2564.57
450.141	2669.02
450.347	2830.8
450.553	2849.24
450.76	3017.17
450.966	3072.47
451.172	3129.81
451.378	3193.3
451.584	3488.2
451.791	3793.35
451.997	3809.73
452.203	3879.36
452.409	4016.58
452.615	4082.11
452.821	4063.68
453.027	4110.79
453.233	4514.24
453.44	4563.39
453.646	4809.14
453.852	5071.28
454.058	5116.34
454.264	5167.54
454.47	5527.98
454.676	5611.95
454.882	6175.14
455.088	5865.89
455.294	6238.62
455.5	6592.92
455.705	6963.61
455.911	7147.92
456.117	7182.74
456.323	7360.91
456.529	7430.54
456.735	7917.96
456.941	8483.2
457.147	8632.7
457.352	8745.34
457.558	9046.39
457.764	9726.32
457.97	10033.51
458.176	10293.6
458.381	10770.78
458.587	11211.09
458.793	11583.82
458.999	11688.27
459.204	12943.67
459.41	13435.19
459.616	13171
459.821	14227.75
460.027	14715.17
460.233	15321.37
460.438	15493.4
460.644	16281.86
460.85	16216.33
461.055	17039.61
461.261	17914.09
461.466	17602.8
461.672	17959.15
461.878	19996.88
462.083	19550.42
462.289	19933.39
462.494	21115.07
462.7	20986.05
462.905	21430.46
463.111	23126.18
463.316	24199.31
463.522	24563.85
463.727	25655.42
463.932	26380.4
464.138	27252.83
464.343	28239.95
464.549	28254.29
464.754	30603.31
464.959	31254.56
465.165	31629.34
465.37	31459.36
465.575	31770.65
465.781	33878.01
465.986	34826.22
466.191	34523.12
466.397	34273.27
466.602	33638.4
466.807	35540.96
467.012	35958.75
467.218	36612.05
467.423	36653.01
467.628	38098.87
467.833	39960.48
468.038	39053.23
468.244	38275
468.449	40388.5
468.654	39770.02
468.859	39372.71
469.064	39413.67
469.269	38496.18
469.474	38688.69
469.679	39610.28
469.885	38444.98
470.09	39755.68
470.295	39829.41
470.5	38565.81
470.705	38651.83
470.91	37373.89
471.115	37633.99
471.32	37922.75
471.525	37298.12
471.73	36794.32
471.935	36057.05
472.139	34858.99
472.344	35221.48
472.549	35014.63
472.754	34232.31
472.959	33548.29
473.164	32346.13
473.369	31834.14
473.574	33081.35
473.778	32241.68
473.983	31512.61
474.188	30894.12
474.393	29317.18
474.598	29579.32
474.802	28856.39
475.007	28753.99
475.212	28067.92
475.417	26972.26
475.621	26955.88
475.826	26394.73
476.031	25755.77
476.235	25337.98
476.44	25397.37
476.645	24574.09
476.849	24047.76
477.054	23711.89
477.259	23613.59
477.463	23484.57
477.668	22665.38
477.872	22763.68
478.077	22216.88
478.282	21301.43
478.486	21326.01
478.691	21055.68
478.895	21010.62
479.1	20646.08
479.304	20601.03
479.509	20062.41
479.713	19994.83
479.918	19523.8
480.122	19321.05
480.326	19638.48
480.531	19280.09
480.735	19216.6
480.94	18761.95
481.144	19427.54
481.348	18495.72
481.553	18856.16
481.757	18061.55
481.961	18346.22
482.166	18245.87
482.37	18153.71
482.574	17625.33
482.778	17647.86
482.983	17854.7
483.187	17359.1
483.391	17567.99
483.595	17135.87
483.8	17068.28
484.004	16902.4
484.208	16791.81
484.412	16648.45
484.616	16351.49
484.821	16322.82
485.025	15567.12
485.229	15835.41
485.433	15833.36
485.637	15464.72
485.841	15358.23
486.045	15065.37
486.249	14993.69
486.453	14522.66
486.657	14563.62
486.861	14291.24
487.065	13836.59
487.269	13848.88
487.473	13412.66
487.677	13543.73
487.881	13486.39
488.085	12994.87
488.289	12667.2
488.493	12568.9
488.697	12446.02
488.901	12337.48
489.105	11770.19
489.309	11841.87
489.512	11465.04
489.716	11393.36
489.92	11215.19
490.124	10893.66
490.328	10953.05
490.531	10541.41
490.735	10387.81
490.939	10217.83
491.143	9988.46
491.346	9800.04
491.55	9732.46
491.754	9615.73
491.958	9374.06
492.161	9316.72
492.365	9204.08
492.569	9175.41
492.772	8771.96
492.976	8814.97
493.18	8710.52
493.383	8661.37
493.587	8483.2
493.79	8491.39
493.994	8204.67
494.197	8202.63
494.401	8182.15
494.605	7924.1
494.808	8178.05
495.012	8133
495.215	7725.45
495.419	7938.44
495.622	7600.52
495.825	7653.77
496.029	7494.03
496.232	7799.18
496.436	7600.52
496.639	7967.11
496.843	7328.14
497.046	7801.22
497.249	7797.13
497.453	7727.5
497.656	7719.31
497.859	7594.38
498.063	7610.76
498.266	7715.21
498.469	7573.9
498.673	7786.89
498.876	7719.31
499.079	7750.03
499.282	7739.79
499.485	8313.22
499.689	7860.62
499.892	8159.62
500.095	7774.6
500.298	8243.59
500.501	7872.9
500.705	8327.55
500.908	8333.7
501.111	8337.79
501.314	8425.86
501.517	8833.4
501.72	8583.55
501.923	8786.3
502.126	8798.59
502.329	9111.92
502.532	8991.09
502.735	8956.28
502.938	9292.15
503.141	9281.91
503.344	9529.71
503.547	9582.96
503.75	9648.49
503.953	9779.56
504.156	9931.11
504.359	10228.07
504.562	10242.4
504.765	10500.45
504.968	10623.33
505.17	10774.88
505.373	10836.31
505.576	11112.79
505.779	10977.62
505.982	11243.86
506.185	11540.82
506.387	11794.76
506.59	11917.64
506.793	12101.96
506.996	12360
507.198	12564.8
507.401	12859.71
507.604	13228.34
507.807	13431.09
508.009	13515.06
508.212	14186.79
508.415	14025
508.617	14389.54
508.82	14711.07
509.022	14838.05
509.225	15501.59
509.428	15749.39
509.63	16122.12
509.833	16337.16
510.035	16800
510.238	16935.17
510.44	17127.67
510.643	17737.97
510.845	18360.55
511.048	18256.11
511.25	18782.43
511.453	19097.82
511.655	20234.44
511.858	20283.59
512.06	20539.59
512.262	20949.18
512.465	21481.66
512.667	21930.16
512.87	22538.41
513.072	22917.28
513.274	23316.64
513.477	24277.13
513.679	24823.94
513.881	25108.61
514.084	25821.3
514.286	26269.81
514.488	27113.57
514.69	27656.28
514.893	28188.75
515.095	28432.46
515.297	29298.75
515.499	29820.98
515.701	30498.86
515.904	31021.09
516.106	31260.71
516.308	32380.95
516.51	33017.86
516.712	33150.98
516.914	34113.53
517.116	35037.16
517.318	35121.13
517.52	36229.08
517.722	36626.39
517.925	37472.2
518.127	38324.15
518.329	38786.99
518.531	38758.32
518.733	39954.33
518.935	40249.24
519.136	41320.33
519.338	41830.27
519.54	42289.02
519.742	43347.82
519.944	43437.93
520.146	44355.42
520.348	44775.25
520.55	45371.21
520.752	45676.36
520.954	47058.74
521.155	46702.39
521.357	47441.71
521.559	48074.53
521.761	48699.16
521.963	49071.89
522.164	49379.09
522.366	49665.8
522.568	50212.61
522.77	50728.7
522.971	51648.24
523.173	51568.37
523.375	51541.74
523.576	51754.73
523.778	51678.96
523.98	52416.22
524.181	52645.6
524.383	52872.92
524.584	53409.49
524.786	53429.97
524.988	52780.76
525.189	53571.28
525.391	53688.01
525.592	53710.54
525.794	53487.31
525.995	53161.68
526.197	53466.83
526.398	53376.72
526.6	53905.1
526.801	53362.39
527.003	53335.76
527.204	52545.25
527.406	53118.68
527.607	52782.81
527.808	52588.25
528.01	51525.36
528.211	51590.89
528.412	52188.9
528.614	51191.54
528.815	51212.02
529.016	51269.36
529.218	50368.26
529.419	50063.11
529.62	49481.48
529.822	48797.46
530.023	48529.18
530.224	48060.19
530.425	47963.94
530.626	46858.04
530.828	46475.07
531.029	46911.28
531.23	45721.41
531.431	45358.92
531.632	44765.01
531.833	44437.34
532.035	43675.49
532.236	42956.66
532.437	42932.08
532.638	42069.89
532.839	42067.84
533.04	41443.21
533.241	40630.16
533.442	40390.55
533.643	40101.79
533.844	38864.81
534.045	38596.53
534.246	38184.89
534.447	37609.41
534.648	37197.77
534.849	36624.34
535.05	36231.13
535.251	36001.75
535.451	35307.49
535.652	34832.36
535.853	34494.45
536.054	34215.93
536.255	33845.24
536.456	32397.33
536.657	32600.08
536.857	31965.21
537.058	31262.75
537.259	31504.42
537.46	31146.02
537.66	30228.53
537.861	29966.39
538.062	29241.41
538.263	29184.07
538.463	28688.46
538.664	28344.4
538.865	28319.82
539.065	27897.94
539.266	27166.82
539.466	26847.33
539.667	26658.92
539.868	26667.11
540.068	26556.52
540.269	25731.19
540.469	25679.99
540.67	25383.04
540.87	24821.89
541.071	24639.62
541.271	24465.55
541.472	24131.73
541.672	24064.14
541.873	23212.19
542.073	22882.47
542.274	23095.46
542.474	22886.56
542.675	22280.36
542.875	22831.27
543.075	21846.19
543.276	21379.26
543.476	21715.12
543.676	21029.06
543.877	21049.53
544.077	20842.69
544.277	20558.02
544.478	20234.44
544.678	20017.36
544.878	19839.19
545.078	19546.33
545.279	19464.41
545.479	19204.31
545.679	19095.77
545.879	18759.91
546.079	18589.92
546.28	18125.04
546.48	18112.75
546.68	18043.12
546.88	17864.94
547.08	17598.71
547.28	17174.78
547.48	16896.25
547.68	16879.87
547.88	16603.39
548.081	16490.76
548.281	16177.42
548.481	15888.65
548.681	15823.12
548.881	15712.53
549.081	15448.34
549.28	15165.72
549.48	15157.53
549.68	14758.17
549.88	14874.91
550.08	14047.53
550.28	14061.87
550.48	13969.71
550.68	13857.07
550.88	13472.05
551.08	13769.01
551.279	13302.07
551.479	12876.09
551.679	12861.76
551.879	12556.61
552.079	12763.45
552.278	12370.24
552.478	12446.02
552.678	11923.79
552.878	11968.84
553.077	11686.22
553.277	11239.76
553.477	11401.55
553.676	10994.01
553.876	10834.27
554.076	10525.02
554.275	10672.48
554.475	10309.99
554.674	10389.86
554.874	10142.05
555.074	9775.47
555.273	9875.82
555.473	9679.21
555.672	9531.76
555.872	9226.61
556.071	9204.08
556.271	9331.06
556.47	9017.72
556.67	8640.89
556.869	8407.42
557.068	8407.42
557.268	8182.15
557.467	8237.44
557.667	8167.81
557.866	8169.86
558.065	7709.07
558.265	7543.18
558.464	7514.51
558.663	7496.08
558.863	7246.23
559.062	7262.61
559.261	7125.4
559.461	7082.39
559.66	6781.34
559.859	6695.32
560.058	6642.07
560.258	6449.57
560.457	6410.65
560.656	6523.29
560.855	6146.47
561.054	6080.93
561.253	5984.68
561.453	5910.95
561.652	5779.88
561.851	5767.59
562.05	5644.71
562.249	5484.97
562.448	5534.12
562.647	5468.59
562.846	5364.14
563.045	5417.39
563.244	5102
563.443	5149.11
563.642	4962.74
563.841	4968.88
564.04	4903.35
564.239	4954.55
564.438	4686.26
564.637	4649.4
564.836	4764.09
565.035	4450.75
565.234	4534.71
565.432	4286.91
565.631	4342.21
565.83	4342.21
566.029	4268.48
566.228	4135.36
566.427	4014.53
566.625	3930.56
566.824	3850.69
567.023	3840.45
567.222	3713.48
567.42	3811.78
567.619	3645.9
567.818	3725.77
568.016	3783.11
568.215	3776.97
568.414	3502.54
568.612	3531.21
568.811	3461.58
569.01	3361.23
569.208	3363.28
569.407	3394
569.605	3248.59
569.804	3213.77
570.002	3090.9
570.201	3021.27
570.4	3146.19
570.598	3051.99
570.797	2916.82
570.995	2949.59
571.193	2916.82
571.392	2793.94
571.59	2787.8
571.789	2759.13
571.987	2802.13
572.186	2742.74
572.384	2628.06
572.582	2605.53
572.781	2671.06
572.979	2441.69
573.177	2499.03
573.376	2453.98
573.574	2372.06
573.772	2341.34
573.971	2294.24
574.169	2179.55
574.367	2267.61
574.565	2300.38
574.763	2032.1
574.962	2138.59
575.16	2128.35
575.358	2015.71
575.556	2015.71
575.754	2071.01
575.952	1964.51
576.151	1970.66
576.349	1964.51
576.547	1847.78
576.745	1962.47
576.943	1898.98
577.141	1753.57
577.339	1653.22
577.537	1694.18
577.735	1669.61
577.933	1712.61
578.131	1694.18
578.329	1778.15
578.527	1546.73
578.725	1657.32
578.923	1468.91
579.121	1634.79
579.319	1409.51
579.516	1452.52
579.714	1626.6
579.912	1499.63
580.11	1352.17
580.308	1442.28
580.506	1278.44
580.704	1196.53
580.901	1303.02
581.099	1432.04
581.297	1298.92
581.495	1350.12
581.692	1251.82
581.89	1350.12
582.088	1202.67
582.285	1243.63
582.483	1053.17
582.681	1124.85
582.878	1116.65
583.076	1399.27
583.274	1176.05
583.471	1214.96
583.669	1049.07
583.866	1024.5
584.064	1004.02
584.262	979.44
584.459	975.35
584.657	995.82
584.854	1112.56
585.052	1026.54
585.249	1071.6
585.447	948.72
585.644	856.56
585.841	961.01
586.039	944.63
586.236	938.48
586.434	885.23
586.631	836.08
586.828	791.03
587.026	829.94
587.223	711.16
587.42	752.12
587.618	899.57
587.815	911.86
588.012	825.84
588.21	858.61
588.407	786.93
588.604	815.6
588.801	645.62
588.999	713.21
589.196	768.5
589.393	698.87
589.59	768.5
589.787	715.25
589.984	778.74
590.182	766.45
590.379	575.99
590.576	768.5
590.773	662.01
590.97	696.82
591.167	723.44
591.364	809.46
591.561	676.34
591.758	811.51
591.955	696.82
592.152	713.21
592.349	600.57
592.546	686.58
592.743	545.27
592.94	713.21
593.137	688.63
593.334	803.32
593.531	764.4
593.727	776.69
593.924	682.49
594.121	627.19
594.318	715.25
594.515	676.34
594.712	776.69
594.908	811.51
595.105	610.81
595.302	709.11
595.499	829.94
595.696	852.47
595.892	764.4
596.089	829.94
596.286	739.83
596.482	915.95
596.679	784.88
596.876	766.45
597.072	899.57
597.269	819.7
597.466	971.25
597.662	823.8
597.859	920.05
598.055	936.43
598.252	1016.3
598.448	1087.98
598.645	1149.42
598.841	1249.77
599.038	1190.38
599.234	1270.25
599.431	1307.12
599.627	1268.2
599.824	1339.88
600.02	1356.27
600.217	1376.75
600.413	1505.77
600.609	1511.91
600.806	1786.34
601.002	1698.28
601.198	1591.78
601.395	1776.1
601.591	1806.82
601.787	1960.42
601.984	2025.95
602.18	1905.12
602.376	1997.28
602.572	2265.57
602.769	2324.96
602.965	2236.89
603.161	2511.32
603.357	2425.31
603.553	2642.39
603.75	2689.49
603.946	2859.48
604.142	2902.48
604.338	3088.85
604.534	2996.69
604.73	2943.44
604.926	3047.89
605.122	3385.8
605.318	3486.15
605.514	3623.37
605.71	3594.7
605.906	3846.6
606.102	3807.69
606.298	3953.09
606.494	3957.19
606.69	4254.14
606.886	4329.92
607.082	4254.14
607.278	4446.65
607.474	4614.59
607.67	4764.09
607.866	4753.85
608.062	5067.19
608.257	5153.2
608.453	5171.63
608.649	5585.32
608.845	5499.31
609.041	5581.23
609.236	5829.03
609.432	5902.76
609.628	6314.4
609.824	6486.43
610.019	6312.35
610.215	6662.55
610.411	7051.67
610.606	7082.39
610.802	7297.42
610.998	7442.83
611.193	7614.86
611.389	7737.74
611.584	8243.59
611.78	8022.41
611.976	8663.42
612.171	8735.1
612.367	9064.82
612.562	9036.15
612.758	9390.45
612.953	9521.52
613.149	9754.99
613.344	9980.26
613.539	10453.34
613.735	10588.51
613.93	10873.18
614.126	11065.69
614.321	11489.62
614.517	11723.09
614.712	12001.61
614.907	12173.64
615.103	12581.18
615.298	12724.54
615.493	13214.01
615.688	13422.9
615.884	14235.94
616.079	14188.84
616.274	14858.53
616.47	14864.67
616.665	15417.62
616.86	15739.15
617.055	15962.38
617.25	16625.92
617.445	17133.82
617.641	16824.58
617.836	17756.4
618.031	18092.27
618.226	19009.76
618.421	19163.36
618.616	19349.72
618.811	19585.24
619.006	20558.02
619.201	20637.89
619.396	21123.26
619.591	21379.26
619.786	22349.99
619.981	22380.71
620.176	23113.89
620.371	23111.84
620.566	23748.76
620.761	24559.75
620.956	25278.59
621.151	25327.74
621.346	26202.22
621.541	26116.21
621.735	27277.41
621.93	27070.56
622.125	27742.3
622.32	28115.03
622.515	29046.85
622.709	29392.96
622.904	29904.95
623.099	30126.13
623.294	31076.39
623.488	31336.48
623.683	32086.04
623.878	32219.16
624.072	32888.84
624.267	33191.94
624.462	33724.41
624.656	33945.59
624.851	34699.25
625.046	35368.93
625.24	35684.32
625.435	35772.38
625.629	36380.63
625.824	37322.69
626.018	37414.85
626.213	37242.82
626.407	38379.45
626.602	38533.04
626.796	39155.63
626.991	39491.49
627.185	39823.26
627.38	39733.15
627.574	39638.95
627.768	40353.69
627.963	40169.37
628.157	40099.74
628.352	40884.11
628.546	40017.82
628.74	41076.62
628.935	40275.87
629.129	40460.18
629.323	39651.23
629.517	39921.57
629.712	39729.06
629.906	39499.69
630.1	38565.81
630.294	38807.47
630.489	38029.24
630.683	37810.11
630.877	37083.08
631.071	36206.55
631.265	35997.66
631.459	34877.42
631.653	33882.11
631.848	33484.8
632.042	32518.16
632.236	32143.38
632.43	30787.63
632.624	30238.77
632.818	29225.03
633.012	28158.03
633.206	27332.7
633.4	26366.06
633.594	25589.88
633.788	24838.28
633.982	23765.14
634.176	23120.03
634.369	22450.35
634.563	21379.26
634.757	20443.34
634.951	19902.67
635.145	18997.47
635.339	18317.54
635.533	17537.27
635.726	16859.39
635.92	16210.18
636.114	15307.03
636.308	14909.72
636.501	14139.69
636.695	13822.25
636.889	13123.9
637.083	12689.73
637.276	12017.99
637.47	11379.03
637.664	11215.19
637.857	10668.38
638.051	10226.02
638.244	9810.28
638.438	9378.16
638.632	9193.84
638.825	8649.08
639.019	8472.96
639.212	7883.14
639.406	7596.43
639.599	7399.82
639.793	7100.82
639.986	6791.58
640.18	6764.95
640.373	6351.26
640.567	5931.43
640.76	5960.1
640.954	5534.12
641.147	5204.4
641.34	5044.66
641.534	4829.62
641.727	4741.56
641.92	4704.7
642.114	4514.24
642.307	4258.24
642.5	4207.04
642.694	3955.14
642.887	3766.73
643.08	3715.53
643.273	3594.7
643.467	3322.32
643.66	3226.06
643.853	3094.99
644.046	3070.42
644.239	2830.8
644.432	2658.78
644.626	2583
644.819	2617.82
645.012	2539.99
645.205	2578.9
645.398	2382.3
645.591	2048.48
645.784	2011.62
645.977	2040.29
646.17	1886.69
646.363	1853.92
646.556	1726.95
646.749	1769.96
646.942	1694.18
647.135	1667.56
647.328	1468.91
647.521	1536.49
647.714	1391.08
647.907	1376.75
648.099	1303.02
648.292	1452.52
648.485	1239.53
648.678	1139.18
648.871	1114.61
649.064	1092.08
649.256	975.35
649.449	963.06
649.642	846.32
649.835	948.72
650.027	850.42
650.22	895.47
650.413	852.47
650.605	889.33
650.798	895.47
650.991	741.88
651.183	680.44
651.376	805.36
651.568	735.73
651.761	688.63
651.954	678.39
652.146	563.7
652.339	696.82
652.531	737.78
652.724	426.49
652.916	578.04
653.109	432.63
653.301	557.56
653.494	465.4
653.686	571.9
653.879	629.24
654.071	573.94
654.263	412.15
654.456	389.63
654.648	492.02
654.84	430.59
655.033	326.14
655.225	453.11
655.417	305.66
655.61	469.5
655.802	506.36
655.994	461.3
656.186	293.37
656.379	451.07
656.571	287.23
656.763	309.76
656.955	258.56
657.148	289.28
657.34	424.44
657.532	287.23
657.724	287.23
657.916	315.9
658.108	291.32
658.3	324.09
658.492	389.63
658.684	326.14
658.876	270.84
659.068	211.45
659.26	123.39
659.452	211.45
659.644	240.12
659.836	348.67
660.028	225.79
660.22	125.44
660.412	170.49
660.604	154.11
660.796	221.69
660.988	309.76
661.18	250.36
661.372	217.6
661.563	190.97
661.755	205.31
661.947	88.57
662.139	180.73
662.331	178.69
662.522	139.77
662.714	113.15
662.906	123.39
663.097	174.59
663.289	98.81
663.481	4.61
663.673	293.37
663.864	154.11
664.056	193.02
664.247	70.14
664.439	219.64
664.631	242.17
664.822	207.36
665.014	174.59
665.205	49.66
665.397	133.63
665.588	145.92
665.78	135.68
665.971	176.64
666.163	84.48
666.354	121.34
666.546	100.86
666.737	107.01
666.929	172.54
667.12	166.4
667.311	127.49
667.503	68.09
667.694	164.35
667.885	166.4
668.077	203.26
668.268	-62.98
668.459	123.39
668.651	139.77
668.842	199.16
669.033	135.68
669.224	57.86
669.416	293.37
669.607	125.44
669.798	23.04
669.989	152.06
670.18	90.62
670.371	205.31
670.563	45.57
670.754	186.88
670.945	139.77
671.136	168.45
671.327	53.76
671.518	133.63
671.709	197.12
671.9	139.77
672.091	135.68
672.282	111.1
672.473	88.57
672.664	88.57
672.855	197.12
673.046	213.5
673.237	129.53
673.428	145.92
673.619	154.11
673.809	96.77
674	250.36
674.191	160.25
674.382	6.66
674.573	78.33
674.764	139.77
674.954	223.74
675.145	18.94
675.336	0.51
675.527	113.15
675.717	72.19
675.908	74.24
676.099	55.81
676.289	55.81
676.48	31.23
676.671	178.69
676.861	96.77
677.052	121.34
677.243	59.9
677.433	133.63
677.624	207.36
677.814	129.53
678.005	127.49
678.195	227.84
678.386	41.47
678.576	143.87
678.767	88.57
678.957	104.96
679.148	254.46
679.338	293.37
679.529	221.69
679.719	131.58
679.909	266.75
680.1	231.93
680.29	131.58
680.481	57.86
680.671	162.3
680.861	182.78
681.052	152.06
681.242	141.82
681.432	205.31
681.622	201.21
681.813	70.14
682.003	199.16
682.193	176.64
682.383	131.58
682.573	201.21
682.764	139.77
682.954	76.29
683.144	293.37
683.334	123.39
683.524	174.59
683.714	184.83
683.904	236.03
684.094	141.82
684.284	188.93
684.474	197.12
684.664	291.32
684.854	203.26
685.044	166.4
685.234	205.31
685.424	250.36
685.614	129.53
685.804	289.28
685.994	238.08
686.184	205.31
686.374	176.64
686.564	184.83
686.753	127.49
686.943	115.2
687.133	107.01
687.323	158.21
687.513	248.32
687.702	270.84
687.892	94.72
688.082	184.83
688.272	207.36
688.461	268.8
688.651	330.23
688.841	262.65
689.03	203.26
689.22	160.25
689.41	229.88
689.599	125.44
689.789	59.9
689.979	369.15
690.168	100.86
690.358	219.64
690.547	172.54
690.737	176.64
690.926	233.98
691.116	272.89
691.305	297.47
691.495	213.5
691.684	64
691.874	162.3
692.063	141.82
692.252	178.69
692.442	268.8
692.631	143.87
692.82	182.78
693.01	174.59
693.199	113.15
693.388	242.17
693.578	123.39
693.767	240.12
693.956	244.22
694.146	123.39
694.335	66.05
694.524	201.21
694.713	248.32
694.902	76.29
695.092	164.35
695.281	236.03
695.47	127.49
695.659	147.97
695.848	229.88
696.037	176.64
696.226	203.26
696.415	156.16
696.604	246.27
696.793	254.46
696.982	150.01
697.171	305.66
697.36	127.49
697.549	246.27
697.738	51.71
697.927	121.34
698.116	154.11
698.305	252.41
698.494	203.26
698.683	166.4
698.872	303.61
699.061	190.97
699.25	266.75
699.438	205.31
699.627	137.73
699.816	299.52
700.005	59.9
700.193	199.16
700.382	182.78
700.571	190.97
700.76	172.54
700.948	178.69
701.137	201.21
701.326	246.27
701.514	135.68
701.703	176.64
701.892	203.26
702.08	336.38
702.269	172.54
702.457	16.9
702.646	168.45
702.834	172.54
703.023	100.86
703.212	227.84
703.4	188.93
703.589	113.15
703.777	205.31
703.965	147.97
704.154	94.72
704.342	178.69
704.531	119.29
704.719	139.77
704.907	172.54
705.096	250.36
705.284	129.53
705.472	154.11
705.661	145.92
705.849	162.3
706.037	287.23
706.226	195.07
706.414	160.25
706.602	109.05
706.79	233.98
706.979	137.73
707.167	199.16
707.355	88.57
707.543	160.25
707.731	227.84
707.919	135.68
708.107	98.81
708.296	147.97
708.484	131.58
708.672	207.36
708.86	172.54
709.048	135.68
709.236	66.05
709.424	227.84
709.612	285.18
709.8	47.62
709.988	172.54
710.176	236.03
710.364	215.55
710.551	195.07
710.739	184.83
710.927	166.4
711.115	182.78
711.303	295.42
711.491	270.84
711.679	193.02
711.866	211.45
712.054	221.69
712.242	188.93
712.43	317.95
712.617	121.34
712.805	254.46
712.993	178.69
713.181	53.76
713.368	231.93
713.556	233.98
713.744	143.87
713.931	401.91
714.119	219.64
714.306	123.39
714.494	256.51
714.682	186.88
714.869	84.48
715.057	88.57
715.244	41.47
715.432	188.93
715.619	209.4
715.807	145.92
715.994	182.78
716.182	131.58
716.369	227.84
716.556	199.16
716.744	12.8
716.931	64
717.119	211.45
717.306	264.7
717.493	268.8
717.681	115.2
717.868	162.3
718.055	193.02
718.242	250.36
718.43	311.8
718.617	238.08
718.804	168.45
718.991	311.8
719.179	240.12
719.366	227.84
719.553	252.41
719.74	119.29
719.927	156.16
720.114	213.5
720.301	188.93
720.488	137.73
720.676	125.44
720.863	201.21
721.05	311.8
721.237	221.69
721.424	174.59
721.611	223.74
721.798	133.63
721.985	147.97
722.172	225.79
722.358	147.97
722.545	248.32
722.732	291.32
722.919	297.47
723.106	209.4
723.293	158.21
723.48	145.92
723.667	117.25
723.853	317.95
724.04	346.62
724.227	307.71
724.414	209.4
724.6	240.12
724.787	346.62
724.974	350.71
725.161	182.78
725.347	219.64
725.534	233.98
725.72	229.88
725.907	299.52
726.094	287.23
726.28	193.02
726.467	252.41
726.653	166.4
726.84	264.7
727.027	348.67
727.213	244.22
727.4	311.8
727.586	268.8
727.773	193.02
727.959	158.21
728.145	193.02
728.332	209.4
728.518	150.01
728.705	369.15
728.891	330.23
729.077	211.45
729.264	201.21
729.45	137.73
729.636	322.04
729.823	219.64
730.009	211.45
730.195	207.36
730.382	258.56
730.568	207.36
730.754	254.46
730.94	225.79
731.126	215.55
731.313	238.08
731.499	262.65
731.685	283.13
731.871	242.17
732.057	236.03
732.243	266.75
732.429	295.42
732.615	363
732.801	260.6
732.987	307.71
733.173	246.27
733.359	279.04
733.545	188.93
733.731	207.36
733.917	332.28
734.103	301.56
734.289	188.93
734.475	231.93
734.661	393.72
734.847	303.61
735.033	315.9
735.219	317.95
735.404	250.36
735.59	219.64
735.776	104.96
735.962	211.45
736.148	258.56
736.333	358.91
736.519	248.32
736.705	283.13
736.89	203.26
737.076	274.94
737.262	166.4
737.447	233.98
737.633	145.92
737.819	287.23
738.004	215.55
738.19	240.12
738.375	281.08
738.561	317.95
738.747	274.94
738.932	207.36
739.118	469.5
739.303	313.85
739.489	320
739.674	223.74
739.859	231.93
740.045	287.23
740.23	334.33
740.416	166.4
740.601	268.8
740.786	348.67
740.972	184.83
741.157	258.56
741.342	170.49
741.528	152.06
741.713	340.47
741.898	139.77
742.084	291.32
742.269	205.31
742.454	328.19
742.639	309.76
742.824	238.08
743.01	383.48
743.195	266.75
743.38	236.03
743.565	217.6
743.75	324.09
743.935	332.28
744.12	350.71
744.305	233.98
744.49	268.8
744.675	174.59
744.86	152.06
745.045	252.41
745.23	276.99
745.415	135.68
745.6	311.8
745.785	180.73
745.97	313.85
746.155	219.64
746.34	363
746.525	229.88
746.71	410.11
746.895	100.86
747.079	195.07
747.264	188.93
747.449	320
747.634	295.42
747.819	238.08
748.003	147.97
748.188	104.96
748.373	320
748.557	193.02
748.742	248.32
748.927	289.28
749.111	70.14
749.296	145.92
749.481	209.4
749.665	283.13
749.85	205.31
750.034	283.13
750.219	117.25
750.404	145.92
750.588	213.5
750.773	174.59
750.957	201.21
751.141	150.01
751.326	229.88
751.51	102.91
751.695	184.83
751.879	168.45
752.064	197.12
752.248	180.73
752.432	283.13
752.617	305.66
752.801	262.65
752.985	123.39
753.17	244.22
753.354	160.25
753.538	156.16
753.722	125.44
753.907	152.06
754.091	137.73
754.275	225.79
754.459	123.39
754.643	133.63
754.828	248.32
755.012	190.97
755.196	33.28
755.38	164.35
755.564	170.49
755.748	129.53
755.932	176.64
756.116	176.64
756.3	184.83
756.484	100.86
756.668	221.69
756.852	-28.16
757.036	143.87
757.22	135.68
757.404	137.73
757.588	80.38
757.772	133.63
757.956	135.68
758.14	242.17
758.323	121.34
758.507	225.79
758.691	53.76
758.875	188.93
759.059	197.12
759.242	98.81
759.426	139.77
759.61	195.07
759.794	98.81
759.977	109.05
760.161	328.19
760.345	244.22
760.528	250.36
760.712	88.57
760.895	104.96
761.079	215.55
761.263	57.86
761.446	104.96
761.63	76.29
761.813	141.82
761.997	35.33
762.18	57.86
762.364	199.16
762.547	18.94
762.731	94.72
762.914	145.92
763.098	37.38
763.281	49.66
763.464	18.94
763.648	49.66
763.831	47.62
764.015	70.14
764.198	199.16
764.381	20.99
764.564	41.47
764.748	156.16
764.931	98.81
765.114	133.63
765.297	133.63
765.481	51.71
765.664	80.38
765.847	145.92
766.03	154.11
766.213	37.38
766.397	152.06
766.58	37.38
766.763	94.72
766.946	150.01
767.129	104.96
767.312	76.29
767.495	70.14
767.678	74.24
767.861	150.01
768.044	23.04
768.227	49.66
768.41	41.47
768.593	64
768.776	104.96
768.959	8.7
769.142	172.54
769.324	88.57
769.507	94.72
769.69	66.05
769.873	66.05
770.056	270.84
770.239	25.09
770.421	158.21
770.604	115.2
770.787	92.67
770.97	84.48
771.152	12.8
771.335	88.57
771.518	66.05
771.7	195.07
771.883	178.69
772.066	6.66
772.248	113.15
772.431	174.59
772.613	78.33
772.796	10.75
772.978	55.81
773.161	176.64
773.343	27.14
773.526	41.47
773.708	-32.26
773.891	-9.73
774.073	84.48
774.256	33.28
774.438	193.02
774.621	64
774.803	166.4
774.985	-7.68
775.168	61.95
775.35	129.53
775.532	80.38
775.715	57.86
775.897	129.53
776.079	100.86
776.261	45.57
776.444	57.86
776.626	55.81
776.808	47.62
776.99	-38.4
777.173	82.43
777.355	82.43
777.537	64
777.719	98.81
777.901	41.47
778.083	76.29
778.265	-11.78
778.447	143.87
778.629	8.7
778.811	57.86
778.993	104.96
779.175	119.29
779.357	152.06
779.539	-30.21
779.721	98.81
779.903	82.43
780.085	-7.68
780.267	78.33
780.449	18.94
780.631	39.42
780.812	121.34
780.994	18.94
781.176	-22.02
781.358	76.29
781.54	37.38
781.721	74.24
781.903	59.9
782.085	88.57
782.267	147.97
782.448	0.51
782.63	74.24
782.812	154.11
782.993	49.66
783.175	115.2
783.357	6.66
783.538	154.11
783.72	8.7
783.901	51.71
784.083	78.33
784.264	78.33
784.446	-114.17
784.627	-36.35
784.809	117.25
784.99	12.8
785.172	119.29
785.353	-11.78
785.535	51.71
785.716	0.51
785.897	-48.64
786.079	20.99
786.26	37.38
786.441	147.97
786.623	-34.3
786.804	-15.87
786.985	-28.16
787.167	115.2
787.348	-60.93
787.529	8.7
787.71	131.58
787.891	-5.63
788.073	-103.93
788.254	-151.04
788.435	98.81
788.616	31.23
788.797	-13.82
788.978	12.8
789.159	-19.97
789.34	-15.87
789.522	-30.21
789.703	-5.63
789.884	55.81
790.065	84.48
790.246	150.01
790.427	8.7
790.607	61.95
790.788	107.01
790.969	12.8
791.15	53.76
791.331	-40.45
791.512	20.99
791.693	-44.54
791.874	23.04
792.054	227.84
792.235	59.9
792.416	-69.12
792.597	-38.4
792.778	41.47
792.958	74.24
793.139	-15.87
793.32	88.57
793.5	-26.11
793.681	154.11
793.862	68.09
794.042	-17.92
794.223	-48.64
794.404	-3.58
794.584	-11.78
794.765	72.19
794.945	23.04
795.126	82.43
795.306	145.92
795.487	0.51
795.667	2.56
795.848	-7.68
796.028	-28.16
796.209	39.42
796.389	16.9
796.57	-32.26
796.75	-44.54
796.93	78.33
797.111	-54.78
797.291	-1.54
797.471	145.92
797.652	-97.79
797.832	-58.88
798.012	6.66
798.192	-46.59
798.373	-79.36
798.553	-28.16
798.733	33.28
798.913	-11.78
799.093	4.61
799.274	18.94
799.454	88.57
799.634	55.81
799.814	18.94
799.994	37.38
800.174	117.25
800.354	-26.11
800.534	-65.02
800.714	66.05
800.894	-89.6
801.074	45.57
801.254	-52.74
801.434	18.94
801.614	-28.16
801.794	-75.26
801.974	2052.58
802.154	-52.74
802.334	107.01
802.514	-28.16
802.693	-50.69
802.873	4.61
803.053	158.21
803.233	-7.68
803.413	66.05
803.592	-163.33
803.772	6.66
803.952	-17.92
804.131	-83.45
804.311	45.57
804.491	74.24
804.67	-3.58
804.85	-56.83
805.03	29.18
805.209	107.01
805.389	2.56
805.568	-112.13
805.748	-17.92
805.928	150.01
806.107	64
806.287	80.38
806.466	51.71
806.646	-83.45
806.825	14.85
807.004	84.48
807.184	61.95
807.363	-19.97
807.543	2.56
807.722	-65.02
807.901	45.57
808.081	-5.63
808.26	-146.94
808.439	-24.06
808.619	43.52
808.798	14.85
808.977	18.94
809.156	47.62
809.336	12.8
809.515	31.23
809.694	-22.02
809.873	-71.17
810.052	68.09
810.231	39.42
810.411	25.09
810.59	47.62
810.769	-5.63
810.948	70.14
811.127	-114.17
811.306	45.57
811.485	-73.21
811.664	162.3
811.843	53.76
812.022	-85.5
812.201	-44.54
812.38	-44.54
812.559	-83.45
812.737	10.75
812.916	-114.17
813.095	-83.45
813.274	64
813.453	-5.63
813.632	6.66
813.811	82.43
813.989	-134.65
814.168	70.14
814.347	-52.74
814.526	-50.69
814.704	125.44
814.883	61.95
815.062	29.18
815.24	55.81
815.419	-114.17
815.598	2.56
815.776	-79.36
815.955	66.05
816.133	-153.09
816.312	64
816.49	-17.92
816.669	-26.11
816.847	-1.54
817.026	-1.54
817.204	12.8
817.383	12.8
817.561	-75.26
817.74	20.99
817.918	37.38
818.097	-54.78
818.275	-28.16
818.453	-32.26
818.632	45.57
818.81	-17.92
818.988	8.7
819.167	-44.54
819.345	-5.63
819.523	-95.74
819.701	-40.45
819.879	35.33
820.058	-11.78
820.236	20.99
820.414	-42.5
820.592	-89.6
820.77	-22.02
820.948	-50.69
821.127	23.04
821.305	-5.63
821.483	-105.98
821.661	-11.78
821.839	-3.58
822.017	-69.12
822.195	16.9
822.373	47.62
822.551	31.23
822.729	18.94
822.907	-95.74
823.085	39.42
823.262	61.95
823.44	-50.69
823.618	-91.65
823.796	8.7
823.974	-124.41
824.152	-65.02
824.329	-50.69
824.507	27.14
824.685	16.9
824.863	-36.35
825.04	-52.74
825.218	88.57
825.396	-11.78
825.574	-50.69
825.751	0.51
825.929	39.42
826.107	-79.36
826.284	39.42
826.462	43.52
826.639	-73.21
826.817	-79.36
826.994	-15.87
827.172	-54.78
827.349	147.97
827.527	18.94
827.704	14.85
827.882	49.66
828.059	6.66
828.237	-26.11
828.414	102.91
828.591	-124.41
828.769	4.61
828.946	-77.31
829.124	-13.82
829.301	84.48
829.478	-7.68
829.655	49.66
829.833	47.62
830.01	-95.74
830.187	-46.59
830.364	27.14
830.542	-26.11
830.719	45.57
830.896	53.76
831.073	-17.92
831.25	121.34
831.427	12.8
831.604	-30.21
831.782	-144.89
831.959	37.38
832.136	-42.5
832.313	-32.26
832.49	-75.26
832.667	-19.97
832.844	-65.02
833.021	96.77
833.198	-32.26
833.374	-62.98
833.551	20.99
833.728	-34.3
833.905	43.52
834.082	-105.98
834.259	-5.63
834.436	16.9
834.612	-85.5
834.789	-22.02
834.966	-34.3
835.143	-5.63
835.319	-69.12
835.496	-13.82
835.673	-9.73
835.85	-11.78
836.026	10.75
836.203	41.47
836.38	20.99
836.556	-62.98
836.733	-60.93
836.909	154.11
837.086	-15.87
837.262	-183.81
837.439	-28.16
837.616	-34.3
837.792	-44.54
837.968	-34.3
838.145	-93.69
838.321	-50.69
838.498	-19.97
838.674	16.9
838.851	-5.63
839.027	-62.98
839.203	-11.78
839.38	94.72
839.556	-40.45
839.732	53.76
839.909	-36.35
840.085	-7.68
840.261	-24.06
840.437	-24.06
840.614	-3.58
840.79	61.95
840.966	16.9
841.142	-26.11
841.318	-71.17
841.494	-75.26
841.671	41.47
841.847	-99.84
842.023	-95.74
842.199	51.71
842.375	68.09
842.551	-5.63
842.727	-185.85
842.903	2.56
843.079	-7.68
843.255	43.52
843.431	-3.58
843.607	39.42
843.783	-122.37
843.959	-58.88
844.134	-28.16
844.31	72.19
844.486	-24.06
844.662	-108.03
844.838	-93.69
845.013	70.14
845.189	121.34
845.365	-11.78
845.541	-32.26
845.716	-5.63
845.892	111.1
846.068	-69.12
846.244	-69.12
846.419	-5.63
846.595	-22.02
846.77	-62.98
846.946	-3.58
847.122	-32.26
847.297	-38.4
847.473	90.62
847.648	-75.26
847.824	72.19
847.999	-95.74
848.175	33.28
848.35	-34.3
848.526	170.49
848.701	78.33
848.876	-40.45
849.052	86.53
849.227	16.9
849.403	-69.12
849.578	-75.26
849.753	27.14
849.929	49.66
850.104	-105.98
850.279	25.09
850.454	25.09
850.63	57.86
850.805	27.14
850.98	0.51
851.155	29.18
851.33	-1.54
851.505	-138.75
851.681	129.53
851.856	-11.78
852.031	37.38
852.206	-17.92
852.381	-81.41
852.556	-36.35
852.731	59.9
852.906	43.52
853.081	64
853.256	164.35
853.431	-34.3
853.606	-13.82
853.781	-87.55
853.956	-167.42
854.131	-65.02
854.305	-103.93
854.48	-19.97
854.655	-19.97
854.83	-44.54
855.005	0.51
855.18	-122.37
855.354	-73.21
855.529	-42.5
855.704	-13.82
855.879	55.81
856.053	-9.73
856.228	-17.92
856.403	-97.79
856.577	41.47
856.752	-56.83
856.926	-15.87
857.101	37.38
857.276	-105.98
857.45	76.29
857.625	49.66
857.799	-26.11
857.974	-24.06
858.148	-175.61
858.323	72.19
858.497	-52.74
858.672	-85.5
858.846	-48.64
859.02	55.81
859.195	-95.74
859.369	35.33
859.543	-17.92
859.718	64
859.892	-5.63
860.066	-28.16
860.241	-79.36
860.415	-50.69
860.589	-24.06
860.763	8.7
860.938	-17.92
861.112	23.04
861.286	-22.02
861.46	-11.78
861.634	-30.21
861.808	47.62
861.982	-75.26
862.157	-81.41
862.331	-54.78
862.505	-120.32
862.679	-65.02
862.853	-87.55
863.027	-32.26
863.201	84.48
863.375	-24.06
863.549	-67.07
863.722	-26.11
863.896	43.52
864.07	-130.56
864.244	-26.11
864.418	70.14
864.592	23.04
864.766	-28.16
864.939	-3.58
865.113	-24.06
865.287	66.05
865.461	-132.61
865.634	-24.06
865.808	-73.21
865.982	-91.65
866.156	-114.17
866.329	-97.79
866.503	-44.54
866.676	47.62
866.85	-26.11
867.024	-42.5
867.197	0.51
867.371	-13.82
867.544	31.23
867.718	-112.13
867.891	84.48
868.065	-151.04
868.238	14.85
868.412	82.43
868.585	29.18
868.759	-87.55
868.932	-28.16
869.105	-103.93
869.279	-48.64
869.452	-50.69
869.625	-42.5
869.799	-40.45
869.972	-48.64
870.145	-52.74
870.319	31.23
870.492	-1.54
870.665	-50.69
870.838	-81.41
871.011	-161.28
871.185	-22.02
871.358	-69.12
871.531	92.67
871.704	-44.54
871.877	4.61
872.05	-17.92
872.223	-173.57
872.396	96.77
872.569	37.38
872.742	-69.12
872.915	-87.55
873.088	14.85
873.261	-48.64
873.434	14.85
873.607	-73.21
873.78	70.14
873.953	-112.13
874.126	37.38
874.299	-1.54
874.471	-103.93
874.644	-75.26
874.817	43.52
874.99	43.52
875.163	8.7
875.335	-34.3
875.508	-50.69
875.681	43.52
875.853	-73.21
876.026	-40.45
876.199	4.61
876.371	82.43
876.544	-44.54
876.717	-30.21
876.889	-48.64
877.062	29.18
877.234	-122.37
877.407	-50.69
877.579	0.51
877.752	2.56
877.924	53.76
878.097	14.85
878.269	-77.31
878.442	-60.93
878.614	109.05
878.786	-1.54
878.959	64
879.131	14.85
879.303	-89.6
879.476	37.38
879.648	49.66
879.82	0.51
879.993	-112.13
880.165	-11.78
880.337	-95.74
880.509	-54.78
880.681	-101.89
880.854	-75.26
881.026	55.81
881.198	147.97
881.37	-26.11
881.542	-7.68
881.714	-56.83
881.886	14.85
882.058	14.85
882.23	-26.11
882.402	-65.02
882.574	-15.87
882.746	-9.73
882.918	55.81
883.09	55.81
883.262	-42.5
883.434	70.14
883.606	-163.33
883.778	0.51
883.95	133.63
884.122	-54.78
884.293	64
884.465	-44.54
884.637	43.52
884.809	-81.41
884.98	6.66
885.152	-13.82
885.324	37.38
885.496	-48.64
885.667	-7.68
885.839	-65.02
886.011	94.72
886.182	10.75
886.354	49.66
886.525	-3.58
886.697	-22.02
886.869	-116.22
887.04	-19.97
887.212	78.33
887.383	125.44
887.555	20.99
887.726	-34.3
887.897	-44.54
888.069	-75.26
888.24	41.47
888.412	-28.16
888.583	43.52
888.754	-108.03
888.926	-97.79
889.097	-69.12
889.268	-185.85
889.44	31.23
889.611	-83.45
889.782	-89.6
889.953	-28.16
890.125	109.05
890.296	-110.08
890.467	-19.97
890.638	-32.26
890.809	37.38
890.98	-101.89
891.151	16.9
891.323	150.01
891.494	37.38
891.665	-42.5
891.836	-91.65
892.007	-46.59
892.178	23.04
892.349	25.09
892.52	-3.58
892.691	20.99
892.862	-91.65
893.032	-24.06
893.203	47.62
893.374	2.56
893.545	6.66
893.716	49.66
893.887	70.14
894.057	-38.4
894.228	-7.68
894.399	-97.79
894.57	94.72
894.74	-46.59
894.911	-13.82
895.082	-62.98
895.253	-93.69
895.423	-71.17
895.594	16.9
895.764	31.23
895.935	-5.63
896.106	55.81
896.276	-130.56
896.447	-1.54
896.617	-44.54
896.788	6.66
896.958	-62.98
897.129	-38.4
897.299	-24.06
897.47	90.62
897.64	-46.59
897.81	-46.59
897.981	2.56
898.151	-48.64
898.322	20.99
898.492	25.09
898.662	-87.55
898.832	-114.17
899.003	20.99
899.173	51.71
899.343	-58.88
899.513	-103.93
