Data from USB4F104151__187__11-05-17-333.txt Node

Date: Wed Feb 26 11:05:17 EST 2025
User: louis
Spectrometer: USB4F10415
Trigger mode: 4
Integration Time (sec): 1.000000E-1
Scans to average: 1
Electric dark correction enabled: true
Nonlinearity correction enabled: false
Boxcar width: 0
XAxis mode: Wavelengths
Number of Pixels in Spectrum: 3648
>>>>>Begin Spectral Data<<<<<
178.204	-482.81
178.424	-482.81
178.644	-482.81
178.864	-437.75
179.084	-370.17
179.304	23.04
179.524	-38.4
179.744	-44.54
179.964	104.96
180.184	12.8
180.404	39.42
180.624	-15.87
180.844	2.56
181.064	-75.26
181.283	-9.73
181.503	-50.69
181.723	51.71
181.943	-159.23
182.163	168.45
182.383	14.85
182.602	31.23
182.822	121.34
183.042	96.77
183.262	-11.78
183.482	12.8
183.701	41.47
183.921	59.9
184.141	-81.41
184.361	33.28
184.58	109.05
184.8	49.66
185.02	-42.5
185.239	68.09
185.459	72.19
185.679	47.62
185.898	-75.26
186.118	72.19
186.338	39.42
186.557	92.67
186.777	-58.88
186.997	66.05
187.216	61.95
187.436	147.97
187.655	82.43
187.875	76.29
188.095	84.48
188.314	133.63
188.534	100.86
188.753	-28.16
188.973	236.03
189.192	137.73
189.412	4.61
189.631	35.33
189.851	104.96
190.07	238.08
190.29	-62.98
190.509	-15.87
190.729	47.62
190.948	152.06
191.168	295.42
191.387	70.14
191.607	14.85
191.826	66.05
192.045	29.18
192.265	-15.87
192.484	59.9
192.704	29.18
192.923	-46.59
193.142	125.44
193.362	127.49
193.581	129.53
193.8	152.06
194.02	125.44
194.239	68.09
194.458	121.34
194.678	70.14
194.897	72.19
195.116	-26.11
195.335	-34.3
195.555	119.29
195.774	-56.83
195.993	162.3
196.212	-48.64
196.432	33.28
196.651	12.8
196.87	43.52
197.089	193.02
197.308	33.28
197.528	80.38
197.747	-15.87
197.966	74.24
198.185	141.82
198.404	-116.22
198.623	102.91
198.842	158.21
199.062	162.3
199.281	94.72
199.5	66.05
199.719	47.62
199.938	45.57
200.157	102.91
200.376	72.19
200.595	119.29
200.814	68.09
201.033	27.14
201.252	143.87
201.471	88.57
201.69	66.05
201.909	78.33
202.128	96.77
202.347	190.97
202.566	0.51
202.785	-32.26
203.004	-3.58
203.223	248.32
203.442	33.28
203.661	-48.64
203.879	20.99
204.098	166.4
204.317	-65.02
204.536	64
204.755	94.72
204.974	160.25
205.193	55.81
205.411	164.35
205.63	47.62
205.849	35.33
206.068	-11.78
206.287	-1.54
206.505	104.96
206.724	16.9
206.943	57.86
207.162	45.57
207.381	74.24
207.599	-42.5
207.818	90.62
208.037	-62.98
208.255	47.62
208.474	39.42
208.693	47.62
208.911	-17.92
209.13	102.91
209.349	68.09
209.567	86.53
209.786	88.57
210.005	104.96
210.223	68.09
210.442	-103.93
210.661	90.62
210.879	70.14
211.098	31.23
211.316	14.85
211.535	92.67
211.753	86.53
211.972	18.94
212.191	104.96
212.409	33.28
212.628	72.19
212.846	0.51
213.065	109.05
213.283	117.25
213.502	133.63
213.72	20.99
213.938	20.99
214.157	-19.97
214.375	109.05
214.594	-48.64
214.812	96.77
215.031	33.28
215.249	51.71
215.467	72.19
215.686	23.04
215.904	-5.63
216.122	80.38
216.341	242.17
216.559	53.76
216.778	37.38
216.996	129.53
217.214	104.96
217.432	6.66
217.651	-93.69
217.869	59.9
218.087	-17.92
218.306	64
218.524	64
218.742	61.95
218.96	80.38
219.179	57.86
219.397	18.94
219.615	250.36
219.833	107.01
220.051	-3.58
220.27	55.81
220.488	94.72
220.706	143.87
220.924	10.75
221.142	-7.68
221.36	45.57
221.578	88.57
221.796	51.71
222.015	55.81
222.233	51.71
222.451	129.53
222.669	-75.26
222.887	86.53
223.105	18.94
223.323	29.18
223.541	-52.74
223.759	109.05
223.977	20.99
224.195	190.97
224.413	117.25
224.631	33.28
224.849	18.94
225.067	219.64
225.285	33.28
225.503	47.62
225.721	-79.36
225.939	55.81
226.157	16.9
226.375	219.64
226.592	-24.06
226.81	86.53
227.028	166.4
227.246	190.97
227.464	72.19
227.682	141.82
227.9	84.48
228.117	84.48
228.335	55.81
228.553	-34.3
228.771	59.9
228.989	92.67
229.206	74.24
229.424	88.57
229.642	23.04
229.86	-114.17
230.077	217.6
230.295	33.28
230.513	147.97
230.731	49.66
230.948	61.95
231.166	158.21
231.384	55.81
231.601	-87.55
231.819	170.49
232.037	-52.74
232.254	23.04
232.472	12.8
232.689	12.8
232.907	162.3
233.125	59.9
233.342	43.52
233.56	29.18
233.777	18.94
233.995	41.47
234.213	88.57
234.43	70.14
234.648	64
234.865	-28.16
235.083	39.42
235.3	111.1
235.518	29.18
235.735	84.48
235.953	102.91
236.17	53.76
236.388	-5.63
236.605	-9.73
236.822	123.39
237.04	111.1
237.257	12.8
237.475	-122.37
237.692	119.29
237.909	100.86
238.127	39.42
238.344	94.72
238.562	61.95
238.779	18.94
238.996	31.23
239.214	23.04
239.431	84.48
239.648	31.23
239.865	78.33
240.083	92.67
240.3	14.85
240.517	29.18
240.735	29.18
240.952	152.06
241.169	70.14
241.386	53.76
241.603	49.66
241.821	53.76
242.038	39.42
242.255	80.38
242.472	-42.5
242.689	78.33
242.907	80.38
243.124	31.23
243.341	59.9
243.558	-5.63
243.775	25.09
243.992	10.75
244.209	127.49
244.426	121.34
244.643	92.67
244.86	35.33
245.078	176.64
245.295	55.81
245.512	82.43
245.729	10.75
245.946	8.7
246.163	141.82
246.38	68.09
246.597	43.52
246.814	98.81
247.031	70.14
247.248	4.61
247.464	72.19
247.681	78.33
247.898	61.95
248.115	98.81
248.332	-38.4
248.549	68.09
248.766	131.58
248.983	86.53
249.2	64
249.417	131.58
249.633	-22.02
249.85	64
250.067	12.8
250.284	55.81
250.501	86.53
250.717	104.96
250.934	49.66
251.151	16.9
251.368	-40.45
251.585	12.8
251.801	51.71
252.018	31.23
252.235	150.01
252.451	-108.03
252.668	107.01
252.885	129.53
253.102	27.14
253.318	66.05
253.535	-11.78
253.752	-9.73
253.968	-42.5
254.185	-34.3
254.401	49.66
254.618	82.43
254.835	16.9
255.051	119.29
255.268	133.63
255.484	47.62
255.701	31.23
255.917	203.26
256.134	20.99
256.351	61.95
256.567	33.28
256.784	59.9
257	-36.35
257.217	57.86
257.433	104.96
257.65	27.14
257.866	219.64
258.082	-99.84
258.299	-62.98
258.515	23.04
258.732	-73.21
258.948	4.61
259.165	154.11
259.381	-44.54
259.597	86.53
259.814	94.72
260.03	72.19
260.246	23.04
260.463	127.49
260.679	152.06
260.895	16.9
261.112	35.33
261.328	55.81
261.544	-89.6
261.761	49.66
261.977	39.42
262.193	-62.98
262.409	88.57
262.626	59.9
262.842	76.29
263.058	-56.83
263.274	6.66
263.49	80.38
263.707	23.04
263.923	76.29
264.139	-60.93
264.355	12.8
264.571	43.52
264.787	186.88
265.004	147.97
265.22	53.76
265.436	-32.26
265.652	18.94
265.868	27.14
266.084	47.62
266.3	76.29
266.516	33.28
266.732	68.09
266.948	43.52
267.164	29.18
267.38	109.05
267.596	47.62
267.812	180.73
268.028	154.11
268.244	61.95
268.46	31.23
268.676	-26.11
268.892	47.62
269.108	6.66
269.324	2.56
269.54	-42.5
269.756	199.16
269.972	0.51
270.188	72.19
270.403	-28.16
270.619	25.09
270.835	35.33
271.051	37.38
271.267	90.62
271.483	0.51
271.698	59.9
271.914	12.8
272.13	-19.97
272.346	72.19
272.562	66.05
272.777	180.73
272.993	74.24
273.209	-13.82
273.425	127.49
273.64	-42.5
273.856	92.67
274.072	-28.16
274.287	2.56
274.503	131.58
274.719	137.73
274.934	41.47
275.15	-34.3
275.366	2.56
275.581	12.8
275.797	-5.63
276.012	10.75
276.228	8.7
276.444	33.28
276.659	68.09
276.875	12.8
277.09	96.77
277.306	-62.98
277.521	86.53
277.737	80.38
277.952	152.06
278.168	49.66
278.383	88.57
278.599	100.86
278.814	111.1
279.03	55.81
279.245	53.76
279.461	123.39
279.676	190.97
279.892	10.75
280.107	-30.21
280.322	-15.87
280.538	-3.58
280.753	-15.87
280.969	51.71
281.184	27.14
281.399	195.07
281.615	45.57
281.83	-7.68
282.045	-54.78
282.26	-54.78
282.476	84.48
282.691	86.53
282.906	41.47
283.122	70.14
283.337	-50.69
283.552	8.7
283.767	64
283.983	156.16
284.198	-5.63
284.413	31.23
284.628	-46.59
284.843	45.57
285.058	90.62
285.274	43.52
285.489	-62.98
285.704	102.91
285.919	-7.68
286.134	12.8
286.349	8.7
286.564	-56.83
286.779	98.81
286.995	-1.54
287.21	-24.06
287.425	12.8
287.64	-9.73
287.855	80.38
288.07	-19.97
288.285	115.2
288.5	203.26
288.715	94.72
288.93	123.39
289.145	-19.97
289.36	131.58
289.575	25.09
289.79	82.43
290.004	14.85
290.219	113.15
290.434	35.33
290.649	8.7
290.864	-19.97
291.079	23.04
291.294	64
291.509	100.86
291.724	-42.5
291.938	-5.63
292.153	61.95
292.368	84.48
292.583	129.53
292.798	96.77
293.012	-5.63
293.227	37.38
293.442	74.24
293.657	111.1
293.871	121.34
294.086	74.24
294.301	152.06
294.516	47.62
294.73	37.38
294.945	-5.63
295.16	111.1
295.374	172.54
295.589	135.68
295.804	18.94
296.018	20.99
296.233	76.29
296.447	90.62
296.662	-56.83
296.877	154.11
297.091	80.38
297.306	104.96
297.52	-13.82
297.735	90.62
297.949	74.24
298.164	90.62
298.378	96.77
298.593	12.8
298.807	31.23
299.022	16.9
299.236	170.49
299.451	-44.54
299.665	41.47
299.88	31.23
300.094	147.97
300.309	-26.11
300.523	45.57
300.737	-22.02
300.952	131.58
301.166	25.09
301.381	-69.12
301.595	-17.92
301.809	12.8
302.024	-17.92
302.238	-22.02
302.452	47.62
302.667	72.19
302.881	164.35
303.095	82.43
303.309	-9.73
303.524	41.47
303.738	45.57
303.952	-48.64
304.166	78.33
304.381	-101.89
304.595	115.2
304.809	-81.41
305.023	-32.26
305.237	35.33
305.452	-38.4
305.666	90.62
305.88	88.57
306.094	111.1
306.308	43.52
306.522	131.58
306.736	10.75
306.95	98.81
307.164	33.28
307.379	47.62
307.593	47.62
307.807	55.81
308.021	137.73
308.235	98.81
308.449	-42.5
308.663	98.81
308.877	217.6
309.091	23.04
309.305	64
309.519	-54.78
309.733	129.53
309.947	-15.87
310.161	72.19
310.374	66.05
310.588	254.46
310.802	0.51
311.016	-52.74
311.23	64
311.444	-3.58
311.658	29.18
311.872	133.63
312.085	172.54
312.299	150.01
312.513	98.81
312.727	47.62
312.941	10.75
313.154	-9.73
313.368	33.28
313.582	12.8
313.796	68.09
314.009	-5.63
314.223	164.35
314.437	29.18
314.651	51.71
314.864	23.04
315.078	-34.3
315.292	-5.63
315.505	-3.58
315.719	84.48
315.933	139.77
316.146	61.95
316.36	16.9
316.573	143.87
316.787	86.53
317.001	76.29
317.214	-42.5
317.428	72.19
317.641	-3.58
317.855	31.23
318.068	16.9
318.282	70.14
318.495	246.27
318.709	133.63
318.922	27.14
319.136	170.49
319.349	113.15
319.563	4.61
319.776	86.53
319.99	-30.21
320.203	135.68
320.417	18.94
320.63	137.73
320.843	154.11
321.057	94.72
321.27	39.42
321.483	111.1
321.697	135.68
321.91	-5.63
322.124	64
322.337	53.76
322.55	2.56
322.763	133.63
322.977	-13.82
323.19	90.62
323.403	-3.58
323.617	47.62
323.83	98.81
324.043	-7.68
324.256	90.62
324.469	-62.98
324.683	33.28
324.896	-1.54
325.109	31.23
325.322	-105.98
325.535	178.69
325.748	82.43
325.962	53.76
326.175	82.43
326.388	61.95
326.601	201.21
326.814	29.18
327.027	141.82
327.24	121.34
327.453	-50.69
327.666	98.81
327.879	213.5
328.092	125.44
328.305	2.56
328.518	76.29
328.731	37.38
328.944	23.04
329.157	59.9
329.37	-44.54
329.583	215.55
329.796	135.68
330.009	-36.35
330.222	109.05
330.435	47.62
330.648	51.71
330.861	156.16
331.073	14.85
331.286	131.58
331.499	51.71
331.712	-42.5
331.925	37.38
332.138	-46.59
332.35	184.83
332.563	-24.06
332.776	55.81
332.989	4.61
333.202	-11.78
333.414	66.05
333.627	88.57
333.84	-9.73
334.053	86.53
334.265	25.09
334.478	23.04
334.691	-7.68
334.903	53.76
335.116	57.86
335.329	-26.11
335.541	68.09
335.754	174.59
335.966	59.9
336.179	33.28
336.392	-5.63
336.604	45.57
336.817	170.49
337.029	98.81
337.242	-17.92
337.454	68.09
337.667	64
337.88	123.39
338.092	135.68
338.305	111.1
338.517	-17.92
338.729	51.71
338.942	74.24
339.154	-60.93
339.367	-34.3
339.579	39.42
339.792	-11.78
340.004	55.81
340.217	20.99
340.429	135.68
340.641	18.94
340.854	100.86
341.066	39.42
341.278	107.01
341.491	125.44
341.703	129.53
341.915	-71.17
342.128	156.16
342.34	45.57
342.552	-15.87
342.764	51.71
342.977	-60.93
343.189	109.05
343.401	33.28
343.613	-11.78
343.826	33.28
344.038	-32.26
344.25	86.53
344.462	-56.83
344.674	84.48
344.886	25.09
345.099	90.62
345.311	23.04
345.523	8.7
345.735	-81.41
345.947	61.95
346.159	68.09
346.371	53.76
346.583	90.62
346.795	164.35
347.007	49.66
347.219	107.01
347.431	76.29
347.643	72.19
347.855	88.57
348.067	115.2
348.279	-22.02
348.491	29.18
348.703	70.14
348.915	68.09
349.127	12.8
349.339	107.01
349.551	31.23
349.763	152.06
349.975	4.61
350.187	186.88
350.399	88.57
350.61	25.09
350.822	2.56
351.034	121.34
351.246	61.95
351.458	64
351.669	78.33
351.881	51.71
352.093	117.25
352.305	152.06
352.517	51.71
352.728	129.53
352.94	145.92
353.152	119.29
353.363	-30.21
353.575	41.47
353.787	160.25
353.999	152.06
354.21	160.25
354.422	0.51
354.633	61.95
354.845	18.94
355.057	66.05
355.268	43.52
355.48	98.81
355.692	-1.54
355.903	18.94
356.115	102.91
356.326	-30.21
356.538	121.34
356.749	74.24
356.961	135.68
357.172	49.66
357.384	29.18
357.595	182.78
357.807	-11.78
358.018	33.28
358.23	-22.02
358.441	133.63
358.653	18.94
358.864	31.23
359.075	4.61
359.287	68.09
359.498	186.88
359.709	57.86
359.921	80.38
360.132	43.52
360.344	12.8
360.555	-13.82
360.766	41.47
360.977	14.85
361.189	107.01
361.4	33.28
361.611	92.67
361.823	162.3
362.034	-24.06
362.245	-52.74
362.456	45.57
362.667	121.34
362.879	-50.69
363.09	20.99
363.301	-19.97
363.512	41.47
363.723	14.85
363.935	80.38
364.146	88.57
364.357	59.9
364.568	64
364.779	47.62
364.99	111.1
365.201	-81.41
365.412	104.96
365.623	-54.78
365.834	14.85
366.045	29.18
366.256	90.62
366.467	59.9
366.678	45.57
366.889	-9.73
367.1	53.76
367.311	172.54
367.522	-24.06
367.733	154.11
367.944	121.34
368.155	92.67
368.366	86.53
368.577	145.92
368.788	141.82
368.999	-17.92
369.209	96.77
369.42	215.55
369.631	279.04
369.842	20.99
370.053	4.61
370.264	119.29
370.474	-7.68
370.685	43.52
370.896	33.28
371.107	113.15
371.317	88.57
371.528	-5.63
371.739	113.15
371.95	80.38
372.16	166.4
372.371	-34.3
372.582	2.56
372.792	-52.74
373.003	104.96
373.214	55.81
373.424	109.05
373.635	-24.06
373.846	113.15
374.056	25.09
374.267	117.25
374.477	41.47
374.688	-44.54
374.898	92.67
375.109	82.43
375.319	68.09
375.53	178.69
375.74	98.81
375.951	-13.82
376.161	8.7
376.372	100.86
376.582	78.33
376.793	70.14
377.003	-9.73
377.214	8.7
377.424	107.01
377.635	64
377.845	80.38
378.055	113.15
378.266	4.61
378.476	74.24
378.686	37.38
378.897	49.66
379.107	59.9
379.317	96.77
379.528	-40.45
379.738	125.44
379.948	-38.4
380.158	55.81
380.369	72.19
380.579	107.01
380.789	33.28
380.999	109.05
381.21	117.25
381.42	217.6
381.63	-48.64
381.84	107.01
382.05	135.68
382.261	145.92
382.471	172.54
382.681	61.95
382.891	184.83
383.101	39.42
383.311	-71.17
383.521	33.28
383.731	131.58
383.941	66.05
384.151	70.14
384.361	70.14
384.571	72.19
384.781	70.14
384.991	164.35
385.201	203.26
385.411	39.42
385.621	111.1
385.831	53.76
386.041	12.8
386.251	64
386.461	139.77
386.671	47.62
386.881	111.1
387.091	12.8
387.301	66.05
387.511	-11.78
387.72	109.05
387.93	96.77
388.14	-17.92
388.35	16.9
388.56	129.53
388.769	125.44
388.979	16.9
389.189	-38.4
389.399	45.57
389.609	152.06
389.818	131.58
390.028	12.8
390.238	61.95
390.447	-11.78
390.657	88.57
390.867	64
391.076	-46.59
391.286	96.77
391.496	74.24
391.705	25.09
391.915	137.73
392.125	64
392.334	-22.02
392.544	147.97
392.753	59.9
392.963	41.47
393.172	82.43
393.382	-87.55
393.591	150.01
393.801	6.66
394.01	129.53
394.22	88.57
394.429	66.05
394.639	-9.73
394.848	18.94
395.058	57.86
395.267	43.52
395.477	39.42
395.686	35.33
395.895	244.22
396.105	186.88
396.314	84.48
396.524	68.09
396.733	-1.54
396.942	121.34
397.152	66.05
397.361	107.01
397.57	104.96
397.78	82.43
397.989	47.62
398.198	168.45
398.407	49.66
398.617	-3.58
398.826	31.23
399.035	51.71
399.244	109.05
399.453	31.23
399.663	68.09
399.872	20.99
400.081	-28.16
400.29	244.22
400.499	-3.58
400.708	88.57
400.917	0.51
401.127	59.9
401.336	35.33
401.545	90.62
401.754	145.92
401.963	100.86
402.172	31.23
402.381	-67.07
402.59	18.94
402.799	104.96
403.008	127.49
403.217	4.61
403.426	55.81
403.635	-52.74
403.844	2.56
404.053	-7.68
404.262	33.28
404.471	186.88
404.68	47.62
404.888	94.72
405.097	41.47
405.306	117.25
405.515	131.58
405.724	37.38
405.933	123.39
406.142	100.86
406.35	143.87
406.559	-34.3
406.768	6.66
406.977	180.73
407.185	86.53
407.394	51.71
407.603	-58.88
407.812	92.67
408.02	35.33
408.229	84.48
408.438	68.09
408.646	-22.02
408.855	-24.06
409.064	127.49
409.272	61.95
409.481	90.62
409.69	-40.45
409.898	-9.73
410.107	55.81
410.315	193.02
410.524	-36.35
410.733	45.57
410.941	131.58
411.15	125.44
411.358	88.57
411.567	61.95
411.775	111.1
411.984	61.95
412.192	55.81
412.401	39.42
412.609	160.25
412.818	217.6
413.026	137.73
413.234	78.33
413.443	129.53
413.651	-36.35
413.86	82.43
414.068	115.2
414.276	274.94
414.485	-71.17
414.693	158.21
414.901	233.98
415.11	78.33
415.318	-60.93
415.526	86.53
415.734	164.35
415.943	145.92
416.151	102.91
416.359	12.8
416.567	141.82
416.776	137.73
416.984	82.43
417.192	164.35
417.4	-30.21
417.608	49.66
417.817	-26.11
418.025	131.58
418.233	131.58
418.441	31.23
418.649	64
418.857	86.53
419.065	186.88
419.273	51.71
419.481	12.8
419.689	29.18
419.897	80.38
420.105	-13.82
420.313	188.93
420.521	217.6
420.729	180.73
420.937	78.33
421.145	-34.3
421.353	147.97
421.561	219.64
421.769	88.57
421.977	10.75
422.185	72.19
422.393	55.81
422.601	127.49
422.809	80.38
423.017	109.05
423.224	47.62
423.432	160.25
423.64	27.14
423.848	127.49
424.056	31.23
424.263	113.15
424.471	10.75
424.679	158.21
424.887	-56.83
425.094	184.83
425.302	127.49
425.51	80.38
425.718	137.73
425.925	115.2
426.133	23.04
426.341	213.5
426.548	25.09
426.756	-9.73
426.964	131.58
427.171	55.81
427.379	131.58
427.586	76.29
427.794	127.49
428.001	88.57
428.209	76.29
428.417	238.08
428.624	147.97
428.832	143.87
429.039	72.19
429.247	88.57
429.454	152.06
429.662	178.69
429.869	64
430.076	152.06
430.284	141.82
430.491	295.42
430.699	190.97
430.906	186.88
431.114	117.25
431.321	170.49
431.528	176.64
431.736	178.69
431.943	162.3
432.15	113.15
432.358	180.73
432.565	276.99
432.772	-28.16
432.979	274.94
433.187	78.33
433.394	283.13
433.601	199.16
433.808	248.32
434.016	324.09
434.223	264.7
434.43	272.89
434.637	229.88
434.844	315.9
435.052	301.56
435.259	276.99
435.466	276.99
435.673	354.81
435.88	293.37
436.087	401.91
436.294	385.53
436.501	360.95
436.708	385.53
436.915	393.72
437.122	440.83
437.329	252.41
437.537	440.83
437.743	412.15
437.95	506.36
438.157	442.87
438.364	463.35
438.571	438.78
438.778	541.18
438.985	535.03
439.192	567.8
439.399	514.55
439.606	588.28
439.813	586.23
440.02	739.83
440.227	774.64
440.433	700.92
440.64	625.14
440.847	580.09
441.054	672.25
441.261	872.95
441.467	733.68
441.674	737.78
441.881	844.28
442.088	756.21
442.294	881.14
442.501	946.67
442.708	961.01
442.914	883.19
443.121	993.78
443.328	1110.51
443.534	1092.08
443.741	993.78
443.948	999.92
444.154	1120.75
444.361	1327.6
444.568	1245.68
444.774	1165.81
444.981	1196.53
445.187	1411.56
445.394	1333.74
445.6	1321.45
445.807	1563.11
446.013	1618.41
446.22	1456.62
446.426	1669.61
446.633	1800.68
446.839	1913.31
447.046	1788.39
447.252	1909.22
447.459	2028
447.665	1941.99
447.871	2218.46
448.078	2339.29
448.284	2183.65
448.491	2195.93
448.697	2652.63
448.903	2576.86
449.11	2564.57
449.316	2564.57
449.522	2814.42
449.728	2974.16
449.935	3070.42
450.141	2994.64
450.347	3256.78
450.553	3170.77
450.76	3279.31
450.966	3396.04
451.172	3471.82
451.378	3768.77
451.584	3848.65
451.791	4061.63
451.997	4184.51
452.203	4362.69
452.409	4536.76
452.615	4696.5
452.821	4528.57
453.027	4639.16
453.233	5192.11
453.44	4985.27
453.646	5448.11
453.852	5640.62
454.058	5794.22
454.264	5753.26
454.47	6367.65
454.676	6328.74
454.882	6898.07
455.088	6709.66
455.294	6982.04
455.5	7444.88
455.705	7833.99
455.911	8044.93
456.117	8120.71
456.323	8407.42
456.529	8466.81
456.735	9124.21
456.941	9179.51
457.147	9800.04
457.352	10213.73
457.558	10285.41
457.764	10963.29
457.97	11258.2
458.176	11579.73
458.381	12261.7
458.587	12640.58
458.793	12824.89
458.999	13091.13
459.204	14596.39
459.41	15155.48
459.616	14907.68
459.821	15761.68
460.027	16472.32
460.233	17234.17
460.438	17363.19
460.644	18311.4
460.85	18573.54
461.055	19085.53
461.261	20304.07
461.466	19601.62
461.672	20220.11
461.878	22466.73
462.083	22206.64
462.289	22646.95
462.494	23672.98
462.7	24086.67
462.905	24293.52
463.111	26142.83
463.316	27314.27
463.522	27725.91
463.727	28688.46
463.932	29827.13
464.138	30568.49
464.343	32118.81
464.549	32149.53
464.754	34347
464.959	35241.96
465.165	35622.88
465.37	35776.48
465.575	35614.69
465.781	37894.08
465.986	38813.62
466.191	38424.5
466.397	38766.51
466.602	38107.07
466.807	39753.63
467.012	40822.67
467.218	41518.98
467.423	41623.43
467.628	42561.4
467.833	44549.98
468.038	43663.21
468.244	43065.2
468.449	45598.54
468.654	44511.06
468.859	44187.49
469.064	44314.46
469.269	43233.13
469.474	43595.62
469.679	44744.53
469.885	43589.48
470.09	44502.87
470.295	44420.95
470.5	43530.09
470.705	43542.38
470.91	42555.25
471.115	42035.07
471.32	42600.31
471.525	41856.9
471.73	41064.33
471.935	40873.87
472.139	39309.22
472.344	39456.68
472.549	39319.46
472.754	38322.1
472.959	37429.19
473.164	36317.14
473.369	35950.56
473.574	36904.91
473.778	36171.74
473.983	35395.56
474.188	34682.86
474.393	32948.23
474.598	33009.67
474.802	32061.46
475.007	32129.05
475.212	31531.04
475.417	30502.96
475.621	29995.06
475.826	29947.96
476.031	28768.33
476.235	28424.27
476.44	28516.43
476.645	27672.67
476.849	27263.07
477.054	27000.93
477.259	26529.9
477.463	26155.12
477.668	25391.23
477.872	25698.42
478.077	24684.68
478.282	24121.49
478.486	24332.43
478.691	23830.68
478.895	23849.11
479.1	23281.82
479.304	23236.77
479.509	22118.57
479.713	22878.37
479.918	22409.39
480.122	21692.6
480.326	21833.91
480.531	21758.13
480.735	21547.19
480.94	21049.53
481.144	21770.42
481.348	20732.1
481.553	21084.35
481.757	20142.28
481.961	20324.55
482.166	20754.63
482.37	20226.25
482.574	19962.06
482.778	20031.69
482.983	20007.12
483.187	19585.24
483.391	19486.93
483.595	19368.15
483.8	19017.95
484.004	19026.14
484.208	19042.53
484.412	18604.26
484.616	18417.89
484.821	18204.91
485.025	17742.07
485.229	17877.23
485.433	17811.7
485.637	17338.62
485.841	17103.1
486.045	16804.1
486.249	16644.35
486.453	16345.35
486.657	16392.45
486.861	16281.86
487.065	15194.39
487.269	15548.69
487.473	14913.82
487.677	15194.39
487.881	15001.88
488.085	14518.56
488.289	14364.96
488.493	14094.63
488.697	13844.78
488.901	13793.58
489.105	12857.66
489.309	13150.52
489.512	13031.74
489.716	12505.41
489.92	12523.84
490.124	12212.55
490.328	12294.47
490.531	11680.08
490.735	11608.4
490.939	11333.97
491.143	11147.61
491.346	10821.98
491.55	10889.56
491.754	10615.13
491.958	10627.42
492.161	10262.88
492.365	10146.15
492.569	10000.74
492.772	9871.72
492.976	9759.08
493.18	9625.97
493.383	9539.95
493.587	9335.15
493.79	9339.25
493.994	9118.07
494.197	9107.83
494.401	8884.6
494.605	8763.77
494.808	8862.07
495.012	8663.42
495.215	8669.56
495.419	8520.06
495.622	8485.25
495.825	8391.04
496.029	8341.89
496.232	8434.05
496.436	8278.4
496.639	8427.9
496.843	8305.03
497.046	8212.87
497.249	8454.53
497.453	8348.03
497.656	8087.94
497.859	8270.21
498.063	8329.6
498.266	8495.49
498.469	8358.27
498.673	8133
498.876	8257.92
499.079	8325.5
499.282	8149.38
499.485	8739.19
499.689	8556.93
499.892	8798.59
500.095	8395.14
500.298	8706.43
500.501	8814.97
500.705	8878.46
500.908	8950.14
501.111	8763.77
501.314	8864.12
501.517	9058.68
501.72	9179.51
501.923	9163.12
502.126	9238.9
502.329	9486.7
502.532	9310.58
502.735	9488.75
502.938	9564.53
503.141	9711.98
503.344	9724.27
503.547	9838.95
503.75	9761.13
503.953	10264.93
504.156	10326.37
504.359	10541.41
504.562	10539.36
504.765	10821.98
504.968	10924.38
505.17	11221.33
505.373	11141.46
505.576	11471.18
505.779	11639.12
505.982	11647.31
506.185	12024.14
506.387	12157.25
506.59	12317
506.793	12525.89
506.996	12642.62
507.198	13121.85
507.401	13394.23
507.604	13427
507.807	13840.68
508.009	14307.62
508.212	14182.7
508.415	14663.97
508.617	14825.76
508.82	14922.01
509.022	15053.08
509.225	15921.42
509.428	15839.5
509.63	16156.94
509.833	16351.49
510.035	17058.04
510.238	17422.58
510.44	17783.02
510.643	18350.31
510.845	18540.77
511.048	18737.38
511.25	19527.89
511.453	19810.51
511.655	20445.38
511.858	20826.31
512.06	21135.55
512.262	21528.76
512.465	21907.63
512.667	22747.3
512.87	23064.74
513.072	23517.34
513.274	24232.08
513.477	24520.84
513.679	25147.52
513.881	25456.76
514.084	26196.08
514.286	26706.02
514.488	27029.6
514.69	28233.81
514.893	28704.84
515.095	28950.6
515.297	29655.1
515.499	30089.27
515.701	30521.39
515.904	31639.58
516.106	32335.89
516.308	32653.33
516.51	33603.58
516.712	34015.22
516.914	34711.53
517.116	35198.95
517.318	35575.78
517.52	36493.27
517.722	36990.92
517.925	37836.73
518.127	38313.91
518.329	39260.07
518.531	39468.97
518.733	40816.53
518.935	41279.37
519.136	41557.89
519.338	42061.69
519.54	42745.72
519.742	43599.72
519.944	43898.72
520.146	44736.34
520.348	45727.56
520.55	45866.82
520.752	46237.5
520.954	47038.26
521.155	47408.94
521.357	48312.09
521.559	48461.6
521.761	49374.99
521.963	49606.41
522.164	49725.19
522.366	50110.21
522.568	51097.33
522.77	51447.53
522.971	52100.84
523.173	51422.96
523.375	52178.66
523.576	52231.91
523.778	52291.3
523.98	52768.47
524.181	53153.49
524.383	52887.26
524.584	54058.7
524.786	53544.65
524.988	53411.54
525.189	53817.03
525.391	53882.57
525.592	54161.09
525.794	53948.1
525.995	53685.96
526.197	53962.44
526.398	53722.83
526.6	54017.74
526.801	53755.6
527.003	53862.09
527.204	52838.11
527.406	53714.64
527.607	53143.25
527.808	53110.49
528.01	51588.84
528.211	51793.64
528.412	52580.06
528.614	51599.08
528.815	51355.38
529.016	51341.04
529.218	50372.35
529.419	50380.54
529.62	49344.27
529.822	48953.11
530.023	48697.11
530.224	48693.02
530.425	48140.07
530.626	46927.67
530.828	46991.15
531.029	47408.94
531.23	45676.36
531.431	45422.41
531.632	44808.02
531.833	44566.36
532.035	44308.32
532.236	43798.37
532.437	42917.75
532.638	42209.15
532.839	41934.72
533.04	41682.82
533.241	41037.71
533.442	40779.67
533.643	39993.25
533.844	39376.81
534.045	39104.43
534.246	38258.62
534.447	37842.88
534.648	36964.3
534.849	37048.27
535.05	35944.41
535.251	35958.75
535.451	35205.09
535.652	35182.57
535.853	34287.6
536.054	33726.46
536.255	33943.55
536.456	32811.02
536.657	32837.64
536.857	32303.12
537.058	31871
537.259	31621.15
537.46	30967.85
537.66	30167.09
537.861	30136.37
538.062	29335.62
538.263	29339.71
538.463	28610.64
538.664	28686.41
538.865	28414.03
539.065	28059.73
539.266	27488.35
539.466	27488.35
539.667	26519.66
539.868	26900.58
540.068	26329.2
540.269	25743.48
540.469	25854.07
540.67	25391.23
540.87	25303.17
541.071	24629.38
541.271	24377.48
541.472	24414.35
541.672	23912.6
541.873	23443.61
542.073	23101.6
542.274	23038.11
542.474	22646.95
542.675	22476.97
542.875	22431.91
543.075	22278.32
543.276	21631.16
543.476	21838
543.676	21256.38
543.877	21055.68
544.077	21094.59
544.277	20773.06
544.478	20275.4
544.678	20250.83
544.878	19755.22
545.078	19663.06
545.279	19366.1
545.479	18997.47
545.679	19052.77
545.879	18651.36
546.079	18548.96
546.28	17930.48
546.48	18063.6
546.68	17793.26
546.88	17828.08
547.08	17361.14
547.28	17236.22
547.48	16900.35
547.68	17084.67
547.88	16648.45
548.081	16576.77
548.281	16077.07
548.481	16285.96
548.681	16146.7
548.881	15587.6
549.081	15440.15
549.28	15188.25
549.48	15141.14
549.68	14973.21
549.88	14932.25
550.08	14197.03
550.28	14143.78
550.48	14268.71
550.68	13945.13
550.88	13719.85
551.08	13293.88
551.279	13359.41
551.479	12763.45
551.679	12857.66
551.879	12628.29
552.079	12587.33
552.278	12525.89
552.478	12317
552.678	11977.03
552.878	11798.86
553.077	11618.64
553.277	11286.87
553.477	11286.87
553.676	10983.77
553.876	10893.66
554.076	10686.81
554.275	10529.12
554.475	10250.6
554.674	10371.43
554.874	10193.25
555.074	9834.86
555.273	9693.55
555.473	9566.57
555.672	9486.7
555.872	9357.68
556.071	9152.88
556.271	9009.53
556.47	8800.63
556.67	8608.12
556.869	8530.3
557.068	8309.12
557.268	8216.96
557.467	8214.91
557.667	8214.91
557.866	8006.02
558.065	7647.63
558.265	7780.75
558.464	7584.14
558.663	7575.95
558.863	7149.97
559.062	7037.33
559.261	7061.91
559.461	7068.05
559.66	6697.37
559.859	6842.78
560.058	6525.34
560.258	6443.42
560.457	6388.13
560.656	6312.35
560.855	6232.48
561.054	6246.82
561.253	5958.05
561.453	5861.8
561.652	5671.34
561.851	5802.41
562.05	5640.62
562.249	5484.97
562.448	5501.36
562.647	5194.16
562.846	5431.73
563.045	5251.5
563.244	5058.99
563.443	5196.21
563.642	4987.32
563.841	5034.42
564.04	4829.62
564.239	4733.37
564.438	4764.09
564.637	4696.5
564.836	4547
565.035	4391.36
565.234	4440.51
565.432	4370.88
565.631	4315.58
565.83	4215.23
566.029	4209.09
566.228	4047.3
566.427	4151.74
566.625	4045.25
566.824	3832.26
567.023	3891.65
567.222	3787.21
567.42	3729.86
567.619	3695.05
567.818	3727.82
568.016	3709.38
568.215	3688.9
568.414	3658.18
568.612	3428.81
568.811	3412.43
569.01	3430.86
569.208	3215.82
569.407	3355.08
569.605	3236.3
569.804	3162.58
570.002	3158.48
570.201	3174.86
570.4	3140.05
570.598	2951.63
570.797	3013.07
570.995	2941.4
571.193	2961.87
571.392	2816.47
571.59	2716.12
571.789	2802.13
571.987	2671.06
572.186	2793.94
572.384	2712.02
572.582	2611.67
572.781	2693.59
572.979	2437.59
573.177	2695.64
573.376	2480.6
573.574	2396.64
573.772	2353.63
573.971	2376.16
574.169	2206.17
574.367	2271.71
574.565	2197.98
574.763	2191.84
574.962	2136.54
575.16	2181.6
575.358	2105.82
575.556	2023.91
575.754	2167.26
575.952	1984.99
576.151	1905.12
576.349	1952.23
576.547	1866.21
576.745	1991.14
576.943	1870.31
577.141	1800.68
577.339	1747.43
577.537	1704.42
577.735	1837.54
577.933	1772
578.131	1591.78
578.329	1909.22
578.527	1704.42
578.725	1759.72
578.923	1534.44
579.121	1622.5
579.319	1376.75
579.516	1477.1
579.714	1597.93
579.912	1477.1
580.11	1337.84
580.308	1376.75
580.506	1319.4
580.704	1253.87
580.901	1366.51
581.099	1384.94
581.297	1374.7
581.495	1362.41
581.692	1288.68
581.89	1409.51
582.088	1229.29
582.285	1180.14
582.483	1169.9
582.681	1128.94
582.878	1128.94
583.076	1251.82
583.274	1122.8
583.471	1241.58
583.669	1094.13
583.866	1024.5
584.064	1079.79
584.262	983.54
584.459	1096.18
584.657	1085.94
584.854	1053.17
585.052	1092.08
585.249	1055.22
585.447	954.87
585.644	907.76
585.841	1065.46
586.039	1034.74
586.236	946.67
586.434	846.32
586.631	909.81
586.828	872.95
587.026	817.65
587.223	831.99
587.42	770.55
587.618	877.04
587.815	969.2
588.012	801.27
588.21	707.06
588.407	891.38
588.604	850.42
588.801	670.2
588.999	682.49
589.196	750.07
589.393	709.11
589.59	776.69
589.787	778.74
589.984	782.84
590.182	795.12
590.379	770.55
590.576	756.21
590.773	776.69
590.97	842.23
591.167	766.45
591.364	817.65
591.561	752.12
591.758	868.85
591.955	715.25
592.152	651.77
592.349	627.19
592.546	686.58
592.743	694.77
592.94	719.35
593.137	745.97
593.334	752.12
593.531	807.41
593.727	684.53
593.924	793.08
594.121	696.82
594.318	682.49
594.515	696.82
594.712	956.91
594.908	852.47
595.105	723.44
595.302	729.59
595.499	766.45
595.696	965.11
595.892	717.3
596.089	946.67
596.286	899.57
596.482	936.43
596.679	889.33
596.876	854.51
597.072	991.73
597.269	883.19
597.466	1063.41
597.662	924.15
597.859	1026.54
598.055	1065.46
598.252	1069.55
598.448	1198.57
598.645	1174
598.841	1251.82
599.038	1311.21
599.234	1393.13
599.431	1477.1
599.627	1454.57
599.824	1380.84
600.02	1479.15
600.217	1450.47
600.413	1493.48
600.609	1675.75
600.806	1864.16
601.002	1782.24
601.198	1747.43
601.395	1903.07
601.591	2058.72
601.787	2097.63
601.984	2105.82
602.18	2206.17
602.376	2228.7
602.572	2240.99
602.769	2517.47
602.965	2507.23
603.161	2640.34
603.357	2757.08
603.553	2859.48
603.75	2818.52
603.946	3172.82
604.142	3066.32
604.338	3271.12
604.534	3189.2
604.73	3586.51
604.926	3465.68
605.122	3791.3
605.318	3559.88
605.514	3965.38
605.71	3998.15
605.906	4194.75
606.102	4139.46
606.298	4297.15
606.494	4504
606.69	4633.02
606.886	4823.48
607.082	4714.94
607.278	4872.63
607.474	5091.76
607.67	5286.32
607.866	5333.42
608.062	5728.68
608.257	5747.11
608.453	5714.34
608.649	6048.16
608.845	6074.79
609.041	6179.23
609.236	6508.96
609.432	6699.42
609.628	6869.4
609.824	7154.07
610.019	7231.89
610.215	7395.73
610.411	7856.52
610.606	7844.23
610.802	8010.12
610.998	8161.67
611.193	8487.29
611.389	8548.73
611.584	8798.59
611.78	8698.24
611.976	9361.78
612.171	9697.64
612.367	9855.34
612.562	10180.96
612.758	10129.77
612.953	10522.98
613.149	10924.38
613.344	11045.21
613.539	11561.3
613.735	11772.24
613.93	11862.35
614.126	12200.26
614.321	12882.24
614.517	12958.01
614.712	13383.99
614.907	13599.02
615.103	14141.74
615.298	14342.44
615.493	14663.97
615.688	14817.57
615.884	15702.29
616.079	15634.71
616.274	16275.72
616.47	16288.01
616.665	17070.33
616.86	17477.88
617.055	17701.11
617.25	18329.83
617.445	19009.76
617.641	19005.66
617.836	19890.38
618.031	19964.11
618.226	20928.7
618.421	21397.69
618.616	21782.71
618.811	22077.62
619.006	22591.66
619.201	22925.47
619.396	23539.86
619.591	23333.02
619.786	24981.63
619.981	24891.52
620.176	25626.74
620.371	25811.06
620.566	26413.16
620.761	27009.12
620.956	27752.54
621.151	28080.21
621.346	28756.04
621.541	29061.19
621.735	30298.16
621.93	30036.02
622.125	30746.67
622.32	30978.09
622.515	31850.52
622.709	32127
622.904	32972.81
623.099	33658.88
623.294	34621.42
623.488	34570.22
623.683	35053.55
623.878	35180.52
624.072	36507.6
624.267	36876.24
624.462	37308.36
624.656	37679.04
624.851	38617.01
625.046	38981.55
625.24	39667.62
625.435	39784.35
625.629	40331.16
625.824	40877.97
626.018	41561.99
626.213	41336.71
626.407	42024.83
626.602	42518.39
626.796	43415.4
626.991	43249.52
627.185	43560.81
627.38	43892.58
627.574	44013.41
627.768	44463.96
627.963	44679
628.157	44838.74
628.352	45254.48
628.546	44298.08
628.74	44973.91
628.935	44891.99
629.129	44877.65
629.323	43827.04
629.517	44124
629.712	44015.46
629.906	43550.57
630.1	42956.66
630.294	42991.47
630.489	42129.28
630.683	41879.42
630.877	40755.09
631.071	40394.65
631.265	39661.47
631.459	38608.82
631.653	37750.72
631.848	37382.09
632.042	35903.45
632.236	35649.5
632.43	33853.44
632.624	33277.96
632.818	32030.74
633.012	30869.54
633.206	30146.61
633.4	29605.95
633.594	28366.93
633.788	27377.76
633.982	26253.42
634.176	25657.46
634.369	24359.05
634.563	23290.01
634.757	22470.83
634.951	21930.16
635.145	20986.05
635.339	19990.73
635.533	19251.42
635.726	18583.78
635.92	17770.74
636.114	16941.31
636.308	16335.11
636.501	15765.78
636.695	15296.79
636.889	14414.12
637.083	14117.16
637.276	13113.66
637.47	12669.25
637.664	12355.91
637.857	11762
638.051	11258.2
638.244	10813.79
638.438	10559.84
638.632	10103.14
638.825	9548.14
639.019	9320.82
639.212	8724.86
639.406	8518.01
639.599	8106.37
639.793	7920.01
639.986	7440.78
640.18	7254.42
640.373	7033.24
640.567	6476.19
640.76	6527.39
640.954	6130.08
641.147	5935.53
641.34	5677.48
641.534	5573.03
641.727	5444.01
641.92	5134.77
642.114	4950.45
642.307	4671.93
642.5	4600.25
642.694	4360.64
642.887	4237.76
643.08	4207.04
643.273	4022.72
643.467	3682.76
643.66	3451.34
643.853	3355.08
644.046	3244.49
644.239	3312.08
644.432	2927.06
644.626	2714.07
644.819	2886.1
645.012	2759.13
645.205	2699.73
645.398	2484.7
645.591	2462.17
645.784	2302.43
645.977	2212.32
646.17	2042.34
646.363	1966.56
646.556	1925.6
646.749	1925.6
646.942	1890.79
647.135	1694.18
647.328	1726.95
647.521	1729
647.714	1495.53
647.907	1569.26
648.099	1382.89
648.292	1466.86
648.485	1483.24
648.678	1413.61
648.871	1233.39
649.064	1331.69
649.256	1137.13
649.449	1079.79
649.642	993.78
649.835	1063.41
650.027	956.91
650.22	1038.83
650.413	1036.78
650.605	932.34
650.798	907.76
650.991	823.8
651.183	860.66
651.376	885.23
651.568	834.04
651.761	688.63
651.954	743.92
652.146	608.76
652.339	801.27
652.531	774.64
652.724	541.18
652.916	537.08
653.109	461.3
653.301	723.44
653.494	688.63
653.686	575.99
653.879	670.2
654.071	543.22
654.263	440.83
654.456	489.98
654.648	518.65
654.84	606.71
655.033	479.74
655.225	489.98
655.417	317.95
655.61	641.53
655.802	432.63
655.994	563.7
656.186	363
656.379	489.98
656.571	301.56
656.763	356.86
656.955	365.05
657.148	434.68
657.34	414.2
657.532	332.28
657.724	350.71
657.916	348.67
658.108	512.5
658.3	389.63
658.492	307.71
658.684	164.35
658.876	272.89
659.068	244.22
659.26	150.01
659.452	154.11
659.644	315.9
659.836	389.63
660.028	305.66
660.22	246.27
660.412	182.78
660.604	256.51
660.796	231.93
660.988	262.65
661.18	154.11
661.372	317.95
661.563	186.88
661.755	244.22
661.947	100.86
662.139	127.49
662.331	215.55
662.522	221.69
662.714	152.06
662.906	141.82
663.097	197.12
663.289	127.49
663.481	111.1
663.673	145.92
663.864	145.92
664.056	250.36
664.247	25.09
664.439	248.32
664.631	231.93
664.822	197.12
665.014	133.63
665.205	143.87
665.397	129.53
665.588	170.49
665.78	141.82
665.971	184.83
666.163	119.29
666.354	272.89
666.546	18.94
666.737	90.62
666.929	164.35
667.12	68.09
667.311	129.53
667.503	141.82
667.694	109.05
667.885	111.1
668.077	166.4
668.268	80.38
668.459	135.68
668.651	219.64
668.842	182.78
669.033	76.29
669.224	70.14
669.416	332.28
669.607	94.72
669.798	100.86
669.989	193.02
670.18	43.52
670.371	117.25
670.563	-15.87
670.754	168.45
670.945	174.59
671.136	162.3
671.327	64
671.518	184.83
671.709	231.93
671.9	135.68
672.091	203.26
672.282	119.29
672.473	211.45
672.664	33.28
672.855	82.43
673.046	186.88
673.237	176.64
673.428	113.15
673.619	152.06
673.809	123.39
674	180.73
674.191	152.06
674.382	78.33
674.573	98.81
674.764	141.82
674.954	231.93
675.145	94.72
675.336	27.14
675.527	10.75
675.717	25.09
675.908	68.09
676.099	98.81
676.289	121.34
676.48	-71.17
676.671	100.86
676.861	113.15
677.052	219.64
677.243	125.44
677.433	119.29
677.624	203.26
677.814	100.86
678.005	78.33
678.195	238.08
678.386	98.81
678.576	23.04
678.767	64
678.957	139.77
679.148	254.46
679.338	227.84
679.529	209.4
679.719	-7.68
679.909	211.45
680.1	172.54
680.29	96.77
680.481	-15.87
680.671	170.49
680.861	115.2
681.052	109.05
681.242	74.24
681.432	170.49
681.622	145.92
681.813	61.95
682.003	133.63
682.193	92.67
682.383	133.63
682.573	29.18
682.764	41.47
682.954	164.35
683.144	195.07
683.334	182.78
683.524	80.38
683.714	229.88
683.904	190.97
684.094	98.81
684.284	188.93
684.474	356.86
684.664	184.83
684.854	168.45
685.044	129.53
685.234	162.3
685.424	135.68
685.614	64
685.804	299.52
685.994	178.69
686.184	154.11
686.374	178.69
686.564	188.93
686.753	160.25
686.943	100.86
687.133	190.97
687.323	162.3
687.513	203.26
687.702	121.34
687.892	125.44
688.082	287.23
688.272	227.84
688.461	117.25
688.651	305.66
688.841	246.27
689.03	162.3
689.22	125.44
689.41	176.64
689.599	227.84
689.789	96.77
689.979	238.08
690.168	66.05
690.358	164.35
690.547	109.05
690.737	176.64
690.926	213.5
691.116	219.64
691.305	223.74
691.495	233.98
691.684	70.14
691.874	27.14
692.063	137.73
692.252	197.12
692.442	195.07
692.631	109.05
692.82	147.97
693.01	170.49
693.199	139.77
693.388	139.77
693.578	164.35
693.767	219.64
693.956	236.03
694.146	145.92
694.335	250.36
694.524	186.88
694.713	197.12
694.902	115.2
695.092	111.1
695.281	291.32
695.47	127.49
695.659	100.86
695.848	115.2
696.037	154.11
696.226	133.63
696.415	193.02
696.604	203.26
696.793	164.35
696.982	188.93
697.171	297.47
697.36	102.91
697.549	125.44
697.738	51.71
697.927	176.64
698.116	70.14
698.305	205.31
698.494	156.16
698.683	33.28
698.872	279.04
699.061	186.88
699.25	174.59
699.438	133.63
699.627	180.73
699.816	233.98
700.005	57.86
700.193	98.81
700.382	145.92
700.571	242.17
700.76	223.74
700.948	233.98
701.137	152.06
701.326	199.16
701.514	147.97
701.703	291.32
701.892	229.88
702.08	313.85
702.269	135.68
702.457	131.58
702.646	139.77
702.834	156.16
703.023	188.93
703.212	172.54
703.4	129.53
703.589	127.49
703.777	166.4
703.965	150.01
704.154	139.77
704.342	72.19
704.531	113.15
704.719	193.02
704.907	231.93
705.096	6.66
705.284	156.16
705.472	211.45
705.661	186.88
705.849	164.35
706.037	219.64
706.226	117.25
706.414	233.98
706.602	139.77
706.79	246.27
706.979	127.49
707.167	158.21
707.355	55.81
707.543	252.41
707.731	129.53
707.919	164.35
708.107	109.05
708.296	121.34
708.484	57.86
708.672	135.68
708.86	184.83
709.048	145.92
709.236	72.19
709.424	221.69
709.612	125.44
709.8	55.81
709.988	170.49
710.176	207.36
710.364	213.5
710.551	98.81
710.739	145.92
710.927	164.35
711.115	158.21
711.303	201.21
711.491	291.32
711.679	72.19
711.866	178.69
712.054	82.43
712.242	264.7
712.43	281.08
712.617	166.4
712.805	246.27
712.993	100.86
713.181	29.18
713.368	184.83
713.556	178.69
713.744	90.62
713.931	295.42
714.119	201.21
714.306	121.34
714.494	176.64
714.682	162.3
714.869	0.51
715.057	125.44
715.244	143.87
715.432	170.49
715.619	80.38
715.807	80.38
715.994	109.05
716.182	150.01
716.369	256.51
716.556	211.45
716.744	131.58
716.931	14.85
717.119	168.45
717.306	143.87
717.493	213.5
717.681	111.1
717.868	96.77
718.055	201.21
718.242	145.92
718.43	186.88
718.617	248.32
718.804	121.34
718.991	252.41
719.179	225.79
719.366	172.54
719.553	213.5
719.74	217.6
719.927	154.11
720.114	127.49
720.301	92.67
720.488	59.9
720.676	96.77
720.863	342.52
721.05	344.57
721.237	176.64
721.424	209.4
721.611	229.88
721.798	143.87
721.985	152.06
722.172	188.93
722.358	221.69
722.545	262.65
722.732	250.36
722.919	293.37
723.106	227.84
723.293	127.49
723.48	184.83
723.667	180.73
723.853	203.26
724.04	248.32
724.227	262.65
724.414	193.02
724.6	182.78
724.787	338.43
724.974	291.32
725.161	127.49
725.347	223.74
725.534	168.45
725.72	217.6
725.907	260.6
726.094	219.64
726.28	190.97
726.467	158.21
726.653	166.4
726.84	356.86
727.027	381.43
727.213	152.06
727.4	268.8
727.586	248.32
727.773	248.32
727.959	150.01
728.145	197.12
728.332	186.88
728.518	137.73
728.705	264.7
728.891	197.12
729.077	229.88
729.264	119.29
729.45	211.45
729.636	305.66
729.823	219.64
730.009	236.03
730.195	207.36
730.382	172.54
730.568	199.16
730.754	252.41
730.94	229.88
731.126	193.02
731.313	209.4
731.499	264.7
731.685	311.8
731.871	264.7
732.057	217.6
732.243	205.31
732.429	246.27
732.615	268.8
732.801	260.6
732.987	164.35
733.173	221.69
733.359	166.4
733.545	229.88
733.731	133.63
733.917	291.32
734.103	266.75
734.289	276.99
734.475	178.69
734.661	297.47
734.847	199.16
735.033	258.56
735.219	252.41
735.404	195.07
735.59	164.35
735.776	156.16
735.962	213.5
736.148	268.8
736.333	354.81
736.519	215.55
736.705	184.83
736.89	211.45
737.076	201.21
737.262	92.67
737.447	141.82
737.633	221.69
737.819	297.47
738.004	180.73
738.19	219.64
738.375	238.08
738.561	336.38
738.747	236.03
738.932	145.92
739.118	383.48
739.303	311.8
739.489	281.08
739.674	88.57
739.859	164.35
740.045	266.75
740.23	197.12
740.416	66.05
740.601	172.54
740.786	295.42
740.972	193.02
741.157	199.16
741.342	111.1
741.528	184.83
741.713	299.52
741.898	186.88
742.084	231.93
742.269	129.53
742.454	270.84
742.639	328.19
742.824	129.53
743.01	309.76
743.195	330.23
743.38	215.55
743.565	123.39
743.75	240.12
743.935	299.52
744.12	307.71
744.305	209.4
744.49	229.88
744.675	174.59
744.86	201.21
745.045	285.18
745.23	231.93
745.415	180.73
745.6	430.59
745.785	135.68
745.97	311.8
746.155	176.64
746.34	274.94
746.525	311.8
746.71	276.99
746.895	104.96
747.079	129.53
747.264	221.69
747.449	207.36
747.634	211.45
747.819	289.28
748.003	168.45
748.188	98.81
748.373	283.13
748.557	195.07
748.742	287.23
748.927	162.3
749.111	137.73
749.296	141.82
749.481	274.94
749.665	139.77
749.85	131.58
750.034	252.41
750.219	201.21
750.404	129.53
750.588	240.12
750.773	109.05
750.957	127.49
751.141	166.4
751.326	201.21
751.51	37.38
751.695	109.05
751.879	215.55
752.064	320
752.248	145.92
752.432	264.7
752.617	215.55
752.801	152.06
752.985	188.93
753.17	219.64
753.354	213.5
753.538	182.78
753.722	125.44
753.907	156.16
754.091	70.14
754.275	143.87
754.459	164.35
754.643	109.05
754.828	182.78
755.012	285.18
755.196	78.33
755.38	186.88
755.564	86.53
755.748	164.35
755.932	201.21
756.116	119.29
756.3	117.25
756.484	102.91
756.668	186.88
756.852	-36.35
757.036	53.76
757.22	72.19
757.404	33.28
757.588	98.81
757.772	78.33
757.956	160.25
758.14	295.42
758.323	156.16
758.507	100.86
758.691	57.86
758.875	154.11
759.059	131.58
759.242	102.91
759.426	158.21
759.61	121.34
759.794	31.23
759.977	221.69
760.161	430.59
760.345	117.25
760.528	285.18
760.712	158.21
760.895	102.91
761.079	135.68
761.263	-11.78
761.446	70.14
761.63	84.48
761.813	199.16
761.997	-5.63
762.18	76.29
762.364	123.39
762.547	-44.54
762.731	172.54
762.914	190.97
763.098	25.09
763.281	127.49
763.464	94.72
763.648	147.97
763.831	23.04
764.015	41.47
764.198	154.11
764.381	59.9
764.564	145.92
764.748	131.58
764.931	121.34
765.114	127.49
765.297	195.07
765.481	31.23
765.664	49.66
765.847	66.05
766.03	160.25
766.213	4.61
766.397	49.66
766.58	23.04
766.763	94.72
766.946	47.62
767.129	59.9
767.312	70.14
767.495	88.57
767.678	31.23
767.861	80.38
768.044	145.92
768.227	76.29
768.41	-40.45
768.593	107.01
768.776	94.72
768.959	25.09
769.142	92.67
769.324	-40.45
769.507	-9.73
769.69	78.33
769.873	121.34
770.056	199.16
770.239	61.95
770.421	205.31
770.604	133.63
770.787	64
770.97	119.29
771.152	-11.78
771.335	104.96
771.518	0.51
771.7	84.48
771.883	170.49
772.066	-28.16
772.248	121.34
772.431	166.4
772.613	86.53
772.796	4.61
772.978	115.2
773.161	68.09
773.343	45.57
773.526	2.56
773.708	-95.74
773.891	29.18
774.073	25.09
774.256	82.43
774.438	170.49
774.621	12.8
774.803	59.9
774.985	-17.92
775.168	107.01
775.35	125.44
775.532	100.86
775.715	10.75
775.897	53.76
776.079	12.8
776.261	39.42
776.444	86.53
776.626	102.91
776.808	20.99
776.99	-5.63
777.173	64
777.355	98.81
777.537	49.66
777.719	129.53
777.901	64
778.083	20.99
778.265	107.01
778.447	129.53
778.629	2.56
778.811	31.23
778.993	133.63
779.175	88.57
779.357	66.05
779.539	27.14
779.721	37.38
779.903	55.81
780.085	47.62
780.267	55.81
780.449	10.75
780.631	109.05
780.812	150.01
780.994	51.71
781.176	35.33
781.358	57.86
781.54	121.34
781.721	123.39
781.903	70.14
782.085	23.04
782.267	92.67
782.448	-62.98
782.63	33.28
782.812	76.29
782.993	59.9
783.175	121.34
783.357	88.57
783.538	29.18
783.72	35.33
783.901	72.19
784.083	92.67
784.264	37.38
784.446	-3.58
784.627	-11.78
784.809	111.1
784.99	-62.98
785.172	111.1
785.353	27.14
785.535	109.05
785.716	-9.73
785.897	35.33
786.079	18.94
786.26	74.24
786.441	59.9
786.623	-30.21
786.804	-40.45
786.985	-34.3
787.167	115.2
787.348	29.18
787.529	14.85
787.71	152.06
787.891	66.05
788.073	-19.97
788.254	-87.55
788.435	162.3
788.616	53.76
788.797	-30.21
788.978	-1.54
789.159	-7.68
789.34	57.86
789.522	59.9
789.703	-9.73
789.884	133.63
790.065	84.48
790.246	203.26
790.427	16.9
790.607	78.33
790.788	31.23
790.969	-17.92
791.15	55.81
791.331	-42.5
791.512	-24.06
791.693	-91.65
791.874	12.8
792.054	160.25
792.235	-3.58
792.416	-46.59
792.597	-62.98
792.778	102.91
792.958	88.57
793.139	31.23
793.32	78.33
793.5	18.94
793.681	125.44
793.862	29.18
794.042	43.52
794.223	-34.3
794.404	29.18
794.584	-71.17
794.765	-13.82
794.945	-32.26
795.126	2.56
795.306	72.19
795.487	-5.63
795.667	27.14
795.848	-15.87
796.028	2.56
796.209	-44.54
796.389	131.58
796.57	0.51
796.75	20.99
796.93	76.29
797.111	-28.16
797.291	33.28
797.471	131.58
797.652	-40.45
797.832	-69.12
798.012	109.05
798.192	-50.69
798.373	-95.74
798.553	2.56
798.733	59.9
798.913	-38.4
799.093	-9.73
799.274	35.33
799.454	88.57
799.634	180.73
799.814	80.38
799.994	66.05
800.174	16.9
800.354	-50.69
800.534	-46.59
800.714	78.33
800.894	-56.83
801.074	-11.78
801.254	-108.03
801.434	82.43
801.614	-36.35
801.794	-26.11
801.974	1919.46
802.154	-46.59
802.334	117.25
802.514	-52.74
802.693	-22.02
802.873	-5.63
803.053	98.81
803.233	0.51
803.413	-48.64
803.592	-62.98
803.772	20.99
803.952	98.81
804.131	-46.59
804.311	43.52
804.491	41.47
804.67	14.85
804.85	-50.69
805.03	33.28
805.209	98.81
805.389	10.75
805.568	-87.55
805.748	16.9
805.928	-17.92
806.107	6.66
806.287	59.9
806.466	6.66
806.646	74.24
806.825	-40.45
807.004	49.66
807.184	43.52
807.363	51.71
807.543	33.28
807.722	16.9
807.901	117.25
808.081	57.86
808.26	-93.69
808.439	4.61
808.619	76.29
808.798	-1.54
808.977	70.14
809.156	102.91
809.336	18.94
809.515	45.57
809.694	-60.93
809.873	-118.27
810.052	61.95
810.231	139.77
810.411	14.85
810.59	70.14
810.769	66.05
810.948	61.95
811.127	-50.69
811.306	-48.64
811.485	-40.45
811.664	82.43
811.843	-65.02
812.022	4.61
812.201	-13.82
812.38	-22.02
812.559	-46.59
812.737	64
812.916	-34.3
813.095	2.56
813.274	64
813.453	35.33
813.632	33.28
813.811	49.66
813.989	-130.56
814.168	20.99
814.347	-56.83
814.526	12.8
814.704	74.24
814.883	45.57
815.062	-60.93
815.24	115.2
815.419	2.56
815.598	-3.58
815.776	-79.36
815.955	-26.11
816.133	-91.65
816.312	20.99
816.49	-40.45
816.669	37.38
816.847	-15.87
817.026	-7.68
817.204	35.33
817.383	-19.97
817.561	-99.84
817.74	57.86
817.918	-30.21
818.097	-3.58
818.275	-73.21
818.453	2.56
818.632	14.85
818.81	29.18
818.988	-9.73
819.167	-85.5
819.345	8.7
819.523	0.51
819.701	12.8
819.879	82.43
820.058	-30.21
820.236	47.62
820.414	74.24
820.592	57.86
820.77	-44.54
820.948	-9.73
821.127	-28.16
821.305	57.86
821.483	-26.11
821.661	64
821.839	23.04
822.017	-40.45
822.195	-46.59
822.373	111.1
822.551	66.05
822.729	90.62
822.907	-13.82
823.085	68.09
823.262	45.57
823.44	-75.26
823.618	-15.87
823.796	10.75
823.974	-40.45
824.152	-67.07
824.329	-19.97
824.507	57.86
824.685	72.19
824.863	64
825.04	-9.73
825.218	-1.54
825.396	14.85
825.574	-9.73
825.751	20.99
825.929	41.47
826.107	23.04
826.284	23.04
826.462	47.62
826.639	-71.17
826.817	-87.55
826.994	-44.54
827.172	-77.31
827.349	203.26
827.527	78.33
827.704	10.75
827.882	66.05
828.059	-50.69
828.237	-32.26
828.414	-11.78
828.591	-46.59
828.769	8.7
828.946	-91.65
829.124	68.09
829.301	150.01
829.478	-15.87
829.655	35.33
829.833	4.61
830.01	-71.17
830.187	39.42
830.364	27.14
830.542	61.95
830.719	102.91
830.896	98.81
831.073	49.66
831.25	143.87
831.427	10.75
831.604	29.18
831.782	-32.26
831.959	49.66
832.136	-42.5
832.313	20.99
832.49	8.7
832.667	78.33
832.844	16.9
833.021	102.91
833.198	-3.58
833.374	-26.11
833.551	4.61
833.728	4.61
833.905	6.66
834.082	-89.6
834.259	64
834.436	76.29
834.612	53.76
834.789	4.61
834.966	78.33
835.143	37.38
835.319	-69.12
835.496	10.75
835.673	-44.54
835.85	107.01
836.026	-1.54
836.203	23.04
836.38	-3.58
836.556	47.62
836.733	-62.98
836.909	137.73
837.086	8.7
837.262	-153.09
837.439	8.7
837.616	-22.02
837.792	-60.93
837.968	51.71
838.145	-67.07
838.321	45.57
838.498	4.61
838.674	88.57
838.851	2.56
839.027	-60.93
839.203	143.87
839.38	53.76
839.556	-46.59
839.732	70.14
839.909	23.04
840.085	53.76
840.261	-60.93
840.437	39.42
840.614	-13.82
840.79	70.14
840.966	154.11
841.142	45.57
841.318	-79.36
841.494	35.33
841.671	68.09
841.847	-77.31
842.023	8.7
842.199	-17.92
842.375	154.11
842.551	-126.46
842.727	-34.3
842.903	100.86
843.079	-91.65
843.255	49.66
843.431	-7.68
843.607	-50.69
843.783	-151.04
843.959	29.18
844.134	-15.87
844.31	84.48
844.486	-73.21
844.662	-28.16
844.838	39.42
845.013	35.33
845.189	109.05
845.365	-30.21
845.541	51.71
845.716	-32.26
845.892	29.18
846.068	-19.97
846.244	-7.68
846.419	100.86
846.595	-79.36
846.77	-108.03
846.946	96.77
847.122	-19.97
847.297	-17.92
847.473	55.81
847.648	-48.64
847.824	35.33
847.999	-77.31
848.175	-9.73
848.35	94.72
848.526	64
848.701	96.77
848.876	14.85
849.052	102.91
849.227	33.28
849.403	45.57
849.578	31.23
849.753	10.75
849.929	-42.5
850.104	-93.69
850.279	-9.73
850.454	-7.68
850.63	84.48
850.805	90.62
850.98	-52.74
851.155	51.71
851.33	12.8
851.505	-42.5
851.681	45.57
851.856	-89.6
852.031	16.9
852.206	139.77
852.381	-153.09
852.556	-26.11
852.731	68.09
852.906	107.01
853.081	-32.26
853.256	37.38
853.431	2.56
853.606	-26.11
853.781	-44.54
853.956	10.75
854.131	-11.78
854.305	-36.35
854.48	-40.45
854.655	-28.16
854.83	-58.88
855.005	35.33
855.18	53.76
855.354	-32.26
855.529	88.57
855.704	-81.41
855.879	4.61
856.053	23.04
856.228	8.7
856.403	-30.21
856.577	66.05
856.752	-116.22
856.926	-19.97
857.101	0.51
857.276	-7.68
857.45	18.94
857.625	41.47
857.799	47.62
857.974	-11.78
858.148	-130.56
858.323	12.8
858.497	45.57
858.672	-56.83
858.846	-142.85
859.02	98.81
859.195	-134.65
859.369	-19.97
859.543	-17.92
859.718	6.66
859.892	-48.64
860.066	27.14
860.241	-56.83
860.415	-54.78
860.589	14.85
860.763	-54.78
860.938	-24.06
861.112	47.62
861.286	-87.55
861.46	31.23
861.634	0.51
861.808	98.81
861.982	-87.55
862.157	-79.36
862.331	-79.36
862.505	-103.93
862.679	-116.22
862.853	-19.97
863.027	-22.02
863.201	115.2
863.375	29.18
863.549	-19.97
863.722	45.57
863.896	80.38
864.07	-69.12
864.244	-56.83
864.418	49.66
864.592	-9.73
864.766	43.52
864.939	-9.73
865.113	-65.02
865.287	117.25
865.461	-44.54
865.634	6.66
865.808	45.57
865.982	-46.59
866.156	-105.98
866.329	-58.88
866.503	-1.54
866.676	119.29
866.85	-1.54
867.024	-9.73
867.197	109.05
867.371	12.8
867.544	-24.06
867.718	-161.28
867.891	123.39
868.065	-93.69
868.238	-40.45
868.412	139.77
868.585	49.66
868.759	-71.17
868.932	-46.59
869.105	-124.41
869.279	68.09
869.452	-36.35
869.625	68.09
869.799	-9.73
869.972	-118.27
870.145	4.61
870.319	111.1
870.492	-17.92
870.665	-22.02
870.838	-28.16
871.011	-153.09
871.185	-22.02
871.358	-42.5
871.531	-7.68
871.704	76.29
871.877	-58.88
872.05	-46.59
872.223	-120.32
872.396	29.18
872.569	76.29
872.742	-120.32
872.915	-1.54
873.088	-54.78
873.261	8.7
873.434	0.51
873.607	-58.88
873.78	137.73
873.953	-101.89
874.126	16.9
874.299	53.76
874.471	-22.02
874.644	-30.21
874.817	20.99
874.99	170.49
875.163	0.51
875.335	64
875.508	-28.16
875.681	115.2
875.853	-11.78
876.026	-38.4
876.199	18.94
876.371	-50.69
876.544	-36.35
876.717	51.71
876.889	-7.68
877.062	25.09
877.234	-114.17
877.407	-36.35
877.579	39.42
877.752	25.09
877.924	59.9
878.097	0.51
878.269	8.7
878.442	59.9
878.614	27.14
878.786	-22.02
878.959	-71.17
879.131	29.18
879.303	-165.37
879.476	-5.63
879.648	59.9
879.82	-11.78
879.993	-46.59
880.165	6.66
880.337	-87.55
880.509	-19.97
880.681	-42.5
880.854	-30.21
881.026	86.53
881.198	147.97
881.37	-1.54
881.542	31.23
881.714	12.8
881.886	-50.69
882.058	-22.02
882.23	35.33
882.402	49.66
882.574	10.75
882.746	86.53
882.918	33.28
883.09	74.24
883.262	35.33
883.434	98.81
883.606	-97.79
883.778	-30.21
883.95	80.38
884.122	-48.64
884.293	66.05
884.465	2.56
884.637	12.8
884.809	-36.35
884.98	-28.16
885.152	-32.26
885.324	-13.82
885.496	27.14
885.667	-87.55
885.839	-95.74
886.011	170.49
886.182	18.94
886.354	25.09
886.525	-40.45
886.697	61.95
886.869	-60.93
887.04	6.66
887.212	72.19
887.383	135.68
887.555	-9.73
887.726	4.61
887.897	-5.63
888.069	68.09
888.24	72.19
888.412	14.85
888.583	6.66
888.754	-3.58
888.926	-112.13
889.097	51.71
889.268	-151.04
889.44	23.04
889.611	-108.03
889.782	-77.31
889.953	-58.88
890.125	119.29
890.296	-32.26
890.467	-30.21
890.638	4.61
890.809	-11.78
890.98	35.33
891.151	-38.4
891.323	104.96
891.494	-65.02
891.665	51.71
891.836	49.66
892.007	-44.54
892.178	78.33
892.349	8.7
892.52	-87.55
892.691	-1.54
892.862	20.99
893.032	-99.84
893.203	-7.68
893.374	78.33
893.545	121.34
893.716	-83.45
893.887	20.99
894.057	-95.74
894.228	31.23
894.399	33.28
894.57	111.1
894.74	86.53
894.911	37.38
895.082	-60.93
895.253	-54.78
895.423	-17.92
895.594	74.24
895.764	23.04
895.935	-83.45
896.106	8.7
896.276	-58.88
896.447	0.51
896.617	-46.59
896.788	-13.82
896.958	-30.21
897.129	-9.73
897.299	-65.02
897.47	147.97
897.64	72.19
897.81	2.56
897.981	57.86
898.151	-58.88
898.322	10.75
898.492	76.29
898.662	-48.64
898.832	-79.36
899.003	0.51
899.173	-40.45
899.343	-87.55
899.513	-30.21
