Data from USB4F104151__3__10-41-05-092.txt Node

Date: Wed Feb 26 10:41:05 EST 2025
User: louis
Spectrometer: USB4F10415
Trigger mode: 4
Integration Time (sec): 1.000000E-1
Scans to average: 1
Electric dark correction enabled: true
Nonlinearity correction enabled: false
Boxcar width: 0
XAxis mode: Wavelengths
Number of Pixels in Spectrum: 3648
>>>>>Begin Spectral Data<<<<<
178.204	-432.46
178.424	-432.46
178.644	-432.46
178.864	-364.88
179.084	-457.04
179.304	-61.78
179.524	26.28
179.744	-12.63
179.964	44.71
180.184	38.57
180.404	67.24
180.624	-14.68
180.844	5.8
181.064	-0.34
181.283	-18.77
181.503	-67.92
181.723	-6.49
181.943	-37.2
182.163	200.36
182.383	-20.82
182.602	71.34
182.822	143.02
183.042	126.63
183.262	-29.01
183.482	-35.16
183.701	-67.92
183.921	-2.39
184.141	36.52
184.361	46.76
184.58	46.76
184.8	18.09
185.02	11.95
185.239	5.8
185.459	48.81
185.679	104.11
185.898	-67.92
186.118	59.05
186.338	44.71
186.557	100.01
186.777	-63.83
186.997	26.28
187.216	-2.39
187.436	77.48
187.655	73.39
187.875	75.43
188.095	83.63
188.314	147.11
188.534	112.3
188.753	-55.64
188.973	108.2
189.192	159.4
189.412	50.86
189.631	-22.87
189.851	122.54
190.07	188.07
190.29	16.04
190.509	16.04
190.729	42.67
190.948	188.07
191.168	208.55
191.387	118.44
191.607	-10.58
191.826	136.87
192.045	83.63
192.265	-47.44
192.484	3.75
192.704	40.62
192.923	-84.31
193.142	122.54
193.362	91.82
193.581	116.39
193.8	9.9
194.02	83.63
194.239	30.38
194.458	18.09
194.678	-12.63
194.897	18.09
195.116	30.38
195.335	36.52
195.555	54.95
195.774	-12.63
195.993	108.2
196.212	-12.63
196.432	34.47
196.651	-8.53
196.87	1.71
197.089	210.6
197.308	20.14
197.528	106.15
197.747	-63.83
197.966	63.15
198.185	122.54
198.404	-43.35
198.623	114.34
198.842	46.76
199.062	75.43
199.281	59.05
199.5	11.95
199.719	50.86
199.938	81.58
200.157	73.39
200.376	138.92
200.595	151.21
200.814	42.67
201.033	5.8
201.252	81.58
201.471	22.19
201.69	57
201.909	71.34
202.128	73.39
202.347	102.06
202.566	81.58
202.785	-74.07
203.004	-43.35
203.223	208.55
203.442	69.29
203.661	-43.35
203.879	59.05
204.098	145.06
204.317	-4.44
204.536	63.15
204.755	38.57
204.974	124.58
205.193	87.72
205.411	116.39
205.63	59.05
205.849	16.04
206.068	-12.63
206.287	26.28
206.505	118.44
206.724	83.63
206.943	-33.11
207.162	-53.59
207.381	30.38
207.599	52.91
207.818	61.1
208.037	-86.36
208.255	77.48
208.474	38.57
208.693	-10.58
208.911	-10.58
209.13	71.34
209.349	-0.34
209.567	30.38
209.786	81.58
210.005	83.63
210.223	85.67
210.442	-92.5
210.661	69.29
210.879	30.38
211.098	26.28
211.316	22.19
211.535	36.52
211.753	22.19
211.972	18.09
212.191	32.43
212.409	100.01
212.628	34.47
212.846	-22.87
213.065	26.28
213.283	79.53
213.502	40.62
213.72	79.53
213.938	11.95
214.157	34.47
214.375	65.19
214.594	24.23
214.812	91.82
215.031	30.38
215.249	16.04
215.467	54.95
215.686	54.95
215.904	52.91
216.122	83.63
216.341	130.73
216.559	20.14
216.778	52.91
216.996	114.34
217.214	-10.58
217.432	48.81
217.651	-51.54
217.869	61.1
218.087	59.05
218.306	38.57
218.524	22.19
218.742	-12.63
218.96	40.62
219.179	7.85
219.397	-14.68
219.615	190.12
219.833	104.11
220.051	-29.01
220.27	196.26
220.488	106.15
220.706	36.52
220.924	-59.73
221.142	16.04
221.36	20.14
221.578	120.49
221.796	28.33
222.015	-2.39
222.233	11.95
222.451	202.41
222.669	-45.4
222.887	38.57
223.105	-37.2
223.323	54.95
223.541	-61.78
223.759	67.24
223.977	-6.49
224.195	116.39
224.413	157.35
224.631	93.87
224.849	81.58
225.067	149.16
225.285	-10.58
225.503	-59.73
225.721	-72.02
225.939	48.81
226.157	36.52
226.375	151.21
226.592	-63.83
226.81	91.82
227.028	75.43
227.246	151.21
227.464	48.81
227.682	71.34
227.9	85.67
228.117	44.71
228.335	65.19
228.553	13.99
228.771	26.28
228.989	83.63
229.206	100.01
229.424	79.53
229.642	36.52
229.86	-59.73
230.077	104.11
230.295	57
230.513	50.86
230.731	38.57
230.948	161.45
231.166	212.65
231.384	-57.68
231.601	-18.77
231.819	106.15
232.037	18.09
232.254	-37.2
232.472	54.95
232.689	38.57
232.907	52.91
233.125	16.04
233.342	-31.06
233.56	-39.25
233.777	-39.25
233.995	126.63
234.213	75.43
234.43	183.98
234.648	-31.06
234.865	-33.11
235.083	48.81
235.3	61.1
235.518	102.06
235.735	140.97
235.953	11.95
236.17	30.38
236.388	81.58
236.605	59.05
236.822	75.43
237.04	106.15
237.257	38.57
237.475	-16.73
237.692	-6.49
237.909	7.85
238.127	5.8
238.344	143.02
238.562	-16.73
238.779	-4.44
238.996	28.33
239.214	97.96
239.431	87.72
239.648	77.48
239.865	169.64
240.083	95.91
240.3	-41.3
240.517	18.09
240.735	116.39
240.952	75.43
241.169	48.81
241.386	57
241.603	-4.44
241.821	-4.44
242.038	65.19
242.255	75.43
242.472	-33.11
242.689	75.43
242.907	128.68
243.124	91.82
243.341	3.75
243.558	-51.54
243.775	-61.78
243.992	-121.17
244.209	5.8
244.426	157.35
244.643	100.01
244.86	-26.96
245.078	136.87
245.295	110.25
245.512	28.33
245.729	42.67
245.946	67.24
246.163	91.82
246.38	32.43
246.597	110.25
246.814	81.58
247.031	26.28
247.248	57
247.464	108.2
247.681	-4.44
247.898	87.72
248.115	30.38
248.332	-14.68
248.549	159.4
248.766	257.7
248.983	71.34
249.2	32.43
249.417	73.39
249.633	26.28
249.85	83.63
250.067	-12.63
250.284	116.39
250.501	79.53
250.717	124.58
250.934	-90.45
251.151	13.99
251.368	54.95
251.585	73.39
251.801	118.44
252.018	-6.49
252.235	46.76
252.451	28.33
252.668	46.76
252.885	81.58
253.102	40.62
253.318	34.47
253.535	1.71
253.752	77.48
253.968	9.9
254.185	-51.54
254.401	57
254.618	24.23
254.835	-29.01
255.051	124.58
255.268	97.96
255.484	79.53
255.701	3.75
255.917	42.67
256.134	-6.49
256.351	11.95
256.567	-55.64
256.784	61.1
257	-92.5
257.217	89.77
257.433	67.24
257.65	16.04
257.866	52.91
258.082	-31.06
258.299	-45.4
258.515	75.43
258.732	-33.11
258.948	-10.58
259.165	50.86
259.381	-29.01
259.597	89.77
259.814	24.23
260.03	18.09
260.246	50.86
260.463	97.96
260.679	110.25
260.895	20.14
261.112	-6.49
261.328	20.14
261.544	-4.44
261.761	153.26
261.977	-45.4
262.193	-12.63
262.409	75.43
262.626	48.81
262.842	50.86
263.058	-24.92
263.274	44.71
263.49	-31.06
263.707	24.23
263.923	75.43
264.139	-55.64
264.355	44.71
264.571	40.62
264.787	59.05
265.004	157.35
265.22	32.43
265.436	24.23
265.652	-31.06
265.868	126.63
266.084	-29.01
266.3	36.52
266.516	-47.44
266.732	32.43
266.948	48.81
267.164	-29.01
267.38	89.77
267.596	50.86
267.812	181.93
268.028	13.99
268.244	-22.87
268.46	77.48
268.676	-74.07
268.892	1.71
269.108	-12.63
269.324	-6.49
269.54	-78.16
269.756	69.29
269.972	-143.7
270.188	-61.78
270.403	-37.2
270.619	52.91
270.835	136.87
271.051	63.15
271.267	24.23
271.483	-45.4
271.698	130.73
271.914	108.2
272.13	81.58
272.346	-78.16
272.562	79.53
272.777	110.25
272.993	28.33
273.209	46.76
273.425	79.53
273.64	-55.64
273.856	97.96
274.072	-78.16
274.287	-0.34
274.503	65.19
274.719	24.23
274.934	13.99
275.15	-110.93
275.366	81.58
275.581	-16.73
275.797	13.99
276.012	57
276.228	-67.92
276.444	28.33
276.659	173.74
276.875	-22.87
277.09	-39.25
277.306	73.39
277.521	50.86
277.737	30.38
277.952	95.91
278.168	69.29
278.383	11.95
278.599	69.29
278.814	77.48
279.03	65.19
279.245	155.3
279.461	5.8
279.676	93.87
279.892	-18.77
280.107	-61.78
280.322	-59.73
280.538	73.39
280.753	-37.2
280.969	44.71
281.184	-76.12
281.399	110.25
281.615	26.28
281.83	-35.16
282.045	-84.31
282.26	-74.07
282.476	73.39
282.691	57
282.906	93.87
283.122	22.19
283.337	-47.44
283.552	42.67
283.767	-16.73
283.983	120.49
284.198	28.33
284.413	-6.49
284.628	1.71
284.843	28.33
285.058	75.43
285.274	-14.68
285.489	9.9
285.704	89.77
285.919	7.85
286.134	63.15
286.349	7.85
286.564	-26.96
286.779	163.5
286.995	16.04
287.21	-110.93
287.425	69.29
287.64	57
287.855	48.81
288.07	-123.22
288.285	163.5
288.5	79.53
288.715	32.43
288.93	-47.44
289.145	-24.92
289.36	85.67
289.575	-10.58
289.79	118.44
290.004	26.28
290.219	120.49
290.434	36.52
290.649	11.95
290.864	-6.49
291.079	48.81
291.294	18.09
291.509	16.04
291.724	-53.59
291.938	38.57
292.153	116.39
292.368	87.72
292.583	83.63
292.798	145.06
293.012	1.71
293.227	67.24
293.442	13.99
293.657	46.76
293.871	48.81
294.086	26.28
294.301	171.69
294.516	128.68
294.73	18.09
294.945	-80.21
295.16	-43.35
295.374	11.95
295.589	138.92
295.804	52.91
296.018	-6.49
296.233	140.97
296.447	-14.68
296.662	-12.63
296.877	85.67
297.091	110.25
297.306	20.14
297.52	104.11
297.735	38.57
297.949	50.86
298.164	130.73
298.378	79.53
298.593	-43.35
298.807	-45.4
299.022	61.1
299.236	116.39
299.451	-2.39
299.665	9.9
299.88	28.33
300.094	54.95
300.309	-24.92
300.523	95.91
300.737	3.75
300.952	73.39
301.166	108.2
301.381	-35.16
301.595	-16.73
301.809	26.28
302.024	73.39
302.238	-35.16
302.452	83.63
302.667	22.19
302.881	157.35
303.095	89.77
303.309	59.05
303.524	5.8
303.738	54.95
303.952	-59.73
304.166	38.57
304.381	-76.12
304.595	132.78
304.809	44.71
305.023	16.04
305.237	13.99
305.452	-0.34
305.666	38.57
305.88	46.76
306.094	79.53
306.308	104.11
306.522	79.53
306.736	-43.35
306.95	93.87
307.164	-10.58
307.379	26.28
307.593	126.63
307.807	128.68
308.021	34.47
308.235	52.91
308.449	-112.98
308.663	124.58
308.877	192.17
309.091	38.57
309.305	75.43
309.519	-92.5
309.733	143.02
309.947	-102.74
310.161	65.19
310.374	126.63
310.588	147.11
310.802	-16.73
311.016	-10.58
311.23	116.39
311.444	24.23
311.658	32.43
311.872	153.26
312.085	48.81
312.299	65.19
312.513	188.07
312.727	30.38
312.941	-72.02
313.154	16.04
313.368	34.47
313.582	97.96
313.796	1.71
314.009	61.1
314.223	124.58
314.437	73.39
314.651	65.19
314.864	-12.63
315.078	-43.35
315.292	-53.59
315.505	-6.49
315.719	83.63
315.933	24.23
316.146	16.04
316.36	-90.45
316.573	134.82
316.787	120.49
317.001	118.44
317.214	-12.63
317.428	59.05
317.641	-67.92
317.855	-2.39
318.068	44.71
318.282	40.62
318.495	147.11
318.709	102.06
318.922	36.52
319.136	132.78
319.349	71.34
319.563	-26.96
319.776	75.43
319.99	-53.59
320.203	126.63
320.417	71.34
320.63	67.24
320.843	167.59
321.057	112.3
321.27	-2.39
321.483	89.77
321.697	147.11
321.91	11.95
322.124	124.58
322.337	83.63
322.55	-14.68
322.763	136.87
322.977	11.95
323.19	18.09
323.403	-20.82
323.617	57
323.83	128.68
324.043	-61.78
324.256	28.33
324.469	9.9
324.683	79.53
324.896	-2.39
325.109	65.19
325.322	-37.2
325.535	38.57
325.748	52.91
325.962	13.99
326.175	9.9
326.388	87.72
326.601	116.39
326.814	-55.64
327.027	61.1
327.24	149.16
327.453	-49.49
327.666	116.39
327.879	69.29
328.092	85.67
328.305	1.71
328.518	-22.87
328.731	24.23
328.944	73.39
329.157	106.15
329.37	48.81
329.583	116.39
329.796	226.98
330.009	-41.3
330.222	63.15
330.435	73.39
330.648	95.91
330.861	97.96
331.073	69.29
331.286	140.97
331.499	-53.59
331.712	-2.39
331.925	-16.73
332.138	67.24
332.35	104.11
332.563	-10.58
332.776	87.72
332.989	48.81
333.202	18.09
333.414	42.67
333.627	54.95
333.84	30.38
334.053	50.86
334.265	1.71
334.478	-33.11
334.691	-18.77
334.903	18.09
335.116	9.9
335.329	13.99
335.541	63.15
335.754	87.72
335.966	-117.08
336.179	59.05
336.392	75.43
336.604	32.43
336.817	102.06
337.029	91.82
337.242	3.75
337.454	104.11
337.667	52.91
337.88	136.87
338.092	24.23
338.305	71.34
338.517	7.85
338.729	93.87
338.942	206.5
339.154	-72.02
339.367	-61.78
339.579	-14.68
339.792	59.05
340.004	112.3
340.217	-20.82
340.429	-10.58
340.641	36.52
340.854	-33.11
341.066	38.57
341.278	136.87
341.491	114.34
341.703	48.81
341.915	20.14
342.128	116.39
342.34	52.91
342.552	-74.07
342.764	42.67
342.977	11.95
343.189	65.19
343.401	114.34
343.613	-76.12
343.826	20.14
344.038	-6.49
344.25	24.23
344.462	28.33
344.674	20.14
344.886	5.8
345.099	100.01
345.311	54.95
345.523	40.62
345.735	-55.64
345.947	54.95
346.159	26.28
346.371	-4.44
346.583	-16.73
346.795	95.91
347.007	-65.88
347.219	91.82
347.431	-16.73
347.643	97.96
347.855	-22.87
348.067	67.24
348.279	-59.73
348.491	81.58
348.703	73.39
348.915	69.29
349.127	-80.21
349.339	140.97
349.551	11.95
349.763	44.71
349.975	-12.63
350.187	79.53
350.399	149.16
350.61	157.35
350.822	46.76
351.034	54.95
351.246	3.75
351.458	42.67
351.669	108.2
351.881	71.34
352.093	79.53
352.305	91.82
352.517	81.58
352.728	89.77
352.94	9.9
353.152	3.75
353.363	-31.06
353.575	104.11
353.787	143.02
353.999	77.48
354.21	206.5
354.422	-39.25
354.633	61.1
354.845	18.09
355.057	-29.01
355.268	16.04
355.48	143.02
355.692	-14.68
355.903	63.15
356.115	-14.68
356.326	-39.25
356.538	179.88
356.749	32.43
356.961	149.16
357.172	108.2
357.384	-76.12
357.595	214.7
357.807	7.85
358.018	38.57
358.23	48.81
358.441	183.98
358.653	136.87
358.864	-22.87
359.075	13.99
359.287	26.28
359.498	93.87
359.709	102.06
359.921	65.19
360.132	75.43
360.344	18.09
360.555	-45.4
360.766	42.67
360.977	44.71
361.189	57
361.4	11.95
361.611	126.63
361.823	104.11
362.034	63.15
362.245	-117.08
362.456	65.19
362.667	75.43
362.879	-37.2
363.09	83.63
363.301	97.96
363.512	44.71
363.723	28.33
363.935	1.71
364.146	192.17
364.357	-0.34
364.568	48.81
364.779	9.9
364.99	196.26
365.201	61.1
365.412	138.92
365.623	-65.88
365.834	124.58
366.045	91.82
366.256	120.49
366.467	167.59
366.678	16.04
366.889	3.75
367.1	-35.16
367.311	46.76
367.522	48.81
367.733	169.64
367.944	71.34
368.155	5.8
368.366	161.45
368.577	67.24
368.788	149.16
368.999	44.71
369.209	24.23
369.42	136.87
369.631	183.98
369.842	85.67
370.053	-18.77
370.264	161.45
370.474	-78.16
370.685	67.24
370.896	50.86
371.107	157.35
371.317	71.34
371.528	-61.78
371.739	108.2
371.95	91.82
372.16	87.72
372.371	-82.26
372.582	-35.16
372.792	63.15
373.003	18.09
373.214	81.58
373.424	89.77
373.635	54.95
373.846	136.87
374.056	20.14
374.267	67.24
374.477	67.24
374.688	-12.63
374.898	28.33
375.109	44.71
375.319	69.29
375.53	67.24
375.74	114.34
375.951	77.48
376.161	61.1
376.372	81.58
376.582	67.24
376.793	-8.53
377.003	24.23
377.214	83.63
377.424	16.04
377.635	-67.92
377.845	-39.25
378.055	108.2
378.266	-20.82
378.476	9.9
378.686	118.44
378.897	95.91
379.107	83.63
379.317	136.87
379.528	7.85
379.738	83.63
379.948	-33.11
380.158	77.48
380.369	-16.73
380.579	-2.39
380.789	34.47
380.999	79.53
381.21	120.49
381.42	159.4
381.63	77.48
381.84	114.34
382.05	91.82
382.261	85.67
382.471	-24.92
382.681	-24.92
382.891	183.98
383.101	32.43
383.311	-86.36
383.521	22.19
383.731	140.97
383.941	106.15
384.151	118.44
384.361	11.95
384.571	-47.44
384.781	69.29
384.991	128.68
385.201	143.02
385.411	143.02
385.621	50.86
385.831	79.53
386.041	-8.53
386.251	30.38
386.461	169.64
386.671	-26.96
386.881	63.15
387.091	26.28
387.301	149.16
387.511	54.95
387.72	128.68
387.93	77.48
388.14	-26.96
388.35	44.71
388.56	138.92
388.769	112.3
388.979	65.19
389.189	48.81
389.399	73.39
389.609	85.67
389.818	102.06
390.028	1.71
390.238	59.05
390.447	7.85
390.657	145.06
390.867	69.29
391.076	28.33
391.286	11.95
391.496	44.71
391.705	36.52
391.915	173.74
392.125	128.68
392.334	44.71
392.544	102.06
392.753	57
392.963	7.85
393.172	-4.44
393.382	30.38
393.591	196.26
393.801	-8.53
394.01	147.11
394.22	81.58
394.429	-22.87
394.639	77.48
394.848	-0.34
395.058	20.14
395.267	-16.73
395.477	24.23
395.686	-39.25
395.895	173.74
396.105	200.36
396.314	63.15
396.524	-20.82
396.733	-18.77
396.942	57
397.152	136.87
397.361	32.43
397.57	26.28
397.78	138.92
397.989	100.01
398.198	183.98
398.407	46.76
398.617	13.99
398.826	-6.49
399.035	-26.96
399.244	126.63
399.453	54.95
399.663	-4.44
399.872	71.34
400.081	7.85
400.29	183.98
400.499	-35.16
400.708	110.25
400.917	38.57
401.127	40.62
401.336	13.99
401.545	116.39
401.754	83.63
401.963	67.24
402.172	-33.11
402.381	11.95
402.59	59.05
402.799	67.24
403.008	179.88
403.217	59.05
403.426	110.25
403.635	-16.73
403.844	104.11
404.053	34.47
404.262	28.33
404.471	85.67
404.68	93.87
404.888	36.52
405.097	100.01
405.306	-31.06
405.515	48.81
405.724	-18.77
405.933	57
406.142	50.86
406.35	83.63
406.559	-8.53
406.768	69.29
406.977	161.45
407.185	120.49
407.394	3.75
407.603	1.71
407.812	134.82
408.02	134.82
408.229	59.05
408.438	26.28
408.646	-16.73
408.855	9.9
409.064	32.43
409.272	3.75
409.481	26.28
409.69	61.1
409.898	24.23
410.107	85.67
410.315	67.24
410.524	-6.49
410.733	13.99
410.941	46.76
411.15	85.67
411.358	110.25
411.567	73.39
411.775	59.05
411.984	-16.73
412.192	54.95
412.401	-18.77
412.609	155.3
412.818	104.11
413.026	38.57
413.234	52.91
413.443	104.11
413.651	81.58
413.86	52.91
414.068	151.21
414.276	186.02
414.485	-20.82
414.693	196.26
414.901	138.92
415.11	69.29
415.318	87.72
415.526	24.23
415.734	106.15
415.943	48.81
416.151	183.98
416.359	11.95
416.567	54.95
416.776	79.53
416.984	132.78
417.192	169.64
417.4	32.43
417.608	30.38
417.817	-67.92
418.025	147.11
418.233	136.87
418.441	-2.39
418.649	-18.77
418.857	20.14
419.065	85.67
419.273	13.99
419.481	16.04
419.689	13.99
419.897	-2.39
420.105	13.99
420.313	145.06
420.521	181.93
420.729	130.73
420.937	-86.36
421.145	-49.49
421.353	75.43
421.561	159.4
421.769	34.47
421.977	9.9
422.185	112.3
422.393	44.71
422.601	52.91
422.809	79.53
423.017	63.15
423.224	34.47
423.432	57
423.64	24.23
423.848	171.69
424.056	42.67
424.263	120.49
424.471	59.05
424.679	173.74
424.887	-18.77
425.094	54.95
425.302	81.58
425.51	13.99
425.718	136.87
425.925	83.63
426.133	-12.63
426.341	196.26
426.548	100.01
426.756	63.15
426.964	114.34
427.171	26.28
427.379	93.87
427.586	77.48
427.794	155.3
428.001	159.4
428.209	85.67
428.417	157.35
428.624	143.02
428.832	97.96
429.039	52.91
429.247	81.58
429.454	85.67
429.662	206.5
429.869	110.25
430.076	44.71
430.284	145.06
430.491	190.12
430.699	220.84
430.906	175.78
431.114	173.74
431.321	136.87
431.528	226.98
431.736	147.11
431.943	179.88
432.15	169.64
432.358	222.89
432.565	284.33
432.772	104.11
432.979	194.22
433.187	50.86
433.394	157.35
433.601	132.78
433.808	175.78
434.016	196.26
434.223	237.22
434.43	259.75
434.637	269.99
434.844	253.61
435.052	251.56
435.259	364.2
435.466	261.8
435.673	265.89
435.88	327.33
436.087	372.39
436.294	409.25
436.501	349.86
436.708	290.47
436.915	292.52
437.122	304.81
437.329	229.03
437.537	388.77
437.743	347.81
437.95	507.55
438.157	358.05
438.364	374.44
438.571	364.2
438.778	482.98
438.985	476.84
439.192	491.17
439.399	511.65
439.606	505.51
439.813	491.17
440.02	655.01
440.227	667.3
440.433	587.43
440.64	519.84
440.847	487.08
441.054	620.19
441.261	765.6
441.467	743.07
441.674	655.01
441.881	749.22
442.088	667.3
442.294	827.04
442.501	781.98
442.708	798.37
442.914	759.46
443.121	962.2
443.328	988.83
443.534	1044.12
443.741	960.16
443.948	958.11
444.154	1091.23
444.361	1265.3
444.568	1042.07
444.774	1183.38
444.981	1029.79
445.187	1351.32
445.394	1341.08
445.6	1253.02
445.807	1494.68
446.013	1461.91
446.22	1255.06
446.426	1539.73
446.633	1595.03
446.839	1824.4
447.046	1756.82
447.252	1844.88
447.459	1781.39
447.665	1793.68
447.871	2043.53
448.078	2180.75
448.284	2010.76
448.491	2184.84
448.697	2283.14
448.903	2385.54
449.11	2365.06
449.316	2381.45
449.522	2582.15
449.728	2629.25
449.935	2868.86
450.141	2786.94
450.347	3044.99
450.553	3083.9
450.76	3147.39
450.966	3128.95
451.172	3294.84
451.378	3389.05
451.584	3378.81
451.791	3821.17
451.997	3829.36
452.203	3954.29
452.409	4296.3
452.615	4243.05
452.821	4193.9
453.027	4298.35
453.233	4666.98
453.44	4630.12
453.646	4800.1
453.852	5281.37
454.058	5283.42
454.264	5488.21
454.47	5828.18
454.676	5852.75
454.882	6538.82
455.088	6108.75
455.294	6673.99
455.5	6946.37
455.705	7198.27
455.911	7308.86
456.117	7478.84
456.323	7700.02
456.529	7919.15
456.735	8527.4
456.941	8726.05
457.147	9031.2
457.352	9381.4
457.558	9446.94
457.764	10126.86
457.97	10481.16
458.176	10597.9
458.381	11130.37
458.587	11486.72
458.793	11955.7
458.999	12099.06
459.204	13651.42
459.41	14194.13
459.616	13686.23
459.821	14605.77
460.027	15467.97
460.233	15791.55
460.438	15852.98
460.644	16909.74
460.85	17438.11
461.055	17855.9
461.261	18654.61
461.466	18472.34
461.672	18709.9
461.878	20940.14
462.083	20473.2
462.289	20888.94
462.494	21955.93
462.7	22107.48
462.905	22330.71
463.111	24141.11
463.316	25720.1
463.522	25677.09
463.727	26645.78
463.932	27591.94
464.138	28681.46
464.343	29482.22
464.549	29932.77
464.754	31792.33
464.959	32783.54
465.165	33301.68
465.37	33250.48
465.575	33107.12
465.781	35163.28
465.986	36203.65
466.191	36109.44
466.397	36295.81
466.602	35484.81
466.807	37309.55
467.012	37719.15
467.218	38620.25
467.423	38700.12
467.628	39631.95
467.833	41706.54
468.038	40987.71
468.244	40225.86
468.449	42155.05
468.654	41385.01
468.859	41339.96
469.064	41526.32
469.269	40221.76
469.474	40717.37
469.679	42023.98
469.885	40799.29
470.09	41479.22
470.295	41557.04
470.5	40885.31
470.705	40750.14
470.91	39808.08
471.115	39343.19
471.32	39744.59
471.525	40176.71
471.73	38683.74
471.935	38462.56
472.139	37215.35
472.344	37002.36
472.549	36648.06
472.754	36187.27
472.959	35318.93
473.164	34014.37
473.369	34012.32
473.574	34804.89
473.778	34188.45
473.983	33473.71
474.188	32859.32
474.393	31153.36
474.598	31188.17
474.802	30477.53
475.007	30086.37
475.212	29961.44
475.417	28261.63
475.621	28400.89
475.826	28200.19
476.031	27043.09
476.235	26963.22
476.44	26768.66
476.645	26049.82
476.849	25967.9
477.054	25472.29
477.259	24849.71
477.463	24769.84
477.668	24356.15
477.872	24026.43
478.077	23627.07
478.282	22717.78
478.486	22523.22
478.691	22439.25
478.895	22379.86
479.1	21888.35
479.304	21964.12
479.509	20989.29
479.713	21515.62
479.918	21030.25
480.122	20172.15
480.326	20956.52
480.531	20829.55
480.735	20360.56
480.94	20114.81
481.144	20997.48
481.348	19555.71
481.553	19563.9
481.757	19232.13
481.961	19404.16
482.166	19592.58
482.37	19144.07
482.574	19004.81
482.778	18818.44
482.983	18900.36
483.187	18623.89
483.391	18662.8
483.595	18206.1
483.8	17950.1
484.004	18238.87
484.208	17935.77
484.412	17636.77
484.616	18011.54
484.821	17526.18
485.025	16948.65
485.229	17010.09
485.433	17024.42
485.637	16637.36
485.841	16375.22
486.045	16108.98
486.249	16172.47
486.453	15599.04
486.657	15482.3
486.861	15218.11
487.065	14900.68
487.269	14896.58
487.473	14417.36
487.677	14368.21
487.881	14513.61
488.085	13819.35
488.289	13858.26
488.493	13499.87
488.697	13469.15
488.901	13174.24
489.105	12641.77
489.309	12602.86
489.512	12275.18
489.716	12254.7
489.92	11910.64
490.124	11613.69
490.328	11806.2
490.531	11197.95
490.735	11394.56
490.939	11058.69
491.143	10698.25
491.346	10604.04
491.55	10667.53
491.754	10241.55
491.958	10157.58
492.161	10108.43
492.365	9737.75
492.569	9621.02
492.772	9590.3
492.976	9448.99
493.18	9379.36
493.383	9123.36
493.587	9344.54
493.79	8932.9
493.994	8850.98
494.197	8834.6
494.401	8746.53
494.605	8603.18
494.808	8431.15
495.012	8455.72
495.215	8676.9
495.419	8441.39
495.622	8148.53
495.825	8275.5
496.029	8191.53
496.232	8267.31
496.436	8013.36
496.639	8355.37
496.843	8113.71
497.046	8076.85
497.249	8371.75
497.453	8205.87
497.656	8144.43
497.859	8123.95
498.063	8289.84
498.266	8250.92
498.469	8064.56
498.673	8091.18
498.876	8273.45
499.079	8302.12
499.282	8332.84
499.485	8615.46
499.689	8312.36
499.892	8640.04
500.095	8265.26
500.298	8681
500.501	8476.2
500.705	8891.94
500.908	8715.81
501.111	8689.19
501.314	8767.01
501.517	9219.61
501.72	9059.87
501.923	9168.41
502.126	9295.39
502.329	9670.17
502.532	9477.66
502.735	9549.34
502.938	9989.65
503.141	9840.15
503.344	10055.19
503.547	10200.59
503.75	10284.56
503.953	10450.44
504.156	10395.15
504.359	10673.67
504.562	10769.93
504.765	11009.54
504.968	11187.71
505.17	11021.83
505.373	11380.22
505.576	11668.98
505.779	11908.6
505.982	11859.45
506.185	12166.64
506.387	12406.25
506.59	12463.6
506.793	13063.65
506.996	12985.83
507.198	13364.7
507.401	13598.17
507.604	13780.44
507.807	14122.45
508.009	14347.73
508.212	14681.55
508.415	14851.53
508.617	15209.92
508.82	15398.34
509.022	15324.61
509.225	15963.58
509.428	16321.97
509.63	16670.12
509.833	16903.59
510.035	17812.89
510.238	17810.84
510.44	18148.76
510.643	18744.72
510.845	19334.53
511.048	19185.03
511.25	19801.47
511.453	20106.62
511.655	21081.45
511.858	21146.98
512.06	21652.83
512.262	22150.49
512.465	22367.57
512.667	23184.71
512.87	23731.52
513.072	24024.38
513.274	24821.04
513.477	25267.5
513.679	25701.67
513.881	26588.44
514.084	26897.68
514.286	27481.35
514.488	27999.49
514.69	29113.58
514.893	29234.41
515.095	29967.59
515.297	30645.46
515.499	30915.79
515.701	31515.85
515.904	32498.87
516.106	32863.41
516.308	33809.57
516.51	34344.09
516.712	34391.2
516.914	35482.77
517.116	36396.16
517.318	36693.11
517.52	37766.25
517.722	38118.5
517.925	38906.97
518.127	39924.81
518.329	40635.45
518.531	40633.41
518.733	41630.77
518.935	42015.79
519.136	42851.36
519.338	43498.51
519.54	43990.03
519.742	44944.38
519.944	45386.74
520.146	46220.27
520.348	46685.15
520.55	46965.73
520.752	47952.85
520.954	48716.74
521.155	48456.65
521.357	49664.95
521.559	49982.38
521.761	51235.74
521.963	50989.98
522.164	51499.93
522.366	51551.13
522.568	52157.33
522.77	52882.31
522.971	53574.52
523.173	52925.32
523.375	53664.63
523.576	53838.71
523.778	53836.66
523.98	54555.5
524.181	54676.33
524.383	54854.5
524.584	55290.72
524.786	55077.73
524.988	55235.42
525.189	55413.6
525.391	54958.95
525.592	55933.78
525.794	55542.62
525.995	55663.45
526.197	55802.71
526.398	55432.03
526.6	55761.75
526.801	55118.69
527.003	55352.16
527.204	55221.09
527.406	55239.52
527.607	54520.68
527.808	54989.67
528.01	53693.3
528.211	54102.9
528.412	54211.44
528.614	53625.72
528.815	53119.87
529.016	53144.45
529.218	52026.26
529.419	51854.23
529.62	51377.05
529.822	51106.72
530.023	50684.84
530.224	50385.83
530.425	49869.75
530.626	48976.83
530.828	48421.83
531.029	48819.14
531.23	47469.53
531.431	47160.28
531.632	46930.91
531.833	46654.43
532.035	45945.84
532.236	45100.03
532.437	45007.87
532.638	43977.74
532.839	43756.56
533.04	43346.97
533.241	42824.73
533.442	42796.06
533.643	41395.25
533.844	41235.51
534.045	40504.38
534.246	40059.98
534.447	39627.85
534.648	38995.03
534.849	38368.35
535.05	37790.83
535.251	37297.27
535.451	36641.92
535.652	36334.72
535.853	35839.11
536.054	35273.87
536.255	35302.54
536.456	34471.07
536.657	34473.12
536.857	33172.66
537.058	33143.98
537.259	32887.99
537.46	32273.6
537.66	31892.68
537.861	31456.46
538.062	30911.7
538.263	30657.75
538.463	30055.65
538.664	30084.32
538.865	29682.92
539.065	29258.99
539.266	28675.32
539.466	28716.28
539.667	27737.35
539.868	27716.87
540.068	27847.94
540.269	26795.28
540.469	27053.33
540.67	26486.04
540.87	26275.1
541.071	25888.03
541.271	25611.56
541.472	25578.79
541.672	25052.46
541.873	24718.64
542.073	24151.35
542.274	24474.93
542.474	23948.61
542.675	23565.64
542.875	23254.34
543.075	22963.53
543.276	22668.62
543.476	22701.39
543.676	22322.52
543.877	22162.78
544.077	21865.82
544.277	21714.27
544.478	21200.23
544.678	21400.93
544.878	20958.57
545.078	20714.86
545.279	20415.86
545.479	20219.25
545.679	19801.47
545.879	19770.75
546.079	19418.5
546.28	19205.51
546.48	18658.7
546.68	18892.17
546.88	18795.92
547.08	18288.02
547.28	18154.9
547.48	17890.71
547.68	18054.55
547.88	17724.83
548.081	17548.7
548.281	17137.06
548.481	16770.47
548.681	16866.73
548.881	16487.86
549.081	16283.06
549.28	16043.45
549.48	15650.24
549.68	15695.29
549.88	15523.26
550.08	15158.72
550.28	14958.02
550.48	14679.5
550.68	14566.86
550.88	14122.45
551.08	14245.33
551.279	14255.57
551.479	13839.83
551.679	13743.58
551.879	13247.97
552.079	13483.48
552.278	12963.3
552.478	13028.84
552.678	12617.19
552.878	12598.76
553.077	12047.86
553.277	11961.84
553.477	11709.94
553.676	11462.14
553.876	11591.16
554.076	11187.71
554.275	11322.88
554.475	10798.6
554.674	10884.61
554.874	10829.32
555.074	10348.04
555.273	10524.17
555.473	10071.57
555.672	9985.55
555.872	9713.17
556.071	9825.81
556.271	9621.02
556.47	9627.16
556.67	9162.27
556.869	9078.3
557.068	8939.04
557.268	8855.08
557.467	8588.84
557.667	8568.36
557.866	8549.93
558.065	8240.68
558.265	8025.65
558.464	7700.02
558.663	7861.81
558.863	7693.88
559.062	7677.49
559.261	7358.01
559.461	7577.14
559.66	7091.77
559.859	7263.8
560.058	7028.29
560.258	6835.78
560.457	6794.82
560.656	6606.41
560.855	6592.07
561.054	6508.1
561.253	6538.82
561.453	6354.51
561.652	6186.57
561.851	6207.05
562.05	5801.55
562.249	5860.95
562.448	5883.47
562.647	5602.9
562.846	5660.24
563.045	5492.31
563.244	5258.84
563.443	5539.41
563.642	5387.86
563.841	5301.85
564.04	5303.9
564.239	5092.96
564.438	4908.64
564.637	4890.21
564.836	4990.56
565.035	4836.96
565.234	4836.96
565.432	4716.13
565.631	4712.03
565.83	4585.06
566.029	4535.91
566.228	4456.04
566.427	4425.32
566.625	4226.67
566.824	4224.62
567.023	4126.32
567.222	3995.25
567.42	3999.34
567.619	4023.92
567.818	4001.39
568.016	4003.44
568.215	4001.39
568.414	3851.89
568.612	3806.83
568.811	3765.87
569.01	3663.47
569.208	3489.4
569.407	3438.2
569.605	3419.77
569.804	3477.11
570.002	3475.06
570.201	3268.22
570.4	3290.74
570.598	3171.96
570.797	3106.43
570.995	3100.28
571.193	2913.92
571.392	3028.6
571.59	2893.44
571.789	3006.08
571.987	2924.16
572.186	2967.17
572.384	2791.04
572.582	2825.86
572.781	2893.44
572.979	2690.69
573.177	2711.17
573.376	2547.33
573.574	2596.48
573.772	2592.39
573.971	2393.73
574.169	2334.34
574.367	2391.69
574.565	2406.02
574.763	2223.75
574.962	2393.73
575.16	2172.55
575.358	2166.41
575.556	2242.18
575.754	2182.79
575.952	2143.88
576.151	2170.51
576.349	2057.87
576.547	1955.47
576.745	2117.26
576.943	1984.14
577.141	1857.17
577.339	1861.26
577.537	1914.51
577.735	1801.87
577.933	1853.07
578.131	1756.82
578.329	1881.74
578.527	1775.25
578.725	1779.34
578.923	1449.62
579.121	1699.47
579.319	1574.55
579.516	1625.75
579.714	1701.52
579.912	1617.55
580.11	1357.46
580.308	1472.15
580.506	1443.48
580.704	1396.37
580.901	1361.56
581.099	1509.01
581.297	1410.71
581.495	1408.66
581.692	1398.42
581.89	1363.61
582.088	1367.7
582.285	1345.17
582.483	1259.16
582.681	1220.25
582.878	1248.92
583.076	1257.11
583.274	1144.47
583.471	1328.79
583.669	1177.24
583.866	1119.9
584.064	1167
584.262	1085.08
584.459	1138.33
584.657	1115.8
584.854	1158.81
585.052	1134.23
585.249	1001.12
585.447	1107.61
585.644	894.62
585.841	1107.61
586.039	1015.45
586.236	1058.46
586.434	1052.31
586.631	958.11
586.828	900.76
587.026	986.78
587.223	779.93
587.42	878.24
587.618	958.11
587.815	947.87
588.012	972.44
588.21	845.47
588.407	890.53
588.604	802.46
588.801	827.04
588.999	779.93
589.196	868
589.393	800.41
589.59	824.99
589.787	835.23
589.984	751.26
590.182	810.65
590.379	695.97
590.576	788.13
590.773	792.22
590.97	788.13
591.167	849.57
591.364	763.55
591.561	720.54
591.758	880.29
591.955	859.81
592.152	738.98
592.349	730.78
592.546	790.17
592.743	609.95
592.94	755.36
593.137	759.46
593.334	806.56
593.531	792.22
593.727	820.89
593.924	771.74
594.121	814.75
594.318	695.97
594.515	736.93
594.712	886.43
594.908	886.43
595.105	695.97
595.302	759.46
595.499	837.28
595.696	1025.69
595.892	736.93
596.089	890.53
596.286	872.09
596.482	972.44
596.679	976.54
596.876	878.24
597.072	1044.12
597.269	1070.75
597.466	888.48
597.662	1035.93
597.859	1005.21
598.055	1105.56
598.252	1060.51
598.448	1146.52
598.645	1326.74
598.841	1265.3
599.038	1365.65
599.234	1365.65
599.431	1445.52
599.627	1353.37
599.824	1476.24
600.02	1562.26
600.217	1527.44
600.413	1597.07
600.609	1664.66
600.806	1973.9
601.002	1853.07
601.198	1773.2
601.395	1955.47
601.591	2027.15
601.787	2121.35
601.984	2274.95
602.18	2459.27
602.376	2535.04
602.572	2436.74
602.769	2651.78
602.965	2547.33
603.161	2621.06
603.357	2868.86
603.553	3032.7
603.75	2979.45
603.946	3047.04
604.142	3196.54
604.338	3448.44
604.534	3354.23
604.73	3593.84
604.926	3722.87
605.122	3864.18
605.318	3915.37
605.514	4167.28
605.71	4005.49
605.906	4460.13
606.102	4363.88
606.298	4640.36
606.494	4703.84
606.69	4904.54
606.886	4869.73
607.082	5015.13
607.278	5205.6
607.474	5477.98
607.67	5584.47
607.866	5635.67
608.062	5772.88
608.257	6110.8
608.453	6059.6
608.649	6383.18
608.845	6340.17
609.041	6379.08
609.236	6798.91
609.432	6938.18
609.628	7290.43
609.824	7278.14
610.019	7491.13
610.215	7753.27
610.411	8132.14
610.606	8379.95
610.802	8418.86
610.998	8535.59
611.193	8885.8
611.389	9096.74
611.584	9195.04
611.78	9580.06
611.976	9889.3
612.171	10401.29
612.367	10507.79
612.562	10573.32
612.758	10647.05
612.953	11097.6
613.149	11527.67
613.344	11806.2
613.539	12152.31
613.735	12426.73
613.93	12682.73
614.126	13147.62
614.321	13551.07
614.517	13907.41
614.712	13852.12
614.907	14308.82
615.103	14937.54
615.298	15140.29
615.493	15769.02
615.688	15820.22
615.884	16606.64
616.079	16788.91
616.274	17325.47
616.47	17515.94
616.665	18165.14
616.86	18347.41
617.055	19309.96
617.25	19316.1
617.445	20030.84
617.641	20102.52
617.836	20944.24
618.031	21304.68
618.226	21757.28
618.421	22488.4
618.616	23127.37
618.811	23147.85
619.006	24405.3
619.201	24263.99
619.396	25308.46
619.591	25216.3
619.786	26332.44
619.981	26428.7
620.176	27348.23
620.371	27579.65
620.566	28470.52
620.761	29187.31
620.956	29689.06
621.151	29738.21
621.346	31046.86
621.541	30848.21
621.735	32136.38
621.93	32330.94
622.125	32761.01
622.32	33244.34
622.515	34518.17
622.709	34536.6
622.904	35386.51
623.099	35564.68
623.294	36719.74
623.488	36928.63
623.683	37887.08
623.878	37932.14
624.072	39060.57
624.267	39771.21
624.462	40258.63
624.656	40522.82
624.851	41565.23
625.046	42069.03
625.24	42669.09
625.435	42923.04
625.629	43600.91
625.824	43678.74
626.018	44805.12
626.213	44669.95
626.407	46384.1
626.602	45550.58
626.796	46918.62
626.991	47234.01
627.185	47313.88
627.38	47381.46
627.574	47604.69
627.768	47999.95
627.963	48284.62
628.157	48491.46
628.352	49187.77
628.546	48229.32
628.74	49003.45
628.935	48380.87
629.129	48630.72
629.323	48643.01
629.517	48165.84
629.712	47883.22
629.906	47447
630.1	47033.31
630.294	47162.33
630.489	46064.62
630.683	46054.38
630.877	44563.46
631.071	43938.83
631.265	43658.26
631.459	42380.32
631.653	41915.44
631.848	41407.54
632.042	39623.76
632.236	39365.71
632.43	37719.15
632.624	37414
632.818	36021.38
633.012	34671.77
633.206	33946.79
633.4	33189.04
633.594	31763.65
633.788	30670.04
633.982	29803.75
634.176	28648.69
634.369	27348.23
634.563	26555.67
634.757	25224.49
634.951	24597.81
635.145	23571.78
635.339	22734.16
635.533	21927.26
635.726	21001.58
635.92	19963.26
636.114	19373.44
636.308	18443.67
636.501	17685.92
636.695	16979.37
636.889	16494
637.083	15699.39
637.276	15123.91
637.47	14341.58
637.664	13798.87
637.857	13307.36
638.051	12951.01
638.244	12107.25
638.438	11486.72
638.632	11310.59
638.825	10786.31
639.019	10534.41
639.212	9889.3
639.406	9559.58
639.599	9332.25
639.793	8767.01
639.986	8404.52
640.18	8240.68
640.373	7923.25
640.567	7611.96
640.76	7284.28
640.954	7241.28
641.147	6680.13
641.34	6434.38
641.534	6395.47
641.727	6170.19
641.92	5715.54
642.114	5543.51
642.307	5269.08
642.5	5162.59
642.694	4775.52
642.887	4900.45
643.08	4533.86
643.273	4599.4
643.467	4140.65
643.66	3980.91
643.853	3788.4
644.046	3888.75
644.239	3694.19
644.432	3391.09
644.626	3239.55
644.819	3219.07
645.012	3094.14
645.205	2958.97
645.398	2877.05
645.591	2825.86
645.784	2623.11
645.977	2551.43
646.17	2414.21
646.363	2358.92
646.556	2137.74
646.749	2139.79
646.942	2156.17
647.135	2147.98
647.328	2008.72
647.521	1836.69
647.714	1834.64
647.907	1789.58
648.099	1648.27
648.292	1738.38
648.485	1625.75
648.678	1466
648.871	1470.1
649.064	1369.75
649.256	1414.81
649.449	1177.24
649.642	1234.58
649.835	1218.2
650.027	1072.79
650.22	1212.06
650.413	1101.47
650.605	1083.03
650.798	968.35
650.991	943.77
651.183	863.9
651.376	886.43
651.568	824.99
651.761	845.47
651.954	894.62
652.146	835.23
652.339	851.61
652.531	810.65
652.724	712.35
652.916	761.5
653.109	528.03
653.301	796.32
653.494	753.31
653.686	706.21
653.879	747.17
654.071	761.5
654.263	581.28
654.456	517.79
654.648	540.32
654.84	579.23
655.033	407.2
655.225	573.09
655.417	337.57
655.61	548.51
655.802	493.22
655.994	568.99
656.186	446.12
656.379	474.79
656.571	472.74
656.763	450.21
656.955	384.68
657.148	396.96
657.34	464.55
657.532	446.12
657.724	308.9
657.916	368.29
658.108	448.16
658.3	386.72
658.492	356.01
658.684	241.32
658.876	433.83
659.068	222.89
659.26	173.74
659.452	296.61
659.644	306.85
659.836	429.73
660.028	331.43
660.22	284.33
660.412	327.33
660.604	224.94
660.796	253.61
660.988	366.25
661.18	313
661.372	288.42
661.563	253.61
661.755	261.8
661.947	208.55
662.139	272.04
662.331	313
662.522	300.71
662.714	97.96
662.906	149.16
663.097	251.56
663.289	222.89
663.481	126.63
663.673	190.12
663.864	272.04
664.056	315.05
664.247	116.39
664.439	274.09
664.631	243.37
664.822	372.39
665.014	153.26
665.205	229.03
665.397	196.26
665.588	214.7
665.78	212.65
665.971	255.65
666.163	173.74
666.354	284.33
666.546	206.5
666.737	190.12
666.929	224.94
667.12	190.12
667.311	296.61
667.503	282.28
667.694	208.55
667.885	237.22
668.077	265.89
668.268	95.91
668.459	202.41
668.651	313
668.842	315.05
669.033	134.82
669.224	124.58
669.416	335.53
669.607	143.02
669.798	149.16
669.989	237.22
670.18	190.12
670.371	255.65
670.563	97.96
670.754	315.05
670.945	233.13
671.136	218.79
671.327	145.06
671.518	200.36
671.709	294.57
671.9	224.94
672.091	319.14
672.282	226.98
672.473	249.51
672.664	173.74
672.855	157.35
673.046	247.46
673.237	278.18
673.428	231.08
673.619	274.09
673.809	206.5
674	417.44
674.191	306.85
674.382	239.27
674.573	204.46
674.764	233.13
674.954	353.96
675.145	116.39
675.336	206.5
675.527	210.6
675.717	169.64
675.908	269.99
676.099	243.37
676.289	300.71
676.48	145.06
676.671	226.98
676.861	202.41
677.052	267.94
677.243	202.41
677.433	196.26
677.624	308.9
677.814	351.91
678.005	179.88
678.195	360.1
678.386	276.13
678.576	313
678.767	192.17
678.957	292.52
679.148	356.01
679.338	390.82
679.529	317.09
679.719	269.99
679.909	315.05
680.1	329.38
680.29	384.68
680.481	251.56
680.671	401.06
680.861	435.88
681.052	419.49
681.242	310.95
681.432	370.34
681.622	298.66
681.813	300.71
682.003	335.53
682.193	284.33
682.383	343.72
682.573	286.37
682.764	341.67
682.954	396.96
683.144	403.11
683.334	304.81
683.524	370.34
683.714	403.11
683.904	370.34
684.094	349.86
684.284	462.5
684.474	462.5
684.664	380.58
684.854	394.92
685.044	417.44
685.234	353.96
685.424	343.72
685.614	388.77
685.804	470.69
685.994	442.02
686.184	464.55
686.374	423.59
686.564	378.53
686.753	333.48
686.943	339.62
687.133	444.07
687.323	415.4
687.513	431.78
687.702	347.81
687.892	378.53
688.082	485.03
688.272	452.26
688.461	399.01
688.651	497.32
688.841	409.25
689.03	364.2
689.22	360.1
689.41	374.44
689.599	411.3
689.789	372.39
689.979	550.56
690.168	327.33
690.358	380.58
690.547	405.16
690.737	370.34
690.926	431.78
691.116	423.59
691.305	425.64
691.495	474.79
691.684	331.43
691.874	349.86
692.063	335.53
692.252	452.26
692.442	403.11
692.631	315.05
692.82	247.46
693.01	337.57
693.199	394.92
693.388	337.57
693.578	265.89
693.767	347.81
693.956	366.25
694.146	325.29
694.335	356.01
694.524	304.81
694.713	403.11
694.902	372.39
695.092	210.6
695.281	347.81
695.47	327.33
695.659	263.85
695.848	386.72
696.037	257.7
696.226	421.54
696.415	405.16
696.604	392.87
696.793	435.88
696.982	296.61
697.171	407.2
697.36	317.09
697.549	319.14
697.738	216.74
697.927	399.01
698.116	343.72
698.305	341.67
698.494	313
698.683	372.39
698.872	452.26
699.061	331.43
699.25	274.09
699.438	425.64
699.627	288.42
699.816	487.08
700.005	206.5
700.193	239.27
700.382	306.85
700.571	321.19
700.76	333.48
700.948	374.44
701.137	292.52
701.326	423.59
701.514	257.7
701.703	298.66
701.892	319.14
702.08	411.3
702.269	220.84
702.457	296.61
702.646	368.29
702.834	302.76
703.023	327.33
703.212	403.11
703.4	337.57
703.589	302.76
703.777	245.41
703.965	288.42
704.154	288.42
704.342	253.61
704.531	245.41
704.719	319.14
704.907	386.72
705.096	200.36
705.284	251.56
705.472	384.68
705.661	425.64
705.849	321.19
706.037	444.07
706.226	274.09
706.414	306.85
706.602	175.78
706.79	396.96
706.979	198.31
707.167	261.8
707.355	218.79
707.543	351.91
707.731	313
707.919	364.2
708.107	306.85
708.296	267.94
708.484	245.41
708.672	321.19
708.86	351.91
709.048	310.95
709.236	224.94
709.424	265.89
709.612	288.42
709.8	202.41
709.988	306.85
710.176	403.11
710.364	368.29
710.551	267.94
710.739	370.34
710.927	308.9
711.115	298.66
711.303	437.92
711.491	390.82
711.679	313
711.866	300.71
712.054	300.71
712.242	415.4
712.43	335.53
712.617	278.18
712.805	446.12
712.993	358.05
713.181	263.85
713.368	333.48
713.556	239.27
713.744	290.47
713.931	466.6
714.119	427.68
714.306	362.15
714.494	274.09
714.682	265.89
714.869	251.56
715.057	378.53
715.244	214.7
715.432	394.92
715.619	296.61
715.807	310.95
715.994	308.9
716.182	304.81
716.369	390.82
716.556	421.54
716.744	282.28
716.931	337.57
717.119	401.06
717.306	335.53
717.493	335.53
717.681	255.65
717.868	333.48
718.055	378.53
718.242	394.92
718.43	419.49
718.617	421.54
718.804	327.33
718.991	419.49
719.179	370.34
719.366	368.29
719.553	376.48
719.74	368.29
719.927	341.67
720.114	351.91
720.301	239.27
720.488	343.72
720.676	327.33
720.863	415.4
721.05	536.23
721.237	435.88
721.424	399.01
721.611	374.44
721.798	315.05
721.985	403.11
722.172	376.48
722.358	407.2
722.545	442.02
722.732	370.34
722.919	427.68
723.106	448.16
723.293	364.2
723.48	323.24
723.667	298.66
723.853	374.44
724.04	435.88
724.227	394.92
724.414	296.61
724.6	409.25
724.787	388.77
724.974	452.26
725.161	384.68
725.347	321.19
725.534	427.68
725.72	425.64
725.907	478.88
726.094	497.32
726.28	409.25
726.467	370.34
726.653	403.11
726.84	466.6
727.027	437.92
727.213	302.76
727.4	450.21
727.586	505.51
727.773	415.4
727.959	384.68
728.145	390.82
728.332	417.44
728.518	339.62
728.705	396.96
728.891	366.25
729.077	343.72
729.264	308.9
729.45	431.78
729.636	499.36
729.823	442.02
730.009	515.75
730.195	415.4
730.382	442.02
730.568	378.53
730.754	407.2
730.94	444.07
731.126	403.11
731.313	568.99
731.499	396.96
731.685	452.26
731.871	380.58
732.057	378.53
732.243	501.41
732.429	401.06
732.615	474.79
732.801	384.68
732.987	407.2
733.173	374.44
733.359	362.15
733.545	419.49
733.731	429.73
733.917	487.08
734.103	462.5
734.289	460.45
734.475	351.91
734.661	581.28
734.847	419.49
735.033	448.16
735.219	517.79
735.404	358.05
735.59	339.62
735.776	392.87
735.962	532.13
736.148	517.79
736.333	493.22
736.519	437.92
736.705	417.44
736.89	435.88
737.076	394.92
737.262	401.06
737.447	317.09
737.633	464.55
737.819	503.46
738.004	411.3
738.19	466.6
738.375	485.03
738.561	581.28
738.747	517.79
738.932	356.01
739.118	581.28
739.303	622.24
739.489	501.41
739.674	310.95
739.859	370.34
740.045	493.22
740.23	427.68
740.416	253.61
740.601	417.44
740.786	470.69
740.972	337.57
741.157	388.77
741.342	442.02
741.528	396.96
741.713	507.55
741.898	386.72
742.084	405.16
742.269	538.27
742.454	423.59
742.639	480.93
742.824	452.26
743.01	456.36
743.195	530.08
743.38	388.77
743.565	368.29
743.75	392.87
743.935	513.7
744.12	468.64
744.305	372.39
744.49	407.2
744.675	325.29
744.86	429.73
745.045	417.44
745.23	460.45
745.415	448.16
745.6	478.88
745.785	409.25
745.97	482.98
746.155	429.73
746.34	499.36
746.525	356.01
746.71	495.27
746.895	310.95
747.079	339.62
747.264	353.96
747.449	345.77
747.634	446.12
747.819	401.06
748.003	276.13
748.188	292.52
748.373	345.77
748.557	339.62
748.742	376.48
748.927	388.77
749.111	323.24
749.296	376.48
749.481	396.96
749.665	439.97
749.85	417.44
750.034	468.64
750.219	360.1
750.404	284.33
750.588	370.34
750.773	286.37
750.957	399.01
751.141	282.28
751.326	388.77
751.51	306.85
751.695	290.47
751.879	325.29
752.064	435.88
752.248	296.61
752.432	493.22
752.617	353.96
752.801	396.96
752.985	196.26
753.17	396.96
753.354	337.57
753.538	390.82
753.722	241.32
753.907	249.51
754.091	224.94
754.275	335.53
754.459	243.37
754.643	267.94
754.828	294.57
755.012	386.72
755.196	218.79
755.38	399.01
755.564	368.29
755.748	296.61
755.932	333.48
756.116	313
756.3	263.85
756.484	212.65
756.668	390.82
756.852	243.37
757.036	292.52
757.22	214.7
757.404	120.49
757.588	157.35
757.772	294.57
757.956	247.46
758.14	388.77
758.323	188.07
758.507	255.65
758.691	173.74
758.875	292.52
759.059	358.05
759.242	235.18
759.426	218.79
759.61	272.04
759.794	128.68
759.977	292.52
760.161	362.15
760.345	302.76
760.528	233.13
760.712	183.98
760.895	224.94
761.079	317.09
761.263	145.06
761.446	169.64
761.63	261.8
761.813	239.27
761.997	79.53
762.18	134.82
762.364	231.08
762.547	149.16
762.731	183.98
762.914	136.87
763.098	179.88
763.281	206.5
763.464	136.87
763.648	188.07
763.831	181.93
764.015	124.58
764.198	222.89
764.381	235.18
764.564	233.13
764.748	216.74
764.931	140.97
765.114	198.31
765.297	286.37
765.481	42.67
765.664	220.84
765.847	179.88
766.03	251.56
766.213	83.63
766.397	196.26
766.58	67.24
766.763	224.94
766.946	157.35
767.129	110.25
767.312	108.2
767.495	212.65
767.678	95.91
767.861	157.35
768.044	204.46
768.227	173.74
768.41	147.11
768.593	177.83
768.776	181.93
768.959	112.3
769.142	177.83
769.324	169.64
769.507	202.41
769.69	114.34
769.873	91.82
770.056	300.71
770.239	93.87
770.421	282.28
770.604	151.21
770.787	93.87
770.97	151.21
771.152	93.87
771.335	171.69
771.518	46.76
771.7	204.46
771.883	298.66
772.066	136.87
772.248	120.49
772.431	198.31
772.613	134.82
772.796	100.01
772.978	196.26
773.161	345.77
773.343	157.35
773.526	28.33
773.708	-29.01
773.891	34.47
774.073	75.43
774.256	79.53
774.438	173.74
774.621	120.49
774.803	59.05
774.985	28.33
775.168	183.98
775.35	36.52
775.532	91.82
775.715	81.58
775.897	155.3
776.079	114.34
776.261	188.07
776.444	95.91
776.626	81.58
776.808	65.19
776.99	63.15
777.173	145.06
777.355	46.76
777.537	87.72
777.719	163.5
777.901	34.47
778.083	-29.01
778.265	-26.96
778.447	179.88
778.629	71.34
778.811	95.91
778.993	120.49
779.175	118.44
779.357	106.15
779.539	32.43
779.721	112.3
779.903	100.01
780.085	112.3
780.267	155.3
780.449	149.16
780.631	130.73
780.812	116.39
780.994	100.01
781.176	13.99
781.358	26.28
781.54	118.44
781.721	118.44
781.903	116.39
782.085	34.47
782.267	110.25
782.448	7.85
782.63	11.95
782.812	-61.78
782.993	112.3
783.175	116.39
783.357	57
783.538	87.72
783.72	3.75
783.901	54.95
784.083	75.43
784.264	50.86
784.446	-43.35
784.627	-43.35
784.809	97.96
784.99	11.95
785.172	91.82
785.353	32.43
785.535	59.05
785.716	54.95
785.897	11.95
786.079	87.72
786.26	42.67
786.441	151.21
786.623	-22.87
786.804	-43.35
786.985	77.48
787.167	124.58
787.348	-0.34
787.529	3.75
787.71	157.35
787.891	134.82
788.073	7.85
788.254	-69.97
788.435	181.93
788.616	102.06
788.797	34.47
788.978	-47.44
789.159	34.47
789.34	120.49
789.522	22.19
789.703	46.76
789.884	30.38
790.065	91.82
790.246	163.5
790.427	22.19
790.607	102.06
790.788	77.48
790.969	-22.87
791.15	67.24
791.331	-16.73
791.512	46.76
791.693	-0.34
791.874	-10.58
792.054	214.7
792.235	65.19
792.416	-43.35
792.597	-37.2
792.778	85.67
792.958	77.48
793.139	-8.53
793.32	22.19
793.5	-8.53
793.681	120.49
793.862	-6.49
794.042	11.95
794.223	-67.92
794.404	-8.53
794.584	-57.68
794.765	18.09
794.945	-4.44
795.126	38.57
795.306	120.49
795.487	91.82
795.667	67.24
795.848	77.48
796.028	-0.34
796.209	-33.11
796.389	140.97
796.57	-0.34
796.75	-18.77
796.93	22.19
797.111	-12.63
797.291	-35.16
797.471	48.81
797.652	36.52
797.832	-18.77
798.012	89.77
798.192	22.19
798.373	-74.07
798.553	-12.63
798.733	-4.44
798.913	-51.54
799.093	-16.73
799.274	46.76
799.454	85.67
799.634	97.96
799.814	3.75
799.994	157.35
800.174	7.85
800.354	9.9
800.534	-94.55
800.714	69.29
800.894	-96.6
801.074	-69.97
801.254	-18.77
801.434	120.49
801.614	40.62
801.794	-45.4
801.974	1789.58
802.154	-37.2
802.334	69.29
802.514	-74.07
802.693	-20.82
802.873	-4.44
803.053	114.34
803.233	38.57
803.413	32.43
803.592	-41.3
803.772	-47.44
803.952	-6.49
804.131	-127.32
804.311	38.57
804.491	118.44
804.67	-22.87
804.85	-86.36
805.03	46.76
805.209	106.15
805.389	-2.39
805.568	9.9
805.748	-16.73
805.928	-14.68
806.107	59.05
806.287	65.19
806.466	-10.58
806.646	-18.77
806.825	-10.58
807.004	46.76
807.184	42.67
807.363	63.15
807.543	122.54
807.722	-18.77
807.901	143.02
808.081	114.34
808.26	-96.6
808.439	-8.53
808.619	44.71
808.798	-22.87
808.977	5.8
809.156	93.87
809.336	-6.49
809.515	34.47
809.694	-51.54
809.873	18.09
810.052	77.48
810.231	75.43
810.411	73.39
810.59	155.3
810.769	30.38
810.948	-22.87
811.127	-119.12
811.306	-37.2
811.485	24.23
811.664	102.06
811.843	61.1
812.022	11.95
812.201	36.52
812.38	46.76
812.559	9.9
812.737	69.29
812.916	-31.06
813.095	-12.63
813.274	44.71
813.453	24.23
813.632	13.99
813.811	46.76
813.989	-6.49
814.168	30.38
814.347	-106.84
814.526	-26.96
814.704	36.52
814.883	77.48
815.062	-24.92
815.24	57
815.419	-86.36
815.598	67.24
815.776	-94.55
815.955	71.34
816.133	-166.23
816.312	18.09
816.49	-12.63
816.669	69.29
816.847	-41.3
817.026	9.9
817.204	-4.44
817.383	-6.49
817.561	-61.78
817.74	93.87
817.918	-18.77
818.097	7.85
818.275	-90.45
818.453	116.39
818.632	89.77
818.81	-55.64
818.988	-37.2
819.167	-16.73
819.345	79.53
819.523	5.8
819.701	-35.16
819.879	44.71
820.058	24.23
820.236	-74.07
820.414	57
820.592	-57.68
820.77	-12.63
820.948	28.33
821.127	-45.4
821.305	-63.83
821.483	-67.92
821.661	40.62
821.839	38.57
822.017	-76.12
822.195	-2.39
822.373	83.63
822.551	67.24
822.729	3.75
822.907	-49.49
823.085	79.53
823.262	32.43
823.44	-115.03
823.618	-51.54
823.796	-57.68
823.974	-0.34
824.152	30.38
824.329	-67.92
824.507	61.1
824.685	-12.63
824.863	-29.01
825.04	-67.92
825.218	5.8
825.396	-2.39
825.574	-76.12
825.751	24.23
825.929	81.58
826.107	-151.89
826.284	9.9
826.462	91.82
826.639	-10.58
826.817	-108.88
826.994	28.33
827.172	-78.16
827.349	91.82
827.527	28.33
827.704	11.95
827.882	59.05
828.059	-61.78
828.237	-78.16
828.414	83.63
828.591	-88.4
828.769	-22.87
828.946	-88.4
829.124	85.67
829.301	65.19
829.478	-43.35
829.655	32.43
829.833	36.52
830.01	-123.22
830.187	75.43
830.364	-22.87
830.542	40.62
830.719	81.58
830.896	-31.06
831.073	120.49
831.25	-24.92
831.427	61.1
831.604	71.34
831.782	-121.17
831.959	48.81
832.136	-14.68
832.313	3.75
832.49	-8.53
832.667	7.85
832.844	-41.3
833.021	112.3
833.198	-98.64
833.374	-14.68
833.551	30.38
833.728	-16.73
833.905	59.05
834.082	-135.51
834.259	-69.97
834.436	26.28
834.612	-104.79
834.789	46.76
834.966	30.38
835.143	-16.73
835.319	-26.96
835.496	28.33
835.673	-39.25
835.85	22.19
836.026	54.95
836.203	95.91
836.38	-35.16
836.556	-2.39
836.733	-39.25
836.909	140.97
837.086	-90.45
837.262	-121.17
837.439	-63.83
837.616	-67.92
837.792	-24.92
837.968	-10.58
838.145	-123.22
838.321	-39.25
838.498	95.91
838.674	30.38
838.851	-4.44
839.027	-51.54
839.203	24.23
839.38	79.53
839.556	-39.25
839.732	22.19
839.909	-57.68
840.085	32.43
840.261	-67.92
840.437	5.8
840.614	16.04
840.79	46.76
840.966	59.05
841.142	-72.02
841.318	-41.3
841.494	-49.49
841.671	100.01
841.847	-133.46
842.023	-92.5
842.199	85.67
842.375	143.02
842.551	-119.12
842.727	-82.26
842.903	108.2
843.079	-16.73
843.255	91.82
843.431	-10.58
843.607	-115.03
843.783	-137.56
843.959	-12.63
844.134	-16.73
844.31	54.95
844.486	1.71
844.662	-8.53
844.838	-6.49
845.013	-53.59
845.189	75.43
845.365	-14.68
845.541	-53.59
845.716	65.19
845.892	95.91
846.068	20.14
846.244	-143.7
846.419	-76.12
846.595	-92.5
846.77	-57.68
846.946	-37.2
847.122	-20.82
847.297	16.04
847.473	177.83
847.648	-127.32
847.824	24.23
847.999	-133.46
848.175	-51.54
848.35	-35.16
848.526	67.24
848.701	-6.49
848.876	81.58
849.052	20.14
849.227	-45.4
849.403	-4.44
849.578	-63.83
849.753	5.8
849.929	24.23
850.104	-96.6
850.279	30.38
850.454	3.75
850.63	83.63
850.805	-8.53
850.98	85.67
851.155	30.38
851.33	-35.16
851.505	-37.2
851.681	79.53
851.856	-88.4
852.031	34.47
852.206	44.71
852.381	-82.26
852.556	-59.73
852.731	38.57
852.906	61.1
853.081	-88.4
853.256	186.02
853.431	-63.83
853.606	-0.34
853.781	-24.92
853.956	-72.02
854.131	9.9
854.305	-158.03
854.48	30.38
854.655	-96.6
854.83	-37.2
855.005	-63.83
855.18	-2.39
855.354	-63.83
855.529	102.06
855.704	-29.01
855.879	38.57
856.053	-78.16
856.228	-45.4
856.403	-84.31
856.577	65.19
856.752	-84.31
856.926	9.9
857.101	-12.63
857.276	-74.07
857.45	18.09
857.625	7.85
857.799	48.81
857.974	63.15
858.148	-131.41
858.323	13.99
858.497	11.95
858.672	-47.44
858.846	-84.31
859.02	59.05
859.195	-106.84
859.369	-31.06
859.543	-82.26
859.718	-41.3
859.892	-10.58
860.066	65.19
860.241	-12.63
860.415	-33.11
860.589	48.81
860.763	30.38
860.938	-51.54
861.112	-8.53
861.286	-102.74
861.46	7.85
861.634	20.14
861.808	-2.39
861.982	-67.92
862.157	-90.45
862.331	-33.11
862.505	-106.84
862.679	-86.36
862.853	-63.83
863.027	-33.11
863.201	118.44
863.375	-84.31
863.549	32.43
863.722	-45.4
863.896	108.2
864.07	-106.84
864.244	-29.01
864.418	81.58
864.592	-14.68
864.766	-74.07
864.939	16.04
865.113	-43.35
865.287	112.3
865.461	-53.59
865.634	-47.44
865.808	-65.88
865.982	-26.96
866.156	-96.6
866.329	-100.69
866.503	-43.35
866.676	-35.16
866.85	30.38
867.024	-80.21
867.197	22.19
867.371	32.43
867.544	-2.39
867.718	-160.08
867.891	13.99
868.065	-82.26
868.238	-2.39
868.412	149.16
868.585	20.14
868.759	-10.58
868.932	-26.96
869.105	-72.02
869.279	-37.2
869.452	-104.79
869.625	22.19
869.799	-14.68
869.972	-102.74
870.145	-22.87
870.319	124.58
870.492	-61.78
870.665	-67.92
870.838	-39.25
871.011	-110.93
871.185	52.91
871.358	-49.49
871.531	26.28
871.704	-37.2
871.877	9.9
872.05	-49.49
872.223	-43.35
872.396	32.43
872.569	9.9
872.742	-98.64
872.915	-6.49
873.088	-53.59
873.261	-92.5
873.434	46.76
873.607	-2.39
873.78	3.75
873.953	-102.74
874.126	89.77
874.299	71.34
874.471	-59.73
874.644	-47.44
874.817	9.9
874.99	147.11
875.163	-55.64
875.335	-33.11
875.508	1.71
875.681	24.23
875.853	-76.12
876.026	-6.49
876.199	67.24
876.371	-82.26
876.544	-26.96
876.717	-31.06
876.889	-20.82
877.062	-26.96
877.234	-45.4
877.407	-22.87
877.579	13.99
877.752	36.52
877.924	63.15
878.097	-4.44
878.269	57
878.442	13.99
878.614	63.15
878.786	-18.77
878.959	-6.49
879.131	44.71
879.303	-106.84
879.476	-24.92
879.648	132.78
879.82	-22.87
879.993	-78.16
880.165	7.85
880.337	-170.32
880.509	-18.77
880.681	-110.93
880.854	-78.16
881.026	38.57
881.198	67.24
881.37	-41.3
881.542	-43.35
881.714	1.71
881.886	-53.59
882.058	7.85
882.23	-2.39
882.402	5.8
882.574	89.77
882.746	95.91
882.918	-10.58
883.09	-35.16
883.262	5.8
883.434	5.8
883.606	-137.56
883.778	1.71
883.95	93.87
884.122	-26.96
884.293	85.67
884.465	-6.49
884.637	7.85
884.809	-80.21
884.98	-8.53
885.152	50.86
885.324	89.77
885.496	-53.59
885.667	-10.58
885.839	30.38
886.011	73.39
886.182	-8.53
886.354	34.47
886.525	42.67
886.697	57
886.869	-51.54
887.04	16.04
887.212	110.25
887.383	122.54
887.555	34.47
887.726	-76.12
887.897	-14.68
888.069	-14.68
888.24	-18.77
888.412	-12.63
888.583	-45.4
888.754	16.04
888.926	-110.93
889.097	-102.74
889.268	-141.65
889.44	-39.25
889.611	-115.03
889.782	-45.4
889.953	-43.35
890.125	24.23
890.296	-96.6
890.467	-59.73
890.638	-82.26
890.809	9.9
890.98	-26.96
891.151	9.9
891.323	32.43
891.494	3.75
891.665	-14.68
891.836	3.75
892.007	-10.58
892.178	-8.53
892.349	-45.4
892.52	-51.54
892.691	-55.64
892.862	-80.21
893.032	-82.26
893.203	-65.88
893.374	-47.44
893.545	54.95
893.716	-59.73
893.887	-0.34
894.057	-55.64
894.228	-78.16
894.399	-31.06
894.57	5.8
894.74	3.75
894.911	-4.44
895.082	3.75
895.253	-6.49
895.423	28.33
895.594	24.23
895.764	-26.96
895.935	-16.73
896.106	-47.44
896.276	-47.44
896.447	34.47
896.617	-96.6
896.788	-65.88
896.958	-16.73
897.129	-65.88
897.299	-6.49
897.47	214.7
897.64	20.14
897.81	-55.64
897.981	7.85
898.151	-123.22
898.322	-20.82
898.492	75.43
898.662	-51.54
898.832	-57.68
899.003	-16.73
899.173	5.8
899.343	-80.21
899.513	-158.03
