Data from USB4F104151__149__11-04-23-732.txt Node

Date: Wed Feb 26 11:04:23 EST 2025
User: louis
Spectrometer: USB4F10415
Trigger mode: 4
Integration Time (sec): 1.000000E-1
Scans to average: 1
Electric dark correction enabled: true
Nonlinearity correction enabled: false
Boxcar width: 0
XAxis mode: Wavelengths
Number of Pixels in Spectrum: 3648
>>>>>Begin Spectral Data<<<<<
178.204	-383.99
178.424	-383.99
178.644	-383.99
178.864	-402.43
179.084	-345.08
179.304	87.04
179.524	25.6
179.744	25.6
179.964	44.03
180.184	80.89
180.404	-35.84
180.624	-35.84
180.844	-39.94
181.064	-76.8
181.283	-19.46
181.503	-37.89
181.723	-17.41
181.943	-54.27
182.163	152.57
182.383	1.02
182.602	82.94
182.822	158.72
183.042	7.17
183.262	23.55
183.482	5.12
183.701	48.13
183.921	23.55
184.141	19.46
184.361	84.99
184.58	97.28
184.8	-9.22
185.02	13.31
185.239	103.42
185.459	64.51
185.679	130.05
185.898	-52.22
186.118	97.28
186.338	134.14
186.557	158.72
186.777	35.84
186.997	23.55
187.216	39.94
187.436	211.96
187.655	101.37
187.875	115.71
188.095	-3.07
188.314	199.68
188.534	64.51
188.753	56.32
188.973	91.13
189.192	203.77
189.412	70.65
189.631	138.24
189.851	138.24
190.07	138.24
190.29	7.17
190.509	3.07
190.729	5.12
190.948	138.24
191.168	279.55
191.387	89.09
191.607	19.46
191.826	39.94
192.045	-9.22
192.265	27.65
192.484	115.71
192.704	13.31
192.923	-37.89
193.142	177.15
193.362	58.37
193.581	146.43
193.8	78.85
194.02	60.42
194.239	105.47
194.458	74.75
194.678	99.33
194.897	7.17
195.116	13.31
195.335	25.6
195.555	87.04
195.774	-37.89
195.993	101.37
196.212	109.57
196.432	-3.07
196.651	21.5
196.87	-25.6
197.089	263.16
197.308	140.29
197.528	68.61
197.747	-21.5
197.966	41.98
198.185	158.72
198.404	-5.12
198.623	48.13
198.842	91.13
199.062	179.2
199.281	46.08
199.5	52.22
199.719	130.05
199.938	58.37
200.157	99.33
200.376	84.99
200.595	84.99
200.814	128
201.033	29.7
201.252	158.72
201.471	117.76
201.69	80.89
201.909	101.37
202.128	109.57
202.347	62.46
202.566	68.61
202.785	-95.23
203.004	-5.12
203.223	269.31
203.442	128
203.661	-13.31
203.879	33.79
204.098	158.72
204.317	-56.32
204.536	84.99
204.755	152.57
204.974	76.8
205.193	9.22
205.411	93.18
205.63	121.85
205.849	-5.12
206.068	84.99
206.287	48.13
206.505	181.25
206.724	33.79
206.943	11.26
207.162	68.61
207.381	68.61
207.599	44.03
207.818	52.22
208.037	-46.08
208.255	21.5
208.474	46.08
208.693	17.41
208.911	117.76
209.13	87.04
209.349	60.42
209.567	115.71
209.786	121.85
210.005	76.8
210.223	9.22
210.442	-101.37
210.661	-7.17
210.879	62.46
211.098	-25.6
211.316	52.22
211.535	87.04
211.753	101.37
211.972	216.06
212.191	54.27
212.409	62.46
212.628	138.24
212.846	5.12
213.065	99.33
213.283	140.29
213.502	105.47
213.72	52.22
213.938	58.37
214.157	23.55
214.375	138.24
214.594	52.22
214.812	-3.07
215.031	62.46
215.249	132.09
215.467	72.7
215.686	66.56
215.904	87.04
216.122	115.71
216.341	168.96
216.559	78.85
216.778	109.57
216.996	103.42
217.214	7.17
217.432	-23.55
217.651	-64.51
217.869	52.22
218.087	31.74
218.306	13.31
218.524	-7.17
218.742	70.65
218.96	121.85
219.179	15.36
219.397	52.22
219.615	185.34
219.833	60.42
220.051	-9.22
220.27	84.99
220.488	179.2
220.706	68.61
220.924	-60.42
221.142	54.27
221.36	41.98
221.578	39.94
221.796	66.56
222.015	60.42
222.233	41.98
222.451	175.1
222.669	-46.08
222.887	164.86
223.105	50.18
223.323	41.98
223.541	13.31
223.759	62.46
223.977	72.7
224.195	177.15
224.413	101.37
224.631	-13.31
224.849	56.32
225.067	185.34
225.285	46.08
225.503	89.09
225.721	-115.71
225.939	76.8
226.157	99.33
226.375	95.23
226.592	21.5
226.81	13.31
227.028	185.34
227.246	136.19
227.464	91.13
227.682	160.77
227.9	80.89
228.117	50.18
228.335	68.61
228.553	-3.07
228.771	-5.12
228.989	93.18
229.206	50.18
229.424	72.7
229.642	-7.17
229.86	-29.7
230.077	84.99
230.295	44.03
230.513	138.24
230.731	123.9
230.948	248.83
231.166	181.25
231.384	33.79
231.601	-19.46
231.819	158.72
232.037	-44.03
232.254	72.7
232.472	9.22
232.689	23.55
232.907	168.96
233.125	-19.46
233.342	54.27
233.56	27.65
233.777	27.65
233.995	1.02
234.213	109.57
234.43	109.57
234.648	33.79
234.865	62.46
235.083	113.66
235.3	78.85
235.518	62.46
235.735	160.77
235.953	117.76
236.17	37.89
236.388	68.61
236.605	121.85
236.822	136.19
237.04	154.62
237.257	80.89
237.475	-29.7
237.692	60.42
237.909	41.98
238.127	5.12
238.344	101.37
238.562	109.57
238.779	-41.98
238.996	-25.6
239.214	37.89
239.431	164.86
239.648	44.03
239.865	111.61
240.083	27.65
240.3	52.22
240.517	78.85
240.735	46.08
240.952	107.52
241.169	134.14
241.386	68.61
241.603	41.98
241.821	-7.17
242.038	84.99
242.255	70.65
242.472	-50.18
242.689	107.52
242.907	154.62
243.124	39.94
243.341	23.55
243.558	68.61
243.775	-68.61
243.992	-64.51
244.209	62.46
244.426	175.1
244.643	84.99
244.86	74.75
245.078	134.14
245.295	101.37
245.512	44.03
245.729	84.99
245.946	46.08
246.163	95.23
246.38	-5.12
246.597	44.03
246.814	-17.41
247.031	46.08
247.248	27.65
247.464	130.05
247.681	41.98
247.898	33.79
248.115	97.28
248.332	-27.65
248.549	121.85
248.766	152.57
248.983	107.52
249.2	74.75
249.417	226.3
249.633	37.89
249.85	134.14
250.067	23.55
250.284	70.65
250.501	52.22
250.717	140.29
250.934	-74.75
251.151	46.08
251.368	60.42
251.585	74.75
251.801	54.27
252.018	-23.55
252.235	78.85
252.451	-33.79
252.668	41.98
252.885	173.05
253.102	105.47
253.318	93.18
253.535	1.02
253.752	-3.07
253.968	11.26
254.185	-37.89
254.401	105.47
254.618	107.52
254.835	-37.89
255.051	164.86
255.268	138.24
255.484	21.5
255.701	-1.02
255.917	132.09
256.134	-56.32
256.351	134.14
256.567	-11.26
256.784	-5.12
257	-39.94
257.217	158.72
257.433	39.94
257.65	23.55
257.866	263.16
258.082	-21.5
258.299	-1.02
258.515	58.37
258.732	95.23
258.948	5.12
259.165	46.08
259.381	-37.89
259.597	181.25
259.814	60.42
260.03	39.94
260.246	46.08
260.463	68.61
260.679	150.53
260.895	25.6
261.112	11.26
261.328	13.31
261.544	11.26
261.761	185.34
261.977	3.07
262.193	66.56
262.409	64.51
262.626	105.47
262.842	19.46
263.058	-70.65
263.274	99.33
263.49	76.8
263.707	84.99
263.923	123.9
264.139	-48.13
264.355	74.75
264.571	113.66
264.787	107.52
265.004	164.86
265.22	41.98
265.436	11.26
265.652	-11.26
265.868	37.89
266.084	-31.74
266.3	7.17
266.516	-35.84
266.732	105.47
266.948	52.22
267.164	62.46
267.38	62.46
267.596	74.75
267.812	238.59
268.028	72.7
268.244	82.94
268.46	3.07
268.676	-5.12
268.892	117.76
269.108	-17.41
269.324	5.12
269.54	-48.13
269.756	130.05
269.972	29.7
270.188	152.57
270.403	70.65
270.619	76.8
270.835	128
271.051	23.55
271.267	-19.46
271.483	-46.08
271.698	72.7
271.914	111.61
272.13	21.5
272.346	-11.26
272.562	109.57
272.777	128
272.993	48.13
273.209	60.42
273.425	134.14
273.64	-17.41
273.856	103.42
274.072	-39.94
274.287	7.17
274.503	105.47
274.719	125.95
274.934	44.03
275.15	-25.6
275.366	-11.26
275.581	-25.6
275.797	27.65
276.012	41.98
276.228	-35.84
276.444	80.89
276.659	123.9
276.875	-29.7
277.09	-19.46
277.306	41.98
277.521	80.89
277.737	80.89
277.952	109.57
278.168	-19.46
278.383	35.84
278.599	97.28
278.814	142.33
279.03	48.13
279.245	183.29
279.461	132.09
279.676	144.38
279.892	-48.13
280.107	-23.55
280.322	-29.7
280.538	52.22
280.753	3.07
280.969	13.31
281.184	105.47
281.399	166.91
281.615	35.84
281.83	52.22
282.045	-44.03
282.26	56.32
282.476	37.89
282.691	125.95
282.906	58.37
283.122	13.31
283.337	-19.46
283.552	84.99
283.767	-7.17
283.983	91.13
284.198	56.32
284.413	68.61
284.628	-3.07
284.843	66.56
285.058	103.42
285.274	9.22
285.489	-64.51
285.704	146.43
285.919	9.22
286.134	56.32
286.349	9.22
286.564	41.98
286.779	44.03
286.995	56.32
287.21	-19.46
287.425	84.99
287.64	19.46
287.855	89.09
288.07	-15.36
288.285	78.85
288.5	74.75
288.715	91.13
288.93	7.17
289.145	46.08
289.36	156.67
289.575	39.94
289.79	95.23
290.004	3.07
290.219	136.19
290.434	54.27
290.649	60.42
290.864	74.75
291.079	29.7
291.294	191.49
291.509	142.33
291.724	-39.94
291.938	1.02
292.153	87.04
292.368	44.03
292.583	70.65
292.798	70.65
293.012	119.81
293.227	41.98
293.442	-3.07
293.657	138.24
293.871	125.95
294.086	115.71
294.301	125.95
294.516	125.95
294.73	109.57
294.945	21.5
295.16	70.65
295.374	115.71
295.589	140.29
295.804	7.17
296.018	74.75
296.233	91.13
296.447	68.61
296.662	-19.46
296.877	154.62
297.091	175.1
297.306	99.33
297.52	37.89
297.735	64.51
297.949	33.79
298.164	66.56
298.378	144.38
298.593	-44.03
298.807	-41.98
299.022	27.65
299.236	134.14
299.451	35.84
299.665	54.27
299.88	111.61
300.094	93.18
300.309	78.85
300.523	19.46
300.737	66.56
300.952	-15.36
301.166	66.56
301.381	-9.22
301.595	76.8
301.809	21.5
302.024	37.89
302.238	-41.98
302.452	160.77
302.667	19.46
302.881	158.72
303.095	97.28
303.309	56.32
303.524	93.18
303.738	-54.27
303.952	39.94
304.166	144.38
304.381	-19.46
304.595	109.57
304.809	-7.17
305.023	25.6
305.237	60.42
305.452	29.7
305.666	121.85
305.88	148.48
306.094	128
306.308	87.04
306.522	132.09
306.736	31.74
306.95	103.42
307.164	52.22
307.379	80.89
307.593	121.85
307.807	109.57
308.021	107.52
308.235	93.18
308.449	-87.04
308.663	91.13
308.877	226.3
309.091	39.94
309.305	52.22
309.519	-140.29
309.733	115.71
309.947	-41.98
310.161	197.63
310.374	189.44
310.588	199.68
310.802	58.37
311.016	9.22
311.23	72.7
311.444	-11.26
311.658	62.46
311.872	150.53
312.085	146.43
312.299	56.32
312.513	160.77
312.727	121.85
312.941	-7.17
313.154	152.57
313.368	62.46
313.582	17.41
313.796	93.18
314.009	97.28
314.223	164.86
314.437	58.37
314.651	78.85
314.864	33.79
315.078	33.79
315.292	-41.98
315.505	27.65
315.719	175.1
315.933	164.86
316.146	-70.65
316.36	3.07
316.573	152.57
316.787	78.85
317.001	125.95
317.214	-78.85
317.428	76.8
317.641	23.55
317.855	48.13
318.068	68.61
318.282	95.23
318.495	177.15
318.709	99.33
318.922	128
319.136	187.39
319.349	105.47
319.563	3.07
319.776	95.23
319.99	-74.75
320.203	101.37
320.417	72.7
320.63	93.18
320.843	140.29
321.057	107.52
321.27	11.26
321.483	150.53
321.697	175.1
321.91	123.9
322.124	37.89
322.337	101.37
322.55	52.22
322.763	97.28
322.977	70.65
323.19	62.46
323.403	31.74
323.617	62.46
323.83	150.53
324.043	99.33
324.256	37.89
324.469	21.5
324.683	125.95
324.896	-23.55
325.109	33.79
325.322	-64.51
325.535	78.85
325.748	109.57
325.962	41.98
326.175	58.37
326.388	84.99
326.601	95.23
326.814	60.42
327.027	76.8
327.24	158.72
327.453	-25.6
327.666	56.32
327.879	193.53
328.092	111.61
328.305	84.99
328.518	17.41
328.731	27.65
328.944	62.46
329.157	23.55
329.37	-60.42
329.583	144.38
329.796	115.71
330.009	-29.7
330.222	142.33
330.435	99.33
330.648	50.18
330.861	-25.6
331.073	130.05
331.286	166.91
331.499	64.51
331.712	29.7
331.925	15.36
332.138	113.66
332.35	128
332.563	33.79
332.776	82.94
332.989	-62.46
333.202	54.27
333.414	7.17
333.627	64.51
333.84	-1.02
334.053	60.42
334.265	9.22
334.478	-33.79
334.691	56.32
334.903	44.03
335.116	58.37
335.329	-13.31
335.541	27.65
335.754	232.44
335.966	5.12
336.179	-25.6
336.392	1.02
336.604	-15.36
336.817	95.23
337.029	93.18
337.242	35.84
337.454	82.94
337.667	27.65
337.88	103.42
338.092	64.51
338.305	101.37
338.517	93.18
338.729	119.81
338.942	113.66
339.154	7.17
339.367	-41.98
339.579	144.38
339.792	-33.79
340.004	130.05
340.217	99.33
340.429	95.23
340.641	-21.5
340.854	76.8
341.066	-9.22
341.278	109.57
341.491	250.88
341.703	48.13
341.915	-25.6
342.128	138.24
342.34	117.76
342.552	-52.22
342.764	39.94
342.977	-3.07
343.189	68.61
343.401	74.75
343.613	-58.37
343.826	37.89
344.038	-41.98
344.25	56.32
344.462	11.26
344.674	121.85
344.886	35.84
345.099	62.46
345.311	84.99
345.523	58.37
345.735	-123.9
345.947	78.85
346.159	160.77
346.371	27.65
346.583	-41.98
346.795	191.49
347.007	25.6
347.219	52.22
347.431	29.7
347.643	121.85
347.855	-23.55
348.067	158.72
348.279	15.36
348.491	89.09
348.703	117.76
348.915	78.85
349.127	-25.6
349.339	-11.26
349.551	48.13
349.763	177.15
349.975	7.17
350.187	134.14
350.399	179.2
350.61	89.09
350.822	29.7
351.034	93.18
351.246	101.37
351.458	99.33
351.669	156.67
351.881	189.44
352.093	148.48
352.305	134.14
352.517	68.61
352.728	164.86
352.94	39.94
353.152	89.09
353.363	64.51
353.575	168.96
353.787	125.95
353.999	99.33
354.21	156.67
354.422	-41.98
354.633	39.94
354.845	76.8
355.057	15.36
355.268	80.89
355.48	95.23
355.692	-29.7
355.903	52.22
356.115	-33.79
356.326	-15.36
356.538	138.24
356.749	95.23
356.961	130.05
357.172	7.17
357.384	-5.12
357.595	230.4
357.807	46.08
358.018	54.27
358.23	-15.36
358.441	154.62
358.653	78.85
358.864	50.18
359.075	-76.8
359.287	87.04
359.498	156.67
359.709	138.24
359.921	111.61
360.132	52.22
360.344	-37.89
360.555	15.36
360.766	109.57
360.977	74.75
361.189	142.33
361.4	37.89
361.611	101.37
361.823	193.53
362.034	82.94
362.245	-7.17
362.456	84.99
362.667	66.56
362.879	-31.74
363.09	-1.02
363.301	105.47
363.512	84.99
363.723	1.02
363.935	58.37
364.146	115.71
364.357	-3.07
364.568	99.33
364.779	-58.37
364.99	101.37
365.201	52.22
365.412	130.05
365.623	-44.03
365.834	56.32
366.045	80.89
366.256	50.18
366.467	142.33
366.678	68.61
366.889	95.23
367.1	60.42
367.311	76.8
367.522	-31.74
367.733	82.94
367.944	105.47
368.155	-27.65
368.366	87.04
368.577	70.65
368.788	89.09
368.999	-33.79
369.209	50.18
369.42	197.63
369.631	226.3
369.842	144.38
370.053	76.8
370.264	66.56
370.474	52.22
370.685	101.37
370.896	99.33
371.107	185.34
371.317	62.46
371.528	52.22
371.739	125.95
371.95	123.9
372.16	101.37
372.371	-21.5
372.582	27.65
372.792	44.03
373.003	27.65
373.214	136.19
373.424	119.81
373.635	-17.41
373.846	132.09
374.056	60.42
374.267	31.74
374.477	9.22
374.688	1.02
374.898	33.79
375.109	35.84
375.319	74.75
375.53	146.43
375.74	168.96
375.951	3.07
376.161	87.04
376.372	109.57
376.582	62.46
376.793	109.57
377.003	41.98
377.214	17.41
377.424	128
377.635	119.81
377.845	15.36
378.055	80.89
378.266	-35.84
378.476	37.89
378.686	64.51
378.897	111.61
379.107	134.14
379.317	117.76
379.528	5.12
379.738	144.38
379.948	-11.26
380.158	199.68
380.369	107.52
380.579	138.24
380.789	62.46
380.999	105.47
381.21	144.38
381.42	244.73
381.63	62.46
381.84	109.57
382.05	123.9
382.261	205.82
382.471	197.63
382.681	52.22
382.891	168.96
383.101	125.95
383.311	15.36
383.521	82.94
383.731	74.75
383.941	146.43
384.151	189.44
384.361	3.07
384.571	80.89
384.781	66.56
384.991	191.49
385.201	228.35
385.411	177.15
385.621	23.55
385.831	62.46
386.041	21.5
386.251	13.31
386.461	234.49
386.671	-27.65
386.881	105.47
387.091	72.7
387.301	103.42
387.511	44.03
387.72	99.33
387.93	193.53
388.14	-5.12
388.35	78.85
388.56	74.75
388.769	128
388.979	80.89
389.189	-9.22
389.399	44.03
389.609	119.81
389.818	220.16
390.028	101.37
390.238	105.47
390.447	39.94
390.657	109.57
390.867	91.13
391.076	-58.37
391.286	91.13
391.496	33.79
391.705	33.79
391.915	205.82
392.125	87.04
392.334	44.03
392.544	142.33
392.753	130.05
392.963	78.85
393.172	62.46
393.382	-17.41
393.591	203.77
393.801	134.14
394.01	144.38
394.22	140.29
394.429	33.79
394.639	95.23
394.848	134.14
395.058	48.13
395.267	37.89
395.477	76.8
395.686	142.33
395.895	148.48
396.105	187.39
396.314	119.81
396.524	31.74
396.733	-11.26
396.942	117.76
397.152	89.09
397.361	128
397.57	54.27
397.78	56.32
397.989	46.08
398.198	232.44
398.407	13.31
398.617	41.98
398.826	27.65
399.035	95.23
399.244	142.33
399.453	41.98
399.663	115.71
399.872	103.42
400.081	13.31
400.29	195.58
400.499	7.17
400.708	144.38
400.917	9.22
401.127	27.65
401.336	-27.65
401.545	207.87
401.754	134.14
401.963	80.89
402.172	58.37
402.381	41.98
402.59	72.7
402.799	117.76
403.008	107.52
403.217	84.99
403.426	105.47
403.635	-64.51
403.844	136.19
404.053	37.89
404.262	66.56
404.471	166.91
404.68	105.47
404.888	78.85
405.097	11.26
405.306	29.7
405.515	64.51
405.724	78.85
405.933	93.18
406.142	29.7
406.35	146.43
406.559	62.46
406.768	1.02
406.977	148.48
407.185	105.47
407.394	66.56
407.603	-17.41
407.812	125.95
408.02	181.25
408.229	60.42
408.438	144.38
408.646	-44.03
408.855	80.89
409.064	105.47
409.272	39.94
409.481	130.05
409.69	17.41
409.898	21.5
410.107	142.33
410.315	84.99
410.524	50.18
410.733	132.09
410.941	29.7
411.15	97.28
411.358	146.43
411.567	228.35
411.775	13.31
411.984	84.99
412.192	140.29
412.401	64.51
412.609	142.33
412.818	162.81
413.026	97.28
413.234	70.65
413.443	84.99
413.651	3.07
413.86	33.79
414.068	185.34
414.276	146.43
414.485	-23.55
414.693	183.29
414.901	148.48
415.11	41.98
415.318	95.23
415.526	17.41
415.734	136.19
415.943	105.47
416.151	138.24
416.359	78.85
416.567	58.37
416.776	162.81
416.984	175.1
417.192	207.87
417.4	44.03
417.608	27.65
417.817	29.7
418.025	87.04
418.233	269.31
418.441	21.5
418.649	50.18
418.857	105.47
419.065	187.39
419.273	-35.84
419.481	-15.36
419.689	3.07
419.897	50.18
420.105	9.22
420.313	109.57
420.521	150.53
420.729	164.86
420.937	62.46
421.145	-25.6
421.353	166.91
421.561	281.6
421.769	175.1
421.977	44.03
422.185	146.43
422.393	19.46
422.601	142.33
422.809	111.61
423.017	-9.22
423.224	103.42
423.432	109.57
423.64	17.41
423.848	146.43
424.056	27.65
424.263	164.86
424.471	103.42
424.679	252.92
424.887	-35.84
425.094	171.01
425.302	62.46
425.51	-78.85
425.718	82.94
425.925	99.33
426.133	41.98
426.341	220.16
426.548	52.22
426.756	56.32
426.964	97.28
427.171	70.65
427.379	128
427.586	93.18
427.794	99.33
428.001	209.92
428.209	115.71
428.417	199.68
428.624	101.37
428.832	87.04
429.039	58.37
429.247	160.77
429.454	144.38
429.662	209.92
429.869	181.25
430.076	173.05
430.284	111.61
430.491	240.64
430.699	166.91
430.906	207.87
431.114	84.99
431.321	181.25
431.528	95.23
431.736	185.34
431.943	226.3
432.15	218.11
432.358	201.72
432.565	310.27
432.772	54.27
432.979	197.63
433.187	238.59
433.394	187.39
433.601	111.61
433.808	259.07
434.016	257.02
434.223	209.92
434.43	316.41
434.637	271.36
434.844	289.79
435.052	326.65
435.259	166.91
435.466	265.21
435.673	330.75
435.88	295.93
436.087	312.32
436.294	412.67
436.501	353.27
436.708	336.89
436.915	347.13
437.122	467.96
437.329	322.56
437.537	279.55
437.743	396.28
437.95	508.92
438.157	478.2
438.364	410.62
438.571	558.07
438.778	519.16
438.985	547.83
439.192	492.54
439.399	470.01
439.606	543.74
439.813	531.45
440.02	728.05
440.227	674.81
440.433	637.94
440.64	607.22
440.847	584.7
441.054	609.27
441.261	789.49
441.467	793.59
441.674	642.04
441.881	846.84
442.088	750.58
442.294	769.01
442.501	900.08
442.708	820.21
442.914	893.94
443.121	1014.77
443.328	893.94
443.534	990.19
443.741	1000.43
443.948	988.14
444.154	1068.02
444.361	1178.61
444.568	1141.74
444.774	1096.69
444.981	1100.78
445.187	1383.4
445.394	1238
445.6	1205.23
445.807	1362.92
446.013	1436.65
446.22	1432.55
446.426	1483.75
446.633	1641.45
446.839	1801.19
447.046	1541.1
447.252	1876.96
447.459	1713.13
447.665	1838.05
447.871	1934.31
448.078	2106.34
448.284	2110.43
448.491	2216.93
448.697	2374.62
448.903	2339.8
449.11	2382.81
449.316	2331.61
449.522	2581.46
449.728	2780.12
449.935	2782.17
450.141	2792.41
450.347	3019.73
450.553	3011.54
450.76	3046.35
450.966	3273.68
451.172	3392.46
451.378	3433.42
451.584	3445.71
451.791	3830.73
451.997	3828.68
452.203	3828.68
452.409	4201.41
452.615	4193.22
452.821	4166.59
453.027	4324.29
453.233	4707.26
453.44	4660.15
453.646	4780.98
453.852	5122.99
454.058	5356.46
454.264	5364.65
454.47	5927.85
454.676	5698.47
454.882	6443.93
455.088	6075.3
455.294	6511.52
455.5	6794.14
455.705	7105.43
455.911	7093.14
456.117	7306.13
456.323	7764.87
456.529	7734.15
456.735	8328.06
456.941	8549.25
457.147	8891.26
457.352	9126.77
457.558	9440.11
457.764	10036.07
457.97	10208.1
458.176	10718.04
458.381	11252.56
458.587	11164.5
458.793	11993.93
458.999	11852.62
459.204	13517.62
459.41	13790
459.616	13611.82
459.821	14576.42
460.027	15088.41
460.233	15917.84
460.438	15754
460.644	16827.14
460.85	16775.94
461.055	17574.64
461.261	18596.58
461.466	18107.12
461.672	18561.76
461.878	20484.81
462.083	20634.31
462.289	20771.52
462.494	21349.05
462.7	21912.24
462.905	22231.72
463.111	23935.63
463.316	24812.17
463.522	25653.88
463.727	26235.5
463.932	27210.34
464.138	28187.22
464.343	29440.57
464.549	29477.44
464.754	32035.35
464.959	32231.96
465.165	32655.89
465.37	32649.74
465.575	32754.19
465.781	34796.01
465.986	36159.96
466.191	35514.85
466.397	35398.12
466.602	35021.29
466.807	36676.05
467.012	37085.64
467.218	37917.12
467.423	37906.88
467.628	39350.7
467.833	40817.04
468.038	40044.96
468.244	39913.89
468.449	41765.25
468.654	40524.18
468.859	40776.08
469.064	40735.12
469.269	39586.21
469.474	39946.65
469.679	41138.57
469.885	39807.39
470.09	40483.22
470.295	40536.47
470.5	39444.9
470.705	39684.51
470.91	38693.3
471.115	38300.09
471.32	39141.8
471.525	38644.15
471.73	37837.25
471.935	37306.82
472.139	36010.46
472.344	36098.52
472.549	35887.58
472.754	35000.81
472.959	34019.83
473.164	33008.14
473.369	32455.18
473.574	33483.27
473.778	32721.42
473.983	32336.4
474.188	31812.12
474.393	29833.78
474.598	29905.46
474.802	29858.36
475.007	29076.04
475.212	28734.03
475.417	27832.92
475.621	27298.4
475.826	27306.59
476.031	26327.66
476.235	25936.5
476.44	25858.68
476.645	24953.48
476.849	24990.34
477.054	24515.21
477.259	23814.8
477.463	23601.82
477.668	23085.73
477.872	23591.58
478.077	22692.52
478.282	21762.74
478.486	21826.23
478.691	21494.46
478.895	21435.06
479.1	21091.01
479.304	21240.51
479.509	20257.48
479.713	20558.53
479.918	20173.52
480.122	19784.4
480.326	19921.62
480.531	20089.55
480.735	19647.19
480.94	19348.18
481.144	19929.81
481.348	18629.35
481.553	18967.26
481.757	18649.83
481.961	18789.09
482.166	18662.12
482.37	18432.74
482.574	18287.34
482.778	18035.44
482.983	18344.68
483.187	18029.29
483.391	17883.89
483.595	17832.69
483.8	17158.91
484.004	17322.74
484.208	17353.46
484.412	17066.75
484.616	16728.83
484.821	16677.63
485.025	16259.85
485.229	16329.48
485.433	16083.72
485.637	15966.99
485.841	15571.73
486.045	15328.02
486.249	15221.53
486.453	14893.85
486.657	14877.47
486.861	14654.24
487.065	14150.44
487.269	14179.11
487.473	13749.04
487.677	13744.94
487.881	13767.47
488.085	13169.46
488.289	12903.23
488.493	12757.82
488.697	12776.25
488.901	12389.19
489.105	12188.49
489.309	12073.8
489.512	12108.62
489.716	11891.53
489.92	11170.65
490.124	11332.44
490.328	11258.71
490.531	10597.21
490.735	10990.42
490.939	10464.1
491.143	10308.45
491.346	10031.97
491.55	9956.2
491.754	9745.26
491.958	9669.48
492.161	9497.46
492.365	9524.08
492.569	9272.18
492.772	9071.48
492.976	9284.47
493.18	9018.23
493.383	8858.49
493.587	8692.6
493.79	8889.21
493.994	8403.84
494.197	8307.59
494.401	8403.84
494.605	8369.02
494.808	8323.97
495.012	8178.56
495.215	8309.63
495.419	8115.08
495.622	8006.53
495.825	8117.12
496.029	7938.95
496.232	7932.81
496.436	7900.04
496.639	7963.53
496.843	7811.98
497.046	7801.74
497.249	7953.29
497.453	7916.42
497.656	7887.75
497.859	7947.14
498.063	8014.73
498.266	8199.04
498.469	7705.48
498.673	7934.85
498.876	8172.42
499.079	8033.16
499.282	8092.55
499.485	8471.42
499.689	8065.92
499.892	8459.13
500.095	8395.65
500.298	8534.91
500.501	8217.47
500.705	8612.73
500.908	8545.15
501.111	8561.53
501.314	8860.54
501.517	8856.44
501.72	9016.18
501.923	9053.05
502.126	9171.83
502.329	9384.82
502.532	9376.62
502.735	9448.3
502.938	9640.81
503.141	9646.96
503.344	9859.95
503.547	9907.05
503.75	10216.29
503.953	10171.24
504.156	10255.2
504.359	10376.03
504.562	10666.85
504.765	11002.71
504.968	10982.23
505.17	11082.58
505.373	11369.3
505.576	11696.97
505.779	11799.37
505.982	11830.09
506.185	12235.59
506.387	12243.78
506.59	12454.72
506.793	12661.57
506.996	12989.24
507.198	13368.12
507.401	13450.03
507.604	13779.76
507.807	14250.79
508.009	14248.74
508.212	14897.95
508.415	14979.87
508.617	15352.6
508.82	15317.78
509.022	15541.01
509.225	16270.09
509.428	16536.32
509.63	16771.84
509.833	17048.32
510.035	17814.26
510.238	17941.23
510.44	18338.54
510.643	18926.3
510.845	19176.16
511.048	19501.78
511.25	19950.29
511.453	20626.12
511.655	21357.24
511.858	21613.24
512.06	21709.49
512.262	22516.39
512.465	22897.31
512.667	23329.44
512.87	23816.85
513.072	24459.91
513.274	25234.05
513.477	25635.45
513.679	25686.65
513.881	26684.01
514.084	27138.66
514.286	27533.92
514.488	28297.81
514.69	29295.17
514.893	29651.52
515.095	30343.73
515.297	30917.16
515.499	31541.79
515.701	31889.95
515.904	33094.15
516.106	33597.95
516.308	34447.86
516.51	34968.04
516.712	35455.46
516.914	36004.31
517.116	36911.56
517.318	37597.63
517.52	37951.93
517.722	38744.5
517.925	39440.81
518.127	40735.12
518.329	41044.37
518.531	41140.62
518.733	42224
518.935	42973.55
519.136	43135.34
519.338	43766.12
519.54	44597.59
519.742	45640.01
519.944	46051.65
520.146	46747.96
520.348	47558.95
520.55	47948.07
520.752	48806.17
520.954	49498.38
521.155	49383.69
521.357	50583.8
521.559	50946.29
521.761	51491.05
521.963	51980.52
522.164	51984.61
522.366	52654.3
522.568	53364.95
522.77	53321.94
522.971	54026.44
523.173	54057.16
523.375	54689.98
523.576	54259.91
523.778	54532.29
523.98	55177.4
524.181	55404.72
524.383	55806.12
524.584	56234.15
524.786	55460.02
524.988	55525.55
525.189	56055.98
525.391	56463.52
525.592	56664.22
525.794	56305.83
525.995	55986.35
526.197	55945.39
526.398	56146.09
526.6	56371.36
526.801	55978.15
527.003	55677.1
527.204	55564.46
527.406	55670.96
527.607	54847.68
527.808	55462.07
528.01	53891.27
528.211	54134.98
528.412	54520
528.614	53827.79
528.815	53401.81
529.016	53786.83
529.218	52443.36
529.419	52072.68
529.62	51433.71
529.822	51079.41
530.023	51015.93
530.224	50587.9
530.425	50118.92
530.626	48683.29
530.828	48564.51
531.029	48900.37
531.23	47610.15
531.431	47321.39
531.632	46745.91
531.833	46598.46
532.035	45685.06
532.236	45695.3
532.437	44935.51
532.638	44329.31
532.839	44038.5
533.04	43311.47
533.241	41963.9
533.442	42744.18
533.643	41666.95
533.844	40868.24
534.045	40597.91
534.246	39743.91
534.447	39209.39
534.648	38681.01
534.849	38109.63
535.05	37554.63
535.251	37482.95
535.451	36549.07
535.652	36618.71
535.853	35549.67
536.054	35074.54
536.255	34900.46
536.456	33944.06
536.657	34505.2
536.857	32983.56
537.058	33210.89
537.259	32664.08
537.46	32422.42
537.66	31705.63
537.861	31476.26
538.062	30902.82
538.263	30726.7
538.463	29932.09
538.664	29577.79
538.865	29346.37
539.065	29272.64
539.266	28246.61
539.466	28566.09
539.667	27798.1
539.868	27734.62
540.068	27568.73
540.269	26667.63
540.469	26940
540.67	26344.05
540.87	26090.1
541.071	25676.41
541.271	25195.14
541.472	25088.64
541.672	24945.28
541.873	24468.11
542.073	23863.96
542.274	24029.84
542.474	23761.56
542.675	23458.46
542.875	23472.79
543.075	22778.53
543.276	22588.07
543.476	22792.87
543.676	22151.85
543.877	21705.4
544.077	21605.05
544.277	21469.88
544.478	21033.66
544.678	20908.74
544.878	20710.08
545.078	20624.07
545.279	20181.71
545.479	19872.46
545.679	20062.93
545.879	19628.76
546.079	19401.43
546.28	18828
546.48	18719.46
546.68	18875.1
546.88	18395.88
547.08	18029.29
547.28	17752.82
547.48	17519.35
547.68	17560.31
547.88	17249.02
548.081	17367.8
548.281	16771.84
548.481	16632.58
548.681	16603.91
548.881	16323.33
549.081	16075.53
549.28	15735.57
549.48	15639.31
549.68	15477.52
549.88	15252.25
550.08	14852.89
550.28	14770.97
550.48	14529.31
550.68	14263.08
550.88	14166.82
551.08	13880.11
551.279	13980.46
551.479	13361.97
551.679	13513.52
551.879	13245.24
552.079	13101.88
552.278	12825.4
552.478	12956.47
552.678	12378.95
552.878	12483.39
553.077	12118.86
553.277	11930.44
553.477	11844.43
553.676	11479.89
553.876	11436.88
554.076	11184.98
554.275	11055.96
554.475	10617.69
554.674	10759
554.874	10324.83
555.074	10087.27
555.273	10150.76
555.473	10027.88
555.672	9847.66
555.872	9599.85
556.071	9528.17
556.271	9517.93
556.47	9223.03
556.67	9046.9
556.869	8797.05
557.068	8635.26
557.268	8686.46
557.467	8407.94
557.667	8399.74
557.866	8190.85
558.065	8029.06
558.265	7752.59
558.464	7715.72
558.663	7719.82
558.863	7541.64
559.062	7431.05
559.261	7213.97
559.461	7218.07
559.66	6831
559.859	6998.93
560.058	6779.8
560.258	6767.51
560.457	6540.19
560.656	6695.83
560.855	6497.18
561.054	6513.56
561.253	6278.05
561.453	6220.71
561.652	6024.1
561.851	5962.66
562.05	5882.79
562.249	5792.68
562.448	5630.89
562.647	5487.53
562.846	5610.41
563.045	5594.03
563.244	5491.63
563.443	5372.85
563.642	5239.73
563.841	5145.52
564.04	5028.79
564.239	4950.96
564.438	4895.67
564.637	4869.05
564.836	4729.78
565.035	4680.63
565.234	4621.24
565.432	4545.47
565.631	4617.15
565.83	4531.13
566.029	4453.31
566.228	4287.42
566.427	4291.52
566.625	4010.95
566.824	4213.7
567.023	4187.07
567.222	3965.89
567.42	3931.08
567.619	3990.47
567.818	3857.35
568.016	3861.45
568.215	3883.97
568.414	3765.19
568.612	3660.74
568.811	3550.15
569.01	3625.93
569.208	3374.03
569.407	3556.3
569.605	3361.74
569.804	3371.98
570.002	3343.31
570.201	3245.01
570.4	3285.97
570.598	3154.9
570.797	3066.83
570.995	3025.87
571.193	3032.02
571.392	3081.17
571.59	2739.16
571.789	2909.14
571.987	3050.45
572.186	2835.41
572.384	2710.49
572.582	2698.2
572.781	2761.69
572.979	2520.03
573.177	2603.99
573.376	2575.32
573.574	2653.14
573.772	2505.69
573.971	2417.63
574.169	2190.3
574.367	2409.44
574.565	2302.94
574.763	2304.99
574.962	2221.02
575.16	2235.36
575.358	2059.23
575.556	2171.87
575.754	2173.92
575.952	2130.91
576.151	2188.25
576.349	2010.08
576.547	1866.72
576.745	1991.65
576.943	1954.79
577.141	1807.33
577.339	1848.29
577.537	1944.55
577.735	1844.2
577.933	1788.9
578.131	1766.37
578.329	1795.04
578.527	1754.09
578.725	1713.13
578.923	1602.54
579.121	1731.56
579.319	1555.43
579.516	1545.19
579.714	1813.48
579.912	1577.96
580.11	1367.02
580.308	1518.57
580.506	1442.79
580.704	1336.3
580.901	1317.87
581.099	1487.85
581.297	1332.2
581.495	1424.36
581.692	1336.3
581.89	1393.64
582.088	1281
582.285	1295.34
582.483	1215.47
582.681	1238
582.878	1238
583.076	1260.52
583.274	1289.2
583.471	1346.54
583.669	1192.94
583.866	1061.87
584.064	1088.5
584.262	1076.21
584.459	1047.54
584.657	1209.33
584.854	1115.12
585.052	1020.91
585.249	1201.13
585.447	996.34
585.644	969.71
585.841	1012.72
586.039	1059.82
586.236	1006.58
586.434	881.65
586.631	859.12
586.828	924.66
587.026	920.56
587.223	871.41
587.42	898.03
587.618	975.86
587.815	932.85
588.012	908.27
588.21	740.34
588.407	918.51
588.604	922.61
588.801	730.1
588.999	865.27
589.196	1033.2
589.393	816.12
589.59	771.06
589.787	863.22
589.984	807.92
590.182	805.88
590.379	672.76
590.576	762.87
590.773	746.48
590.97	758.77
591.167	814.07
591.364	850.93
591.561	693.24
591.758	846.84
591.955	787.44
592.152	721.91
592.349	633.85
592.546	695.29
592.743	709.62
592.94	683
593.137	750.58
593.334	824.31
593.531	752.63
593.727	816.12
593.924	705.53
594.121	791.54
594.318	676.85
594.515	857.07
594.712	812.02
594.908	840.69
595.105	652.28
595.302	820.21
595.499	824.31
595.696	889.84
595.892	707.57
596.089	900.08
596.286	836.6
596.482	922.61
596.679	1014.77
596.876	947.19
597.072	1004.53
597.269	953.33
597.466	979.95
597.662	945.14
597.859	963.57
598.055	994.29
598.252	1205.23
598.448	1125.36
598.645	1197.04
598.841	1139.69
599.038	1328.11
599.234	1352.68
599.431	1487.85
599.627	1367.02
599.824	1442.79
600.02	1463.27
600.217	1420.27
600.413	1682.41
600.609	1795.04
600.806	1840.1
601.002	1799.14
601.198	1817.57
601.395	1889.25
601.591	1932.26
601.787	2024.42
601.984	2151.39
602.18	2206.69
602.376	2241.5
602.572	2352.09
602.769	2446.3
602.965	2464.73
603.161	2630.62
603.357	2831.32
603.553	2956.24
603.75	2905.04
603.946	2997.2
604.142	3075.03
604.338	3218.38
604.534	3191.76
604.73	3242.96
604.926	3392.46
605.122	3595.21
605.318	3630.02
605.514	3789.77
605.71	4047.81
605.906	4221.89
606.102	4099.01
606.298	4295.61
606.494	4500.41
606.69	4449.21
606.886	4613.05
607.082	4733.88
607.278	4912.05
607.474	5026.74
607.67	5204.91
607.866	5389.23
608.062	5557.16
608.257	5669.8
608.453	5620.65
608.649	5925.8
608.845	5923.75
609.041	6265.76
609.236	6362.01
609.432	6572.96
609.628	6767.51
609.824	7019.41
610.019	7150.48
610.215	7332.75
610.411	7633.8
610.606	7867.27
610.802	7947.14
610.998	8100.74
611.193	8346.5
611.389	8332.16
611.584	8831.87
611.78	8860.54
611.976	9212.79
612.171	9421.68
612.367	9778.03
612.562	9997.16
612.758	10077.03
612.953	10369.89
613.149	10621.79
613.344	11060.06
613.539	11371.35
613.735	11449.17
613.93	12118.86
614.126	12020.55
614.321	12804.92
614.517	12852.03
614.712	13083.45
614.907	13396.79
615.103	14009.13
615.298	14068.52
615.493	14523.17
615.688	14760.73
615.884	15407.89
616.079	15401.75
616.274	16073.48
616.47	16419.59
616.665	16751.36
616.86	17347.32
617.055	17572.6
617.25	17949.42
617.445	18694.88
617.641	18680.55
617.836	19538.65
618.031	19432.15
618.226	20325.07
618.421	21027.52
618.616	21525.18
618.811	21600.95
619.006	22219.44
619.201	22762.15
619.396	23489.18
619.591	23583.38
619.786	24263.31
619.981	24564.36
620.176	25727.61
620.371	25930.36
620.566	26393.2
620.761	26727.02
620.956	27511.39
621.151	27558.49
621.346	28686.92
621.541	28537.42
621.735	29502.01
621.93	29712.95
622.125	30396.98
622.32	30519.85
622.515	31283.75
622.709	32021.02
622.904	32872.97
623.099	32870.92
623.294	33909.24
623.488	34202.1
623.683	34521.59
623.878	34836.97
624.072	36293.08
624.267	36616.66
624.462	37231.05
624.656	37325.25
624.851	38242.74
625.046	38400.44
625.24	38850.99
625.435	39346.6
625.629	39567.78
625.824	40479.13
626.018	41034.13
626.213	40843.66
626.407	41513.35
626.602	41619.84
626.796	42250.62
626.991	43006.32
627.185	42985.84
627.38	42959.22
627.574	43540.84
627.768	43401.58
627.963	43845.99
628.157	43387.24
628.352	44142.94
628.546	43401.58
628.74	44206.43
628.935	43741.54
629.129	43891.04
629.323	43272.56
629.517	43061.61
629.712	42662.26
629.906	42330.49
630.1	41304.46
630.294	41503.11
630.489	40454.55
630.683	40335.77
630.877	39102.89
631.071	39170.47
631.265	38429.11
631.459	37587.39
631.653	36565.46
631.848	35656.16
632.042	34734.57
632.236	34064.89
632.43	32799.24
632.624	31902.23
632.818	30827.05
633.012	29659.71
633.206	28916.29
633.4	28306
633.594	26837.61
633.788	26073.71
633.982	25053.83
634.176	24654.47
634.369	23480.99
634.563	22442.67
634.757	21289.66
634.951	20714.18
635.145	19835.6
635.339	19231.45
635.533	18262.76
635.726	17881.84
635.92	16935.68
636.114	16249.61
636.308	15395.61
636.501	14809.89
636.695	14549.79
636.889	13710.13
637.083	13259.57
637.276	12602.18
637.47	12147.53
637.664	11721.55
637.857	11127.64
638.051	10759
638.244	10427.23
638.438	10130.28
638.632	9778.03
638.825	9124.72
639.019	8678.27
639.212	8250.24
639.406	8266.63
639.599	7830.41
639.793	7533.45
639.986	7267.22
640.18	7089.04
640.373	6480.8
640.567	6370.21
640.76	6237.09
640.954	5960.61
641.147	5522.35
641.34	5389.23
641.534	5206.96
641.727	5026.74
641.92	4969.4
642.114	4631.48
642.307	4316.09
642.5	4553.66
642.694	3926.98
642.887	3976.13
643.08	3845.06
643.273	3828.68
643.467	3466.19
643.66	3408.84
643.853	3290.06
644.046	3234.77
644.239	3111.89
644.432	2864.08
644.626	2595.8
644.819	2616.28
645.012	2601.94
645.205	2528.22
645.398	2483.16
645.591	2302.94
645.784	2155.49
645.977	2059.23
646.17	2077.66
646.363	1926.11
646.556	1952.74
646.749	1715.17
646.942	1764.33
647.135	1858.53
647.328	1598.44
647.521	1569.77
647.714	1604.58
647.907	1592.3
648.099	1256.43
648.292	1399.79
648.485	1381.35
648.678	1223.66
648.871	1143.79
649.064	1199.09
649.256	1076.21
649.449	1074.16
649.642	975.86
649.835	1041.39
650.027	906.23
650.22	965.62
650.413	863.22
650.605	951.28
650.798	783.35
650.991	809.97
651.183	865.27
651.376	795.64
651.568	783.35
651.761	697.33
651.954	779.25
652.146	674.81
652.339	732.15
652.531	717.81
652.724	623.61
652.916	599.03
653.109	443.39
653.301	654.33
653.494	582.65
653.686	521.21
653.879	642.04
654.071	576.5
654.263	492.54
654.456	441.34
654.648	578.55
654.84	596.98
655.033	343.03
655.225	513.02
655.417	451.58
655.61	531.45
655.802	470.01
655.994	445.43
656.186	193.53
656.379	435.19
656.571	269.31
656.763	420.86
656.955	439.29
657.148	388.09
657.34	408.57
657.532	400.38
657.724	263.16
657.916	318.46
658.108	320.51
658.3	351.23
658.492	281.6
658.684	297.98
658.876	414.71
659.068	173.05
659.26	185.34
659.452	158.72
659.644	238.59
659.836	316.41
660.028	275.45
660.22	211.96
660.412	283.64
660.604	211.96
660.796	240.64
660.988	267.26
661.18	267.26
661.372	330.75
661.563	207.87
661.755	195.58
661.947	152.57
662.139	138.24
662.331	209.92
662.522	187.39
662.714	95.23
662.906	107.52
663.097	218.11
663.289	191.49
663.481	66.56
663.673	183.29
663.864	171.01
664.056	232.44
664.247	113.66
664.439	242.68
664.631	191.49
664.822	201.72
665.014	228.35
665.205	58.37
665.397	70.65
665.588	201.72
665.78	125.95
665.971	191.49
666.163	152.57
666.354	191.49
666.546	68.61
666.737	72.7
666.929	41.98
667.12	80.89
667.311	185.34
667.503	123.9
667.694	91.13
667.885	254.97
668.077	218.11
668.268	15.36
668.459	214.01
668.651	179.2
668.842	183.29
669.033	130.05
669.224	-23.55
669.416	326.65
669.607	91.13
669.798	117.76
669.989	244.73
670.18	136.19
670.371	128
670.563	9.22
670.754	158.72
670.945	164.86
671.136	218.11
671.327	29.7
671.518	244.73
671.709	191.49
671.9	187.39
672.091	214.01
672.282	144.38
672.473	160.77
672.664	95.23
672.855	115.71
673.046	197.63
673.237	246.78
673.428	105.47
673.619	132.09
673.809	103.42
674	199.68
674.191	226.3
674.382	177.15
674.573	146.43
674.764	132.09
674.954	224.25
675.145	150.53
675.336	115.71
675.527	136.19
675.717	193.53
675.908	105.47
676.099	91.13
676.289	224.25
676.48	1.02
676.671	115.71
676.861	115.71
677.052	142.33
677.243	136.19
677.433	48.13
677.624	130.05
677.814	119.81
678.005	171.01
678.195	228.35
678.386	50.18
678.576	115.71
678.767	23.55
678.957	117.76
679.148	179.2
679.338	304.12
679.529	183.29
679.719	95.23
679.909	191.49
680.1	191.49
680.29	187.39
680.481	130.05
680.671	257.02
680.861	211.96
681.052	166.91
681.242	148.48
681.432	207.87
681.622	80.89
681.813	66.56
682.003	156.67
682.193	50.18
682.383	105.47
682.573	140.29
682.764	140.29
682.954	138.24
683.144	343.03
683.334	62.46
683.524	189.44
683.714	138.24
683.904	230.4
684.094	193.53
684.284	138.24
684.474	232.44
684.664	187.39
684.854	128
685.044	220.16
685.234	226.3
685.424	173.05
685.614	82.94
685.804	244.73
685.994	211.96
686.184	99.33
686.374	226.3
686.564	193.53
686.753	187.39
686.943	89.09
687.133	115.71
687.323	168.96
687.513	211.96
687.702	82.94
687.892	175.1
688.082	181.25
688.272	314.36
688.461	168.96
688.651	279.55
688.841	220.16
689.03	224.25
689.22	154.62
689.41	207.87
689.599	242.68
689.789	68.61
689.979	304.12
690.168	132.09
690.358	261.12
690.547	228.35
690.737	224.25
690.926	238.59
691.116	214.01
691.305	252.92
691.495	201.72
691.684	205.82
691.874	152.57
692.063	148.48
692.252	302.08
692.442	240.64
692.631	117.76
692.82	123.9
693.01	191.49
693.199	93.18
693.388	138.24
693.578	136.19
693.767	207.87
693.956	140.29
694.146	162.81
694.335	211.96
694.524	105.47
694.713	226.3
694.902	142.33
695.092	113.66
695.281	220.16
695.47	209.92
695.659	62.46
695.848	87.04
696.037	150.53
696.226	220.16
696.415	95.23
696.604	240.64
696.793	230.4
696.982	105.47
697.171	324.6
697.36	111.61
697.549	132.09
697.738	144.38
697.927	160.77
698.116	103.42
698.305	228.35
698.494	146.43
698.683	152.57
698.872	291.84
699.061	226.3
699.25	150.53
699.438	164.86
699.627	148.48
699.816	332.79
700.005	46.08
700.193	60.42
700.382	160.77
700.571	230.4
700.76	187.39
700.948	179.2
701.137	171.01
701.326	250.88
701.514	35.84
701.703	216.06
701.892	222.2
702.08	304.12
702.269	201.72
702.457	113.66
702.646	193.53
702.834	97.28
703.023	246.78
703.212	136.19
703.4	136.19
703.589	160.77
703.777	230.4
703.965	132.09
704.154	164.86
704.342	150.53
704.531	107.52
704.719	148.48
704.907	226.3
705.096	78.85
705.284	115.71
705.472	156.67
705.661	156.67
705.849	287.74
706.037	211.96
706.226	160.77
706.414	138.24
706.602	142.33
706.79	171.01
706.979	146.43
707.167	171.01
707.355	37.89
707.543	175.1
707.731	248.83
707.919	166.91
708.107	101.37
708.296	78.85
708.484	152.57
708.672	205.82
708.86	267.26
709.048	216.06
709.236	84.99
709.424	218.11
709.612	195.58
709.8	107.52
709.988	211.96
710.176	244.73
710.364	246.78
710.551	138.24
710.739	226.3
710.927	123.9
711.115	173.05
711.303	177.15
711.491	314.36
711.679	148.48
711.866	246.78
712.054	101.37
712.242	201.72
712.43	218.11
712.617	214.01
712.805	193.53
712.993	121.85
713.181	39.94
713.368	269.31
713.556	107.52
713.744	144.38
713.931	338.94
714.119	189.44
714.306	197.63
714.494	160.77
714.682	171.01
714.869	82.94
715.057	125.95
715.244	54.27
715.432	134.14
715.619	146.43
715.807	193.53
715.994	121.85
716.182	148.48
716.369	230.4
716.556	265.21
716.744	66.56
716.931	91.13
717.119	203.77
717.306	171.01
717.493	244.73
717.681	111.61
717.868	177.15
718.055	257.02
718.242	164.86
718.43	211.96
718.617	277.5
718.804	236.54
718.991	203.77
719.179	222.2
719.366	230.4
719.553	265.21
719.74	201.72
719.927	160.77
720.114	160.77
720.301	93.18
720.488	179.2
720.676	107.52
720.863	285.69
721.05	283.64
721.237	201.72
721.424	205.82
721.611	173.05
721.798	181.25
721.985	136.19
722.172	203.77
722.358	132.09
722.545	224.25
722.732	263.16
722.919	273.4
723.106	203.77
723.293	181.25
723.48	257.02
723.667	201.72
723.853	240.64
724.04	271.36
724.227	273.4
724.414	201.72
724.6	199.68
724.787	343.03
724.974	353.27
725.161	195.58
725.347	177.15
725.534	160.77
725.72	224.25
725.907	293.88
726.094	275.45
726.28	234.49
726.467	89.09
726.653	123.9
726.84	355.32
727.027	371.71
727.213	80.89
727.4	252.92
727.586	199.68
727.773	263.16
727.959	261.12
728.145	197.63
728.332	330.75
728.518	99.33
728.705	306.17
728.891	224.25
729.077	117.76
729.264	136.19
729.45	123.9
729.636	291.84
729.823	220.16
730.009	234.49
730.195	156.67
730.382	216.06
730.568	119.81
730.754	189.44
730.94	111.61
731.126	281.6
731.313	279.55
731.499	195.58
731.685	201.72
731.871	267.26
732.057	308.22
732.243	261.12
732.429	230.4
732.615	349.18
732.801	209.92
732.987	162.81
733.173	160.77
733.359	191.49
733.545	238.59
733.731	154.62
733.917	371.71
734.103	238.59
734.289	248.83
734.475	183.29
734.661	369.66
734.847	195.58
735.033	222.2
735.219	281.6
735.404	250.88
735.59	216.06
735.776	250.88
735.962	246.78
736.148	279.55
736.333	308.22
736.519	195.58
736.705	218.11
736.89	222.2
737.076	226.3
737.262	146.43
737.447	207.87
737.633	158.72
737.819	281.6
738.004	216.06
738.19	199.68
738.375	236.54
738.561	304.12
738.747	252.92
738.932	162.81
739.118	314.36
739.303	273.4
739.489	263.16
739.674	187.39
739.859	203.77
740.045	273.4
740.23	218.11
740.416	37.89
740.601	252.92
740.786	146.43
740.972	179.2
741.157	234.49
741.342	144.38
741.528	148.48
741.713	302.08
741.898	179.2
742.084	179.2
742.269	259.07
742.454	275.45
742.639	214.01
742.824	242.68
743.01	369.66
743.195	332.79
743.38	259.07
743.565	175.1
743.75	195.58
743.935	173.05
744.12	310.27
744.305	136.19
744.49	191.49
744.675	191.49
744.86	216.06
745.045	250.88
745.23	197.63
745.415	111.61
745.6	357.37
745.785	181.25
745.97	302.08
746.155	267.26
746.34	214.01
746.525	218.11
746.71	326.65
746.895	52.22
747.079	115.71
747.264	80.89
747.449	320.51
747.634	275.45
747.819	248.83
748.003	203.77
748.188	128
748.373	293.88
748.557	230.4
748.742	218.11
748.927	230.4
749.111	201.72
749.296	211.96
749.481	205.82
749.665	205.82
749.85	191.49
750.034	244.73
750.219	84.99
750.404	171.01
750.588	207.87
750.773	152.57
750.957	248.83
751.141	195.58
751.326	273.4
751.51	80.89
751.695	166.91
751.879	183.29
752.064	244.73
752.248	136.19
752.432	302.08
752.617	209.92
752.801	244.73
752.985	144.38
753.17	310.27
753.354	132.09
753.538	158.72
753.722	103.42
753.907	162.81
754.091	62.46
754.275	222.2
754.459	95.23
754.643	82.94
754.828	123.9
755.012	205.82
755.196	68.61
755.38	224.25
755.564	52.22
755.748	148.48
755.932	207.87
756.116	197.63
756.3	214.01
756.484	97.28
756.668	148.48
756.852	101.37
757.036	125.95
757.22	203.77
757.404	84.99
757.588	123.9
757.772	136.19
757.956	107.52
758.14	277.5
758.323	23.55
758.507	123.9
758.691	103.42
758.875	224.25
759.059	228.35
759.242	72.7
759.426	84.99
759.61	181.25
759.794	113.66
759.977	177.15
760.161	336.89
760.345	234.49
760.528	211.96
760.712	119.81
760.895	185.34
761.079	164.86
761.263	33.79
761.446	46.08
761.63	117.76
761.813	160.77
761.997	58.37
762.18	146.43
762.364	179.2
762.547	-5.12
762.731	134.14
762.914	121.85
763.098	93.18
763.281	60.42
763.464	107.52
763.648	197.63
763.831	111.61
764.015	103.42
764.198	134.14
764.381	123.9
764.564	152.57
764.748	142.33
764.931	62.46
765.114	74.75
765.297	128
765.481	19.46
765.664	41.98
765.847	87.04
766.03	164.86
766.213	82.94
766.397	70.65
766.58	-23.55
766.763	189.44
766.946	121.85
767.129	-13.31
767.312	103.42
767.495	70.65
767.678	11.26
767.861	54.27
768.044	123.9
768.227	101.37
768.41	156.67
768.593	158.72
768.776	74.75
768.959	91.13
769.142	185.34
769.324	39.94
769.507	80.89
769.69	146.43
769.873	72.7
770.056	269.31
770.239	41.98
770.421	234.49
770.604	136.19
770.787	109.57
770.97	115.71
771.152	39.94
771.335	128
771.518	70.65
771.7	111.61
771.883	197.63
772.066	76.8
772.248	89.09
772.431	113.66
772.613	146.43
772.796	140.29
772.978	111.61
773.161	244.73
773.343	78.85
773.526	58.37
773.708	-39.94
773.891	15.36
774.073	111.61
774.256	25.6
774.438	173.05
774.621	99.33
774.803	58.37
774.985	60.42
775.168	160.77
775.35	58.37
775.532	99.33
775.715	9.22
775.897	103.42
776.079	74.75
776.261	56.32
776.444	70.65
776.626	60.42
776.808	58.37
776.99	-15.36
777.173	109.57
777.355	50.18
777.537	21.5
777.719	74.75
777.901	72.7
778.083	27.65
778.265	-39.94
778.447	152.57
778.629	1.02
778.811	70.65
778.993	107.52
779.175	142.33
779.357	7.17
779.539	-25.6
779.721	25.6
779.903	148.48
780.085	-68.61
780.267	-1.02
780.449	80.89
780.631	175.1
780.812	70.65
780.994	19.46
781.176	64.51
781.358	19.46
781.54	35.84
781.721	115.71
781.903	117.76
782.085	13.31
782.267	193.53
782.448	52.22
782.63	15.36
782.812	113.66
782.993	76.8
783.175	84.99
783.357	-23.55
783.538	142.33
783.72	27.65
783.901	25.6
784.083	138.24
784.264	115.71
784.446	-29.7
784.627	68.61
784.809	68.61
784.99	31.74
785.172	41.98
785.353	66.56
785.535	158.72
785.716	-15.36
785.897	15.36
786.079	29.7
786.26	82.94
786.441	27.65
786.623	-54.27
786.804	17.41
786.985	58.37
787.167	97.28
787.348	54.27
787.529	-5.12
787.71	123.9
787.891	105.47
788.073	21.5
788.254	-54.27
788.435	199.68
788.616	105.47
788.797	-27.65
788.978	19.46
789.159	-1.02
789.34	23.55
789.522	31.74
789.703	-5.12
789.884	66.56
790.065	136.19
790.246	158.72
790.427	9.22
790.607	168.96
790.788	52.22
790.969	-27.65
791.15	80.89
791.331	-31.74
791.512	-23.55
791.693	-15.36
791.874	-48.13
792.054	279.55
792.235	136.19
792.416	-60.42
792.597	-15.36
792.778	52.22
792.958	109.57
793.139	50.18
793.32	48.13
793.5	-46.08
793.681	128
793.862	82.94
794.042	82.94
794.223	-84.99
794.404	66.56
794.584	-91.13
794.765	-7.17
794.945	72.7
795.126	62.46
795.306	117.76
795.487	121.85
795.667	33.79
795.848	72.7
796.028	15.36
796.209	60.42
796.389	130.05
796.57	35.84
796.75	31.74
796.93	78.85
797.111	-93.18
797.291	-5.12
797.471	87.04
797.652	66.56
797.832	46.08
798.012	101.37
798.192	-35.84
798.373	-76.8
798.553	29.7
798.733	130.05
798.913	-11.26
799.093	66.56
799.274	48.13
799.454	119.81
799.634	78.85
799.814	105.47
799.994	54.27
800.174	37.89
800.354	-1.02
800.534	-109.57
800.714	-37.89
800.894	-52.22
801.074	-80.89
801.254	5.12
801.434	62.46
801.614	44.03
801.794	-31.74
801.974	1846.24
802.154	-11.26
802.334	37.89
802.514	-3.07
802.693	-3.07
802.873	11.26
803.053	128
803.233	68.61
803.413	44.03
803.592	-89.09
803.772	1.02
803.952	-17.41
804.131	33.79
804.311	101.37
804.491	113.66
804.67	-62.46
804.85	-68.61
805.03	27.65
805.209	78.85
805.389	27.65
805.568	-58.37
805.748	-13.31
805.928	91.13
806.107	107.52
806.287	87.04
806.466	58.37
806.646	-23.55
806.825	-7.17
807.004	-7.17
807.184	15.36
807.363	72.7
807.543	-33.79
807.722	37.89
807.901	25.6
808.081	111.61
808.26	-150.53
808.439	19.46
808.619	7.17
808.798	-64.51
808.977	80.89
809.156	128
809.336	21.5
809.515	168.96
809.694	-41.98
809.873	27.65
810.052	74.75
810.231	52.22
810.411	130.05
810.59	115.71
810.769	9.22
810.948	39.94
811.127	-37.89
811.306	7.17
811.485	37.89
811.664	130.05
811.843	35.84
812.022	44.03
812.201	52.22
812.38	-44.03
812.559	-93.18
812.737	89.09
812.916	-95.23
813.095	-29.7
813.274	52.22
813.453	64.51
813.632	11.26
813.811	62.46
813.989	-70.65
814.168	56.32
814.347	-68.61
814.526	19.46
814.704	136.19
814.883	109.57
815.062	-97.28
815.24	82.94
815.419	-74.75
815.598	68.61
815.776	-105.47
815.955	-5.12
816.133	-95.23
816.312	60.42
816.49	-5.12
816.669	-39.94
816.847	11.26
817.026	-15.36
817.204	-23.55
817.383	54.27
817.561	-52.22
817.74	-15.36
817.918	109.57
818.097	29.7
818.275	3.07
818.453	7.17
818.632	5.12
818.81	-15.36
818.988	-44.03
819.167	-84.99
819.345	31.74
819.523	15.36
819.701	35.84
819.879	13.31
820.058	54.27
820.236	9.22
820.414	109.57
820.592	9.22
820.77	11.26
820.948	-27.65
821.127	52.22
821.305	-21.5
821.483	-87.04
821.661	72.7
821.839	146.43
822.017	-44.03
822.195	-13.31
822.373	80.89
822.551	21.5
822.729	93.18
822.907	52.22
823.085	72.7
823.262	29.7
823.44	-80.89
823.618	-29.7
823.796	-35.84
823.974	31.74
824.152	-27.65
824.329	17.41
824.507	89.09
824.685	105.47
824.863	7.17
825.04	15.36
825.218	68.61
825.396	64.51
825.574	123.9
825.751	19.46
825.929	64.51
826.107	-64.51
826.284	66.56
826.462	11.26
826.639	-39.94
826.817	-64.51
826.994	35.84
827.172	-39.94
827.349	160.77
827.527	39.94
827.704	68.61
827.882	76.8
828.059	-15.36
828.237	25.6
828.414	101.37
828.591	-138.24
828.769	5.12
828.946	-25.6
829.124	111.61
829.301	66.56
829.478	70.65
829.655	46.08
829.833	-9.22
830.01	-101.37
830.187	-31.74
830.364	-19.46
830.542	-46.08
830.719	101.37
830.896	54.27
831.073	72.7
831.25	21.5
831.427	89.09
831.604	-1.02
831.782	-23.55
831.959	56.32
832.136	11.26
832.313	62.46
832.49	66.56
832.667	23.55
832.844	-41.98
833.021	101.37
833.198	25.6
833.374	-5.12
833.551	76.8
833.728	-23.55
833.905	74.75
834.082	-123.9
834.259	91.13
834.436	60.42
834.612	-23.55
834.789	66.56
834.966	-35.84
835.143	82.94
835.319	-87.04
835.496	87.04
835.673	93.18
835.85	115.71
836.026	37.89
836.203	101.37
836.38	-13.31
836.556	-46.08
836.733	-103.42
836.909	171.01
837.086	-21.5
837.262	-58.37
837.439	1.02
837.616	-7.17
837.792	-41.98
837.968	52.22
838.145	-132.09
838.321	3.07
838.498	97.28
838.674	41.98
838.851	68.61
839.027	-68.61
839.203	1.02
839.38	48.13
839.556	-39.94
839.732	29.7
839.909	7.17
840.085	-19.46
840.261	-78.85
840.437	41.98
840.614	23.55
840.79	64.51
840.966	31.74
841.142	29.7
841.318	27.65
841.494	68.61
841.671	80.89
841.847	-109.57
842.023	19.46
842.199	95.23
842.375	99.33
842.551	-37.89
842.727	-19.46
842.903	164.86
843.079	-27.65
843.255	101.37
843.431	-1.02
843.607	31.74
843.783	-148.48
843.959	64.51
844.134	-13.31
844.31	115.71
844.486	-39.94
844.662	-31.74
844.838	-15.36
845.013	130.05
845.189	37.89
845.365	48.13
845.541	27.65
845.716	-23.55
845.892	41.98
846.068	-15.36
846.244	-23.55
846.419	54.27
846.595	-62.46
846.77	-25.6
846.946	128
847.122	-70.65
847.297	-29.7
847.473	130.05
847.648	-15.36
847.824	46.08
847.999	-93.18
848.175	39.94
848.35	-25.6
848.526	50.18
848.701	11.26
848.876	125.95
849.052	41.98
849.227	66.56
849.403	31.74
849.578	1.02
849.753	-19.46
849.929	44.03
850.104	-76.8
850.279	19.46
850.454	74.75
850.63	84.99
850.805	44.03
850.98	13.31
851.155	-27.65
851.33	19.46
851.505	-50.18
851.681	70.65
851.856	-41.98
852.031	54.27
852.206	39.94
852.381	-54.27
852.556	-44.03
852.731	64.51
852.906	-5.12
853.081	95.23
853.256	107.52
853.431	17.41
853.606	-121.85
853.781	-31.74
853.956	-115.71
854.131	-11.26
854.305	-31.74
854.48	-50.18
854.655	-25.6
854.83	-25.6
855.005	62.46
855.18	35.84
855.354	-87.04
855.529	35.84
855.704	-66.56
855.879	128
856.053	-35.84
856.228	-29.7
856.403	-82.94
856.577	29.7
856.752	-72.7
856.926	-13.31
857.101	1.02
857.276	-3.07
857.45	39.94
857.625	89.09
857.799	56.32
857.974	44.03
858.148	-119.81
858.323	66.56
858.497	-64.51
858.672	70.65
858.846	21.5
859.02	78.85
859.195	-62.46
859.369	-44.03
859.543	7.17
859.718	52.22
859.892	80.89
860.066	-17.41
860.241	-35.84
860.415	3.07
860.589	-1.02
860.763	21.5
860.938	-44.03
861.112	93.18
861.286	-58.37
861.46	-1.02
861.634	25.6
861.808	109.57
861.982	7.17
862.157	-56.32
862.331	-27.65
862.505	-84.99
862.679	-21.5
862.853	-3.07
863.027	-70.65
863.201	138.24
863.375	-48.13
863.549	101.37
863.722	3.07
863.896	41.98
864.07	-64.51
864.244	-7.17
864.418	48.13
864.592	5.12
864.766	39.94
864.939	95.23
865.113	-80.89
865.287	50.18
865.461	11.26
865.634	117.76
865.808	-62.46
865.982	-62.46
866.156	-56.32
866.329	-58.37
866.503	-39.94
866.676	91.13
866.85	87.04
867.024	3.07
867.197	54.27
867.371	21.5
867.544	58.37
867.718	-95.23
867.891	-11.26
868.065	-70.65
868.238	-9.22
868.412	3.07
868.585	66.56
868.759	-44.03
868.932	29.7
869.105	-37.89
869.279	50.18
869.452	-1.02
869.625	21.5
869.799	-11.26
869.972	-128
870.145	-52.22
870.319	66.56
870.492	-54.27
870.665	-29.7
870.838	9.22
871.011	-211.96
871.185	-101.37
871.358	-56.32
871.531	74.75
871.704	-29.7
871.877	29.7
872.05	-39.94
872.223	-95.23
872.396	58.37
872.569	25.6
872.742	-37.89
872.915	60.42
873.088	-13.31
873.261	-52.22
873.434	41.98
873.607	-39.94
873.78	11.26
873.953	-68.61
874.126	37.89
874.299	-35.84
874.471	-5.12
874.644	-27.65
874.817	13.31
874.99	119.81
875.163	46.08
875.335	60.42
875.508	-7.17
875.681	101.37
875.853	-19.46
876.026	35.84
876.199	82.94
876.371	56.32
876.544	-35.84
876.717	-9.22
876.889	39.94
877.062	105.47
877.234	-37.89
877.407	11.26
877.579	76.8
877.752	-7.17
877.924	91.13
878.097	58.37
878.269	84.99
878.442	23.55
878.614	29.7
878.786	-11.26
878.959	9.22
879.131	-13.31
879.303	-46.08
879.476	-17.41
879.648	44.03
879.82	-15.36
879.993	29.7
880.165	-64.51
880.337	-27.65
880.509	19.46
880.681	-97.28
880.854	-9.22
881.026	146.43
881.198	146.43
881.37	25.6
881.542	-29.7
881.714	-35.84
881.886	-17.41
882.058	7.17
882.23	-41.98
882.402	46.08
882.574	76.8
882.746	15.36
882.918	144.38
883.09	97.28
883.262	-80.89
883.434	33.79
883.606	-84.99
883.778	-19.46
883.95	107.52
884.122	-44.03
884.293	-5.12
884.465	48.13
884.637	58.37
884.809	-41.98
884.98	60.42
885.152	-5.12
885.324	56.32
885.496	-117.76
885.667	-17.41
885.839	29.7
886.011	173.05
886.182	60.42
886.354	9.22
886.525	25.6
886.697	5.12
886.869	-48.13
887.04	33.79
887.212	21.5
887.383	185.34
887.555	50.18
887.726	-46.08
887.897	-62.46
888.069	-41.98
888.24	101.37
888.412	48.13
888.583	-7.17
888.754	-19.46
888.926	-105.47
889.097	-46.08
889.268	-111.61
889.44	3.07
889.611	5.12
889.782	-84.99
889.953	-60.42
890.125	148.48
890.296	-35.84
890.467	66.56
890.638	-76.8
890.809	-11.26
890.98	-78.85
891.151	111.61
891.323	119.81
891.494	-31.74
891.665	15.36
891.836	19.46
892.007	17.41
892.178	48.13
892.349	-3.07
892.52	-48.13
892.691	-9.22
892.862	-1.02
893.032	-101.37
893.203	-60.42
893.374	-25.6
893.545	31.74
893.716	-64.51
893.887	123.9
894.057	-31.74
894.228	44.03
894.399	-76.8
894.57	84.99
894.74	1.02
894.911	111.61
895.082	-41.98
895.253	-3.07
895.423	1.02
895.594	3.07
895.764	50.18
895.935	-105.47
896.106	82.94
896.276	13.31
896.447	87.04
896.617	-76.8
896.788	-9.22
896.958	-21.5
897.129	-68.61
897.299	21.5
897.47	78.85
897.64	113.66
897.81	19.46
897.981	-13.31
898.151	-33.79
898.322	39.94
898.492	25.6
898.662	-27.65
898.832	-33.79
899.003	9.22
899.173	-41.98
899.343	-64.51
899.513	-84.99
