Data from USB4F104151__58__10-43-44-674.txt Node

Date: Wed Feb 26 10:43:44 EST 2025
User: louis
Spectrometer: USB4F10415
Trigger mode: 4
Integration Time (sec): 1.000000E-1
Scans to average: 1
Electric dark correction enabled: true
Nonlinearity correction enabled: false
Boxcar width: 0
XAxis mode: Wavelengths
Number of Pixels in Spectrum: 3648
>>>>>Begin Spectral Data<<<<<
178.204	-384.34
178.424	-384.34
178.644	-384.34
178.864	-388.43
179.084	-361.81
179.304	49.83
179.524	-107.86
179.744	17.07
179.964	58.03
180.184	49.83
180.404	33.45
180.624	-50.52
180.844	35.5
181.064	-114
181.283	37.55
181.503	-15.7
181.723	6.83
181.943	-103.76
182.163	168.62
182.383	-17.75
182.602	37.55
182.822	127.66
183.042	-21.85
183.262	33.45
183.482	-27.99
183.701	8.87
183.921	70.31
184.141	-87.38
184.361	51.88
184.58	98.99
184.8	80.55
185.02	-15.7
185.239	117.42
185.459	55.98
185.679	176.81
185.898	-165.2
186.118	43.69
186.338	62.12
186.557	86.7
186.777	-87.38
186.997	-52.56
187.216	8.87
187.436	150.18
187.655	45.74
187.875	70.31
188.095	6.83
188.314	162.47
188.534	117.42
188.753	-56.66
188.973	74.41
189.192	166.57
189.412	72.36
189.631	15.02
189.851	43.69
190.07	180.9
190.29	-60.76
190.509	-3.41
190.729	-23.89
190.948	152.23
191.168	230.06
191.387	174.76
191.607	2.73
191.826	74.41
192.045	154.28
192.265	-66.9
192.484	37.55
192.704	-9.56
192.923	-54.61
193.142	244.39
193.362	74.41
193.581	80.55
193.8	25.26
194.02	76.46
194.239	109.22
194.458	125.61
194.678	-44.37
194.897	21.16
195.116	76.46
195.335	78.51
195.555	62.12
195.774	-19.8
195.993	23.21
196.212	-60.76
196.432	-42.32
196.651	-30.04
196.87	84.65
197.089	215.72
197.308	49.83
197.528	96.94
197.747	15.02
197.966	78.51
198.185	152.23
198.404	-34.13
198.623	113.32
198.842	133.8
199.062	82.6
199.281	96.94
199.5	70.31
199.719	8.87
199.938	98.99
200.157	17.07
200.376	88.75
200.595	86.7
200.814	76.46
201.033	-17.75
201.252	148.14
201.471	88.75
201.69	72.36
201.909	-27.99
202.128	74.41
202.347	82.6
202.566	60.07
202.785	-46.42
203.004	4.78
203.223	254.63
203.442	90.79
203.661	-36.18
203.879	88.75
204.098	94.89
204.317	-64.85
204.536	72.36
204.755	133.8
204.974	146.09
205.193	-11.61
205.411	160.42
205.63	105.13
205.849	78.51
206.068	70.31
206.287	-114
206.505	109.22
206.724	94.89
206.943	-13.65
207.162	-17.75
207.381	135.85
207.599	23.21
207.818	35.5
208.037	-13.65
208.255	25.26
208.474	115.37
208.693	37.55
208.911	17.07
209.13	45.74
209.349	33.45
209.567	88.75
209.786	80.55
210.005	129.7
210.223	37.55
210.442	-95.57
210.661	-1.37
210.879	111.27
211.098	45.74
211.316	53.93
211.535	111.27
211.753	19.11
211.972	58.03
212.191	-3.41
212.409	41.64
212.628	109.22
212.846	-50.52
213.065	74.41
213.283	117.42
213.502	-40.28
213.72	78.51
213.938	29.35
214.157	49.83
214.375	43.69
214.594	17.07
214.812	35.5
215.031	29.35
215.249	62.12
215.467	64.17
215.686	39.59
215.904	55.98
216.122	21.16
216.341	125.61
216.559	94.89
216.778	172.71
216.996	156.33
217.214	10.92
217.432	49.83
217.651	-34.13
217.869	29.35
218.087	-3.41
218.306	76.46
218.524	92.84
218.742	107.18
218.96	152.23
219.179	-48.47
219.397	51.88
219.615	252.58
219.833	74.41
220.051	-32.08
220.27	41.64
220.488	78.51
220.706	33.45
220.924	-42.32
221.142	21.16
221.36	58.03
221.578	76.46
221.796	82.6
222.015	0.68
222.233	101.03
222.451	152.23
222.669	-42.32
222.887	19.11
223.105	4.78
223.323	62.12
223.541	29.35
223.759	101.03
223.977	80.55
224.195	103.08
224.413	80.55
224.631	2.73
224.849	146.09
225.067	180.9
225.285	80.55
225.503	-3.41
225.721	-120.15
225.939	45.74
226.157	82.6
226.375	228.01
226.592	15.02
226.81	23.21
227.028	111.27
227.246	154.28
227.464	58.03
227.682	105.13
227.9	53.93
228.117	162.47
228.335	139.94
228.553	101.03
228.771	90.79
228.989	39.59
229.206	154.28
229.424	-13.65
229.642	-17.75
229.86	-7.51
230.077	117.42
230.295	10.92
230.513	137.9
230.731	103.08
230.948	189.1
231.166	121.51
231.384	12.97
231.601	-11.61
231.819	197.29
232.037	-23.89
232.254	-32.08
232.472	76.46
232.689	19.11
232.907	88.75
233.125	-5.46
233.342	-9.56
233.56	37.55
233.777	90.79
233.995	35.5
234.213	174.76
234.43	98.99
234.648	-17.75
234.865	21.16
235.083	92.84
235.3	72.36
235.518	107.18
235.735	117.42
235.953	109.22
236.17	68.27
236.388	-34.13
236.605	101.03
236.822	164.52
237.04	74.41
237.257	6.83
237.475	49.83
237.692	78.51
237.909	101.03
238.127	0.68
238.344	39.59
238.562	49.83
238.779	-13.65
238.996	-81.24
239.214	15.02
239.431	88.75
239.648	-15.7
239.865	88.75
240.083	62.12
240.3	-40.28
240.517	25.26
240.735	2.73
240.952	152.23
241.169	90.79
241.386	31.4
241.603	72.36
241.821	-44.37
242.038	58.03
242.255	84.65
242.472	8.87
242.689	76.46
242.907	45.74
243.124	39.59
243.341	53.93
243.558	39.59
243.775	-101.72
243.992	25.26
244.209	76.46
244.426	180.9
244.643	70.31
244.86	10.92
245.078	8.87
245.295	131.75
245.512	15.02
245.729	33.45
245.946	101.03
246.163	41.64
246.38	8.87
246.597	55.98
246.814	-19.8
247.031	-15.7
247.248	12.97
247.464	105.13
247.681	109.22
247.898	90.79
248.115	80.55
248.332	47.79
248.549	88.75
248.766	193.19
248.983	127.66
249.2	10.92
249.417	160.42
249.633	43.69
249.85	119.46
250.067	-5.46
250.284	72.36
250.501	90.79
250.717	101.03
250.934	-1.37
251.151	78.51
251.368	8.87
251.585	23.21
251.801	23.21
252.018	17.07
252.235	123.56
252.451	-21.85
252.668	27.31
252.885	98.99
253.102	72.36
253.318	53.93
253.535	23.21
253.752	-23.89
253.968	35.5
254.185	4.78
254.401	94.89
254.618	96.94
254.835	94.89
255.051	172.71
255.268	43.69
255.484	-3.41
255.701	51.88
255.917	68.27
256.134	-17.75
256.351	62.12
256.567	-44.37
256.784	62.12
257	-25.94
257.217	111.27
257.433	129.7
257.65	68.27
257.866	207.53
258.082	-1.37
258.299	-48.47
258.515	62.12
258.732	-27.99
258.948	-34.13
259.165	62.12
259.381	2.73
259.597	-7.51
259.814	-15.7
260.03	51.88
260.246	17.07
260.463	115.37
260.679	101.03
260.895	17.07
261.112	78.51
261.328	25.26
261.544	-7.51
261.761	144.04
261.977	74.41
262.193	-48.47
262.409	109.22
262.626	-7.51
262.842	60.07
263.058	-48.47
263.274	105.13
263.49	51.88
263.707	25.26
263.923	90.79
264.139	-3.41
264.355	39.59
264.571	62.12
264.787	94.89
265.004	121.51
265.22	29.35
265.436	-15.7
265.652	98.99
265.868	-85.33
266.084	15.02
266.3	17.07
266.516	-34.13
266.732	113.32
266.948	43.69
267.164	17.07
267.38	72.36
267.596	23.21
267.812	154.28
268.028	53.93
268.244	-13.65
268.46	90.79
268.676	-13.65
268.892	17.07
269.108	35.5
269.324	-1.37
269.54	27.31
269.756	64.17
269.972	2.73
270.188	-3.41
270.403	-11.61
270.619	23.21
270.835	129.7
271.051	-5.46
271.267	-42.32
271.483	33.45
271.698	19.11
271.914	117.42
272.13	55.98
272.346	0.68
272.562	41.64
272.777	148.14
272.993	-1.37
273.209	-38.23
273.425	90.79
273.64	-5.46
273.856	94.89
274.072	-13.65
274.287	-15.7
274.503	76.46
274.719	19.11
274.934	21.16
275.15	-32.08
275.366	45.74
275.581	35.5
275.797	68.27
276.012	55.98
276.228	-13.65
276.444	90.79
276.659	88.75
276.875	-19.8
277.09	-15.7
277.306	-1.37
277.521	82.6
277.737	62.12
277.952	27.31
278.168	23.21
278.383	49.83
278.599	66.22
278.814	15.02
279.03	115.37
279.245	154.28
279.461	60.07
279.676	125.61
279.892	-130.39
280.107	-7.51
280.322	-9.56
280.538	53.93
280.753	-58.71
280.969	68.27
281.184	70.31
281.399	105.13
281.615	41.64
281.83	12.97
282.045	-58.71
282.26	15.02
282.476	98.99
282.691	88.75
282.906	127.66
283.122	103.08
283.337	-1.37
283.552	55.98
283.767	-23.89
283.983	25.26
284.198	41.64
284.413	10.92
284.628	-32.08
284.843	88.75
285.058	80.55
285.274	-3.41
285.489	35.5
285.704	74.41
285.919	19.11
286.134	66.22
286.349	45.74
286.564	53.93
286.779	84.65
286.995	68.27
287.21	-105.81
287.425	66.22
287.64	53.93
287.855	88.75
288.07	-42.32
288.285	152.23
288.5	88.75
288.715	37.55
288.93	-9.56
289.145	2.73
289.36	109.22
289.575	19.11
289.79	43.69
290.004	0.68
290.219	60.07
290.434	8.87
290.649	64.17
290.864	0.68
291.079	-21.85
291.294	103.08
291.509	72.36
291.724	19.11
291.938	-21.85
292.153	-3.41
292.368	68.27
292.583	19.11
292.798	103.08
293.012	41.64
293.227	68.27
293.442	27.31
293.657	37.55
293.871	133.8
294.086	66.22
294.301	225.96
294.516	109.22
294.73	47.79
294.945	-62.8
295.16	117.42
295.374	119.46
295.589	156.33
295.804	-30.04
296.018	51.88
296.233	70.31
296.447	98.99
296.662	31.4
296.877	146.09
297.091	66.22
297.306	41.64
297.52	47.79
297.735	-9.56
297.949	39.59
298.164	55.98
298.378	-19.8
298.593	-62.8
298.807	-7.51
299.022	-1.37
299.236	146.09
299.451	-21.85
299.665	92.84
299.88	-44.37
300.094	82.6
300.309	6.83
300.523	41.64
300.737	27.31
300.952	60.07
301.166	78.51
301.381	-56.66
301.595	-77.14
301.809	33.45
302.024	0.68
302.238	-30.04
302.452	176.81
302.667	47.79
302.881	119.46
303.095	115.37
303.309	80.55
303.524	-17.75
303.738	2.73
303.952	2.73
304.166	113.32
304.381	-109.91
304.595	160.42
304.809	10.92
305.023	41.64
305.237	-25.94
305.452	0.68
305.666	4.78
305.88	72.36
306.094	76.46
306.308	25.26
306.522	152.23
306.736	8.87
306.95	64.17
307.164	-11.61
307.379	47.79
307.593	180.9
307.807	152.23
308.021	66.22
308.235	86.7
308.449	-36.18
308.663	33.45
308.877	219.82
309.091	29.35
309.305	139.94
309.519	-79.19
309.733	166.57
309.947	-25.94
310.161	45.74
310.374	92.84
310.588	88.75
310.802	-91.48
311.016	25.26
311.23	35.5
311.444	49.83
311.658	58.03
311.872	66.22
312.085	131.75
312.299	41.64
312.513	170.66
312.727	41.64
312.941	-19.8
313.154	125.61
313.368	60.07
313.582	53.93
313.796	64.17
314.009	31.4
314.223	148.14
314.437	64.17
314.651	113.32
314.864	21.16
315.078	43.69
315.292	-32.08
315.505	29.35
315.719	86.7
315.933	31.4
316.146	-7.51
316.36	47.79
316.573	98.99
316.787	96.94
317.001	37.55
317.214	31.4
317.428	68.27
317.641	-120.15
317.855	-19.8
318.068	31.4
318.282	31.4
318.495	172.71
318.709	25.26
318.922	45.74
319.136	105.13
319.349	96.94
319.563	23.21
319.776	88.75
319.99	-19.8
320.203	35.5
320.417	90.79
320.63	107.18
320.843	228.01
321.057	29.35
321.27	33.45
321.483	64.17
321.697	41.64
321.91	103.08
322.124	58.03
322.337	4.78
322.55	-7.51
322.763	-1.37
322.977	-1.37
323.19	-5.46
323.403	117.42
323.617	33.45
323.83	154.28
324.043	0.68
324.256	25.26
324.469	-15.7
324.683	74.41
324.896	19.11
325.109	15.02
325.322	-36.18
325.535	70.31
325.748	158.38
325.962	49.83
326.175	80.55
326.388	-5.46
326.601	180.9
326.814	43.69
327.027	12.97
327.24	141.99
327.453	-75.09
327.666	41.64
327.879	47.79
328.092	49.83
328.305	60.07
328.518	-52.56
328.731	-25.94
328.944	-32.08
329.157	111.27
329.37	-23.89
329.583	205.48
329.796	60.07
330.009	-81.24
330.222	86.7
330.435	68.27
330.648	60.07
330.861	35.5
331.073	68.27
331.286	107.18
331.499	-3.41
331.712	86.7
331.925	-19.8
332.138	19.11
332.35	55.98
332.563	-66.9
332.776	117.42
332.989	-42.32
333.202	2.73
333.414	78.51
333.627	70.31
333.84	49.83
334.053	35.5
334.265	35.5
334.478	-34.13
334.691	60.07
334.903	27.31
335.116	-50.52
335.329	-17.75
335.541	58.03
335.754	78.51
335.966	64.17
336.179	-21.85
336.392	-23.89
336.604	82.6
336.817	90.79
337.029	17.07
337.242	-19.8
337.454	45.74
337.667	82.6
337.88	211.62
338.092	72.36
338.305	49.83
338.517	51.88
338.729	84.65
338.942	178.86
339.154	-71
339.367	-9.56
339.579	70.31
339.792	-91.48
340.004	123.56
340.217	53.93
340.429	-15.7
340.641	21.16
340.854	-3.41
341.066	-1.37
341.278	117.42
341.491	211.62
341.703	53.93
341.915	-99.67
342.128	146.09
342.34	62.12
342.552	-3.41
342.764	55.98
342.977	105.13
343.189	35.5
343.401	-15.7
343.613	-116.05
343.826	78.51
344.038	-44.37
344.25	72.36
344.462	-15.7
344.674	86.7
344.886	15.02
345.099	86.7
345.311	58.03
345.523	-21.85
345.735	-38.23
345.947	47.79
346.159	115.37
346.371	-17.75
346.583	17.07
346.795	223.91
347.007	82.6
347.219	53.93
347.431	-42.32
347.643	207.53
347.855	15.02
348.067	107.18
348.279	21.16
348.491	-23.89
348.703	84.65
348.915	-3.41
349.127	-17.75
349.339	43.69
349.551	10.92
349.763	133.8
349.975	37.55
350.187	80.55
350.399	189.1
350.61	115.37
350.822	6.83
351.034	72.36
351.246	70.31
351.458	84.65
351.669	137.9
351.881	129.7
352.093	41.64
352.305	148.14
352.517	96.94
352.728	164.52
352.94	6.83
353.152	119.46
353.363	-3.41
353.575	137.9
353.787	195.24
353.999	123.56
354.21	154.28
354.422	-25.94
354.633	53.93
354.845	78.51
355.057	133.8
355.268	43.69
355.48	111.27
355.692	-38.23
355.903	45.74
356.115	-11.61
356.326	-142.68
356.538	121.51
356.749	68.27
356.961	98.99
357.172	25.26
357.384	-38.23
357.595	199.34
357.807	72.36
358.018	-21.85
358.23	58.03
358.441	178.86
358.653	82.6
358.864	35.5
359.075	-27.99
359.287	88.75
359.498	84.65
359.709	115.37
359.921	45.74
360.132	62.12
360.344	23.21
360.555	-54.61
360.766	141.99
360.977	43.69
361.189	86.7
361.4	0.68
361.611	170.66
361.823	213.67
362.034	78.51
362.245	-27.99
362.456	6.83
362.667	8.87
362.879	4.78
363.09	103.08
363.301	60.07
363.512	15.02
363.723	15.02
363.935	-23.89
364.146	82.6
364.357	49.83
364.568	55.98
364.779	-23.89
364.99	152.23
365.201	33.45
365.412	127.66
365.623	-101.72
365.834	15.02
366.045	49.83
366.256	66.22
366.467	88.75
366.678	12.97
366.889	49.83
367.1	49.83
367.311	111.27
367.522	-62.8
367.733	82.6
367.944	92.84
368.155	-38.23
368.366	43.69
368.577	94.89
368.788	84.65
368.999	-71
369.209	55.98
369.42	185
369.631	193.19
369.842	66.22
370.053	8.87
370.264	139.94
370.474	23.21
370.685	53.93
370.896	55.98
371.107	182.95
371.317	139.94
371.528	45.74
371.739	170.66
371.95	74.41
372.16	96.94
372.371	-77.14
372.582	-36.18
372.792	111.27
373.003	23.21
373.214	90.79
373.424	111.27
373.635	-44.37
373.846	158.38
374.056	-11.61
374.267	189.1
374.477	152.23
374.688	-21.85
374.898	74.41
375.109	15.02
375.319	86.7
375.53	72.36
375.74	51.88
375.951	29.35
376.161	53.93
376.372	92.84
376.582	58.03
376.793	37.55
377.003	-62.8
377.214	25.26
377.424	23.21
377.635	115.37
377.845	-38.23
378.055	117.42
378.266	31.4
378.476	84.65
378.686	78.51
378.897	60.07
379.107	152.23
379.317	96.94
379.528	80.55
379.738	64.17
379.948	-46.42
380.158	98.99
380.369	70.31
380.579	60.07
380.789	-5.46
380.999	125.61
381.21	82.6
381.42	109.22
381.63	41.64
381.84	111.27
382.05	131.75
382.261	90.79
382.471	191.14
382.681	-54.61
382.891	148.14
383.101	66.22
383.311	2.73
383.521	10.92
383.731	133.8
383.941	70.31
384.151	113.32
384.361	-19.8
384.571	109.22
384.781	55.98
384.991	193.19
385.201	187.05
385.411	158.38
385.621	33.45
385.831	-13.65
386.041	105.13
386.251	55.98
386.461	96.94
386.671	49.83
386.881	82.6
387.091	35.5
387.301	182.95
387.511	82.6
387.72	41.64
387.93	154.28
388.14	-52.56
388.35	76.46
388.56	131.75
388.769	68.27
388.979	45.74
389.189	4.78
389.399	37.55
389.609	68.27
389.818	115.37
390.028	62.12
390.238	-9.56
390.447	60.07
390.657	96.94
390.867	-21.85
391.076	-118.1
391.286	62.12
391.496	-21.85
391.705	51.88
391.915	182.95
392.125	111.27
392.334	12.97
392.544	127.66
392.753	72.36
392.963	39.59
393.172	113.32
393.382	-32.08
393.591	146.09
393.801	17.07
394.01	234.15
394.22	182.95
394.429	-34.13
394.639	49.83
394.848	141.99
395.058	72.36
395.267	19.11
395.477	135.85
395.686	64.17
395.895	182.95
396.105	146.09
396.314	70.31
396.524	39.59
396.733	6.83
396.942	154.28
397.152	47.79
397.361	139.94
397.57	78.51
397.78	23.21
397.989	152.23
398.198	246.44
398.407	-13.65
398.617	25.26
398.826	35.5
399.035	-1.37
399.244	133.8
399.453	41.64
399.663	98.99
399.872	125.61
400.081	-75.09
400.29	162.47
400.499	-30.04
400.708	137.9
400.917	101.03
401.127	8.87
401.336	-11.61
401.545	191.14
401.754	135.85
401.963	201.38
402.172	60.07
402.381	-34.13
402.59	101.03
402.799	-11.61
403.008	125.61
403.217	129.7
403.426	51.88
403.635	29.35
403.844	43.69
404.053	51.88
404.262	27.31
404.471	174.76
404.68	78.51
404.888	37.55
405.097	96.94
405.306	8.87
405.515	96.94
405.724	84.65
405.933	133.8
406.142	4.78
406.35	133.8
406.559	72.36
406.768	-3.41
406.977	148.14
407.185	37.55
407.394	101.03
407.603	-9.56
407.812	31.4
408.02	160.42
408.229	12.97
408.438	-23.89
408.646	-60.76
408.855	53.93
409.064	139.94
409.272	17.07
409.481	98.99
409.69	-5.46
409.898	-30.04
410.107	45.74
410.315	19.11
410.524	101.03
410.733	21.16
410.941	123.56
411.15	103.08
411.358	64.17
411.567	137.9
411.775	58.03
411.984	31.4
412.192	133.8
412.401	19.11
412.609	98.99
412.818	137.9
413.026	88.75
413.234	39.59
413.443	-21.85
413.651	84.65
413.86	86.7
414.068	109.22
414.276	168.62
414.485	88.75
414.693	139.94
414.901	244.39
415.11	70.31
415.318	78.51
415.526	39.59
415.734	98.99
415.943	68.27
416.151	191.14
416.359	78.51
416.567	70.31
416.776	58.03
416.984	98.99
417.192	221.86
417.4	19.11
417.608	-25.94
417.817	68.27
418.025	185
418.233	129.7
418.441	17.07
418.649	25.26
418.857	135.85
419.065	160.42
419.273	23.21
419.481	58.03
419.689	72.36
419.897	-7.51
420.105	31.4
420.313	137.9
420.521	203.43
420.729	127.66
420.937	-21.85
421.145	78.51
421.353	119.46
421.561	187.05
421.769	49.83
421.977	-5.46
422.185	150.18
422.393	68.27
422.601	162.47
422.809	135.85
423.017	162.47
423.224	137.9
423.432	144.04
423.64	156.33
423.848	158.38
424.056	-36.18
424.263	125.61
424.471	29.35
424.679	158.38
424.887	-38.23
425.094	101.03
425.302	96.94
425.51	82.6
425.718	117.42
425.925	131.75
426.133	-1.37
426.341	125.61
426.548	101.03
426.756	86.7
426.964	125.61
427.171	70.31
427.379	86.7
427.586	144.04
427.794	64.17
428.001	164.52
428.209	80.55
428.417	185
428.624	168.62
428.832	178.86
429.039	94.89
429.247	119.46
429.454	82.6
429.662	234.15
429.869	205.48
430.076	176.81
430.284	209.58
430.491	221.86
430.699	115.37
430.906	264.87
431.114	170.66
431.321	119.46
431.528	176.81
431.736	207.53
431.943	209.58
432.15	207.53
432.358	262.82
432.565	264.87
432.772	88.75
432.979	268.97
433.187	180.9
433.394	246.44
433.601	191.14
433.808	254.63
434.016	338.6
434.223	178.86
434.43	195.24
434.637	203.43
434.844	314.02
435.052	299.69
435.259	266.92
435.466	342.69
435.673	311.97
435.88	338.6
436.087	494.24
436.294	381.6
436.501	451.24
436.708	367.27
436.915	385.7
437.122	436.9
437.329	342.69
437.537	389.8
437.743	457.38
437.95	535.2
438.157	371.37
438.364	463.52
438.571	461.48
438.778	531.11
438.985	531.11
439.192	527.01
439.399	563.87
439.606	588.45
439.813	584.35
440.02	811.68
440.227	752.29
440.433	674.46
440.64	737.95
440.847	606.88
441.054	717.47
441.261	869.02
441.467	791.2
441.674	754.34
441.881	1012.38
442.088	709.28
442.294	1010.33
442.501	1018.52
442.708	1008.28
442.914	1018.52
443.121	1114.78
443.328	1061.53
443.534	1174.17
443.741	1215.13
443.948	1053.34
444.154	1180.31
444.361	1448.6
444.568	1241.75
444.774	1393.3
444.981	1168.02
445.187	1520.28
445.394	1464.98
445.6	1522.32
445.807	1710.74
446.013	1581.71
446.22	1555.09
446.426	1856.14
446.633	1921.68
446.839	1970.83
447.046	1794.7
447.252	2017.93
447.459	2105.99
447.665	2149
447.871	2314.89
448.078	2349.7
448.284	2460.29
448.491	2568.84
448.697	2667.14
448.903	2679.43
449.11	2931.33
449.316	2712.19
449.522	3064.44
449.728	3220.09
449.935	3156.6
450.141	3207.8
450.347	3570.29
450.553	3283.58
450.76	3531.38
450.966	3662.45
451.172	3834.48
451.378	4026.99
451.584	4170.35
451.791	4414.06
451.997	4516.45
452.203	4557.41
452.409	4887.14
452.615	5030.49
452.821	4860.51
453.027	4981.34
453.233	5558.87
453.44	5356.12
453.646	5691.99
453.852	5810.77
454.058	6281.8
454.264	6380.11
454.47	6728.26
454.676	6808.13
454.882	7430.71
455.088	6904.39
455.294	7461.43
455.5	7948.85
455.705	8411.69
455.911	8430.12
456.117	8665.64
456.323	8876.58
456.529	9091.62
456.735	9730.58
456.941	9898.52
457.147	10488.33
457.352	10781.19
457.558	11102.72
457.764	11571.71
457.97	12093.94
458.176	12530.16
458.381	13150.69
458.587	13513.18
458.793	14062.04
458.999	13873.62
459.204	15567.29
459.41	16210.36
459.616	15919.54
459.821	17199.52
460.027	17719.71
460.233	18510.22
460.438	18569.62
460.644	19945.85
460.85	19919.23
461.055	20627.82
461.261	21838.17
461.466	21479.78
461.672	21741.92
461.878	24072.51
462.083	23820.61
462.289	24604.98
462.494	25241.9
462.7	25762.08
462.905	26100
463.111	28315.9
463.316	29479.14
463.522	30036.19
463.727	30851.28
463.932	32086.21
464.138	33081.52
464.343	34629.79
464.549	34695.32
464.754	37064.82
464.959	37900.39
465.165	38748.25
465.37	38113.38
465.575	38408.29
465.781	41033.78
465.986	41981.99
466.191	41820.2
466.397	41779.25
466.602	40673.34
466.807	43526.16
467.012	44048.39
467.218	44857.34
467.423	45096.95
467.628	45692.91
467.833	48265.16
468.038	47306.71
468.244	46884.83
468.449	48988.1
468.654	47949.78
468.859	48154.57
469.064	48420.81
469.269	47128.54
469.474	47448.02
469.679	48961.47
469.885	47169.5
470.09	48152.52
470.295	48105.42
470.5	46907.36
470.705	47648.72
470.91	46256.1
471.115	46376.93
471.32	46665.7
471.525	46057.45
471.73	45045.76
471.935	44664.83
472.139	43116.57
472.344	43550.74
472.549	43161.62
472.754	42278.95
472.959	41322.55
473.164	40085.57
473.369	39325.78
473.574	40656.96
473.778	39780.43
473.983	39321.68
474.188	38201.44
474.393	36356.22
474.598	36292.74
474.802	35694.73
475.007	35006.61
475.212	34967.7
475.417	33579.18
475.621	33040.56
475.826	32809.14
476.031	31938.76
476.235	31193.29
476.44	31551.69
476.645	30519.51
476.849	30456.03
477.054	29892.83
477.259	29231.34
477.463	29147.37
477.668	28213.5
477.872	28193.02
478.077	27562.25
478.282	26773.78
478.486	26528.02
478.691	26284.31
478.895	25950.49
479.1	25696.55
479.304	25514.28
479.509	25078.06
479.713	25348.39
479.918	24785.2
480.122	24162.62
480.326	24443.19
480.531	23986.49
480.735	23705.92
480.94	23306.57
481.144	24090.94
481.348	23257.42
481.553	23128.39
481.757	22624.59
481.961	22698.32
482.166	23146.83
482.37	22221.14
482.574	21864.8
482.778	22051.16
482.983	22589.78
483.187	22253.91
483.391	21805.41
483.595	21518.69
483.8	21082.47
484.004	21094.76
484.208	21264.74
484.412	20703.6
484.616	20556.14
484.821	20402.55
485.025	19708.29
485.229	19927.42
485.433	19646.85
485.637	19472.77
485.841	19124.61
486.045	18960.78
486.249	18821.52
486.453	18327.95
486.657	18258.32
486.861	18219.41
487.065	17281.44
487.269	17379.75
487.473	17058.21
487.677	16966.06
487.881	16966.06
488.085	16228.79
488.289	16089.53
488.493	15874.49
488.697	15657.4
488.901	15370.69
489.105	15034.82
489.309	14815.69
489.512	14531.02
489.716	14211.54
489.92	13910.49
490.124	13803.99
490.328	13646.3
490.531	13312.48
490.735	13226.46
490.939	13056.48
491.143	12597.74
491.346	12532.2
491.55	12425.71
491.754	12202.48
491.958	11747.83
492.161	11524.6
492.365	11340.29
492.569	11102.72
492.772	11012.61
492.976	11049.47
493.18	11012.61
493.383	10803.72
493.587	10619.4
493.79	10578.44
493.994	10203.66
494.197	10252.81
494.401	10215.95
494.605	9970.19
494.808	9955.86
495.012	9935.38
495.215	9886.23
495.419	9847.32
495.622	9699.86
495.825	9445.91
496.029	9364
496.232	9742.87
496.436	9501.21
496.639	9443.87
496.843	9200.16
497.046	9300.51
497.249	9331.23
497.453	9499.16
497.656	9456.15
497.859	9445.91
498.063	9294.36
498.266	9447.96
498.469	9122.34
498.673	9339.42
498.876	9562.65
499.079	9673.24
499.282	9540.12
499.485	9734.68
499.689	9632.28
499.892	9787.93
500.095	9642.52
500.298	9980.43
500.501	9841.17
500.705	9968.15
500.908	10039.83
501.111	10222.09
501.314	9978.39
501.517	10332.68
501.72	10408.46
501.923	10299.92
502.126	10623.5
502.329	10781.19
502.532	10777.09
502.735	10840.58
502.938	11002.37
503.141	11233.79
503.344	11244.03
503.547	11606.52
503.75	11385.34
503.953	11629.05
504.156	11747.83
504.359	12005.88
504.562	12052.98
504.765	12235.25
504.968	12276.21
505.17	12902.89
505.373	12806.63
505.576	13216.23
505.779	13119.97
505.982	13556.19
506.185	13806.04
506.387	13955.54
506.59	14346.7
506.793	14496.21
506.996	14758.35
507.198	15100.36
507.401	15135.17
507.604	15591.87
507.807	15931.83
508.009	16245.17
508.212	16322.99
508.415	16542.13
508.617	17011.11
508.82	17279.39
509.022	17447.33
509.225	18358.67
509.428	18420.11
509.63	18880.91
509.833	19284.36
510.035	19802.49
510.238	19911.03
510.44	20253.05
510.643	20887.92
510.845	21416.29
511.048	21641.57
511.25	22110.55
511.453	22505.81
511.655	23509.32
511.858	23865.66
512.06	24363.32
512.262	24949.04
512.465	24957.23
512.667	25651.49
512.87	26390.81
513.072	26698
513.274	27517.19
513.477	28096.77
513.679	28614.9
513.881	29382.89
514.084	30001.38
514.286	30415.07
514.488	31144.14
514.69	32221.37
514.893	32579.77
515.095	33444.01
515.297	34050.21
515.499	34635.93
515.701	35225.75
515.904	36470.91
516.106	37040.25
516.308	37797.99
516.51	38369.38
516.712	39168.08
516.914	39542.86
517.116	40785.98
517.318	40886.33
517.52	41592.88
517.722	42188.84
517.925	43114.52
518.127	44328.97
518.329	44566.53
518.531	45301.75
518.733	46223.34
518.935	46837.73
519.136	47384.54
519.338	48379.85
519.54	48789.44
519.742	49539
519.944	50261.93
520.146	51396.51
520.348	51974.03
520.55	52101.01
520.752	53026.69
520.954	53679.99
521.155	53630.84
521.357	54734.7
521.559	55435.1
521.761	56211.28
521.963	56258.38
522.164	57065.28
522.366	57216.83
522.568	57798.46
522.77	58113.84
522.971	58859.3
523.173	58767.15
523.375	59485.98
523.576	59256.61
523.778	59307.81
523.98	59754.27
524.181	60655.37
524.383	60323.6
524.584	60915.47
524.786	60919.56
524.988	60968.71
525.189	61304.58
525.391	61488.9
525.592	61038.34
525.794	61607.68
525.995	60976.9
526.197	61284.1
526.398	60821.26
526.6	61112.07
526.801	60589.84
527.003	60661.52
527.204	60964.62
527.406	60669.71
527.607	60290.83
527.808	60452.62
528.01	58949.42
528.211	59051.81
528.412	59551.52
528.614	58871.59
528.815	58421.04
529.016	58853.16
529.218	57472.83
529.419	57372.48
529.62	56823.62
529.822	56012.63
530.023	55861.08
530.224	55117.67
530.425	54611.82
530.626	54042.48
530.828	53260.16
531.029	53790.58
531.23	52703.11
531.431	51980.18
531.632	51699.61
531.833	51117.98
532.035	50737.06
532.236	49809.33
532.437	49498.04
532.638	48922.56
532.839	48533.45
533.04	47769.55
533.241	46907.36
533.442	47189.98
533.643	45957.1
533.844	45271.03
534.045	44920.83
534.246	44179.46
534.447	43563.03
534.648	43481.11
534.849	42438.69
535.05	41605.17
535.251	41578.54
535.451	40691.77
535.652	40204.36
535.853	39616.59
536.054	39213.14
536.255	38920.28
536.456	37937.26
536.657	38420.58
536.857	37263.47
537.058	36477.05
537.259	36536.45
537.46	35956.87
537.66	35197.07
537.861	34904.21
538.062	34234.53
538.263	33874.09
538.463	33226.93
538.664	32981.17
538.865	33128.63
539.065	32567.48
539.266	31711.43
539.466	31854.79
539.667	30984.4
539.868	30931.15
540.068	30632.15
540.269	30273.76
540.469	29798.63
540.67	29452.52
540.87	29225.2
541.071	28526.84
541.271	28487.93
541.472	28162.3
541.672	27717.89
541.873	27394.31
542.073	26503.45
542.274	26878.22
542.474	26562.84
542.675	25731.36
542.875	26190.11
543.075	25594.15
543.276	25035.05
543.476	25442.6
543.676	24443.19
543.877	24531.25
544.077	24568.12
544.277	24119.61
544.478	23732.54
544.678	23626.05
544.878	23048.52
545.078	23085.39
545.279	22550.87
545.479	22374.74
545.679	22002.01
545.879	21893.47
546.079	21721.44
546.28	21432.68
546.48	21156.2
546.68	20988.27
546.88	20560.24
547.08	20451.7
547.28	20394.36
547.48	19708.29
547.68	20083.06
547.88	19179.91
548.081	19313.03
548.281	18962.83
548.481	18477.46
548.681	18805.13
548.881	18125.21
549.081	18065.81
549.28	17770.91
549.48	17545.63
549.68	17195.43
549.88	17240.48
550.08	16597.42
550.28	16486.83
550.48	16214.45
550.68	16411.06
550.88	15901.11
551.08	15573.44
551.279	15483.33
551.479	15262.15
551.679	15098.31
551.879	14795.21
552.079	14518.73
552.278	14565.84
552.478	14262.74
552.678	14209.49
552.878	13963.73
553.077	13537.76
553.277	13187.55
553.477	13408.73
553.676	13052.39
553.876	12874.21
554.076	12700.14
554.275	12331.5
554.475	12057.07
554.674	12306.93
554.874	11997.68
555.074	11657.72
555.273	11393.53
555.473	11438.59
555.672	11033.09
555.872	10850.82
556.071	10764.81
556.271	10781.19
556.47	10271.25
556.67	10111.5
556.869	9949.71
557.068	10179.09
557.268	9861.65
557.467	9642.52
557.667	9505.31
557.866	9349.66
558.065	9257.5
558.265	9050.66
558.464	8892.96
558.663	8858.15
558.863	8587.82
559.062	8581.67
559.261	8213.04
559.461	8251.95
559.66	7918.13
559.859	7719.48
560.058	7701.05
560.258	7600.69
560.457	7426.62
560.656	7457.34
560.855	7201.34
561.054	7346.75
561.253	7080.51
561.453	7023.17
561.652	7039.55
561.851	6785.6
562.05	6748.74
562.249	6441.54
562.448	6580.81
562.647	6277.71
562.846	6484.55
563.045	6349.39
563.244	6072.91
563.443	6005.33
563.642	5904.98
563.841	5943.89
564.04	5689.94
564.239	5622.36
564.438	5739.09
564.637	5380.7
564.836	5429.85
565.035	5409.37
565.234	5194.33
565.432	5335.64
565.631	5192.28
565.83	5225.05
566.029	4948.58
566.228	4944.48
566.427	4936.29
566.625	4608.61
566.824	4766.31
567.023	4655.72
567.222	4538.98
567.42	4553.32
567.619	4547.17
567.818	4502.12
568.016	4569.7
568.215	4358.76
568.414	4282.99
568.612	4242.03
568.811	4113
569.01	4022.89
569.208	3955.31
569.407	4070
569.605	4006.51
569.804	3930.73
570.002	3918.45
570.201	3613.3
570.4	3674.74
570.598	3529.33
570.797	3539.57
570.995	3404.41
571.193	3375.74
571.392	3330.68
571.59	3267.19
571.789	3254.9
571.987	3191.42
572.186	3279.48
572.384	2998.91
572.582	3086.97
572.781	3191.42
572.979	2978.43
573.177	2939.52
573.376	3095.16
573.574	2925.18
573.772	3000.96
573.971	2652.8
574.169	2734.72
574.367	2640.51
574.565	2751.1
574.763	2751.1
574.962	2617.99
575.16	2486.92
575.358	2534.02
575.556	2503.3
575.754	2548.36
575.952	2515.59
576.151	2359.94
576.349	2415.24
576.547	2241.16
576.745	2306.7
576.943	2327.18
577.141	2134.67
577.339	2136.71
577.537	2134.67
577.735	2214.54
577.933	2054.8
578.131	1972.88
578.329	2202.25
578.527	2007.69
578.725	2011.79
578.923	1929.87
579.121	1979.02
579.319	1659.54
579.516	1813.13
579.714	2034.32
579.912	1886.86
580.11	1741.46
580.308	1677.97
580.506	1680.02
580.704	1485.46
580.901	1598.1
581.099	1659.54
581.297	1596.05
581.495	1612.43
581.692	1507.99
581.89	1727.12
582.088	1522.32
582.285	1501.84
582.483	1378.97
582.681	1358.49
582.878	1313.43
583.076	1356.44
583.274	1489.56
583.471	1477.27
583.669	1288.85
583.866	1260.18
584.064	1344.15
584.262	1186.46
584.459	1155.74
584.657	1168.02
584.854	1274.52
585.052	1200.79
585.249	1251.99
585.447	1184.41
585.644	1069.72
585.841	1215.13
586.039	1180.31
586.236	1254.04
586.434	1127.07
586.631	1069.72
586.828	1049.24
587.026	1118.87
587.223	907.93
587.42	928.41
587.618	1000.09
587.815	1022.62
588.012	987.8
588.21	914.08
588.407	979.61
588.604	1012.38
588.801	932.51
588.999	834.21
589.196	1018.52
589.393	848.54
589.59	866.97
589.787	936.6
589.984	916.12
590.182	903.84
590.379	922.27
590.576	873.12
590.773	936.6
590.97	828.06
591.167	942.75
591.364	897.69
591.561	912.03
591.758	969.37
591.955	893.6
592.152	821.92
592.349	895.64
592.546	772.77
592.743	752.29
592.94	869.02
593.137	912.03
593.334	877.21
593.531	875.17
593.727	768.67
593.924	791.2
594.121	826.01
594.318	866.97
594.515	858.78
594.712	936.6
594.908	950.94
595.105	819.87
595.302	871.07
595.499	854.69
595.696	1057.43
595.892	805.53
596.089	1098.39
596.286	852.64
596.482	1063.58
596.679	1045.15
596.876	1034.91
597.072	1141.4
597.269	1127.07
597.466	1153.69
597.662	1086.11
597.859	1069.72
598.055	1204.89
598.252	1282.71
598.448	1256.09
598.645	1409.69
598.841	1434.26
599.038	1551
599.234	1524.37
599.431	1583.76
599.627	1538.71
599.824	1739.41
600.02	1772.18
600.217	1897.1
600.413	1872.53
600.609	1948.3
600.806	2114.19
601.002	2089.61
601.198	2005.64
601.395	2318.98
601.591	2378.37
601.787	2302.6
601.984	2486.92
602.18	2558.6
602.376	2607.75
602.572	2628.23
602.769	2998.91
602.965	2929.28
603.161	3060.35
603.357	3168.89
603.553	3363.45
603.75	3320.44
603.946	3510.9
604.142	3617.4
604.338	3859.06
604.534	3826.29
604.73	4061.8
604.926	4090.48
605.122	4377.19
605.318	4338.28
605.514	4428.39
605.71	4625
605.906	4747.87
606.102	4971.1
606.298	5216.86
606.494	5194.33
606.69	5497.43
606.886	5511.77
607.082	5558.87
607.278	5868.11
607.474	6025.81
607.67	6347.34
607.866	6249.04
608.062	6648.39
608.257	6789.7
608.453	6857.28
608.649	7141.95
608.845	7230.01
609.041	7438.91
609.236	7868.98
609.432	7828.02
609.628	8208.94
609.824	8356.4
610.019	8610.34
610.215	8809
610.411	9202.21
610.606	9402.91
610.802	9386.52
610.998	9835.03
611.193	10015.25
611.389	10211.85
611.584	10600.97
611.78	10582.54
611.976	10820.1
612.171	11401.72
612.367	11690.49
612.562	11985.4
612.758	12202.48
612.953	12460.52
613.149	12868.07
613.344	13189.6
613.539	13697.5
613.735	14086.61
613.93	14223.83
614.126	14541.26
614.321	15208.9
614.517	15653.31
614.712	15776.19
614.907	16249.27
615.103	16540.08
615.298	16816.55
615.493	17510.82
615.688	17402.27
615.884	18542.99
616.079	18561.42
616.274	19362.18
616.47	19822.97
616.665	20375.92
616.86	20855.15
617.055	21221.73
617.25	21844.32
617.445	22632.79
617.641	22761.81
617.836	23378.25
618.031	23871.81
618.226	24809.78
618.421	25217.32
618.616	25932.06
618.811	25821.47
619.006	27037.97
619.201	27093.26
619.396	28307.71
619.591	28225.79
619.786	29300.97
619.981	29704.42
620.176	30568.66
620.371	31023.31
620.566	31979.71
620.761	32481.47
620.956	33306.8
621.151	33476.78
621.346	34857.11
621.541	34814.1
621.735	35987.59
621.93	36237.44
622.125	36962.42
622.32	37122.16
622.515	38146.15
622.709	38791.26
622.904	39329.87
623.099	40171.59
623.294	41144.37
623.488	41502.77
623.683	42606.62
623.878	42592.29
624.072	43843.6
624.267	44257.29
624.462	45166.59
624.656	44945.4
624.851	46290.92
625.046	46630.88
625.24	47796.18
625.435	47744.98
625.629	48646.08
625.824	48996.29
626.018	49887.15
626.213	49878.96
626.407	50898.85
626.602	51220.38
626.796	51709.85
626.991	52477.83
627.185	52860.8
627.38	53036.93
627.574	53598.07
627.768	53596.02
627.963	53774.2
628.157	53821.3
628.352	54628.2
628.546	53735.29
628.74	55177.06
628.935	54226.8
629.129	54632.3
629.323	54062.96
629.517	53745.53
629.712	53407.61
629.906	53245.82
630.1	52463.5
630.294	52703.11
630.489	51507.1
630.683	51335.07
630.877	50036.66
631.071	49549.24
631.265	49307.58
631.459	47708.11
631.653	46999.52
631.848	46110.7
632.042	44886.01
632.236	44199.94
632.43	42731.55
632.624	42100.78
632.818	40448.07
633.012	39053.4
633.206	38355.04
633.4	37132.4
633.594	35569.8
633.788	34625.69
633.982	33169.58
634.176	32133.31
634.369	30765.27
634.563	29774.05
634.757	28676.34
634.951	28186.88
635.145	26908.94
635.339	25508.13
635.533	24768.82
635.726	24009.02
635.92	22667.6
636.114	21690.72
636.308	21154.15
636.501	20343.16
636.695	19433.86
636.889	18289.04
637.083	17430.94
637.276	17095.08
637.47	16226.74
637.664	15743.42
637.857	15069.64
638.051	14385.62
638.244	13842.9
638.438	13369.82
638.632	12945.89
638.825	12298.74
639.019	11827.7
639.212	11201.02
639.406	11088.39
639.599	10347.02
639.793	10172.94
639.986	9470.49
640.18	9390.62
640.373	8948.26
640.567	8419.88
640.76	8245.8
640.954	8114.73
641.147	7512.63
641.34	7195.2
641.534	6924.86
641.727	6941.25
641.92	6740.55
642.114	6396.49
642.307	5962.32
642.5	5892.69
642.694	5640.79
642.887	5442.14
643.08	5333.59
643.273	4956.77
643.467	4729.44
643.66	4469.35
643.853	4508.26
644.046	4301.42
644.239	4070
644.432	4035.18
644.626	3732.08
644.819	3611.25
645.012	3560.05
645.205	3582.58
645.398	3363.45
645.591	3021.44
645.784	2912.89
645.977	2880.13
646.17	2890.37
646.363	2763.39
646.556	2470.53
646.749	2374.28
646.942	2372.23
647.135	2237.06
647.328	2140.81
647.521	2114.19
647.714	1893.01
647.907	2046.6
648.099	1952.4
648.292	1950.35
648.485	1798.8
648.678	1628.82
648.871	1643.15
649.064	1538.71
649.256	1450.64
649.449	1428.12
649.642	1268.38
649.835	1262.23
650.027	1217.18
650.22	1342.1
650.413	1231.51
650.605	1225.37
650.798	1084.06
650.991	1137.31
651.183	1061.53
651.376	1071.77
651.568	1084.06
651.761	957.08
651.954	955.04
652.146	981.66
652.339	852.64
652.531	909.98
652.724	641.7
652.916	811.68
653.109	592.55
653.301	879.26
653.494	877.21
653.686	690.85
653.879	795.29
654.071	670.37
654.263	598.69
654.456	639.65
654.648	696.99
654.84	637.6
655.033	498.34
655.225	590.5
655.417	486.05
655.61	643.74
655.802	621.22
655.994	578.21
656.186	471.72
656.379	656.03
656.571	397.99
656.763	447.14
656.955	490.15
657.148	490.15
657.34	578.21
657.532	506.53
657.724	424.61
657.916	391.84
658.108	486.05
658.3	338.6
658.492	391.84
658.684	338.6
658.876	471.72
659.068	262.82
659.26	246.44
659.452	328.36
659.644	365.22
659.836	430.76
660.028	350.89
660.22	213.67
660.412	291.49
660.604	303.78
660.796	301.73
660.988	381.6
661.18	318.12
661.372	357.03
661.563	178.86
661.755	307.88
661.947	268.97
662.139	230.06
662.331	281.25
662.522	223.91
662.714	146.09
662.906	203.43
663.097	273.06
663.289	146.09
663.481	98.99
663.673	244.39
663.864	221.86
664.056	201.38
664.247	215.72
664.439	305.83
664.631	217.77
664.822	180.9
665.014	236.2
665.205	74.41
665.397	152.23
665.588	318.12
665.78	172.71
665.971	223.91
666.163	234.15
666.354	266.92
666.546	76.46
666.737	144.04
666.929	158.38
667.12	129.7
667.311	195.24
667.503	221.86
667.694	201.38
667.885	203.43
668.077	158.38
668.268	98.99
668.459	141.99
668.651	256.68
668.842	148.14
669.033	146.09
669.224	105.13
669.416	332.45
669.607	96.94
669.798	162.47
669.989	342.69
670.18	90.79
670.371	228.01
670.563	150.18
670.754	248.49
670.945	176.81
671.136	174.76
671.327	131.75
671.518	262.82
671.709	373.41
671.9	156.33
672.091	262.82
672.282	168.62
672.473	107.18
672.664	80.55
672.855	168.62
673.046	221.86
673.237	234.15
673.428	193.19
673.619	164.52
673.809	127.66
674	330.41
674.191	250.53
674.382	180.9
674.573	135.85
674.764	129.7
674.954	264.87
675.145	105.13
675.336	199.34
675.527	211.62
675.717	254.63
675.908	195.24
676.099	113.32
676.289	164.52
676.48	72.36
676.671	180.9
676.861	211.62
677.052	158.38
677.243	170.66
677.433	141.99
677.624	236.2
677.814	199.34
678.005	146.09
678.195	301.73
678.386	105.13
678.576	209.58
678.767	80.55
678.957	211.62
679.148	271.01
679.338	238.25
679.529	180.9
679.719	51.88
679.909	295.59
680.1	232.1
680.29	240.3
680.481	144.04
680.671	342.69
680.861	299.69
681.052	178.86
681.242	131.75
681.432	266.92
681.622	242.34
681.813	187.05
682.003	178.86
682.193	199.34
682.383	277.16
682.573	252.58
682.764	182.95
682.954	318.12
683.144	352.93
683.334	209.58
683.524	215.72
683.714	268.97
683.904	334.5
684.094	164.52
684.284	293.54
684.474	402.08
684.664	324.26
684.854	289.45
685.044	215.72
685.234	301.73
685.424	195.24
685.614	207.53
685.804	408.23
685.994	357.03
686.184	271.01
686.374	285.35
686.564	279.21
686.753	322.21
686.943	230.06
687.133	195.24
687.323	236.2
687.513	232.1
687.702	332.45
687.892	275.11
688.082	283.3
688.272	309.93
688.461	244.39
688.651	342.69
688.841	209.58
689.03	191.14
689.22	228.01
689.41	326.31
689.599	258.73
689.789	156.33
689.979	393.89
690.168	160.42
690.358	262.82
690.547	232.1
690.737	264.87
690.926	232.1
691.116	285.35
691.305	252.58
691.495	332.45
691.684	232.1
691.874	217.77
692.063	215.72
692.252	219.82
692.442	258.73
692.631	240.3
692.82	191.14
693.01	281.25
693.199	240.3
693.388	256.68
693.578	250.53
693.767	240.3
693.956	295.59
694.146	205.48
694.335	326.31
694.524	230.06
694.713	301.73
694.902	256.68
695.092	152.23
695.281	246.44
695.47	199.34
695.659	234.15
695.848	201.38
696.037	207.53
696.226	266.92
696.415	322.21
696.604	332.45
696.793	428.71
696.982	199.34
697.171	359.08
697.36	199.34
697.549	232.1
697.738	86.7
697.927	187.05
698.116	203.43
698.305	225.96
698.494	240.3
698.683	133.8
698.872	363.17
699.061	221.86
699.25	152.23
699.438	252.58
699.627	252.58
699.816	285.35
700.005	117.42
700.193	158.38
700.382	234.15
700.571	223.91
700.76	264.87
700.948	203.43
701.137	330.41
701.326	281.25
701.514	230.06
701.703	185
701.892	219.82
702.08	328.36
702.269	262.82
702.457	189.1
702.646	254.63
702.834	148.14
703.023	289.45
703.212	295.59
703.4	207.53
703.589	137.9
703.777	240.3
703.965	150.18
704.154	199.34
704.342	178.86
704.531	215.72
704.719	234.15
704.907	338.6
705.096	121.51
705.284	51.88
705.472	293.54
705.661	240.3
705.849	258.73
706.037	230.06
706.226	197.29
706.414	213.67
706.602	135.85
706.79	252.58
706.979	209.58
707.167	156.33
707.355	113.32
707.543	252.58
707.731	244.39
707.919	215.72
708.107	236.2
708.296	166.57
708.484	105.13
708.672	213.67
708.86	268.97
709.048	197.29
709.236	141.99
709.424	250.53
709.612	236.2
709.8	131.75
709.988	197.29
710.176	268.97
710.364	260.77
710.551	185
710.739	219.82
710.927	189.1
711.115	256.68
711.303	219.82
711.491	252.58
711.679	187.05
711.866	262.82
712.054	195.24
712.242	172.71
712.43	291.49
712.617	144.04
712.805	283.3
712.993	144.04
713.181	129.7
713.368	164.52
713.556	223.91
713.744	162.47
713.931	260.77
714.119	244.39
714.306	187.05
714.494	180.9
714.682	172.71
714.869	68.27
715.057	285.35
715.244	131.75
715.432	144.04
715.619	137.9
715.807	205.48
715.994	168.62
716.182	271.01
716.369	342.69
716.556	211.62
716.744	178.86
716.931	215.72
717.119	197.29
717.306	164.52
717.493	248.49
717.681	197.29
717.868	172.71
718.055	287.4
718.242	234.15
718.43	225.96
718.617	305.83
718.804	146.09
718.991	273.06
719.179	242.34
719.366	242.34
719.553	162.47
719.74	111.27
719.927	176.81
720.114	180.9
720.301	193.19
720.488	129.7
720.676	113.32
720.863	295.59
721.05	361.13
721.237	195.24
721.424	262.82
721.611	225.96
721.798	129.7
721.985	172.71
722.172	242.34
722.358	174.76
722.545	246.44
722.732	279.21
722.919	221.86
723.106	256.68
723.293	225.96
723.48	275.11
723.667	133.8
723.853	244.39
724.04	295.59
724.227	295.59
724.414	203.43
724.6	199.34
724.787	301.73
724.974	305.83
725.161	297.64
725.347	129.7
725.534	264.87
725.72	240.3
725.907	322.21
726.094	314.02
726.28	180.9
726.467	211.62
726.653	187.05
726.84	393.89
727.027	352.93
727.213	209.58
727.4	287.4
727.586	268.97
727.773	262.82
727.959	252.58
728.145	236.2
728.332	234.15
728.518	299.69
728.705	348.84
728.891	277.16
729.077	185
729.264	170.66
729.45	209.58
729.636	307.88
729.823	285.35
730.009	322.21
730.195	305.83
730.382	303.78
730.568	199.34
730.754	273.06
730.94	205.48
731.126	301.73
731.313	365.22
731.499	291.49
731.685	277.16
731.871	283.3
732.057	232.1
732.243	350.89
732.429	293.54
732.615	297.64
732.801	359.08
732.987	219.82
733.173	283.3
733.359	223.91
733.545	285.35
733.731	195.24
733.917	326.31
734.103	275.11
734.289	346.79
734.475	201.38
734.661	410.28
734.847	236.2
735.033	236.2
735.219	309.93
735.404	174.76
735.59	234.15
735.776	207.53
735.962	330.41
736.148	354.98
736.333	404.13
736.519	268.97
736.705	268.97
736.89	244.39
737.076	234.15
737.262	258.73
737.447	164.52
737.633	217.77
737.819	318.12
738.004	240.3
738.19	168.62
738.375	303.78
738.561	311.97
738.747	268.97
738.932	182.95
739.118	352.93
739.303	342.69
739.489	279.21
739.674	273.06
739.859	240.3
740.045	340.65
740.23	293.54
740.416	39.59
740.601	311.97
740.786	279.21
740.972	185
741.157	264.87
741.342	207.53
741.528	238.25
741.713	314.02
741.898	135.85
742.084	289.45
742.269	195.24
742.454	373.41
742.639	279.21
742.824	277.16
743.01	350.89
743.195	365.22
743.38	244.39
743.565	238.25
743.75	248.49
743.935	377.51
744.12	430.76
744.305	219.82
744.49	150.18
744.675	170.66
744.86	223.91
745.045	293.54
745.23	277.16
745.415	234.15
745.6	453.28
745.785	211.62
745.97	309.93
746.155	291.49
746.34	324.26
746.525	285.35
746.71	340.65
746.895	189.1
747.079	158.38
747.264	252.58
747.449	283.3
747.634	285.35
747.819	252.58
748.003	201.38
748.188	160.42
748.373	225.96
748.557	277.16
748.742	287.4
748.927	248.49
749.111	144.04
749.296	248.49
749.481	193.19
749.665	215.72
749.85	209.58
750.034	260.77
750.219	160.42
750.404	242.34
750.588	291.49
750.773	197.29
750.957	246.44
751.141	180.9
751.326	309.93
751.51	135.85
751.695	211.62
751.879	217.77
752.064	266.92
752.248	88.75
752.432	301.73
752.617	250.53
752.801	250.53
752.985	74.41
753.17	291.49
753.354	244.39
753.538	156.33
753.722	125.61
753.907	260.77
754.091	55.98
754.275	271.01
754.459	66.22
754.643	152.23
754.828	170.66
755.012	215.72
755.196	111.27
755.38	230.06
755.564	117.42
755.748	193.19
755.932	236.2
756.116	234.15
756.3	199.34
756.484	113.32
756.668	162.47
756.852	98.99
757.036	115.37
757.22	139.94
757.404	150.18
757.588	178.86
757.772	150.18
757.956	96.94
758.14	297.64
758.323	66.22
758.507	199.34
758.691	78.51
758.875	187.05
759.059	307.88
759.242	152.23
759.426	201.38
759.61	105.13
759.794	121.51
759.977	137.9
760.161	414.37
760.345	178.86
760.528	174.76
760.712	160.42
760.895	197.29
761.079	96.94
761.263	80.55
761.446	101.03
761.63	101.03
761.813	189.1
761.997	90.79
762.18	105.13
762.364	199.34
762.547	35.5
762.731	115.37
762.914	141.99
763.098	86.7
763.281	80.55
763.464	107.18
763.648	125.61
763.831	82.6
764.015	172.71
764.198	154.28
764.381	109.22
764.564	101.03
764.748	107.18
764.931	256.68
765.114	35.5
765.297	160.42
765.481	137.9
765.664	96.94
765.847	109.22
766.03	172.71
766.213	49.83
766.397	94.89
766.58	41.64
766.763	189.1
766.946	109.22
767.129	150.18
767.312	58.03
767.495	62.12
767.678	80.55
767.861	101.03
768.044	133.8
768.227	66.22
768.41	92.84
768.593	66.22
768.776	168.62
768.959	72.36
769.142	182.95
769.324	19.11
769.507	60.07
769.69	51.88
769.873	80.55
770.056	240.3
770.239	49.83
770.421	182.95
770.604	111.27
770.787	76.46
770.97	148.14
771.152	-3.41
771.335	133.8
771.518	92.84
771.7	168.62
771.883	203.43
772.066	19.11
772.248	82.6
772.431	158.38
772.613	137.9
772.796	148.14
772.978	125.61
773.161	150.18
773.343	27.31
773.526	10.92
773.708	-13.65
773.891	-75.09
774.073	117.42
774.256	12.97
774.438	176.81
774.621	84.65
774.803	107.18
774.985	121.51
775.168	90.79
775.35	88.75
775.532	127.66
775.715	-21.85
775.897	53.93
776.079	90.79
776.261	123.56
776.444	64.17
776.626	55.98
776.808	137.9
776.99	-52.56
777.173	107.18
777.355	78.51
777.537	86.7
777.719	105.13
777.901	10.92
778.083	-48.47
778.265	-5.46
778.447	121.51
778.629	-64.85
778.811	33.45
778.993	141.99
779.175	111.27
779.357	45.74
779.539	-93.52
779.721	66.22
779.903	101.03
780.085	105.13
780.267	88.75
780.449	45.74
780.631	131.75
780.812	35.5
780.994	103.08
781.176	55.98
781.358	-42.32
781.54	4.78
781.721	144.04
781.903	84.65
782.085	78.51
782.267	101.03
782.448	-40.28
782.63	51.88
782.812	21.16
782.993	109.22
783.175	113.32
783.357	21.16
783.538	92.84
783.72	101.03
783.901	107.18
784.083	119.46
784.264	133.8
784.446	25.26
784.627	-1.37
784.809	15.02
784.99	117.42
785.172	92.84
785.353	-15.7
785.535	43.69
785.716	-46.42
785.897	15.02
786.079	23.21
786.26	62.12
786.441	51.88
786.623	-36.18
786.804	-5.46
786.985	-46.42
787.167	51.88
787.348	35.5
787.529	41.64
787.71	205.48
787.891	66.22
788.073	45.74
788.254	-7.51
788.435	182.95
788.616	27.31
788.797	-13.65
788.978	60.07
789.159	-11.61
789.34	92.84
789.522	29.35
789.703	-25.94
789.884	21.16
790.065	37.55
790.246	133.8
790.427	72.36
790.607	131.75
790.788	115.37
790.969	-48.47
791.15	139.94
791.331	-7.51
791.512	-3.41
791.693	-85.33
791.874	27.31
792.054	217.77
792.235	101.03
792.416	-25.94
792.597	-1.37
792.778	121.51
792.958	80.55
793.139	141.99
793.32	129.7
793.5	-36.18
793.681	137.9
793.862	37.55
794.042	49.83
794.223	-73.04
794.404	8.87
794.584	-11.61
794.765	-13.65
794.945	35.5
795.126	92.84
795.306	66.22
795.487	12.97
795.667	43.69
795.848	-9.56
796.028	51.88
796.209	25.26
796.389	37.55
796.57	-30.04
796.75	6.83
796.93	29.35
797.111	10.92
797.291	-46.42
797.471	88.75
797.652	-1.37
797.832	-7.51
798.012	105.13
798.192	-9.56
798.373	-34.13
798.553	-11.61
798.733	62.12
798.913	-77.14
799.093	-21.85
799.274	35.5
799.454	29.35
799.634	43.69
799.814	107.18
799.994	70.31
800.174	39.59
800.354	-42.32
800.534	4.78
800.714	92.84
800.894	-32.08
801.074	-52.56
801.254	-105.81
801.434	98.99
801.614	-23.89
801.794	31.4
801.974	1575.57
802.154	96.94
802.334	41.64
802.514	-9.56
802.693	-17.75
802.873	88.75
803.053	125.61
803.233	154.28
803.413	53.93
803.592	27.31
803.772	-48.47
803.952	19.11
804.131	-5.46
804.311	23.21
804.491	105.13
804.67	-5.46
804.85	-85.33
805.03	2.73
805.209	84.65
805.389	-89.43
805.568	15.02
805.748	-56.66
805.928	86.7
806.107	121.51
806.287	47.79
806.466	47.79
806.646	21.16
806.825	70.31
807.004	-91.48
807.184	29.35
807.363	92.84
807.543	53.93
807.722	-40.28
807.901	133.8
808.081	19.11
808.26	-142.68
808.439	23.21
808.619	0.68
808.798	-25.94
808.977	17.07
809.156	60.07
809.336	-38.23
809.515	86.7
809.694	-7.51
809.873	-46.42
810.052	51.88
810.231	117.42
810.411	25.26
810.59	64.17
810.769	-5.46
810.948	90.79
811.127	-73.04
811.306	-36.18
811.485	-25.94
811.664	135.85
811.843	21.16
812.022	123.56
812.201	23.21
812.38	51.88
812.559	47.79
812.737	64.17
812.916	-144.72
813.095	25.26
813.274	21.16
813.453	-46.42
813.632	-5.46
813.811	2.73
813.989	-38.23
814.168	23.21
814.347	-42.32
814.526	-11.61
814.704	117.42
814.883	113.32
815.062	-52.56
815.24	84.65
815.419	-56.66
815.598	27.31
815.776	-83.28
815.955	-34.13
816.133	-56.66
816.312	47.79
816.49	0.68
816.669	-101.72
816.847	78.51
817.026	55.98
817.204	-52.56
817.383	43.69
817.561	-58.71
817.74	35.5
817.918	2.73
818.097	25.26
818.275	17.07
818.453	23.21
818.632	105.13
818.81	17.07
818.988	19.11
819.167	-27.99
819.345	25.26
819.523	-17.75
819.701	33.45
819.879	47.79
820.058	-5.46
820.236	39.59
820.414	15.02
820.592	10.92
820.77	-27.99
820.948	-64.85
821.127	-13.65
821.305	49.83
821.483	-91.48
821.661	158.38
821.839	-3.41
822.017	-34.13
822.195	-19.8
822.373	96.94
822.551	55.98
822.729	88.75
822.907	19.11
823.085	47.79
823.262	33.45
823.44	37.55
823.618	4.78
823.796	-9.56
823.974	-77.14
824.152	-32.08
824.329	-25.94
824.507	-32.08
824.685	43.69
824.863	-87.38
825.04	10.92
825.218	8.87
825.396	2.73
825.574	-3.41
825.751	119.46
825.929	-34.13
826.107	-38.23
826.284	-11.61
826.462	49.83
826.639	-42.32
826.817	-95.57
826.994	101.03
827.172	-54.61
827.349	94.89
827.527	-58.71
827.704	-1.37
827.882	72.36
828.059	-56.66
828.237	25.26
828.414	117.42
828.591	-124.24
828.769	-93.52
828.946	-11.61
829.124	92.84
829.301	72.36
829.478	-13.65
829.655	29.35
829.833	23.21
830.01	-134.48
830.187	64.17
830.364	-9.56
830.542	-15.7
830.719	158.38
830.896	27.31
831.073	21.16
831.25	-21.85
831.427	43.69
831.604	-13.65
831.782	-79.19
831.959	86.7
832.136	-17.75
832.313	25.26
832.49	12.97
832.667	33.45
832.844	-79.19
833.021	96.94
833.198	-15.7
833.374	-23.89
833.551	37.55
833.728	-71
833.905	113.32
834.082	-128.34
834.259	55.98
834.436	66.22
834.612	-114
834.789	105.13
834.966	-3.41
835.143	55.98
835.319	-79.19
835.496	60.07
835.673	2.73
835.85	88.75
836.026	-1.37
836.203	111.27
836.38	-42.32
836.556	-44.37
836.733	-91.48
836.909	62.12
837.086	19.11
837.262	-140.63
837.439	0.68
837.616	-42.32
837.792	-48.47
837.968	86.7
838.145	-122.2
838.321	-44.37
838.498	23.21
838.674	55.98
838.851	-50.52
839.027	-157.01
839.203	-30.04
839.38	76.46
839.556	-58.71
839.732	21.16
839.909	-54.61
840.085	51.88
840.261	-17.75
840.437	-30.04
840.614	-21.85
840.79	135.85
840.966	119.46
841.142	-3.41
841.318	17.07
841.494	119.46
841.671	49.83
841.847	-9.56
842.023	-52.56
842.199	66.22
842.375	131.75
842.551	-128.34
842.727	-64.85
842.903	84.65
843.079	-71
843.255	74.41
843.431	-38.23
843.607	84.65
843.783	-101.72
843.959	-34.13
844.134	-17.75
844.31	135.85
844.486	-81.24
844.662	-66.9
844.838	-83.28
845.013	55.98
845.189	64.17
845.365	53.93
845.541	-3.41
845.716	4.78
845.892	121.51
846.068	12.97
846.244	-27.99
846.419	-3.41
846.595	10.92
846.77	-75.09
846.946	160.42
847.122	-5.46
847.297	-9.56
847.473	152.23
847.648	-30.04
847.824	-73.04
847.999	-48.47
848.175	27.31
848.35	-58.71
848.526	60.07
848.701	98.99
848.876	55.98
849.052	158.38
849.227	-66.9
849.403	-9.56
849.578	4.78
849.753	-17.75
849.929	105.13
850.104	-71
850.279	41.64
850.454	29.35
850.63	35.5
850.805	60.07
850.98	51.88
851.155	19.11
851.33	-27.99
851.505	-46.42
851.681	66.22
851.856	-128.34
852.031	74.41
852.206	-5.46
852.381	-120.15
852.556	0.68
852.731	43.69
852.906	29.35
853.081	-1.37
853.256	176.81
853.431	12.97
853.606	19.11
853.781	-17.75
853.956	-95.57
854.131	31.4
854.305	-91.48
854.48	19.11
854.655	-25.94
854.83	-17.75
855.005	-11.61
855.18	-32.08
855.354	-19.8
855.529	66.22
855.704	4.78
855.879	88.75
856.053	-105.81
856.228	35.5
856.403	-60.76
856.577	105.13
856.752	-93.52
856.926	84.65
857.101	-44.37
857.276	-91.48
857.45	-46.42
857.625	51.88
857.799	64.17
857.974	-21.85
858.148	-154.96
858.323	12.97
858.497	-21.85
858.672	-52.56
858.846	-56.66
859.02	64.17
859.195	-89.43
859.369	6.83
859.543	43.69
859.718	-38.23
859.892	10.92
860.066	2.73
860.241	-52.56
860.415	-46.42
860.589	-34.13
860.763	47.79
860.938	-13.65
861.112	105.13
861.286	-97.62
861.46	31.4
861.634	-40.28
861.808	19.11
861.982	-23.89
862.157	-173.39
862.331	-23.89
862.505	-99.67
862.679	-107.86
862.853	-11.61
863.027	-7.51
863.201	86.7
863.375	-19.8
863.549	43.69
863.722	31.4
863.896	37.55
864.07	-50.52
864.244	8.87
864.418	66.22
864.592	33.45
864.766	-11.61
864.939	17.07
865.113	-136.53
865.287	156.33
865.461	-107.86
865.634	64.17
865.808	-3.41
865.982	-48.47
866.156	-68.95
866.329	-66.9
866.503	-11.61
866.676	43.69
866.85	-13.65
867.024	-62.8
867.197	41.64
867.371	90.79
867.544	17.07
867.718	-120.15
867.891	51.88
868.065	-142.68
868.238	-23.89
868.412	74.41
868.585	45.74
868.759	-85.33
868.932	-105.81
869.105	-89.43
869.279	2.73
869.452	-134.48
869.625	72.36
869.799	-40.28
869.972	-79.19
870.145	-34.13
870.319	88.75
870.492	-19.8
870.665	-30.04
870.838	-7.51
871.011	-68.95
871.185	-42.32
871.358	-32.08
871.531	17.07
871.704	-21.85
871.877	-79.19
872.05	-34.13
872.223	-101.72
872.396	51.88
872.569	60.07
872.742	-44.37
872.915	66.22
873.088	-13.65
873.261	-32.08
873.434	-11.61
873.607	-46.42
873.78	123.56
873.953	-62.8
874.126	0.68
874.299	43.69
874.471	-40.28
874.644	-81.24
874.817	86.7
874.99	119.46
875.163	-17.75
875.335	-50.52
875.508	4.78
875.681	88.75
875.853	-32.08
876.026	80.55
876.199	33.45
876.371	-23.89
876.544	-42.32
876.717	2.73
876.889	-34.13
877.062	-40.28
877.234	-99.67
877.407	-9.56
877.579	15.02
877.752	27.31
877.924	84.65
878.097	25.26
878.269	66.22
878.442	49.83
878.614	41.64
878.786	-30.04
878.959	-5.46
879.131	-5.46
879.303	-148.82
879.476	-38.23
879.648	-5.46
879.82	-17.75
879.993	-52.56
880.165	-25.94
880.337	-105.81
880.509	76.46
880.681	-95.57
880.854	-95.57
881.026	70.31
881.198	129.7
881.37	-13.65
881.542	-44.37
881.714	-5.46
881.886	-89.43
882.058	-44.37
882.23	41.64
882.402	19.11
882.574	4.78
882.746	12.97
882.918	21.16
883.09	6.83
883.262	-42.32
883.434	-3.41
883.606	-120.15
883.778	-9.56
883.95	23.21
884.122	-48.47
884.293	43.69
884.465	12.97
884.637	55.98
884.809	-25.94
884.98	72.36
885.152	35.5
885.324	10.92
885.496	-130.39
885.667	12.97
885.839	-46.42
886.011	94.89
886.182	98.99
886.354	6.83
886.525	82.6
886.697	45.74
886.869	47.79
887.04	-25.94
887.212	119.46
887.383	88.75
887.555	-42.32
887.726	-46.42
887.897	-3.41
888.069	15.02
888.24	119.46
888.412	2.73
888.583	-15.7
888.754	-7.51
888.926	-97.62
889.097	12.97
889.268	-38.23
889.44	-11.61
889.611	-68.95
889.782	-83.28
889.953	43.69
890.125	164.52
890.296	-17.75
890.467	2.73
890.638	-79.19
890.809	-58.71
890.98	-21.85
891.151	2.73
891.323	62.12
891.494	-109.91
891.665	64.17
891.836	25.26
892.007	-38.23
892.178	12.97
892.349	43.69
892.52	-85.33
892.691	45.74
892.862	-11.61
893.032	-71
893.203	-7.51
893.374	-42.32
893.545	33.45
893.716	-32.08
893.887	53.93
894.057	-5.46
894.228	-19.8
894.399	-5.46
894.57	15.02
894.74	-19.8
894.911	66.22
895.082	-38.23
895.253	-19.8
895.423	8.87
895.594	-17.75
895.764	21.16
895.935	-64.85
896.106	152.23
896.276	-44.37
896.447	72.36
896.617	-56.66
896.788	-58.71
896.958	-17.75
897.129	19.11
897.299	2.73
897.47	88.75
897.64	82.6
897.81	-44.37
897.981	-21.85
898.151	0.68
898.322	29.35
898.492	12.97
898.662	-75.09
898.832	-87.38
899.003	-48.47
899.173	37.55
899.343	-77.14
899.513	-52.56
