Data from USB4F104151__81__10-44-21-770.txt Node

Date: Wed Feb 26 10:44:21 EST 2025
User: louis
Spectrometer: USB4F10415
Trigger mode: 4
Integration Time (sec): 1.000000E-1
Scans to average: 1
Electric dark correction enabled: true
Nonlinearity correction enabled: false
Boxcar width: 0
XAxis mode: Wavelengths
Number of Pixels in Spectrum: 3648
>>>>>Begin Spectral Data<<<<<
178.204	-368.29
178.424	-368.29
178.644	-368.29
178.864	-482.98
179.084	-423.59
179.304	-32.43
179.524	61.78
179.744	-26.28
179.964	6.49
180.184	49.49
180.404	72.02
180.624	-22.19
180.844	-24.23
181.064	-118.44
181.283	10.58
181.503	-36.52
181.723	59.73
181.943	-140.97
182.163	131.41
182.383	-11.95
182.602	6.49
182.822	84.31
183.042	43.35
183.262	39.25
183.482	-50.86
183.701	-7.85
183.921	-75.43
184.141	-108.2
184.361	59.73
184.58	43.35
184.8	115.03
185.02	55.64
185.239	65.88
185.459	47.44
185.679	37.2
185.898	-73.39
186.118	12.63
186.338	26.96
186.557	61.78
186.777	-3.75
186.997	2.39
187.216	24.92
187.436	160.08
187.655	104.79
187.875	133.46
188.095	-24.23
188.314	94.55
188.534	213.33
188.753	-34.47
188.973	147.8
189.192	139.6
189.412	-69.29
189.631	12.63
189.851	63.83
190.07	108.88
190.29	-28.33
190.509	-61.1
190.729	22.87
190.948	123.22
191.168	225.62
191.387	53.59
191.607	80.21
191.826	137.56
192.045	61.78
192.265	24.92
192.484	125.27
192.704	-1.71
192.923	-122.54
193.142	162.13
193.362	125.27
193.581	133.46
193.8	84.31
194.02	135.51
194.239	8.53
194.458	47.44
194.678	-7.85
194.897	43.35
195.116	76.12
195.335	67.92
195.555	6.49
195.774	-32.43
195.993	160.08
196.212	-63.15
196.432	-83.63
196.651	-32.43
196.87	14.68
197.089	188.75
197.308	80.21
197.528	55.64
197.747	-20.14
197.966	31.06
198.185	153.94
198.404	-30.38
198.623	155.99
198.842	112.98
199.062	94.55
199.281	123.22
199.5	74.07
199.719	37.2
199.938	16.73
200.157	22.87
200.376	92.5
200.595	39.25
200.814	78.16
201.033	8.53
201.252	192.85
201.471	59.73
201.69	86.36
201.909	-11.95
202.128	112.98
202.347	53.59
202.566	-36.52
202.785	-116.39
203.004	53.59
203.223	237.91
203.442	-38.57
203.661	-149.16
203.879	162.13
204.098	67.92
204.317	4.44
204.536	26.96
204.755	39.25
204.974	127.32
205.193	-20.14
205.411	92.5
205.63	108.88
205.849	57.68
206.068	-77.48
206.287	4.44
206.505	168.27
206.724	4.44
206.943	16.73
207.162	-42.67
207.381	61.78
207.599	69.97
207.818	4.44
208.037	26.96
208.255	14.68
208.474	53.59
208.693	29.01
208.911	24.92
209.13	100.69
209.349	18.77
209.567	-3.75
209.786	76.12
210.005	133.46
210.223	57.68
210.442	-134.82
210.661	47.44
210.879	57.68
211.098	-9.9
211.316	57.68
211.535	49.49
211.753	22.87
211.972	49.49
212.191	-22.19
212.409	10.58
212.628	86.36
212.846	-50.86
213.065	-34.47
213.283	82.26
213.502	20.82
213.72	16.73
213.938	59.73
214.157	14.68
214.375	88.4
214.594	57.68
214.812	78.16
215.031	41.3
215.249	88.4
215.467	65.88
215.686	86.36
215.904	123.22
216.122	59.73
216.341	127.32
216.559	86.36
216.778	106.84
216.996	145.75
217.214	2.39
217.432	-1.71
217.651	-81.58
217.869	10.58
218.087	31.06
218.306	18.77
218.524	108.88
218.742	29.01
218.96	45.4
219.179	-22.19
219.397	49.49
219.615	207.19
219.833	80.21
220.051	-75.43
220.27	94.55
220.488	84.31
220.706	-9.9
220.924	43.35
221.142	-32.43
221.36	22.87
221.578	76.12
221.796	12.63
222.015	65.88
222.233	67.92
222.451	102.74
222.669	-42.67
222.887	74.07
223.105	8.53
223.323	76.12
223.541	-7.85
223.759	20.82
223.977	115.03
224.195	145.75
224.413	78.16
224.631	33.11
224.849	45.4
225.067	198.99
225.285	-32.43
225.503	55.64
225.721	-91.82
225.939	69.97
226.157	63.83
226.375	168.27
226.592	-1.71
226.81	-18.09
227.028	158.03
227.246	90.45
227.464	84.31
227.682	102.74
227.9	41.3
228.117	39.25
228.335	8.53
228.553	22.87
228.771	18.77
228.989	39.25
229.206	104.79
229.424	-3.75
229.642	-22.19
229.86	31.06
230.077	137.56
230.295	61.78
230.513	53.59
230.731	47.44
230.948	151.89
231.166	172.37
231.384	-57
231.601	4.44
231.819	137.56
232.037	-38.57
232.254	-85.67
232.472	-28.33
232.689	-20.14
232.907	112.98
233.125	-7.85
233.342	-44.71
233.56	-42.67
233.777	8.53
233.995	10.58
234.213	63.83
234.43	65.88
234.648	8.53
234.865	-71.34
235.083	86.36
235.3	20.82
235.518	37.2
235.735	176.47
235.953	37.2
236.17	33.11
236.388	55.64
236.605	-28.33
236.822	135.51
237.04	170.32
237.257	59.73
237.475	18.77
237.692	-1.71
237.909	74.07
238.127	24.92
238.344	4.44
238.562	8.53
238.779	-24.23
238.996	-83.63
239.214	-7.85
239.431	24.92
239.648	-18.09
239.865	121.17
240.083	61.78
240.3	0.34
240.517	-67.24
240.735	-11.95
240.952	115.03
241.169	4.44
241.386	8.53
241.603	49.49
241.821	-155.3
242.038	92.5
242.255	61.78
242.472	-104.11
242.689	43.35
242.907	43.35
243.124	98.64
243.341	-5.8
243.558	-42.67
243.775	-40.62
243.992	-118.44
244.209	96.6
244.426	151.89
244.643	55.64
244.86	-7.85
245.078	76.12
245.295	41.3
245.512	106.84
245.729	-42.67
245.946	121.17
246.163	18.77
246.38	-7.85
246.597	80.21
246.814	0.34
247.031	63.83
247.248	76.12
247.464	31.06
247.681	-20.14
247.898	86.36
248.115	74.07
248.332	-13.99
248.549	137.56
248.766	180.56
248.983	65.88
249.2	96.6
249.417	84.31
249.633	43.35
249.85	-5.8
250.067	43.35
250.284	119.12
250.501	41.3
250.717	20.82
250.934	-61.1
251.151	55.64
251.368	-16.04
251.585	43.35
251.801	39.25
252.018	-134.82
252.235	108.88
252.451	-110.25
252.668	-16.04
252.885	98.64
253.102	63.83
253.318	-18.09
253.535	6.49
253.752	-30.38
253.968	61.78
254.185	-28.33
254.401	78.16
254.618	98.64
254.835	-97.96
255.051	102.74
255.268	33.11
255.484	35.16
255.701	39.25
255.917	-5.8
256.134	-50.86
256.351	18.77
256.567	-95.91
256.784	-3.75
257	-16.04
257.217	78.16
257.433	29.01
257.65	29.01
257.866	88.4
258.082	-46.76
258.299	-61.1
258.515	51.54
258.732	-11.95
258.948	-50.86
259.165	6.49
259.381	-28.33
259.597	102.74
259.814	-9.9
260.03	-11.95
260.246	6.49
260.463	90.45
260.679	100.69
260.895	37.2
261.112	92.5
261.328	4.44
261.544	-11.95
261.761	186.71
261.977	24.92
262.193	-59.05
262.409	53.59
262.626	16.73
262.842	-7.85
263.058	-42.67
263.274	49.49
263.49	6.49
263.707	41.3
263.923	90.45
264.139	-77.48
264.355	76.12
264.571	12.63
264.787	45.4
265.004	74.07
265.22	18.77
265.436	-5.8
265.652	47.44
265.868	39.25
266.084	-24.23
266.3	18.77
266.516	-5.8
266.732	78.16
266.948	8.53
267.164	-28.33
267.38	96.6
267.596	22.87
267.812	172.37
268.028	127.32
268.244	-24.23
268.46	-7.85
268.676	4.44
268.892	-16.04
269.108	-20.14
269.324	-100.01
269.54	-44.71
269.756	123.22
269.972	2.39
270.188	45.4
270.403	-38.57
270.619	37.2
270.835	-3.75
271.051	-1.71
271.267	24.92
271.483	-34.47
271.698	74.07
271.914	61.78
272.13	41.3
272.346	-30.38
272.562	55.64
272.777	102.74
272.993	-57
273.209	-9.9
273.425	57.68
273.64	-7.85
273.856	61.78
274.072	-63.15
274.287	-13.99
274.503	43.35
274.719	141.65
274.934	22.87
275.15	-79.53
275.366	12.63
275.581	12.63
275.797	-11.95
276.012	49.49
276.228	55.64
276.444	37.2
276.659	102.74
276.875	-44.71
277.09	119.12
277.306	6.49
277.521	14.68
277.737	-5.8
277.952	29.01
278.168	59.73
278.383	-18.09
278.599	45.4
278.814	55.64
279.03	2.39
279.245	51.54
279.461	49.49
279.676	84.31
279.892	-18.09
280.107	-22.19
280.322	-36.52
280.538	29.01
280.753	92.5
280.969	112.98
281.184	49.49
281.399	143.7
281.615	65.88
281.83	4.44
282.045	-83.63
282.26	-1.71
282.476	-1.71
282.691	80.21
282.906	82.26
283.122	2.39
283.337	-61.1
283.552	72.02
283.767	-16.04
283.983	106.84
284.198	-1.71
284.413	31.06
284.628	-22.19
284.843	121.17
285.058	67.92
285.274	63.83
285.489	-54.95
285.704	104.79
285.919	-20.14
286.134	-24.23
286.349	18.77
286.564	-32.43
286.779	92.5
286.995	47.44
287.21	-34.47
287.425	117.08
287.64	33.11
287.855	61.78
288.07	-97.96
288.285	-1.71
288.5	172.37
288.715	59.73
288.93	-16.04
289.145	-59.05
289.36	31.06
289.575	-50.86
289.79	117.08
290.004	51.54
290.219	43.35
290.434	-28.33
290.649	20.82
290.864	33.11
291.079	45.4
291.294	65.88
291.509	8.53
291.724	-3.75
291.938	-36.52
292.153	129.36
292.368	29.01
292.583	-24.23
292.798	135.51
293.012	82.26
293.227	170.32
293.442	8.53
293.657	45.4
293.871	158.03
294.086	-44.71
294.301	162.13
294.516	131.41
294.73	-59.05
294.945	-30.38
295.16	-9.9
295.374	88.4
295.589	98.64
295.804	-1.71
296.018	72.02
296.233	119.12
296.447	160.08
296.662	8.53
296.877	76.12
297.091	57.68
297.306	29.01
297.52	61.78
297.735	47.44
297.949	39.25
298.164	10.58
298.378	-3.75
298.593	31.06
298.807	20.82
299.022	72.02
299.236	112.98
299.451	-20.14
299.665	-3.75
299.88	69.97
300.094	74.07
300.309	-5.8
300.523	45.4
300.737	-40.62
300.952	119.12
301.166	96.6
301.381	-46.76
301.595	-3.75
301.809	10.58
302.024	12.63
302.238	-7.85
302.452	88.4
302.667	8.53
302.881	145.75
303.095	143.7
303.309	88.4
303.524	51.54
303.738	4.44
303.952	-48.81
304.166	33.11
304.381	-46.76
304.595	123.22
304.809	63.83
305.023	92.5
305.237	14.68
305.452	29.01
305.666	72.02
305.88	63.83
306.094	139.6
306.308	57.68
306.522	76.12
306.736	78.16
306.95	100.69
307.164	53.59
307.379	37.2
307.593	90.45
307.807	127.32
308.021	-3.75
308.235	45.4
308.449	-81.58
308.663	-7.85
308.877	133.46
309.091	88.4
309.305	-16.04
309.519	-124.58
309.733	110.93
309.947	-81.58
310.161	41.3
310.374	92.5
310.588	80.21
310.802	-79.53
311.016	14.68
311.23	131.41
311.444	43.35
311.658	-38.57
311.872	125.27
312.085	115.03
312.299	104.79
312.513	135.51
312.727	43.35
312.941	-38.57
313.154	4.44
313.368	53.59
313.582	55.64
313.796	110.93
314.009	-1.71
314.223	84.31
314.437	45.4
314.651	119.12
314.864	-24.23
315.078	-16.04
315.292	-54.95
315.505	10.58
315.719	10.58
315.933	10.58
316.146	33.11
316.36	-57
316.573	129.36
316.787	74.07
317.001	-20.14
317.214	-114.34
317.428	74.07
317.641	-50.86
317.855	49.49
318.068	-3.75
318.282	16.73
318.495	131.41
318.709	82.26
318.922	-26.28
319.136	127.32
319.349	125.27
319.563	-34.47
319.776	55.64
319.99	-122.54
320.203	158.03
320.417	69.97
320.63	49.49
320.843	217.43
321.057	33.11
321.27	82.26
321.483	117.08
321.697	160.08
321.91	29.01
322.124	121.17
322.337	72.02
322.55	-42.67
322.763	63.83
322.977	4.44
323.19	61.78
323.403	102.74
323.617	-38.57
323.83	98.64
324.043	45.4
324.256	76.12
324.469	6.49
324.683	117.08
324.896	-11.95
325.109	88.4
325.322	-36.52
325.535	88.4
325.748	129.36
325.962	0.34
326.175	22.87
326.388	108.88
326.601	125.27
326.814	6.49
327.027	12.63
327.24	158.03
327.453	-91.82
327.666	45.4
327.879	49.49
328.092	145.75
328.305	45.4
328.518	29.01
328.731	61.78
328.944	10.58
329.157	65.88
329.37	-40.62
329.583	207.19
329.796	149.84
330.009	-89.77
330.222	49.49
330.435	110.93
330.648	10.58
330.861	100.69
331.073	41.3
331.286	98.64
331.499	84.31
331.712	12.63
331.925	26.96
332.138	-36.52
332.35	117.08
332.563	-18.09
332.776	86.36
332.989	-3.75
333.202	53.59
333.414	65.88
333.627	-16.04
333.84	8.53
334.053	74.07
334.265	0.34
334.478	18.77
334.691	-11.95
334.903	49.49
335.116	14.68
335.329	0.34
335.541	92.5
335.754	170.32
335.966	-7.85
336.179	59.73
336.392	-36.52
336.604	26.96
336.817	80.21
337.029	4.44
337.242	-9.9
337.454	76.12
337.667	8.53
337.88	145.75
338.092	59.73
338.305	112.98
338.517	18.77
338.729	127.32
338.942	76.12
339.154	-134.82
339.367	-77.48
339.579	4.44
339.792	6.49
340.004	86.36
340.217	24.92
340.429	92.5
340.641	6.49
340.854	-91.82
341.066	39.25
341.278	92.5
341.491	196.95
341.703	-30.38
341.915	33.11
342.128	133.46
342.34	26.96
342.552	-116.39
342.764	43.35
342.977	-22.19
343.189	2.39
343.401	24.92
343.613	-71.34
343.826	57.68
344.038	-26.28
344.25	-16.04
344.462	-48.81
344.674	-3.75
344.886	-40.62
345.099	20.82
345.311	115.03
345.523	-13.99
345.735	-97.96
345.947	16.73
346.159	72.02
346.371	16.73
346.583	26.96
346.795	190.8
347.007	-40.62
347.219	78.16
347.431	16.73
347.643	112.98
347.855	-40.62
348.067	235.86
348.279	-26.28
348.491	69.97
348.703	94.55
348.915	39.25
349.127	-1.71
349.339	78.16
349.551	14.68
349.763	74.07
349.975	57.68
350.187	121.17
350.399	174.42
350.61	90.45
350.822	-3.75
351.034	63.83
351.246	8.53
351.458	14.68
351.669	110.93
351.881	117.08
352.093	61.78
352.305	33.11
352.517	86.36
352.728	119.12
352.94	82.26
353.152	31.06
353.363	26.96
353.575	90.45
353.787	170.32
353.999	41.3
354.21	170.32
354.422	-44.71
354.633	-75.43
354.845	24.92
355.057	16.73
355.268	22.87
355.48	112.98
355.692	-38.57
355.903	65.88
356.115	-73.39
356.326	-9.9
356.538	98.64
356.749	90.45
356.961	166.23
357.172	61.78
357.384	-32.43
357.595	203.09
357.807	4.44
358.018	-9.9
358.23	49.49
358.441	127.32
358.653	67.92
358.864	20.82
359.075	-22.19
359.287	41.3
359.498	76.12
359.709	67.92
359.921	29.01
360.132	127.32
360.344	-16.04
360.555	-71.34
360.766	63.83
360.977	55.64
361.189	94.55
361.4	-34.47
361.611	33.11
361.823	51.54
362.034	45.4
362.245	-93.87
362.456	24.92
362.667	123.22
362.879	14.68
363.09	14.68
363.301	24.92
363.512	69.97
363.723	-59.05
363.935	-7.85
364.146	112.98
364.357	4.44
364.568	31.06
364.779	-38.57
364.99	184.66
365.201	-16.04
365.412	49.49
365.623	6.49
365.834	31.06
366.045	45.4
366.256	35.16
366.467	88.4
366.678	12.63
366.889	86.36
367.1	-38.57
367.311	108.88
367.522	-34.47
367.733	41.3
367.944	82.26
368.155	-16.04
368.366	166.23
368.577	82.26
368.788	110.93
368.999	39.25
369.209	29.01
369.42	274.77
369.631	233.81
369.842	90.45
370.053	125.27
370.264	-20.14
370.474	12.63
370.685	92.5
370.896	35.16
371.107	168.27
371.317	82.26
371.528	33.11
371.739	127.32
371.95	106.84
372.16	76.12
372.371	-100.01
372.582	-52.91
372.792	26.96
373.003	90.45
373.214	29.01
373.424	88.4
373.635	10.58
373.846	18.77
374.056	8.53
374.267	102.74
374.477	184.66
374.688	-32.43
374.898	-9.9
375.109	29.01
375.319	-18.09
375.53	162.13
375.74	53.59
375.951	10.58
376.161	131.41
376.372	92.5
376.582	26.96
376.793	80.21
377.003	-52.91
377.214	-3.75
377.424	74.07
377.635	-13.99
377.845	-9.9
378.055	184.66
378.266	-69.29
378.476	72.02
378.686	-18.09
378.897	22.87
379.107	141.65
379.317	94.55
379.528	-11.95
379.738	129.36
379.948	-36.52
380.158	47.44
380.369	41.3
380.579	57.68
380.789	14.68
380.999	67.92
381.21	90.45
381.42	168.27
381.63	37.2
381.84	16.73
382.05	92.5
382.261	80.21
382.471	115.03
382.681	-57
382.891	160.08
383.101	22.87
383.311	-28.33
383.521	-9.9
383.731	43.35
383.941	129.36
384.151	-1.71
384.361	59.73
384.571	43.35
384.781	88.4
384.991	190.8
385.201	229.71
385.411	135.51
385.621	127.32
385.831	88.4
386.041	59.73
386.251	84.31
386.461	18.77
386.671	49.49
386.881	39.25
387.091	94.55
387.301	158.03
387.511	49.49
387.72	115.03
387.93	57.68
388.14	8.53
388.35	59.73
388.56	86.36
388.769	125.27
388.979	-36.52
389.189	-48.81
389.399	72.02
389.609	117.08
389.818	84.31
390.028	24.92
390.238	57.68
390.447	-36.52
390.657	92.5
390.867	59.73
391.076	8.53
391.286	76.12
391.496	4.44
391.705	29.01
391.915	164.18
392.125	160.08
392.334	-9.9
392.544	178.51
392.753	100.69
392.963	51.54
393.172	45.4
393.382	-3.75
393.591	108.88
393.801	59.73
394.01	123.22
394.22	117.08
394.429	24.92
394.639	31.06
394.848	74.07
395.058	72.02
395.267	-65.19
395.477	88.4
395.686	100.69
395.895	213.33
396.105	229.71
396.314	108.88
396.524	29.01
396.733	31.06
396.942	237.91
397.152	92.5
397.361	74.07
397.57	61.78
397.78	63.83
397.989	115.03
398.198	192.85
398.407	55.64
398.617	35.16
398.826	35.16
399.035	-11.95
399.244	82.26
399.453	59.73
399.663	76.12
399.872	88.4
400.081	-77.48
400.29	129.36
400.499	-28.33
400.708	119.12
400.917	39.25
401.127	74.07
401.336	-26.28
401.545	112.98
401.754	155.99
401.963	98.64
402.172	8.53
402.381	-32.43
402.59	29.01
402.799	16.73
403.008	74.07
403.217	6.49
403.426	0.34
403.635	-32.43
403.844	26.96
404.053	20.82
404.262	63.83
404.471	112.98
404.68	-32.43
404.888	18.77
405.097	-75.43
405.306	33.11
405.515	84.31
405.724	-11.95
405.933	84.31
406.142	92.5
406.35	53.59
406.559	41.3
406.768	59.73
406.977	147.8
407.185	74.07
407.394	96.6
407.603	-73.39
407.812	49.49
408.02	123.22
408.229	88.4
408.438	84.31
408.646	-40.62
408.855	12.63
409.064	61.78
409.272	20.82
409.481	108.88
409.69	-5.8
409.898	-26.28
410.107	-3.75
410.315	76.12
410.524	-1.71
410.733	20.82
410.941	-1.71
411.15	-36.52
411.358	178.51
411.567	133.46
411.775	2.39
411.984	108.88
412.192	90.45
412.401	-7.85
412.609	139.6
412.818	141.65
413.026	108.88
413.234	-46.76
413.443	22.87
413.651	-1.71
413.86	12.63
414.068	84.31
414.276	149.84
414.485	8.53
414.693	98.64
414.901	166.23
415.11	33.11
415.318	59.73
415.526	26.96
415.734	78.16
415.943	-5.8
416.151	164.18
416.359	8.53
416.567	35.16
416.776	67.92
416.984	112.98
417.192	213.33
417.4	-30.38
417.608	-28.33
417.817	-16.04
418.025	104.79
418.233	135.51
418.441	-108.2
418.649	-20.14
418.857	108.88
419.065	123.22
419.273	-26.28
419.481	57.68
419.689	22.87
419.897	69.97
420.105	6.49
420.313	104.79
420.521	121.17
420.729	129.36
420.937	-1.71
421.145	-1.71
421.353	78.16
421.561	147.8
421.769	24.92
421.977	-1.71
422.185	94.55
422.393	-1.71
422.601	131.41
422.809	65.88
423.017	106.84
423.224	131.41
423.432	170.32
423.64	-5.8
423.848	110.93
424.056	-24.23
424.263	141.65
424.471	47.44
424.679	119.12
424.887	-30.38
425.094	174.42
425.302	104.79
425.51	10.58
425.718	63.83
425.925	67.92
426.133	-73.39
426.341	160.08
426.548	43.35
426.756	37.2
426.964	88.4
427.171	24.92
427.379	88.4
427.586	82.26
427.794	129.36
428.001	164.18
428.209	47.44
428.417	221.52
428.624	76.12
428.832	145.75
429.039	102.74
429.247	6.49
429.454	106.84
429.662	213.33
429.869	129.36
430.076	123.22
430.284	125.27
430.491	248.15
430.699	176.47
430.906	186.71
431.114	112.98
431.321	184.66
431.528	67.92
431.736	57.68
431.943	112.98
432.15	121.17
432.358	196.95
432.565	198.99
432.772	-1.71
432.979	182.61
433.187	78.16
433.394	151.89
433.601	47.44
433.808	221.52
434.016	178.51
434.223	188.75
434.43	198.99
434.637	235.86
434.844	239.95
435.052	168.27
435.259	207.19
435.466	297.3
435.673	233.81
435.88	274.77
436.087	299.34
436.294	293.2
436.501	221.52
436.708	266.58
436.915	293.2
437.122	334.16
437.329	205.14
437.537	311.63
437.743	330.06
437.95	414.03
438.157	229.71
438.364	268.63
438.571	334.16
438.778	399.7
438.985	393.55
439.192	391.5
439.399	360.78
439.606	389.46
439.813	467.28
440.02	502.09
440.227	518.48
440.433	459.09
440.64	416.08
440.847	471.37
441.054	524.62
441.261	645.45
441.467	516.43
441.674	536.91
441.881	612.68
442.088	551.24
442.294	670.03
442.501	682.31
442.708	758.09
442.914	647.5
443.121	768.33
443.328	719.18
443.534	819.53
443.741	749.9
443.948	762.19
444.154	915.78
444.361	1126.72
444.568	807.24
444.774	964.93
444.981	831.82
445.187	1106.24
445.394	1055.05
445.6	985.41
445.807	1071.43
446.013	1116.48
446.22	1059.14
446.426	1190.21
446.633	1249.6
446.839	1425.73
447.046	1327.43
447.252	1401.15
447.459	1458.5
447.665	1401.15
447.871	1626.43
448.078	1573.18
448.284	1704.25
448.491	1782.07
448.697	1794.36
448.903	1843.51
449.11	1853.75
449.316	1907
449.522	2101.56
449.728	2103.61
449.935	2294.07
450.141	2093.37
450.347	2453.81
450.553	2298.16
450.76	2464.05
450.966	2478.38
451.172	2601.26
451.378	2672.94
451.584	2804.01
451.791	3029.29
451.997	3017
452.203	2980.14
452.409	3236.13
452.615	3438.88
452.821	3324.19
453.027	3395.87
453.233	3801.37
453.44	3608.86
453.646	3787.04
453.852	3881.24
454.058	4010.26
454.264	4358.42
454.47	4503.82
454.676	4581.65
454.882	4946.19
455.088	4794.64
455.294	4907.27
455.5	5466.37
455.705	5615.87
455.911	5679.36
456.117	5880.06
456.323	5955.83
456.529	5972.22
456.735	6678.77
456.941	6758.64
457.147	6697.2
457.352	7260.39
457.558	7284.97
457.764	7866.59
457.97	8073.43
458.176	8235.22
458.381	8943.82
458.587	9046.22
458.793	9365.7
458.999	9361.61
459.204	10447.03
459.41	10772.66
459.616	10571.96
459.821	11333.8
460.027	11706.53
460.233	12460.18
460.438	12329.11
460.644	13195.4
460.85	13400.2
461.055	13809.79
461.261	14350.46
461.466	13936.77
461.672	14397.56
461.878	15886.43
462.083	16001.12
462.289	16167.01
462.494	16871.51
462.7	16910.42
462.905	17254.48
463.111	18776.12
463.316	19664.94
463.522	19925.03
463.727	20774.94
463.932	21366.8
464.138	22032.39
464.343	22982.65
464.549	23441.39
464.754	24692.7
464.959	25180.12
465.165	26120.13
465.37	25692.11
465.575	25503.7
465.781	27375.54
465.986	28555.17
466.191	27895.72
466.397	28137.38
466.602	27522.99
466.807	29376.41
467.012	29317.01
467.218	30154.63
467.423	30029.71
467.628	30896
467.833	32954.21
468.038	32010.09
468.244	31111.03
468.449	32925.53
468.654	32573.28
468.859	32331.62
469.064	32374.63
469.269	31471.48
469.474	31844.21
469.679	32331.62
469.885	31842.16
470.09	32337.77
470.295	32182.12
470.5	31584.12
470.705	31790.96
470.91	31238.01
471.115	31033.21
471.32	31328.12
471.525	31012.73
471.73	30044.04
471.935	30035.85
472.139	28739.49
472.344	28678.05
472.549	28587.94
472.754	28157.86
472.959	27531.19
473.164	26611.65
473.369	26326.98
473.574	27248.57
473.778	26349.51
473.983	26167.24
474.188	25270.23
474.393	24461.28
474.598	24354.79
474.802	23844.84
475.007	23330.8
475.212	23175.16
475.417	22241.28
475.621	22124.55
475.826	22016.01
476.031	21266.45
476.235	20959.25
476.44	21119
476.645	20611.1
476.849	20437.02
477.054	19875.88
477.259	19314.73
477.463	19339.31
477.668	18827.32
477.872	18835.51
478.077	18534.46
478.282	17834.05
478.486	17838.15
478.691	17399.88
478.895	17270.86
479.1	17125.46
479.304	17348.68
479.509	16439.39
479.713	16777.3
479.918	16418.91
480.122	16044.13
480.326	16158.81
480.531	16162.91
480.735	16078.94
480.94	15716.45
481.144	16101.47
481.348	15439.98
481.553	15462.51
481.757	14856.31
481.961	15329.39
482.166	15073.39
482.37	15143.02
482.574	14485.62
482.778	14700.66
482.983	14901.36
483.187	14844.02
483.391	14600.31
483.595	14157.95
483.8	14168.19
484.004	14213.24
484.208	13947.01
484.412	13578.37
484.616	13963.39
484.821	13627.53
485.025	13330.57
485.229	13326.47
485.433	13021.33
485.637	12988.56
485.841	12945.55
486.045	12605.59
486.249	12425.37
486.453	12286.11
486.657	11903.14
486.861	11917.47
487.065	11604.13
487.269	11524.26
487.473	11178.15
487.677	11358.38
487.881	11251.88
488.085	10805.42
488.289	10832.05
488.493	10455.22
488.697	10455.22
488.901	10158.27
489.105	10019
489.309	9754.82
489.512	9664.71
489.716	9433.29
489.92	9220.3
490.124	9185.48
490.328	9189.58
490.531	8882.38
490.735	8763.6
490.939	8601.81
491.143	8405.21
491.346	8263.9
491.55	8372.44
491.754	7899.36
491.958	7899.36
492.161	7696.61
492.365	7618.79
492.569	7551.2
492.772	7430.37
492.976	7575.78
493.18	7254.25
493.383	7342.31
493.587	7026.92
493.79	7221.48
493.994	6912.24
494.197	6746.35
494.401	6809.84
494.605	6609.14
494.808	6744.3
495.012	6684.91
495.215	6764.78
495.419	6701.3
495.622	6459.63
495.825	6433.01
496.029	6357.24
496.232	6461.68
496.436	6293.75
496.639	6596.85
496.843	6283.51
497.046	6435.06
497.249	6473.97
497.453	6297.85
497.656	6226.17
497.859	6193.4
498.063	6224.12
498.266	6486.26
498.469	6232.31
498.673	6394.1
498.876	6369.52
499.079	6510.83
499.282	6125.82
499.485	6783.21
499.689	6543.6
499.892	6537.46
500.095	6514.93
500.298	6764.78
500.501	6349.04
500.705	6734.06
500.908	6830.32
501.111	6756.59
501.314	6912.24
501.517	7078.12
501.72	6934.76
501.923	6891.76
502.126	7168.23
502.329	7346.41
502.532	7311.59
502.735	7405.8
502.938	7485.67
503.141	7444.71
503.344	7635.17
503.547	7686.37
503.75	7500
503.953	8061.15
504.156	8020.19
504.359	7901.4
504.562	7913.69
504.765	8374.49
504.968	8571.09
505.17	8569.04
505.373	8863.95
505.576	8976.59
505.779	8925.39
505.982	8913.1
506.185	9246.92
506.387	9232.58
506.59	9539.78
506.793	9697.47
506.996	9836.74
507.198	10234.04
507.401	10303.67
507.604	10408.12
507.807	10803.38
508.009	10987.69
508.212	11040.94
508.415	11133.1
508.617	11567.27
508.82	11626.66
509.022	11761.83
509.225	12282.01
509.428	12501.14
509.63	12961.94
509.833	12796.05
510.035	13387.91
510.238	13303.95
510.44	13699.2
510.643	14286.97
510.845	14837.87
511.048	14639.22
511.25	15102.06
511.453	15284.33
511.655	16089.18
511.858	16040.03
512.06	16449.63
512.262	16918.61
512.465	17014.87
512.667	17348.68
512.87	17952.84
513.072	18237.5
513.274	18729.02
513.477	18864.18
513.679	19578.92
513.881	19892.26
514.084	20275.23
514.286	20576.28
514.488	21149.71
514.69	22005.77
514.893	22247.43
515.095	22388.74
515.297	23068.66
515.499	23543.79
515.701	23975.91
515.904	24805.34
516.106	25298.9
516.308	25567.18
516.51	26167.24
516.712	26410.95
516.914	27195.32
517.116	27549.62
517.318	27740.08
517.52	28733.34
517.722	29061.02
517.925	29849.49
518.127	30150.54
518.329	30859.13
518.531	30959.48
518.733	31635.31
518.935	32321.38
519.136	32767.84
519.338	33388.38
519.54	34086.73
519.742	34355.02
519.944	35118.91
520.146	35510.07
520.348	36099.89
520.55	36202.28
520.752	36222.76
520.954	37406.49
521.155	37252.89
521.357	38197.01
521.559	38723.33
521.761	39278.33
521.963	39491.32
522.164	39825.14
522.366	40101.62
522.568	40468.2
522.77	40750.82
522.971	41477.85
523.173	41068.26
523.375	41502.43
523.576	41535.2
523.778	41690.84
523.98	42405.58
524.181	42462.93
524.383	42458.83
524.584	42835.66
524.786	42962.63
524.988	42587.85
525.189	43355.84
525.391	43294.4
525.592	43259.59
525.794	43579.07
525.995	42911.43
526.197	43538.11
526.398	43337.41
526.6	43169.47
526.801	43015.88
527.003	43042.5
527.204	42880.71
527.406	43095.75
527.607	42710.73
527.808	42919.62
528.01	41834.2
528.211	41959.13
528.412	42464.97
528.614	41707.22
528.815	41348.83
529.016	41316.06
529.218	40648.43
529.419	40654.57
529.62	39937.78
529.822	39603.96
530.023	39532.28
530.224	39241.47
530.425	38807.3
530.626	37918.48
530.828	37451.55
531.029	37990.16
531.23	37201.69
531.431	36632.36
531.632	36552.49
531.833	36085.55
532.035	36022.06
532.236	35184.44
532.437	35133.25
532.638	34152.27
532.839	34066.25
533.04	33371.99
533.241	33091.42
533.442	33175.39
533.643	32186.22
533.844	31686.51
534.045	31663.99
534.246	30812.03
534.447	30654.34
534.648	30289.8
534.849	29978.51
535.05	29425.56
535.251	29142.94
535.451	28379.04
535.652	28551.07
535.853	27695.02
536.054	27568.05
536.255	27424.69
536.456	26613.7
536.657	26793.92
536.857	26427.33
537.058	25421.78
537.259	25585.61
537.46	25348.05
537.66	24678.36
537.861	24242.15
538.062	24053.73
538.263	23625.71
538.463	23384.05
538.664	23154.68
538.865	22790.14
539.065	23064.57
539.266	22181.89
539.466	22341.63
539.667	21690.38
539.868	21876.74
540.068	21344.27
540.269	20975.64
540.469	20840.47
540.67	20619.29
540.87	20412.45
541.071	20099.11
541.271	20060.2
541.472	19793.96
541.672	19306.54
541.873	19253.3
542.073	18780.21
542.274	18855.99
542.474	18690.1
542.675	18405.44
542.875	18358.33
543.075	17768.52
543.276	17825.86
543.476	17668.17
543.676	17494.09
543.877	17297.49
544.077	17033.3
544.277	16994.39
544.478	16496.73
544.678	16451.67
544.878	16179.29
545.078	16140.38
545.279	15587.43
545.479	15329.39
545.679	15573.1
545.879	15237.23
546.079	15231.08
546.28	14864.5
546.48	14829.68
546.68	14798.96
546.88	14375.03
547.08	14258.3
547.28	14033.02
547.48	14000.26
547.68	14133.37
547.88	13502.6
548.081	13516.94
548.281	13219.98
548.481	13101.2
548.681	13025.42
548.881	12769.43
549.081	12456.09
549.28	12226.71
549.48	12474.52
549.68	12351.64
549.88	11989.15
550.08	11649.19
550.28	11808.93
550.48	11755.68
550.68	11395.24
550.88	11051.18
551.08	10965.17
551.279	10881.2
551.479	10404.02
551.679	10717.36
551.879	10404.02
552.079	10231.99
552.278	10096.83
552.478	10145.98
552.678	9955.52
552.878	9722.05
553.077	9482.44
553.277	9306.31
553.477	9283.78
553.676	9105.61
553.876	9081.03
554.076	8716.5
554.275	8825.04
554.475	8464.6
554.674	8474.84
554.874	8337.62
555.074	8100.06
555.273	8028.38
555.473	8061.15
555.672	7751.9
555.872	7700.7
556.071	7606.5
556.271	7319.78
556.47	7186.66
556.67	7100.65
556.869	7010.54
557.068	6822.13
557.268	6947.05
557.467	6717.68
557.667	6650.1
557.866	6621.42
558.065	6203.64
558.265	6211.83
558.464	6152.44
558.663	6177.02
558.863	5951.74
559.062	6058.23
559.261	5763.33
559.461	5802.24
559.66	5589.25
559.859	5611.78
560.058	5216.52
560.258	5288.2
560.457	5323.01
560.656	5423.36
560.855	5026.06
561.054	5157.13
561.253	5103.88
561.453	4905.23
561.652	4776.2
561.851	4862.22
562.05	4573.46
562.249	4530.45
562.448	4557.07
562.647	4331.8
562.846	4376.85
563.045	4348.18
563.244	4237.59
563.443	4237.59
563.642	4100.37
563.841	4098.33
564.04	3938.59
564.239	3981.59
564.438	4018.46
564.637	3789.08
564.836	3809.56
565.035	3682.59
565.234	3649.82
565.432	3604.77
565.631	3754.27
565.83	3551.52
566.029	3465.5
566.228	3410.21
566.427	3451.17
566.625	3207.46
566.824	3305.76
567.023	3207.46
567.222	3152.17
567.42	3152.17
567.619	3068.2
567.818	3006.76
568.016	3150.12
568.215	2937.13
568.414	2996.52
568.612	2982.18
568.811	2754.86
569.01	2863.4
569.208	2908.46
569.407	2683.18
569.605	2670.89
569.804	2566.45
570.002	2582.83
570.201	2531.63
570.4	2492.72
570.598	2416.94
570.797	2548.01
570.995	2441.52
571.193	2484.53
571.392	2367.79
571.59	2203.96
571.789	2347.31
571.987	2267.44
572.186	2402.61
572.384	2095.41
572.582	2126.13
572.781	2206
572.979	1970.49
573.177	2087.22
573.376	2042.17
573.574	1972.54
573.772	1890.62
573.971	1941.82
574.169	1863.99
574.367	1859.9
574.565	1747.26
574.763	1845.56
574.962	1798.46
575.16	1718.59
575.358	1728.83
575.556	1722.68
575.754	1675.58
575.952	1659.2
576.151	1706.3
576.349	1632.57
576.547	1538.37
576.745	1583.42
576.943	1575.23
577.141	1454.4
577.339	1388.86
577.537	1454.4
577.735	1564.99
577.933	1407.3
578.131	1300.8
578.329	1468.73
578.527	1380.67
578.725	1331.52
578.923	1255.75
579.121	1276.23
579.319	1093.96
579.516	1208.64
579.714	1397.06
579.912	1202.5
580.11	1061.19
580.308	1265.99
580.506	1167.68
580.704	1020.23
580.901	1165.64
581.099	1171.78
581.297	1032.52
581.495	1098.05
581.692	1032.52
581.89	1261.89
582.088	1167.68
582.285	1063.24
582.483	940.36
582.681	938.31
582.878	876.87
583.076	919.88
583.274	944.45
583.471	1032.52
583.669	870.73
583.866	817.48
584.064	846.15
584.262	827.72
584.459	852.3
584.657	813.38
584.854	842.06
585.052	905.54
585.249	870.73
585.447	848.2
585.644	698.7
585.841	835.91
586.039	837.96
586.236	864.58
586.434	698.7
586.631	680.27
586.828	690.51
587.026	670.03
587.223	676.17
587.42	659.79
587.618	700.75
587.815	692.55
588.012	704.84
588.21	653.64
588.407	719.18
588.604	659.79
588.801	586.06
588.999	616.78
589.196	665.93
589.393	602.44
589.59	612.68
589.787	631.12
589.984	653.64
590.182	581.96
590.379	528.72
590.576	577.87
590.773	649.55
590.97	616.78
591.167	639.31
591.364	596.3
591.561	510.29
591.758	592.2
591.955	653.64
592.152	485.71
592.349	481.61
592.546	516.43
592.743	534.86
592.94	530.77
593.137	561.48
593.334	563.53
593.531	604.49
593.727	753.99
593.924	592.2
594.121	657.74
594.318	610.64
594.515	610.64
594.712	639.31
594.908	610.64
595.105	512.33
595.302	627.02
595.499	639.31
595.696	686.41
595.892	577.87
596.089	721.23
596.286	594.25
596.482	805.19
596.679	688.46
596.876	631.12
597.072	807.24
597.269	721.23
597.466	741.71
597.662	780.62
597.859	784.71
598.055	825.67
598.252	944.45
598.448	868.68
598.645	1016.13
598.841	923.98
599.038	1112.39
599.234	1134.92
599.431	1050.95
599.627	1018.18
599.824	1169.73
600.02	1151.3
600.217	1259.84
600.413	1288.51
600.609	1323.33
600.806	1577.28
601.002	1438.02
601.198	1413.44
601.395	1476.93
601.591	1575.23
601.787	1616.19
601.984	1718.59
602.18	1845.56
602.376	1689.92
602.572	1907
602.769	2038.07
602.965	2130.23
603.161	2038.07
603.357	2079.03
603.553	2341.17
603.75	2203.96
603.946	2418.99
604.142	2294.07
604.338	2728.24
604.534	2468.14
604.73	2722.09
604.926	2765.1
605.122	2980.14
605.318	2943.27
605.514	3189.03
605.71	3068.2
605.906	3213.6
606.102	3338.53
606.298	3586.33
606.494	3748.12
606.69	3793.18
606.886	3744.03
607.082	3969.3
607.278	4022.55
607.474	4249.88
607.67	4174.1
607.866	4208.92
608.062	4460.82
608.257	4589.84
608.453	4598.03
608.649	4866.32
608.845	4854.03
609.041	4927.75
609.236	5316.87
609.432	5366.02
609.628	5562.62
609.824	5699.84
610.019	5662.97
610.215	5910.78
610.411	6150.39
610.606	6484.21
610.802	6525.17
610.998	6568.18
611.193	6988.01
611.389	6848.75
611.584	7203.05
611.78	7368.93
611.976	7522.53
612.171	7973.08
612.367	7971.04
612.562	8038.62
612.758	8306.9
612.953	8382.68
613.149	8814.8
613.344	8878.29
613.539	9306.31
613.735	9568.45
613.93	9760.96
614.126	9896.13
614.321	10236.09
614.517	10604.72
614.712	10844.34
614.907	11079.85
615.103	11155.63
615.298	11296.94
615.493	11800.74
615.688	11862.18
615.884	12695.7
616.079	12658.84
616.274	13392.01
616.47	13351.05
616.665	13731.97
616.86	13852.8
617.055	14239.87
617.25	14567.54
617.445	15206.51
617.641	15497.32
617.836	15943.78
618.031	16080.99
618.226	16699.48
618.421	17215.57
618.616	17723.46
618.811	17619.02
619.006	18423.87
619.201	18460.73
619.396	18821.17
619.591	19089.46
619.786	19744.81
619.981	20211.74
620.176	21155.86
620.371	21233.68
620.566	21944.33
620.761	22110.21
620.956	22632.44
621.151	22677.5
621.346	23511.02
621.541	23402.48
621.735	24565.73
621.93	24401.89
622.125	25096.15
622.32	25262.04
622.515	26025.93
622.709	26513.34
622.904	27260.85
623.099	27244.47
623.294	28028.84
623.488	28348.32
623.683	29366.17
623.878	29036.44
624.072	29536.15
624.267	30328.71
624.462	30891.9
624.656	30754.69
624.851	31553.4
625.046	31897.45
625.24	32395.11
625.435	32700.26
625.629	33527.64
625.824	33865.55
626.018	34203.47
626.213	33898.32
626.407	35061.57
626.602	35428.15
626.796	35755.83
626.991	36060.98
627.185	36536.1
627.38	36812.58
627.574	36437.8
627.768	36890.4
627.963	37062.43
628.157	36947.75
628.352	37324.57
628.546	37107.49
628.74	37529.37
628.935	37070.62
629.129	37629.72
629.323	37381.91
629.517	36960.03
629.712	37179.17
629.906	36527.91
630.1	35925.81
630.294	36120.37
630.489	35467.06
630.683	35440.44
630.877	34850.63
631.071	33990.48
631.265	33515.35
631.459	33042.27
631.653	32163.69
631.848	31864.69
632.042	30746.5
632.236	30326.66
632.43	29192.09
632.624	28626.85
632.818	27596.72
633.012	26662.85
633.206	26048.46
633.4	25626.57
633.594	24504.29
633.788	23762.92
633.982	22908.92
634.176	22239.23
634.369	21119
634.563	20693.02
634.757	19585.07
634.951	19173.42
635.145	18104.39
635.339	17741.89
635.533	16654.42
635.726	16384.09
635.92	15370.35
636.114	14911.6
636.308	14393.47
636.501	13561.99
636.695	13232.27
636.889	12443.8
637.083	12257.43
637.276	11425.96
637.47	11075.76
637.664	10496.18
637.857	10176.7
638.051	9928.89
638.244	9734.34
638.438	9144.52
638.632	8902.86
638.825	8257.75
639.019	8081.63
639.212	7739.62
639.406	7395.56
639.599	7135.46
639.793	7098.6
639.986	6676.72
640.18	6539.51
640.373	6000.89
640.567	5904.64
640.76	5714.17
640.954	5456.13
641.147	4976.91
641.34	4937.99
641.534	4987.15
641.727	4782.35
641.92	4409.62
642.114	4299.03
642.307	4124.95
642.5	3834.14
642.694	3762.46
642.887	3606.81
643.08	3688.73
643.273	3508.51
643.467	3223.84
643.66	3012.9
643.853	3029.29
644.046	2969.9
644.239	2795.82
644.432	2787.63
644.626	2486.58
644.819	2533.68
645.012	2363.7
645.205	2238.77
645.398	2222.39
645.591	2136.37
645.784	2089.27
645.977	1978.68
646.17	2076.98
646.363	1929.53
646.556	1876.28
646.749	1644.86
646.942	1626.43
647.135	1546.56
647.328	1503.55
647.521	1454.4
647.714	1360.19
647.907	1458.5
648.099	1229.12
648.292	1278.27
648.485	1175.88
648.678	1147.2
648.871	1126.72
649.064	1112.39
649.256	921.93
649.449	915.78
649.642	858.44
649.835	764.23
650.027	893.26
650.22	928.07
650.413	833.86
650.605	858.44
650.798	678.22
650.991	766.28
651.183	710.99
651.376	672.08
651.568	702.79
651.761	641.36
651.954	571.72
652.146	532.81
652.339	710.99
652.531	649.55
652.724	479.57
652.916	487.76
653.109	348.5
653.301	631.12
653.494	547.15
653.686	479.57
653.879	516.43
654.071	459.09
654.263	434.51
654.456	409.94
654.648	524.62
654.84	467.28
655.033	352.59
655.225	422.22
655.417	254.29
655.61	465.23
655.802	475.47
655.994	440.65
656.186	270.67
656.379	360.78
656.571	262.48
656.763	274.77
656.955	321.87
657.148	358.74
657.34	414.03
657.532	297.3
657.724	272.72
657.916	311.63
658.108	313.68
658.3	305.49
658.492	293.2
658.684	217.43
658.876	237.91
659.068	188.75
659.26	84.31
659.452	151.89
659.644	225.62
659.836	309.58
660.028	225.62
660.22	244.05
660.412	213.33
660.604	217.43
660.796	186.71
660.988	287.06
661.18	229.71
661.372	293.2
661.563	110.93
661.755	162.13
661.947	76.12
662.139	137.56
662.331	276.82
662.522	227.67
662.714	186.71
662.906	102.74
663.097	164.18
663.289	78.16
663.481	45.4
663.673	147.8
663.864	168.27
664.056	233.81
664.247	90.45
664.439	207.19
664.631	176.47
664.822	129.36
665.014	131.41
665.205	135.51
665.397	217.43
665.588	213.33
665.78	172.37
665.971	233.81
666.163	100.69
666.354	239.95
666.546	80.21
666.737	98.64
666.929	115.03
667.12	110.93
667.311	205.14
667.503	24.92
667.694	190.8
667.885	166.23
668.077	211.28
668.268	10.58
668.459	4.44
668.651	149.84
668.842	196.95
669.033	57.68
669.224	59.73
669.416	194.9
669.607	72.02
669.798	78.16
669.989	180.56
670.18	104.79
670.371	141.65
670.563	20.82
670.754	153.94
670.945	147.8
671.136	168.27
671.327	49.49
671.518	108.88
671.709	258.39
671.9	235.86
672.091	162.13
672.282	149.84
672.473	65.88
672.664	65.88
672.855	125.27
673.046	223.57
673.237	192.85
673.428	155.99
673.619	104.79
673.809	69.97
674	221.52
674.191	102.74
674.382	100.69
674.573	108.88
674.764	158.03
674.954	194.9
675.145	26.96
675.336	98.64
675.527	104.79
675.717	102.74
675.908	41.3
676.099	51.54
676.289	164.18
676.48	24.92
676.671	149.84
676.861	37.2
677.052	164.18
677.243	143.7
677.433	45.4
677.624	160.08
677.814	149.84
678.005	108.88
678.195	225.62
678.386	63.83
678.576	96.6
678.767	31.06
678.957	188.75
679.148	176.47
679.338	172.37
679.529	186.71
679.719	125.27
679.909	196.95
680.1	92.5
680.29	203.09
680.481	76.12
680.671	244.05
680.861	190.8
681.052	61.78
681.242	178.51
681.432	198.99
681.622	162.13
681.813	-9.9
682.003	162.13
682.193	80.21
682.383	143.7
682.573	137.56
682.764	102.74
682.954	149.84
683.144	237.91
683.334	98.64
683.524	147.8
683.714	135.51
683.904	211.28
684.094	209.23
684.284	145.75
684.474	217.43
684.664	186.71
684.854	115.03
685.044	184.66
685.234	162.13
685.424	147.8
685.614	98.64
685.804	342.35
685.994	205.14
686.184	205.14
686.374	176.47
686.564	235.86
686.753	194.9
686.943	178.51
687.133	102.74
687.323	166.23
687.513	207.19
687.702	168.27
687.892	129.36
688.082	135.51
688.272	186.71
688.461	98.64
688.651	201.04
688.841	164.18
689.03	258.39
689.22	166.23
689.41	180.56
689.599	203.09
689.789	98.64
689.979	350.54
690.168	164.18
690.358	242
690.547	213.33
690.737	176.47
690.926	203.09
691.116	196.95
691.305	272.72
691.495	256.34
691.684	176.47
691.874	125.27
692.063	168.27
692.252	254.29
692.442	287.06
692.631	102.74
692.82	186.71
693.01	207.19
693.199	123.22
693.388	164.18
693.578	69.97
693.767	293.2
693.956	149.84
694.146	119.12
694.335	301.39
694.524	88.4
694.713	280.91
694.902	151.89
695.092	135.51
695.281	178.51
695.47	211.28
695.659	53.59
695.848	190.8
696.037	141.65
696.226	303.44
696.415	102.74
696.604	237.91
696.793	242
696.982	176.47
697.171	268.63
697.36	149.84
697.549	141.65
697.738	112.98
697.927	162.13
698.116	162.13
698.305	221.52
698.494	180.56
698.683	141.65
698.872	262.48
699.061	176.47
699.25	147.8
699.438	110.93
699.627	123.22
699.816	309.58
700.005	121.17
700.193	76.12
700.382	272.72
700.571	180.56
700.76	125.27
700.948	295.25
701.137	196.95
701.326	203.09
701.514	147.8
701.703	209.23
701.892	223.57
702.08	375.12
702.269	194.9
702.457	133.46
702.646	24.92
702.834	151.89
703.023	209.23
703.212	192.85
703.4	233.81
703.589	106.84
703.777	133.46
703.965	102.74
704.154	121.17
704.342	76.12
704.531	125.27
704.719	155.99
704.907	221.52
705.096	78.16
705.284	106.84
705.472	133.46
705.661	137.56
705.849	137.56
706.037	172.37
706.226	207.19
706.414	215.38
706.602	55.64
706.79	203.09
706.979	164.18
707.167	121.17
707.355	35.16
707.543	221.52
707.731	168.27
707.919	196.95
708.107	196.95
708.296	203.09
708.484	137.56
708.672	211.28
708.86	141.65
709.048	160.08
709.236	82.26
709.424	239.95
709.612	201.04
709.8	96.6
709.988	223.57
710.176	262.48
710.364	301.39
710.551	162.13
710.739	164.18
710.927	139.6
711.115	201.04
711.303	182.61
711.491	211.28
711.679	104.79
711.866	262.48
712.054	209.23
712.242	207.19
712.43	309.58
712.617	198.99
712.805	252.24
712.993	174.42
713.181	74.07
713.368	119.12
713.556	160.08
713.744	139.6
713.931	274.77
714.119	192.85
714.306	186.71
714.494	178.51
714.682	127.32
714.869	117.08
715.057	133.46
715.244	33.11
715.432	96.6
715.619	127.32
715.807	20.82
715.994	172.37
716.182	80.21
716.369	137.56
716.556	209.23
716.744	41.3
716.931	106.84
717.119	160.08
717.306	155.99
717.493	219.47
717.681	174.42
717.868	162.13
718.055	256.34
718.242	102.74
718.43	229.71
718.617	340.3
718.804	67.92
718.991	217.43
719.179	172.37
719.366	213.33
719.553	162.13
719.74	174.42
719.927	274.77
720.114	252.24
720.301	86.36
720.488	94.55
720.676	145.75
720.863	221.52
721.05	217.43
721.237	297.3
721.424	272.72
721.611	233.81
721.798	119.12
721.985	137.56
722.172	229.71
722.358	112.98
722.545	242
722.732	139.6
722.919	313.68
723.106	260.43
723.293	158.03
723.48	213.33
723.667	121.17
723.853	178.51
724.04	217.43
724.227	266.58
724.414	164.18
724.6	254.29
724.787	321.87
724.974	334.16
725.161	203.09
725.347	102.74
725.534	135.51
725.72	201.04
725.907	264.53
726.094	205.14
726.28	176.47
726.467	184.66
726.653	112.98
726.84	342.35
727.027	239.95
727.213	170.32
727.4	190.8
727.586	196.95
727.773	180.56
727.959	213.33
728.145	170.32
728.332	164.18
728.518	141.65
728.705	270.67
728.891	250.19
729.077	233.81
729.264	170.32
729.45	139.6
729.636	270.67
729.823	139.6
730.009	276.82
730.195	242
730.382	201.04
730.568	178.51
730.754	266.58
730.94	155.99
731.126	285.01
731.313	229.71
731.499	225.62
731.685	207.19
731.871	307.54
732.057	207.19
732.243	258.39
732.429	201.04
732.615	278.87
732.801	213.33
732.987	244.05
733.173	237.91
733.359	135.51
733.545	133.46
733.731	205.14
733.917	385.36
734.103	287.06
734.289	221.52
734.475	78.16
734.661	393.55
734.847	180.56
735.033	178.51
735.219	289.1
735.404	143.7
735.59	223.57
735.776	248.15
735.962	217.43
736.148	229.71
736.333	393.55
736.519	188.75
736.705	207.19
736.89	242
737.076	194.9
737.262	137.56
737.447	225.62
737.633	205.14
737.819	272.72
738.004	219.47
738.19	268.63
738.375	233.81
738.561	303.44
738.747	180.56
738.932	166.23
739.118	348.5
739.303	274.77
739.489	313.68
739.674	201.04
739.859	164.18
740.045	258.39
740.23	262.48
740.416	74.07
740.601	315.73
740.786	207.19
740.972	151.89
741.157	170.32
741.342	188.75
741.528	184.66
741.713	287.06
741.898	162.13
742.084	233.81
742.269	217.43
742.454	229.71
742.639	231.76
742.824	180.56
743.01	280.91
743.195	364.88
743.38	262.48
743.565	164.18
743.75	323.92
743.935	227.67
744.12	270.67
744.305	115.03
744.49	174.42
744.675	172.37
744.86	143.7
745.045	221.52
745.23	225.62
745.415	196.95
745.6	250.19
745.785	184.66
745.97	252.24
746.155	168.27
746.34	162.13
746.525	160.08
746.71	297.3
746.895	106.84
747.079	67.92
747.264	131.41
747.449	192.85
747.634	299.34
747.819	209.23
748.003	244.05
748.188	102.74
748.373	272.72
748.557	293.2
748.742	151.89
748.927	188.75
749.111	80.21
749.296	166.23
749.481	207.19
749.665	176.47
749.85	131.41
750.034	225.62
750.219	100.69
750.404	207.19
750.588	188.75
750.773	147.8
750.957	180.56
751.141	198.99
751.326	190.8
751.51	108.88
751.695	198.99
751.879	192.85
752.064	227.67
752.248	129.36
752.432	164.18
752.617	291.15
752.801	256.34
752.985	143.7
753.17	215.38
753.354	203.09
753.538	178.51
753.722	121.17
753.907	119.12
754.091	137.56
754.275	203.09
754.459	115.03
754.643	143.7
754.828	166.23
755.012	196.95
755.196	155.99
755.38	166.23
755.564	121.17
755.748	117.08
755.932	184.66
756.116	242
756.3	168.27
756.484	129.36
756.668	158.03
756.852	51.54
757.036	108.88
757.22	151.89
757.404	78.16
757.588	24.92
757.772	133.46
757.956	123.22
758.14	246.1
758.323	55.64
758.507	192.85
758.691	115.03
758.875	176.47
759.059	237.91
759.242	119.12
759.426	76.12
759.61	178.51
759.794	110.93
759.977	160.08
760.161	266.58
760.345	117.08
760.528	196.95
760.712	121.17
760.895	86.36
761.079	65.88
761.263	78.16
761.446	53.59
761.63	74.07
761.813	196.95
761.997	12.63
762.18	139.6
762.364	117.08
762.547	-59.05
762.731	37.2
762.914	129.36
763.098	61.78
763.281	65.88
763.464	98.64
763.648	74.07
763.831	129.36
764.015	49.49
764.198	180.56
764.381	96.6
764.564	67.92
764.748	174.42
764.931	86.36
765.114	100.69
765.297	133.46
765.481	22.87
765.664	110.93
765.847	133.46
766.03	209.23
766.213	33.11
766.397	106.84
766.58	53.59
766.763	88.4
766.946	110.93
767.129	78.16
767.312	72.02
767.495	39.25
767.678	69.97
767.861	63.83
768.044	78.16
768.227	78.16
768.41	51.54
768.593	137.56
768.776	117.08
768.959	80.21
769.142	190.8
769.324	86.36
769.507	121.17
769.69	67.92
769.873	119.12
770.056	248.15
770.239	74.07
770.421	92.5
770.604	69.97
770.787	86.36
770.97	61.78
771.152	-13.99
771.335	92.5
771.518	4.44
771.7	155.99
771.883	133.46
772.066	53.59
772.248	131.41
772.431	117.08
772.613	172.37
772.796	57.68
772.978	149.84
773.161	143.7
773.343	-9.9
773.526	29.01
773.708	-93.87
773.891	-28.33
774.073	47.44
774.256	59.73
774.438	162.13
774.621	-13.99
774.803	155.99
774.985	33.11
775.168	110.93
775.35	37.2
775.532	260.43
775.715	22.87
775.897	100.69
776.079	45.4
776.261	65.88
776.444	43.35
776.626	45.4
776.808	31.06
776.99	-18.09
777.173	57.68
777.355	33.11
777.537	55.64
777.719	2.39
777.901	57.68
778.083	-46.76
778.265	-44.71
778.447	121.17
778.629	-9.9
778.811	6.49
778.993	166.23
779.175	135.51
779.357	37.2
779.539	18.77
779.721	61.78
779.903	106.84
780.085	41.3
780.267	74.07
780.449	8.53
780.631	127.32
780.812	190.8
780.994	24.92
781.176	88.4
781.358	88.4
781.54	47.44
781.721	88.4
781.903	72.02
782.085	-26.28
782.267	172.37
782.448	-26.28
782.63	4.44
782.812	125.27
782.993	53.59
783.175	108.88
783.357	72.02
783.538	112.98
783.72	-11.95
783.901	22.87
784.083	10.58
784.264	31.06
784.446	-44.71
784.627	-44.71
784.809	86.36
784.99	26.96
785.172	55.64
785.353	16.73
785.535	84.31
785.716	-65.19
785.897	-11.95
786.079	-1.71
786.26	76.12
786.441	76.12
786.623	-52.91
786.804	-11.95
786.985	14.68
787.167	53.59
787.348	8.53
787.529	59.73
787.71	149.84
787.891	92.5
788.073	14.68
788.254	20.82
788.435	127.32
788.616	14.68
788.797	-30.38
788.978	63.83
789.159	-13.99
789.34	100.69
789.522	53.59
789.703	-30.38
789.884	82.26
790.065	112.98
790.246	147.8
790.427	-42.67
790.607	100.69
790.788	110.93
790.969	-20.14
791.15	37.2
791.331	31.06
791.512	-5.8
791.693	-40.62
791.874	-85.67
792.054	158.03
792.235	59.73
792.416	-28.33
792.597	-61.1
792.778	74.07
792.958	57.68
793.139	49.49
793.32	22.87
793.5	-69.29
793.681	82.26
793.862	117.08
794.042	8.53
794.223	-48.81
794.404	-1.71
794.584	-93.87
794.765	-1.71
794.945	72.02
795.126	69.97
795.306	41.3
795.487	-34.47
795.667	-11.95
795.848	-20.14
796.028	-28.33
796.209	72.02
796.389	108.88
796.57	24.92
796.75	-30.38
796.93	76.12
797.111	-9.9
797.291	-73.39
797.471	29.01
797.652	-11.95
797.832	-28.33
798.012	-20.14
798.192	-42.67
798.373	-85.67
798.553	14.68
798.733	20.82
798.913	-24.23
799.093	18.77
799.274	8.53
799.454	61.78
799.634	51.54
799.814	53.59
799.994	51.54
800.174	92.5
800.354	-32.43
800.534	-130.73
800.714	74.07
800.894	-73.39
801.074	-89.77
801.254	-16.04
801.434	174.42
801.614	-13.99
801.794	-57
801.974	1474.88
802.154	35.16
802.334	69.97
802.514	-52.91
802.693	35.16
802.873	-44.71
803.053	57.68
803.233	61.78
803.413	-13.99
803.592	-110.25
803.772	-44.71
803.952	24.92
804.131	-44.71
804.311	74.07
804.491	78.16
804.67	20.82
804.85	-75.43
805.03	80.21
805.209	94.55
805.389	4.44
805.568	-13.99
805.748	-38.57
805.928	-9.9
806.107	100.69
806.287	20.82
806.466	-30.38
806.646	53.59
806.825	-18.09
807.004	24.92
807.184	63.83
807.363	-3.75
807.543	26.96
807.722	-65.19
807.901	92.5
808.081	-3.75
808.26	-116.39
808.439	-3.75
808.619	100.69
808.798	14.68
808.977	29.01
809.156	47.44
809.336	-34.47
809.515	151.89
809.694	-24.23
809.873	-30.38
810.052	-34.47
810.231	67.92
810.411	98.64
810.59	82.26
810.769	-38.57
810.948	49.49
811.127	-116.39
811.306	-48.81
811.485	-50.86
811.664	115.03
811.843	61.78
812.022	61.78
812.201	-59.05
812.38	20.82
812.559	-65.19
812.737	115.03
812.916	-100.01
813.095	-30.38
813.274	24.92
813.453	33.11
813.632	49.49
813.811	67.92
813.989	-116.39
814.168	39.25
814.347	-73.39
814.526	-42.67
814.704	180.56
814.883	65.88
815.062	-38.57
815.24	-5.8
815.419	-69.29
815.598	14.68
815.776	-206.5
815.955	-34.47
816.133	-110.25
816.312	33.11
816.49	-52.91
816.669	-38.57
816.847	-42.67
817.026	59.73
817.204	20.82
817.383	-46.76
817.561	-102.06
817.74	72.02
817.918	-20.14
818.097	-93.87
818.275	-40.62
818.453	12.63
818.632	65.88
818.81	-34.47
818.988	-36.52
819.167	33.11
819.345	4.44
819.523	-73.39
819.701	67.92
819.879	155.99
820.058	47.44
820.236	16.73
820.414	74.07
820.592	-65.19
820.77	10.58
820.948	-32.43
821.127	16.73
821.305	92.5
821.483	-79.53
821.661	131.41
821.839	-1.71
822.017	-46.76
822.195	-112.3
822.373	92.5
822.551	53.59
822.729	49.49
822.907	-61.1
823.085	-22.19
823.262	-11.95
823.44	-32.43
823.618	55.64
823.796	-77.48
823.974	2.39
824.152	-59.05
824.329	8.53
824.507	-54.95
824.685	-36.52
824.863	0.34
825.04	-3.75
825.218	76.12
825.396	2.39
825.574	0.34
825.751	31.06
825.929	49.49
826.107	-93.87
826.284	47.44
826.462	53.59
826.639	-67.24
826.817	-85.67
826.994	43.35
827.172	-100.01
827.349	176.47
827.527	-32.43
827.704	-34.47
827.882	37.2
828.059	-11.95
828.237	-48.81
828.414	92.5
828.591	-126.63
828.769	37.2
828.946	-79.53
829.124	125.27
829.301	170.32
829.478	-50.86
829.655	72.02
829.833	84.31
830.01	-106.15
830.187	-13.99
830.364	-24.23
830.542	22.87
830.719	69.97
830.896	33.11
831.073	16.73
831.25	-18.09
831.427	69.97
831.604	-26.28
831.782	-77.48
831.959	-9.9
832.136	72.02
832.313	-67.24
832.49	2.39
832.667	37.2
832.844	-3.75
833.021	45.4
833.198	63.83
833.374	-7.85
833.551	35.16
833.728	-73.39
833.905	-30.38
834.082	-108.2
834.259	-40.62
834.436	76.12
834.612	-57
834.789	49.49
834.966	-28.33
835.143	29.01
835.319	-83.63
835.496	133.46
835.673	45.4
835.85	43.35
836.026	108.88
836.203	-16.04
836.38	-9.9
836.556	-11.95
836.733	-77.48
836.909	98.64
837.086	33.11
837.262	-106.15
837.439	-5.8
837.616	-93.87
837.792	29.01
837.968	-24.23
838.145	-93.87
838.321	6.49
838.498	-5.8
838.674	6.49
838.851	8.53
839.027	0.34
839.203	-20.14
839.38	49.49
839.556	-40.62
839.732	123.22
839.909	-13.99
840.085	6.49
840.261	-106.15
840.437	-34.47
840.614	43.35
840.79	-32.43
840.966	61.78
841.142	29.01
841.318	-73.39
841.494	29.01
841.671	55.64
841.847	-50.86
842.023	-100.01
842.199	110.93
842.375	100.69
842.551	-114.34
842.727	-100.01
842.903	65.88
843.079	-46.76
843.255	26.96
843.431	-5.8
843.607	90.45
843.783	-124.58
843.959	149.84
844.134	-57
844.31	16.73
844.486	-61.1
844.662	-69.29
844.838	8.53
845.013	67.92
845.189	49.49
845.365	55.64
845.541	-91.82
845.716	18.77
845.892	61.78
846.068	-34.47
846.244	-46.76
846.419	57.68
846.595	-52.91
846.77	-93.87
846.946	45.4
847.122	0.34
847.297	-48.81
847.473	106.84
847.648	-126.63
847.824	-1.71
847.999	-138.92
848.175	-75.43
848.35	0.34
848.526	55.64
848.701	94.55
848.876	115.03
849.052	94.55
849.227	-83.63
849.403	-61.1
849.578	35.16
849.753	-28.33
849.929	-73.39
850.104	-120.49
850.279	39.25
850.454	-34.47
850.63	98.64
850.805	4.44
850.98	14.68
851.155	10.58
851.33	65.88
851.505	-100.01
851.681	82.26
851.856	-42.67
852.031	12.63
852.206	39.25
852.381	-26.28
852.556	-73.39
852.731	67.92
852.906	49.49
853.081	-79.53
853.256	92.5
853.431	-73.39
853.606	-59.05
853.781	-67.24
853.956	-136.87
854.131	-5.8
854.305	-77.48
854.48	2.39
854.655	-36.52
854.83	-46.76
855.005	-83.63
855.18	14.68
855.354	-16.04
855.529	8.53
855.704	-7.85
855.879	35.16
856.053	-71.34
856.228	-16.04
856.403	-32.43
856.577	26.96
856.752	-93.87
856.926	-54.95
857.101	-16.04
857.276	-130.73
857.45	-20.14
857.625	63.83
857.799	39.25
857.974	-52.91
858.148	-110.25
858.323	33.11
858.497	4.44
858.672	-100.01
858.846	-59.05
859.02	106.84
859.195	-46.76
859.369	-42.67
859.543	-24.23
859.718	31.06
859.892	-18.09
860.066	-9.9
860.241	0.34
860.415	6.49
860.589	-54.95
860.763	12.63
860.938	-48.81
861.112	-5.8
861.286	-59.05
861.46	45.4
861.634	-67.24
861.808	96.6
861.982	-34.47
862.157	-42.67
862.331	-63.15
862.505	-91.82
862.679	-67.24
862.853	-11.95
863.027	-38.57
863.201	74.07
863.375	-126.63
863.549	2.39
863.722	57.68
863.896	41.3
864.07	-22.19
864.244	31.06
864.418	55.64
864.592	-3.75
864.766	-11.95
864.939	29.01
865.113	-32.43
865.287	78.16
865.461	-38.57
865.634	-38.57
865.808	-22.19
865.982	8.53
866.156	-48.81
866.329	-93.87
866.503	-36.52
866.676	26.96
866.85	24.92
867.024	-20.14
867.197	20.82
867.371	33.11
867.544	-22.19
867.718	-85.67
867.891	88.4
868.065	-28.33
868.238	-13.99
868.412	22.87
868.585	-16.04
868.759	-85.67
868.932	59.73
869.105	-120.49
869.279	61.78
869.452	-52.91
869.625	20.82
869.799	-83.63
869.972	-102.06
870.145	24.92
870.319	16.73
870.492	-13.99
870.665	24.92
870.838	-61.1
871.011	-128.68
871.185	8.53
871.358	-50.86
871.531	2.39
871.704	-5.8
871.877	22.87
872.05	-1.71
872.223	-91.82
872.396	57.68
872.569	51.54
872.742	-118.44
872.915	16.73
873.088	0.34
873.261	-30.38
873.434	41.3
873.607	53.59
873.78	74.07
873.953	-114.34
874.126	61.78
874.299	18.77
874.471	-161.45
874.644	-87.72
874.817	31.06
874.99	121.17
875.163	-54.95
875.335	-9.9
875.508	-52.91
875.681	125.27
875.853	-91.82
876.026	57.68
876.199	-9.9
876.371	10.58
876.544	24.92
876.717	-13.99
876.889	-7.85
877.062	78.16
877.234	-97.96
877.407	-50.86
877.579	65.88
877.752	47.44
877.924	92.5
878.097	-40.62
878.269	53.59
878.442	-11.95
878.614	-24.23
878.786	41.3
878.959	22.87
879.131	6.49
879.303	-46.76
879.476	-65.19
879.648	104.79
879.82	37.2
879.993	12.63
880.165	-65.19
880.337	-34.47
880.509	-16.04
880.681	-50.86
880.854	-54.95
881.026	45.4
881.198	47.44
881.37	-46.76
881.542	-34.47
881.714	-67.24
881.886	-52.91
882.058	-9.9
882.23	24.92
882.402	-1.71
882.574	-28.33
882.746	-11.95
882.918	121.17
883.09	86.36
883.262	4.44
883.434	67.92
883.606	-67.24
883.778	-48.81
883.95	110.93
884.122	-102.06
884.293	78.16
884.465	-5.8
884.637	76.12
884.809	-67.24
884.98	14.68
885.152	8.53
885.324	2.39
885.496	-87.72
885.667	-61.1
885.839	39.25
886.011	76.12
886.182	-46.76
886.354	69.97
886.525	-44.71
886.697	-85.67
886.869	-67.24
887.04	14.68
887.212	45.4
887.383	92.5
887.555	-20.14
887.726	-61.1
887.897	-5.8
888.069	-24.23
888.24	-48.81
888.412	2.39
888.583	-44.71
888.754	59.73
888.926	-120.49
889.097	22.87
889.268	-112.3
889.44	-16.04
889.611	-69.29
889.782	-132.78
889.953	-100.01
890.125	39.25
890.296	-138.92
890.467	-30.38
890.638	-61.1
890.809	-50.86
890.98	-24.23
891.151	20.82
891.323	164.18
891.494	86.36
891.665	16.73
891.836	-87.72
892.007	-13.99
892.178	-1.71
892.349	49.49
892.52	-30.38
892.691	-1.71
892.862	-97.96
893.032	-118.44
893.203	-67.24
893.374	102.74
893.545	53.59
893.716	-57
893.887	88.4
894.057	-48.81
894.228	16.73
894.399	-24.23
894.57	24.92
894.74	-5.8
894.911	12.63
895.082	-59.05
895.253	-50.86
895.423	-57
895.594	63.83
895.764	24.92
895.935	-52.91
896.106	67.92
896.276	-77.48
896.447	26.96
896.617	-91.82
896.788	-48.81
896.958	10.58
897.129	-26.28
897.299	-40.62
897.47	141.65
897.64	20.82
897.81	-5.8
897.981	-40.62
898.151	0.34
898.322	78.16
898.492	94.55
898.662	-44.71
898.832	-57
899.003	-93.87
899.173	67.92
899.343	-136.87
899.513	-48.81
