Data from USB4F104151__274__11-20-46-531.txt Node

Date: Wed Feb 26 11:20:46 EST 2025
User: louis
Spectrometer: USB4F10415
Trigger mode: 4
Integration Time (sec): 1.000000E-1
Scans to average: 1
Electric dark correction enabled: true
Nonlinearity correction enabled: false
Boxcar width: 0
XAxis mode: Wavelengths
Number of Pixels in Spectrum: 3648
>>>>>Begin Spectral Data<<<<<
178.204	-428.88
178.424	-428.88
178.644	-428.88
178.864	-461.65
179.084	-338.77
179.304	-7
179.524	-56.15
179.744	3.24
179.964	79.02
180.184	46.25
180.404	-29.52
180.624	-31.57
180.844	-45.91
181.064	-35.67
181.283	44.2
181.503	-27.48
181.723	60.59
181.943	-162.64
182.163	199.85
182.383	-33.62
182.602	52.39
182.822	56.49
183.042	91.31
183.262	-21.33
183.482	17.58
183.701	3.24
183.921	171.18
184.141	-39.76
184.361	95.4
184.58	79.02
184.8	25.77
185.02	-64.34
185.239	46.25
185.459	-29.52
185.679	23.72
185.898	-133.97
186.118	-2.9
186.338	42.15
186.557	64.68
186.777	-56.15
186.997	-27.48
187.216	87.21
187.436	144.55
187.655	13.48
187.875	76.97
188.095	-7
188.314	136.36
188.534	113.83
188.753	-29.52
188.973	91.31
189.192	152.74
189.412	5.29
189.631	-37.72
189.851	83.11
190.07	105.64
190.29	-29.52
190.509	38.06
190.729	29.87
190.948	33.96
191.168	208.04
191.387	64.68
191.607	36.01
191.826	9.39
192.045	-4.95
192.265	-50
192.484	50.35
192.704	-2.9
192.923	-58.2
193.142	142.5
193.362	126.12
193.581	160.94
193.8	31.91
194.02	-11.09
194.239	33.96
194.458	36.01
194.678	-19.29
194.897	-72.53
195.116	-23.38
195.335	68.78
195.555	25.77
195.774	-37.72
195.993	70.83
196.212	44.2
196.432	7.34
196.651	48.3
196.87	74.92
197.089	205.99
197.308	-25.43
197.528	15.53
197.747	-35.67
197.966	50.35
198.185	50.35
198.404	-64.34
198.623	5.29
198.842	107.69
199.062	29.87
199.281	136.36
199.5	-9.05
199.719	56.49
199.938	62.63
200.157	64.68
200.376	103.59
200.595	85.16
200.814	21.67
201.033	-25.43
201.252	122.02
201.471	19.63
201.69	58.54
201.909	-0.85
202.128	146.6
202.347	97.45
202.566	31.91
202.785	-4.95
203.004	-50
203.223	191.66
203.442	-47.96
203.661	-52.05
203.879	9.39
204.098	181.42
204.317	-43.86
204.536	89.26
204.755	56.49
204.974	162.98
205.193	-119.64
205.411	117.93
205.63	25.77
205.849	87.21
206.068	-43.86
206.287	-66.39
206.505	193.7
206.724	-17.24
206.943	-43.86
207.162	-37.72
207.381	11.43
207.599	11.43
207.818	17.58
208.037	-54.1
208.255	9.39
208.474	48.3
208.693	58.54
208.911	85.16
209.13	1.19
209.349	99.5
209.567	58.54
209.786	95.4
210.005	103.59
210.223	7.34
210.442	-121.68
210.661	33.96
210.879	99.5
211.098	-19.29
211.316	31.91
211.535	40.11
211.753	-52.05
211.972	146.6
212.191	-29.52
212.409	-15.19
212.628	79.02
212.846	-125.78
213.065	23.72
213.283	128.17
213.502	-23.38
213.72	-21.33
213.938	13.48
214.157	-21.33
214.375	197.8
214.594	46.25
214.812	68.78
215.031	11.43
215.249	-33.62
215.467	56.49
215.686	5.29
215.904	54.44
216.122	25.77
216.341	99.5
216.559	-58.2
216.778	44.2
216.996	113.83
217.214	-11.09
217.432	-4.95
217.651	-15.19
217.869	-4.95
218.087	13.48
218.306	40.11
218.524	-97.11
218.742	13.48
218.96	173.22
219.179	-2.9
219.397	7.34
219.615	173.22
219.833	58.54
220.051	-70.48
220.27	48.3
220.488	60.59
220.706	-23.38
220.924	-33.62
221.142	64.68
221.36	56.49
221.578	79.02
221.796	-39.76
222.015	42.15
222.233	5.29
222.451	134.31
222.669	-78.68
222.887	62.63
223.105	-37.72
223.323	-19.29
223.541	-15.19
223.759	70.83
223.977	-72.53
224.195	158.89
224.413	48.3
224.631	23.72
224.849	46.25
225.067	167.08
225.285	-86.87
225.503	-2.9
225.721	-58.2
225.939	81.07
226.157	-17.24
226.375	208.04
226.592	-76.63
226.81	25.77
227.028	-47.96
227.246	87.21
227.464	46.25
227.682	175.27
227.9	66.73
228.117	54.44
228.335	54.44
228.553	-29.52
228.771	1.19
228.989	15.53
229.206	56.49
229.424	40.11
229.642	-54.1
229.86	7.34
230.077	156.84
230.295	72.87
230.513	95.4
230.731	40.11
230.948	156.84
231.166	150.7
231.384	-15.19
231.601	-33.62
231.819	167.08
232.037	-0.85
232.254	-25.43
232.472	-2.9
232.689	-37.72
232.907	70.83
233.125	-29.52
233.342	15.53
233.56	-37.72
233.777	-25.43
233.995	15.53
234.213	134.31
234.43	46.25
234.648	81.07
234.865	-72.53
235.083	99.5
235.3	-9.05
235.518	42.15
235.735	156.84
235.953	76.97
236.17	9.39
236.388	5.29
236.605	-17.24
236.822	5.29
237.04	115.88
237.257	64.68
237.475	-4.95
237.692	5.29
237.909	17.58
238.127	-35.67
238.344	17.58
238.562	48.3
238.779	-17.24
238.996	-39.76
239.214	-25.43
239.431	19.63
239.648	-17.24
239.865	60.59
240.083	54.44
240.3	-25.43
240.517	5.29
240.735	27.82
240.952	105.64
241.169	66.73
241.386	17.58
241.603	-19.29
241.821	-88.92
242.038	117.93
242.255	79.02
242.472	-90.96
242.689	9.39
242.907	29.87
243.124	-15.19
243.341	-50
243.558	-58.2
243.775	-43.86
243.992	-35.67
244.209	56.49
244.426	195.75
244.643	46.25
244.86	66.73
245.078	62.63
245.295	29.87
245.512	44.2
245.729	-70.48
245.946	81.07
246.163	-27.48
246.38	-15.19
246.597	-56.15
246.814	81.07
247.031	-11.09
247.248	13.48
247.464	44.2
247.681	-72.53
247.898	52.39
248.115	15.53
248.332	-21.33
248.549	132.26
248.766	132.26
248.983	19.63
249.2	-31.57
249.417	64.68
249.633	-17.24
249.85	81.07
250.067	-11.09
250.284	36.01
250.501	79.02
250.717	99.5
250.934	-64.34
251.151	23.72
251.368	27.82
251.585	54.44
251.801	-15.19
252.018	-54.1
252.235	44.2
252.451	-37.72
252.668	-66.39
252.885	150.7
253.102	-15.19
253.318	-62.29
253.535	11.43
253.752	11.43
253.968	19.63
254.185	-93.01
254.401	97.45
254.618	54.44
254.835	-17.24
255.051	103.59
255.268	48.3
255.484	81.07
255.701	-35.67
255.917	62.63
256.134	-31.57
256.351	21.67
256.567	-29.52
256.784	11.43
257	-93.01
257.217	109.74
257.433	93.35
257.65	-7
257.866	103.59
258.082	-37.72
258.299	-58.2
258.515	21.67
258.732	-33.62
258.948	-88.92
259.165	-2.9
259.381	-72.53
259.597	29.87
259.814	62.63
260.03	-25.43
260.246	1.19
260.463	93.35
260.679	124.07
260.895	-37.72
261.112	60.59
261.328	-2.9
261.544	-45.91
261.761	103.59
261.977	-74.58
262.193	17.58
262.409	122.02
262.626	173.22
262.842	-25.43
263.058	15.53
263.274	99.5
263.49	70.83
263.707	36.01
263.923	76.97
264.139	-72.53
264.355	21.67
264.571	95.4
264.787	17.58
265.004	95.4
265.22	-86.87
265.436	5.29
265.652	-17.24
265.868	-21.33
266.084	-45.91
266.3	17.58
266.516	-56.15
266.732	76.97
266.948	64.68
267.164	-37.72
267.38	76.97
267.596	-13.14
267.812	115.88
268.028	1.19
268.244	1.19
268.46	3.24
268.676	-0.85
268.892	38.06
269.108	-95.06
269.324	-35.67
269.54	-60.24
269.756	62.63
269.972	-47.96
270.188	-68.44
270.403	-93.01
270.619	-60.24
270.835	72.87
271.051	56.49
271.267	-23.38
271.483	-62.29
271.698	126.12
271.914	-64.34
272.13	95.4
272.346	25.77
272.562	15.53
272.777	109.74
272.993	-9.05
273.209	-19.29
273.425	-2.9
273.64	-21.33
273.856	103.59
274.072	-11.09
274.287	40.11
274.503	50.35
274.719	60.59
274.934	-23.38
275.15	-76.63
275.366	-29.52
275.581	-19.29
275.797	19.63
276.012	-13.14
276.228	-15.19
276.444	-54.1
276.659	74.92
276.875	-45.91
277.09	-66.39
277.306	19.63
277.521	-2.9
277.737	-11.09
277.952	97.45
278.168	101.55
278.383	29.87
278.599	-45.91
278.814	60.59
279.03	-39.76
279.245	91.31
279.461	-13.14
279.676	89.26
279.892	-27.48
280.107	-131.92
280.322	5.29
280.538	60.59
280.753	-121.68
280.969	87.21
281.184	23.72
281.399	148.65
281.615	44.2
281.83	56.49
282.045	-115.54
282.26	-107.35
282.476	48.3
282.691	42.15
282.906	40.11
283.122	33.96
283.337	-29.52
283.552	87.21
283.767	15.53
283.983	13.48
284.198	1.19
284.413	36.01
284.628	-88.92
284.843	5.29
285.058	115.88
285.274	-31.57
285.489	-17.24
285.704	115.88
285.919	-23.38
286.134	44.2
286.349	15.53
286.564	58.54
286.779	201.9
286.995	-0.85
287.21	-86.87
287.425	87.21
287.64	-33.62
287.855	-2.9
288.07	-117.59
288.285	142.5
288.5	132.26
288.715	38.06
288.93	48.3
289.145	-84.82
289.36	210.09
289.575	-50
289.79	154.79
290.004	-27.48
290.219	85.16
290.434	-19.29
290.649	-88.92
290.864	-0.85
291.079	48.3
291.294	72.87
291.509	60.59
291.724	-19.29
291.938	19.63
292.153	89.26
292.368	52.39
292.583	40.11
292.798	68.78
293.012	-27.48
293.227	-45.91
293.442	40.11
293.657	83.11
293.871	52.39
294.086	40.11
294.301	154.79
294.516	60.59
294.73	42.15
294.945	-72.53
295.16	7.34
295.374	124.07
295.589	85.16
295.804	15.53
296.018	19.63
296.233	74.92
296.447	58.54
296.662	-60.24
296.877	115.88
297.091	52.39
297.306	-76.63
297.52	42.15
297.735	1.19
297.949	3.24
298.164	-0.85
298.378	-27.48
298.593	-21.33
298.807	15.53
299.022	-7
299.236	117.93
299.451	-13.14
299.665	3.24
299.88	-31.57
300.094	-4.95
300.309	-9.05
300.523	-9.05
300.737	3.24
300.952	44.2
301.166	66.73
301.381	-37.72
301.595	-33.62
301.809	103.59
302.024	50.35
302.238	-21.33
302.452	68.78
302.667	-4.95
302.881	95.4
303.095	15.53
303.309	-27.48
303.524	-60.24
303.738	-9.05
303.952	33.96
304.166	11.43
304.381	-179.03
304.595	113.83
304.809	-15.19
305.023	54.44
305.237	17.58
305.452	-74.58
305.666	19.63
305.88	7.34
306.094	99.5
306.308	19.63
306.522	56.49
306.736	74.92
306.95	50.35
307.164	17.58
307.379	81.07
307.593	99.5
307.807	103.59
308.021	-7
308.235	7.34
308.449	-125.78
308.663	15.53
308.877	173.22
309.091	1.19
309.305	9.39
309.519	-95.06
309.733	25.77
309.947	-86.87
310.161	130.22
310.374	64.68
310.588	79.02
310.802	-7
311.016	3.24
311.23	36.01
311.444	-54.1
311.658	-45.91
311.872	103.59
312.085	130.22
312.299	150.7
312.513	107.69
312.727	81.07
312.941	-56.15
313.154	1.19
313.368	68.78
313.582	-19.29
313.796	11.43
314.009	-68.44
314.223	83.11
314.437	-9.05
314.651	56.49
314.864	-37.72
315.078	54.44
315.292	-21.33
315.505	36.01
315.719	54.44
315.933	9.39
316.146	-9.05
316.36	-90.96
316.573	150.7
316.787	33.96
317.001	109.74
317.214	31.91
317.428	27.82
317.641	-19.29
317.855	-13.14
318.068	-27.48
318.282	-11.09
318.495	117.93
318.709	117.93
318.922	17.58
319.136	87.21
319.349	189.61
319.563	7.34
319.776	15.53
319.99	-64.34
320.203	152.74
320.417	64.68
320.63	97.45
320.843	97.45
321.057	15.53
321.27	38.06
321.483	72.87
321.697	95.4
321.91	52.39
322.124	-37.72
322.337	-2.9
322.55	-82.77
322.763	-11.09
322.977	-2.9
323.19	-11.09
323.403	15.53
323.617	-15.19
323.83	132.26
324.043	27.82
324.256	-23.38
324.469	-2.9
324.683	72.87
324.896	-43.86
325.109	79.02
325.322	-62.29
325.535	72.87
325.748	95.4
325.962	-17.24
326.175	-13.14
326.388	46.25
326.601	85.16
326.814	-47.96
327.027	21.67
327.24	81.07
327.453	-84.82
327.666	13.48
327.879	105.64
328.092	38.06
328.305	-15.19
328.518	-15.19
328.731	-19.29
328.944	-45.91
329.157	23.72
329.37	-60.24
329.583	138.41
329.796	169.13
330.009	-43.86
330.222	74.92
330.435	33.96
330.648	-60.24
330.861	-0.85
331.073	44.2
331.286	38.06
331.499	11.43
331.712	-68.44
331.925	33.96
332.138	-23.38
332.35	109.74
332.563	-35.67
332.776	-7
332.989	-27.48
333.202	1.19
333.414	76.97
333.627	62.63
333.84	33.96
334.053	9.39
334.265	-0.85
334.478	-50
334.691	-13.14
334.903	31.91
335.116	-54.1
335.329	-11.09
335.541	122.02
335.754	105.64
335.966	-62.29
336.179	60.59
336.392	-25.43
336.604	-35.67
336.817	97.45
337.029	-52.05
337.242	-56.15
337.454	128.17
337.667	1.19
337.88	95.4
338.092	76.97
338.305	27.82
338.517	-97.11
338.729	13.48
338.942	58.54
339.154	-45.91
339.367	-39.76
339.579	117.93
339.792	-43.86
340.004	60.59
340.217	-21.33
340.429	31.91
340.641	-7
340.854	-80.72
341.066	29.87
341.278	50.35
341.491	115.88
341.703	-45.91
341.915	-39.76
342.128	115.88
342.34	-7
342.552	-58.2
342.764	-11.09
342.977	-25.43
343.189	83.11
343.401	46.25
343.613	-54.1
343.826	-82.77
344.038	-43.86
344.25	48.3
344.462	-88.92
344.674	52.39
344.886	-9.05
345.099	-11.09
345.311	19.63
345.523	-29.52
345.735	-62.29
345.947	5.29
346.159	3.24
346.371	-13.14
346.583	42.15
346.795	216.23
347.007	-4.95
347.219	-4.95
347.431	-68.44
347.643	130.22
347.855	-29.52
348.067	113.83
348.279	-27.48
348.491	-11.09
348.703	50.35
348.915	40.11
349.127	-54.1
349.339	3.24
349.551	-33.62
349.763	154.79
349.975	89.26
350.187	87.21
350.399	76.97
350.61	142.5
350.822	-25.43
351.034	-37.72
351.246	50.35
351.458	-27.48
351.669	44.2
351.881	-17.24
352.093	93.35
352.305	46.25
352.517	46.25
352.728	109.74
352.94	25.77
353.152	17.58
353.363	-41.81
353.575	54.44
353.787	128.17
353.999	31.91
354.21	54.44
354.422	-64.34
354.633	9.39
354.845	-13.14
355.057	54.44
355.268	27.82
355.48	95.4
355.692	-43.86
355.903	-13.14
356.115	-127.83
356.326	-115.54
356.538	91.31
356.749	66.73
356.961	156.84
357.172	-2.9
357.384	-78.68
357.595	175.27
357.807	-11.09
358.018	27.82
358.23	21.67
358.441	115.88
358.653	66.73
358.864	15.53
359.075	-56.15
359.287	33.96
359.498	48.3
359.709	74.92
359.921	-27.48
360.132	72.87
360.344	31.91
360.555	25.77
360.766	64.68
360.977	-11.09
361.189	146.6
361.4	5.29
361.611	17.58
361.823	42.15
362.034	11.43
362.245	-101.2
362.456	29.87
362.667	103.59
362.879	-9.05
363.09	36.01
363.301	-11.09
363.512	38.06
363.723	19.63
363.935	33.96
364.146	38.06
364.357	38.06
364.568	29.87
364.779	-9.05
364.99	126.12
365.201	58.54
365.412	111.78
365.623	-95.06
365.834	-9.05
366.045	-7
366.256	38.06
366.467	50.35
366.678	-29.52
366.889	19.63
367.1	-50
367.311	87.21
367.522	-37.72
367.733	58.54
367.944	3.24
368.155	66.73
368.366	46.25
368.577	70.83
368.788	85.16
368.999	-66.39
369.209	105.64
369.42	144.55
369.631	249
369.842	54.44
370.053	-41.81
370.264	93.35
370.474	-99.16
370.685	56.49
370.896	-0.85
371.107	109.74
371.317	-0.85
371.528	-0.85
371.739	175.27
371.95	81.07
372.16	11.43
372.371	-39.76
372.582	-29.52
372.792	79.02
373.003	56.49
373.214	56.49
373.424	17.58
373.635	-101.2
373.846	52.39
374.056	58.54
374.267	21.67
374.477	-0.85
374.688	36.01
374.898	122.02
375.109	83.11
375.319	-15.19
375.53	70.83
375.74	97.45
375.951	-43.86
376.161	68.78
376.372	197.8
376.582	-39.76
376.793	42.15
377.003	-4.95
377.214	-4.95
377.424	38.06
377.635	-39.76
377.845	-43.86
378.055	109.74
378.266	-74.58
378.476	-4.95
378.686	23.72
378.897	1.19
379.107	91.31
379.317	113.83
379.528	5.29
379.738	46.25
379.948	-88.92
380.158	87.21
380.369	27.82
380.579	23.72
380.789	-19.29
380.999	72.87
381.21	27.82
381.42	160.94
381.63	1.19
381.84	62.63
382.05	36.01
382.261	138.41
382.471	9.39
382.681	-64.34
382.891	128.17
383.101	122.02
383.311	-72.53
383.521	-52.05
383.731	-15.19
383.941	79.02
384.151	38.06
384.361	-21.33
384.571	50.35
384.781	74.92
384.991	140.46
385.201	150.7
385.411	111.78
385.621	74.92
385.831	87.21
386.041	54.44
386.251	72.87
386.461	56.49
386.671	-37.72
386.881	74.92
387.091	-4.95
387.301	138.41
387.511	89.26
387.72	42.15
387.93	21.67
388.14	-58.2
388.35	66.73
388.56	95.4
388.769	111.78
388.979	-2.9
389.189	-15.19
389.399	-4.95
389.609	76.97
389.818	3.24
390.028	54.44
390.238	25.77
390.447	-54.1
390.657	60.59
390.867	-7
391.076	-66.39
391.286	83.11
391.496	58.54
391.705	1.19
391.915	101.55
392.125	83.11
392.334	-4.95
392.544	70.83
392.753	48.3
392.963	-47.96
393.172	144.55
393.382	5.29
393.591	148.65
393.801	-86.87
394.01	150.7
394.22	3.24
394.429	21.67
394.639	-9.05
394.848	9.39
395.058	72.87
395.267	52.39
395.477	-2.9
395.686	70.83
395.895	117.93
396.105	169.13
396.314	62.63
396.524	-4.95
396.733	-0.85
396.942	83.11
397.152	111.78
397.361	138.41
397.57	54.44
397.78	38.06
397.989	27.82
398.198	191.66
398.407	42.15
398.617	-11.09
398.826	81.07
399.035	19.63
399.244	83.11
399.453	87.21
399.663	42.15
399.872	81.07
400.081	-54.1
400.29	187.56
400.499	-27.48
400.708	171.18
400.917	-13.14
401.127	9.39
401.336	19.63
401.545	177.32
401.754	246.95
401.963	101.55
402.172	-103.25
402.381	-88.92
402.59	74.92
402.799	9.39
403.008	87.21
403.217	11.43
403.426	38.06
403.635	-140.12
403.844	-52.05
404.053	36.01
404.262	81.07
404.471	136.36
404.68	103.59
404.888	-9.05
405.097	-21.33
405.306	3.24
405.515	124.07
405.724	79.02
405.933	58.54
406.142	15.53
406.35	76.97
406.559	15.53
406.768	42.15
406.977	103.59
407.185	60.59
407.394	40.11
407.603	-60.24
407.812	9.39
408.02	111.78
408.229	38.06
408.438	54.44
408.646	-52.05
408.855	-45.91
409.064	68.78
409.272	3.24
409.481	27.82
409.69	9.39
409.898	-7
410.107	91.31
410.315	126.12
410.524	25.77
410.733	-13.14
410.941	66.73
411.15	-4.95
411.358	5.29
411.567	124.07
411.775	-29.52
411.984	52.39
412.192	46.25
412.401	-21.33
412.609	144.55
412.818	148.65
413.026	29.87
413.234	42.15
413.443	25.77
413.651	-35.67
413.86	-33.62
414.068	109.74
414.276	124.07
414.485	13.48
414.693	201.9
414.901	128.17
415.11	7.34
415.318	38.06
415.526	-13.14
415.734	91.31
415.943	19.63
416.151	167.08
416.359	31.91
416.567	74.92
416.776	144.55
416.984	107.69
417.192	191.66
417.4	-27.48
417.608	-72.53
417.817	-86.87
418.025	21.67
418.233	150.7
418.441	-97.11
418.649	-33.62
418.857	58.54
419.065	103.59
419.273	-13.14
419.481	70.83
419.689	15.53
419.897	29.87
420.105	-50
420.313	95.4
420.521	115.88
420.729	72.87
420.937	-15.19
421.145	-33.62
421.353	31.91
421.561	124.07
421.769	-4.95
421.977	-9.05
422.185	148.65
422.393	50.35
422.601	130.22
422.809	81.07
423.017	31.91
423.224	-13.14
423.432	111.78
423.64	23.72
423.848	79.02
424.056	1.19
424.263	107.69
424.471	-78.68
424.679	122.02
424.887	36.01
425.094	144.55
425.302	87.21
425.51	-43.86
425.718	21.67
425.925	109.74
426.133	46.25
426.341	140.46
426.548	64.68
426.756	-2.9
426.964	48.3
427.171	-41.81
427.379	64.68
427.586	79.02
427.794	95.4
428.001	105.64
428.209	46.25
428.417	181.42
428.624	177.32
428.832	72.87
429.039	31.91
429.247	91.31
429.454	117.93
429.662	228.52
429.869	46.25
430.076	97.45
430.284	36.01
430.491	134.31
430.699	142.5
430.906	140.46
431.114	117.93
431.321	122.02
431.528	70.83
431.736	193.7
431.943	52.39
432.15	138.41
432.358	113.83
432.565	244.9
432.772	27.82
432.979	195.75
433.187	134.31
433.394	138.41
433.601	25.77
433.808	218.28
434.016	197.8
434.223	201.9
434.43	230.57
434.637	150.7
434.844	179.37
435.052	179.37
435.259	189.61
435.466	242.85
435.673	205.99
435.88	218.28
436.087	246.95
436.294	279.72
436.501	298.15
436.708	236.71
436.915	195.75
437.122	332.97
437.329	181.42
437.537	230.57
437.743	273.57
437.95	400.55
438.157	320.68
438.364	318.63
438.571	367.78
438.778	306.34
438.985	361.64
439.192	390.31
439.399	345.25
439.606	349.35
439.813	464.04
440.02	511.14
440.227	498.85
440.433	418.98
440.64	476.32
440.847	418.98
441.054	453.8
441.261	582.82
441.467	543.91
441.674	412.84
441.881	656.54
442.088	525.47
442.294	627.87
442.501	670.88
442.708	699.55
442.914	672.93
443.121	660.64
443.328	627.87
443.534	818.33
443.741	697.5
443.948	679.07
444.154	885.92
444.361	992.41
444.568	795.81
444.774	910.49
444.981	816.29
445.187	971.93
445.394	906.4
445.6	961.69
445.807	1053.85
446.013	1027.23
446.22	1023.13
446.426	1180.82
446.633	1150.11
446.839	1383.57
447.046	1172.63
447.252	1311.89
447.459	1359
447.665	1338.52
447.871	1524.88
448.078	1565.84
448.284	1502.36
448.491	1772.69
448.697	1860.75
448.903	1797.26
449.11	1791.12
449.316	1856.65
449.522	2092.17
449.728	2077.83
449.935	2225.29
450.141	2163.85
450.347	2356.36
450.553	2256.01
450.76	2348.17
450.966	2438.28
451.172	2575.49
451.378	2665.6
451.584	2632.83
451.791	2905.21
451.997	3005.56
452.203	3097.72
452.409	3193.98
452.615	3427.45
452.821	3247.23
453.027	3236.99
453.233	3783.79
453.44	3574.9
453.646	3654.77
453.852	3853.42
454.058	4002.93
454.264	4019.31
454.47	4465.77
454.676	4486.25
454.882	4838.5
455.088	4680.8
455.294	4988
455.5	5342.3
455.705	5647.44
455.911	5506.13
456.117	5719.12
456.323	5952.59
456.529	5921.87
456.735	6450.25
456.941	6708.29
457.147	6884.42
457.352	7187.52
457.558	7339.07
457.764	7652.41
457.97	7951.41
458.176	8168.49
458.381	8739.88
458.587	8827.94
458.793	9258.01
458.999	9251.87
459.204	10222.61
459.41	10871.81
459.616	10564.62
459.821	11054.08
460.027	11727.86
460.233	12377.07
460.438	12213.23
460.644	12762.09
460.85	12981.22
461.055	13585.37
461.261	14349.26
461.466	13974.49
461.672	14138.32
461.878	16034.74
462.083	15700.92
462.289	15948.73
462.494	16774.06
462.7	16939.94
462.905	17177.51
463.111	18688.91
463.316	19368.84
463.522	19786.62
463.727	20527.99
463.932	21414.76
464.138	22033.24
464.343	22661.97
464.549	22879.05
464.754	24578.87
464.959	25430.82
465.165	25645.86
465.37	25164.59
465.575	25373.48
465.781	27007.76
465.986	27663.11
466.191	27851.52
466.397	27652.87
466.602	27106.06
466.807	28975.86
467.012	29143.79
467.218	29795.04
467.423	29899.49
467.628	30937.81
467.833	32185.02
468.038	31810.25
468.244	30794.45
468.449	32832.18
468.654	32195.26
468.859	32297.66
469.064	32117.44
469.269	31406.8
469.474	32002.75
469.679	32443.07
469.885	31992.51
470.09	32043.71
470.295	32238.27
470.5	31632.07
470.705	31894.21
470.91	30687.96
471.115	30501.59
471.32	31218.38
471.525	30972.63
471.73	29979.36
471.935	29899.49
472.139	28617.46
472.344	29086.45
472.549	28740.34
472.754	27826.95
472.959	27435.78
473.164	26424.09
473.369	26090.27
473.574	26864.4
473.778	26321.69
473.983	25989.92
474.188	25508.65
474.393	24224.57
474.598	24240.95
474.802	23614.27
475.007	23354.18
475.212	23268.17
475.417	21902.17
475.621	22002.52
475.826	21621.6
476.031	21427.04
476.235	20964.2
476.44	20671.34
476.645	20398.96
476.849	20040.57
477.054	19542.91
477.259	19123.08
477.463	19073.93
477.668	18764.68
477.872	18631.57
478.077	18283.41
478.282	17365.92
478.486	17621.92
478.691	17191.84
478.895	16968.62
479.1	16812.97
479.304	16985
479.509	16409.52
479.713	16386.99
479.918	16149.43
480.122	15776.7
480.326	16083.89
480.531	15963.06
480.735	15670.2
480.94	15539.13
481.144	16141.24
481.348	15109.06
481.553	15418.3
481.757	15006.66
481.961	14975.94
482.166	15182.79
482.37	14875.59
482.574	14422.99
482.778	14398.41
482.983	14683.08
483.187	14513.1
483.391	14291.92
483.595	13911
483.8	13800.41
484.004	13919.19
484.208	13792.22
484.412	13843.42
484.616	13661.15
484.821	13415.39
485.025	12854.25
485.229	13102.05
485.433	13003.75
485.637	12702.7
485.841	12608.49
486.045	12186.61
486.249	12229.62
486.453	12073.97
486.657	11836.41
486.861	11805.69
487.065	11377.66
487.269	11322.37
487.473	11013.12
487.677	11312.13
487.881	11119.62
488.085	10802.18
488.289	10626.06
488.493	10302.48
488.697	10331.15
488.901	10038.29
489.105	9980.95
489.309	9698.33
489.512	9661.46
489.716	9356.32
489.92	9147.42
490.124	8881.19
490.328	9145.38
490.531	8711.21
490.735	8608.81
490.939	8578.09
491.143	8172.59
491.346	8154.16
491.55	8156.21
491.754	7955.51
491.958	7814.2
492.161	7681.08
492.365	7492.66
492.569	7488.57
492.772	7265.34
492.976	7365.69
493.18	7054.4
493.383	7062.59
493.587	6968.38
493.79	7001.15
493.994	6683.72
494.197	6837.31
494.401	6681.67
494.605	6624.33
494.808	6464.58
495.012	6546.5
495.215	6708.29
495.419	6489.16
495.622	6390.86
495.825	6296.65
496.029	6163.53
496.232	6243.4
496.436	6157.39
496.639	6265.93
496.843	6118.48
497.046	6173.77
497.249	6372.43
497.453	6241.36
497.656	6065.23
497.859	6141
498.063	6149.2
498.266	6249.55
498.469	5999.7
498.673	6235.21
498.876	6241.36
499.079	6114.38
499.282	6399.05
499.485	6634.57
499.689	6349.9
499.892	6421.58
500.095	6435.91
500.298	6595.65
500.501	6536.26
500.705	6646.85
500.908	6700.1
501.111	6650.95
501.314	6808.64
501.517	6911.04
501.72	6874.18
501.923	6890.56
502.126	6988.86
502.329	6982.72
502.532	7124.03
502.735	7156.8
502.938	7445.56
503.141	7332.92
503.344	7597.11
503.547	7595.06
503.75	7771.19
503.953	7713.84
504.156	8008.75
504.359	7988.27
504.562	8039.47
504.765	8080.43
504.968	8295.47
505.17	8500.26
505.373	8479.79
505.576	8723.49
505.779	8694.82
505.982	9010.21
506.185	9069.6
506.387	9344.03
506.59	9360.41
506.793	9464.86
506.996	9739.29
507.198	10095.63
507.401	10001.43
507.604	10368.01
507.807	10589.19
508.009	10697.74
508.212	11000.83
508.415	11168.77
508.617	11457.53
508.82	11557.88
509.022	11615.23
509.225	12112.88
509.428	12446.7
509.63	12653.55
509.833	12811.24
510.035	13337.57
510.238	13288.42
510.44	13894.61
510.643	14160.85
510.845	14267.34
511.048	14373.84
511.25	14756.81
511.453	15188.93
511.655	15737.79
511.858	15889.34
512.06	16151.48
512.262	16323.51
512.465	16729
512.667	17288.1
512.87	17517.47
513.072	18023.32
513.274	18408.34
513.477	18926.47
513.679	19198.85
513.881	19684.22
514.084	20126.58
514.286	20446.07
514.488	21101.42
514.69	21574.5
514.893	22012.76
515.095	22455.12
515.297	22872.91
515.499	23128.91
515.701	24122.17
515.904	24249.14
516.106	25060.14
516.308	25422.63
516.51	25518.89
516.712	26239.77
516.914	26501.91
517.116	27552.52
517.318	27861.76
517.52	28199.68
517.722	28551.93
517.925	29465.32
518.127	30345.95
518.329	30552.79
518.531	30690.01
518.733	31617.74
518.935	32334.53
519.136	32692.92
519.338	33290.93
519.54	33505.96
519.742	34128.55
519.944	34335.39
520.146	35578.51
520.348	35527.31
520.55	36149.89
520.752	36362.88
520.954	37128.82
521.155	36864.63
521.357	37851.75
521.559	38361.7
521.761	39103.06
521.963	38990.42
522.164	39406.16
522.366	39866.95
522.568	40309.32
522.77	40411.71
522.971	41552.43
523.173	40766.01
523.375	41353.78
523.576	41536.05
523.778	41683.5
523.98	42326.56
524.181	42715.68
524.383	42252.84
524.584	42813.98
524.786	42764.83
524.988	42332.71
525.189	42828.32
525.391	43364.88
525.592	43211.29
525.794	43379.22
525.995	42959.39
526.197	43041.31
526.398	43325.97
526.6	43145.75
526.801	43194.9
527.003	43039.26
527.204	43055.64
527.406	42994.2
527.607	42474.02
527.808	42752.54
528.01	41628.21
528.211	41886.25
528.412	42248.74
528.614	42023.47
528.815	41669.17
529.016	41824.81
529.218	40665.66
529.419	40696.38
529.62	39950.92
529.822	39930.44
530.023	39565.9
530.224	39266.9
530.425	39021.14
530.626	38128.23
530.828	38173.28
531.029	37991.01
531.23	37010.04
531.431	36809.34
531.632	36444.8
531.833	36053.64
532.035	35580.56
532.236	35052.18
532.437	35150.48
532.638	34460.32
532.839	34179.75
533.04	33727.14
533.241	33262.26
533.442	33604.27
533.643	32285.37
533.844	31820.49
534.045	31705.8
534.246	30986.96
534.447	31032.02
534.648	30479.07
534.849	30270.17
535.05	29170.41
535.251	29053.68
535.451	28783.35
535.652	28451.58
535.853	28113.66
536.054	27669.25
536.255	27632.39
536.456	26622.74
536.657	27116.3
536.857	26147.61
537.058	25979.68
537.259	25731.87
537.46	25221.93
537.66	24664.88
537.861	24791.86
538.062	24492.85
538.263	24050.49
538.463	23632.71
538.664	23339.85
538.865	23302.98
539.065	23077.71
539.266	22457.17
539.466	22246.23
539.667	21990.24
539.868	21769.05
540.068	21535.59
540.269	21375.84
540.469	21273.45
540.67	20366.2
540.87	20706.16
541.071	20083.58
541.271	20028.28
541.472	20024.19
541.672	19686.27
541.873	19229.57
542.073	18944.91
542.274	18877.32
542.474	18981.77
542.675	18463.63
542.875	18512.78
543.075	17834.91
543.276	17593.25
543.476	17697.69
543.676	17521.57
543.877	17421.22
544.077	17224.61
544.277	17034.15
544.478	16745.39
544.678	16622.51
544.878	16354.23
545.078	16356.27
545.279	15948.73
545.479	15485.89
545.679	15715.26
545.879	15420.35
546.079	15381.44
546.28	15008.71
546.48	14928.84
546.68	15043.53
546.88	14529.48
547.08	14425.04
547.28	14402.51
547.48	14019.54
547.68	13935.57
547.88	13706.2
548.081	13442.01
548.281	13206.5
548.481	12911.59
548.681	13429.73
548.881	13077.48
549.081	12848.1
549.28	12497.9
549.48	12366.83
549.68	12246
549.88	12178.42
550.08	11799.54
550.28	11922.42
550.48	11830.26
550.68	11443.2
550.88	11181.06
551.08	10976.26
551.279	11068.42
551.479	10793.99
551.679	10814.47
551.879	10490.89
552.079	10195.98
552.278	10132.5
552.478	10220.56
552.678	9894.93
552.878	9712.66
553.077	9614.36
553.277	9395.23
553.477	9249.82
553.676	9049.12
553.876	9110.56
554.076	8983.59
554.275	8713.25
554.475	8512.55
554.674	8602.66
554.874	8369.19
555.074	8348.72
555.273	8305.71
555.473	7986.22
555.672	7957.55
555.872	7853.11
556.071	7595.06
556.271	7507
556.47	7375.93
556.67	7224.38
556.869	6978.62
557.068	6923.33
557.268	6947.9
557.467	6763.59
557.667	6696
557.866	6493.26
558.065	6397
558.265	6380.62
558.464	6202.44
558.663	6292.55
558.863	5985.36
559.062	6063.18
559.261	5837.91
559.461	5839.95
559.66	5616.72
559.859	5674.07
560.058	5471.32
560.258	5196.89
560.457	5403.74
560.656	5274.71
560.855	5129.31
561.054	5135.45
561.253	5108.83
561.453	5022.81
561.652	4863.07
561.851	4732
562.05	4699.23
562.249	4490.34
562.448	4656.23
562.647	4451.43
562.846	4389.99
563.045	4379.75
563.244	4297.83
563.443	4322.41
563.642	4172.91
563.841	4097.13
564.04	4050.03
564.239	4134
564.438	3947.63
564.637	3902.58
564.836	3765.36
565.035	3736.69
565.234	3748.98
565.432	3642.48
565.631	3802.22
565.83	3538.04
566.029	3486.84
566.228	3302.52
566.427	3501.17
566.625	3206.27
566.824	3286.14
567.023	3165.31
567.222	3282.04
567.42	3191.93
567.619	3083.39
567.818	3030.14
568.016	3036.28
568.215	2995.32
568.414	3073.15
568.612	2905.21
568.811	2823.3
569.01	2808.96
569.208	2722.95
569.407	2671.75
569.605	2739.33
569.804	2620.55
570.002	2634.88
570.201	2602.11
570.4	2659.46
570.598	2538.63
570.797	2430.09
570.995	2409.61
571.193	2493.57
571.392	2374.79
571.59	2247.82
571.789	2348.17
571.987	2208.9
572.186	2233.48
572.384	2137.23
572.582	2167.95
572.781	2268.3
572.979	1942.67
573.177	2028.68
573.376	2016.4
573.574	2051.21
573.772	1907.85
573.971	1834.13
574.169	1770.64
574.367	1926.29
574.565	1756.3
574.763	1735.82
574.962	1774.74
575.16	1670.29
575.358	1701.01
575.556	1739.92
575.754	1586.32
575.952	1625.23
576.151	1715.34
576.349	1668.24
576.547	1481.88
576.745	1518.74
576.943	1598.61
577.141	1506.45
577.339	1537.17
577.537	1397.91
577.735	1502.36
577.933	1475.73
578.131	1404.05
578.329	1408.15
578.527	1332.37
578.725	1348.76
578.923	1195.16
579.121	1344.66
579.319	1088.67
579.516	1129.63
579.714	1350.81
579.912	1178.78
580.11	1131.67
580.308	1129.63
580.506	1107.1
580.704	1006.75
580.901	1078.43
581.099	1244.31
581.297	1119.39
581.495	1098.91
581.692	1111.19
581.89	1150.11
582.088	1021.08
582.285	933.02
582.483	1004.7
582.681	877.73
582.878	922.78
583.076	922.78
583.274	976.03
583.471	1107.1
583.669	937.12
583.866	867.49
584.064	875.68
584.262	771.23
584.459	857.25
584.657	826.53
584.854	838.81
585.052	918.68
585.249	828.57
585.447	855.2
585.644	756.9
585.841	804
586.039	806.05
586.236	810.14
586.434	709.79
586.631	713.89
586.828	588.96
587.026	738.46
587.223	599.2
587.42	545.95
587.618	750.75
587.815	679.07
588.012	689.31
588.21	574.63
588.407	619.68
588.604	701.6
588.801	638.11
588.999	666.78
589.196	775.33
589.393	627.87
589.59	531.62
589.787	636.06
589.984	556.19
590.182	586.91
590.379	437.41
590.576	595.11
590.773	650.4
590.97	582.82
591.167	572.58
591.364	605.35
591.561	574.63
591.758	695.46
591.955	586.91
592.152	607.39
592.349	513.19
592.546	541.86
592.743	541.86
592.94	545.95
593.137	570.53
593.334	621.73
593.531	552.1
593.727	644.26
593.924	609.44
594.121	562.34
594.318	511.14
594.515	562.34
594.712	730.27
594.908	722.08
595.105	474.28
595.302	584.87
595.499	576.67
595.696	709.79
595.892	492.71
596.089	707.74
596.286	525.47
596.482	789.66
596.679	709.79
596.876	623.78
597.072	711.84
597.269	631.97
597.466	763.04
597.662	697.5
597.859	777.37
598.055	801.95
598.252	814.24
598.448	873.63
598.645	935.07
598.841	865.44
599.038	1113.24
599.234	1086.62
599.431	1137.82
599.627	1016.99
599.824	980.12
600.02	1111.19
600.217	1119.39
600.413	1193.11
600.609	1301.65
600.806	1502.36
601.002	1275.03
601.198	1305.75
601.395	1457.3
601.591	1508.5
601.787	1565.84
601.984	1549.46
602.18	1643.67
602.376	1586.32
602.572	1881.23
602.769	1987.72
602.965	1809.55
603.161	1997.96
603.357	2075.79
603.553	2239.62
603.75	2045.07
603.946	2223.24
604.142	2364.55
604.338	2493.57
604.534	2532.48
604.73	2591.88
604.926	2626.69
605.122	2731.14
605.318	2778.24
605.514	3058.81
605.71	3079.29
605.906	3089.53
606.102	3136.63
606.298	3400.82
606.494	3550.32
606.69	3511.41
606.886	3519.6
607.082	3712.11
607.278	3710.07
607.474	3996.78
607.67	4064.36
607.866	4099.18
608.062	4301.93
608.257	4508.77
608.453	4441.19
608.649	4531.3
608.845	4654.18
609.041	4682.85
609.236	4918.37
609.432	5090.4
609.628	5385.3
609.824	5356.63
610.019	5461.08
610.215	5624.92
610.411	5837.91
610.606	6098
610.802	6001.74
610.998	6290.51
611.193	6435.91
611.389	6562.89
611.584	6874.18
611.78	6855.75
611.976	7216.19
612.171	7750.71
612.367	7298.11
612.562	7453.75
612.758	7740.47
612.953	7969.84
613.149	8356.91
613.344	8451.11
613.539	8813.6
613.735	8743.97
613.93	9268.25
614.126	9378.84
614.321	9604.12
614.517	10107.92
614.712	10066.96
614.907	10263.57
615.103	10753.03
615.298	10898.44
615.493	11166.72
615.688	11322.37
615.884	11822.07
616.079	11955.19
616.274	12577.77
616.47	12559.34
616.665	12764.14
616.86	13165.54
617.055	13521.88
617.25	13898.71
617.445	14312.4
617.641	14384.08
617.836	15207.36
618.031	15238.08
618.226	15991.73
618.421	16315.31
618.616	16733.1
618.811	16917.42
619.006	17427.36
619.201	17544.09
619.396	17920.92
619.591	18199.44
619.786	18822.03
619.981	18910.09
620.176	19731.33
620.371	19643.26
620.566	20523.89
620.761	20540.27
620.956	21263.21
621.151	21302.12
621.346	22074.2
621.541	22272.85
621.735	22995.79
621.93	23141.19
622.125	23870.27
622.32	23913.28
622.515	24509.24
622.709	24931.12
622.904	25424.68
623.099	25568.04
623.294	26448.66
623.488	26270.49
623.683	26944.27
623.878	27396.87
624.072	28244.73
624.267	28578.55
624.462	29076.21
624.656	29149.93
624.851	29799.14
625.046	29999.84
625.24	30370.52
625.435	30776.02
625.629	31396.56
625.824	31754.95
626.018	32563.9
626.213	32348.86
626.407	33004.21
626.602	33057.46
626.796	33563.31
626.991	34089.63
627.185	34280.1
627.38	33864.36
627.574	34265.76
627.768	34486.94
627.963	34867.86
628.157	35105.43
628.352	35433.1
628.546	34714.26
628.74	36039.3
628.935	35125.91
629.129	35510.92
629.323	34665.11
629.517	34986.64
629.712	34781.85
629.906	34734.74
630.1	34247.33
630.294	34011.81
630.489	33446.57
630.683	33381.04
630.877	32486.07
631.071	31939.27
631.265	31728.33
631.459	31099.6
631.653	30180.06
631.848	29793
632.042	29092.59
632.236	28666.61
632.43	27384.58
632.624	26942.22
632.818	26440.47
633.012	25361.19
633.206	24515.38
633.4	23933.76
633.594	23100.23
633.788	22303.57
633.982	21736.29
634.176	20945.77
634.369	19805.05
634.563	19415.94
634.757	18539.41
634.951	18310.04
635.145	17273.76
635.339	16485.3
635.533	15727.55
635.726	15414.21
635.92	14590.92
636.114	14132.18
636.308	13499.36
636.501	12975.08
636.695	12415.98
636.889	11752.44
637.083	11473.92
637.276	11080.71
637.47	10441.74
637.664	10069.01
637.857	9571.35
638.051	9280.54
638.244	8885.28
638.438	8432.68
638.632	8340.52
638.825	7564.34
639.019	7556.15
639.212	7142.46
639.406	7060.54
639.599	6620.23
639.793	6505.54
639.986	5889.1
640.18	6052.94
640.373	5737.56
640.567	5397.59
640.76	5254.23
640.954	5104.73
641.147	4873.31
641.34	4756.58
641.534	4553.83
641.727	4498.53
641.92	4232.3
642.114	4023.41
642.307	3818.61
642.5	3814.51
642.694	3449.97
642.887	3484.79
643.08	3404.92
643.273	3124.35
643.467	3163.26
643.66	2899.07
643.853	2698.37
644.046	2759.81
644.239	2487.43
644.432	2507.91
644.626	2286.73
644.819	2161.8
645.012	2288.78
645.205	2253.96
645.398	2169.99
645.591	1971.34
645.784	1883.28
645.977	1756.3
646.17	1696.91
646.363	1787.02
646.556	1612.95
646.749	1477.78
646.942	1547.41
647.135	1584.27
647.328	1440.92
647.521	1354.9
647.714	1182.87
647.907	1262.74
648.099	1139.87
648.292	1162.39
648.485	1131.67
648.678	1094.81
648.871	978.08
649.064	976.03
649.256	922.78
649.449	801.95
649.642	875.68
649.835	773.28
650.027	750.75
650.22	863.39
650.413	812.19
650.605	769.18
650.798	642.21
650.991	660.64
651.183	695.46
651.376	677.02
651.568	615.59
651.761	584.87
651.954	595.11
652.146	511.14
652.339	584.87
652.531	601.25
652.724	453.8
652.916	461.99
653.109	306.34
653.301	611.49
653.494	529.57
653.686	392.36
653.879	595.11
654.071	414.88
654.263	468.13
654.456	388.26
654.648	470.18
654.84	388.26
655.033	294.05
655.225	437.41
655.417	195.75
655.61	445.6
655.802	371.88
655.994	443.56
656.186	238.76
656.379	322.73
656.571	234.66
656.763	289.96
656.955	230.57
657.148	300.2
657.34	357.54
657.532	253.09
657.724	312.49
657.916	269.48
658.108	310.44
658.3	236.71
658.492	193.7
658.684	269.48
658.876	347.3
659.068	138.41
659.26	175.27
659.452	171.18
659.644	185.51
659.836	423.08
660.028	230.57
660.22	228.52
660.412	171.18
660.604	134.31
660.796	160.94
660.988	308.39
661.18	173.22
661.372	222.38
661.563	195.75
661.755	109.74
661.947	130.22
662.139	201.9
662.331	138.41
662.522	130.22
662.714	205.99
662.906	130.22
663.097	150.7
663.289	113.83
663.481	58.54
663.673	224.42
663.864	148.65
664.056	203.94
664.247	64.68
664.439	218.28
664.631	122.02
664.822	185.51
665.014	156.84
665.205	91.31
665.397	156.84
665.588	224.42
665.78	64.68
665.971	103.59
666.163	115.88
666.354	195.75
666.546	42.15
666.737	85.16
666.929	76.97
667.12	64.68
667.311	83.11
667.503	81.07
667.694	144.55
667.885	126.12
668.077	132.26
668.268	48.3
668.459	140.46
668.651	58.54
668.842	72.87
669.033	23.72
669.224	21.67
669.416	283.81
669.607	23.72
669.798	76.97
669.989	144.55
670.18	122.02
670.371	171.18
670.563	83.11
670.754	183.46
670.945	162.98
671.136	162.98
671.327	33.96
671.518	234.66
671.709	216.23
671.9	158.89
672.091	193.7
672.282	117.93
672.473	138.41
672.664	74.92
672.855	158.89
673.046	101.55
673.237	142.5
673.428	181.42
673.619	152.74
673.809	89.26
674	226.47
674.191	185.51
674.382	136.36
674.573	79.02
674.764	126.12
674.954	152.74
675.145	62.63
675.336	115.88
675.527	117.93
675.717	99.5
675.908	142.5
676.099	138.41
676.289	146.6
676.48	-37.72
676.671	189.61
676.861	130.22
677.052	122.02
677.243	117.93
677.433	58.54
677.624	228.52
677.814	136.36
678.005	99.5
678.195	238.76
678.386	40.11
678.576	44.2
678.767	126.12
678.957	33.96
679.148	228.52
679.338	298.15
679.529	201.9
679.719	160.94
679.909	246.95
680.1	244.9
680.29	208.04
680.481	87.21
680.671	205.99
680.861	265.38
681.052	154.79
681.242	150.7
681.432	265.38
681.622	208.04
681.813	103.59
682.003	177.32
682.193	111.78
682.383	175.27
682.573	158.89
682.764	165.03
682.954	167.08
683.144	320.68
683.334	171.18
683.524	175.27
683.714	238.76
683.904	201.9
684.094	138.41
684.284	177.32
684.474	238.76
684.664	199.85
684.854	228.52
685.044	134.31
685.234	177.32
685.424	267.43
685.614	95.4
685.804	267.43
685.994	230.57
686.184	212.14
686.374	257.19
686.564	269.48
686.753	179.37
686.943	134.31
687.133	240.81
687.323	249
687.513	154.79
687.702	167.08
687.892	81.07
688.082	271.53
688.272	232.62
688.461	126.12
688.651	312.49
688.841	240.81
689.03	154.79
689.22	130.22
689.41	263.33
689.599	218.28
689.789	277.67
689.979	351.4
690.168	156.84
690.358	271.53
690.547	285.86
690.737	128.17
690.926	205.99
691.116	226.47
691.305	269.48
691.495	205.99
691.684	79.02
691.874	144.55
692.063	119.98
692.252	242.85
692.442	328.87
692.631	160.94
692.82	208.04
693.01	205.99
693.199	169.13
693.388	156.84
693.578	158.89
693.767	205.99
693.956	216.23
694.146	173.22
694.335	281.77
694.524	154.79
694.713	294.05
694.902	246.95
695.092	62.63
695.281	214.18
695.47	230.57
695.659	148.65
695.848	156.84
696.037	144.55
696.226	224.42
696.415	60.59
696.604	246.95
696.793	220.33
696.982	154.79
697.171	392.36
697.36	173.22
697.549	208.04
697.738	76.97
697.927	126.12
698.116	79.02
698.305	162.98
698.494	146.6
698.683	187.56
698.872	339.11
699.061	216.23
699.25	115.88
699.438	236.71
699.627	181.42
699.816	326.82
700.005	60.59
700.193	175.27
700.382	222.38
700.571	183.46
700.76	294.05
700.948	224.42
701.137	230.57
701.326	199.85
701.514	89.26
701.703	148.65
701.892	162.98
702.08	306.34
702.269	138.41
702.457	117.93
702.646	226.47
702.834	201.9
703.023	218.28
703.212	244.9
703.4	253.09
703.589	183.46
703.777	197.8
703.965	148.65
704.154	158.89
704.342	74.92
704.531	185.51
704.719	150.7
704.907	324.77
705.096	193.7
705.284	132.26
705.472	224.42
705.661	183.46
705.849	234.66
706.037	191.66
706.226	138.41
706.414	195.75
706.602	134.31
706.79	228.52
706.979	238.76
707.167	189.61
707.355	60.59
707.543	173.22
707.731	292.01
707.919	195.75
708.107	140.46
708.296	66.73
708.484	132.26
708.672	185.51
708.86	228.52
709.048	187.56
709.236	44.2
709.424	203.94
709.612	167.08
709.8	64.68
709.988	210.09
710.176	244.9
710.364	218.28
710.551	150.7
710.739	173.22
710.927	132.26
711.115	158.89
711.303	193.7
711.491	283.81
711.679	158.89
711.866	230.57
712.054	191.66
712.242	152.74
712.43	324.77
712.617	128.17
712.805	214.18
712.993	185.51
713.181	54.44
713.368	232.62
713.556	224.42
713.744	124.07
713.931	337.06
714.119	222.38
714.306	197.8
714.494	142.5
714.682	181.42
714.869	136.36
715.057	171.18
715.244	42.15
715.432	249
715.619	154.79
715.807	130.22
715.994	111.78
716.182	253.09
716.369	246.95
716.556	234.66
716.744	134.31
716.931	60.59
717.119	140.46
717.306	167.08
717.493	271.53
717.681	148.65
717.868	138.41
718.055	228.52
718.242	281.77
718.43	236.71
718.617	371.88
718.804	146.6
718.991	263.33
719.179	205.99
719.366	226.47
719.553	208.04
719.74	154.79
719.927	160.94
720.114	199.85
720.301	150.7
720.488	208.04
720.676	117.93
720.863	251.05
721.05	339.11
721.237	173.22
721.424	199.85
721.611	285.86
721.798	113.83
721.985	162.98
722.172	99.5
722.358	179.37
722.545	265.38
722.732	208.04
722.919	378.02
723.106	226.47
723.293	220.33
723.48	214.18
723.667	113.83
723.853	339.11
724.04	306.34
724.227	251.05
724.414	193.7
724.6	263.33
724.787	283.81
724.974	279.72
725.161	302.25
725.347	160.94
725.534	244.9
725.72	275.62
725.907	304.29
726.094	285.86
726.28	222.38
726.467	195.75
726.653	197.8
726.84	306.34
727.027	361.64
727.213	224.42
727.4	322.73
727.586	232.62
727.773	232.62
727.959	232.62
728.145	189.61
728.332	173.22
728.518	115.88
728.705	320.68
728.891	220.33
729.077	306.34
729.264	152.74
729.45	232.62
729.636	402.6
729.823	335.01
730.009	246.95
730.195	255.14
730.382	269.48
730.568	173.22
730.754	216.23
730.94	249
731.126	220.33
731.313	308.39
731.499	212.14
731.685	369.83
731.871	316.58
732.057	285.86
732.243	259.24
732.429	281.77
732.615	341.16
732.801	310.44
732.987	218.28
733.173	251.05
733.359	230.57
733.545	324.77
733.731	259.24
733.917	369.83
734.103	255.14
734.289	314.53
734.475	156.84
734.661	351.4
734.847	242.85
735.033	269.48
735.219	242.85
735.404	281.77
735.59	261.29
735.776	298.15
735.962	226.47
736.148	265.38
736.333	369.83
736.519	240.81
736.705	279.72
736.89	289.96
737.076	251.05
737.262	335.01
737.447	257.19
737.633	263.33
737.819	382.12
738.004	259.24
738.19	218.28
738.375	205.99
738.561	304.29
738.747	251.05
738.932	253.09
739.118	396.45
739.303	382.12
739.489	353.45
739.674	214.18
739.859	253.09
740.045	320.68
740.23	177.32
740.416	81.07
740.601	283.81
740.786	267.43
740.972	177.32
741.157	152.74
741.342	228.52
741.528	162.98
741.713	328.87
741.898	214.18
742.084	224.42
742.269	261.29
742.454	179.37
742.639	283.81
742.824	275.62
743.01	322.73
743.195	382.12
743.38	302.25
743.565	240.81
743.75	261.29
743.935	312.49
744.12	347.3
744.305	205.99
744.49	275.62
744.675	251.05
744.86	146.6
745.045	289.96
745.23	113.83
745.415	255.14
745.6	345.25
745.785	210.09
745.97	355.49
746.155	208.04
746.34	289.96
746.525	267.43
746.71	318.63
746.895	167.08
747.079	189.61
747.264	234.66
747.449	285.86
747.634	269.48
747.819	197.8
748.003	201.9
748.188	81.07
748.373	218.28
748.557	240.81
748.742	304.29
748.927	240.81
749.111	208.04
749.296	238.76
749.481	300.2
749.665	150.7
749.85	144.55
750.034	265.38
750.219	308.39
750.404	156.84
750.588	251.05
750.773	224.42
750.957	148.65
751.141	156.84
751.326	246.95
751.51	216.23
751.695	154.79
751.879	162.98
752.064	261.29
752.248	244.9
752.432	298.15
752.617	216.23
752.801	339.11
752.985	177.32
753.17	197.8
753.354	185.51
753.538	146.6
753.722	128.17
753.907	249
754.091	130.22
754.275	261.29
754.459	185.51
754.643	210.09
754.828	242.85
755.012	205.99
755.196	105.64
755.38	212.14
755.564	62.63
755.748	128.17
755.932	160.94
756.116	87.21
756.3	152.74
756.484	97.45
756.668	132.26
756.852	138.41
757.036	76.97
757.22	148.65
757.404	150.7
757.588	85.16
757.772	195.75
757.956	99.5
758.14	216.23
758.323	105.64
758.507	234.66
758.691	52.39
758.875	218.28
759.059	224.42
759.242	70.83
759.426	179.37
759.61	117.93
759.794	17.58
759.977	175.27
760.161	322.73
760.345	158.89
760.528	197.8
760.712	128.17
760.895	201.9
761.079	158.89
761.263	21.67
761.446	228.52
761.63	93.35
761.813	216.23
761.997	-29.52
762.18	79.02
762.364	175.27
762.547	91.31
762.731	29.87
762.914	85.16
763.098	72.87
763.281	87.21
763.464	95.4
763.648	95.4
763.831	54.44
764.015	50.35
764.198	171.18
764.381	72.87
764.564	27.82
764.748	136.36
764.931	191.66
765.114	109.74
765.297	185.51
765.481	48.3
765.664	62.63
765.847	25.77
766.03	117.93
766.213	46.25
766.397	95.4
766.58	44.2
766.763	107.69
766.946	46.25
767.129	93.35
767.312	99.5
767.495	83.11
767.678	3.24
767.861	111.78
768.044	87.21
768.227	58.54
768.41	25.77
768.593	140.46
768.776	113.83
768.959	62.63
769.142	205.99
769.324	85.16
769.507	68.78
769.69	58.54
769.873	42.15
770.056	283.81
770.239	101.55
770.421	185.51
770.604	79.02
770.787	68.78
770.97	103.59
771.152	-13.14
771.335	124.07
771.518	7.34
771.7	130.22
771.883	140.46
772.066	36.01
772.248	111.78
772.431	144.55
772.613	107.69
772.796	42.15
772.978	165.03
773.161	175.27
773.343	85.16
773.526	-27.48
773.708	-7
773.891	25.77
774.073	42.15
774.256	-9.05
774.438	205.99
774.621	-4.95
774.803	93.35
774.985	29.87
775.168	115.88
775.35	27.82
775.532	142.5
775.715	5.29
775.897	-19.29
776.079	27.82
776.261	74.92
776.444	13.48
776.626	52.39
776.808	76.97
776.99	-11.09
777.173	64.68
777.355	1.19
777.537	25.77
777.719	99.5
777.901	-43.86
778.083	-19.29
778.265	-39.76
778.447	79.02
778.629	13.48
778.811	72.87
778.993	25.77
779.175	113.83
779.357	68.78
779.539	-101.2
779.721	-43.86
779.903	113.83
780.085	-11.09
780.267	83.11
780.449	66.73
780.631	109.74
780.812	128.17
780.994	101.55
781.176	54.44
781.358	-29.52
781.54	87.21
781.721	31.91
781.903	144.55
782.085	29.87
782.267	89.26
782.448	25.77
782.63	29.87
782.812	31.91
782.993	107.69
783.175	89.26
783.357	17.58
783.538	79.02
783.72	-58.2
783.901	7.34
784.083	36.01
784.264	91.31
784.446	-125.78
784.627	-41.81
784.809	95.4
784.99	-9.05
785.172	81.07
785.353	-25.43
785.535	111.78
785.716	-15.19
785.897	-56.15
786.079	44.2
786.26	99.5
786.441	87.21
786.623	-90.96
786.804	-21.33
786.985	27.82
787.167	44.2
787.348	-72.53
787.529	31.91
787.71	173.22
787.891	13.48
788.073	-37.72
788.254	-7
788.435	183.46
788.616	95.4
788.797	-21.33
788.978	-41.81
789.159	7.34
789.34	103.59
789.522	-2.9
789.703	-52.05
789.884	144.55
790.065	-7
790.246	185.51
790.427	21.67
790.607	70.83
790.788	52.39
790.969	17.58
791.15	48.3
791.331	-88.92
791.512	-70.48
791.693	11.43
791.874	-56.15
792.054	208.04
792.235	40.11
792.416	-129.88
792.597	-4.95
792.778	46.25
792.958	1.19
793.139	-17.24
793.32	-70.48
793.5	-47.96
793.681	72.87
793.862	76.97
794.042	-11.09
794.223	-164.69
794.404	11.43
794.584	-113.49
794.765	-47.96
794.945	95.4
795.126	21.67
795.306	46.25
795.487	3.24
795.667	-31.57
795.848	-43.86
796.028	-39.76
796.209	29.87
796.389	46.25
796.57	-13.14
796.75	-93.01
796.93	-25.43
797.111	-37.72
797.291	-43.86
797.471	97.45
797.652	-52.05
797.832	-86.87
798.012	62.63
798.192	-54.1
798.373	-88.92
798.553	3.24
798.733	-23.38
798.913	-74.58
799.093	-21.33
799.274	27.82
799.454	93.35
799.634	33.96
799.814	52.39
799.994	46.25
800.174	33.96
800.354	46.25
800.534	-64.34
800.714	83.11
800.894	-107.35
801.074	-23.38
801.254	-111.44
801.434	105.64
801.614	-41.81
801.794	-76.63
801.974	1934.48
802.154	-4.95
802.334	-21.33
802.514	-17.24
802.693	-56.15
802.873	54.44
803.053	111.78
803.233	58.54
803.413	-84.82
803.592	-19.29
803.772	21.67
803.952	-41.81
804.131	-105.3
804.311	91.31
804.491	76.97
804.67	-78.68
804.85	-45.91
805.03	103.59
805.209	-4.95
805.389	-64.34
805.568	-43.86
805.748	-37.72
805.928	-88.92
806.107	72.87
806.287	31.91
806.466	-27.48
806.646	-31.57
806.825	19.63
807.004	-45.91
807.184	-11.09
807.363	95.4
807.543	81.07
807.722	-33.62
807.901	68.78
808.081	134.31
808.26	-138.07
808.439	25.77
808.619	-4.95
808.798	-37.72
808.977	36.01
809.156	56.49
809.336	29.87
809.515	-35.67
809.694	-37.72
809.873	-47.96
810.052	-4.95
810.231	124.07
810.411	54.44
810.59	44.2
810.769	-31.57
810.948	72.87
811.127	-164.69
811.306	-93.01
811.485	-35.67
811.664	87.21
811.843	-25.43
812.022	-50
812.201	-27.48
812.38	-39.76
812.559	-86.87
812.737	50.35
812.916	-119.64
813.095	-66.39
813.274	17.58
813.453	-9.05
813.632	-43.86
813.811	66.73
813.989	-109.4
814.168	44.2
814.347	-72.53
814.526	11.43
814.704	113.83
814.883	-13.14
815.062	-76.63
815.24	-4.95
815.419	-60.24
815.598	-11.09
815.776	-84.82
815.955	-0.85
816.133	-133.97
816.312	-39.76
816.49	-88.92
816.669	-25.43
816.847	-47.96
817.026	-4.95
817.204	-76.63
817.383	17.58
817.561	-62.29
817.74	31.91
817.918	11.43
818.097	-64.34
818.275	-86.87
818.453	38.06
818.632	5.29
818.81	-25.43
818.988	-41.81
819.167	-99.16
819.345	23.72
819.523	-39.76
819.701	-39.76
819.879	11.43
820.058	50.35
820.236	21.67
820.414	9.39
820.592	-15.19
820.77	25.77
820.948	5.29
821.127	-99.16
821.305	27.82
821.483	-103.25
821.661	85.16
821.839	31.91
822.017	-72.53
822.195	-27.48
822.373	44.2
822.551	21.67
822.729	-4.95
822.907	-21.33
823.085	74.92
823.262	-11.09
823.44	-101.2
823.618	-93.01
823.796	1.19
823.974	-47.96
824.152	-37.72
824.329	-74.58
824.507	-62.29
824.685	21.67
824.863	-78.68
825.04	-62.29
825.218	9.39
825.396	21.67
825.574	-11.09
825.751	-29.52
825.929	93.35
826.107	-99.16
826.284	-62.29
826.462	93.35
826.639	3.24
826.817	-11.09
826.994	-4.95
827.172	-170.83
827.349	144.55
827.527	5.29
827.704	-0.85
827.882	60.59
828.059	-35.67
828.237	-115.54
828.414	-39.76
828.591	-74.58
828.769	-13.14
828.946	-39.76
829.124	13.48
829.301	66.73
829.478	-93.01
829.655	-25.43
829.833	29.87
830.01	-62.29
830.187	52.39
830.364	-113.49
830.542	-58.2
830.719	87.21
830.896	27.82
831.073	74.92
831.25	31.91
831.427	68.78
831.604	15.53
831.782	-66.39
831.959	-50
832.136	-25.43
832.313	5.29
832.49	-131.92
832.667	21.67
832.844	-152.4
833.021	93.35
833.198	-43.86
833.374	1.19
833.551	-52.05
833.728	-39.76
833.905	60.59
834.082	-97.11
834.259	-41.81
834.436	54.44
834.612	-19.29
834.789	46.25
834.966	-25.43
835.143	3.24
835.319	-121.68
835.496	-0.85
835.673	33.96
835.85	68.78
836.026	36.01
836.203	19.63
836.38	-93.01
836.556	-47.96
836.733	-19.29
836.909	136.36
837.086	-21.33
837.262	-172.88
837.439	-13.14
837.616	-76.63
837.792	-72.53
837.968	-15.19
838.145	-66.39
838.321	-11.09
838.498	23.72
838.674	-58.2
838.851	-60.24
839.027	15.53
839.203	38.06
839.38	17.58
839.556	-15.19
839.732	5.29
839.909	-142.16
840.085	44.2
840.261	-74.58
840.437	-29.52
840.614	-113.49
840.79	17.58
840.966	-7
841.142	-88.92
841.318	-121.68
841.494	70.83
841.671	70.83
841.847	-43.86
842.023	-76.63
842.199	25.77
842.375	15.53
842.551	-154.45
842.727	-72.53
842.903	126.12
843.079	-97.11
843.255	81.07
843.431	7.34
843.607	-41.81
843.783	-199.51
843.959	58.54
844.134	-68.44
844.31	60.59
844.486	-9.05
844.662	-136.02
844.838	-21.33
845.013	-37.72
845.189	1.19
845.365	21.67
845.541	-54.1
845.716	-23.38
845.892	46.25
846.068	-62.29
846.244	11.43
846.419	-23.38
846.595	-113.49
846.77	-103.25
846.946	99.5
847.122	-47.96
847.297	19.63
847.473	68.78
847.648	-115.54
847.824	-52.05
847.999	-84.82
848.175	-86.87
848.35	17.58
848.526	62.63
848.701	3.24
848.876	46.25
849.052	-13.14
849.227	-62.29
849.403	1.19
849.578	-43.86
849.753	-15.19
849.929	-27.48
850.104	-138.07
850.279	1.19
850.454	-27.48
850.63	21.67
850.805	60.59
850.98	-29.52
851.155	-82.77
851.33	27.82
851.505	-88.92
851.681	79.02
851.856	-60.24
852.031	23.72
852.206	-21.33
852.381	-129.88
852.556	-52.05
852.731	-33.62
852.906	-4.95
853.081	9.39
853.256	66.73
853.431	-27.48
853.606	-33.62
853.781	-31.57
853.956	-121.68
854.131	-17.24
854.305	-41.81
854.48	-58.2
854.655	-33.62
854.83	-43.86
855.005	-84.82
855.18	25.77
855.354	-62.29
855.529	56.49
855.704	-33.62
855.879	11.43
856.053	-90.96
856.228	-4.95
856.403	-43.86
856.577	81.07
856.752	-109.4
856.926	-33.62
857.101	38.06
857.276	-142.16
857.45	36.01
857.625	60.59
857.799	-17.24
857.974	11.43
858.148	-209.75
858.323	54.44
858.497	-29.52
858.672	-93.01
858.846	-117.59
859.02	-11.09
859.195	-43.86
859.369	-84.82
859.543	13.48
859.718	-84.82
859.892	11.43
860.066	-60.24
860.241	-76.63
860.415	-80.72
860.589	-60.24
860.763	-37.72
860.938	-66.39
861.112	-45.91
861.286	-52.05
861.46	-43.86
861.634	-39.76
861.808	-35.67
861.982	-62.29
862.157	-93.01
862.331	-62.29
862.505	-109.4
862.679	-47.96
862.853	-60.24
863.027	-95.06
863.201	165.03
863.375	-13.14
863.549	31.91
863.722	33.96
863.896	64.68
864.07	-68.44
864.244	-27.48
864.418	11.43
864.592	-93.01
864.766	-68.44
864.939	27.82
865.113	-41.81
865.287	48.3
865.461	-35.67
865.634	-93.01
865.808	31.91
865.982	-97.11
866.156	-23.38
866.329	-119.64
866.503	-80.72
866.676	50.35
866.85	-115.54
867.024	-50
867.197	44.2
867.371	11.43
867.544	-19.29
867.718	-129.88
867.891	42.15
868.065	-119.64
868.238	44.2
868.412	60.59
868.585	-45.91
868.759	-78.68
868.932	-148.31
869.105	-154.45
869.279	13.48
869.452	-43.86
869.625	-7
869.799	-93.01
869.972	-43.86
870.145	-64.34
870.319	31.91
870.492	-127.83
870.665	-15.19
870.838	-84.82
871.011	-158.55
871.185	3.24
871.358	-62.29
871.531	1.19
871.704	-7
871.877	5.29
872.05	-47.96
872.223	-166.74
872.396	-15.19
872.569	11.43
872.742	-70.48
872.915	-13.14
873.088	-39.76
873.261	-25.43
873.434	11.43
873.607	-9.05
873.78	29.87
873.953	-123.73
874.126	70.83
874.299	-21.33
874.471	-50
874.644	-11.09
874.817	46.25
874.99	122.02
875.163	-50
875.335	17.58
875.508	-19.29
875.681	126.12
875.853	-70.48
876.026	-129.88
876.199	42.15
876.371	-4.95
876.544	-7
876.717	54.44
876.889	19.63
877.062	-13.14
877.234	-115.54
877.407	-66.39
877.579	50.35
877.752	-105.3
877.924	56.49
878.097	3.24
878.269	58.54
878.442	-35.67
878.614	-23.38
878.786	-35.67
878.959	-23.38
879.131	-23.38
879.303	-146.26
879.476	-82.77
879.648	1.19
879.82	-33.62
879.993	-86.87
880.165	-19.29
880.337	-60.24
880.509	-33.62
880.681	-45.91
880.854	-107.35
881.026	36.01
881.198	31.91
881.37	-0.85
881.542	-95.06
881.714	1.19
881.886	-23.38
882.058	13.48
882.23	27.82
882.402	-17.24
882.574	-56.15
882.746	-27.48
882.918	101.55
883.09	38.06
883.262	-11.09
883.434	-19.29
883.606	-54.1
883.778	3.24
883.95	-35.67
884.122	-43.86
884.293	-15.19
884.465	-56.15
884.637	97.45
884.809	-25.43
884.98	25.77
885.152	44.2
885.324	3.24
885.496	-54.1
885.667	-76.63
885.839	-15.19
886.011	126.12
886.182	-7
886.354	64.68
886.525	-21.33
886.697	31.91
886.869	-33.62
887.04	-103.25
887.212	48.3
887.383	134.31
887.555	-2.9
887.726	-66.39
887.897	-64.34
888.069	-82.77
888.24	109.74
888.412	-70.48
888.583	-39.76
888.754	36.01
888.926	-168.79
889.097	40.11
889.268	-101.2
889.44	-62.29
889.611	-37.72
889.782	-154.45
889.953	-78.68
890.125	105.64
890.296	-115.54
890.467	-60.24
890.638	-107.35
890.809	-52.05
890.98	-9.05
891.151	33.96
891.323	46.25
891.494	23.72
891.665	42.15
891.836	-80.72
892.007	-9.05
892.178	-78.68
892.349	-15.19
892.52	-58.2
892.691	-25.43
892.862	-54.1
893.032	-168.79
893.203	-99.16
893.374	-4.95
893.545	62.63
893.716	-58.2
893.887	-4.95
894.057	-107.35
894.228	-62.29
894.399	3.24
894.57	97.45
894.74	-0.85
894.911	21.67
895.082	-60.24
895.253	-84.82
895.423	-66.39
895.594	-11.09
895.764	-25.43
895.935	-107.35
896.106	25.77
896.276	-90.96
896.447	-23.38
896.617	-80.72
896.788	-70.48
896.958	-125.78
897.129	-103.25
897.299	-136.02
897.47	48.3
897.64	31.91
897.81	-47.96
897.981	3.24
898.151	-68.44
898.322	-2.9
898.492	31.91
898.662	-88.92
898.832	-131.92
899.003	-142.16
899.173	-43.86
899.343	-54.1
899.513	-129.88
