Data from USB4F104151__88__10-44-38-367.txt Node

Date: Wed Feb 26 10:44:38 EST 2025
User: louis
Spectrometer: USB4F10415
Trigger mode: 4
Integration Time (sec): 1.000000E-1
Scans to average: 1
Electric dark correction enabled: true
Nonlinearity correction enabled: false
Boxcar width: 0
XAxis mode: Wavelengths
Number of Pixels in Spectrum: 3648
>>>>>Begin Spectral Data<<<<<
178.204	-394.23
178.424	-394.23
178.644	-394.23
178.864	-386.04
179.084	-359.42
179.304	-60.42
179.524	-9.22
179.744	-23.55
179.964	52.22
180.184	-5.12
180.404	74.75
180.624	-31.74
180.844	-15.36
181.064	-46.08
181.283	-17.41
181.503	-33.79
181.723	115.71
181.943	-91.13
182.163	76.8
182.383	68.61
182.602	48.13
182.822	136.19
183.042	54.27
183.262	-15.36
183.482	-41.98
183.701	5.12
183.921	68.61
184.141	-3.07
184.361	103.42
184.58	58.37
184.8	1.02
185.02	-31.74
185.239	113.66
185.459	44.03
185.679	107.52
185.898	-82.94
186.118	74.75
186.338	58.37
186.557	68.61
186.777	5.12
186.997	-93.18
187.216	150.53
187.436	209.92
187.655	62.46
187.875	146.43
188.095	33.79
188.314	132.09
188.534	103.42
188.753	-41.98
188.973	60.42
189.192	138.24
189.412	3.07
189.631	-9.22
189.851	95.23
190.07	132.09
190.29	21.5
190.509	82.94
190.729	66.56
190.948	140.29
191.168	211.96
191.387	89.09
191.607	-11.26
191.826	76.8
192.045	27.65
192.265	-103.42
192.484	68.61
192.704	3.07
192.923	-21.5
193.142	132.09
193.362	99.33
193.581	132.09
193.8	58.37
194.02	103.42
194.239	68.61
194.458	35.84
194.678	54.27
194.897	-9.22
195.116	25.6
195.335	66.56
195.555	41.98
195.774	21.5
195.993	130.05
196.212	-39.94
196.432	37.89
196.651	-29.7
196.87	84.99
197.089	295.93
197.308	103.42
197.528	74.75
197.747	13.31
197.966	62.46
198.185	121.85
198.404	-44.03
198.623	91.13
198.842	95.23
199.062	80.89
199.281	146.43
199.5	89.09
199.719	121.85
199.938	91.13
200.157	66.56
200.376	33.79
200.595	27.65
200.814	39.94
201.033	19.46
201.252	205.82
201.471	58.37
201.69	70.65
201.909	72.7
202.128	195.58
202.347	89.09
202.566	-80.89
202.785	-31.74
203.004	-3.07
203.223	195.58
203.442	58.37
203.661	-44.03
203.879	78.85
204.098	195.58
204.317	52.22
204.536	177.15
204.755	117.76
204.974	39.94
205.193	27.65
205.411	193.53
205.63	95.23
205.849	93.18
206.068	-17.41
206.287	3.07
206.505	146.43
206.724	-9.22
206.943	-37.89
207.162	25.6
207.381	103.42
207.599	70.65
207.818	82.94
208.037	-78.85
208.255	64.51
208.474	19.46
208.693	-1.02
208.911	9.22
209.13	156.67
209.349	111.61
209.567	25.6
209.786	97.28
210.005	80.89
210.223	39.94
210.442	-82.94
210.661	37.89
210.879	37.89
211.098	21.5
211.316	23.55
211.535	84.99
211.753	46.08
211.972	46.08
212.191	-54.27
212.409	19.46
212.628	37.89
212.846	70.65
213.065	1.02
213.283	115.71
213.502	41.98
213.72	-11.26
213.938	37.89
214.157	23.55
214.375	136.19
214.594	7.17
214.812	162.81
215.031	13.31
215.249	23.55
215.467	52.22
215.686	93.18
215.904	66.56
216.122	87.04
216.341	226.3
216.559	-23.55
216.778	111.61
216.996	132.09
217.214	101.37
217.432	48.13
217.651	-66.56
217.869	33.79
218.087	19.46
218.306	-19.46
218.524	37.89
218.742	35.84
218.96	132.09
219.179	-27.65
219.397	17.41
219.615	248.83
219.833	64.51
220.051	5.12
220.27	125.95
220.488	130.05
220.706	125.95
220.924	-7.17
221.142	-17.41
221.36	91.13
221.578	56.32
221.796	31.74
222.015	41.98
222.233	29.7
222.451	187.39
222.669	-60.42
222.887	95.23
223.105	68.61
223.323	72.7
223.541	19.46
223.759	50.18
223.977	54.27
224.195	138.24
224.413	134.14
224.631	46.08
224.849	15.36
225.067	185.34
225.285	-21.5
225.503	29.7
225.721	-113.66
225.939	3.07
226.157	64.51
226.375	248.83
226.592	39.94
226.81	44.03
227.028	78.85
227.246	117.76
227.464	5.12
227.682	117.76
227.9	23.55
228.117	74.75
228.335	128
228.553	-3.07
228.771	33.79
228.989	103.42
229.206	128
229.424	58.37
229.642	-25.6
229.86	-13.31
230.077	195.58
230.295	109.57
230.513	148.48
230.731	87.04
230.948	144.38
231.166	113.66
231.384	33.79
231.601	-15.36
231.819	166.91
232.037	5.12
232.254	-21.5
232.472	-7.17
232.689	-5.12
232.907	64.51
233.125	35.84
233.342	-3.07
233.56	-15.36
233.777	41.98
233.995	72.7
234.213	99.33
234.43	52.22
234.648	-15.36
234.865	76.8
235.083	132.09
235.3	17.41
235.518	66.56
235.735	230.4
235.953	152.57
236.17	17.41
236.388	-7.17
236.605	91.13
236.822	107.52
237.04	193.53
237.257	1.02
237.475	23.55
237.692	-11.26
237.909	175.1
238.127	-21.5
238.344	134.14
238.562	72.7
238.779	-58.37
238.996	7.17
239.214	44.03
239.431	91.13
239.648	-33.79
239.865	70.65
240.083	107.52
240.3	17.41
240.517	101.37
240.735	9.22
240.952	175.1
241.169	84.99
241.386	117.76
241.603	39.94
241.821	-44.03
242.038	99.33
242.255	41.98
242.472	-54.27
242.689	80.89
242.907	76.8
243.124	62.46
243.341	39.94
243.558	39.94
243.775	-9.22
243.992	-68.61
244.209	164.86
244.426	271.36
244.643	33.79
244.86	39.94
245.078	39.94
245.295	-11.26
245.512	-58.37
245.729	25.6
245.946	17.41
246.163	44.03
246.38	-13.31
246.597	62.46
246.814	76.8
247.031	56.32
247.248	-3.07
247.464	82.94
247.681	-27.65
247.898	72.7
248.115	89.09
248.332	-5.12
248.549	136.19
248.766	171.01
248.983	15.36
249.2	97.28
249.417	111.61
249.633	9.22
249.85	101.37
250.067	29.7
250.284	52.22
250.501	54.27
250.717	136.19
250.934	-17.41
251.151	62.46
251.368	74.75
251.585	66.56
251.801	-11.26
252.018	9.22
252.235	50.18
252.451	1.02
252.668	66.56
252.885	91.13
253.102	93.18
253.318	35.84
253.535	39.94
253.752	-19.46
253.968	37.89
254.185	-76.8
254.401	132.09
254.618	66.56
254.835	-64.51
255.051	109.57
255.268	111.61
255.484	25.6
255.701	46.08
255.917	74.75
256.134	-78.85
256.351	-3.07
256.567	-27.65
256.784	33.79
257	-80.89
257.217	82.94
257.433	113.66
257.65	64.51
257.866	160.77
258.082	-9.22
258.299	-17.41
258.515	64.51
258.732	7.17
258.948	19.46
259.165	21.5
259.381	-5.12
259.597	25.6
259.814	-5.12
260.03	33.79
260.246	-95.23
260.463	158.72
260.679	168.96
260.895	33.79
261.112	91.13
261.328	82.94
261.544	9.22
261.761	91.13
261.977	-68.61
262.193	-78.85
262.409	101.37
262.626	52.22
262.842	50.18
263.058	50.18
263.274	56.32
263.49	80.89
263.707	87.04
263.923	91.13
264.139	-48.13
264.355	103.42
264.571	84.99
264.787	173.05
265.004	27.65
265.22	21.5
265.436	13.31
265.652	-44.03
265.868	91.13
266.084	-29.7
266.3	95.23
266.516	-70.65
266.732	13.31
266.948	39.94
267.164	7.17
267.38	154.62
267.596	37.89
267.812	107.52
268.028	121.85
268.244	-41.98
268.46	1.02
268.676	31.74
268.892	21.5
269.108	-7.17
269.324	-21.5
269.54	-5.12
269.756	150.53
269.972	-27.65
270.188	66.56
270.403	3.07
270.619	7.17
270.835	121.85
271.051	76.8
271.267	-9.22
271.483	-1.02
271.698	82.94
271.914	76.8
272.13	27.65
272.346	44.03
272.562	48.13
272.777	164.86
272.993	-68.61
273.209	1.02
273.425	87.04
273.64	19.46
273.856	93.18
274.072	-21.5
274.287	-13.31
274.503	103.42
274.719	48.13
274.934	-46.08
275.15	-58.37
275.366	41.98
275.581	-29.7
275.797	113.66
276.012	31.74
276.228	35.84
276.444	54.27
276.659	177.15
276.875	-7.17
277.09	101.37
277.306	70.65
277.521	76.8
277.737	5.12
277.952	128
278.168	1.02
278.383	23.55
278.599	-7.17
278.814	46.08
279.03	105.47
279.245	199.68
279.461	-5.12
279.676	54.27
279.892	-31.74
280.107	-13.31
280.322	-70.65
280.538	107.52
280.753	-54.27
280.969	70.65
281.184	54.27
281.399	111.61
281.615	25.6
281.83	9.22
282.045	-21.5
282.26	9.22
282.476	5.12
282.691	66.56
282.906	23.55
283.122	117.76
283.337	-39.94
283.552	111.61
283.767	72.7
283.983	91.13
284.198	54.27
284.413	1.02
284.628	-41.98
284.843	39.94
285.058	64.51
285.274	58.37
285.489	-25.6
285.704	164.86
285.919	31.74
286.134	33.79
286.349	35.84
286.564	-25.6
286.779	138.24
286.995	-29.7
287.21	-105.47
287.425	62.46
287.64	-29.7
287.855	64.51
288.07	15.36
288.285	58.37
288.5	152.57
288.715	33.79
288.93	-9.22
289.145	-5.12
289.36	60.42
289.575	39.94
289.79	95.23
290.004	31.74
290.219	105.47
290.434	33.79
290.649	39.94
290.864	-44.03
291.079	-11.26
291.294	93.18
291.509	35.84
291.724	-3.07
291.938	31.74
292.153	60.42
292.368	39.94
292.583	58.37
292.798	68.61
293.012	125.95
293.227	31.74
293.442	66.56
293.657	150.53
293.871	125.95
294.086	134.14
294.301	185.34
294.516	175.1
294.73	-7.17
294.945	29.7
295.16	82.94
295.374	109.57
295.589	195.58
295.804	-15.36
296.018	35.84
296.233	93.18
296.447	62.46
296.662	41.98
296.877	107.52
297.091	166.91
297.306	41.98
297.52	15.36
297.735	72.7
297.949	-1.02
298.164	35.84
298.378	48.13
298.593	-19.46
298.807	-25.6
299.022	29.7
299.236	168.96
299.451	54.27
299.665	48.13
299.88	140.29
300.094	37.89
300.309	44.03
300.523	82.94
300.737	1.02
300.952	37.89
301.166	15.36
301.381	25.6
301.595	-5.12
301.809	13.31
302.024	107.52
302.238	-78.85
302.452	128
302.667	132.09
302.881	121.85
303.095	130.05
303.309	46.08
303.524	-13.31
303.738	-3.07
303.952	-9.22
304.166	66.56
304.381	-148.48
304.595	111.61
304.809	-19.46
305.023	-1.02
305.237	48.13
305.452	1.02
305.666	7.17
305.88	87.04
306.094	97.28
306.308	60.42
306.522	64.51
306.736	125.95
306.95	70.65
307.164	23.55
307.379	66.56
307.593	175.1
307.807	123.9
308.021	58.37
308.235	115.71
308.449	-87.04
308.663	62.46
308.877	197.63
309.091	72.7
309.305	-7.17
309.519	-64.51
309.733	117.76
309.947	-56.32
310.161	74.75
310.374	132.09
310.588	148.48
310.802	-7.17
311.016	37.89
311.23	58.37
311.444	-27.65
311.658	101.37
311.872	91.13
312.085	156.67
312.299	68.61
312.513	87.04
312.727	80.89
312.941	-5.12
313.154	78.85
313.368	74.75
313.582	87.04
313.796	64.51
314.009	13.31
314.223	103.42
314.437	97.28
314.651	50.18
314.864	-13.31
315.078	13.31
315.292	-29.7
315.505	7.17
315.719	121.85
315.933	48.13
316.146	3.07
316.36	9.22
316.573	154.62
316.787	48.13
317.001	119.81
317.214	-52.22
317.428	29.7
317.641	-60.42
317.855	-15.36
318.068	95.23
318.282	48.13
318.495	134.14
318.709	70.65
318.922	54.27
319.136	123.9
319.349	138.24
319.563	-35.84
319.776	64.51
319.99	-70.65
320.203	27.65
320.417	68.61
320.63	66.56
320.843	254.97
321.057	52.22
321.27	58.37
321.483	41.98
321.697	113.66
321.91	54.27
322.124	50.18
322.337	72.7
322.55	15.36
322.763	1.02
322.977	27.65
323.19	5.12
323.403	60.42
323.617	84.99
323.83	23.55
324.043	11.26
324.256	97.28
324.469	-52.22
324.683	62.46
324.896	62.46
325.109	66.56
325.322	-58.37
325.535	74.75
325.748	158.72
325.962	-9.22
326.175	54.27
326.388	19.46
326.601	142.33
326.814	-1.02
327.027	82.94
327.24	150.53
327.453	-134.14
327.666	158.72
327.879	105.47
328.092	68.61
328.305	68.61
328.518	-19.46
328.731	19.46
328.944	-56.32
329.157	82.94
329.37	7.17
329.583	162.81
329.796	130.05
330.009	-29.7
330.222	95.23
330.435	62.46
330.648	3.07
330.861	25.6
331.073	13.31
331.286	48.13
331.499	46.08
331.712	-54.27
331.925	-1.02
332.138	50.18
332.35	107.52
332.563	39.94
332.776	162.81
332.989	-64.51
333.202	84.99
333.414	-9.22
333.627	15.36
333.84	27.65
334.053	33.79
334.265	31.74
334.478	-19.46
334.691	68.61
334.903	89.09
335.116	37.89
335.329	58.37
335.541	54.27
335.754	222.2
335.966	7.17
336.179	1.02
336.392	-27.65
336.604	11.26
336.817	13.31
337.029	3.07
337.242	54.27
337.454	136.19
337.667	-3.07
337.88	103.42
338.092	89.09
338.305	89.09
338.517	-7.17
338.729	109.57
338.942	99.33
339.154	-99.33
339.367	7.17
339.579	80.89
339.792	-3.07
340.004	66.56
340.217	-23.55
340.429	97.28
340.641	-33.79
340.854	-19.46
341.066	-25.6
341.278	193.53
341.491	164.86
341.703	50.18
341.915	-21.5
342.128	84.99
342.34	58.37
342.552	-15.36
342.764	60.42
342.977	70.65
343.189	87.04
343.401	33.79
343.613	-21.5
343.826	140.29
344.038	-5.12
344.25	21.5
344.462	21.5
344.674	64.51
344.886	-33.79
345.099	-3.07
345.311	7.17
345.523	41.98
345.735	-60.42
345.947	52.22
346.159	111.61
346.371	25.6
346.583	3.07
346.795	162.81
347.007	-13.31
347.219	54.27
347.431	39.94
347.643	87.04
347.855	-1.02
348.067	140.29
348.279	-54.27
348.491	33.79
348.703	91.13
348.915	46.08
349.127	11.26
349.339	50.18
349.551	-46.08
349.763	115.71
349.975	37.89
350.187	144.38
350.399	168.96
350.61	84.99
350.822	17.41
351.034	107.52
351.246	44.03
351.458	107.52
351.669	138.24
351.881	76.8
352.093	101.37
352.305	144.38
352.517	52.22
352.728	130.05
352.94	60.42
353.152	56.32
353.363	-72.7
353.575	103.42
353.787	82.94
353.999	23.55
354.21	152.57
354.422	-35.84
354.633	7.17
354.845	119.81
355.057	101.37
355.268	72.7
355.48	72.7
355.692	-146.43
355.903	44.03
356.115	25.6
356.326	-93.18
356.538	181.25
356.749	207.87
356.961	152.57
357.172	-87.04
357.384	-9.22
357.595	306.17
357.807	19.46
358.018	-1.02
358.23	23.55
358.441	152.57
358.653	97.28
358.864	21.5
359.075	48.13
359.287	27.65
359.498	138.24
359.709	115.71
359.921	89.09
360.132	21.5
360.344	33.79
360.555	-50.18
360.766	3.07
360.977	-7.17
361.189	119.81
361.4	52.22
361.611	111.61
361.823	105.47
362.034	101.37
362.245	-41.98
362.456	-29.7
362.667	154.62
362.879	48.13
363.09	66.56
363.301	29.7
363.512	25.6
363.723	29.7
363.935	3.07
364.146	72.7
364.357	56.32
364.568	15.36
364.779	21.5
364.99	103.42
365.201	150.53
365.412	46.08
365.623	-56.32
365.834	39.94
366.045	25.6
366.256	95.23
366.467	21.5
366.678	-23.55
366.889	105.47
367.1	33.79
367.311	66.56
367.522	21.5
367.733	39.94
367.944	39.94
368.155	5.12
368.366	117.76
368.577	121.85
368.788	101.37
368.999	-3.07
369.209	74.75
369.42	171.01
369.631	275.45
369.842	-3.07
370.053	-37.89
370.264	70.65
370.474	-68.61
370.685	107.52
370.896	44.03
371.107	93.18
371.317	27.65
371.528	13.31
371.739	166.91
371.95	72.7
372.16	80.89
372.371	-87.04
372.582	15.36
372.792	25.6
373.003	62.46
373.214	54.27
373.424	97.28
373.635	15.36
373.846	125.95
374.056	48.13
374.267	72.7
374.477	66.56
374.688	41.98
374.898	13.31
375.109	33.79
375.319	115.71
375.53	68.61
375.74	132.09
375.951	-7.17
376.161	41.98
376.372	113.66
376.582	-23.55
376.793	138.24
377.003	-31.74
377.214	-50.18
377.424	44.03
377.635	82.94
377.845	-11.26
378.055	148.48
378.266	-87.04
378.476	11.26
378.686	74.75
378.897	44.03
379.107	166.91
379.317	148.48
379.528	-29.7
379.738	74.75
379.948	-87.04
380.158	39.94
380.369	35.84
380.579	84.99
380.789	35.84
380.999	146.43
381.21	148.48
381.42	166.91
381.63	11.26
381.84	132.09
382.05	56.32
382.261	130.05
382.471	113.66
382.681	9.22
382.891	162.81
383.101	-15.36
383.311	-9.22
383.521	3.07
383.731	78.85
383.941	140.29
384.151	93.18
384.361	35.84
384.571	1.02
384.781	72.7
384.991	246.78
385.201	150.53
385.411	91.13
385.621	99.33
385.831	64.51
386.041	93.18
386.251	13.31
386.461	154.62
386.671	-3.07
386.881	101.37
387.091	84.99
387.301	91.13
387.511	15.36
387.72	41.98
387.93	156.67
388.14	-95.23
388.35	89.09
388.56	130.05
388.769	117.76
388.979	-31.74
389.189	1.02
389.399	68.61
389.609	134.14
389.818	111.61
390.028	89.09
390.238	54.27
390.447	-72.7
390.657	99.33
390.867	-5.12
391.076	-41.98
391.286	58.37
391.496	-39.94
391.705	72.7
391.915	80.89
392.125	117.76
392.334	27.65
392.544	142.33
392.753	115.71
392.963	48.13
393.172	19.46
393.382	15.36
393.591	164.86
393.801	52.22
394.01	179.2
394.22	111.61
394.429	58.37
394.639	-41.98
394.848	-15.36
395.058	56.32
395.267	39.94
395.477	56.32
395.686	37.89
395.895	201.72
396.105	197.63
396.314	97.28
396.524	48.13
396.733	48.13
396.942	91.13
397.152	76.8
397.361	74.75
397.57	46.08
397.78	27.65
397.989	7.17
398.198	138.24
398.407	39.94
398.617	7.17
398.826	64.51
399.035	29.7
399.244	103.42
399.453	101.37
399.663	-3.07
399.872	58.37
400.081	-31.74
400.29	74.75
400.499	35.84
400.708	164.86
400.917	-35.84
401.127	-5.12
401.336	5.12
401.545	95.23
401.754	109.57
401.963	115.71
402.172	76.8
402.381	-23.55
402.59	50.18
402.799	13.31
403.008	119.81
403.217	5.12
403.426	62.46
403.635	-33.79
403.844	11.26
404.053	-52.22
404.262	50.18
404.471	205.82
404.68	144.38
404.888	48.13
405.097	29.7
405.306	23.55
405.515	64.51
405.724	-15.36
405.933	199.68
406.142	17.41
406.35	142.33
406.559	-7.17
406.768	113.66
406.977	97.28
407.185	44.03
407.394	103.42
407.603	-48.13
407.812	99.33
408.02	128
408.229	9.22
408.438	54.27
408.646	-54.27
408.855	121.85
409.064	89.09
409.272	3.07
409.481	66.56
409.69	50.18
409.898	9.22
410.107	103.42
410.315	107.52
410.524	-21.5
410.733	97.28
410.941	29.7
411.15	44.03
411.358	111.61
411.567	181.25
411.775	35.84
411.984	99.33
412.192	97.28
412.401	54.27
412.609	201.72
412.818	123.9
413.026	76.8
413.234	99.33
413.443	111.61
413.651	11.26
413.86	134.14
414.068	111.61
414.276	191.49
414.485	-1.02
414.693	232.44
414.901	240.64
415.11	76.8
415.318	70.65
415.526	29.7
415.734	144.38
415.943	66.56
416.151	60.42
416.359	101.37
416.567	93.18
416.776	138.24
416.984	48.13
417.192	197.63
417.4	-23.55
417.608	23.55
417.817	-19.46
418.025	46.08
418.233	214.01
418.441	76.8
418.649	-62.46
418.857	91.13
419.065	132.09
419.273	70.65
419.481	72.7
419.689	93.18
419.897	35.84
420.105	-64.51
420.313	113.66
420.521	179.2
420.729	154.62
420.937	3.07
421.145	-68.61
421.353	74.75
421.561	146.43
421.769	82.94
421.977	39.94
422.185	113.66
422.393	25.6
422.601	128
422.809	21.5
423.017	123.9
423.224	44.03
423.432	179.2
423.64	70.65
423.848	144.38
424.056	7.17
424.263	105.47
424.471	13.31
424.679	103.42
424.887	1.02
425.094	162.81
425.302	66.56
425.51	93.18
425.718	66.56
425.925	103.42
426.133	-31.74
426.341	162.81
426.548	13.31
426.756	74.75
426.964	89.09
427.171	-5.12
427.379	150.53
427.586	101.37
427.794	115.71
428.001	105.47
428.209	117.76
428.417	189.44
428.624	132.09
428.832	156.67
429.039	128
429.247	66.56
429.454	84.99
429.662	181.25
429.869	117.76
430.076	9.22
430.284	187.39
430.491	275.45
430.699	128
430.906	265.21
431.114	72.7
431.321	183.29
431.528	148.48
431.736	136.19
431.943	150.53
432.15	248.83
432.358	123.9
432.565	160.77
432.772	134.14
432.979	193.53
433.187	111.61
433.394	205.82
433.601	173.05
433.808	254.97
434.016	275.45
434.223	322.56
434.43	164.86
434.637	324.6
434.844	287.74
435.052	257.02
435.259	232.44
435.466	330.75
435.673	273.4
435.88	244.73
436.087	271.36
436.294	400.38
436.501	295.93
436.708	291.84
436.915	316.41
437.122	347.13
437.329	216.06
437.537	320.51
437.743	314.36
437.95	445.43
438.157	349.18
438.364	414.71
438.571	404.47
438.778	429.05
438.985	459.77
439.192	517.11
439.399	476.15
439.606	443.39
439.813	521.21
440.02	521.21
440.227	560.12
440.433	642.04
440.64	525.3
440.847	547.83
441.054	566.26
441.261	736.24
441.467	625.65
441.674	627.7
441.881	705.53
442.088	586.74
442.294	721.91
442.501	779.25
442.708	805.88
442.914	766.96
443.121	891.89
443.328	873.46
443.534	1022.96
443.741	885.75
443.948	799.73
444.154	951.28
444.361	1186.8
444.568	1086.45
444.774	1022.96
444.981	992.24
445.187	1219.57
445.394	1213.42
445.6	1141.74
445.807	1291.24
446.013	1233.9
446.22	1289.2
446.426	1459.18
446.633	1553.38
446.839	1704.93
447.046	1444.84
447.252	1696.74
447.459	1577.96
447.665	1651.69
447.871	1913.83
448.078	2032.61
448.284	1938.4
448.491	2028.51
448.697	2120.67
448.903	2110.43
449.11	2298.84
449.316	2096.1
449.522	2454.49
449.728	2436.06
449.935	2450.39
450.141	2470.87
450.347	2704.34
450.553	2513.88
450.76	2839.51
450.966	2925.52
451.172	2917.33
451.378	2935.76
451.584	3218.38
451.791	3531.72
451.997	3384.27
452.203	3632.07
452.409	3912.64
452.615	3890.12
452.821	3703.75
453.027	3935.17
453.233	4375.49
453.44	4139.97
453.646	4479.93
453.852	4606.91
454.058	4858.81
454.264	4770.74
454.47	5350.32
454.676	5303.22
454.882	5755.82
455.088	5508.01
455.294	5817.26
455.5	6097.83
455.705	6560.67
455.911	6562.72
456.117	6704.03
456.323	7031.7
456.529	6955.93
456.735	7728.01
456.941	7902.09
457.147	7893.9
457.352	8377.22
457.558	8639.36
457.764	9061.24
457.97	9390.96
458.176	9757.55
458.381	9902.95
458.587	10281.83
458.793	10572.64
458.999	11004.76
459.204	12155.72
459.41	12598.08
459.616	12335.94
459.821	13144.89
460.027	13810.48
460.233	14279.46
460.438	14117.67
460.644	15094.55
460.85	15469.33
461.055	16036.62
461.261	16601.86
461.466	16272.14
461.672	16720.64
461.878	18672.36
462.083	18463.46
462.289	18782.95
462.494	19714.77
462.7	19616.47
462.905	19808.98
463.111	21867.19
463.316	22805.16
463.522	23122.59
463.727	23806.61
463.932	24930.95
464.138	25422.46
464.343	26479.21
464.549	26843.75
464.754	28488.27
464.959	29389.38
465.165	30188.08
465.37	29653.56
465.575	29884.98
465.781	31592.99
465.986	32596.49
466.191	31793.69
466.397	32324.11
466.602	31775.26
466.807	33741.31
467.012	34228.73
467.218	34623.98
467.423	35142.12
467.628	35809.76
467.833	37448.13
468.038	36825.55
468.244	36227.54
468.449	38111.67
468.654	37525.96
468.859	37444.04
469.064	37419.46
469.269	36524.5
469.474	36772.3
469.679	38056.38
469.885	36610.51
470.09	37179.85
470.295	37390.79
470.5	36452.82
470.705	37122.51
470.91	35971.55
471.115	35523.04
471.32	36325.85
471.525	36102.62
471.73	34949.61
471.935	34806.25
472.139	33405.44
472.344	33860.09
472.549	33397.25
472.754	32729.61
472.959	32512.53
473.164	31031.85
473.369	30415.41
473.574	31146.53
473.778	30439.98
473.983	30046.77
474.188	29469.25
474.393	28389.97
474.598	28568.14
474.802	27290.21
475.007	27513.44
475.212	27048.55
475.417	25690.74
475.621	25488
475.826	25258.62
476.031	25059.97
476.235	24023.7
476.44	24386.19
476.645	23521.95
476.849	23468.7
477.054	23202.46
477.259	22452.91
477.463	22403.75
477.668	21703.35
477.872	21781.17
478.077	21506.74
478.282	20773.57
478.486	20529.86
478.691	20067.02
478.895	19942.1
479.1	19921.62
479.304	19694.29
479.509	19194.59
479.713	19372.76
479.918	19065.57
480.122	18270.95
480.326	18584.29
480.531	18877.15
480.735	18424.55
480.94	18053.87
481.144	18787.04
481.348	17691.38
481.553	17763.06
481.757	17400.57
481.961	17423.09
482.166	17603.32
482.37	17582.84
482.574	16988.92
482.778	17267.45
482.983	17425.14
483.187	16696.07
483.391	16861.95
483.595	16599.81
483.8	16143.11
484.004	16284.42
484.208	16261.9
484.412	16100.11
484.616	15942.41
484.821	15614.74
485.025	15397.65
485.229	15516.44
485.433	15063.83
485.637	15072.03
485.841	14676.77
486.045	14631.71
486.249	14543.65
486.453	14050.09
486.657	14017.32
486.861	13796.14
487.065	13255.48
487.269	13427.51
487.473	12919.61
487.677	13099.83
487.881	12960.57
488.085	12651.33
488.289	12366.66
488.493	12215.11
488.697	12297.03
488.901	11967.31
489.105	11658.06
489.309	11359.06
489.512	11277.14
489.716	11066.2
489.92	10922.84
490.124	10730.33
490.328	10658.65
490.531	10265.44
490.735	10412.9
490.939	10191.72
491.143	9780.07
491.346	9550.7
491.55	9485.17
491.754	9409.39
491.958	9300.85
492.161	8911.74
492.365	8872.82
492.569	8760.19
492.772	8659.84
492.976	8780.67
493.18	8575.87
493.383	8457.09
493.587	8029.06
493.79	8326.02
493.994	8004.49
494.197	7742.35
494.401	7791.5
494.605	7805.83
494.808	7797.64
495.012	7646.09
495.215	7693.19
495.419	7611.28
495.622	7449.49
495.825	7570.32
496.029	7381.9
496.232	7555.98
496.436	7310.22
496.639	7500.69
496.843	7265.17
497.046	7498.64
497.249	7486.35
497.453	7451.53
497.656	7242.64
497.859	7408.53
498.063	7617.42
498.266	7400.34
498.469	7310.22
498.673	7474.06
498.876	7355.28
499.079	7707.53
499.282	7461.77
499.485	7642
499.689	7549.84
499.892	7752.59
500.095	7658.38
500.298	7834.5
500.501	7768.97
500.705	7969.67
500.908	7846.79
501.111	8078.21
501.314	8090.5
501.517	8219.52
501.72	8360.83
501.923	8326.02
502.126	8360.83
502.329	8594.3
502.532	8528.77
502.735	8692.6
502.938	8964.98
503.141	8811.39
503.344	9003.89
503.547	9067.38
503.75	8973.18
503.953	9159.54
504.156	9491.31
504.359	9552.75
504.562	9657.2
504.765	9812.84
504.968	9900.9
505.17	10120.04
505.373	10126.18
505.576	10410.85
505.779	10617.69
505.982	10548.06
506.185	11150.17
506.387	11174.74
506.59	11467.6
506.793	11479.89
506.996	11506.51
507.198	12174.15
507.401	12223.3
507.604	12399.43
507.807	12737.34
508.009	12944.19
508.212	13050.68
508.415	13400.88
508.617	13671.22
508.82	13867.82
509.022	13970.22
509.225	14607.14
509.428	14803.74
509.63	15082.27
509.833	15459.09
510.035	16018.19
510.238	16089.87
510.44	16255.75
510.643	17052.41
510.845	17148.67
511.048	17466.1
511.25	17978.09
511.453	18383.59
511.655	19147.48
511.858	19004.13
512.06	19663.57
512.262	20013.77
512.465	20253.39
512.667	20691.65
512.87	21316.28
513.072	21656.25
513.274	22268.59
513.477	22413.99
513.679	23167.65
513.881	23790.23
514.084	24185.49
514.286	24590.98
514.488	25602.68
514.69	26092.15
514.893	26411.63
515.095	26976.87
515.297	27562.59
515.499	28105.3
515.701	28820.04
515.904	29334.08
516.106	29696.57
516.308	30231.09
516.51	30870.06
516.712	31492.64
516.914	32109.08
517.116	33329.67
517.318	33583.62
517.52	33909.24
517.722	34468.34
517.925	35342.82
518.127	36082.14
518.329	36350.42
518.531	36565.46
518.733	37933.5
518.935	38089.15
519.136	38906.29
519.338	39139.75
519.54	39989.66
519.742	40477.08
519.944	41007.5
520.146	42006.91
520.348	42381.69
520.55	43080.05
520.752	43063.66
520.954	44159.33
521.155	44081.5
521.357	44743
521.559	45416.78
521.761	46451
521.963	46143.81
522.164	46518.59
522.366	46803.25
522.568	47636.78
522.77	47591.72
522.971	48191.78
523.173	48515.36
523.375	48927
523.576	49125.65
523.778	48890.13
523.98	49692.94
524.181	49867.02
524.383	50051.33
524.584	50276.61
524.786	49895.69
524.988	49946.89
525.189	50764.03
525.391	50667.77
525.592	50903.29
525.794	50630.91
525.995	50731.26
526.197	50487.55
526.398	50923.77
526.6	50825.46
526.801	50129.16
527.003	50233.6
527.204	50260.23
527.406	49887.49
527.607	49711.37
527.808	49959.17
528.01	48814.36
528.211	48748.82
528.412	49391.89
528.614	48476.44
528.815	48163.11
529.016	48689.43
529.218	47073.59
529.419	47282.48
529.62	47233.33
529.822	46326.08
530.023	46035.27
530.224	45379.92
530.425	45048.14
530.626	44468.57
530.828	43962.72
531.029	44310.88
531.23	43096.43
531.431	42961.26
531.632	42768.76
531.833	42260.86
532.035	41290.12
532.236	41095.56
532.437	40896.91
532.638	40100.25
532.839	39684.51
533.04	39184.81
533.241	38474.16
533.442	38523.32
533.643	37984.7
533.844	36921.8
534.045	36991.44
534.246	36133.34
534.447	35983.83
534.648	35330.53
534.849	35107.3
535.05	33937.91
535.251	34032.12
535.451	33208.84
535.652	32922.12
535.853	32746
536.054	32573.97
536.255	31679
536.456	31279.65
536.657	30982.7
536.857	30288.43
537.058	29909.56
537.259	29747.77
537.46	29364.8
537.66	28910.15
537.861	28686.92
538.062	28144.21
538.263	28025.43
538.463	27542.11
538.664	27343.45
538.865	27105.89
539.065	26581.61
539.266	26120.82
539.466	26147.44
539.667	25414.27
539.868	25500.28
540.068	24623.75
540.269	24775.3
540.469	24294.03
540.67	23724.69
540.87	23954.07
541.071	23204.51
541.271	23270.04
541.472	23141.02
541.672	22465.19
541.873	22092.46
542.073	21615.29
542.274	21910.19
542.474	21559.99
542.675	21283.52
542.875	20996.8
543.075	21058.24
543.276	20421.32
543.476	20665.03
543.676	19983.06
543.877	19935.95
544.077	19866.32
544.277	19655.38
544.478	19315.42
544.678	19268.31
544.878	18903.78
545.078	18918.11
545.279	18289.38
545.479	17957.61
545.679	17963.76
545.879	17863.41
546.079	17773.3
546.28	17462.01
546.48	17167.1
546.68	17375.99
546.88	16843.52
547.08	16622.34
547.28	16718.59
547.48	16024.33
547.68	16241.42
547.88	15751.95
548.081	15840.01
548.281	15403.8
548.481	15153.94
548.681	15194.9
548.881	15033.11
549.081	14764.83
549.28	14646.05
549.48	14474.02
549.68	14230.31
549.88	14086.95
550.08	13572.91
550.28	13624.11
550.48	13390.64
550.68	13204.28
550.88	13081.4
551.08	12804.92
551.279	12618.56
551.479	12467.01
551.679	12503.87
551.879	12086.09
552.079	12016.46
552.278	12034.89
552.478	11696.97
552.678	11416.4
552.878	11346.77
553.077	10924.89
553.277	10724.19
553.477	10892.12
553.676	10472.29
553.876	10416.99
554.076	10287.97
554.275	10197.86
554.475	10005.35
554.674	9888.62
554.874	9694.06
555.074	9433.97
555.273	9282.42
555.473	9157.49
555.672	9184.12
555.872	8786.81
556.071	8864.63
556.271	8942.46
556.47	8506.24
556.67	8334.21
556.869	8215.43
557.068	8047.49
557.268	7910.28
557.467	7832.46
557.667	7906.18
557.866	7658.38
558.065	7523.21
558.265	7256.98
558.464	7158.67
558.663	7175.06
558.863	6982.55
559.062	6687.64
559.261	6695.83
559.461	6802.33
559.66	6486.94
559.859	6429.6
560.058	6163.36
560.258	6261.66
560.457	6187.94
560.656	6110.11
560.855	5886.89
561.054	5864.36
561.253	5794.73
561.453	5694.38
561.652	5516.2
561.851	5692.33
562.05	5452.72
562.249	5350.32
562.448	5321.65
562.647	5096.37
562.846	5188.53
563.045	5096.37
563.244	4967.35
563.443	4959.16
563.642	4776.89
563.841	4801.46
564.04	4760.5
564.239	4778.94
564.438	4502.46
564.637	4441.02
564.836	4486.08
565.035	4320.19
565.234	4299.71
565.432	4307.9
565.631	4213.7
565.83	4080.58
566.029	3988.42
566.228	3808.2
566.427	3990.47
566.625	3785.67
566.824	3711.94
567.023	3769.29
567.222	3664.84
567.42	3687.37
567.619	3662.79
567.818	3552.2
568.016	3599.31
568.215	3503.05
568.414	3302.35
568.612	3539.91
568.811	3240.91
569.01	3197.9
569.208	3189.71
569.407	3199.95
569.605	3144.66
569.804	3025.87
570.002	3021.78
570.201	2933.72
570.4	2943.96
570.598	2827.22
570.797	2843.6
570.995	2804.69
571.193	2790.36
571.392	2788.31
571.59	2708.44
571.789	2708.44
571.987	2743.25
572.186	2685.91
572.384	2520.03
572.582	2444.25
572.781	2532.31
572.979	2395.1
573.177	2413.53
573.376	2403.29
573.574	2313.18
573.772	2343.9
573.971	2255.84
574.169	2253.79
574.367	2196.45
574.565	2163.68
574.763	2126.82
574.962	2059.23
575.16	2001.89
575.358	1856.48
575.556	1983.46
575.754	1829.86
575.952	1942.5
576.151	1971.17
576.349	1942.5
576.547	1786.85
576.745	1917.92
576.943	1876.96
577.141	1836
577.339	1706.98
577.537	1762.28
577.735	1876.96
577.933	1764.33
578.131	1510.38
578.329	1676.26
578.527	1539.05
578.725	1680.36
578.923	1405.93
579.121	1537
579.319	1393.64
579.516	1461.23
579.714	1627.11
579.912	1491.95
580.11	1364.97
580.308	1379.31
580.506	1326.06
580.704	1246.19
580.901	1375.21
581.099	1352.68
581.297	1186.8
581.495	1248.24
581.692	1319.92
581.89	1262.57
582.088	1276.91
582.285	1115.12
582.483	1033.2
582.681	1233.9
582.878	1123.31
583.076	1025.01
583.274	1090.54
583.471	1207.28
583.669	1119.21
583.866	1014.77
584.064	1029.1
584.262	1006.58
584.459	928.75
584.657	955.38
584.854	1102.83
585.052	1033.2
585.249	920.56
585.447	994.29
585.644	861.17
585.841	1031.15
586.039	986.1
586.236	957.43
586.434	881.65
586.631	773.11
586.828	779.25
587.026	869.36
587.223	803.83
587.42	732.15
587.618	805.88
587.815	898.03
588.012	726
588.21	746.48
588.407	746.48
588.604	828.4
588.801	689.14
588.999	728.05
589.196	867.31
589.393	687.09
589.59	687.09
589.787	769.01
589.984	779.25
590.182	732.15
590.379	627.7
590.576	771.06
590.773	744.44
590.97	715.77
591.167	805.88
591.364	732.15
591.561	703.48
591.758	824.31
591.955	713.72
592.152	773.11
592.349	611.32
592.546	799.73
592.743	539.64
592.94	664.57
593.137	791.54
593.334	744.44
593.531	814.07
593.727	736.24
593.924	693.24
594.121	654.33
594.318	631.8
594.515	742.39
594.712	818.16
594.908	701.43
595.105	648.18
595.302	777.2
595.499	779.25
595.696	814.07
595.892	791.54
596.089	924.66
596.286	807.92
596.482	955.38
596.679	816.12
596.876	814.07
597.072	963.57
597.269	883.7
597.466	879.6
597.662	969.71
597.859	848.88
598.055	1002.48
598.252	1059.82
598.448	988.14
598.645	1154.03
598.841	1147.89
599.038	1422.31
599.234	1213.42
599.431	1201.13
599.627	1194.99
599.824	1274.86
600.02	1424.36
600.217	1399.79
600.413	1465.32
600.609	1547.24
600.806	1803.24
601.002	1563.62
601.198	1694.69
601.395	1793
601.591	1850.34
601.787	2022.37
601.984	1948.64
602.18	1958.88
602.376	2190.3
602.572	2292.7
602.769	2462.68
602.965	2380.76
603.161	2585.56
603.357	2479.07
603.553	2825.17
603.75	2587.61
603.946	2810.84
604.142	2816.98
604.338	3054.55
604.534	3173.33
604.73	3183.57
604.926	3347.4
605.122	3632.07
605.318	3468.24
605.514	3738.57
605.71	3783.62
605.906	3912.64
606.102	4023.23
606.298	4209.6
606.494	4258.75
606.69	4391.87
606.886	4467.64
607.082	4500.41
607.278	4557.75
607.474	4793.27
607.67	5069.75
607.866	4875.19
608.062	5387.18
608.257	5473.2
608.453	5604.27
608.649	5809.06
608.845	5708.71
609.041	5936.04
609.236	6130.59
609.432	6394.78
609.628	6497.18
609.824	6650.78
610.019	6851.48
610.215	7199.63
610.411	7404.43
610.606	7453.58
610.802	7531.41
610.998	7764.87
611.193	8158.08
611.389	8256.39
611.584	8455.04
611.78	8477.57
611.976	8665.98
612.171	9212.79
612.367	9282.42
612.562	9714.54
612.758	9759.6
612.953	9888.62
613.149	10433.38
613.344	10445.66
613.539	11012.95
613.735	11246.42
613.93	11500.37
614.126	11707.21
614.321	12145.48
614.517	12550.98
614.712	12802.88
614.907	13273.91
615.103	13462.32
615.298	13759.28
615.493	14062.38
615.688	14234.41
615.884	14955.29
616.079	14998.3
616.274	15602.45
616.47	15741.71
616.665	16225.03
616.86	16694.02
617.055	16943.87
617.25	17408.76
617.445	18121.45
617.641	18092.78
617.836	19116.76
618.031	18889.44
618.226	19706.58
618.421	20120.27
618.616	20912.83
618.811	21039.81
619.006	21957.3
619.201	21709.49
619.396	22606.5
619.591	22604.46
619.786	23444.12
619.981	23693.97
620.176	24877.7
620.371	24742.53
620.566	25510.52
620.761	26157.68
620.956	26534.51
621.151	26667.63
621.346	27775.58
621.541	27984.47
621.735	28785.22
621.93	28774.98
622.125	29751.87
622.32	30020.15
622.515	30755.37
622.709	30845.48
622.904	31922.71
623.099	32471.57
623.294	33151.49
623.488	33268.23
623.683	34243.06
623.878	34685.42
624.072	35351.01
624.267	35635.68
624.462	36131.29
624.656	36571.6
624.851	37337.54
625.046	38031.8
625.24	38697.39
625.435	38527.41
625.629	39315.88
625.824	39516.58
626.018	40544.66
626.213	40149.4
626.407	41296.27
626.602	41218.44
626.796	41890.18
626.991	42725.75
627.185	42576.25
627.38	42932.59
627.574	43071.85
627.768	43477.35
627.963	43702.63
628.157	43680.1
628.352	44398.94
628.546	43645.29
628.74	44478.81
628.935	44036.45
629.129	44159.33
629.323	43524.46
629.517	43241.84
629.712	43503.98
629.906	43297.13
630.1	42117.5
630.294	42533.24
630.489	41826.69
630.683	41374.09
630.877	40278.43
631.071	39625.12
631.265	39717.28
631.459	38732.21
631.653	37800.38
631.848	37018.06
632.042	35811.81
632.236	35631.58
632.43	34343.41
632.624	33573.38
632.818	32545.3
633.012	31488.54
633.206	30519.85
633.4	30110.26
633.594	28822.09
633.788	27982.42
633.982	27120.23
634.176	26057.33
634.369	24613.51
634.563	24162.96
634.757	22723.24
634.951	22520.49
635.145	21547.7
635.339	20806.34
635.533	20007.63
635.726	19137.24
635.92	18232.04
636.114	17511.16
636.308	16923.39
636.501	16349.96
636.695	15659.79
636.889	14836.51
637.083	14306.09
637.276	13566.77
637.47	12911.42
637.664	12507.97
637.857	12217.16
638.051	11598.67
638.244	10933.08
638.438	10783.58
638.632	10218.34
638.825	9818.99
639.019	9450.35
639.212	8889.21
639.406	8901.5
639.599	8528.77
639.793	8194.95
639.986	7785.35
640.18	7549.84
640.373	7230.35
640.567	6845.34
640.76	6632.35
640.954	6372.25
641.147	6013.86
641.34	5888.93
641.534	5534.64
641.727	5522.35
641.92	5434.29
642.114	5047.22
642.307	4830.13
642.5	4625.34
642.694	4455.36
642.887	4195.26
643.08	4416.44
643.273	4131.78
643.467	3929.03
643.66	3638.22
643.853	3496.91
644.046	3382.22
644.239	3230.67
644.432	3187.66
644.626	2917.33
644.819	2866.13
645.012	2907.09
645.205	2894.8
645.398	2679.77
645.591	2497.5
645.784	2356.19
645.977	2194.4
646.17	2282.46
646.363	2214.88
646.556	1991.65
646.749	2010.08
646.942	1844.2
647.135	1840.1
647.328	1776.61
647.521	1696.74
647.714	1608.68
647.907	1696.74
648.099	1471.47
648.292	1539.05
648.485	1428.46
648.678	1381.35
648.871	1287.15
649.064	1270.76
649.256	1172.46
649.449	1188.85
649.642	1027.06
649.835	1027.06
650.027	1041.39
650.22	1006.58
650.413	1020.91
650.605	1065.97
650.798	885.75
650.991	945.14
651.183	961.52
651.376	826.36
651.568	818.16
651.761	809.97
651.954	779.25
652.146	726
652.339	789.49
652.531	674.81
652.724	633.85
652.916	568.31
653.109	504.82
653.301	646.13
653.494	611.32
653.686	502.78
653.879	676.85
654.071	521.21
654.263	519.16
654.456	474.1
654.648	623.61
654.84	527.35
655.033	431.1
655.225	572.41
655.417	334.84
655.61	633.85
655.802	492.54
655.994	562.17
656.186	383.99
656.379	494.58
656.571	363.51
656.763	328.7
656.955	287.74
657.148	369.66
657.34	359.42
657.532	291.84
657.724	246.78
657.916	386.04
658.108	359.42
658.3	355.32
658.492	338.94
658.684	199.68
658.876	433.15
659.068	164.86
659.26	134.14
659.452	197.63
659.644	224.25
659.836	427
660.028	291.84
660.22	146.43
660.412	306.17
660.604	218.11
660.796	273.4
660.988	324.6
661.18	234.49
661.372	254.97
661.563	173.05
661.755	193.53
661.947	181.25
662.139	183.29
662.331	220.16
662.522	211.96
662.714	175.1
662.906	146.43
663.097	201.72
663.289	107.52
663.481	68.61
663.673	263.16
663.864	193.53
664.056	152.57
664.247	103.42
664.439	273.4
664.631	205.82
664.822	173.05
665.014	144.38
665.205	39.94
665.397	144.38
665.588	111.61
665.78	128
665.971	230.4
666.163	62.46
666.354	201.72
666.546	56.32
666.737	142.33
666.929	46.08
667.12	89.09
667.311	111.61
667.503	117.76
667.694	162.81
667.885	142.33
668.077	189.44
668.268	113.66
668.459	140.29
668.651	195.58
668.842	130.05
669.033	46.08
669.224	35.84
669.416	246.78
669.607	58.37
669.798	5.12
669.989	246.78
670.18	93.18
670.371	234.49
670.563	74.75
670.754	259.07
670.945	173.05
671.136	154.62
671.327	117.76
671.518	263.16
671.709	289.79
671.9	177.15
672.091	257.02
672.282	103.42
672.473	138.24
672.664	70.65
672.855	123.9
673.046	148.48
673.237	203.77
673.428	148.48
673.619	164.86
673.809	119.81
674	201.72
674.191	177.15
674.382	60.42
674.573	84.99
674.764	97.28
674.954	154.62
675.145	50.18
675.336	25.6
675.527	111.61
675.717	134.14
675.908	201.72
676.099	138.24
676.289	218.11
676.48	39.94
676.671	158.72
676.861	103.42
677.052	146.43
677.243	150.53
677.433	115.71
677.624	277.5
677.814	89.09
678.005	80.89
678.195	205.82
678.386	66.56
678.576	152.57
678.767	44.03
678.957	173.05
679.148	209.92
679.338	238.59
679.529	226.3
679.719	166.91
679.909	138.24
680.1	197.63
680.29	154.62
680.481	150.53
680.671	189.44
680.861	160.77
681.052	222.2
681.242	117.76
681.432	142.33
681.622	173.05
681.813	152.57
682.003	132.09
682.193	166.91
682.383	265.21
682.573	146.43
682.764	62.46
682.954	125.95
683.144	293.88
683.334	162.81
683.524	183.29
683.714	173.05
683.904	236.54
684.094	218.11
684.284	222.2
684.474	218.11
684.664	345.08
684.854	244.73
685.044	187.39
685.234	222.2
685.424	121.85
685.614	160.77
685.804	263.16
685.994	187.39
686.184	181.25
686.374	168.96
686.564	177.15
686.753	144.38
686.943	154.62
687.133	152.57
687.323	154.62
687.513	201.72
687.702	261.12
687.892	136.19
688.082	242.68
688.272	216.06
688.461	287.74
688.651	275.45
688.841	185.34
689.03	211.96
689.22	119.81
689.41	168.96
689.599	214.01
689.789	105.47
689.979	291.84
690.168	138.24
690.358	226.3
690.547	177.15
690.737	222.2
690.926	171.01
691.116	207.87
691.305	300.03
691.495	242.68
691.684	82.94
691.874	117.76
692.063	113.66
692.252	222.2
692.442	222.2
692.631	44.03
692.82	187.39
693.01	183.29
693.199	183.29
693.388	179.2
693.578	209.92
693.767	281.6
693.956	218.11
694.146	140.29
694.335	203.77
694.524	125.95
694.713	281.6
694.902	125.95
695.092	29.7
695.281	242.68
695.47	123.9
695.659	218.11
695.848	177.15
696.037	125.95
696.226	226.3
696.415	128
696.604	263.16
696.793	302.08
696.982	134.14
697.171	338.94
697.36	119.81
697.549	158.72
697.738	62.46
697.927	218.11
698.116	128
698.305	209.92
698.494	162.81
698.683	197.63
698.872	285.69
699.061	162.81
699.25	173.05
699.438	177.15
699.627	136.19
699.816	269.31
700.005	37.89
700.193	144.38
700.382	226.3
700.571	125.95
700.76	183.29
700.948	236.54
701.137	222.2
701.326	228.35
701.514	107.52
701.703	297.98
701.892	154.62
702.08	289.79
702.269	193.53
702.457	177.15
702.646	209.92
702.834	125.95
703.023	205.82
703.212	201.72
703.4	195.58
703.589	193.53
703.777	146.43
703.965	66.56
704.154	171.01
704.342	60.42
704.531	31.74
704.719	130.05
704.907	246.78
705.096	89.09
705.284	70.65
705.472	171.01
705.661	142.33
705.849	173.05
706.037	234.49
706.226	177.15
706.414	209.92
706.602	142.33
706.79	191.49
706.979	117.76
707.167	146.43
707.355	33.79
707.543	218.11
707.731	209.92
707.919	183.29
708.107	162.81
708.296	146.43
708.484	97.28
708.672	222.2
708.86	154.62
709.048	136.19
709.236	-9.22
709.424	171.01
709.612	175.1
709.8	84.99
709.988	177.15
710.176	209.92
710.364	218.11
710.551	234.49
710.739	113.66
710.927	154.62
711.115	140.29
711.303	214.01
711.491	267.26
711.679	89.09
711.866	269.31
712.054	91.13
712.242	226.3
712.43	285.69
712.617	142.33
712.805	275.45
712.993	171.01
713.181	91.13
713.368	257.02
713.556	246.78
713.744	132.09
713.931	308.22
714.119	263.16
714.306	146.43
714.494	78.85
714.682	250.88
714.869	173.05
715.057	154.62
715.244	99.33
715.432	199.68
715.619	148.48
715.807	123.9
715.994	158.72
716.182	152.57
716.369	285.69
716.556	281.6
716.744	76.8
716.931	99.33
717.119	230.4
717.306	166.91
717.493	218.11
717.681	136.19
717.868	166.91
718.055	185.34
718.242	214.01
718.43	220.16
718.617	150.53
718.804	226.3
718.991	273.4
719.179	291.84
719.366	224.25
719.553	222.2
719.74	197.63
719.927	193.53
720.114	248.83
720.301	111.61
720.488	171.01
720.676	109.57
720.863	224.25
721.05	314.36
721.237	271.36
721.424	250.88
721.611	246.78
721.798	103.42
721.985	181.25
722.172	150.53
722.358	230.4
722.545	295.93
722.732	187.39
722.919	205.82
723.106	222.2
723.293	183.29
723.48	164.86
723.667	93.18
723.853	250.88
724.04	211.96
724.227	250.88
724.414	173.05
724.6	228.35
724.787	302.08
724.974	396.28
725.161	193.53
725.347	68.61
725.534	197.63
725.72	226.3
725.907	242.68
726.094	271.36
726.28	214.01
726.467	181.25
726.653	91.13
726.84	285.69
727.027	271.36
727.213	193.53
727.4	287.74
727.586	166.91
727.773	105.47
727.959	240.64
728.145	199.68
728.332	179.2
728.518	89.09
728.705	261.12
728.891	209.92
729.077	259.07
729.264	142.33
729.45	189.44
729.636	259.07
729.823	203.77
730.009	269.31
730.195	277.5
730.382	345.08
730.568	183.29
730.754	168.96
730.94	222.2
731.126	246.78
731.313	244.73
731.499	201.72
731.685	267.26
731.871	222.2
732.057	195.58
732.243	279.55
732.429	207.87
732.615	332.79
732.801	226.3
732.987	209.92
733.173	254.97
733.359	259.07
733.545	275.45
733.731	218.11
733.917	236.54
734.103	201.72
734.289	287.74
734.475	185.34
734.661	304.12
734.847	238.59
735.033	273.4
735.219	334.84
735.404	179.2
735.59	205.82
735.776	140.29
735.962	216.06
736.148	285.69
736.333	361.47
736.519	209.92
736.705	177.15
736.89	250.88
737.076	224.25
737.262	152.57
737.447	89.09
737.633	171.01
737.819	228.35
738.004	201.72
738.19	271.36
738.375	316.41
738.561	181.25
738.747	240.64
738.932	177.15
739.118	343.03
739.303	345.08
739.489	240.64
739.674	195.58
739.859	158.72
740.045	277.5
740.23	207.87
740.416	152.57
740.601	259.07
740.786	267.26
740.972	183.29
741.157	193.53
741.342	115.71
741.528	189.44
741.713	322.56
741.898	185.34
742.084	224.25
742.269	205.82
742.454	277.5
742.639	322.56
742.824	211.96
743.01	377.85
743.195	343.03
743.38	199.68
743.565	171.01
743.75	154.62
743.935	281.6
744.12	314.36
744.305	158.72
744.49	224.25
744.675	205.82
744.86	138.24
745.045	250.88
745.23	175.1
745.415	216.06
745.6	281.6
745.785	152.57
745.97	261.12
746.155	152.57
746.34	250.88
746.525	203.77
746.71	369.66
746.895	117.76
747.079	121.85
747.264	160.77
747.449	281.6
747.634	248.83
747.819	183.29
748.003	115.71
748.188	29.7
748.373	214.01
748.557	164.86
748.742	283.64
748.927	250.88
749.111	115.71
749.296	97.28
749.481	234.49
749.665	185.34
749.85	99.33
750.034	283.64
750.219	175.1
750.404	140.29
750.588	197.63
750.773	101.37
750.957	228.35
751.141	134.14
751.326	254.97
751.51	91.13
751.695	89.09
751.879	148.48
752.064	265.21
752.248	201.72
752.432	277.5
752.617	304.12
752.801	168.96
752.985	101.37
753.17	189.44
753.354	158.72
753.538	78.85
753.722	39.94
753.907	105.47
754.091	199.68
754.275	205.82
754.459	39.94
754.643	101.37
754.828	146.43
755.012	166.91
755.196	117.76
755.38	138.24
755.564	166.91
755.748	199.68
755.932	214.01
756.116	146.43
756.3	244.73
756.484	144.38
756.668	148.48
756.852	95.23
757.036	136.19
757.22	181.25
757.404	91.13
757.588	130.05
757.772	134.14
757.956	115.71
758.14	242.68
758.323	74.75
758.507	177.15
758.691	103.42
758.875	91.13
759.059	181.25
759.242	60.42
759.426	72.7
759.61	128
759.794	91.13
759.977	29.7
760.161	287.74
760.345	304.12
760.528	166.91
760.712	140.29
760.895	93.18
761.079	111.61
761.263	29.7
761.446	87.04
761.63	107.52
761.813	146.43
761.997	50.18
762.18	144.38
762.364	201.72
762.547	-23.55
762.731	-21.5
762.914	101.37
763.098	93.18
763.281	64.51
763.464	89.09
763.648	113.66
763.831	82.94
764.015	78.85
764.198	197.63
764.381	82.94
764.564	113.66
764.748	70.65
764.931	23.55
765.114	121.85
765.297	195.58
765.481	56.32
765.664	80.89
765.847	62.46
766.03	162.81
766.213	3.07
766.397	121.85
766.58	37.89
766.763	173.05
766.946	39.94
767.129	80.89
767.312	107.52
767.495	93.18
767.678	35.84
767.861	48.13
768.044	72.7
768.227	39.94
768.41	1.02
768.593	13.31
768.776	39.94
768.959	80.89
769.142	154.62
769.324	44.03
769.507	70.65
769.69	82.94
769.873	89.09
770.056	214.01
770.239	95.23
770.421	209.92
770.604	46.08
770.787	52.22
770.97	142.33
771.152	-74.75
771.335	62.46
771.518	31.74
771.7	125.95
771.883	252.92
772.066	111.61
772.248	109.57
772.431	209.92
772.613	132.09
772.796	56.32
772.978	134.14
773.161	265.21
773.343	64.51
773.526	13.31
773.708	-9.22
773.891	-39.94
774.073	60.42
774.256	54.27
774.438	211.96
774.621	7.17
774.803	58.37
774.985	27.65
775.168	189.44
775.35	25.6
775.532	111.61
775.715	41.98
775.897	78.85
776.079	70.65
776.261	-7.17
776.444	140.29
776.626	29.7
776.808	-23.55
776.99	-62.46
777.173	93.18
777.355	15.36
777.537	89.09
777.719	33.79
777.901	-39.94
778.083	-52.22
778.265	23.55
778.447	132.09
778.629	-17.41
778.811	72.7
778.993	89.09
779.175	103.42
779.357	46.08
779.539	-7.17
779.721	80.89
779.903	130.05
780.085	9.22
780.267	-27.65
780.449	78.85
780.631	99.33
780.812	189.44
780.994	9.22
781.176	-11.26
781.358	117.76
781.54	66.56
781.721	101.37
781.903	72.7
782.085	66.56
782.267	168.96
782.448	21.5
782.63	52.22
782.812	46.08
782.993	62.46
783.175	91.13
783.357	-60.42
783.538	15.36
783.72	1.02
783.901	23.55
784.083	37.89
784.264	27.65
784.446	3.07
784.627	-13.31
784.809	62.46
784.99	-27.65
785.172	46.08
785.353	44.03
785.535	1.02
785.716	-41.98
785.897	-31.74
786.079	64.51
786.26	41.98
786.441	54.27
786.623	-56.32
786.804	-64.51
786.985	-35.84
787.167	72.7
787.348	37.89
787.529	7.17
787.71	121.85
787.891	19.46
788.073	9.22
788.254	-13.31
788.435	162.81
788.616	41.98
788.797	-41.98
788.978	19.46
789.159	56.32
789.34	95.23
789.522	17.41
789.703	-7.17
789.884	-3.07
790.065	27.65
790.246	115.71
790.427	-1.02
790.607	101.37
790.788	89.09
790.969	7.17
791.15	37.89
791.331	23.55
791.512	-17.41
791.693	-1.02
791.874	9.22
792.054	181.25
792.235	33.79
792.416	9.22
792.597	-5.12
792.778	158.72
792.958	31.74
793.139	113.66
793.32	17.41
793.5	-87.04
793.681	111.61
793.862	31.74
794.042	52.22
794.223	-103.42
794.404	19.46
794.584	-93.18
794.765	1.02
794.945	9.22
795.126	13.31
795.306	156.67
795.487	39.94
795.667	-11.26
795.848	-21.5
796.028	15.36
796.209	54.27
796.389	70.65
796.57	5.12
796.75	-84.99
796.93	-1.02
797.111	-72.7
797.291	39.94
797.471	54.27
797.652	-21.5
797.832	-31.74
798.012	23.55
798.192	-35.84
798.373	-46.08
798.553	-1.02
798.733	101.37
798.913	-21.5
799.093	-33.79
799.274	68.61
799.454	74.75
799.634	56.32
799.814	130.05
799.994	107.52
800.174	17.41
800.354	19.46
800.534	-39.94
800.714	140.29
800.894	-76.8
801.074	-62.46
801.254	-15.36
801.434	142.33
801.614	-11.26
801.794	-68.61
801.974	1434.6
802.154	-11.26
802.334	148.48
802.514	-15.36
802.693	-33.79
802.873	-19.46
803.053	152.57
803.233	125.95
803.413	-44.03
803.592	-31.74
803.772	-15.36
803.952	-44.03
804.131	-17.41
804.311	91.13
804.491	103.42
804.67	-56.32
804.85	-33.79
805.03	-5.12
805.209	89.09
805.389	-76.8
805.568	23.55
805.748	37.89
805.928	48.13
806.107	62.46
806.287	-15.36
806.466	13.31
806.646	31.74
806.825	15.36
807.004	56.32
807.184	56.32
807.363	17.41
807.543	48.13
807.722	-19.46
807.901	152.57
808.081	68.61
808.26	-109.57
808.439	48.13
808.619	13.31
808.798	-89.09
808.977	35.84
809.156	84.99
809.336	1.02
809.515	17.41
809.694	-39.94
809.873	-93.18
810.052	46.08
810.231	82.94
810.411	46.08
810.59	72.7
810.769	-35.84
810.948	113.66
811.127	-78.85
811.306	-56.32
811.485	31.74
811.664	158.72
811.843	-35.84
812.022	1.02
812.201	-19.46
812.38	9.22
812.559	21.5
812.737	74.75
812.916	-62.46
813.095	-46.08
813.274	41.98
813.453	1.02
813.632	48.13
813.811	46.08
813.989	-111.61
814.168	-19.46
814.347	-76.8
814.526	21.5
814.704	117.76
814.883	89.09
815.062	-31.74
815.24	44.03
815.419	-44.03
815.598	72.7
815.776	-78.85
815.955	5.12
816.133	-64.51
816.312	1.02
816.49	-78.85
816.669	58.37
816.847	-25.6
817.026	29.7
817.204	-84.99
817.383	-1.02
817.561	-46.08
817.74	-7.17
817.918	52.22
818.097	17.41
818.275	-46.08
818.453	89.09
818.632	-15.36
818.81	17.41
818.988	-39.94
819.167	-111.61
819.345	33.79
819.523	-46.08
819.701	-3.07
819.879	15.36
820.058	35.84
820.236	-25.6
820.414	-11.26
820.592	105.47
820.77	-29.7
820.948	68.61
821.127	-52.22
821.305	46.08
821.483	-11.26
821.661	54.27
821.839	15.36
822.017	-52.22
822.195	-23.55
822.373	89.09
822.551	-3.07
822.729	136.19
822.907	3.07
823.085	62.46
823.262	21.5
823.44	-37.89
823.618	-29.7
823.796	-19.46
823.974	-46.08
824.152	-50.18
824.329	17.41
824.507	39.94
824.685	15.36
824.863	-41.98
825.04	5.12
825.218	48.13
825.396	-84.99
825.574	66.56
825.751	-39.94
825.929	39.94
826.107	-41.98
826.284	-5.12
826.462	68.61
826.639	-27.65
826.817	-46.08
826.994	56.32
827.172	-46.08
827.349	-9.22
827.527	-1.02
827.704	-50.18
827.882	84.99
828.059	-52.22
828.237	-25.6
828.414	31.74
828.591	-115.71
828.769	-27.65
828.946	-52.22
829.124	62.46
829.301	87.04
829.478	-41.98
829.655	33.79
829.833	13.31
830.01	-113.66
830.187	-9.22
830.364	39.94
830.542	-29.7
830.719	128
830.896	117.76
831.073	-39.94
831.25	-19.46
831.427	80.89
831.604	7.17
831.782	-21.5
831.959	-58.37
832.136	-7.17
832.313	84.99
832.49	39.94
832.667	70.65
832.844	-1.02
833.021	68.61
833.198	-17.41
833.374	-19.46
833.551	35.84
833.728	-70.65
833.905	68.61
834.082	-62.46
834.259	27.65
834.436	121.85
834.612	-113.66
834.789	66.56
834.966	46.08
835.143	-23.55
835.319	-64.51
835.496	56.32
835.673	128
835.85	89.09
836.026	39.94
836.203	21.5
836.38	-13.31
836.556	52.22
836.733	-111.61
836.909	187.39
837.086	-31.74
837.262	-117.76
837.439	-52.22
837.616	-29.7
837.792	5.12
837.968	46.08
838.145	-58.37
838.321	-37.89
838.498	50.18
838.674	70.65
838.851	29.7
839.027	-72.7
839.203	13.31
839.38	44.03
839.556	-13.31
839.732	35.84
839.909	64.51
840.085	58.37
840.261	-3.07
840.437	-13.31
840.614	-62.46
840.79	82.94
840.966	91.13
841.142	-9.22
841.318	-68.61
841.494	54.27
841.671	31.74
841.847	-128
842.023	-52.22
842.199	41.98
842.375	113.66
842.551	-97.28
842.727	-23.55
842.903	103.42
843.079	-15.36
843.255	58.37
843.431	-37.89
843.607	25.6
843.783	-158.72
843.959	-11.26
844.134	-76.8
844.31	109.57
844.486	-62.46
844.662	-9.22
844.838	17.41
845.013	76.8
845.189	60.42
845.365	25.6
845.541	35.84
845.716	-21.5
845.892	56.32
846.068	-7.17
846.244	-62.46
846.419	17.41
846.595	-134.14
846.77	-64.51
846.946	-5.12
847.122	-66.56
847.297	-44.03
847.473	189.44
847.648	-62.46
847.824	9.22
847.999	-60.42
848.175	13.31
848.35	15.36
848.526	-19.46
848.701	80.89
848.876	119.81
849.052	19.46
849.227	17.41
849.403	-1.02
849.578	25.6
849.753	-23.55
849.929	54.27
850.104	-52.22
850.279	-13.31
850.454	-48.13
850.63	93.18
850.805	-1.02
850.98	76.8
851.155	-9.22
851.33	33.79
851.505	-87.04
851.681	17.41
851.856	-11.26
852.031	31.74
852.206	105.47
852.381	-46.08
852.556	1.02
852.731	50.18
852.906	89.09
853.081	29.7
853.256	119.81
853.431	-37.89
853.606	-29.7
853.781	-76.8
853.956	-101.37
854.131	-3.07
854.305	-93.18
854.48	-1.02
854.655	-33.79
854.83	-9.22
855.005	-9.22
855.18	-23.55
855.354	15.36
855.529	62.46
855.704	17.41
855.879	95.23
856.053	-109.57
856.228	1.02
856.403	-50.18
856.577	39.94
856.752	-128
856.926	29.7
857.101	-66.56
857.276	-72.7
857.45	-31.74
857.625	33.79
857.799	84.99
857.974	11.26
858.148	-58.37
858.323	44.03
858.497	-19.46
858.672	-99.33
858.846	-35.84
859.02	76.8
859.195	-80.89
859.369	-13.31
859.543	7.17
859.718	-87.04
859.892	46.08
860.066	97.28
860.241	-19.46
860.415	-80.89
860.589	31.74
860.763	23.55
860.938	-48.13
861.112	-3.07
861.286	17.41
861.46	50.18
861.634	37.89
861.808	50.18
861.982	-109.57
862.157	-27.65
862.331	-89.09
862.505	-39.94
862.679	-105.47
862.853	-31.74
863.027	-44.03
863.201	50.18
863.375	-19.46
863.549	1.02
863.722	1.02
863.896	91.13
864.07	-82.94
864.244	-21.5
864.418	33.79
864.592	27.65
864.766	-7.17
864.939	48.13
865.113	3.07
865.287	66.56
865.461	-23.55
865.634	39.94
865.808	-1.02
865.982	-46.08
866.156	-7.17
866.329	-27.65
866.503	48.13
866.676	23.55
866.85	91.13
867.024	-125.95
867.197	44.03
867.371	21.5
867.544	21.5
867.718	-41.98
867.891	39.94
868.065	-70.65
868.238	-11.26
868.412	7.17
868.585	5.12
868.759	-58.37
868.932	44.03
869.105	-105.47
869.279	62.46
869.452	-58.37
869.625	31.74
869.799	-7.17
869.972	-17.41
870.145	-3.07
870.319	72.7
870.492	-39.94
870.665	-72.7
870.838	-109.57
871.011	-91.13
871.185	25.6
871.358	-35.84
871.531	-3.07
871.704	-54.27
871.877	-48.13
872.05	-3.07
872.223	-33.79
872.396	119.81
872.569	93.18
872.742	-52.22
872.915	89.09
873.088	11.26
873.261	-15.36
873.434	41.98
873.607	-58.37
873.78	99.33
873.953	-117.76
874.126	21.5
874.299	52.22
874.471	-1.02
874.644	-13.31
874.817	95.23
874.99	156.67
875.163	-44.03
875.335	-41.98
875.508	-19.46
875.681	130.05
875.853	5.12
876.026	9.22
876.199	103.42
876.371	-15.36
876.544	-37.89
876.717	7.17
876.889	-44.03
877.062	52.22
877.234	-44.03
877.407	-5.12
877.579	-48.13
877.752	31.74
877.924	62.46
878.097	-29.7
878.269	48.13
878.442	23.55
878.614	-1.02
878.786	91.13
878.959	50.18
879.131	25.6
879.303	-115.71
879.476	-1.02
879.648	101.37
879.82	21.5
879.993	-48.13
880.165	-52.22
880.337	-78.85
880.509	-27.65
880.681	-183.29
880.854	-44.03
881.026	5.12
881.198	134.14
881.37	-15.36
881.542	-82.94
881.714	13.31
881.886	-44.03
882.058	13.31
882.23	-66.56
882.402	58.37
882.574	-44.03
882.746	25.6
882.918	171.01
883.09	113.66
883.262	-70.65
883.434	66.56
883.606	-66.56
883.778	-9.22
883.95	111.61
884.122	-19.46
884.293	70.65
884.465	-99.33
884.637	46.08
884.809	-56.32
884.98	-23.55
885.152	41.98
885.324	-54.27
885.496	-54.27
885.667	-35.84
885.839	-33.79
886.011	46.08
886.182	46.08
886.354	68.61
886.525	54.27
886.697	80.89
886.869	13.31
887.04	21.5
887.212	44.03
887.383	72.7
887.555	29.7
887.726	-46.08
887.897	29.7
888.069	-13.31
888.24	17.41
888.412	-64.51
888.583	27.65
888.754	-60.42
888.926	-117.76
889.097	-80.89
889.268	-150.53
889.44	-1.02
889.611	-84.99
889.782	-82.94
889.953	-70.65
890.125	62.46
890.296	-56.32
890.467	-3.07
890.638	-35.84
890.809	-95.23
890.98	-80.89
891.151	23.55
891.323	50.18
891.494	-3.07
891.665	54.27
891.836	33.79
892.007	-62.46
892.178	50.18
892.349	-25.6
892.52	-21.5
892.691	-31.74
892.862	-33.79
893.032	-60.42
893.203	-11.26
893.374	-3.07
893.545	107.52
893.716	-66.56
893.887	21.5
894.057	-46.08
894.228	-48.13
894.399	-35.84
894.57	68.61
894.74	-27.65
894.911	58.37
895.082	-72.7
895.253	-23.55
895.423	35.84
895.594	5.12
895.764	29.7
895.935	-37.89
896.106	-17.41
896.276	-11.26
896.447	48.13
896.617	-44.03
896.788	-31.74
896.958	-25.6
897.129	-84.99
897.299	-101.37
897.47	140.29
897.64	-7.17
897.81	19.46
897.981	23.55
898.151	-64.51
898.322	37.89
898.492	33.79
898.662	-166.91
898.832	27.65
899.003	-29.7
899.173	-39.94
899.343	27.65
899.513	-54.27
