Data from USB4F104151__209__11-05-44-530.txt Node

Date: Wed Feb 26 11:05:44 EST 2025
User: louis
Spectrometer: USB4F10415
Trigger mode: 4
Integration Time (sec): 1.000000E-1
Scans to average: 1
Electric dark correction enabled: true
Nonlinearity correction enabled: false
Boxcar width: 0
XAxis mode: Wavelengths
Number of Pixels in Spectrum: 3648
>>>>>Begin Spectral Data<<<<<
178.204	-443.04
178.424	-443.04
178.644	-443.04
178.864	-412.32
179.084	-400.04
179.304	-8.87
179.524	-23.21
179.744	56.66
179.964	68.95
180.184	7.51
180.404	30.04
180.624	-49.83
180.844	-31.4
181.064	-47.79
181.283	-0.68
181.503	-29.35
181.723	27.99
181.943	-107.18
182.163	138.58
182.383	-31.4
182.602	-8.87
182.822	144.72
183.042	114
183.262	-51.88
183.482	-70.31
183.701	13.65
183.921	44.37
184.141	-39.59
184.361	75.09
184.58	3.41
184.8	30.04
185.02	13.65
185.239	73.04
185.459	75.09
185.679	73.04
185.898	25.94
186.118	50.52
186.338	136.53
186.557	95.57
186.777	-37.55
186.997	-45.74
187.216	50.52
187.436	234.83
187.655	107.86
187.875	136.53
188.095	3.41
188.314	120.15
188.534	163.15
188.753	11.61
188.973	30.04
189.192	200.02
189.412	-12.97
189.631	50.52
189.851	21.85
190.07	228.69
190.29	-8.87
190.509	-21.16
190.729	-29.35
190.948	150.87
191.168	275.79
191.387	109.91
191.607	23.89
191.826	77.14
192.045	-17.07
192.265	-10.92
192.484	111.96
192.704	-37.55
192.923	-80.55
193.142	167.25
193.362	66.9
193.581	189.78
193.8	36.18
194.02	71
194.239	-21.16
194.458	89.43
194.678	11.61
194.897	38.23
195.116	13.65
195.335	75.09
195.555	81.24
195.774	-72.36
195.993	136.53
196.212	-12.97
196.432	36.18
196.651	44.37
196.87	64.85
197.089	224.59
197.308	111.96
197.528	105.81
197.747	34.13
197.966	5.46
198.185	136.53
198.404	7.51
198.623	54.61
198.842	95.57
199.062	107.86
199.281	122.2
199.5	27.99
199.719	89.43
199.938	40.28
200.157	46.42
200.376	99.67
200.595	122.2
200.814	103.76
201.033	11.61
201.252	132.44
201.471	75.09
201.69	46.42
201.909	66.9
202.128	134.48
202.347	95.57
202.566	27.99
202.785	-43.69
203.004	-10.92
203.223	214.35
203.442	7.51
203.661	-62.12
203.879	93.52
204.098	167.25
204.317	-84.65
204.536	128.34
204.755	95.57
204.974	171.35
205.193	-10.92
205.411	109.91
205.63	103.76
205.849	122.2
206.068	15.7
206.287	-8.87
206.505	148.82
206.724	62.8
206.943	11.61
207.162	11.61
207.381	23.89
207.599	9.56
207.818	-45.74
208.037	11.61
208.255	17.75
208.474	13.65
208.693	66.9
208.911	-8.87
209.13	25.94
209.349	64.85
209.567	5.46
209.786	46.42
210.005	66.9
210.223	48.47
210.442	-80.55
210.661	15.7
210.879	89.43
211.098	11.61
211.316	5.46
211.535	103.76
211.753	23.89
211.972	21.85
212.191	13.65
212.409	38.23
212.628	25.94
212.846	-98.99
213.065	114
213.283	152.91
213.502	83.28
213.72	11.61
213.938	42.32
214.157	30.04
214.375	126.29
214.594	77.14
214.812	32.08
215.031	54.61
215.249	17.75
215.467	27.99
215.686	38.23
215.904	93.52
216.122	68.95
216.341	157.01
216.559	83.28
216.778	132.44
216.996	66.9
217.214	17.75
217.432	-43.69
217.651	-86.7
217.869	99.67
218.087	77.14
218.306	44.37
218.524	101.72
218.742	23.89
218.96	79.19
219.179	-33.45
219.397	73.04
219.615	212.31
219.833	71
220.051	-10.92
220.27	138.58
220.488	169.3
220.706	118.1
220.924	-62.12
221.142	7.51
221.36	50.52
221.578	48.47
221.796	75.09
222.015	46.42
222.233	38.23
222.451	210.26
222.669	-2.73
222.887	87.38
223.105	-33.45
223.323	46.42
223.541	-49.83
223.759	42.32
223.977	58.71
224.195	181.59
224.413	68.95
224.631	79.19
224.849	23.89
225.067	220.5
225.285	21.85
225.503	11.61
225.721	-62.12
225.939	50.52
226.157	-21.16
226.375	226.64
226.592	46.42
226.81	-6.83
227.028	177.49
227.246	120.15
227.464	91.48
227.682	5.46
227.9	122.2
228.117	-15.02
228.335	58.71
228.553	58.71
228.771	25.94
228.989	44.37
229.206	159.06
229.424	9.56
229.642	-37.55
229.86	-47.79
230.077	120.15
230.295	97.62
230.513	83.28
230.731	54.61
230.948	181.59
231.166	159.06
231.384	27.99
231.601	3.41
231.819	138.58
232.037	13.65
232.254	-49.83
232.472	34.13
232.689	9.56
232.907	152.91
233.125	58.71
233.342	5.46
233.56	9.56
233.777	19.8
233.995	54.61
234.213	60.76
234.43	142.68
234.648	68.95
234.865	-35.5
235.083	105.81
235.3	30.04
235.518	138.58
235.735	224.59
235.953	36.18
236.17	17.75
236.388	-2.73
236.605	25.94
236.822	91.48
237.04	114
237.257	13.65
237.475	1.37
237.692	73.04
237.909	30.04
238.127	3.41
238.344	95.57
238.562	25.94
238.779	-6.83
238.996	-47.79
239.214	-21.16
239.431	75.09
239.648	-37.55
239.865	111.96
240.083	42.32
240.3	19.8
240.517	-58.03
240.735	11.61
240.952	91.48
241.169	111.96
241.386	7.51
241.603	-17.07
241.821	-47.79
242.038	58.71
242.255	157.01
242.472	-37.55
242.689	46.42
242.907	15.7
243.124	87.38
243.341	71
243.558	-37.55
243.775	-78.51
243.992	-43.69
244.209	107.86
244.426	136.53
244.643	11.61
244.86	3.41
245.078	132.44
245.295	107.86
245.512	11.61
245.729	54.61
245.946	-25.26
246.163	11.61
246.38	-21.16
246.597	79.19
246.814	36.18
247.031	75.09
247.248	-2.73
247.464	54.61
247.681	50.52
247.898	-12.97
248.115	107.86
248.332	-4.78
248.549	197.97
248.766	169.3
248.983	95.57
249.2	62.8
249.417	79.19
249.633	42.32
249.85	105.81
250.067	44.37
250.284	60.76
250.501	89.43
250.717	44.37
250.934	7.51
251.151	60.76
251.368	68.95
251.585	109.91
251.801	66.9
252.018	5.46
252.235	118.1
252.451	13.65
252.668	15.7
252.885	93.52
253.102	13.65
253.318	7.51
253.535	-23.21
253.752	-39.59
253.968	-23.21
254.185	-70.31
254.401	62.8
254.618	17.75
254.835	27.99
255.051	83.28
255.268	111.96
255.484	111.96
255.701	3.41
255.917	52.56
256.134	-19.11
256.351	7.51
256.567	-27.31
256.784	54.61
257	46.42
257.217	52.56
257.433	95.57
257.65	109.91
257.866	183.63
258.082	-37.55
258.299	-15.02
258.515	-25.26
258.732	62.8
258.948	15.7
259.165	58.71
259.381	-51.88
259.597	159.06
259.814	50.52
260.03	7.51
260.246	-15.02
260.463	148.82
260.679	44.37
260.895	40.28
261.112	54.61
261.328	40.28
261.544	-12.97
261.761	157.01
261.977	46.42
262.193	-39.59
262.409	60.76
262.626	136.53
262.842	77.14
263.058	-4.78
263.274	122.2
263.49	107.86
263.707	73.04
263.923	134.48
264.139	-62.12
264.355	-10.92
264.571	138.58
264.787	77.14
265.004	126.29
265.22	3.41
265.436	21.85
265.652	15.7
265.868	1.37
266.084	-10.92
266.3	38.23
266.516	-55.98
266.732	13.65
266.948	40.28
267.164	-72.36
267.38	64.85
267.596	50.52
267.812	163.15
268.028	-15.02
268.244	58.71
268.46	73.04
268.676	-51.88
268.892	75.09
269.108	-35.5
269.324	-37.55
269.54	-47.79
269.756	122.2
269.972	-4.78
270.188	-10.92
270.403	-27.31
270.619	60.76
270.835	130.39
271.051	52.56
271.267	3.41
271.483	-47.79
271.698	48.47
271.914	103.76
272.13	19.8
272.346	-29.35
272.562	25.94
272.777	71
272.993	42.32
273.209	38.23
273.425	75.09
273.64	-58.03
273.856	105.81
274.072	-41.64
274.287	46.42
274.503	93.52
274.719	116.05
274.934	-15.02
275.15	-62.12
275.366	9.56
275.581	-25.26
275.797	120.15
276.012	36.18
276.228	11.61
276.444	40.28
276.659	136.53
276.875	-35.5
277.09	44.37
277.306	27.99
277.521	128.34
277.737	-2.73
277.952	56.66
278.168	-33.45
278.383	56.66
278.599	54.61
278.814	62.8
279.03	44.37
279.245	171.35
279.461	42.32
279.676	64.85
279.892	-19.11
280.107	50.52
280.322	-15.02
280.538	132.44
280.753	-47.79
280.969	62.8
281.184	79.19
281.399	163.15
281.615	64.85
281.83	79.19
282.045	-8.87
282.26	9.56
282.476	68.95
282.691	148.82
282.906	44.37
283.122	40.28
283.337	-4.78
283.552	75.09
283.767	44.37
283.983	114
284.198	79.19
284.413	83.28
284.628	-64.17
284.843	64.85
285.058	85.33
285.274	58.71
285.489	-51.88
285.704	111.96
285.919	-0.68
286.134	44.37
286.349	107.86
286.564	-25.26
286.779	103.76
286.995	54.61
287.21	-55.98
287.425	54.61
287.64	13.65
287.855	77.14
288.07	-8.87
288.285	44.37
288.5	52.56
288.715	79.19
288.93	46.42
289.145	40.28
289.36	142.68
289.575	-58.03
289.79	189.78
290.004	66.9
290.219	105.81
290.434	36.18
290.649	3.41
290.864	-43.69
291.079	21.85
291.294	73.04
291.509	99.67
291.724	-41.64
291.938	60.76
292.153	109.91
292.368	-29.35
292.583	17.75
292.798	89.43
293.012	114
293.227	15.7
293.442	-45.74
293.657	97.62
293.871	30.04
294.086	21.85
294.301	281.94
294.516	44.37
294.73	34.13
294.945	-82.6
295.16	-47.79
295.374	71
295.589	95.57
295.804	50.52
296.018	-17.07
296.233	114
296.447	97.62
296.662	-33.45
296.877	136.53
297.091	23.89
297.306	-10.92
297.52	46.42
297.735	91.48
297.949	111.96
298.164	50.52
298.378	17.75
298.593	54.61
298.807	-17.07
299.022	19.8
299.236	109.91
299.451	-21.16
299.665	34.13
299.88	21.85
300.094	56.66
300.309	73.04
300.523	21.85
300.737	9.56
300.952	54.61
301.166	101.72
301.381	-78.51
301.595	36.18
301.809	42.32
302.024	40.28
302.238	-41.64
302.452	50.52
302.667	60.76
302.881	109.91
303.095	58.71
303.309	36.18
303.524	66.9
303.738	42.32
303.952	75.09
304.166	38.23
304.381	-80.55
304.595	124.24
304.809	-19.11
305.023	34.13
305.237	40.28
305.452	11.61
305.666	-2.73
305.88	60.76
306.094	105.81
306.308	71
306.522	132.44
306.736	40.28
306.95	150.87
307.164	71
307.379	34.13
307.593	130.39
307.807	191.83
308.021	93.52
308.235	66.9
308.449	-29.35
308.663	56.66
308.877	183.63
309.091	38.23
309.305	91.48
309.519	-92.84
309.733	50.52
309.947	-68.27
310.161	167.25
310.374	68.95
310.588	171.35
310.802	-17.07
311.016	-0.68
311.23	-62.12
311.444	-4.78
311.658	62.8
311.872	66.9
312.085	114
312.299	64.85
312.513	48.47
312.727	99.67
312.941	15.7
313.154	77.14
313.368	-21.16
313.582	95.57
313.796	136.53
314.009	30.04
314.223	118.1
314.437	107.86
314.651	77.14
314.864	5.46
315.078	23.89
315.292	-129.7
315.505	5.46
315.719	48.47
315.933	68.95
316.146	-43.69
316.36	-51.88
316.573	173.39
316.787	85.33
317.001	114
317.214	-37.55
317.428	38.23
317.641	30.04
317.855	-10.92
318.068	50.52
318.282	85.33
318.495	142.68
318.709	-8.87
318.922	77.14
319.136	107.86
319.349	128.34
319.563	46.42
319.776	56.66
319.99	21.85
320.203	161.11
320.417	40.28
320.63	95.57
320.843	165.2
321.057	73.04
321.27	11.61
321.483	103.76
321.697	116.05
321.91	91.48
322.124	52.56
322.337	30.04
322.55	13.65
322.763	46.42
322.977	-8.87
323.19	-6.83
323.403	54.61
323.617	32.08
323.83	71
324.043	38.23
324.256	64.85
324.469	-58.03
324.683	81.24
324.896	73.04
325.109	68.95
325.322	-60.07
325.535	128.34
325.748	111.96
325.962	46.42
326.175	5.46
326.388	44.37
326.601	107.86
326.814	23.89
327.027	40.28
327.24	222.55
327.453	-82.6
327.666	27.99
327.879	21.85
328.092	73.04
328.305	116.05
328.518	-21.16
328.731	-8.87
328.944	-25.26
329.157	19.8
329.37	-33.45
329.583	140.63
329.796	93.52
330.009	-78.51
330.222	99.67
330.435	68.95
330.648	87.38
330.861	64.85
331.073	11.61
331.286	64.85
331.499	60.76
331.712	-66.22
331.925	25.94
332.138	107.86
332.35	89.43
332.563	-25.26
332.776	73.04
332.989	-62.12
333.202	-55.98
333.414	36.18
333.627	19.8
333.84	-15.02
334.053	-31.4
334.265	71
334.478	-27.31
334.691	-15.02
334.903	50.52
335.116	-37.55
335.329	50.52
335.541	62.8
335.754	163.15
335.966	34.13
336.179	-33.45
336.392	7.51
336.604	36.18
336.817	138.58
337.029	91.48
337.242	44.37
337.454	107.86
337.667	64.85
337.88	50.52
338.092	60.76
338.305	46.42
338.517	-27.31
338.729	64.85
338.942	181.59
339.154	5.46
339.367	-96.94
339.579	101.72
339.792	1.37
340.004	157.01
340.217	-17.07
340.429	62.8
340.641	-47.79
340.854	-6.83
341.066	1.37
341.278	144.72
341.491	138.58
341.703	83.28
341.915	-62.12
342.128	77.14
342.34	83.28
342.552	-45.74
342.764	-12.97
342.977	34.13
343.189	116.05
343.401	73.04
343.613	-49.83
343.826	42.32
344.038	32.08
344.25	36.18
344.462	-45.74
344.674	52.56
344.886	48.47
345.099	97.62
345.311	-2.73
345.523	13.65
345.735	-27.31
345.947	40.28
346.159	5.46
346.371	-0.68
346.583	-15.02
346.795	216.4
347.007	105.81
347.219	87.38
347.431	50.52
347.643	48.47
347.855	-51.88
348.067	114
348.279	25.94
348.491	66.9
348.703	95.57
348.915	19.8
349.127	38.23
349.339	30.04
349.551	19.8
349.763	71
349.975	30.04
350.187	38.23
350.399	179.54
350.61	77.14
350.822	-2.73
351.034	42.32
351.246	62.8
351.458	116.05
351.669	120.15
351.881	91.48
352.093	87.38
352.305	85.33
352.517	109.91
352.728	71
352.94	9.56
353.152	83.28
353.363	11.61
353.575	60.76
353.787	157.01
353.999	58.71
354.21	181.59
354.422	52.56
354.633	54.61
354.845	11.61
355.057	75.09
355.268	9.56
355.48	159.06
355.692	-6.83
355.903	44.37
356.115	-55.98
356.326	27.99
356.538	163.15
356.749	81.24
356.961	210.26
357.172	81.24
357.384	-35.5
357.595	173.39
357.807	1.37
358.018	79.19
358.23	9.56
358.441	107.86
358.653	68.95
358.864	21.85
359.075	19.8
359.287	83.28
359.498	120.15
359.709	58.71
359.921	9.56
360.132	109.91
360.344	101.72
360.555	7.51
360.766	128.34
360.977	52.56
361.189	114
361.4	3.41
361.611	116.05
361.823	27.99
362.034	-15.02
362.245	-62.12
362.456	30.04
362.667	75.09
362.879	-80.55
363.09	87.38
363.301	91.48
363.512	11.61
363.723	-33.45
363.935	52.56
364.146	95.57
364.357	40.28
364.568	79.19
364.779	-21.16
364.99	134.48
365.201	-6.83
365.412	58.71
365.623	-68.27
365.834	7.51
366.045	50.52
366.256	91.48
366.467	25.94
366.678	-4.78
366.889	95.57
367.1	-8.87
367.311	89.43
367.522	-8.87
367.733	56.66
367.944	19.8
368.155	52.56
368.366	73.04
368.577	103.76
368.788	71
368.999	27.99
369.209	17.75
369.42	206.16
369.631	218.45
369.842	9.56
370.053	73.04
370.264	42.32
370.474	-29.35
370.685	54.61
370.896	-0.68
371.107	105.81
371.317	103.76
371.528	-6.83
371.739	83.28
371.95	114
372.16	130.39
372.371	-45.74
372.582	-21.16
372.792	105.81
373.003	34.13
373.214	122.2
373.424	52.56
373.635	-74.41
373.846	103.76
374.056	-31.4
374.267	105.81
374.477	87.38
374.688	-4.78
374.898	50.52
375.109	122.2
375.319	52.56
375.53	124.24
375.74	32.08
375.951	15.7
376.161	75.09
376.372	138.58
376.582	23.89
376.793	99.67
377.003	-64.17
377.214	-19.11
377.424	27.99
377.635	142.68
377.845	-8.87
378.055	142.68
378.266	30.04
378.476	30.04
378.686	32.08
378.897	120.15
379.107	73.04
379.317	105.81
379.528	5.46
379.738	87.38
379.948	-35.5
380.158	68.95
380.369	48.47
380.579	66.9
380.789	-4.78
380.999	62.8
381.21	64.85
381.42	128.34
381.63	-8.87
381.84	68.95
382.05	75.09
382.261	161.11
382.471	95.57
382.681	-6.83
382.891	271.7
383.101	101.72
383.311	-39.59
383.521	-47.79
383.731	68.95
383.941	130.39
384.151	-17.07
384.361	23.89
384.571	56.66
384.781	89.43
384.991	187.73
385.201	185.68
385.411	52.56
385.621	73.04
385.831	107.86
386.041	11.61
386.251	124.24
386.461	99.67
386.671	46.42
386.881	1.37
387.091	58.71
387.301	101.72
387.511	32.08
387.72	68.95
387.93	114
388.14	-139.94
388.35	48.47
388.56	58.71
388.769	60.76
388.979	-35.5
389.189	27.99
389.399	101.72
389.609	-6.83
389.818	75.09
390.028	52.56
390.238	-2.73
390.447	1.37
390.657	13.65
390.867	87.38
391.076	-72.36
391.286	44.37
391.496	-10.92
391.705	-12.97
391.915	128.34
392.125	79.19
392.334	-17.07
392.544	105.81
392.753	17.75
392.963	-55.98
393.172	34.13
393.382	-27.31
393.591	181.59
393.801	17.75
394.01	175.44
394.22	27.99
394.429	19.8
394.639	13.65
394.848	56.66
395.058	50.52
395.267	-6.83
395.477	134.48
395.686	87.38
395.895	154.96
396.105	240.98
396.314	40.28
396.524	107.86
396.733	68.95
396.942	118.1
397.152	116.05
397.361	103.76
397.57	101.72
397.78	-47.79
397.989	64.85
398.198	243.03
398.407	134.48
398.617	38.23
398.826	62.8
399.035	-2.73
399.244	159.06
399.453	3.41
399.663	62.8
399.872	75.09
400.081	-2.73
400.29	157.01
400.499	-41.64
400.708	120.15
400.917	50.52
401.127	-17.07
401.336	-10.92
401.545	208.21
401.754	130.39
401.963	130.39
402.172	42.32
402.381	-72.36
402.59	79.19
402.799	32.08
403.008	73.04
403.217	101.72
403.426	95.57
403.635	-19.11
403.844	-27.31
404.053	30.04
404.262	44.37
404.471	214.35
404.68	62.8
404.888	38.23
405.097	54.61
405.306	-8.87
405.515	56.66
405.724	44.37
405.933	13.65
406.142	142.68
406.35	122.2
406.559	-8.87
406.768	54.61
406.977	130.39
407.185	130.39
407.394	77.14
407.603	-47.79
407.812	44.37
408.02	163.15
408.229	-17.07
408.438	62.8
408.646	-17.07
408.855	71
409.064	25.94
409.272	62.8
409.481	134.48
409.69	36.18
409.898	32.08
410.107	95.57
410.315	120.15
410.524	58.71
410.733	58.71
410.941	167.25
411.15	30.04
411.358	114
411.567	126.29
411.775	128.34
411.984	73.04
412.192	101.72
412.401	25.94
412.609	349.52
412.818	42.32
413.026	30.04
413.234	1.37
413.443	34.13
413.651	15.7
413.86	64.85
414.068	159.06
414.276	171.35
414.485	21.85
414.693	175.44
414.901	200.02
415.11	95.57
415.318	71
415.526	27.99
415.734	71
415.943	101.72
416.151	191.83
416.359	124.24
416.567	7.51
416.776	89.43
416.984	116.05
417.192	152.91
417.4	23.89
417.608	-0.68
417.817	13.65
418.025	114
418.233	216.4
418.441	-2.73
418.649	54.61
418.857	30.04
419.065	134.48
419.273	95.57
419.481	89.43
419.689	-4.78
419.897	68.95
420.105	-23.21
420.313	161.11
420.521	212.31
420.729	142.68
420.937	3.41
421.145	32.08
421.353	128.34
421.561	120.15
421.769	101.72
421.977	-15.02
422.185	111.96
422.393	152.91
422.601	89.43
422.809	87.38
423.017	54.61
423.224	81.24
423.432	71
423.64	101.72
423.848	134.48
424.056	-31.4
424.263	116.05
424.471	-2.73
424.679	214.35
424.887	46.42
425.094	105.81
425.302	91.48
425.51	-35.5
425.718	134.48
425.925	52.56
426.133	9.56
426.341	165.2
426.548	118.1
426.756	-8.87
426.964	142.68
427.171	1.37
427.379	114
427.586	114
427.794	99.67
428.001	163.15
428.209	64.85
428.417	62.8
428.624	91.48
428.832	146.77
429.039	171.35
429.247	36.18
429.454	161.11
429.662	216.4
429.869	120.15
430.076	157.01
430.284	107.86
430.491	175.44
430.699	218.45
430.906	130.39
431.114	87.38
431.321	157.01
431.528	111.96
431.736	148.82
431.943	152.91
432.15	91.48
432.358	165.2
432.565	265.55
432.772	64.85
432.979	236.88
433.187	132.44
433.394	214.35
433.601	181.59
433.808	236.88
434.016	189.78
434.223	230.74
434.43	316.75
434.637	283.98
434.844	294.22
435.052	249.17
435.259	314.7
435.466	306.51
435.673	157.01
435.88	290.13
436.087	318.8
436.294	353.62
436.501	310.61
436.708	267.6
436.915	292.18
437.122	361.81
437.329	238.93
437.537	386.38
437.743	413.01
437.95	447.82
438.157	429.39
438.364	413.01
438.571	400.72
438.778	357.71
438.985	470.35
439.192	474.45
439.399	460.11
439.606	535.89
439.813	511.31
440.02	662.86
440.227	683.34
440.433	601.42
440.64	621.9
440.847	501.07
441.054	666.96
441.261	748.87
441.467	638.28
441.674	626
441.881	814.41
442.088	628.04
442.294	701.77
442.501	853.32
442.708	851.27
442.914	838.98
443.121	904.52
443.328	929.1
443.534	1080.64
443.741	877.9
443.948	800.07
444.154	1137.99
444.361	1207.62
444.568	1123.65
444.774	1230.15
444.981	1062.21
445.187	1185.09
445.394	1240.39
445.6	1236.29
445.807	1371.46
446.013	1377.6
446.22	1342.78
446.426	1516.86
446.633	1568.06
446.839	1731.9
447.046	1566.01
447.252	1813.82
447.459	1692.99
447.665	1717.56
447.871	1910.07
448.078	2043.19
448.284	1991.99
448.491	2045.24
448.697	2243.89
448.903	2325.81
449.11	2426.16
449.316	2305.33
449.522	2542.89
449.728	2512.18
449.935	2706.73
450.141	2630.96
450.347	2774.31
450.553	2868.52
450.76	3007.78
450.966	3089.7
451.172	3218.72
451.378	3362.08
451.584	3276.07
451.791	3673.37
451.997	3634.46
452.203	3743
452.409	3978.52
452.615	4134.17
452.821	4009.24
453.027	4089.11
453.233	4646.16
453.44	4455.7
453.646	4830.48
453.852	4801.8
454.058	4982.03
454.264	5254.41
454.47	5506.31
454.676	5477.63
454.882	6100.22
455.088	5833.98
455.294	6259.96
455.5	6487.28
455.705	6827.25
455.911	6968.56
456.117	7253.22
456.323	7412.96
456.529	7451.88
456.735	8133.85
456.941	8244.44
457.147	8660.18
457.352	9016.52
457.558	9137.35
457.764	9600.19
457.97	9876.67
458.176	10091.71
458.381	10878.13
458.587	10927.28
458.793	11619.49
458.999	11615.4
459.204	12760.21
459.41	13431.94
459.616	13063.31
459.821	13933.7
460.027	14615.67
460.233	15135.85
460.438	15271.02
460.644	16239.71
460.85	16086.11
461.055	16972.88
461.261	17933.38
461.466	17445.96
461.672	17425.48
461.878	19989.54
462.083	19477.55
462.289	20034.6
462.494	20866.07
462.7	20808.73
462.905	21163.03
463.111	22952.95
463.316	23997.42
463.522	24464.35
463.727	25177.05
463.932	26174.41
464.138	26975.16
464.343	27949.99
464.549	28060.59
464.754	30432.13
464.959	30833.53
465.165	31505.27
465.37	31175.55
465.575	31601.52
465.781	33618.77
465.986	34425.67
466.191	34157.39
466.397	34288.46
466.602	33270.62
466.807	35230.52
467.012	35984.18
467.218	36438.83
467.423	36756.26
467.628	37612.31
467.833	39908.08
468.038	38966.02
468.244	38345.48
468.449	39959.28
468.654	39097.09
468.859	39369.47
469.064	39256.83
469.269	38148.88
469.474	38812.42
469.679	39467.77
469.885	38277.9
470.09	39109.38
470.295	39195.39
470.5	38128.4
470.705	38447.88
470.91	37497.63
471.115	37309.21
471.32	37702.42
471.525	37413.66
471.73	36537.13
471.935	36152.11
472.139	34763.59
472.344	35212.09
472.549	34720.58
472.754	34286.41
472.959	33045.34
473.164	31978.35
473.369	31861.62
473.574	32172.91
473.778	32027.5
473.983	31087.48
474.188	30759.81
474.393	29322.13
474.598	29279.13
474.802	28494.75
475.007	28019.63
475.212	27728.81
475.417	26682.3
475.621	26614.72
475.826	26450.88
476.031	26100.68
476.235	25164.76
476.44	25183.19
476.645	24413.15
476.849	24347.62
477.054	23550.96
477.259	23075.83
477.463	23493.61
477.668	22461.44
477.872	22752.25
478.077	21623.82
478.282	21412.88
478.486	21042.2
478.691	20667.42
478.895	20995.09
479.1	20530.2
479.304	20481.05
479.509	19729.45
479.713	20376.61
479.918	19581.99
480.122	19098.67
480.326	19375.15
480.531	19158.06
480.735	19055.67
480.94	18793.53
481.144	19553.32
481.348	18449.47
481.553	18256.96
481.757	17822.79
481.961	18306.11
482.166	18197.57
482.37	17847.36
482.574	17468.49
482.778	17331.28
482.983	18066.5
483.187	17220.69
483.391	17198.16
483.595	16688.21
483.8	16790.61
484.004	16694.36
484.208	16786.52
484.412	16581.72
484.616	16559.19
484.821	16133.22
485.025	15662.18
485.229	15590.5
485.433	15318.12
485.637	15187.05
485.841	15076.46
486.045	14994.54
486.249	14886
486.453	14562.42
486.657	14306.43
486.861	14187.64
487.065	13878.4
487.269	13694.08
487.473	13321.35
487.677	13567.11
487.881	13540.49
488.085	13130.89
488.289	12729.49
488.493	12373.14
488.697	12350.62
488.901	12297.37
489.105	11910.3
489.309	11637.92
489.512	11562.15
489.716	11281.58
489.92	11148.46
490.124	10689.71
490.328	10702
490.531	10386.61
490.735	10288.31
490.939	10278.07
491.143	9874.62
491.346	9776.32
491.55	9692.35
491.754	9757.89
491.958	9520.32
492.161	9241.8
492.365	9249.99
492.569	8907.98
492.772	8944.84
492.976	8699.09
493.18	8705.23
493.383	8598.74
493.587	8369.37
493.79	8350.93
493.994	8166.62
494.197	8111.32
494.401	8160.47
494.605	7945.44
494.808	8062.17
495.012	7716.06
495.215	7896.28
495.419	7767.26
495.622	7707.87
495.825	7632.1
496.029	7632.1
496.232	7681.25
496.436	7433.44
496.639	7703.78
496.843	7560.42
497.046	7511.27
497.249	7630.05
497.453	7646.43
497.656	7609.57
497.859	7525.6
498.063	7689.44
498.266	7886.05
498.469	7521.51
498.673	7730.4
498.876	7791.84
499.079	7656.67
499.282	7685.34
499.485	7980.25
499.689	7881.95
499.892	8031.45
500.095	7630.05
500.298	7896.28
500.501	7927
500.705	8111.32
500.908	8334.55
501.111	8336.6
501.314	8441.04
501.517	8432.85
501.72	8602.83
501.923	8416.47
502.126	8611.03
502.329	9129.16
502.532	8965.32
502.735	8944.84
502.938	9163.98
503.141	9098.44
503.344	9133.26
503.547	9594.05
503.75	9350.34
503.953	9573.57
504.156	9800.9
504.359	10034.36
504.562	9927.87
504.765	10540.21
504.968	10409.14
505.17	10702
505.373	10679.47
505.576	11195.56
505.779	10951.85
505.982	11211.95
506.185	11596.96
506.387	11578.53
506.59	11883.68
506.793	12057.76
506.996	11930.78
507.198	12600.47
507.401	12643.48
507.604	13010.06
507.807	13065.36
508.009	13266.06
508.212	13722.76
508.415	14079.1
508.617	14036.1
508.82	14654.58
509.022	14462.07
509.225	15197.29
509.428	15412.33
509.63	15791.2
509.833	15926.37
510.035	16626.78
510.238	17028.18
510.44	17073.23
510.643	17495.11
510.845	18261.05
511.048	18121.79
511.25	18621.5
511.453	18814.01
511.655	19686.44
511.858	19680.3
512.06	20423.71
512.262	20608.03
512.465	21064.72
512.667	21584.91
512.87	22176.77
513.072	22666.24
513.274	23301.11
513.477	23811.05
513.679	24241.12
513.881	24708.06
514.084	25095.13
514.286	25760.72
514.488	26323.91
514.69	27294.64
514.893	27462.58
515.095	27810.73
515.297	28537.76
515.499	29436.82
515.701	29614.99
515.904	30851.97
516.106	31378.29
516.308	32043.88
516.51	32508.77
516.712	32551.78
516.914	33651.54
517.116	34442.06
517.318	35181.37
517.52	35330.87
517.722	35593.01
517.925	36789.03
518.127	37647.13
518.329	38325
518.531	38308.62
518.733	39209.73
518.935	39807.73
519.136	40512.24
519.338	41341.66
519.54	41997.01
519.742	42615.5
519.944	43145.92
520.146	43961.01
520.348	44323.5
520.55	44716.71
520.752	45318.82
520.954	46166.68
521.155	45806.23
521.357	46811.79
521.559	47389.31
521.761	48429.68
521.963	48263.8
522.164	48937.58
522.366	49195.62
522.568	49920.6
522.77	49785.44
522.971	50917.96
523.173	50616.91
523.375	51200.58
523.576	50862.67
523.778	51569.22
523.98	51606.08
524.181	52181.56
524.383	51833.41
524.584	52548.15
524.786	52423.22
524.988	52202.04
525.189	52849.2
525.391	52908.59
525.592	53013.04
525.794	52910.64
525.995	52777.52
526.197	52650.55
526.398	52593.2
526.6	52800.05
526.801	52460.08
527.003	51884.61
527.204	52165.18
527.406	52324.92
527.607	51696.19
527.808	52337.21
528.01	50844.24
528.211	51026.51
528.412	51452.48
528.614	50940.49
528.815	50801.23
529.016	50838.09
529.218	49605.22
529.419	49011.31
529.62	48876.14
529.822	48177.78
530.023	48153.21
530.224	47583.87
530.425	47022.73
530.626	46428.82
530.828	45775.51
531.029	46217.88
531.23	45046.44
531.431	44833.45
531.632	44223.15
531.833	44120.76
532.035	43406.01
532.236	42685.13
532.437	42777.29
532.638	42044.12
532.839	41323.23
533.04	40846.05
533.241	39889.65
533.442	39893.75
533.643	39154.43
533.844	38691.59
534.045	38529.8
534.246	37405.47
534.447	37393.18
534.648	36342.57
534.849	36543.27
535.05	35588.92
535.251	35208
535.451	34675.52
535.652	34397
535.853	34270.03
536.054	33315.67
536.255	33309.53
536.456	32240.49
536.657	32453.48
536.857	31558.52
537.058	31251.32
537.259	31071.1
537.46	30477.19
537.66	30290.82
537.861	29729.68
538.062	29139.86
538.263	29156.25
538.463	28591.01
538.664	28119.98
538.865	27784.11
539.065	27542.45
539.266	26981.31
539.466	26934.2
539.667	26133.45
539.868	26268.61
540.068	25971.66
540.269	25779.15
540.469	25220.05
540.67	25097.17
540.87	24480.74
541.071	24120.29
541.271	23983.08
541.472	23905.26
541.672	23358.45
541.873	22930.42
542.073	22531.07
542.274	22983.67
542.474	22227.97
542.675	21994.5
542.875	22178.82
543.075	21478.41
543.276	21038.1
543.476	21330.96
543.676	21003.28
543.877	20859.93
544.077	20501.53
544.277	20433.95
544.478	20149.28
544.678	20069.41
544.878	19508.27
545.078	19442.73
545.279	18902.07
545.479	18869.3
545.679	18994.23
545.879	18332.73
546.079	18443.32
546.28	18013.25
546.48	17960
546.68	17495.11
546.88	17296.46
547.08	17566.79
547.28	17286.22
547.48	16682.07
547.68	16684.12
547.88	16426.07
548.081	16573.53
548.281	15834.21
548.481	15866.98
548.681	15670.37
548.881	15490.15
549.081	15281.26
549.28	14795.89
549.48	14728.31
549.68	14480.5
549.88	14656.63
550.08	14103.68
550.28	14001.28
550.48	13778.05
550.68	13925.5
550.88	13481.1
551.08	13384.84
551.279	13218.96
551.479	12919.95
551.679	12786.83
551.879	12258.46
552.079	12342.42
552.278	12354.71
552.478	12061.85
552.678	11859.1
552.878	11820.19
553.077	11416.74
553.277	11152.56
553.477	11205.8
553.676	10982.57
553.876	10759.35
554.076	10441.91
554.275	10529.97
554.475	10259.64
554.674	10257.59
554.874	10056.89
555.074	9737.41
555.273	9618.63
555.473	9458.89
555.672	9311.43
555.872	9127.11
556.071	9065.67
556.271	8971.47
556.47	8858.83
556.67	8479.96
556.869	8330.45
557.068	8379.61
557.268	8174.81
557.467	8019.16
557.667	7902.43
557.866	7859.42
558.065	7703.78
558.265	7615.71
558.464	7290.09
558.663	7519.46
558.863	7146.73
559.062	7249.13
559.261	6860.01
559.461	6978.79
559.66	6726.89
559.859	6681.84
560.058	6382.84
560.258	6419.7
560.457	6255.86
560.656	6491.38
560.855	6026.49
561.054	6040.83
561.253	5993.72
561.453	5928.19
561.652	5707.01
561.851	5799.16
562.05	5610.75
562.249	5291.27
562.448	5479.68
562.647	5326.08
562.846	5248.26
563.045	5287.17
563.244	5231.88
563.443	5098.76
563.642	4928.78
563.841	4922.63
564.04	4709.65
564.239	4721.93
564.438	4582.67
564.637	4447.51
564.836	4609.3
565.035	4492.56
565.234	4377.87
565.432	4293.91
565.631	4261.14
565.83	4207.89
566.029	4017.43
566.228	4062.49
566.427	4173.08
566.625	3939.61
566.824	3958.04
567.023	3935.51
567.222	3872.03
567.42	3792.16
567.619	3634.46
567.818	3689.76
568.016	3753.24
568.215	3595.55
568.414	3439.9
568.612	3319.07
568.811	3444
569.01	3392.8
569.208	3175.72
569.407	3450.14
569.605	3333.41
569.804	3138.85
570.002	3110.18
570.201	2993.45
570.4	3136.81
570.598	2858.28
570.797	2944.3
570.995	2823.47
571.193	2950.44
571.392	2934.06
571.59	2710.83
571.789	2727.21
571.987	2673.96
572.186	2786.6
572.384	2633.01
572.582	2458.93
572.781	2608.43
572.979	2407.73
573.177	2442.54
573.376	2493.74
573.574	2436.4
573.772	2407.73
573.971	2186.55
574.169	2112.82
574.367	2213.17
574.565	2041.14
574.763	2194.74
574.962	2174.26
575.16	2096.44
575.358	2073.91
575.556	2018.61
575.754	1953.08
575.952	2008.37
576.151	2061.62
576.349	2014.52
576.547	1707.32
576.745	1940.79
576.943	1871.16
577.141	1813.82
577.339	1701.18
577.537	1854.78
577.735	1848.63
577.933	1797.43
578.131	1568.06
578.329	1654.08
578.527	1568.06
578.725	1639.74
578.923	1402.18
579.121	1629.5
579.319	1377.6
579.516	1506.62
579.714	1592.64
579.912	1430.85
580.11	1303.87
580.308	1271.11
580.506	1305.92
580.704	1142.08
580.901	1230.15
581.099	1492.29
581.297	1381.7
581.495	1328.45
581.692	1252.67
581.89	1320.26
582.088	1201.47
582.285	1115.46
582.483	1135.94
582.681	1135.94
582.878	1185.09
583.076	1107.27
583.274	1203.52
583.471	1154.37
583.669	1103.17
583.866	996.68
584.064	1060.17
584.262	965.96
584.459	988.49
584.657	996.68
584.854	1039.69
585.052	968.01
585.249	1062.21
585.447	961.86
585.644	857.42
585.841	996.68
586.039	1006.92
586.236	978.25
586.434	902.47
586.631	886.09
586.828	871.75
587.026	826.7
587.223	795.98
587.42	771.4
587.618	838.98
587.815	974.15
588.012	808.27
588.21	701.77
588.407	851.27
588.604	810.31
588.801	728.39
588.999	765.26
589.196	800.07
589.393	712.01
589.59	738.63
589.787	750.92
589.984	738.63
590.182	658.76
590.379	607.56
590.576	765.26
590.773	791.88
590.97	652.62
591.167	671.05
591.364	697.67
591.561	658.76
591.758	726.35
591.955	664.91
592.152	638.28
592.349	558.41
592.546	607.56
592.743	568.65
592.94	626
593.137	746.83
593.334	810.31
593.531	687.43
593.727	761.16
593.924	687.43
594.121	658.76
594.318	630.09
594.515	761.16
594.712	843.08
594.908	812.36
595.105	576.84
595.302	787.79
595.499	752.97
595.696	898.38
595.892	736.59
596.089	775.5
596.286	687.43
596.482	804.17
596.679	834.89
596.876	771.4
597.072	875.85
597.269	888.14
597.466	894.28
597.662	912.71
597.859	886.09
598.055	1004.87
598.252	970.05
598.448	1060.17
598.645	1195.33
598.841	1097.03
599.038	1267.01
599.234	1230.15
599.431	1297.73
599.627	1350.98
599.824	1316.16
600.02	1357.12
600.217	1299.78
600.413	1430.85
600.609	1574.21
600.806	1865.02
601.002	1627.45
601.198	1586.49
601.395	1729.85
601.591	1684.8
601.787	1852.73
601.984	1959.22
602.18	1965.37
602.376	2061.62
602.572	2078.01
602.769	2358.58
602.965	2190.64
603.161	2385.2
603.357	2493.74
603.553	2602.29
603.75	2422.06
603.946	2682.16
604.142	2843.95
604.338	2929.96
604.534	2858.28
604.73	3061.03
604.926	3069.22
605.122	3351.84
605.318	3284.26
605.514	3599.65
605.71	3546.4
605.906	3648.8
606.102	3755.29
606.298	4011.29
606.494	4056.34
606.69	4162.84
606.886	4265.24
607.082	4394.26
607.278	4400.4
607.474	4582.67
607.67	4822.28
607.866	4674.83
608.062	4973.83
608.257	5154.05
608.453	5170.44
608.649	5469.44
608.845	5442.82
609.041	5477.63
609.236	5919.99
609.432	5954.81
609.628	6262.01
609.824	6278.39
610.019	6335.73
610.215	6624.5
610.411	6911.21
610.606	6999.27
610.802	7191.78
610.998	7271.65
611.193	7617.76
611.389	7597.28
611.584	7802.08
611.78	8066.27
611.976	8250.58
612.171	8623.31
612.367	8649.94
612.562	8994
612.758	9102.54
612.953	9350.34
613.149	9551.04
613.344	9874.62
613.539	10210.49
613.735	10540.21
613.93	10689.71
614.126	11046.06
614.321	11093.16
614.517	11607.2
614.712	11979.93
614.907	12108.96
615.103	12453.02
615.298	12786.83
615.493	13081.74
615.688	13231.24
615.884	14044.29
616.079	14103.68
616.274	14359.67
616.47	14744.69
616.665	15066.22
616.86	15441
617.055	15895.65
617.25	16192.61
617.445	16655.45
617.641	16890.96
617.836	17478.73
618.031	17603.66
618.226	18682.94
618.421	18639.93
618.616	19297.33
618.811	19393.58
619.006	20155.43
619.201	20274.21
619.396	20968.47
619.591	21316.62
619.786	22008.84
619.981	21775.37
620.176	22742.01
620.371	22926.33
620.566	23671.79
620.761	24060.9
620.956	24933.34
621.151	24622.05
621.346	25711.56
621.541	25852.87
621.735	26479.55
621.93	26657.73
622.125	27509.68
622.32	27415.47
622.515	28107.69
622.709	28689.31
622.904	29559.7
623.099	29647.76
623.294	30626.69
623.488	30708.61
623.683	31208.31
623.878	31415.16
624.072	32332.65
624.267	32762.72
624.462	33569.62
624.656	33577.81
624.851	34310.99
625.046	34599.75
625.24	35420.98
625.435	35666.74
625.629	36219.69
625.824	36401.96
626.018	36973.35
626.213	36758.31
626.407	37999.38
626.602	37706.52
626.796	38996.74
626.991	38906.63
627.185	38904.58
627.38	39250.69
627.574	39326.46
627.768	39467.77
627.963	39400.19
628.157	39680.76
628.352	40467.18
628.546	39371.52
628.74	40235.76
628.935	39828.21
629.129	39967.48
629.323	39406.33
629.517	39582.46
629.712	39072.51
629.906	38773.51
630.1	38312.72
630.294	38306.57
630.489	37440.28
630.683	37763.86
630.877	36555.56
631.071	35400.51
631.265	35146.56
631.459	34603.85
631.653	33682.26
631.848	33346.39
632.042	32023.4
632.236	31644.53
632.43	30382.98
632.624	29844.37
632.818	28744.61
633.012	28089.26
633.206	27204.53
633.4	26332.1
633.594	25375.7
633.788	24832.99
633.982	23989.22
634.176	23104.5
634.369	22045.7
634.563	21314.58
634.757	20362.27
634.951	19897.38
635.145	18988.08
635.339	18191.42
635.533	17564.75
635.726	16753.75
635.92	15846.5
636.114	15133.81
636.308	14947.44
636.501	14148.73
636.695	13659.27
636.889	13030.54
637.083	12479.64
637.276	11963.55
637.47	11539.62
637.664	11041.96
637.857	10656.95
638.051	10157.24
638.244	9745.6
638.438	9385.16
638.632	8930.51
638.825	8557.78
639.019	8406.23
639.212	7873.76
639.406	7738.59
639.599	7167.21
639.793	7103.72
639.986	6841.58
640.18	6483.19
640.373	6362.36
640.567	6044.92
640.76	5637.38
640.954	5627.14
641.147	5289.22
641.34	5240.07
641.534	4969.74
641.727	4853
641.92	4640.01
642.114	4386.07
642.307	4175.13
642.5	4201.75
642.694	3892.51
642.887	3800.35
643.08	3818.78
643.273	3542.3
643.467	3456.29
643.66	3050.79
643.853	3200.29
644.046	2950.44
644.239	2862.38
644.432	2768.17
644.626	2522.41
644.819	2567.47
645.012	2481.46
645.205	2495.79
645.398	2311.47
645.591	2125.11
645.784	2020.66
645.977	1967.42
646.17	1953.08
646.363	1842.49
646.556	1793.34
646.749	1654.08
646.942	1738.04
647.135	1637.69
647.328	1504.57
647.521	1504.57
647.714	1459.52
647.907	1310.02
648.099	1301.83
648.292	1355.07
648.485	1205.57
648.678	1195.33
648.871	1144.13
649.064	1187.14
649.256	1060.17
649.449	1004.87
649.642	916.81
649.835	982.34
650.027	800.07
650.22	976.2
650.413	927.05
650.605	836.94
650.798	795.98
650.991	703.82
651.183	666.96
651.376	781.64
651.568	726.35
651.761	617.8
651.954	810.31
652.146	705.87
652.339	642.38
652.531	666.96
652.724	447.82
652.916	580.94
653.109	445.77
653.301	589.13
653.494	527.69
653.686	552.27
653.879	607.56
654.071	589.13
654.263	372.05
654.456	458.06
654.648	574.8
654.84	507.21
655.033	417.1
655.225	601.42
655.417	230.74
655.61	415.06
655.802	462.16
655.994	341.33
656.186	253.27
656.379	398.67
656.571	292.18
656.763	259.41
656.955	314.7
657.148	245.07
657.34	367.95
657.532	226.64
657.724	322.9
657.916	324.94
658.108	349.52
658.3	320.85
658.492	314.7
658.684	255.31
658.876	404.82
659.068	204.11
659.26	107.86
659.452	187.73
659.644	154.96
659.836	331.09
660.028	273.75
660.22	159.06
660.412	288.08
660.604	247.12
660.796	136.53
660.988	343.38
661.18	222.55
661.372	234.83
661.563	167.25
661.755	310.61
661.947	97.62
662.139	111.96
662.331	214.35
662.522	218.45
662.714	128.34
662.906	107.86
663.097	165.2
663.289	140.63
663.481	36.18
663.673	247.12
663.864	202.07
664.056	265.55
664.247	75.09
664.439	185.68
664.631	189.78
664.822	236.88
665.014	101.72
665.205	50.52
665.397	109.91
665.588	105.81
665.78	200.02
665.971	257.36
666.163	81.24
666.354	191.83
666.546	91.48
666.737	169.3
666.929	191.83
667.12	126.29
667.311	181.59
667.503	124.24
667.694	109.91
667.885	124.24
668.077	142.68
668.268	17.75
668.459	134.48
668.651	197.97
668.842	128.34
669.033	9.56
669.224	91.48
669.416	255.31
669.607	103.76
669.798	73.04
669.989	204.11
670.18	163.15
670.371	177.49
670.563	5.46
670.754	243.03
670.945	175.44
671.136	222.55
671.327	99.67
671.518	208.21
671.709	212.31
671.9	140.63
672.091	251.22
672.282	197.97
672.473	75.09
672.664	58.71
672.855	36.18
673.046	185.68
673.237	189.78
673.428	187.73
673.619	185.68
673.809	120.15
674	218.45
674.191	202.07
674.382	105.81
674.573	116.05
674.764	144.72
674.954	191.83
675.145	79.19
675.336	87.38
675.527	64.85
675.717	89.43
675.908	105.81
676.099	38.23
676.289	101.72
676.48	48.47
676.671	99.67
676.861	128.34
677.052	154.96
677.243	157.01
677.433	89.43
677.624	195.92
677.814	167.25
678.005	132.44
678.195	253.27
678.386	52.56
678.576	107.86
678.767	-51.88
678.957	126.29
679.148	208.21
679.338	216.4
679.529	171.35
679.719	204.11
679.909	251.22
680.1	150.87
680.29	165.2
680.481	-25.26
680.671	240.98
680.861	249.17
681.052	240.98
681.242	154.96
681.432	216.4
681.622	116.05
681.813	38.23
682.003	177.49
682.193	134.48
682.383	195.92
682.573	177.49
682.764	163.15
682.954	159.06
683.144	269.65
683.334	208.21
683.524	159.06
683.714	259.41
683.904	173.39
684.094	169.3
684.284	128.34
684.474	269.65
684.664	202.07
684.854	238.93
685.044	208.21
685.234	279.89
685.424	193.87
685.614	81.24
685.804	335.18
685.994	226.64
686.184	154.96
686.374	177.49
686.564	73.04
686.753	146.77
686.943	140.63
687.133	181.59
687.323	191.83
687.513	195.92
687.702	169.3
687.892	128.34
688.082	195.92
688.272	257.36
688.461	210.26
688.651	275.79
688.841	269.65
689.03	128.34
689.22	122.2
689.41	183.63
689.599	240.98
689.789	120.15
689.979	286.03
690.168	157.01
690.358	281.94
690.547	222.55
690.737	253.27
690.926	200.02
691.116	294.22
691.305	218.45
691.495	204.11
691.684	140.63
691.874	142.68
692.063	238.93
692.252	261.46
692.442	267.6
692.631	64.85
692.82	189.78
693.01	290.13
693.199	157.01
693.388	275.79
693.578	165.2
693.767	171.35
693.956	236.88
694.146	218.45
694.335	331.09
694.524	79.19
694.713	253.27
694.902	165.2
695.092	189.78
695.281	234.83
695.47	154.96
695.659	128.34
695.848	152.91
696.037	183.63
696.226	224.59
696.415	161.11
696.604	249.17
696.793	255.31
696.982	200.02
697.171	316.75
697.36	161.11
697.549	167.25
697.738	122.2
697.927	134.48
698.116	191.83
698.305	226.64
698.494	181.59
698.683	144.72
698.872	322.9
699.061	204.11
699.25	175.44
699.438	130.39
699.627	81.24
699.816	333.14
700.005	89.43
700.193	138.58
700.382	195.92
700.571	222.55
700.76	212.31
700.948	202.07
701.137	212.31
701.326	251.22
701.514	30.04
701.703	240.98
701.892	230.74
702.08	408.91
702.269	175.44
702.457	109.91
702.646	218.45
702.834	120.15
703.023	267.6
703.212	243.03
703.4	144.72
703.589	165.2
703.777	169.3
703.965	152.91
704.154	107.86
704.342	77.14
704.531	218.45
704.719	173.39
704.907	218.45
705.096	85.33
705.284	103.76
705.472	101.72
705.661	183.63
705.849	193.87
706.037	251.22
706.226	216.4
706.414	200.02
706.602	154.96
706.79	208.21
706.979	128.34
707.167	179.54
707.355	109.91
707.543	173.39
707.731	232.79
707.919	118.1
708.107	111.96
708.296	169.3
708.484	177.49
708.672	216.4
708.86	230.74
709.048	134.48
709.236	105.81
709.424	195.92
709.612	218.45
709.8	93.52
709.988	197.97
710.176	255.31
710.364	251.22
710.551	126.29
710.739	167.25
710.927	165.2
711.115	109.91
711.303	265.55
711.491	240.98
711.679	130.39
711.866	263.51
712.054	183.63
712.242	191.83
712.43	234.83
712.617	103.76
712.805	212.31
712.993	191.83
713.181	19.8
713.368	238.93
713.556	189.78
713.744	111.96
713.931	286.03
714.119	259.41
714.306	79.19
714.494	95.57
714.682	140.63
714.869	50.52
715.057	247.12
715.244	17.75
715.432	197.97
715.619	163.15
715.807	85.33
715.994	122.2
716.182	152.91
716.369	251.22
716.556	251.22
716.744	105.81
716.931	165.2
717.119	230.74
717.306	148.82
717.493	257.36
717.681	193.87
717.868	189.78
718.055	234.83
718.242	191.83
718.43	144.72
718.617	218.45
718.804	126.29
718.991	306.51
719.179	193.87
719.366	308.56
719.553	197.97
719.74	288.08
719.927	281.94
720.114	224.59
720.301	157.01
720.488	118.1
720.676	146.77
720.863	275.79
721.05	286.03
721.237	238.93
721.424	214.35
721.611	240.98
721.798	81.24
721.985	187.73
722.172	202.07
722.358	247.12
722.545	288.08
722.732	157.01
722.919	341.33
723.106	189.78
723.293	99.67
723.48	236.88
723.667	232.79
723.853	202.07
724.04	267.6
724.227	367.95
724.414	232.79
724.6	251.22
724.787	308.56
724.974	365.9
725.161	200.02
725.347	52.56
725.534	220.5
725.72	271.7
725.907	230.74
726.094	331.09
726.28	163.15
726.467	216.4
726.653	173.39
726.84	290.13
727.027	322.9
727.213	169.3
727.4	277.84
727.586	261.46
727.773	218.45
727.959	216.4
728.145	181.59
728.332	238.93
728.518	152.91
728.705	247.12
728.891	240.98
729.077	185.68
729.264	202.07
729.45	263.51
729.636	308.56
729.823	236.88
730.009	230.74
730.195	200.02
730.382	326.99
730.568	212.31
730.754	238.93
730.94	161.11
731.126	261.46
731.313	322.9
731.499	236.88
731.685	279.89
731.871	228.69
732.057	249.17
732.243	302.42
732.429	255.31
732.615	363.86
732.801	288.08
732.987	165.2
733.173	222.55
733.359	165.2
733.545	335.18
733.731	234.83
733.917	425.29
734.103	245.07
734.289	245.07
734.475	189.78
734.661	396.62
734.847	261.46
735.033	255.31
735.219	249.17
735.404	222.55
735.59	214.35
735.776	202.07
735.962	318.8
736.148	263.51
736.333	318.8
736.519	183.63
736.705	261.46
736.89	222.55
737.076	292.18
737.262	181.59
737.447	189.78
737.633	232.79
737.819	337.23
738.004	238.93
738.19	251.22
738.375	300.37
738.561	283.98
738.747	228.69
738.932	204.11
739.118	353.62
739.303	290.13
739.489	259.41
739.674	238.93
739.859	165.2
740.045	292.18
740.23	257.36
740.416	99.67
740.601	312.66
740.786	259.41
740.972	226.64
741.157	204.11
741.342	165.2
741.528	179.54
741.713	267.6
741.898	216.4
742.084	277.84
742.269	263.51
742.454	277.84
742.639	269.65
742.824	216.4
743.01	306.51
743.195	367.95
743.38	251.22
743.565	171.35
743.75	267.6
743.935	234.83
744.12	277.84
744.305	183.63
744.49	212.31
744.675	226.64
744.86	275.79
745.045	283.98
745.23	222.55
745.415	169.3
745.6	263.51
745.785	183.63
745.97	269.65
746.155	277.84
746.34	314.7
746.525	267.6
746.71	273.75
746.895	136.53
747.079	191.83
747.264	193.87
747.449	292.18
747.634	347.47
747.819	214.35
748.003	193.87
748.188	179.54
748.373	267.6
748.557	236.88
748.742	267.6
748.927	208.21
749.111	202.07
749.296	214.35
749.481	230.74
749.665	243.03
749.85	99.67
750.034	267.6
750.219	179.54
750.404	202.07
750.588	163.15
750.773	136.53
750.957	253.27
751.141	187.73
751.326	181.59
751.51	120.15
751.695	179.54
751.879	216.4
752.064	208.21
752.248	161.11
752.432	257.36
752.617	251.22
752.801	181.59
752.985	195.92
753.17	236.88
753.354	216.4
753.538	245.07
753.722	114
753.907	134.48
754.091	89.43
754.275	224.59
754.459	148.82
754.643	152.91
754.828	228.69
755.012	195.92
755.196	111.96
755.38	204.11
755.564	64.85
755.748	179.54
755.932	150.87
756.116	206.16
756.3	204.11
756.484	148.82
756.668	238.93
756.852	30.04
757.036	124.24
757.22	165.2
757.404	52.56
757.588	95.57
757.772	144.72
757.956	128.34
758.14	279.89
758.323	154.96
758.507	136.53
758.691	52.56
758.875	161.11
759.059	120.15
759.242	154.96
759.426	58.71
759.61	148.82
759.794	99.67
759.977	179.54
760.161	288.08
760.345	185.68
760.528	175.44
760.712	152.91
760.895	138.58
761.079	85.33
761.263	23.89
761.446	56.66
761.63	138.58
761.813	290.13
761.997	5.46
762.18	132.44
762.364	79.19
762.547	-49.83
762.731	105.81
762.914	5.46
763.098	116.05
763.281	114
763.464	46.42
763.648	181.59
763.831	138.58
764.015	91.48
764.198	204.11
764.381	54.61
764.564	66.9
764.748	85.33
764.931	138.58
765.114	95.57
765.297	187.73
765.481	136.53
765.664	-12.97
765.847	105.81
766.03	216.4
766.213	64.85
766.397	95.57
766.58	-12.97
766.763	177.49
766.946	64.85
767.129	30.04
767.312	95.57
767.495	148.82
767.678	99.67
767.861	152.91
768.044	175.44
768.227	130.39
768.41	50.52
768.593	142.68
768.776	83.28
768.959	71
769.142	73.04
769.324	118.1
769.507	132.44
769.69	95.57
769.873	89.43
770.056	290.13
770.239	111.96
770.421	210.26
770.604	150.87
770.787	134.48
770.97	101.72
771.152	87.38
771.335	144.72
771.518	44.37
771.7	120.15
771.883	181.59
772.066	15.7
772.248	157.01
772.431	138.58
772.613	253.27
772.796	122.2
772.978	77.14
773.161	159.06
773.343	-31.4
773.526	27.99
773.708	-86.7
773.891	25.94
774.073	71
774.256	23.89
774.438	138.58
774.621	34.13
774.803	89.43
774.985	60.76
775.168	83.28
775.35	5.46
775.532	101.72
775.715	79.19
775.897	79.19
776.079	44.37
776.261	103.76
776.444	116.05
776.626	85.33
776.808	38.23
776.99	-8.87
777.173	42.32
777.355	44.37
777.537	46.42
777.719	81.24
777.901	89.43
778.083	3.41
778.265	-21.16
778.447	169.3
778.629	-6.83
778.811	99.67
778.993	140.63
779.175	152.91
779.357	40.28
779.539	-25.26
779.721	-8.87
779.903	169.3
780.085	50.52
780.267	9.56
780.449	91.48
780.631	81.24
780.812	191.83
780.994	109.91
781.176	97.62
781.358	19.8
781.54	19.8
781.721	120.15
781.903	89.43
782.085	66.9
782.267	157.01
782.448	30.04
782.63	9.56
782.812	27.99
782.993	66.9
783.175	62.8
783.357	11.61
783.538	109.91
783.72	-39.59
783.901	128.34
784.083	60.76
784.264	85.33
784.446	-17.07
784.627	-37.55
784.809	197.97
784.99	30.04
785.172	54.61
785.353	40.28
785.535	21.85
785.716	13.65
785.897	-25.26
786.079	-29.35
786.26	-6.83
786.441	103.76
786.623	-58.03
786.804	40.28
786.985	101.72
787.167	95.57
787.348	23.89
787.529	17.75
787.71	210.26
787.891	62.8
788.073	-47.79
788.254	-74.41
788.435	163.15
788.616	-2.73
788.797	-17.07
788.978	25.94
789.159	-8.87
789.34	75.09
789.522	5.46
789.703	56.66
789.884	11.61
790.065	60.76
790.246	89.43
790.427	-4.78
790.607	165.2
790.788	-74.41
790.969	-86.7
791.15	136.53
791.331	40.28
791.512	-19.11
791.693	-60.07
791.874	58.71
792.054	218.45
792.235	116.05
792.416	-25.26
792.597	-15.02
792.778	25.94
792.958	52.56
793.139	50.52
793.32	81.24
793.5	-66.22
793.681	134.48
793.862	-31.4
794.042	-4.78
794.223	-135.85
794.404	64.85
794.584	-115.37
794.765	11.61
794.945	-39.59
795.126	56.66
795.306	91.48
795.487	30.04
795.667	79.19
795.848	126.29
796.028	15.7
796.209	71
796.389	30.04
796.57	-6.83
796.75	-35.5
796.93	38.23
797.111	-6.83
797.291	-49.83
797.471	136.53
797.652	-72.36
797.832	-98.99
798.012	60.76
798.192	-19.11
798.373	-8.87
798.553	103.76
798.733	15.7
798.913	-31.4
799.093	-39.59
799.274	81.24
799.454	105.81
799.634	75.09
799.814	71
799.994	73.04
800.174	148.82
800.354	46.42
800.534	-53.93
800.714	122.2
800.894	-80.55
801.074	-139.94
801.254	-17.07
801.434	142.68
801.614	-55.98
801.794	-84.65
801.974	1842.49
802.154	-27.31
802.334	126.29
802.514	-8.87
802.693	-23.21
802.873	44.37
803.053	120.15
803.233	71
803.413	68.95
803.592	-31.4
803.772	-0.68
803.952	5.46
804.131	5.46
804.311	93.52
804.491	116.05
804.67	-21.16
804.85	-113.32
805.03	27.99
805.209	7.51
805.389	-15.02
805.568	-31.4
805.748	30.04
805.928	21.85
806.107	124.24
806.287	83.28
806.466	87.38
806.646	11.61
806.825	-76.46
807.004	38.23
807.184	9.56
807.363	11.61
807.543	-17.07
807.722	-43.69
807.901	128.34
808.081	60.76
808.26	-129.7
808.439	-80.55
808.619	64.85
808.798	-6.83
808.977	46.42
809.156	183.63
809.336	77.14
809.515	44.37
809.694	-53.93
809.873	42.32
810.052	5.46
810.231	62.8
810.411	-25.26
810.59	54.61
810.769	58.71
810.948	107.86
811.127	-115.37
811.306	-25.26
811.485	-74.41
811.664	154.96
811.843	5.46
812.022	-25.26
812.201	13.65
812.38	-4.78
812.559	-60.07
812.737	120.15
812.916	-117.42
813.095	-33.45
813.274	-6.83
813.453	-51.88
813.632	21.85
813.811	111.96
813.989	-115.37
814.168	-35.5
814.347	-80.55
814.526	-45.74
814.704	95.57
814.883	107.86
815.062	-72.36
815.24	50.52
815.419	15.7
815.598	85.33
815.776	-39.59
815.955	-43.69
816.133	-117.42
816.312	77.14
816.49	-47.79
816.669	-55.98
816.847	-74.41
817.026	7.51
817.204	-33.45
817.383	-53.93
817.561	1.37
817.74	13.65
817.918	23.89
818.097	-17.07
818.275	-70.31
818.453	52.56
818.632	81.24
818.81	-4.78
818.988	50.52
819.167	-80.55
819.345	36.18
819.523	23.89
819.701	7.51
819.879	79.19
820.058	30.04
820.236	-2.73
820.414	85.33
820.592	-41.64
820.77	-25.26
820.948	17.75
821.127	15.7
821.305	27.99
821.483	-148.14
821.661	-21.16
821.839	19.8
822.017	13.65
822.195	-101.03
822.373	142.68
822.551	27.99
822.729	44.37
822.907	-107.18
823.085	27.99
823.262	-4.78
823.44	-62.12
823.618	-90.79
823.796	-0.68
823.974	-31.4
824.152	-21.16
824.329	3.41
824.507	54.61
824.685	54.61
824.863	-10.92
825.04	44.37
825.218	97.62
825.396	54.61
825.574	-15.02
825.751	-21.16
825.929	44.37
826.107	-27.31
826.284	27.99
826.462	17.75
826.639	-31.4
826.817	-76.46
826.994	-15.02
827.172	-43.69
827.349	111.96
827.527	77.14
827.704	21.85
827.882	15.7
828.059	9.56
828.237	44.37
828.414	36.18
828.591	-129.7
828.769	-6.83
828.946	-41.64
829.124	66.9
829.301	114
829.478	44.37
829.655	77.14
829.833	95.57
830.01	-146.09
830.187	36.18
830.364	15.7
830.542	-43.69
830.719	89.43
830.896	46.42
831.073	42.32
831.25	9.56
831.427	36.18
831.604	-0.68
831.782	-25.26
831.959	46.42
832.136	-58.03
832.313	7.51
832.49	-70.31
832.667	7.51
832.844	-43.69
833.021	54.61
833.198	-19.11
833.374	71
833.551	-10.92
833.728	-0.68
833.905	68.95
834.082	-60.07
834.259	-19.11
834.436	23.89
834.612	-86.7
834.789	122.2
834.966	21.85
835.143	21.85
835.319	-84.65
835.496	46.42
835.673	52.56
835.85	21.85
836.026	36.18
836.203	17.75
836.38	-103.08
836.556	-51.88
836.733	-55.98
836.909	58.71
837.086	17.75
837.262	-76.46
837.439	-23.21
837.616	-45.74
837.792	3.41
837.968	9.56
838.145	-137.9
838.321	60.76
838.498	32.08
838.674	68.95
838.851	99.67
839.027	-31.4
839.203	-58.03
839.38	85.33
839.556	-49.83
839.732	21.85
839.909	75.09
840.085	17.75
840.261	-37.55
840.437	5.46
840.614	-55.98
840.79	73.04
840.966	54.61
841.142	109.91
841.318	9.56
841.494	85.33
841.671	122.2
841.847	-90.79
842.023	-60.07
842.199	11.61
842.375	138.58
842.551	-96.94
842.727	-96.94
842.903	95.57
843.079	-82.6
843.255	89.43
843.431	75.09
843.607	64.85
843.783	-148.14
843.959	9.56
844.134	-62.12
844.31	142.68
844.486	-78.51
844.662	21.85
844.838	-41.64
845.013	-21.16
845.189	-23.21
845.365	48.47
845.541	71
845.716	-6.83
845.892	48.47
846.068	111.96
846.244	-29.35
846.419	58.71
846.595	-107.18
846.77	-39.59
846.946	73.04
847.122	-4.78
847.297	-144.04
847.473	54.61
847.648	-82.6
847.824	-43.69
847.999	-82.6
848.175	46.42
848.35	56.66
848.526	40.28
848.701	32.08
848.876	52.56
849.052	124.24
849.227	-37.55
849.403	36.18
849.578	19.8
849.753	-19.11
849.929	3.41
850.104	-86.7
850.279	-33.45
850.454	38.23
850.63	7.51
850.805	-31.4
850.98	-12.97
851.155	-41.64
851.33	54.61
851.505	-15.02
851.681	181.59
851.856	-58.03
852.031	-4.78
852.206	52.56
852.381	-45.74
852.556	34.13
852.731	105.81
852.906	25.94
853.081	25.94
853.256	152.91
853.431	-47.79
853.606	-21.16
853.781	11.61
853.956	-162.47
854.131	-17.07
854.305	-23.21
854.48	-86.7
854.655	-2.73
854.83	-12.97
855.005	-27.31
855.18	-0.68
855.354	-6.83
855.529	38.23
855.704	-33.45
855.879	5.46
856.053	-0.68
856.228	-10.92
856.403	42.32
856.577	85.33
856.752	-86.7
856.926	-2.73
857.101	52.56
857.276	-88.75
857.45	-15.02
857.625	99.67
857.799	11.61
857.974	-27.31
858.148	-98.99
858.323	-23.21
858.497	1.37
858.672	-29.35
858.846	-62.12
859.02	-2.73
859.195	-47.79
859.369	-29.35
859.543	42.32
859.718	-35.5
859.892	50.52
860.066	75.09
860.241	3.41
860.415	-66.22
860.589	-68.27
860.763	27.99
860.938	-29.35
861.112	19.8
861.286	-37.55
861.46	-68.27
861.634	-72.36
861.808	165.2
861.982	-23.21
862.157	-86.7
862.331	-29.35
862.505	-64.17
862.679	-80.55
862.853	-8.87
863.027	23.89
863.201	111.96
863.375	-47.79
863.549	44.37
863.722	42.32
863.896	50.52
864.07	-41.64
864.244	17.75
864.418	83.28
864.592	17.75
864.766	-43.69
864.939	-33.45
865.113	-12.97
865.287	93.52
865.461	-117.42
865.634	81.24
865.808	40.28
865.982	-68.27
866.156	34.13
866.329	-101.03
866.503	5.46
866.676	68.95
866.85	30.04
867.024	-43.69
867.197	-10.92
867.371	68.95
867.544	-12.97
867.718	-156.33
867.891	36.18
868.065	-113.32
868.238	9.56
868.412	105.81
868.585	15.7
868.759	19.8
868.932	-33.45
869.105	-86.7
869.279	-10.92
869.452	-115.37
869.625	40.28
869.799	23.89
869.972	-98.99
870.145	-10.92
870.319	114
870.492	-27.31
870.665	-53.93
870.838	-51.88
871.011	-94.89
871.185	-6.83
871.358	-66.22
871.531	71
871.704	-25.26
871.877	23.89
872.05	-10.92
872.223	-53.93
872.396	97.62
872.569	75.09
872.742	-78.51
872.915	-12.97
873.088	-27.31
873.261	44.37
873.434	77.14
873.607	-53.93
873.78	5.46
873.953	-105.13
874.126	-39.59
874.299	54.61
874.471	-82.6
874.644	-55.98
874.817	42.32
874.99	183.63
875.163	27.99
875.335	46.42
875.508	-76.46
875.681	169.3
875.853	-27.31
876.026	-72.36
876.199	120.15
876.371	-0.68
876.544	-31.4
876.717	42.32
876.889	-41.64
877.062	-17.07
877.234	-0.68
877.407	-33.45
877.579	7.51
877.752	17.75
877.924	64.85
878.097	-17.07
878.269	-68.27
878.442	44.37
878.614	40.28
878.786	85.33
878.959	-72.36
879.131	-15.02
879.303	-39.59
879.476	-74.41
879.648	17.75
879.82	21.85
879.993	-47.79
880.165	-107.18
880.337	-60.07
880.509	25.94
880.681	-154.28
880.854	-68.27
881.026	25.94
881.198	134.48
881.37	-68.27
881.542	32.08
881.714	46.42
881.886	-33.45
882.058	1.37
882.23	44.37
882.402	42.32
882.574	62.8
882.746	34.13
882.918	38.23
883.09	44.37
883.262	-29.35
883.434	-74.41
883.606	-107.18
883.778	-23.21
883.95	122.2
884.122	-33.45
884.293	44.37
884.465	-25.26
884.637	42.32
884.809	-6.83
884.98	40.28
885.152	52.56
885.324	58.71
885.496	-41.64
885.667	-45.74
885.839	36.18
886.011	136.53
886.182	-35.5
886.354	62.8
886.525	32.08
886.697	46.42
886.869	-107.18
887.04	-35.5
887.212	95.57
887.383	136.53
887.555	83.28
887.726	-12.97
887.897	-4.78
888.069	13.65
888.24	23.89
888.412	11.61
888.583	-19.11
888.754	27.99
888.926	-98.99
889.097	-35.5
889.268	-21.16
889.44	-25.26
889.611	-76.46
889.782	-66.22
889.953	-55.98
890.125	144.72
890.296	-15.02
890.467	-47.79
890.638	-2.73
890.809	-10.92
890.98	19.8
891.151	-8.87
891.323	54.61
891.494	19.8
891.665	13.65
891.836	-53.93
892.007	-25.26
892.178	116.05
892.349	-66.22
892.52	-43.69
892.691	-6.83
892.862	-0.68
893.032	-141.99
893.203	17.75
893.374	-12.97
893.545	30.04
893.716	-55.98
893.887	-0.68
894.057	-68.27
894.228	32.08
894.399	-47.79
894.57	111.96
894.74	-53.93
894.911	30.04
895.082	-31.4
895.253	-98.99
895.423	17.75
895.594	30.04
895.764	25.94
895.935	-51.88
896.106	46.42
896.276	-21.16
896.447	-31.4
896.617	-62.12
896.788	-62.12
896.958	11.61
897.129	-31.4
897.299	5.46
897.47	105.81
897.64	124.24
897.81	-6.83
897.981	36.18
898.151	-47.79
898.322	-31.4
898.492	-2.73
898.662	-115.37
898.832	-4.78
899.003	-37.55
899.173	60.76
899.343	-94.89
899.513	-111.27
