Data from USB4F104151__296__11-21-17-027.txt Node

Date: Wed Feb 26 11:21:17 EST 2025
User: louis
Spectrometer: USB4F10415
Trigger mode: 4
Integration Time (sec): 1.000000E-1
Scans to average: 1
Electric dark correction enabled: true
Nonlinearity correction enabled: false
Boxcar width: 0
XAxis mode: Wavelengths
Number of Pixels in Spectrum: 3648
>>>>>Begin Spectral Data<<<<<
178.204	-342.52
178.424	-342.52
178.644	-342.52
178.864	-352.76
179.084	-444.92
179.304	60.93
179.524	11.78
179.744	-43.52
179.964	-10.75
180.184	50.69
180.404	19.97
180.624	-27.14
180.844	-18.94
181.064	-92.67
181.283	-12.8
181.503	28.16
181.723	34.3
181.943	-51.71
182.163	239.1
182.383	-57.86
182.602	85.5
182.822	140.8
183.042	26.11
183.262	-8.7
183.482	1.54
183.701	-4.61
183.921	-6.66
184.141	69.12
184.361	124.41
184.58	3.58
184.8	122.37
185.02	9.73
185.239	-0.51
185.459	105.98
185.679	89.6
185.898	-98.81
186.118	-0.51
186.338	5.63
186.557	79.36
186.777	-70.14
186.997	3.58
187.216	-12.8
187.436	130.56
187.655	50.69
187.875	112.13
188.095	-16.9
188.314	101.89
188.534	142.85
188.753	-31.23
188.973	132.61
189.192	200.19
189.412	-20.99
189.631	65.02
189.851	89.6
190.07	210.43
190.29	-16.9
190.509	19.97
190.729	65.02
190.948	153.09
191.168	220.67
191.387	40.45
191.607	1.54
191.826	108.03
192.045	7.68
192.265	22.02
192.484	103.93
192.704	36.35
192.923	22.02
193.142	212.48
193.362	101.89
193.581	91.65
193.8	124.41
194.02	169.47
194.239	79.36
194.458	75.26
194.678	30.21
194.897	95.74
195.116	65.02
195.335	110.08
195.555	7.68
195.774	26.11
195.993	120.32
196.212	101.89
196.432	9.73
196.651	7.68
196.87	77.31
197.089	249.34
197.308	38.4
197.528	58.88
197.747	-33.28
197.966	71.17
198.185	126.46
198.404	-61.95
198.623	212.48
198.842	34.3
199.062	142.85
199.281	52.74
199.5	114.17
199.719	101.89
199.938	89.6
200.157	71.17
200.376	155.13
200.595	65.02
200.814	108.03
201.033	-31.23
201.252	132.61
201.471	32.26
201.69	50.69
201.909	-12.8
202.128	148.99
202.347	144.89
202.566	83.45
202.785	-115.2
203.004	5.63
203.223	243.2
203.442	60.93
203.661	32.26
203.879	65.02
204.098	171.52
204.317	3.58
204.536	44.54
204.755	58.88
204.974	105.98
205.193	26.11
205.411	198.14
205.63	136.7
205.849	-14.85
206.068	7.68
206.287	-14.85
206.505	87.55
206.724	75.26
206.943	1.54
207.162	-49.66
207.381	108.03
207.599	67.07
207.818	73.21
208.037	-82.43
208.255	75.26
208.474	95.74
208.693	118.27
208.911	40.45
209.13	99.84
209.349	85.5
209.567	56.83
209.786	83.45
210.005	142.85
210.223	91.65
210.442	-107.01
210.661	52.74
210.879	85.5
211.098	128.51
211.316	46.59
211.535	116.22
211.753	73.21
211.972	101.89
212.191	67.07
212.409	75.26
212.628	54.78
212.846	44.54
213.065	142.85
213.283	112.13
213.502	58.88
213.72	44.54
213.938	73.21
214.157	46.59
214.375	179.71
214.594	9.73
214.812	142.85
215.031	34.3
215.249	46.59
215.467	52.74
215.686	9.73
215.904	89.6
216.122	11.78
216.341	126.46
216.559	85.5
216.778	73.21
216.996	32.26
217.214	-45.57
217.432	26.11
217.651	-57.86
217.869	34.3
218.087	32.26
218.306	13.82
218.524	24.06
218.742	34.3
218.96	128.51
219.179	3.58
219.397	83.45
219.615	245.24
219.833	46.59
220.051	7.68
220.27	103.93
220.488	122.37
220.706	60.93
220.924	-10.75
221.142	3.58
221.36	77.31
221.578	-14.85
221.796	19.97
222.015	-2.56
222.233	48.64
222.451	138.75
222.669	9.73
222.887	62.98
223.105	13.82
223.323	32.26
223.541	-78.33
223.759	163.33
223.977	81.41
224.195	196.09
224.413	122.37
224.631	34.3
224.849	75.26
225.067	194.05
225.285	71.17
225.503	60.93
225.721	-86.53
225.939	75.26
226.157	75.26
226.375	157.18
226.592	34.3
226.81	-6.66
227.028	99.84
227.246	159.23
227.464	60.93
227.682	79.36
227.9	95.74
228.117	11.78
228.335	108.03
228.553	120.32
228.771	50.69
228.989	34.3
229.206	112.13
229.424	42.5
229.642	58.88
229.86	-39.42
230.077	81.41
230.295	40.45
230.513	79.36
230.731	44.54
230.948	198.14
231.166	97.79
231.384	58.88
231.601	-41.47
231.819	116.22
232.037	11.78
232.254	-82.43
232.472	77.31
232.689	26.11
232.907	136.7
233.125	-31.23
233.342	5.63
233.56	56.83
233.777	62.98
233.995	32.26
234.213	112.13
234.43	99.84
234.648	73.21
234.865	65.02
235.083	77.31
235.3	54.78
235.518	77.31
235.735	151.04
235.953	101.89
236.17	52.74
236.388	-8.7
236.605	38.4
236.822	126.46
237.04	95.74
237.257	42.5
237.475	-14.85
237.692	50.69
237.909	42.5
238.127	-4.61
238.344	89.6
238.562	28.16
238.779	-57.86
238.996	-20.99
239.214	67.07
239.431	77.31
239.648	91.65
239.865	65.02
240.083	110.08
240.3	58.88
240.517	-10.75
240.735	17.92
240.952	120.32
241.169	101.89
241.386	17.92
241.603	30.21
241.821	-12.8
242.038	112.13
242.255	124.41
242.472	-55.81
242.689	75.26
242.907	77.31
243.124	34.3
243.341	3.58
243.558	34.3
243.775	-59.9
243.992	-23.04
244.209	50.69
244.426	245.24
244.643	58.88
244.86	54.78
245.078	136.7
245.295	73.21
245.512	67.07
245.729	-41.47
245.946	124.41
246.163	122.37
246.38	3.58
246.597	11.78
246.814	91.65
247.031	118.27
247.248	24.06
247.464	171.52
247.681	11.78
247.898	28.16
248.115	32.26
248.332	-61.95
248.549	208.38
248.766	144.89
248.983	97.79
249.2	112.13
249.417	101.89
249.633	40.45
249.85	85.5
250.067	58.88
250.284	19.97
250.501	108.03
250.717	134.65
250.934	-16.9
251.151	26.11
251.368	58.88
251.585	67.07
251.801	157.18
252.018	-25.09
252.235	187.9
252.451	-78.33
252.668	-31.23
252.885	136.7
253.102	97.79
253.318	-10.75
253.535	-25.09
253.752	17.92
253.968	-0.51
254.185	-121.34
254.401	46.59
254.618	77.31
254.835	-33.28
255.051	142.85
255.268	120.32
255.484	36.35
255.701	54.78
255.917	120.32
256.134	62.98
256.351	7.68
256.567	-37.38
256.784	50.69
257	-90.62
257.217	93.69
257.433	171.52
257.65	46.59
257.866	171.52
258.082	-23.04
258.299	52.74
258.515	81.41
258.732	-37.38
258.948	-31.23
259.165	157.18
259.381	54.78
259.597	60.93
259.814	44.54
260.03	44.54
260.246	26.11
260.463	138.75
260.679	181.76
260.895	26.11
261.112	87.55
261.328	62.98
261.544	5.63
261.761	165.37
261.977	-0.51
262.193	5.63
262.409	69.12
262.626	73.21
262.842	44.54
263.058	36.35
263.274	85.5
263.49	85.5
263.707	99.84
263.923	134.65
264.139	-18.94
264.355	60.93
264.571	163.33
264.787	89.6
265.004	52.74
265.22	69.12
265.436	30.21
265.652	87.55
265.868	148.99
266.084	38.4
266.3	69.12
266.516	3.58
266.732	77.31
266.948	54.78
267.164	75.26
267.38	122.37
267.596	116.22
267.812	114.17
268.028	36.35
268.244	-39.42
268.46	11.78
268.676	36.35
268.892	58.88
269.108	9.73
269.324	36.35
269.54	-41.47
269.756	151.04
269.972	-6.66
270.188	9.73
270.403	5.63
270.619	15.87
270.835	99.84
271.051	87.55
271.267	73.21
271.483	26.11
271.698	146.94
271.914	103.93
272.13	60.93
272.346	24.06
272.562	83.45
272.777	101.89
272.993	105.98
273.209	-16.9
273.425	120.32
273.64	-29.18
273.856	89.6
274.072	-61.95
274.287	34.3
274.503	101.89
274.719	173.57
274.934	-6.66
275.15	-10.75
275.366	38.4
275.581	83.45
275.797	114.17
276.012	81.41
276.228	1.54
276.444	85.5
276.659	73.21
276.875	7.68
277.09	42.5
277.306	9.73
277.521	165.37
277.737	46.59
277.952	120.32
278.168	87.55
278.383	11.78
278.599	36.35
278.814	71.17
279.03	19.97
279.245	126.46
279.461	-43.52
279.676	83.45
279.892	-82.43
280.107	-80.38
280.322	-6.66
280.538	101.89
280.753	11.78
280.969	67.07
281.184	-18.94
281.399	142.85
281.615	-29.18
281.83	13.82
282.045	-68.09
282.26	-49.66
282.476	60.93
282.691	124.41
282.906	-4.61
283.122	26.11
283.337	-23.04
283.552	99.84
283.767	93.69
283.983	159.23
284.198	19.97
284.413	151.04
284.628	-10.75
284.843	67.07
285.058	134.65
285.274	46.59
285.489	-20.99
285.704	122.37
285.919	62.98
286.134	46.59
286.349	36.35
286.564	3.58
286.779	212.48
286.995	38.4
287.21	-57.86
287.425	124.41
287.64	5.63
287.855	36.35
288.07	-12.8
288.285	110.08
288.5	71.17
288.715	124.41
288.93	17.92
289.145	34.3
289.36	108.03
289.575	30.21
289.79	151.04
290.004	-10.75
290.219	132.61
290.434	-66.05
290.649	24.06
290.864	-55.81
291.079	28.16
291.294	28.16
291.509	15.87
291.724	34.3
291.938	-20.99
292.153	42.5
292.368	75.26
292.583	91.65
292.798	38.4
293.012	77.31
293.227	32.26
293.442	-39.42
293.657	42.5
293.871	144.89
294.086	101.89
294.301	255.48
294.516	192
294.73	83.45
294.945	-35.33
295.16	-33.28
295.374	177.66
295.589	153.09
295.804	-16.9
296.018	71.17
296.233	157.18
296.447	15.87
296.662	22.02
296.877	146.94
297.091	108.03
297.306	65.02
297.52	15.87
297.735	-23.04
297.949	-23.04
298.164	93.69
298.378	-12.8
298.593	-61.95
298.807	32.26
299.022	24.06
299.236	110.08
299.451	17.92
299.665	50.69
299.88	83.45
300.094	110.08
300.309	124.41
300.523	50.69
300.737	22.02
300.952	81.41
301.166	99.84
301.381	-43.52
301.595	-31.23
301.809	105.98
302.024	99.84
302.238	-4.61
302.452	142.85
302.667	38.4
302.881	108.03
303.095	124.41
303.309	105.98
303.524	-4.61
303.738	-18.94
303.952	-86.53
304.166	60.93
304.381	-64
304.595	187.9
304.809	-74.24
305.023	89.6
305.237	-31.23
305.452	60.93
305.666	38.4
305.88	81.41
306.094	128.51
306.308	122.37
306.522	46.59
306.736	101.89
306.95	132.61
307.164	62.98
307.379	50.69
307.593	130.56
307.807	99.84
308.021	124.41
308.235	103.93
308.449	-23.04
308.663	19.97
308.877	165.37
309.091	114.17
309.305	128.51
309.519	-14.85
309.733	144.89
309.947	-8.7
310.161	69.12
310.374	126.46
310.588	185.85
310.802	75.26
311.016	-0.51
311.23	13.82
311.444	7.68
311.658	62.98
311.872	118.27
312.085	157.18
312.299	130.56
312.513	144.89
312.727	58.88
312.941	5.63
313.154	85.5
313.368	-31.23
313.582	85.5
313.796	-18.94
314.009	54.78
314.223	110.08
314.437	26.11
314.651	91.65
314.864	-14.85
315.078	32.26
315.292	-78.33
315.505	-29.18
315.719	28.16
315.933	56.83
316.146	-0.51
316.36	-64
316.573	101.89
316.787	38.4
317.001	50.69
317.214	-51.71
317.428	65.02
317.641	-2.56
317.855	-33.28
318.068	11.78
318.282	28.16
318.495	192
318.709	167.42
318.922	-33.28
319.136	157.18
319.349	200.19
319.563	69.12
319.776	58.88
319.99	-78.33
320.203	136.7
320.417	77.31
320.63	155.13
320.843	222.72
321.057	71.17
321.27	73.21
321.483	118.27
321.697	157.18
321.91	85.5
322.124	-82.43
322.337	101.89
322.55	48.64
322.763	93.69
322.977	-29.18
323.19	62.98
323.403	28.16
323.617	42.5
323.83	167.42
324.043	-18.94
324.256	36.35
324.469	-0.51
324.683	108.03
324.896	42.5
325.109	26.11
325.322	-66.05
325.535	140.8
325.748	163.33
325.962	26.11
326.175	28.16
326.388	108.03
326.601	144.89
326.814	7.68
327.027	36.35
327.24	157.18
327.453	-39.42
327.666	159.23
327.879	192
328.092	75.26
328.305	194.05
328.518	-14.85
328.731	58.88
328.944	34.3
329.157	24.06
329.37	46.59
329.583	161.28
329.796	183.81
330.009	17.92
330.222	85.5
330.435	87.55
330.648	60.93
330.861	56.83
331.073	134.65
331.286	89.6
331.499	3.58
331.712	58.88
331.925	58.88
332.138	67.07
332.35	157.18
332.563	-37.38
332.776	128.51
332.989	-20.99
333.202	32.26
333.414	40.45
333.627	54.78
333.84	1.54
334.053	22.02
334.265	-6.66
334.478	-18.94
334.691	-16.9
334.903	122.37
335.116	-53.76
335.329	71.17
335.541	54.78
335.754	161.28
335.966	36.35
336.179	17.92
336.392	32.26
336.604	38.4
336.817	38.4
337.029	30.21
337.242	85.5
337.454	46.59
337.667	13.82
337.88	126.46
338.092	110.08
338.305	95.74
338.517	-23.04
338.729	118.27
338.942	208.38
339.154	7.68
339.367	17.92
339.579	87.55
339.792	-23.04
340.004	101.89
340.217	-45.57
340.429	40.45
340.641	-49.66
340.854	22.02
341.066	85.5
341.278	69.12
341.491	169.47
341.703	62.98
341.915	52.74
342.128	110.08
342.34	83.45
342.552	-16.9
342.764	81.41
342.977	91.65
343.189	91.65
343.401	134.65
343.613	-45.57
343.826	85.5
344.038	3.58
344.25	73.21
344.462	-6.66
344.674	73.21
344.886	46.59
345.099	69.12
345.311	142.85
345.523	3.58
345.735	-74.24
345.947	42.5
346.159	67.07
346.371	77.31
346.583	30.21
346.795	247.29
347.007	-20.99
347.219	93.69
347.431	-0.51
347.643	95.74
347.855	3.58
348.067	87.55
348.279	105.98
348.491	48.64
348.703	56.83
348.915	58.88
349.127	11.78
349.339	91.65
349.551	-14.85
349.763	120.32
349.975	52.74
350.187	130.56
350.399	105.98
350.61	161.28
350.822	17.92
351.034	40.45
351.246	81.41
351.458	73.21
351.669	71.17
351.881	120.32
352.093	181.76
352.305	159.23
352.517	81.41
352.728	105.98
352.94	17.92
353.152	136.7
353.363	3.58
353.575	-4.61
353.787	185.85
353.999	60.93
354.21	159.23
354.422	15.87
354.633	157.18
354.845	99.84
355.057	44.54
355.268	-35.33
355.48	124.41
355.692	-6.66
355.903	91.65
356.115	-10.75
356.326	-59.9
356.538	155.13
356.749	89.6
356.961	187.9
357.172	30.21
357.384	-2.56
357.595	212.48
357.807	77.31
358.018	30.21
358.23	114.17
358.441	138.75
358.653	101.89
358.864	28.16
359.075	-16.9
359.287	42.5
359.498	142.85
359.709	81.41
359.921	77.31
360.132	97.79
360.344	60.93
360.555	5.63
360.766	19.97
360.977	30.21
361.189	101.89
361.4	32.26
361.611	75.26
361.823	171.52
362.034	54.78
362.245	-33.28
362.456	69.12
362.667	83.45
362.879	-12.8
363.09	85.5
363.301	71.17
363.512	13.82
363.723	19.97
363.935	24.06
364.146	151.04
364.357	-4.61
364.568	97.79
364.779	-16.9
364.99	97.79
365.201	1.54
365.412	122.37
365.623	-70.14
365.834	153.09
366.045	58.88
366.256	120.32
366.467	114.17
366.678	46.59
366.889	32.26
367.1	36.35
367.311	128.51
367.522	-76.29
367.733	87.55
367.944	110.08
368.155	42.5
368.366	159.23
368.577	167.42
368.788	140.8
368.999	-16.9
369.209	52.74
369.42	210.43
369.631	241.15
369.842	79.36
370.053	67.07
370.264	177.66
370.474	7.68
370.685	62.98
370.896	30.21
371.107	194.05
371.317	69.12
371.528	83.45
371.739	171.52
371.95	75.26
372.16	175.61
372.371	-25.09
372.582	58.88
372.792	95.74
373.003	-0.51
373.214	110.08
373.424	58.88
373.635	13.82
373.846	163.33
374.056	7.68
374.267	28.16
374.477	48.64
374.688	5.63
374.898	105.98
375.109	73.21
375.319	148.99
375.53	105.98
375.74	81.41
375.951	1.54
376.161	87.55
376.372	114.17
376.582	38.4
376.793	5.63
377.003	-0.51
377.214	-23.04
377.424	114.17
377.635	67.07
377.845	44.54
378.055	89.6
378.266	-20.99
378.476	3.58
378.686	77.31
378.897	97.79
379.107	239.1
379.317	142.85
379.528	-76.29
379.738	179.71
379.948	-23.04
380.158	134.65
380.369	73.21
380.579	85.5
380.789	83.45
380.999	30.21
381.21	69.12
381.42	138.75
381.63	65.02
381.84	48.64
382.05	169.47
382.261	110.08
382.471	108.03
382.681	48.64
382.891	161.28
383.101	85.5
383.311	32.26
383.521	28.16
383.731	114.17
383.941	71.17
384.151	130.56
384.361	-4.61
384.571	52.74
384.781	89.6
384.991	171.52
385.201	206.33
385.411	85.5
385.621	89.6
385.831	108.03
386.041	62.98
386.251	-47.62
386.461	112.13
386.671	15.87
386.881	26.11
387.091	52.74
387.301	146.94
387.511	36.35
387.72	132.61
387.93	161.28
388.14	-27.14
388.35	40.45
388.56	192
388.769	60.93
388.979	52.74
389.189	-14.85
389.399	19.97
389.609	95.74
389.818	58.88
390.028	71.17
390.238	62.98
390.447	-51.71
390.657	81.41
390.867	85.5
391.076	-61.95
391.286	140.8
391.496	30.21
391.705	48.64
391.915	155.13
392.125	169.47
392.334	-43.52
392.544	220.67
392.753	97.79
392.963	32.26
393.172	114.17
393.382	-29.18
393.591	165.37
393.801	28.16
394.01	134.65
394.22	110.08
394.429	50.69
394.639	83.45
394.848	44.54
395.058	73.21
395.267	73.21
395.477	130.56
395.686	24.06
395.895	175.61
396.105	208.38
396.314	155.13
396.524	38.4
396.733	30.21
396.942	62.98
397.152	56.83
397.361	185.85
397.57	171.52
397.78	85.5
397.989	153.09
398.198	214.52
398.407	71.17
398.617	32.26
398.826	91.65
399.035	112.13
399.244	132.61
399.453	46.59
399.663	44.54
399.872	112.13
400.081	15.87
400.29	206.33
400.499	9.73
400.708	101.89
400.917	60.93
401.127	-49.66
401.336	36.35
401.545	196.09
401.754	110.08
401.963	144.89
402.172	-18.94
402.381	28.16
402.59	77.31
402.799	91.65
403.008	112.13
403.217	54.78
403.426	73.21
403.635	-0.51
403.844	97.79
404.053	54.78
404.262	-20.99
404.471	163.33
404.68	171.52
404.888	95.74
405.097	73.21
405.306	75.26
405.515	58.88
405.724	48.64
405.933	155.13
406.142	85.5
406.35	89.6
406.559	87.55
406.768	-18.94
406.977	136.7
407.185	77.31
407.394	116.22
407.603	-49.66
407.812	58.88
408.02	151.04
408.229	40.45
408.438	179.71
408.646	-51.71
408.855	75.26
409.064	85.5
409.272	44.54
409.481	17.92
409.69	7.68
409.898	-2.56
410.107	112.13
410.315	134.65
410.524	-29.18
410.733	32.26
410.941	54.78
411.15	122.37
411.358	214.52
411.567	124.41
411.775	26.11
411.984	105.98
412.192	91.65
412.401	22.02
412.609	163.33
412.818	87.55
413.026	130.56
413.234	54.78
413.443	79.36
413.651	1.54
413.86	-2.56
414.068	167.42
414.276	189.95
414.485	73.21
414.693	216.57
414.901	243.2
415.11	54.78
415.318	48.64
415.526	112.13
415.734	161.28
415.943	52.74
416.151	212.48
416.359	91.65
416.567	101.89
416.776	93.69
416.984	103.93
417.192	228.86
417.4	-2.56
417.608	114.17
417.817	54.78
418.025	159.23
418.233	235
418.441	19.97
418.649	46.59
418.857	198.14
419.065	128.51
419.273	75.26
419.481	77.31
419.689	142.85
419.897	75.26
420.105	-10.75
420.313	120.32
420.521	202.24
420.729	167.42
420.937	48.64
421.145	81.41
421.353	36.35
421.561	167.42
421.769	175.61
421.977	24.06
422.185	99.84
422.393	-4.61
422.601	114.17
422.809	116.22
423.017	46.59
423.224	126.46
423.432	112.13
423.64	85.5
423.848	134.65
424.056	42.5
424.263	200.19
424.471	17.92
424.679	120.32
424.887	3.58
425.094	192
425.302	93.69
425.51	58.88
425.718	144.89
425.925	62.98
426.133	75.26
426.341	157.18
426.548	54.78
426.756	171.52
426.964	130.56
427.171	15.87
427.379	187.9
427.586	122.37
427.794	151.04
428.001	171.52
428.209	124.41
428.417	249.34
428.624	140.8
428.832	169.47
429.039	144.89
429.247	114.17
429.454	151.04
429.662	196.09
429.869	138.75
430.076	146.94
430.284	167.42
430.491	202.24
430.699	116.22
430.906	165.37
431.114	210.43
431.321	151.04
431.528	165.37
431.736	159.23
431.943	146.94
432.15	196.09
432.358	155.13
432.565	267.77
432.772	38.4
432.979	249.34
433.187	183.81
433.394	282.11
433.601	189.95
433.808	284.16
434.016	275.96
434.223	329.21
434.43	247.29
434.637	333.31
434.844	312.83
435.052	278.01
435.259	390.65
435.466	357.88
435.673	357.88
435.88	325.12
436.087	380.41
436.294	472.57
436.501	306.68
436.708	331.26
436.915	327.16
437.122	466.42
437.329	400.89
437.537	476.66
437.743	464.38
437.95	574.97
438.157	540.15
438.364	458.23
438.571	396.79
438.778	529.91
438.985	534.01
439.192	667.13
439.399	562.68
439.606	693.75
439.813	732.66
440.02	755.19
440.227	798.2
440.433	718.33
440.64	650.74
440.847	708.09
441.054	720.37
441.261	945.65
441.467	837.11
441.674	730.61
441.881	929.27
442.088	730.61
442.294	781.81
442.501	900.59
442.708	1005.04
442.914	1031.66
443.121	1162.73
443.328	1107.44
443.534	1234.41
443.741	1230.32
443.948	1074.67
444.154	1250.8
444.361	1457.64
444.568	1390.06
444.774	1310.19
444.981	1289.71
445.187	1621.48
445.394	1492.46
445.6	1486.31
445.807	1793.51
446.013	1551.85
446.22	1625.58
446.426	1859.04
446.633	1893.86
446.839	2108.9
447.046	1799.65
447.252	2012.64
447.459	1986.02
447.665	2069.98
447.871	2242.01
448.078	2561.5
448.284	2463.19
448.491	2471.39
448.697	2727.38
448.903	2805.21
449.11	2915.8
449.316	2780.63
449.522	3128.78
449.728	3020.24
449.935	3329.49
450.141	3366.35
450.347	3472.84
450.553	3499.47
450.76	3483.08
450.966	3837.38
451.172	3931.59
451.378	4066.75
451.584	4142.53
451.791	4482.49
451.997	4462.01
452.203	4664.76
452.409	4939.19
452.615	5035.44
452.821	4883.89
453.027	4928.95
453.233	5606.83
453.44	5463.47
453.646	5866.92
453.852	6129.06
454.058	6225.31
454.264	6581.66
454.47	6567.32
454.676	6739.35
454.882	7486.86
455.088	7267.73
455.294	7490.96
455.5	8019.33
455.705	8570.24
455.911	8596.86
456.117	8744.31
456.323	8977.78
456.529	9141.62
456.735	10028.39
456.941	10071.4
457.147	10409.31
457.352	10585.44
457.558	11162.97
457.764	11953.48
457.97	12178.76
458.176	12578.11
458.381	13215.03
458.587	13634.86
458.793	14140.71
458.999	14056.75
459.204	15938.83
459.41	16387.33
459.616	16098.57
459.821	17171.71
460.027	17591.54
460.233	18531.56
460.438	18547.94
460.644	19889.36
460.85	19746
461.055	20757.7
461.261	21533.88
461.466	21355.71
461.672	21789.88
461.878	23977.11
462.083	24245.39
462.289	24646.79
462.494	25361.53
462.7	25603.19
462.905	26090.61
463.111	27659.35
463.316	29543.49
463.522	30143.54
463.727	30970.92
463.932	32402.45
464.138	33096.71
464.343	34716.65
464.549	34595.82
464.754	36973.52
464.959	38458.29
465.165	39179.18
465.37	38710.19
465.575	38376.37
465.781	41065.36
465.986	42333.05
466.191	41483.14
466.397	41978.75
466.602	41288.59
466.807	43504.49
467.012	44428.12
467.218	44868.44
467.423	44909.39
467.628	46261.05
467.833	48778.01
468.038	47469.36
468.244	46582.59
468.449	49513.23
468.654	48440.09
468.859	47844.13
469.064	48616.22
469.269	47178.54
469.474	48390.94
469.679	49050.39
469.885	47698.73
470.09	48530.2
470.295	47825.7
470.5	47440.68
470.705	47844.13
470.91	46611.26
471.115	46232.38
471.32	47176.5
471.525	46283.58
471.73	45495.11
471.935	45409.1
472.139	43412.33
472.344	43936.61
472.549	43496.3
472.754	42355.58
472.959	41542.53
473.164	40256.41
473.369	39558.05
473.574	40659.86
473.778	39500.71
473.983	39431.08
474.188	38640.56
474.393	37143.5
474.598	37006.28
474.802	36137.94
475.007	35468.26
475.212	35181.54
475.417	33719.29
475.621	33391.62
475.826	33260.55
476.031	32568.34
476.235	31378.47
476.44	31652.89
476.645	30917.67
476.849	30845.99
477.054	30534.7
477.259	29717.56
477.463	29518.91
477.668	28361.81
477.872	28570.7
478.077	27532.38
478.282	27249.76
478.486	26856.55
478.691	26477.68
478.895	26305.65
479.1	26125.43
479.304	25990.26
479.509	24943.75
479.713	25441.4
479.918	24732.81
480.122	23993.49
480.326	24548.49
480.531	24392.84
480.735	24071.31
480.94	23848.08
481.144	24464.52
481.348	23387.29
481.553	23514.27
481.757	22779.04
481.961	23270.56
482.166	23084.19
482.37	22852.77
482.574	22480.04
482.778	22029.49
482.983	22697.13
483.187	22181.04
483.391	22166.7
483.595	21730.48
483.8	21275.84
484.004	21558.46
484.208	21382.33
484.412	20843.71
484.616	20958.4
484.821	20804.8
485.025	19846.35
485.229	20409.54
485.433	19815.63
485.637	19752.15
485.841	19113.18
486.045	19127.52
486.249	19090.65
486.453	18660.58
486.657	18648.29
486.861	18154.73
487.065	17681.65
487.269	17788.14
487.473	16874.75
487.677	17220.86
487.881	17163.51
488.085	16508.16
488.289	16368.9
488.493	15850.77
488.697	15838.48
488.901	15623.44
489.105	14982.43
489.309	15004.96
489.512	14892.32
489.716	14402.85
489.92	14230.82
490.124	13860.14
490.328	13858.09
490.531	13317.43
490.735	13407.54
490.939	12940.6
491.143	12905.79
491.346	12614.98
491.55	12469.57
491.754	12223.81
491.958	12186.95
492.161	11859.28
492.365	11828.56
492.569	11441.49
492.772	11205.97
492.976	11226.45
493.18	10906.97
493.383	10876.25
493.587	10773.85
493.79	10755.42
493.994	10282.34
494.197	10456.42
494.401	10440.03
494.605	10247.52
494.808	10091.88
495.012	10093.93
495.215	10022.25
495.419	9923.94
495.622	9698.67
495.825	9928.04
496.029	9608.56
496.232	9696.62
496.436	9465.2
496.639	9880.94
496.843	9678.19
497.046	9579.89
497.249	9811.31
497.453	9553.26
497.656	9557.36
497.859	9526.64
498.063	9512.3
498.266	9827.69
498.469	9520.49
498.673	9624.94
498.876	9676.14
499.079	9670
499.282	9594.22
499.485	10034.53
499.689	9780.59
499.892	10038.63
500.095	9827.69
500.298	10206.56
500.501	9864.55
500.705	10218.85
500.908	10153.32
501.111	10218.85
501.314	10323.3
501.517	10784.09
501.72	10509.66
501.923	10718.56
502.126	10825.05
502.329	11079
502.532	10831.19
502.735	11275.6
502.938	11212.12
503.141	11404.63
503.344	11443.54
503.547	11720.01
503.75	11986.25
503.953	11988.3
504.156	12141.89
504.359	12012.87
504.562	12221.77
504.765	12625.22
504.968	12911.93
505.17	13034.81
505.373	13372.72
505.576	13511.99
505.779	13536.56
505.982	13612.34
506.185	14062.89
506.387	14019.88
506.59	14359.84
506.793	14683.42
506.996	14765.34
507.198	15385.88
507.401	15543.57
507.604	15709.46
507.807	16250.12
508.009	16194.82
508.212	16678.15
508.415	16794.88
508.617	17286.39
508.82	17536.24
509.022	17593.59
509.225	18396.39
509.428	18722.02
509.63	18867.42
509.833	19352.79
510.035	20247.76
510.238	19950.8
510.44	20481.22
510.643	21181.63
510.845	21767.35
511.048	21683.38
511.25	22346.92
511.453	22682.79
511.655	23776.41
511.858	23594.14
512.06	24550.54
512.262	25064.58
512.465	25142.4
512.667	25922.68
512.87	26702.95
513.072	26958.95
513.274	27944.02
513.477	28433.49
513.679	29109.32
513.881	29508.67
514.084	30131.25
514.286	30708.78
514.488	31368.23
514.69	32361.49
514.893	33020.94
515.095	33477.63
515.297	34069.5
515.499	34722.8
515.701	35560.42
515.904	36471.76
516.106	37110.73
516.308	37624.77
516.51	38472.63
516.712	38675.38
516.914	39918.49
517.116	40713.11
517.318	40973.2
517.52	41675.65
517.722	42122.11
517.925	43492.2
518.127	44364.64
518.329	45302.6
518.531	45278.03
518.733	46330.69
518.935	47205.17
519.136	47618.86
519.338	48790.3
519.54	48925.46
519.742	50101
519.944	50303.74
520.146	51712.75
520.348	51641.07
520.55	52306.66
520.752	53281.49
520.954	54391.49
521.155	54217.41
521.357	54579.9
521.559	55630.51
521.761	56414.88
521.963	56314.53
522.164	56552.1
522.366	56963.74
522.568	57848.46
522.77	58176.14
522.971	58831.49
523.173	58692.22
523.375	59439.73
523.576	59028.09
523.778	59388.53
523.98	60172.91
524.181	60138.09
524.383	60363.37
524.584	60766.82
524.786	60830.3
524.988	60703.33
525.189	61338.2
525.391	60863.07
525.592	61313.62
525.794	61368.92
525.995	61258.33
526.197	61321.82
526.398	60957.28
526.6	61274.71
526.801	60484.2
527.003	60809.82
527.204	60297.83
527.406	60654.18
527.607	60410.47
527.808	59656.82
528.01	58942.08
528.211	59187.83
528.412	59261.56
528.614	58876.54
528.815	58382.98
529.016	58745.47
529.218	57344.66
529.419	57203.35
529.62	56638.11
529.822	55964.33
530.023	55796.4
530.224	55403.19
530.425	54446.79
530.626	53859.02
530.828	53543.63
531.029	53764.81
531.23	52275.94
531.431	51729.13
531.632	51585.77
531.833	51124.98
532.035	50746.11
532.236	49828.62
532.437	49349.39
532.638	47999.78
532.839	48184.1
533.04	47866.66
533.241	46621.5
533.442	46879.54
533.643	46138.18
533.844	45224.78
534.045	45085.52
534.246	43891.55
534.447	43680.61
534.648	43117.42
534.849	42388.35
535.05	41577.35
535.251	41347.98
535.451	40891.28
535.652	40225.69
535.853	39533.48
536.054	39496.61
536.255	38908.85
536.456	37989.31
536.657	38075.32
536.857	37219.27
537.058	36535.25
537.259	36570.07
537.46	35840.99
537.66	35206.12
537.861	34907.12
538.062	34585.58
538.263	34182.13
538.463	33508.35
538.664	33096.71
538.865	32531.47
539.065	32535.57
539.266	31732.76
539.466	31589.41
539.667	31015.97
539.868	30977.06
540.068	30137.4
540.269	30047.29
540.469	30092.34
540.67	29340.74
540.87	28980.29
541.071	28730.44
541.271	28544.08
541.472	28236.88
541.672	27569.24
541.873	27534.43
542.073	26907.75
542.274	26920.04
542.474	26508.4
542.675	25857.14
542.875	26223.73
543.075	25693.3
543.276	24917.12
543.476	25422.97
543.676	24659.08
543.877	24738.95
544.077	24378.51
544.277	24167.57
544.478	23805.08
544.678	23547.03
544.878	23016.61
545.078	23276.7
545.279	22564.01
545.479	22064.3
545.679	22461.61
545.879	21859.51
546.079	21941.43
546.28	21404.86
546.48	21234.88
546.68	20997.31
546.88	20913.34
547.08	20616.39
547.28	20143.31
547.48	20032.72
547.68	20006.09
547.88	19469.53
548.081	19246.3
548.281	18803.94
548.481	18740.45
548.681	18525.41
548.881	18214.12
549.081	18152.68
549.28	17919.21
549.48	17902.83
549.68	17743.09
549.88	17368.31
550.08	16831.74
550.28	17007.87
550.48	16772.35
550.68	16301.32
550.88	15955.21
551.08	15920.4
551.279	15758.61
551.479	15203.61
551.679	15181.08
551.879	14978.33
552.079	15052.06
552.278	14556.45
552.478	14378.28
552.678	14212.39
552.878	14282.02
553.077	13602.1
553.277	13190.45
553.477	13501.75
553.676	13067.58
553.876	12993.85
554.076	12645.7
554.275	12614.98
554.475	12004.68
554.674	12350.79
554.874	12037.45
555.074	11545.94
555.273	11590.99
555.473	11728.21
555.672	11038.04
555.872	11068.76
556.071	10962.26
556.271	10853.72
556.47	10480.99
556.67	10354.02
556.869	10313.06
557.068	9880.94
557.268	9821.55
557.467	9684.33
557.667	9622.89
557.866	9444.72
558.065	9080.18
558.265	9071.99
558.464	9024.89
558.663	8877.43
558.863	8729.98
559.062	8715.64
559.261	8357.25
559.461	8547.71
559.66	8170.88
559.859	8035.72
560.058	8005
560.258	7716.23
560.457	7540.11
560.656	7673.23
560.855	7298.45
561.054	7386.51
561.253	7292.3
561.453	7187.86
561.652	7019.92
561.851	6921.62
562.05	6679.96
562.249	6522.27
562.448	6493.6
562.647	6342.05
562.846	6321.57
563.045	6514.08
563.244	6118.82
563.443	6253.98
563.642	5948.84
563.841	5897.64
564.04	5834.15
564.239	5778.86
564.438	5641.64
564.637	5535.15
564.836	5432.75
565.035	5569.96
565.234	5395.89
565.432	5447.08
565.631	5266.86
565.83	5148.08
566.029	5096.88
566.228	5100.98
566.427	5074.35
566.625	4689.34
566.824	4867.51
567.023	4713.91
567.222	4541.88
567.42	4586.94
567.619	4693.43
567.818	4476.35
568.016	4562.36
568.215	4427.2
568.414	4386.24
568.612	4255.17
568.811	4138.43
569.01	4003.27
569.208	4005.31
569.407	4029.89
569.605	3988.93
569.804	3845.57
570.002	4015.55
570.201	3655.11
570.4	3753.41
570.598	3712.46
570.797	3505.61
570.995	3548.62
571.193	3370.44
571.392	3605.96
571.59	3235.28
571.789	3343.82
571.987	3298.77
572.186	3458.51
572.384	3143.12
572.582	3198.42
572.781	3143.12
572.979	2979.28
573.177	3067.35
573.376	2985.43
573.574	3157.46
573.772	2850.26
573.971	2885.08
574.169	2770.39
574.367	2770.39
574.565	2731.48
574.763	2645.46
574.962	2719.19
575.16	2670.04
575.358	2674.14
575.556	2432.47
575.754	2518.49
575.952	2428.38
576.151	2475.48
576.349	2442.71
576.547	2332.12
576.745	2328.03
576.943	2139.62
577.141	2287.07
577.339	2057.7
577.537	2180.57
577.735	2217.44
577.933	2221.53
578.131	2133.47
578.329	2199.01
578.527	2131.42
578.725	2129.38
578.923	1789.41
579.121	2026.98
579.319	1773.03
579.516	1873.38
579.714	2037.22
579.912	1930.72
580.11	1633.77
580.308	1725.93
580.506	1644.01
580.704	1615.34
580.901	1721.83
581.099	1818.08
581.297	1496.55
581.495	1586.66
581.692	1490.41
581.89	1684.97
582.088	1609.19
582.285	1496.55
582.483	1484.27
582.681	1514.98
582.878	1551.85
583.076	1457.64
583.274	1476.07
583.471	1564.14
583.669	1420.78
583.866	1359.34
584.064	1232.37
584.262	1267.18
584.459	1265.13
584.657	1334.76
584.854	1347.05
585.052	1302
585.249	1293.8
585.447	1328.62
585.644	1252.84
585.841	1373.68
586.039	1285.61
586.236	1232.37
586.434	1140.21
586.631	1103.34
586.828	957.94
587.026	1082.86
587.223	947.7
587.42	1082.86
587.618	1027.57
587.815	1179.12
588.012	980.47
588.21	951.79
588.407	964.08
588.604	1015.28
588.801	1007.09
588.999	970.23
589.196	1142.25
589.393	910.83
589.59	916.98
589.787	968.18
589.984	992.75
590.182	1011.18
590.379	951.79
590.576	847.35
590.773	916.98
590.97	933.36
591.167	945.65
591.364	894.45
591.561	886.26
591.758	873.97
591.955	937.46
592.152	947.7
592.349	896.5
592.546	808.44
592.743	857.59
592.94	835.06
593.137	837.11
593.334	957.94
593.531	910.83
593.727	937.46
593.924	830.96
594.121	849.4
594.318	873.97
594.515	906.74
594.712	1013.23
594.908	1064.43
595.105	775.67
595.302	968.18
595.499	1031.66
595.696	998.9
595.892	974.32
596.089	1093.1
596.286	953.84
596.482	1037.81
596.679	1033.71
596.876	1021.42
597.072	1105.39
597.269	1099.25
597.466	1111.54
597.662	1156.59
597.859	1170.93
598.055	1177.07
598.252	1332.72
598.448	1443.31
598.645	1478.12
598.841	1490.41
599.038	1543.66
599.234	1586.66
599.431	1596.9
599.627	1699.3
599.824	1758.69
600.02	1709.54
600.217	1670.63
600.413	1949.15
600.609	1986.02
600.806	2254.3
601.002	2051.55
601.198	2057.7
601.395	2350.56
601.591	2352.6
601.787	2516.44
601.984	2588.12
602.18	2672.09
602.376	2766.29
602.572	2844.12
602.769	2885.08
602.965	2975.19
603.161	3188.18
603.357	3153.36
603.553	3343.82
603.75	3427.79
603.946	3356.11
604.142	3734.98
604.338	3823.05
604.534	3763.65
604.73	3976.64
604.926	4093.38
605.122	4373.95
605.318	4525.5
605.514	4480.44
605.71	4697.53
605.906	4961.72
606.102	5010.87
606.298	5150.13
606.494	5262.77
606.69	5461.42
606.886	5567.92
607.082	5655.98
607.278	5813.67
607.474	6008.23
607.67	6231.46
607.866	6286.75
608.062	6770.07
608.257	6825.37
608.453	7116.18
608.649	7185.81
608.845	7120.28
609.041	7454.09
609.236	7749
609.432	7890.31
609.628	8138.12
609.824	8549.76
610.019	8617.34
610.215	8920.44
610.411	9094.52
610.606	9352.56
610.802	9581.93
610.998	9678.19
611.193	10159.46
611.389	10085.73
611.584	10634.59
611.78	10829.15
611.976	11185.49
612.171	11394.39
612.367	11896.14
612.562	11951.43
612.758	12215.62
612.953	12463.43
613.149	13059.38
613.344	12999.99
613.539	13692.21
613.735	14048.55
613.93	14456.1
614.126	14583.07
614.321	15289.62
614.517	15588.63
614.712	15979.79
614.907	16131.34
615.103	16557.32
615.298	17095.93
615.493	17665.27
615.688	17700.08
615.884	18791.65
616.079	18588.9
616.274	19512.53
616.47	19645.65
616.665	20372.68
616.86	20872.39
617.055	21542.07
617.25	21660.85
617.445	22672.55
617.641	22639.78
617.836	23368.86
618.031	23745.69
618.226	24554.63
618.421	25250.94
618.616	25881.72
618.811	26133.62
619.006	26995.81
619.201	27309.15
619.396	28202.07
619.591	28230.74
619.786	29555.77
619.981	29527.1
620.176	30870.57
620.371	30837.8
620.566	31798.3
620.761	32287.76
620.956	33051.66
621.151	33633.28
621.346	34651.12
621.541	34421.75
621.735	35935.2
621.93	35976.16
622.125	37168.07
622.32	36934.6
622.515	38048.7
622.709	38919.09
622.904	39609.25
623.099	40172.44
623.294	41145.23
623.488	41341.83
623.683	42423.16
623.878	42630.01
624.072	43858.79
624.267	44190.56
624.462	44776.28
624.656	44921.68
624.851	46506.81
625.046	46869.3
625.24	46951.22
625.435	47837.99
625.629	48534.3
625.824	49111.83
626.018	50057.99
626.213	49554.19
626.407	50897.66
626.602	50909.94
626.796	52185.83
626.991	52554.46
627.185	52785.88
627.38	52904.66
627.574	52814.55
627.768	54072.01
627.963	53672.65
628.157	53949.13
628.352	54995.64
628.546	53379.79
628.74	54758.08
628.935	53822.15
629.129	54446.79
629.323	53826.25
629.517	53885.64
629.712	53678.8
629.906	53299.92
630.1	52493.02
630.294	52695.77
630.489	51487.47
630.683	51550.96
630.877	49969.93
631.071	49675.02
631.265	49269.52
631.459	48251.68
631.653	47211.31
631.848	46355.26
632.042	45149.01
632.236	44460.89
632.43	42769.27
632.624	42187.64
632.818	40618.9
633.012	39805.86
633.206	38368.18
633.4	37151.69
633.594	35701.73
633.788	35369.96
633.982	33555.46
634.176	32523.28
634.369	31466.53
634.563	30184.5
634.757	28759.11
634.951	28224.59
635.145	27182.18
635.339	25707.64
635.533	24806.53
635.726	24132.75
635.92	22883.49
636.114	21884.08
636.308	20712.64
636.501	20419.78
636.695	19436.76
636.889	18564.32
637.083	17806.58
637.276	16942.33
637.47	16219.4
637.664	15889.68
637.857	15248.66
638.051	14603.55
638.244	14175.53
638.438	13360.44
638.632	12956.99
638.825	12242.25
639.019	11988.3
639.212	11287.89
639.406	11050.33
639.599	10585.44
639.793	10339.68
639.986	9659.76
640.18	9280.88
640.373	9000.31
640.567	8490.37
640.76	8230.27
640.954	8058.25
641.147	7693.71
641.34	7302.54
641.534	7253.39
641.727	6903.19
641.92	6821.27
642.114	6423.97
642.307	6118.82
642.5	5977.51
642.694	5721.51
642.887	5451.18
643.08	5359.02
643.273	5225.9
643.467	4926.9
643.66	4511.16
643.853	4480.44
644.046	4380.09
644.239	4195.78
644.432	4101.57
644.626	3716.55
644.819	3706.31
645.012	3710.41
645.205	3497.42
645.398	3333.58
645.591	3192.27
645.784	3014.1
645.977	2811.35
646.17	2823.64
646.363	2784.73
646.556	2584.02
646.749	2440.67
646.942	2395.61
647.135	2420.19
647.328	2215.39
647.521	2203.1
647.714	2012.64
647.907	1981.92
648.099	1854.95
648.292	2022.88
648.485	1805.8
648.678	1668.58
648.871	1652.2
649.064	1693.16
649.256	1531.37
649.449	1527.27
649.642	1431.02
649.835	1254.89
650.027	1349.1
650.22	1377.77
650.413	1275.37
650.605	1314.28
650.798	1244.65
650.991	1062.38
651.183	1136.11
651.376	1050.1
651.568	1125.87
651.761	968.18
651.954	1062.38
652.146	916.98
652.339	888.31
652.531	925.17
652.724	783.86
652.916	814.58
653.109	736.76
653.301	902.64
653.494	839.16
653.686	714.23
653.879	869.87
654.071	726.52
654.263	656.89
654.456	617.97
654.648	701.94
654.84	675.32
655.033	591.35
655.225	650.74
655.417	464.38
655.61	691.7
655.802	566.78
655.994	572.92
656.186	450.04
656.379	626.17
656.571	499.19
656.763	509.43
656.955	491
657.148	439.8
657.34	572.92
657.532	509.43
657.724	443.9
657.916	458.23
658.108	527.86
658.3	495.1
658.492	390.65
658.684	370.17
658.876	529.91
659.068	310.78
659.26	284.16
659.452	300.54
659.644	345.59
659.836	425.47
660.028	323.07
660.22	251.39
660.412	259.58
660.604	271.87
660.796	378.36
660.988	398.84
661.18	314.88
661.372	372.22
661.563	253.44
661.755	339.45
661.947	249.34
662.139	179.71
662.331	245.24
662.522	261.63
662.714	228.86
662.906	192
663.097	296.44
663.289	220.67
663.481	173.57
663.673	290.3
663.864	220.67
664.056	269.82
664.247	93.69
664.439	345.59
664.631	298.49
664.822	318.97
665.014	224.76
665.205	179.71
665.397	185.85
665.588	280.06
665.78	202.24
665.971	318.97
666.163	105.98
666.354	259.58
666.546	144.89
666.737	192
666.929	146.94
667.12	175.61
667.311	175.61
667.503	239.1
667.694	247.29
667.885	134.65
668.077	251.39
668.268	73.21
668.459	265.72
668.651	136.7
668.842	175.61
669.033	157.18
669.224	99.84
669.416	232.96
669.607	110.08
669.798	120.32
669.989	263.68
670.18	198.14
670.371	273.92
670.563	124.41
670.754	163.33
670.945	202.24
671.136	300.54
671.327	157.18
671.518	331.26
671.709	316.92
671.9	173.57
672.091	308.73
672.282	220.67
672.473	179.71
672.664	189.95
672.855	62.98
673.046	134.65
673.237	304.64
673.428	202.24
673.619	251.39
673.809	216.57
674	237.05
674.191	226.81
674.382	212.48
674.573	200.19
674.764	138.75
674.954	228.86
675.145	101.89
675.336	181.76
675.527	159.23
675.717	153.09
675.908	140.8
676.099	210.43
676.289	255.48
676.48	67.07
676.671	187.9
676.861	165.37
677.052	232.96
677.243	198.14
677.433	148.99
677.624	222.72
677.814	253.44
678.005	183.81
678.195	298.49
678.386	122.37
678.576	196.09
678.767	122.37
678.957	308.73
679.148	265.72
679.338	282.11
679.529	247.29
679.719	118.27
679.909	275.96
680.1	351.74
680.29	192
680.481	146.94
680.671	269.82
680.861	308.73
681.052	179.71
681.242	167.42
681.432	255.48
681.622	179.71
681.813	134.65
682.003	192
682.193	171.52
682.383	218.62
682.573	228.86
682.764	173.57
682.954	290.3
683.144	368.12
683.334	228.86
683.524	253.44
683.714	288.25
683.904	265.72
684.094	185.85
684.284	239.1
684.474	253.44
684.664	282.11
684.854	247.29
685.044	224.76
685.234	259.58
685.424	243.2
685.614	165.37
685.804	378.36
685.994	280.06
686.184	187.9
686.374	280.06
686.564	241.15
686.753	183.81
686.943	173.57
687.133	208.38
687.323	339.45
687.513	275.96
687.702	271.87
687.892	263.68
688.082	216.57
688.272	298.49
688.461	312.83
688.651	323.07
688.841	292.35
689.03	214.52
689.22	157.18
689.41	331.26
689.599	327.16
689.789	212.48
689.979	327.16
690.168	329.21
690.358	359.93
690.547	230.91
690.737	275.96
690.926	261.63
691.116	343.55
691.305	253.44
691.495	280.06
691.684	116.22
691.874	157.18
692.063	296.44
692.252	220.67
692.442	226.81
692.631	218.62
692.82	216.57
693.01	273.92
693.199	183.81
693.388	224.76
693.578	212.48
693.767	226.81
693.956	237.05
694.146	263.68
694.335	239.1
694.524	179.71
694.713	292.35
694.902	226.81
695.092	175.61
695.281	222.72
695.47	263.68
695.659	245.24
695.848	237.05
696.037	183.81
696.226	339.45
696.415	298.49
696.604	294.4
696.793	273.92
696.982	218.62
697.171	298.49
697.36	204.28
697.549	146.94
697.738	105.98
697.927	179.71
698.116	130.56
698.305	214.52
698.494	222.72
698.683	208.38
698.872	323.07
699.061	314.88
699.25	267.77
699.438	181.76
699.627	189.95
699.816	335.35
700.005	130.56
700.193	112.13
700.382	282.11
700.571	259.58
700.76	189.95
700.948	249.34
701.137	255.48
701.326	271.87
701.514	91.65
701.703	241.15
701.892	261.63
702.08	394.75
702.269	144.89
702.457	208.38
702.646	259.58
702.834	153.09
703.023	259.58
703.212	327.16
703.4	169.47
703.589	235
703.777	132.61
703.965	151.04
704.154	148.99
704.342	97.79
704.531	257.53
704.719	206.33
704.907	345.59
705.096	91.65
705.284	136.7
705.472	294.4
705.661	292.35
705.849	339.45
706.037	282.11
706.226	224.76
706.414	265.72
706.602	157.18
706.79	273.92
706.979	126.46
707.167	169.47
707.355	138.75
707.543	202.24
707.731	341.5
707.919	230.91
708.107	171.52
708.296	257.53
708.484	175.61
708.672	218.62
708.86	194.05
709.048	253.44
709.236	142.85
709.424	247.29
709.612	249.34
709.8	179.71
709.988	200.19
710.176	335.35
710.364	245.24
710.551	202.24
710.739	239.1
710.927	241.15
711.115	235
711.303	224.76
711.491	329.21
711.679	132.61
711.866	323.07
712.054	235
712.242	216.57
712.43	337.4
712.617	226.81
712.805	339.45
712.993	144.89
713.181	99.84
713.368	284.16
713.556	202.24
713.744	243.2
713.931	370.17
714.119	218.62
714.306	202.24
714.494	159.23
714.682	202.24
714.869	132.61
715.057	230.91
715.244	157.18
715.432	259.58
715.619	263.68
715.807	212.48
715.994	189.95
716.182	282.11
716.369	253.44
716.556	321.02
716.744	124.41
716.931	220.67
717.119	247.29
717.306	155.13
717.493	189.95
717.681	181.76
717.868	185.85
718.055	333.31
718.242	241.15
718.43	282.11
718.617	218.62
718.804	239.1
718.991	353.79
719.179	241.15
719.366	280.06
719.553	298.49
719.74	222.72
719.927	251.39
720.114	210.43
720.301	263.68
720.488	196.09
720.676	196.09
720.863	243.2
721.05	398.84
721.237	228.86
721.424	308.73
721.611	257.53
721.798	128.51
721.985	161.28
722.172	269.82
722.358	255.48
722.545	314.88
722.732	243.2
722.919	386.55
723.106	237.05
723.293	208.38
723.48	239.1
723.667	230.91
723.853	347.64
724.04	325.12
724.227	308.73
724.414	224.76
724.6	269.82
724.787	357.88
724.974	427.51
725.161	220.67
725.347	161.28
725.534	232.96
725.72	347.64
725.907	376.31
726.094	304.64
726.28	200.19
726.467	241.15
726.653	110.08
726.84	384.51
727.027	312.83
727.213	255.48
727.4	327.16
727.586	282.11
727.773	329.21
727.959	228.86
728.145	241.15
728.332	255.48
728.518	179.71
728.705	388.6
728.891	261.63
729.077	206.33
729.264	247.29
729.45	204.28
729.636	364.03
729.823	294.4
730.009	312.83
730.195	292.35
730.382	368.12
730.568	218.62
730.754	259.58
730.94	202.24
731.126	298.49
731.313	267.77
731.499	218.62
731.685	292.35
731.871	296.44
732.057	380.41
732.243	347.64
732.429	302.59
732.615	357.88
732.801	331.26
732.987	257.53
733.173	286.2
733.359	128.51
733.545	249.34
733.731	261.63
733.917	364.03
734.103	376.31
734.289	302.59
734.475	198.14
734.661	404.99
734.847	310.78
735.033	282.11
735.219	321.02
735.404	148.99
735.59	251.39
735.776	239.1
735.962	318.97
736.148	323.07
736.333	376.31
736.519	265.72
736.705	267.77
736.89	267.77
737.076	286.2
737.262	134.65
737.447	267.77
737.633	224.76
737.819	392.7
738.004	331.26
738.19	261.63
738.375	265.72
738.561	335.35
738.747	343.55
738.932	189.95
739.118	470.52
739.303	294.4
739.489	298.49
739.674	253.44
739.859	204.28
740.045	286.2
740.23	329.21
740.416	157.18
740.601	310.78
740.786	314.88
740.972	245.24
741.157	204.28
741.342	331.26
741.528	232.96
741.713	290.3
741.898	271.87
742.084	280.06
742.269	273.92
742.454	409.08
742.639	349.69
742.824	267.77
743.01	400.89
743.195	400.89
743.38	237.05
743.565	304.64
743.75	241.15
743.935	460.28
744.12	372.22
744.305	243.2
744.49	271.87
744.675	275.96
744.86	247.29
745.045	275.96
745.23	302.59
745.415	273.92
745.6	359.93
745.785	263.68
745.97	325.12
746.155	267.77
746.34	368.12
746.525	271.87
746.71	372.22
746.895	167.42
747.079	210.43
747.264	237.05
747.449	333.31
747.634	255.48
747.819	300.54
748.003	278.01
748.188	167.42
748.373	261.63
748.557	265.72
748.742	296.44
748.927	235
749.111	216.57
749.296	224.76
749.481	292.35
749.665	302.59
749.85	142.85
750.034	306.68
750.219	148.99
750.404	132.61
750.588	300.54
750.773	169.47
750.957	232.96
751.141	292.35
751.326	337.4
751.51	161.28
751.695	214.52
751.879	273.92
752.064	323.07
752.248	230.91
752.432	329.21
752.617	325.12
752.801	280.06
752.985	218.62
753.17	361.98
753.354	202.24
753.538	239.1
753.722	198.14
753.907	189.95
754.091	108.03
754.275	235
754.459	108.03
754.643	175.61
754.828	198.14
755.012	224.76
755.196	112.13
755.38	245.24
755.564	239.1
755.748	175.61
755.932	214.52
756.116	335.35
756.3	163.33
756.484	189.95
756.668	290.3
756.852	101.89
757.036	183.81
757.22	196.09
757.404	128.51
757.588	140.8
757.772	95.74
757.956	232.96
758.14	318.97
758.323	108.03
758.507	128.51
758.691	144.89
758.875	200.19
759.059	296.44
759.242	130.56
759.426	148.99
759.61	91.65
759.794	114.17
759.977	173.57
760.161	316.92
760.345	249.34
760.528	189.95
760.712	177.66
760.895	169.47
761.079	187.9
761.263	101.89
761.446	169.47
761.63	189.95
761.813	161.28
761.997	71.17
762.18	95.74
762.364	312.83
762.547	-35.33
762.731	159.23
762.914	124.41
763.098	120.32
763.281	157.18
763.464	116.22
763.648	105.98
763.831	93.69
764.015	85.5
764.198	179.71
764.381	83.45
764.564	155.13
764.748	128.51
764.931	122.37
765.114	77.31
765.297	91.65
765.481	75.26
765.664	73.21
765.847	134.65
766.03	228.86
766.213	65.02
766.397	95.74
766.58	9.73
766.763	237.05
766.946	46.59
767.129	73.21
767.312	69.12
767.495	81.41
767.678	-16.9
767.861	105.98
768.044	142.85
768.227	91.65
768.41	138.75
768.593	101.89
768.776	134.65
768.959	26.11
769.142	226.81
769.324	75.26
769.507	112.13
769.69	28.16
769.873	134.65
770.056	243.2
770.239	136.7
770.421	210.43
770.604	132.61
770.787	5.63
770.97	146.94
771.152	17.92
771.335	85.5
771.518	30.21
771.7	144.89
771.883	208.38
772.066	81.41
772.248	198.14
772.431	198.14
772.613	161.28
772.796	79.36
772.978	194.05
773.161	273.92
773.343	17.92
773.526	24.06
773.708	5.63
773.891	7.68
774.073	81.41
774.256	134.65
774.438	282.11
774.621	-25.09
774.803	173.57
774.985	108.03
775.168	153.09
775.35	73.21
775.532	13.82
775.715	-4.61
775.897	130.56
776.079	56.83
776.261	108.03
776.444	120.32
776.626	73.21
776.808	73.21
776.99	89.6
777.173	103.93
777.355	22.02
777.537	112.13
777.719	99.84
777.901	71.17
778.083	73.21
778.265	24.06
778.447	130.56
778.629	52.74
778.811	122.37
778.993	208.38
779.175	116.22
779.357	122.37
779.539	17.92
779.721	114.17
779.903	155.13
780.085	97.79
780.267	60.93
780.449	38.4
780.631	148.99
780.812	169.47
780.994	19.97
781.176	19.97
781.358	85.5
781.54	36.35
781.721	44.54
781.903	146.94
782.085	48.64
782.267	122.37
782.448	-43.52
782.63	-10.75
782.812	52.74
782.993	48.64
783.175	97.79
783.357	15.87
783.538	60.93
783.72	50.69
783.901	118.27
784.083	75.26
784.264	142.85
784.446	26.11
784.627	-16.9
784.809	134.65
784.99	-4.61
785.172	157.18
785.353	32.26
785.535	118.27
785.716	56.83
785.897	-27.14
786.079	40.45
786.26	105.98
786.441	112.13
786.623	-113.15
786.804	91.65
786.985	69.12
787.167	73.21
787.348	95.74
787.529	32.26
787.71	175.61
787.891	122.37
788.073	-4.61
788.254	-16.9
788.435	167.42
788.616	97.79
788.797	-35.33
788.978	9.73
789.159	-23.04
789.34	65.02
789.522	22.02
789.703	-10.75
789.884	77.31
790.065	173.57
790.246	157.18
790.427	19.97
790.607	155.13
790.788	159.23
790.969	-20.99
791.15	101.89
791.331	11.78
791.512	65.02
791.693	24.06
791.874	-27.14
792.054	163.33
792.235	142.85
792.416	24.06
792.597	44.54
792.778	153.09
792.958	91.65
793.139	69.12
793.32	93.69
793.5	-20.99
793.681	130.56
793.862	44.54
794.042	-39.42
794.223	5.63
794.404	-2.56
794.584	-41.47
794.765	60.93
794.945	28.16
795.126	46.59
795.306	138.75
795.487	13.82
795.667	11.78
795.848	-27.14
796.028	50.69
796.209	22.02
796.389	97.79
796.57	3.58
796.75	-18.94
796.93	32.26
797.111	-59.9
797.291	-0.51
797.471	110.08
797.652	-4.61
797.832	-27.14
798.012	60.93
798.192	38.4
798.373	-88.57
798.553	77.31
798.733	50.69
798.913	40.45
799.093	7.68
799.274	103.93
799.454	108.03
799.634	126.46
799.814	-18.94
799.994	73.21
800.174	85.5
800.354	71.17
800.534	-57.86
800.714	44.54
800.894	-31.23
801.074	-115.2
801.254	-37.38
801.434	144.89
801.614	81.41
801.794	-47.62
801.974	1850.85
802.154	-20.99
802.334	189.95
802.514	69.12
802.693	85.5
802.873	42.5
803.053	97.79
803.233	56.83
803.413	-31.23
803.592	-16.9
803.772	-41.47
803.952	-39.42
804.131	-74.24
804.311	38.4
804.491	105.98
804.67	28.16
804.85	1.54
805.03	69.12
805.209	140.8
805.389	28.16
805.568	28.16
805.748	-18.94
805.928	-20.99
806.107	60.93
806.287	19.97
806.466	32.26
806.646	26.11
806.825	58.88
807.004	9.73
807.184	73.21
807.363	56.83
807.543	32.26
807.722	19.97
807.901	48.64
808.081	65.02
808.26	-92.67
808.439	13.82
808.619	-31.23
808.798	7.68
808.977	118.27
809.156	83.45
809.336	73.21
809.515	40.45
809.694	-47.62
809.873	11.78
810.052	54.78
810.231	108.03
810.411	40.45
810.59	36.35
810.769	30.21
810.948	112.13
811.127	-162.3
811.306	54.78
811.485	30.21
811.664	177.66
811.843	-27.14
812.022	-0.51
812.201	-16.9
812.38	42.5
812.559	7.68
812.737	19.97
812.916	-84.48
813.095	-43.52
813.274	15.87
813.453	-8.7
813.632	85.5
813.811	73.21
813.989	-55.81
814.168	62.98
814.347	-53.76
814.526	-6.66
814.704	128.51
814.883	101.89
815.062	-39.42
815.24	65.02
815.419	-10.75
815.598	36.35
815.776	-35.33
815.955	46.59
816.133	-111.1
816.312	81.41
816.49	30.21
816.669	-4.61
816.847	-6.66
817.026	-8.7
817.204	5.63
817.383	-29.18
817.561	15.87
817.74	9.73
817.918	103.93
818.097	22.02
818.275	-2.56
818.453	65.02
818.632	105.98
818.81	-0.51
818.988	-14.85
819.167	-39.42
819.345	-59.9
819.523	-29.18
819.701	-8.7
819.879	38.4
820.058	48.64
820.236	71.17
820.414	-12.8
820.592	3.58
820.77	-4.61
820.948	17.92
821.127	22.02
821.305	-8.7
821.483	-6.66
821.661	60.93
821.839	-0.51
822.017	-18.94
822.195	9.73
822.373	120.32
822.551	-4.61
822.729	99.84
822.907	-16.9
823.085	9.73
823.262	44.54
823.44	-49.66
823.618	-33.28
823.796	58.88
823.974	-14.85
824.152	-35.33
824.329	-0.51
824.507	36.35
824.685	-2.56
824.863	30.21
825.04	52.74
825.218	60.93
825.396	44.54
825.574	28.16
825.751	-33.28
825.929	17.92
826.107	-37.38
826.284	7.68
826.462	42.5
826.639	-43.52
826.817	-45.57
826.994	32.26
827.172	-74.24
827.349	183.81
827.527	22.02
827.704	-4.61
827.882	95.74
828.059	-23.04
828.237	5.63
828.414	28.16
828.591	-76.29
828.769	-4.61
828.946	-78.33
829.124	26.11
829.301	153.09
829.478	15.87
829.655	93.69
829.833	17.92
830.01	-55.81
830.187	97.79
830.364	-4.61
830.542	71.17
830.719	134.65
830.896	93.69
831.073	-6.66
831.25	-2.56
831.427	81.41
831.604	81.41
831.782	-53.76
831.959	69.12
832.136	-47.62
832.313	85.5
832.49	-2.56
832.667	7.68
832.844	-14.85
833.021	62.98
833.198	32.26
833.374	-8.7
833.551	93.69
833.728	38.4
833.905	36.35
834.082	-96.77
834.259	36.35
834.436	69.12
834.612	-111.1
834.789	79.36
834.966	81.41
835.143	17.92
835.319	-39.42
835.496	17.92
835.673	-4.61
835.85	116.22
836.026	62.98
836.203	67.07
836.38	-33.28
836.556	-10.75
836.733	-57.86
836.909	77.31
837.086	-49.66
837.262	-37.38
837.439	-33.28
837.616	-57.86
837.792	-10.75
837.968	-18.94
838.145	-123.39
838.321	-14.85
838.498	40.45
838.674	22.02
838.851	85.5
839.027	-31.23
839.203	-2.56
839.38	-8.7
839.556	3.58
839.732	24.06
839.909	28.16
840.085	114.17
840.261	-78.33
840.437	42.5
840.614	-55.81
840.79	110.08
840.966	56.83
841.142	38.4
841.318	-8.7
841.494	13.82
841.671	101.89
841.847	-41.47
842.023	-88.57
842.199	77.31
842.375	153.09
842.551	-66.05
842.727	-49.66
842.903	124.41
843.079	-109.05
843.255	65.02
843.431	15.87
843.607	24.06
843.783	-137.73
843.959	19.97
844.134	-41.47
844.31	208.38
844.486	-31.23
844.662	-25.09
844.838	-64
845.013	30.21
845.189	71.17
845.365	-31.23
845.541	17.92
845.716	79.36
845.892	85.5
846.068	38.4
846.244	-86.53
846.419	54.78
846.595	-31.23
846.77	-72.19
846.946	40.45
847.122	-57.86
847.297	-37.38
847.473	79.36
847.648	-86.53
847.824	79.36
847.999	-137.73
848.175	3.58
848.35	-23.04
848.526	110.08
848.701	38.4
848.876	138.75
849.052	122.37
849.227	-4.61
849.403	-35.33
849.578	-2.56
849.753	46.59
849.929	56.83
850.104	-84.48
850.279	9.73
850.454	-20.99
850.63	58.88
850.805	15.87
850.98	-6.66
851.155	15.87
851.33	79.36
851.505	-66.05
851.681	118.27
851.856	15.87
852.031	-35.33
852.206	-16.9
852.381	-92.67
852.556	-41.47
852.731	-10.75
852.906	3.58
853.081	-47.62
853.256	79.36
853.431	22.02
853.606	22.02
853.781	-55.81
853.956	-94.72
854.131	-10.75
854.305	-66.05
854.48	-76.29
854.655	28.16
854.83	-49.66
855.005	-33.28
855.18	9.73
855.354	-59.9
855.529	42.5
855.704	52.74
855.879	26.11
856.053	-92.67
856.228	1.54
856.403	-33.28
856.577	13.82
856.752	-14.85
856.926	-35.33
857.101	-8.7
857.276	-16.9
857.45	-29.18
857.625	36.35
857.799	81.41
857.974	9.73
858.148	-76.29
858.323	54.78
858.497	-80.38
858.672	-35.33
858.846	-78.33
859.02	15.87
859.195	-20.99
859.369	-12.8
859.543	130.56
859.718	36.35
859.892	26.11
860.066	24.06
860.241	-29.18
860.415	-61.95
860.589	3.58
860.763	-12.8
860.938	-35.33
861.112	50.69
861.286	-107.01
861.46	38.4
861.634	1.54
861.808	54.78
861.982	-14.85
862.157	-111.1
862.331	-86.53
862.505	-35.33
862.679	-172.54
862.853	-80.38
863.027	-2.56
863.201	79.36
863.375	-14.85
863.549	19.97
863.722	52.74
863.896	32.26
864.07	-43.52
864.244	62.98
864.418	50.69
864.592	38.4
864.766	-6.66
864.939	-72.19
865.113	-4.61
865.287	69.12
865.461	-94.72
865.634	48.64
865.808	-33.28
865.982	7.68
866.156	-127.49
866.329	-166.4
866.503	28.16
866.676	50.69
866.85	60.93
867.024	-90.62
867.197	95.74
867.371	112.13
867.544	1.54
867.718	-78.33
867.891	108.03
868.065	-80.38
868.238	26.11
868.412	148.99
868.585	-6.66
868.759	-18.94
868.932	-88.57
869.105	-94.72
869.279	-12.8
869.452	-72.19
869.625	-16.9
869.799	-53.76
869.972	-49.66
870.145	-41.47
870.319	60.93
870.492	-68.09
870.665	-10.75
870.838	-78.33
871.011	-193.02
871.185	7.68
871.358	-76.29
871.531	81.41
871.704	-49.66
871.877	-41.47
872.05	-72.19
872.223	-8.7
872.396	140.8
872.569	99.84
872.742	-98.81
872.915	-20.99
873.088	32.26
873.261	-8.7
873.434	105.98
873.607	60.93
873.78	56.83
873.953	-111.1
874.126	50.69
874.299	75.26
874.471	-8.7
874.644	-35.33
874.817	69.12
874.99	230.91
875.163	36.35
875.335	28.16
875.508	65.02
875.681	67.07
875.853	-57.86
876.026	32.26
876.199	89.6
876.371	52.74
876.544	40.45
876.717	62.98
876.889	-8.7
877.062	-4.61
877.234	-57.86
877.407	-43.52
877.579	-4.61
877.752	-29.18
877.924	62.98
878.097	22.02
878.269	81.41
878.442	89.6
878.614	40.45
878.786	-41.47
878.959	3.58
879.131	101.89
879.303	-100.86
879.476	15.87
879.648	105.98
879.82	26.11
879.993	-6.66
880.165	-43.52
880.337	-117.25
880.509	132.61
880.681	-107.01
880.854	-41.47
881.026	67.07
881.198	89.6
881.37	19.97
881.542	-27.14
881.714	-66.05
881.886	3.58
882.058	-61.95
882.23	40.45
882.402	-35.33
882.574	58.88
882.746	26.11
882.918	118.27
883.09	62.98
883.262	-29.18
883.434	-8.7
883.606	-109.05
883.778	-43.52
883.95	91.65
884.122	-72.19
884.293	122.37
884.465	-39.42
884.637	36.35
884.809	-31.23
884.98	5.63
885.152	44.54
885.324	67.07
885.496	-33.28
885.667	-31.23
885.839	-80.38
886.011	132.61
886.182	3.58
886.354	-14.85
886.525	77.31
886.697	-66.05
886.869	-70.14
887.04	-33.28
887.212	-2.56
887.383	101.89
887.555	30.21
887.726	3.58
887.897	15.87
888.069	5.63
888.24	26.11
888.412	-4.61
888.583	13.82
888.754	48.64
888.926	-127.49
889.097	22.02
889.268	-107.01
889.44	7.68
889.611	-92.67
889.782	-131.58
889.953	-59.9
890.125	177.66
890.296	-115.2
890.467	-35.33
890.638	-12.8
890.809	-49.66
890.98	-92.67
891.151	22.02
891.323	97.79
891.494	13.82
891.665	1.54
891.836	17.92
892.007	36.35
892.178	-25.09
892.349	-2.56
892.52	-47.62
892.691	-23.04
892.862	-12.8
893.032	-96.77
893.203	5.63
893.374	58.88
893.545	32.26
893.716	-72.19
893.887	65.02
894.057	24.06
894.228	3.58
894.399	-76.29
894.57	118.27
894.74	9.73
894.911	32.26
895.082	-61.95
895.253	-74.24
895.423	24.06
895.594	44.54
895.764	28.16
895.935	-92.67
896.106	-0.51
896.276	-29.18
896.447	7.68
896.617	-61.95
896.788	-59.9
896.958	-8.7
897.129	-98.81
897.299	-64
897.47	83.45
897.64	30.21
897.81	-131.58
897.981	34.3
898.151	-37.38
898.322	34.3
898.492	17.92
898.662	-76.29
898.832	-20.99
899.003	-55.81
899.173	50.69
899.343	-39.42
899.513	-96.77
