Data from USB4F104151__244__11-19-54-337.txt Node

Date: Wed Feb 26 11:19:54 EST 2025
User: louis
Spectrometer: USB4F10415
Trigger mode: 4
Integration Time (sec): 1.000000E-1
Scans to average: 1
Electric dark correction enabled: true
Nonlinearity correction enabled: false
Boxcar width: 0
XAxis mode: Wavelengths
Number of Pixels in Spectrum: 3648
>>>>>Begin Spectral Data<<<<<
178.204	-411.64
178.424	-411.64
178.644	-411.64
178.864	-430.07
179.084	-421.88
179.304	-22.53
179.524	-4.1
179.744	24.58
179.964	61.44
180.184	34.82
180.404	-47.1
180.624	-51.2
180.844	36.86
181.064	-75.77
181.283	55.3
181.503	-73.73
181.723	61.44
181.943	-51.2
182.163	145.41
182.383	-53.25
182.602	43.01
182.822	118.78
183.042	-28.67
183.262	-14.34
183.482	38.91
183.701	34.82
183.921	2.05
184.141	-36.86
184.361	75.77
184.58	0
184.8	0
185.02	-57.34
185.239	75.77
185.459	-49.15
185.679	55.3
185.898	-126.97
186.118	-8.19
186.338	-22.53
186.557	49.15
186.777	-47.1
186.997	-24.58
187.216	4.1
187.436	137.21
187.655	75.77
187.875	55.3
188.095	102.4
188.314	69.63
188.534	55.3
188.753	-79.87
188.973	118.78
189.192	176.13
189.412	-20.48
189.631	32.77
189.851	-6.14
190.07	124.93
190.29	-40.96
190.509	24.58
190.729	28.67
190.948	137.21
191.168	313.34
191.387	28.67
191.607	-14.34
191.826	-24.58
192.045	-12.29
192.265	0
192.484	100.35
192.704	2.05
192.923	2.05
193.142	163.84
193.362	22.53
193.581	118.78
193.8	36.86
194.02	61.44
194.239	55.3
194.458	61.44
194.678	-6.14
194.897	-26.62
195.116	102.4
195.335	71.68
195.555	118.78
195.774	47.1
195.993	45.06
196.212	24.58
196.432	-6.14
196.651	8.19
196.87	12.29
197.089	176.13
197.308	71.68
197.528	61.44
197.747	-67.58
197.966	137.21
198.185	155.65
198.404	-86.01
198.623	65.54
198.842	73.73
199.062	124.93
199.281	20.48
199.5	18.43
199.719	40.96
199.938	36.86
200.157	55.3
200.376	143.36
200.595	112.64
200.814	47.1
201.033	40.96
201.252	77.82
201.471	86.01
201.69	83.97
201.909	26.62
202.128	2.05
202.347	61.44
202.566	32.77
202.785	-28.67
203.004	-2.05
203.223	206.84
203.442	14.34
203.661	-57.34
203.879	43.01
204.098	161.79
204.317	16.38
204.536	73.73
204.755	79.87
204.974	43.01
205.193	16.38
205.411	135.17
205.63	114.69
205.849	45.06
206.068	59.39
206.287	10.24
206.505	186.37
206.724	55.3
206.943	-28.67
207.162	-20.48
207.381	100.35
207.599	71.68
207.818	86.01
208.037	-8.19
208.255	-32.77
208.474	36.86
208.693	40.96
208.911	30.72
209.13	133.12
209.349	71.68
209.567	63.49
209.786	53.25
210.005	12.29
210.223	20.48
210.442	-86.01
210.661	-18.43
210.879	47.1
211.098	34.82
211.316	43.01
211.535	73.73
211.753	49.15
211.972	98.3
212.191	-40.96
212.409	-18.43
212.628	75.77
212.846	-55.3
213.065	67.58
213.283	110.59
213.502	-12.29
213.72	28.67
213.938	20.48
214.157	40.96
214.375	83.97
214.594	-6.14
214.812	61.44
215.031	-20.48
215.249	-6.14
215.467	38.91
215.686	59.39
215.904	38.91
216.122	18.43
216.341	71.68
216.559	83.97
216.778	83.97
216.996	116.73
217.214	6.14
217.432	-38.91
217.651	-100.35
217.869	65.54
218.087	26.62
218.306	14.34
218.524	4.1
218.742	0
218.96	67.58
219.179	-2.05
219.397	-4.1
219.615	215.04
219.833	88.06
220.051	6.14
220.27	65.54
220.488	90.11
220.706	90.11
220.924	-18.43
221.142	-57.34
221.36	53.25
221.578	131.07
221.796	51.2
222.015	92.16
222.233	86.01
222.451	120.83
222.669	-43.01
222.887	6.14
223.105	-38.91
223.323	34.82
223.541	-20.48
223.759	-2.05
223.977	40.96
224.195	165.89
224.413	34.82
224.631	47.1
224.849	94.21
225.067	174.08
225.285	-2.05
225.503	4.1
225.721	-77.82
225.939	12.29
226.157	61.44
226.375	210.94
226.592	-28.67
226.81	0
227.028	-14.34
227.246	90.11
227.464	57.34
227.682	69.63
227.9	69.63
228.117	-8.19
228.335	104.45
228.553	24.58
228.771	34.82
228.989	20.48
229.206	112.64
229.424	2.05
229.642	-49.15
229.86	-51.2
230.077	167.93
230.295	36.86
230.513	116.73
230.731	-2.05
230.948	120.83
231.166	108.54
231.384	30.72
231.601	-6.14
231.819	190.46
232.037	-94.21
232.254	-32.77
232.472	18.43
232.689	-53.25
232.907	88.06
233.125	-4.1
233.342	-43.01
233.56	-43.01
233.777	-34.82
233.995	-22.53
234.213	36.86
234.43	10.24
234.648	79.87
234.865	0
235.083	53.25
235.3	26.62
235.518	112.64
235.735	118.78
235.953	34.82
236.17	53.25
236.388	-22.53
236.605	16.38
236.822	34.82
237.04	120.83
237.257	30.72
237.475	-63.49
237.692	61.44
237.909	36.86
238.127	-55.3
238.344	108.54
238.562	73.73
238.779	-75.77
238.996	-47.1
239.214	90.11
239.431	40.96
239.648	34.82
239.865	100.35
240.083	45.06
240.3	-79.87
240.517	-6.14
240.735	-4.1
240.952	69.63
241.169	65.54
241.386	47.1
241.603	-4.1
241.821	-77.82
242.038	24.58
242.255	0
242.472	-4.1
242.689	53.25
242.907	112.64
243.124	24.58
243.341	-10.24
243.558	-28.67
243.775	-32.77
243.992	-55.3
244.209	51.2
244.426	77.82
244.643	49.15
244.86	12.29
245.078	61.44
245.295	2.05
245.512	45.06
245.729	24.58
245.946	131.07
246.163	45.06
246.38	34.82
246.597	122.88
246.814	65.54
247.031	32.77
247.248	63.49
247.464	28.67
247.681	61.44
247.898	69.63
248.115	12.29
248.332	-34.82
248.549	124.93
248.766	55.3
248.983	-10.24
249.2	75.77
249.417	65.54
249.633	-30.72
249.85	120.83
250.067	-6.14
250.284	63.49
250.501	90.11
250.717	45.06
250.934	-43.01
251.151	20.48
251.368	63.49
251.585	36.86
251.801	-73.73
252.018	-22.53
252.235	163.84
252.451	-43.01
252.668	65.54
252.885	90.11
253.102	49.15
253.318	-53.25
253.535	16.38
253.752	-26.62
253.968	-30.72
254.185	-38.91
254.401	6.14
254.618	71.68
254.835	24.58
255.051	122.88
255.268	49.15
255.484	88.06
255.701	-22.53
255.917	112.64
256.134	-63.49
256.351	-12.29
256.567	-24.58
256.784	24.58
257	10.24
257.217	98.3
257.433	149.5
257.65	77.82
257.866	135.17
258.082	20.48
258.299	4.1
258.515	30.72
258.732	-36.86
258.948	-43.01
259.165	-8.19
259.381	-63.49
259.597	59.39
259.814	-43.01
260.03	-18.43
260.246	28.67
260.463	98.3
260.679	163.84
260.895	28.67
261.112	88.06
261.328	14.34
261.544	-18.43
261.761	133.12
261.977	-4.1
262.193	-24.58
262.409	92.16
262.626	67.58
262.842	45.06
263.058	-55.3
263.274	116.73
263.49	96.25
263.707	94.21
263.923	28.67
264.139	-75.77
264.355	49.15
264.571	55.3
264.787	102.4
265.004	139.26
265.22	45.06
265.436	-47.1
265.652	67.58
265.868	30.72
266.084	-34.82
266.3	18.43
266.516	-77.82
266.732	137.21
266.948	16.38
267.164	14.34
267.38	75.77
267.596	45.06
267.812	155.65
268.028	36.86
268.244	-2.05
268.46	90.11
268.676	40.96
268.892	43.01
269.108	-81.92
269.324	-47.1
269.54	-77.82
269.756	67.58
269.972	-75.77
270.188	30.72
270.403	-59.39
270.619	22.53
270.835	73.73
271.051	79.87
271.267	55.3
271.483	-22.53
271.698	120.83
271.914	90.11
272.13	4.1
272.346	14.34
272.562	63.49
272.777	67.58
272.993	47.1
273.209	-26.62
273.425	75.77
273.64	-55.3
273.856	81.92
274.072	-28.67
274.287	28.67
274.503	98.3
274.719	40.96
274.934	-71.68
275.15	-20.48
275.366	14.34
275.581	-38.91
275.797	6.14
276.012	159.74
276.228	26.62
276.444	6.14
276.659	131.07
276.875	2.05
277.09	-14.34
277.306	8.19
277.521	110.59
277.737	59.39
277.952	96.25
278.168	26.62
278.383	20.48
278.599	-8.19
278.814	86.01
279.03	0
279.245	92.16
279.461	-36.86
279.676	73.73
279.892	-88.06
280.107	-34.82
280.322	36.86
280.538	20.48
280.753	-38.91
280.969	112.64
281.184	20.48
281.399	96.25
281.615	18.43
281.83	45.06
282.045	-51.2
282.26	6.14
282.476	32.77
282.691	110.59
282.906	-12.29
283.122	65.54
283.337	-36.86
283.552	12.29
283.767	-45.06
283.983	71.68
284.198	20.48
284.413	-6.14
284.628	-28.67
284.843	4.1
285.058	55.3
285.274	-28.67
285.489	51.2
285.704	114.69
285.919	26.62
286.134	-40.96
286.349	57.34
286.564	6.14
286.779	186.37
286.995	36.86
287.21	-69.63
287.425	90.11
287.64	-18.43
287.855	45.06
288.07	-38.91
288.285	137.21
288.5	116.73
288.715	20.48
288.93	0
289.145	-59.39
289.36	96.25
289.575	-28.67
289.79	94.21
290.004	-120.83
290.219	43.01
290.434	20.48
290.649	-24.58
290.864	-24.58
291.079	10.24
291.294	36.86
291.509	10.24
291.724	4.1
291.938	-67.58
292.153	167.93
292.368	6.14
292.583	2.05
292.798	34.82
293.012	47.1
293.227	86.01
293.442	24.58
293.657	172.03
293.871	172.03
294.086	104.45
294.301	145.41
294.516	145.41
294.73	69.63
294.945	-43.01
295.16	10.24
295.374	98.3
295.589	102.4
295.804	2.05
296.018	77.82
296.233	225.28
296.447	20.48
296.662	2.05
296.877	51.2
297.091	40.96
297.306	77.82
297.52	65.54
297.735	67.58
297.949	79.87
298.164	174.08
298.378	8.19
298.593	-104.45
298.807	-96.25
299.022	-2.05
299.236	141.31
299.451	61.44
299.665	26.62
299.88	-18.43
300.094	53.25
300.309	-14.34
300.523	-4.1
300.737	-34.82
300.952	47.1
301.166	57.34
301.381	-79.87
301.595	-18.43
301.809	38.91
302.024	2.05
302.238	16.38
302.452	-22.53
302.667	12.29
302.881	83.97
303.095	116.73
303.309	47.1
303.524	-16.38
303.738	34.82
303.952	-2.05
304.166	-18.43
304.381	-92.16
304.595	126.97
304.809	-32.77
305.023	-8.19
305.237	-92.16
305.452	-6.14
305.666	67.58
305.88	126.97
306.094	116.73
306.308	14.34
306.522	100.35
306.736	59.39
306.95	73.73
307.164	86.01
307.379	88.06
307.593	126.97
307.807	133.12
308.021	90.11
308.235	108.54
308.449	-122.88
308.663	28.67
308.877	241.66
309.091	18.43
309.305	61.44
309.519	-100.35
309.733	141.31
309.947	-151.55
310.161	135.17
310.374	100.35
310.588	-10.24
310.802	-38.91
311.016	16.38
311.23	26.62
311.444	12.29
311.658	6.14
311.872	126.97
312.085	94.21
312.299	129.02
312.513	180.22
312.727	63.49
312.941	-45.06
313.154	77.82
313.368	-45.06
313.582	8.19
313.796	69.63
314.009	34.82
314.223	153.6
314.437	26.62
314.651	75.77
314.864	-10.24
315.078	-26.62
315.292	-67.58
315.505	-8.19
315.719	28.67
315.933	26.62
316.146	-22.53
316.36	12.29
316.573	122.88
316.787	36.86
317.001	45.06
317.214	20.48
317.428	24.58
317.641	-34.82
317.855	-28.67
318.068	34.82
318.282	61.44
318.495	182.27
318.709	98.3
318.922	-38.91
319.136	182.27
319.349	77.82
319.563	-40.96
319.776	38.91
319.99	-55.3
320.203	147.45
320.417	43.01
320.63	51.2
320.843	159.74
321.057	47.1
321.27	73.73
321.483	155.65
321.697	116.73
321.91	30.72
322.124	108.54
322.337	88.06
322.55	-43.01
322.763	22.53
322.977	22.53
323.19	-8.19
323.403	38.91
323.617	55.3
323.83	40.96
324.043	26.62
324.256	88.06
324.469	-45.06
324.683	86.01
324.896	20.48
325.109	-10.24
325.322	-57.34
325.535	116.73
325.748	22.53
325.962	-18.43
326.175	-53.25
326.388	-38.91
326.601	53.25
326.814	4.1
327.027	36.86
327.24	122.88
327.453	-77.82
327.666	18.43
327.879	118.78
328.092	135.17
328.305	16.38
328.518	-30.72
328.731	53.25
328.944	-53.25
329.157	43.01
329.37	-12.29
329.583	188.41
329.796	65.54
330.009	-61.44
330.222	36.86
330.435	-12.29
330.648	120.83
330.861	28.67
331.073	106.49
331.286	43.01
331.499	55.3
331.712	-10.24
331.925	-16.38
332.138	22.53
332.35	94.21
332.563	0
332.776	71.68
332.989	-38.91
333.202	-30.72
333.414	30.72
333.627	-6.14
333.84	-26.62
334.053	-18.43
334.265	59.39
334.478	-55.3
334.691	-51.2
334.903	-2.05
335.116	-26.62
335.329	30.72
335.541	86.01
335.754	178.17
335.966	-20.48
336.179	8.19
336.392	4.1
336.604	51.2
336.817	36.86
337.029	88.06
337.242	18.43
337.454	96.25
337.667	53.25
337.88	210.94
338.092	100.35
338.305	71.68
338.517	47.1
338.729	69.63
338.942	100.35
339.154	24.58
339.367	-43.01
339.579	26.62
339.792	10.24
340.004	106.49
340.217	-24.58
340.429	77.82
340.641	-38.91
340.854	-40.96
341.066	-53.25
341.278	71.68
341.491	159.74
341.703	36.86
341.915	-32.77
342.128	51.2
342.34	59.39
342.552	-57.34
342.764	-36.86
342.977	-4.1
343.189	104.45
343.401	-26.62
343.613	-38.91
343.826	30.72
344.038	-28.67
344.25	77.82
344.462	-20.48
344.674	57.34
344.886	90.11
345.099	30.72
345.311	92.16
345.523	-45.06
345.735	6.14
345.947	-4.1
346.159	-18.43
346.371	-38.91
346.583	12.29
346.795	172.03
347.007	0
347.219	69.63
347.431	79.87
347.643	137.21
347.855	-14.34
348.067	67.58
348.279	-26.62
348.491	57.34
348.703	79.87
348.915	-12.29
349.127	-75.77
349.339	-8.19
349.551	-30.72
349.763	63.49
349.975	40.96
350.187	102.4
350.399	112.64
350.61	90.11
350.822	20.48
351.034	90.11
351.246	100.35
351.458	20.48
351.669	69.63
351.881	79.87
352.093	83.97
352.305	131.07
352.517	55.3
352.728	112.64
352.94	55.3
353.152	14.34
353.363	-24.58
353.575	40.96
353.787	147.45
353.999	67.58
354.21	122.88
354.422	-49.15
354.633	-2.05
354.845	-10.24
355.057	2.05
355.268	38.91
355.48	26.62
355.692	-67.58
355.903	34.82
356.115	16.38
356.326	-75.77
356.538	163.84
356.749	69.63
356.961	102.4
357.172	14.34
357.384	-47.1
357.595	192.51
357.807	4.1
358.018	59.39
358.23	45.06
358.441	133.12
358.653	2.05
358.864	-8.19
359.075	30.72
359.287	116.73
359.498	71.68
359.709	118.78
359.921	65.54
360.132	139.26
360.344	-18.43
360.555	-53.25
360.766	-6.14
360.977	71.68
361.189	110.59
361.4	69.63
361.611	157.69
361.823	186.37
362.034	149.5
362.245	-32.77
362.456	63.49
362.667	47.1
362.879	4.1
363.09	-10.24
363.301	12.29
363.512	18.43
363.723	6.14
363.935	-71.68
364.146	112.64
364.357	26.62
364.568	43.01
364.779	-61.44
364.99	145.41
365.201	-98.3
365.412	186.37
365.623	-49.15
365.834	32.77
366.045	18.43
366.256	126.97
366.467	79.87
366.678	-18.43
366.889	40.96
367.1	-22.53
367.311	53.25
367.522	55.3
367.733	73.73
367.944	71.68
368.155	65.54
368.366	86.01
368.577	81.92
368.788	102.4
368.999	-12.29
369.209	-36.86
369.42	126.97
369.631	210.94
369.842	108.54
370.053	38.91
370.264	51.2
370.474	-12.29
370.685	38.91
370.896	71.68
371.107	81.92
371.317	24.58
371.528	-8.19
371.739	47.1
371.95	43.01
372.16	100.35
372.371	30.72
372.582	53.25
372.792	94.21
373.003	32.77
373.214	65.54
373.424	28.67
373.635	-40.96
373.846	165.89
374.056	24.58
374.267	83.97
374.477	10.24
374.688	14.34
374.898	90.11
375.109	57.34
375.319	63.49
375.53	104.45
375.74	129.02
375.951	14.34
376.161	75.77
376.372	22.53
376.582	32.77
376.793	20.48
377.003	8.19
377.214	6.14
377.424	98.3
377.635	-26.62
377.845	-61.44
378.055	96.25
378.266	-12.29
378.476	10.24
378.686	28.67
378.897	86.01
379.107	77.82
379.317	49.15
379.528	47.1
379.738	131.07
379.948	-129.02
380.158	112.64
380.369	71.68
380.579	34.82
380.789	-36.86
380.999	49.15
381.21	126.97
381.42	135.17
381.63	20.48
381.84	59.39
382.05	65.54
382.261	98.3
382.471	53.25
382.681	-45.06
382.891	106.49
383.101	22.53
383.311	-8.19
383.521	-45.06
383.731	51.2
383.941	83.97
384.151	36.86
384.361	59.39
384.571	45.06
384.781	55.3
384.991	184.32
385.201	227.32
385.411	38.91
385.621	16.38
385.831	2.05
386.041	40.96
386.251	22.53
386.461	104.45
386.671	-34.82
386.881	45.06
387.091	57.34
387.301	100.35
387.511	96.25
387.72	81.92
387.93	163.84
388.14	-16.38
388.35	-12.29
388.56	126.97
388.769	176.13
388.979	61.44
389.189	-8.19
389.399	6.14
389.609	147.45
389.818	129.02
390.028	-49.15
390.238	49.15
390.447	-2.05
390.657	65.54
390.867	-51.2
391.076	-20.48
391.286	6.14
391.496	28.67
391.705	53.25
391.915	90.11
392.125	151.55
392.334	24.58
392.544	143.36
392.753	-59.39
392.963	-32.77
393.172	112.64
393.382	8.19
393.591	212.99
393.801	-8.19
394.01	251.9
394.22	114.69
394.429	-12.29
394.639	-20.48
394.848	-14.34
395.058	53.25
395.267	24.58
395.477	96.25
395.686	100.35
395.895	210.94
396.105	135.17
396.314	116.73
396.524	30.72
396.733	20.48
396.942	145.41
397.152	63.49
397.361	118.78
397.57	-2.05
397.78	43.01
397.989	81.92
398.198	208.89
398.407	43.01
398.617	51.2
398.826	-4.1
399.035	92.16
399.244	131.07
399.453	45.06
399.663	88.06
399.872	55.3
400.081	-43.01
400.29	104.45
400.499	-10.24
400.708	65.54
400.917	53.25
401.127	10.24
401.336	-30.72
401.545	155.65
401.754	43.01
401.963	139.26
402.172	16.38
402.381	-53.25
402.59	-2.05
402.799	-43.01
403.008	122.88
403.217	51.2
403.426	94.21
403.635	-6.14
403.844	47.1
404.053	-28.67
404.262	-8.19
404.471	190.46
404.68	94.21
404.888	47.1
405.097	22.53
405.306	83.97
405.515	77.82
405.724	59.39
405.933	120.83
406.142	12.29
406.35	90.11
406.559	10.24
406.768	49.15
406.977	112.64
407.185	2.05
407.394	28.67
407.603	-47.1
407.812	108.54
408.02	149.5
408.229	0
408.438	30.72
408.646	-65.53
408.855	49.15
409.064	137.21
409.272	24.58
409.481	63.49
409.69	-55.3
409.898	-20.48
410.107	104.45
410.315	174.08
410.524	-10.24
410.733	96.25
410.941	40.96
411.15	120.83
411.358	94.21
411.567	108.54
411.775	69.63
411.984	53.25
412.192	145.41
412.401	-10.24
412.609	108.54
412.818	86.01
413.026	124.93
413.234	106.49
413.443	59.39
413.651	30.72
413.86	92.16
414.068	137.21
414.276	88.06
414.485	-38.91
414.693	143.36
414.901	94.21
415.11	83.97
415.318	47.1
415.526	-45.06
415.734	122.88
415.943	45.06
416.151	114.69
416.359	47.1
416.567	28.67
416.776	165.89
416.984	108.54
417.192	174.08
417.4	16.38
417.608	-16.38
417.817	-18.43
418.025	112.64
418.233	174.08
418.441	16.38
418.649	-24.58
418.857	73.73
419.065	186.37
419.273	-16.38
419.481	149.5
419.689	-4.1
419.897	14.34
420.105	-16.38
420.313	102.4
420.521	153.6
420.729	215.04
420.937	59.39
421.145	2.05
421.353	75.77
421.561	145.41
421.769	86.01
421.977	18.43
422.185	122.88
422.393	-38.91
422.601	88.06
422.809	112.64
423.017	30.72
423.224	-16.38
423.432	110.59
423.64	108.54
423.848	53.25
424.056	61.44
424.263	176.13
424.471	-32.77
424.679	178.17
424.887	-16.38
425.094	75.77
425.302	178.17
425.51	51.2
425.718	126.97
425.925	92.16
426.133	59.39
426.341	196.61
426.548	79.87
426.756	16.38
426.964	131.07
427.171	43.01
427.379	100.35
427.586	167.93
427.794	155.65
428.001	129.02
428.209	18.43
428.417	225.28
428.624	98.3
428.832	43.01
429.039	86.01
429.247	75.77
429.454	180.22
429.662	147.45
429.869	69.63
430.076	57.34
430.284	137.21
430.491	212.99
430.699	145.41
430.906	227.32
431.114	151.55
431.321	90.11
431.528	110.59
431.736	157.69
431.943	129.02
432.15	149.5
432.358	196.61
432.565	311.29
432.772	26.62
432.979	225.28
433.187	188.41
433.394	305.15
433.601	217.08
433.808	245.76
434.016	299
434.223	225.28
434.43	155.65
434.637	280.57
434.844	315.39
435.052	249.85
435.259	305.15
435.466	288.76
435.673	329.72
435.88	286.72
436.087	282.62
436.294	387.07
436.501	385.02
436.708	309.24
436.915	286.72
437.122	385.02
437.329	280.57
437.537	335.87
437.743	364.54
437.95	505.85
438.157	374.78
438.364	368.63
438.571	425.98
438.778	479.22
438.985	499.7
439.192	423.93
439.399	522.23
439.606	522.23
439.813	591.86
440.02	573.43
440.227	694.26
440.433	620.53
440.64	518.14
440.847	563.19
441.054	653.3
441.261	735.22
441.467	694.26
441.674	591.86
441.881	784.37
442.088	798.71
442.294	831.48
442.501	798.71
442.708	860.15
442.914	847.86
443.121	976.88
443.328	1005.55
443.534	1069.04
443.741	1036.27
443.948	899.06
444.154	1095.66
444.361	1206.25
444.568	1132.53
444.774	1212.4
444.981	1181.68
445.187	1355.76
445.394	1329.13
445.6	1265.64
445.807	1554.41
446.013	1437.67
446.22	1370.09
446.426	1550.31
446.633	1769.44
446.839	1843.17
447.046	1662.95
447.252	1824.74
447.459	1843.17
447.665	1918.95
447.871	1904.61
448.078	2133.98
448.284	2133.98
448.491	2328.54
448.697	2269.15
448.903	2496.47
449.11	2482.14
449.316	2363.36
449.522	2549.72
449.728	2795.48
449.935	2863.06
450.141	2834.39
450.347	3155.92
450.553	2983.89
450.76	3151.82
450.966	3377.1
451.172	3493.83
451.378	3573.71
451.584	3522.51
451.791	3792.84
451.997	3981.25
452.203	4011.97
452.409	4165.57
452.615	4497.34
452.821	4313.02
453.027	4394.94
453.233	4868.02
453.44	4638.65
453.646	5054.39
453.852	5232.56
454.058	5433.26
454.264	5562.28
454.47	5920.68
454.676	5959.59
454.882	6553.5
455.088	6338.46
455.294	6565.79
455.5	7163.79
455.705	7356.3
455.911	7387.02
456.117	7649.16
456.323	7864.2
456.529	8025.99
456.735	8556.41
456.941	9107.32
457.147	9181.04
457.352	9404.27
457.558	9854.83
457.764	10430.3
457.97	10596.19
458.176	11063.13
458.381	11358.03
458.587	11745.1
458.793	12076.87
458.999	12101.45
459.204	13838.12
459.41	14477.09
459.616	14262.05
459.821	14982.94
460.027	15302.42
460.233	16232.2
460.438	16381.7
460.644	17583.86
460.85	17434.36
461.055	18288.36
461.261	19039.97
461.466	18644.71
461.672	18888.42
461.878	21341.88
462.083	20881.09
462.289	21100.22
462.494	22621.86
462.7	22220.46
462.905	22714.02
463.111	24532.62
463.316	25968.24
463.522	26203.76
463.727	27573.85
463.932	28493.39
464.138	29400.64
464.343	30154.29
464.549	30701.1
464.754	32472.59
464.959	33584.64
465.165	34092.54
465.37	33900.03
465.575	33566.21
465.781	36376.02
465.986	37559.75
466.191	36738.51
466.397	36955.6
466.602	36423.12
466.807	38419.89
467.012	38841.78
467.218	39447.97
467.423	39726.5
467.628	40744.34
467.833	42696.05
468.038	41770.37
468.244	41192.84
468.449	43173.23
468.654	42413.43
468.859	42554.74
469.064	42286.46
469.269	41414.02
469.474	42067.33
469.679	42921.33
469.885	41758.08
470.09	42773.88
470.295	42859.89
470.5	41627.01
470.705	41876.86
470.91	41004.43
471.115	40267.16
471.32	41170.32
471.525	40932.75
471.73	39517.6
471.935	39253.42
472.139	37973.44
472.344	37922.24
472.549	37819.84
472.754	37098.95
472.959	36173.27
473.164	35055.08
473.369	34444.79
473.574	35624.42
473.778	34620.91
473.983	34319.86
474.188	33981.95
474.393	32196.12
474.598	32155.16
474.802	31235.62
475.007	30774.83
475.212	30717.48
475.417	29386.3
475.621	29163.07
475.826	28943.94
476.031	28495.44
476.235	27608.67
476.44	27641.43
476.645	26803.81
476.849	26795.62
477.054	26136.18
477.259	25503.35
477.463	25759.35
477.668	24764.04
477.872	24737.41
478.077	24155.79
478.282	23471.77
478.486	23389.85
478.691	23029.41
478.895	22701.73
479.1	22531.75
479.304	22558.38
479.509	21817.01
479.713	21976.75
479.918	21364.41
480.122	21006.02
480.326	21272.25
480.531	21173.95
480.735	20582.09
480.94	20711.11
481.144	21290.68
481.348	20115.15
481.553	20156.11
481.757	19789.52
481.961	20106.96
482.166	20045.52
482.37	19957.46
482.574	19181.28
482.778	19244.76
482.983	19179.23
483.187	19154.65
483.391	19001.05
483.595	18904.8
483.8	18695.91
484.004	18495.21
484.208	18534.12
484.412	18276.07
484.616	18032.36
484.821	17850.1
485.025	17256.18
485.229	17508.08
485.433	17055.48
485.637	16942.85
485.841	16402.18
486.045	16428.81
486.249	16109.32
486.453	16090.89
486.657	15851.28
486.861	15615.76
487.065	15255.32
487.269	15105.82
487.473	15003.42
487.677	14835.49
487.881	14941.98
488.085	14229.29
488.289	13944.62
488.493	13707.05
488.697	13637.42
488.901	13350.71
489.105	13094.71
489.309	12779.32
489.512	12756.8
489.716	12396.35
489.92	12300.1
490.124	12107.59
490.328	11988.81
490.531	11478.86
490.735	11366.23
490.939	11294.55
491.143	10858.33
491.346	10684.25
491.55	10786.65
491.754	10370.91
491.958	10327.91
492.161	10301.28
492.365	9994.09
492.569	9758.57
492.772	9658.22
492.976	9559.92
493.18	9437.04
493.383	9226.1
493.587	9185.14
493.79	9037.69
493.994	8808.31
494.197	8728.44
494.401	9013.11
494.605	8675.2
494.808	8722.3
495.012	8558.46
495.215	8615.8
495.419	8490.88
495.622	8191.88
495.825	8109.96
496.029	8308.61
496.232	8216.45
496.436	7911.3
496.639	8415.1
496.843	8038.28
497.046	8066.95
497.249	8232.83
497.453	8265.6
497.656	8089.48
497.859	7845.77
498.063	8085.38
498.266	8288.13
498.469	8116.1
498.673	7903.11
498.876	8189.83
499.079	8175.49
499.282	8157.06
499.485	8499.07
499.689	8353.66
499.892	8439.68
500.095	8419.2
500.298	8374.14
500.501	8230.79
500.705	8593.28
500.908	8574.85
501.111	8589.18
501.314	8802.17
501.517	8525.69
501.72	8783.74
501.923	8888.18
502.126	8941.43
502.329	9193.33
502.532	9353.07
502.735	9475.95
502.938	9607.02
503.141	9398.13
503.344	9498.48
503.547	9604.97
503.75	9815.91
503.953	9953.13
504.156	10245.99
504.359	10159.97
504.562	10227.56
504.765	10544.99
504.968	10682.2
505.17	10868.57
505.373	10960.73
505.576	11132.76
505.779	11079.51
505.982	11384.66
506.185	11759.44
506.387	12040.01
506.59	12021.58
506.793	12095.3
506.996	12246.85
507.198	12873.53
507.401	13037.37
507.604	13139.77
507.807	13233.97
508.009	13756.21
508.212	14051.11
508.415	14034.73
508.617	14475.04
508.82	14864.16
509.022	14995.23
509.225	15535.89
509.428	15795.98
509.63	16127.75
509.833	16189.19
510.035	16893.69
510.238	16922.37
510.44	17372.92
510.643	17676.02
510.845	18265.83
511.048	18349.8
511.25	18908.9
511.453	19328.73
511.655	20143.82
511.858	20520.65
512.06	20715.2
512.262	21196.48
512.465	21292.73
512.667	21907.12
512.87	22378.15
513.072	22916.77
513.274	23695
513.477	24270.48
513.679	24659.59
513.881	24964.74
514.084	25728.63
514.286	26195.57
514.488	26666.6
514.69	27774.55
514.893	28042.84
515.095	28532.3
515.297	29052.48
515.499	29732.41
515.701	30484.01
515.904	30819.88
516.106	31864.35
516.308	32011.8
516.51	32968.2
516.712	33371.65
516.914	34031.1
517.116	34928.11
517.318	35438.05
517.52	35941.85
517.722	36302.29
517.925	37379.53
518.127	38071.74
518.329	39087.53
518.531	38878.64
518.733	39935.39
518.935	40504.73
519.136	41037.2
519.338	42202.49
519.54	42511.74
519.742	43277.68
519.944	43494.76
520.146	44211.55
520.348	44932.43
520.55	45604.17
520.752	45935.94
520.954	47129.9
521.155	46398.78
521.357	48241.95
521.559	48254.24
521.761	49050.9
521.963	48938.26
522.164	49767.69
522.366	50167.04
522.568	50709.75
522.77	50732.28
522.971	51817.71
523.173	51367.15
523.375	52010.21
523.576	52227.3
523.778	52137.19
523.98	52595.93
524.181	52866.27
524.383	52985.05
524.584	53382.35
524.786	53365.97
524.988	53273.81
525.189	53628.11
525.391	53982.41
525.592	53845.19
525.794	54404.29
525.995	53509.33
526.197	53857.48
526.398	53693.64
526.6	53914.83
526.801	53677.26
527.003	53714.12
527.204	53734.6
527.406	53562.57
527.607	53095.64
527.808	53347.54
528.01	52182.24
528.211	51842.28
528.412	52643.04
528.614	51746.03
528.815	51780.84
529.016	51633.39
529.218	50326.78
529.419	50466.05
529.62	50357.5
529.822	49347.85
530.023	49222.93
530.224	49083.67
530.425	47904.04
530.626	47459.63
530.828	46816.57
531.029	47461.68
531.23	46452.03
531.431	45337.93
531.632	45868.36
531.833	45374.8
532.035	44260.7
532.236	43707.75
532.437	43478.38
532.638	43042.16
532.839	42210.68
533.04	42188.16
533.241	41287.05
533.442	41497.99
533.643	40566.16
533.844	39841.18
534.045	39347.62
534.246	38192.57
534.447	38432.18
534.648	37934.53
534.849	37281.22
535.05	36502.99
535.251	36269.53
535.451	35892.7
535.652	35352.04
535.853	34635.25
536.054	34502.13
536.255	34002.43
536.456	32865.8
536.657	33623.55
536.857	32947.72
537.058	31796.76
537.259	32022.04
537.46	31108.65
537.66	30666.28
537.861	30477.87
538.062	30058.04
538.263	29752.89
538.463	29351.49
538.664	28958.28
538.865	28546.64
539.065	28333.65
539.266	27733.59
539.466	27874.9
539.667	27080.29
539.868	27473.5
540.068	27043.43
540.269	26420.84
540.469	25955.96
540.67	25613.95
540.87	25480.83
541.071	25153.15
541.271	25065.09
541.472	24512.14
541.672	24317.58
541.873	23891.6
542.073	23461.53
542.274	23619.22
542.474	23266.97
542.675	22984.35
542.875	22673.06
543.075	22273.71
543.276	21776.05
543.476	22150.83
543.676	21382.84
543.877	21331.64
544.077	21419.71
544.277	21055.17
544.478	20524.74
544.678	20502.22
544.878	20174.54
545.078	20227.79
545.279	19812.05
545.479	19674.84
545.679	19363.54
545.879	19128.03
546.079	19140.32
546.28	18712.29
546.48	18337.51
546.68	18646.76
546.88	18147.05
547.08	17837.81
547.28	17702.64
547.48	17088.25
547.68	17395.45
547.88	16819.97
548.081	16705.28
548.281	16635.65
548.481	16447.24
548.681	16322.31
548.881	16021.26
549.081	15888.14
549.28	15425.3
549.48	15494.93
549.68	14839.58
549.88	14941.98
550.08	14571.3
550.28	14337.83
550.48	14157.61
550.68	14292.77
550.88	13616.94
551.08	13680.43
551.279	13686.58
551.479	13258.55
551.679	13346.61
551.879	12818.24
552.079	12810.04
552.278	12508.99
552.478	12445.51
552.678	12384.07
552.878	12171.08
553.077	11814.73
553.277	11509.58
553.477	11691.85
553.676	11343.7
553.876	11050.84
554.076	10784.6
554.275	10645.34
554.475	10444.64
554.674	10581.85
554.874	10375.01
555.074	10018.66
555.273	9961.32
555.473	9781.1
555.672	9803.63
555.872	9396.08
556.071	9385.84
556.271	9498.48
556.47	8949.62
556.67	8894.33
556.869	8796.03
557.068	8554.37
557.268	8513.41
557.467	8349.57
557.667	8238.98
557.866	8183.68
558.065	7980.93
558.265	7913.35
558.464	7679.88
558.663	7561.1
558.863	7333.78
559.062	7423.89
559.261	7071.64
559.461	7227.28
559.66	6965.14
559.859	6795.16
560.058	6674.33
560.258	6526.88
560.457	6623.13
560.656	6719.39
560.855	6324.13
561.054	6385.57
561.253	6160.29
561.453	5928.87
561.652	5996.45
561.851	6004.64
562.05	5638.06
562.249	5539.76
562.448	5789.61
562.647	5445.55
562.846	5429.17
563.045	5457.84
563.244	5160.88
563.443	5289.9
563.642	5101.49
563.841	5021.62
564.04	4995
564.239	4943.8
564.438	4855.73
564.637	4847.54
564.836	4825.01
565.035	4612.03
565.234	4753.34
565.432	4505.53
565.631	4622.27
565.83	4333.5
566.029	4360.13
566.228	4243.39
566.427	4288.45
566.625	4005.83
566.824	3991.49
567.023	4159.42
567.222	3977.16
567.42	3889.09
567.619	3850.18
567.818	3895.24
568.016	3878.85
568.215	3637.19
568.414	3741.64
568.612	3626.95
568.811	3608.52
569.01	3530.7
569.208	3483.59
569.407	3479.5
569.605	3360.72
569.804	3286.99
570.002	3217.36
570.201	3135.44
570.4	3209.17
570.598	3172.3
570.797	3039.19
570.995	3080.15
571.193	2959.31
571.392	3030.99
571.59	2838.48
571.789	2901.97
571.987	2844.63
572.186	2768.85
572.384	2668.5
572.582	2611.16
572.781	2824.15
572.979	2502.62
573.177	2602.97
573.376	2510.81
573.574	2553.82
573.772	2541.53
573.971	2426.84
574.169	2269.15
574.367	2258.91
574.565	2318.3
574.763	2318.3
574.962	2260.96
575.16	2086.88
575.358	2133.98
575.556	2213.85
575.754	2148.32
575.952	2109.41
576.151	2035.68
576.349	2074.59
576.547	1765.35
576.745	1968.1
576.943	1935.33
577.141	1781.73
577.339	1716.2
577.537	1834.98
577.735	1662.95
577.933	1877.99
578.131	1740.77
578.329	1779.68
578.527	1642.47
578.725	1695.72
578.923	1458.15
579.121	1728.49
579.319	1466.35
579.516	1587.18
579.714	1689.57
579.912	1564.65
580.11	1423.34
580.308	1394.67
580.506	1363.95
580.704	1277.93
580.901	1273.84
581.099	1445.87
581.297	1312.75
581.495	1310.7
581.692	1218.54
581.89	1507.31
582.088	1193.97
582.285	1173.49
582.483	1159.15
582.681	1232.88
582.878	1261.55
583.076	1112.05
583.274	1171.44
583.471	1251.31
583.669	1234.93
583.866	1017.84
584.064	1071.09
584.262	995.31
584.459	950.26
584.657	1110
584.854	1017.84
585.052	1144.81
585.249	1034.22
585.447	1015.79
585.644	880.63
585.841	1023.98
586.039	972.79
586.236	1038.32
586.434	921.59
586.631	786.42
586.828	913.39
587.026	880.63
587.223	780.28
587.42	819.19
587.618	864.24
587.815	874.48
588.012	888.82
588.21	899.06
588.407	874.48
588.604	940.02
588.801	759.8
588.999	798.71
589.196	837.62
589.393	743.41
589.59	735.22
589.787	716.79
589.984	708.6
590.182	866.29
590.379	722.93
590.576	767.99
590.773	714.74
590.97	759.8
591.167	724.98
591.364	665.59
591.561	716.79
591.758	735.22
591.955	681.97
592.152	737.27
592.349	698.36
592.546	593.91
592.743	630.77
592.94	757.75
593.137	829.43
593.334	845.81
593.531	702.45
593.727	679.93
593.924	651.25
594.121	696.31
594.318	745.46
594.515	708.6
594.712	802.8
594.908	937.97
595.105	591.86
595.302	753.65
595.499	780.28
595.696	899.06
595.892	790.52
596.089	849.91
596.286	806.9
596.482	954.35
596.679	940.02
596.876	921.59
597.072	954.35
597.269	925.68
597.466	1017.84
597.662	966.64
597.859	940.02
598.055	929.78
598.252	1189.87
598.448	1173.49
598.645	1173.49
598.841	1224.69
599.038	1384.43
599.234	1347.56
599.431	1398.76
599.627	1415.15
599.824	1468.39
600.02	1499.11
600.217	1540.07
600.413	1576.94
600.609	1636.33
600.806	2027.49
601.002	1802.21
601.198	1789.92
601.395	2017.25
601.591	2019.3
601.787	2115.55
601.984	2168.8
602.18	2260.96
602.376	2369.5
602.572	2392.03
602.769	2705.37
602.965	2664.41
603.161	2703.32
603.357	2795.48
603.553	2996.18
603.75	2818.01
603.946	2969.55
604.142	3094.48
604.338	3364.81
604.534	3436.49
604.73	3532.75
604.926	3643.34
605.122	3928
605.318	3895.24
605.514	3989.44
605.71	3950.53
605.906	4239.3
606.102	4345.79
606.298	4601.79
606.494	4736.95
606.69	4896.69
606.886	4851.64
607.082	4892.6
607.278	5144.5
607.474	5279.66
607.67	5396.4
607.866	5488.56
608.062	5877.67
608.257	5750.7
608.453	5873.57
608.649	6291.36
608.845	6373.28
609.041	6309.79
609.236	6936.47
609.432	7094.16
609.628	7128.98
609.824	7559.05
610.019	7509.9
610.215	7681.93
610.411	7968.65
610.606	8212.35
610.802	8308.61
610.998	8576.89
611.193	8853.37
611.389	8779.64
611.584	9201.52
611.78	9416.56
611.976	9793.39
612.171	10182.5
612.367	9985.9
612.562	10635.1
612.758	10641.25
612.953	10868.57
613.149	11376.47
613.344	11605.84
613.539	12048.2
613.735	12183.37
613.93	12566.34
614.126	12814.14
614.321	13231.93
614.517	13561.65
614.712	13784.88
614.907	14001.96
615.103	14251.81
615.298	14845.73
615.493	15347.48
615.688	15519.51
615.884	16203.53
616.079	16369.41
616.274	16975.61
616.47	17082.11
616.665	17825.52
616.86	18198.25
617.055	18544.36
617.25	18908.9
617.445	19848.91
617.641	19637.97
617.836	20639.43
618.031	20852.42
618.226	21675.7
618.421	21857.97
618.616	22529.7
618.811	22931.11
619.006	23463.58
619.201	23488.15
619.396	24725.13
619.591	24766.09
619.786	25861.75
619.981	25935.48
620.176	26615.4
620.371	26879.59
620.566	27881.05
620.761	28765.77
620.956	29027.91
621.151	29244.99
621.346	30168.63
621.541	30088.76
621.735	31243.81
621.93	31331.87
622.125	32159.25
622.32	32378.39
622.515	33349.12
622.709	33744.38
622.904	34846.19
623.099	35294.69
623.294	36013.53
623.488	35954.14
623.683	37166.54
623.878	36961.74
624.072	38032.83
624.267	39007.66
624.462	39214.51
624.656	39513.51
624.851	40377.75
625.046	40875.41
625.24	41794.95
625.435	41665.92
625.629	42560.89
625.824	42626.42
626.018	43756.9
626.213	43494.76
626.407	44539.22
626.602	44471.64
626.796	45397.32
626.991	46083.39
627.185	46050.63
627.38	46478.65
627.574	46566.71
627.768	46716.22
627.963	47220.02
628.157	47543.59
628.352	47676.71
628.546	47224.11
628.74	47988
628.935	47181.1
629.129	47818.02
629.323	46818.61
629.517	47086.9
629.712	46511.42
629.906	46556.47
630.1	45843.78
630.294	45786.44
630.489	45315.4
630.683	44991.83
630.877	43443.56
631.071	43044.21
631.265	42450.3
631.459	41557.38
631.653	40641.94
631.848	39970.21
632.042	39165.35
632.236	38161.85
632.43	36881.87
632.624	36496.85
632.818	34967.02
633.012	33895.93
633.206	32935.43
633.4	31882.78
633.594	30686.76
633.788	29988.41
633.982	29087.3
634.176	28155.47
634.369	26687.08
634.563	25769.59
634.757	24819.33
634.951	24108.69
635.145	22953.63
635.339	22259.37
635.533	21173.95
635.726	20393.67
635.92	19543.77
636.114	18800.35
636.308	18046.7
636.501	17493.75
636.695	16596.74
636.889	15890.19
637.083	15372.05
637.276	14815.01
637.47	14016.3
637.664	13446.96
637.857	12846.91
638.051	12543.81
638.244	11720.53
638.438	11536.21
638.632	11095.89
638.825	10348.39
639.019	10262.37
639.212	9727.85
639.406	9594.73
639.599	9000.82
639.793	8877.94
639.986	8257.41
640.18	7964.55
640.373	7559.05
640.567	7303.06
640.76	7061.4
640.954	6854.55
641.147	6475.68
641.34	6203.3
641.534	6131.62
641.727	5894.05
641.92	5576.62
642.114	5537.71
642.307	5158.83
642.5	5015.48
642.694	4747.19
642.887	4495.29
643.08	4634.55
643.273	4378.56
643.467	4173.76
643.66	3852.23
643.853	3680.2
644.046	3649.48
644.239	3547.08
644.432	3352.52
644.626	3172.3
644.819	3006.42
645.012	3000.27
645.205	2815.96
645.398	2834.39
645.591	2666.46
645.784	2418.65
645.977	2406.36
646.17	2320.35
646.363	2279.39
646.556	2113.5
646.749	2117.6
646.942	2082.78
647.135	2101.22
647.328	1789.92
647.521	1796.07
647.714	1781.73
647.907	1640.42
648.099	1589.22
648.292	1687.53
648.485	1488.87
648.678	1454.06
648.871	1366
649.064	1210.35
649.256	1286.12
649.449	1175.53
649.642	1122.29
649.835	1153.01
650.027	1097.71
650.22	1042.42
650.413	1034.22
650.605	1017.84
650.798	854
650.991	899.06
651.183	890.87
651.376	833.52
651.568	866.29
651.761	800.76
651.954	743.41
652.146	733.17
652.339	837.62
652.531	772.08
652.724	641.01
652.916	661.49
653.109	659.45
653.301	649.21
653.494	731.12
653.686	700.41
653.879	532.47
654.071	573.43
654.263	493.56
654.456	385.02
654.648	573.43
654.84	536.57
655.033	444.41
655.225	534.52
655.417	387.07
655.61	622.58
655.802	571.38
655.994	493.56
656.186	342.01
656.379	495.61
656.571	268.28
656.763	368.63
656.955	376.83
657.148	391.16
657.34	425.98
657.532	348.15
657.724	305.15
657.916	321.53
658.108	505.85
658.3	303.1
658.492	292.86
658.684	260.09
658.876	452.6
659.068	260.09
659.26	245.76
659.452	196.61
659.644	288.76
659.836	360.44
660.028	276.48
660.22	202.75
660.412	243.71
660.604	215.04
660.796	270.33
660.988	307.2
661.18	208.89
661.372	284.67
661.563	190.46
661.755	247.8
661.947	133.12
662.139	180.22
662.331	151.55
662.522	151.55
662.714	210.94
662.906	161.79
663.097	196.61
663.289	206.84
663.481	18.43
663.673	256
663.864	196.61
664.056	196.61
664.247	120.83
664.439	258.04
664.631	137.21
664.822	165.89
665.014	208.89
665.205	77.82
665.397	112.64
665.588	131.07
665.78	141.31
665.971	182.27
666.163	63.49
666.354	165.89
666.546	14.34
666.737	83.97
666.929	96.25
667.12	116.73
667.311	143.36
667.503	169.98
667.694	157.69
667.885	137.21
668.077	163.84
668.268	20.48
668.459	102.4
668.651	143.36
668.842	133.12
669.033	96.25
669.224	-6.14
669.416	307.2
669.607	108.54
669.798	69.63
669.989	120.83
670.18	137.21
670.371	143.36
670.563	32.77
670.754	251.9
670.945	233.47
671.136	231.42
671.327	38.91
671.518	212.99
671.709	319.48
671.9	159.74
672.091	159.74
672.282	139.26
672.473	206.84
672.664	112.64
672.855	81.92
673.046	196.61
673.237	151.55
673.428	88.06
673.619	176.13
673.809	61.44
674	159.74
674.191	178.17
674.382	86.01
674.573	100.35
674.764	110.59
674.954	225.28
675.145	69.63
675.336	163.84
675.527	129.02
675.717	-38.91
675.908	83.97
676.099	47.1
676.289	233.47
676.48	145.41
676.671	92.16
676.861	63.49
677.052	178.17
677.243	92.16
677.433	20.48
677.624	227.32
677.814	159.74
678.005	141.31
678.195	268.28
678.386	114.69
678.576	133.12
678.767	61.44
678.957	77.82
679.148	253.95
679.338	223.23
679.529	135.17
679.719	69.63
679.909	251.9
680.1	229.37
680.29	210.94
680.481	38.91
680.671	282.62
680.861	129.02
681.052	190.46
681.242	161.79
681.432	206.84
681.622	239.61
681.813	112.64
682.003	83.97
682.193	124.93
682.383	153.6
682.573	137.21
682.764	61.44
682.954	112.64
683.144	186.37
683.334	149.5
683.524	237.56
683.714	280.57
683.904	129.02
684.094	223.23
684.284	188.41
684.474	301.05
684.664	194.56
684.854	223.23
685.044	157.69
685.234	126.97
685.424	200.7
685.614	157.69
685.804	256
685.994	147.45
686.184	208.89
686.374	208.89
686.564	176.13
686.753	153.6
686.943	139.26
687.133	196.61
687.323	151.55
687.513	147.45
687.702	159.74
687.892	192.51
688.082	301.05
688.272	264.19
688.461	276.48
688.651	284.67
688.841	178.17
689.03	114.69
689.22	139.26
689.41	223.23
689.599	200.7
689.789	71.68
689.979	323.58
690.168	79.87
690.358	208.89
690.547	163.84
690.737	124.93
690.926	192.51
691.116	176.13
691.305	319.48
691.495	274.43
691.684	100.35
691.874	116.73
692.063	180.22
692.252	245.76
692.442	208.89
692.631	118.78
692.82	163.84
693.01	215.04
693.199	141.31
693.388	194.56
693.578	81.92
693.767	243.71
693.956	210.94
694.146	155.65
694.335	165.89
694.524	174.08
694.713	258.04
694.902	153.6
695.092	147.45
695.281	202.75
695.47	165.89
695.659	94.21
695.848	169.98
696.037	57.34
696.226	276.48
696.415	143.36
696.604	280.57
696.793	202.75
696.982	167.93
697.171	243.71
697.36	151.55
697.549	258.04
697.738	100.35
697.927	176.13
698.116	149.5
698.305	235.52
698.494	192.51
698.683	165.89
698.872	253.95
699.061	174.08
699.25	149.5
699.438	88.06
699.627	63.49
699.816	290.81
700.005	57.34
700.193	81.92
700.382	245.76
700.571	217.08
700.76	169.98
700.948	311.29
701.137	143.36
701.326	229.37
701.514	114.69
701.703	172.03
701.892	188.41
702.08	372.73
702.269	149.5
702.457	65.54
702.646	153.6
702.834	161.79
703.023	215.04
703.212	202.75
703.4	114.69
703.589	124.93
703.777	165.89
703.965	24.58
704.154	139.26
704.342	96.25
704.531	131.07
704.719	241.66
704.907	241.66
705.096	61.44
705.284	65.54
705.472	210.94
705.661	169.98
705.849	221.18
706.037	270.33
706.226	200.7
706.414	159.74
706.602	100.35
706.79	225.28
706.979	81.92
707.167	145.41
707.355	49.15
707.543	184.32
707.731	157.69
707.919	190.46
708.107	124.93
708.296	88.06
708.484	8.19
708.672	200.7
708.86	192.51
709.048	165.89
709.236	71.68
709.424	198.65
709.612	212.99
709.8	79.87
709.988	180.22
710.176	184.32
710.364	305.15
710.551	118.78
710.739	167.93
710.927	104.45
711.115	178.17
711.303	227.32
711.491	163.84
711.679	108.54
711.866	182.27
712.054	83.97
712.242	229.37
712.43	174.08
712.617	137.21
712.805	247.8
712.993	174.08
713.181	-2.05
713.368	141.31
713.556	133.12
713.744	135.17
713.931	278.52
714.119	208.89
714.306	159.74
714.494	71.68
714.682	190.46
714.869	63.49
715.057	149.5
715.244	151.55
715.432	149.5
715.619	100.35
715.807	143.36
715.994	94.21
716.182	219.13
716.369	233.47
716.556	239.61
716.744	88.06
716.931	90.11
717.119	165.89
717.306	110.59
717.493	233.47
717.681	59.39
717.868	73.73
718.055	260.09
718.242	135.17
718.43	169.98
718.617	313.34
718.804	92.16
718.991	253.95
719.179	229.37
719.366	243.71
719.553	120.83
719.74	159.74
719.927	176.13
720.114	188.41
720.301	75.77
720.488	106.49
720.676	155.65
720.863	323.58
721.05	280.57
721.237	206.84
721.424	225.28
721.611	208.89
721.798	110.59
721.985	126.97
722.172	135.17
722.358	186.37
722.545	153.6
722.732	147.45
722.919	249.85
723.106	186.37
723.293	176.13
723.48	169.98
723.667	174.08
723.853	352.25
724.04	264.19
724.227	260.09
724.414	139.26
724.6	239.61
724.787	331.77
724.974	370.68
725.161	139.26
725.347	182.27
725.534	200.7
725.72	169.98
725.907	323.58
726.094	206.84
726.28	159.74
726.467	161.79
726.653	124.93
726.84	290.81
727.027	249.85
727.213	225.28
727.4	219.13
727.586	167.93
727.773	309.24
727.959	182.27
728.145	270.33
728.332	217.08
728.518	71.68
728.705	229.37
728.891	235.52
729.077	192.51
729.264	126.97
729.45	210.94
729.636	251.9
729.823	204.8
730.009	196.61
730.195	241.66
730.382	260.09
730.568	83.97
730.754	196.61
730.94	215.04
731.126	219.13
731.313	260.09
731.499	163.84
731.685	280.57
731.871	202.75
732.057	274.43
732.243	256
732.429	239.61
732.615	292.86
732.801	256
732.987	223.23
733.173	215.04
733.359	153.6
733.545	313.34
733.731	202.75
733.917	315.39
734.103	262.14
734.289	194.56
734.475	159.74
734.661	358.39
734.847	190.46
735.033	192.51
735.219	249.85
735.404	169.98
735.59	200.7
735.776	208.89
735.962	202.75
736.148	227.32
736.333	288.76
736.519	204.8
736.705	143.36
736.89	184.32
737.076	225.28
737.262	133.12
737.447	147.45
737.633	118.78
737.819	305.15
738.004	237.56
738.19	194.56
738.375	165.89
738.561	208.89
738.747	186.37
738.932	139.26
739.118	370.68
739.303	184.32
739.489	249.85
739.674	139.26
739.859	167.93
740.045	268.28
740.23	145.41
740.416	126.97
740.601	198.65
740.786	200.7
740.972	94.21
741.157	225.28
741.342	137.21
741.528	114.69
741.713	249.85
741.898	241.66
742.084	184.32
742.269	129.02
742.454	319.48
742.639	315.39
742.824	161.79
743.01	370.68
743.195	299
743.38	227.32
743.565	106.49
743.75	190.46
743.935	243.71
744.12	235.52
744.305	129.02
744.49	110.59
744.675	223.23
744.86	100.35
745.045	219.13
745.23	192.51
745.415	194.56
745.6	313.34
745.785	169.98
745.97	264.19
746.155	143.36
746.34	256
746.525	260.09
746.71	274.43
746.895	67.58
747.079	151.55
747.264	92.16
747.449	292.86
747.634	192.51
747.819	198.65
748.003	143.36
748.188	124.93
748.373	167.93
748.557	188.41
748.742	200.7
748.927	202.75
749.111	139.26
749.296	120.83
749.481	169.98
749.665	139.26
749.85	165.89
750.034	251.9
750.219	182.27
750.404	133.12
750.588	206.84
750.773	155.65
750.957	141.31
751.141	102.4
751.326	180.22
751.51	51.2
751.695	169.98
751.879	137.21
752.064	251.9
752.248	143.36
752.432	258.04
752.617	190.46
752.801	249.85
752.985	104.45
753.17	233.47
753.354	198.65
753.538	210.94
753.722	102.4
753.907	129.02
754.091	124.93
754.275	200.7
754.459	59.39
754.643	73.73
754.828	182.27
755.012	129.02
755.196	88.06
755.38	167.93
755.564	196.61
755.748	110.59
755.932	163.84
756.116	223.23
756.3	217.08
756.484	86.01
756.668	202.75
756.852	26.62
757.036	241.66
757.22	88.06
757.404	114.69
757.588	94.21
757.772	110.59
757.956	159.74
758.14	233.47
758.323	83.97
758.507	90.11
758.691	116.73
758.875	141.31
759.059	243.71
759.242	172.03
759.426	157.69
759.61	149.5
759.794	65.54
759.977	215.04
760.161	335.87
760.345	210.94
760.528	219.13
760.712	106.49
760.895	118.78
761.079	81.92
761.263	55.3
761.446	79.87
761.63	155.65
761.813	184.32
761.997	-51.2
762.18	10.24
762.364	137.21
762.547	0
762.731	4.1
762.914	114.69
763.098	116.73
763.281	104.45
763.464	77.82
763.648	126.97
763.831	71.68
764.015	-45.06
764.198	182.27
764.381	96.25
764.564	88.06
764.748	75.77
764.931	100.35
765.114	90.11
765.297	112.64
765.481	-6.14
765.664	36.86
765.847	55.3
766.03	116.73
766.213	4.1
766.397	36.86
766.58	49.15
766.763	83.97
766.946	67.58
767.129	86.01
767.312	43.01
767.495	77.82
767.678	69.63
767.861	83.97
768.044	61.44
768.227	81.92
768.41	34.82
768.593	61.44
768.776	100.35
768.959	90.11
769.142	155.65
769.324	98.3
769.507	69.63
769.69	55.3
769.873	61.44
770.056	284.67
770.239	98.3
770.421	147.45
770.604	178.17
770.787	36.86
770.97	102.4
771.152	20.48
771.335	22.53
771.518	-4.1
771.7	149.5
771.883	118.78
772.066	94.21
772.248	67.58
772.431	135.17
772.613	153.6
772.796	59.39
772.978	110.59
773.161	186.37
773.343	-10.24
773.526	-43.01
773.708	-2.05
773.891	-71.68
774.073	34.82
774.256	57.34
774.438	184.32
774.621	-47.1
774.803	73.73
774.985	-57.34
775.168	59.39
775.35	53.25
775.532	98.3
775.715	-30.72
775.897	73.73
776.079	24.58
776.261	110.59
776.444	75.77
776.626	-12.29
776.808	28.67
776.99	-26.62
777.173	26.62
777.355	20.48
777.537	0
777.719	26.62
777.901	51.2
778.083	34.82
778.265	79.87
778.447	10.24
778.629	-73.73
778.811	94.21
778.993	108.54
779.175	124.93
779.357	75.77
779.539	-83.97
779.721	55.3
779.903	90.11
780.085	-16.38
780.267	75.77
780.449	79.87
780.631	49.15
780.812	86.01
780.994	12.29
781.176	47.1
781.358	-43.01
781.54	67.58
781.721	34.82
781.903	94.21
782.085	-4.1
782.267	129.02
782.448	-55.3
782.63	-47.1
782.812	-18.43
782.993	65.54
783.175	96.25
783.357	36.86
783.538	79.87
783.72	61.44
783.901	45.06
784.083	92.16
784.264	110.59
784.446	-79.87
784.627	-8.19
784.809	81.92
784.99	-63.49
785.172	47.1
785.353	51.2
785.535	73.73
785.716	-6.14
785.897	-24.58
786.079	61.44
786.26	45.06
786.441	18.43
786.623	-63.49
786.804	-12.29
786.985	8.19
787.167	137.21
787.348	-28.67
787.529	-34.82
787.71	73.73
787.891	61.44
788.073	-14.34
788.254	-83.97
788.435	114.69
788.616	120.83
788.797	-47.1
788.978	12.29
789.159	-67.58
789.34	36.86
789.522	14.34
789.703	-30.72
789.884	-2.05
790.065	10.24
790.246	135.17
790.427	-24.58
790.607	98.3
790.788	83.97
790.969	-51.2
791.15	90.11
791.331	36.86
791.512	20.48
791.693	-79.87
791.874	8.19
792.054	133.12
792.235	24.58
792.416	-104.45
792.597	-4.1
792.778	55.3
792.958	-14.34
793.139	131.07
793.32	-43.01
793.5	-86.01
793.681	81.92
793.862	49.15
794.042	59.39
794.223	12.29
794.404	47.1
794.584	-151.55
794.765	34.82
794.945	10.24
795.126	57.34
795.306	73.73
795.487	-18.43
795.667	-20.48
795.848	77.82
796.028	-14.34
796.209	6.14
796.389	65.54
796.57	51.2
796.75	24.58
796.93	32.77
797.111	-26.62
797.291	4.1
797.471	40.96
797.652	-63.49
797.832	-90.11
798.012	139.26
798.192	-90.11
798.373	-51.2
798.553	-14.34
798.733	-12.29
798.913	-49.15
799.093	-102.4
799.274	-24.58
799.454	47.1
799.634	124.93
799.814	153.6
799.994	38.91
800.174	108.54
800.354	26.62
800.534	-108.54
800.714	30.72
800.894	-18.43
801.074	-102.4
801.254	-57.34
801.434	22.53
801.614	24.58
801.794	-73.73
801.974	1681.38
802.154	-75.77
802.334	104.45
802.514	-90.11
802.693	-2.05
802.873	-88.06
803.053	59.39
803.233	49.15
803.413	-28.67
803.592	-43.01
803.772	-94.21
803.952	75.77
804.131	-90.11
804.311	126.97
804.491	69.63
804.67	-55.3
804.85	-36.86
805.03	86.01
805.209	180.22
805.389	34.82
805.568	-22.53
805.748	-51.2
805.928	-28.67
806.107	55.3
806.287	36.86
806.466	47.1
806.646	-92.16
806.825	38.91
807.004	-59.39
807.184	59.39
807.363	12.29
807.543	-4.1
807.722	-94.21
807.901	98.3
808.081	-28.67
808.26	-81.92
808.439	18.43
808.619	-20.48
808.798	-38.91
808.977	79.87
809.156	163.84
809.336	75.77
809.515	49.15
809.694	-77.82
809.873	-10.24
810.052	24.58
810.231	112.64
810.411	-57.34
810.59	45.06
810.769	-22.53
810.948	36.86
811.127	-139.26
811.306	-30.72
811.485	-49.15
811.664	96.25
811.843	22.53
812.022	-49.15
812.201	-16.38
812.38	-34.82
812.559	-98.3
812.737	45.06
812.916	-57.34
813.095	-10.24
813.274	-45.06
813.453	-65.53
813.632	20.48
813.811	-22.53
813.989	-157.69
814.168	43.01
814.347	-88.06
814.526	-49.15
814.704	98.3
814.883	124.93
815.062	-53.25
815.24	112.64
815.419	-49.15
815.598	26.62
815.776	-112.64
815.955	28.67
816.133	-147.45
816.312	47.1
816.49	-98.3
816.669	-83.97
816.847	-43.01
817.026	77.82
817.204	0
817.383	4.1
817.561	0
817.74	-51.2
817.918	75.77
818.097	-12.29
818.275	-30.72
818.453	40.96
818.632	32.77
818.81	-18.43
818.988	-83.97
819.167	-34.82
819.345	40.96
819.523	-53.25
819.701	30.72
819.879	81.92
820.058	12.29
820.236	4.1
820.414	26.62
820.592	-116.73
820.77	59.39
820.948	-100.35
821.127	-36.86
821.305	-79.87
821.483	-51.2
821.661	88.06
821.839	-45.06
822.017	-81.92
822.195	12.29
822.373	96.25
822.551	18.43
822.729	14.34
822.907	-73.73
823.085	18.43
823.262	53.25
823.44	-63.49
823.618	-6.14
823.796	-83.97
823.974	-63.49
824.152	55.3
824.329	-38.91
824.507	10.24
824.685	102.4
824.863	2.05
825.04	-38.91
825.218	81.92
825.396	40.96
825.574	-65.53
825.751	-16.38
825.929	65.54
826.107	-24.58
826.284	10.24
826.462	-10.24
826.639	-100.35
826.817	-92.16
826.994	-8.19
827.172	-96.25
827.349	38.91
827.527	38.91
827.704	32.77
827.882	10.24
828.059	-22.53
828.237	-36.86
828.414	6.14
828.591	-106.49
828.769	-59.39
828.946	-94.21
829.124	2.05
829.301	92.16
829.478	40.96
829.655	-10.24
829.833	24.58
830.01	-57.34
830.187	57.34
830.364	-47.1
830.542	12.29
830.719	69.63
830.896	139.26
831.073	88.06
831.25	61.44
831.427	20.48
831.604	-4.1
831.782	-75.77
831.959	63.49
832.136	-34.82
832.313	47.1
832.49	28.67
832.667	-16.38
832.844	-81.92
833.021	14.34
833.198	34.82
833.374	38.91
833.551	-20.48
833.728	-4.1
833.905	57.34
834.082	-108.54
834.259	38.91
834.436	61.44
834.612	-69.63
834.789	118.78
834.966	2.05
835.143	-32.77
835.319	-77.82
835.496	-14.34
835.673	28.67
835.85	32.77
836.026	22.53
836.203	96.25
836.38	-71.68
836.556	-65.53
836.733	-77.82
836.909	94.21
837.086	-38.91
837.262	-90.11
837.439	4.1
837.616	-120.83
837.792	-79.87
837.968	-40.96
838.145	-135.17
838.321	24.58
838.498	14.34
838.674	59.39
838.851	-38.91
839.027	34.82
839.203	-38.91
839.38	14.34
839.556	-20.48
839.732	63.49
839.909	-30.72
840.085	45.06
840.261	-2.05
840.437	-34.82
840.614	-51.2
840.79	106.49
840.966	14.34
841.142	55.3
841.318	-104.45
841.494	40.96
841.671	40.96
841.847	-94.21
842.023	-129.02
842.199	65.54
842.375	92.16
842.551	-165.89
842.727	-28.67
842.903	30.72
843.079	-47.1
843.255	51.2
843.431	-26.62
843.607	57.34
843.783	-102.4
843.959	-73.73
844.134	-90.11
844.31	51.2
844.486	-47.1
844.662	-75.77
844.838	-14.34
845.013	28.67
845.189	108.54
845.365	-57.34
845.541	-2.05
845.716	-22.53
845.892	43.01
846.068	2.05
846.244	-100.35
846.419	-2.05
846.595	-32.77
846.77	-65.53
846.946	106.49
847.122	-81.92
847.297	-75.77
847.473	67.58
847.648	-149.5
847.824	26.62
847.999	-153.6
848.175	-79.87
848.35	40.96
848.526	49.15
848.701	92.16
848.876	79.87
849.052	73.73
849.227	-129.02
849.403	-67.58
849.578	-32.77
849.753	67.58
849.929	18.43
850.104	-118.78
850.279	-40.96
850.454	-28.67
850.63	6.14
850.805	-51.2
850.98	24.58
851.155	-14.34
851.33	20.48
851.505	-100.35
851.681	112.64
851.856	-135.17
852.031	-4.1
852.206	-26.62
852.381	-45.06
852.556	-67.58
852.731	-10.24
852.906	-34.82
853.081	55.3
853.256	124.93
853.431	-141.31
853.606	-24.58
853.781	-24.58
853.956	-104.45
854.131	-38.91
854.305	-51.2
854.48	-59.39
854.655	-38.91
854.83	-75.77
855.005	-100.35
855.18	53.25
855.354	-22.53
855.529	4.1
855.704	0
855.879	18.43
856.053	-63.49
856.228	22.53
856.403	-73.73
856.577	28.67
856.752	-157.69
856.926	-26.62
857.101	-36.86
857.276	-102.4
857.45	-43.01
857.625	45.06
857.799	43.01
857.974	-65.53
858.148	-137.21
858.323	69.63
858.497	-92.16
858.672	-71.68
858.846	-26.62
859.02	-34.82
859.195	-71.68
859.369	-69.63
859.543	-10.24
859.718	-106.49
859.892	-38.91
860.066	-110.59
860.241	-22.53
860.415	-47.1
860.589	-43.01
860.763	79.87
860.938	-34.82
861.112	-6.14
861.286	28.67
861.46	-28.67
861.634	2.05
861.808	47.1
861.982	-77.82
862.157	-40.96
862.331	-16.38
862.505	-94.21
862.679	-155.65
862.853	-94.21
863.027	-55.3
863.201	102.4
863.375	-24.58
863.549	8.19
863.722	30.72
863.896	69.63
864.07	-2.05
864.244	-30.72
864.418	-4.1
864.592	10.24
864.766	-18.43
864.939	45.06
865.113	16.38
865.287	112.64
865.461	-2.05
865.634	45.06
865.808	36.86
865.982	14.34
866.156	-49.15
866.329	-51.2
866.503	-90.11
866.676	-2.05
866.85	-20.48
867.024	-94.21
867.197	12.29
867.371	36.86
867.544	-36.86
867.718	-61.44
867.891	104.45
868.065	-77.82
868.238	28.67
868.412	96.25
868.585	4.1
868.759	-149.5
868.932	-67.58
869.105	-59.39
869.279	-45.06
869.452	-79.87
869.625	-18.43
869.799	-77.82
869.972	-86.01
870.145	-77.82
870.319	90.11
870.492	-22.53
870.665	-38.91
870.838	-51.2
871.011	-86.01
871.185	16.38
871.358	-55.3
871.531	-49.15
871.704	-102.4
871.877	-28.67
872.05	-86.01
872.223	-96.25
872.396	18.43
872.569	4.1
872.742	-96.25
872.915	20.48
873.088	-43.01
873.261	-141.31
873.434	-6.14
873.607	-69.63
873.78	45.06
873.953	-96.25
874.126	-28.67
874.299	61.44
874.471	-51.2
874.644	22.53
874.817	34.82
874.99	129.02
875.163	-83.97
875.335	-14.34
875.508	-24.58
875.681	-16.38
875.853	-20.48
876.026	-69.63
876.199	10.24
876.371	49.15
876.544	-71.68
876.717	-24.58
876.889	-96.25
877.062	79.87
877.234	-83.97
877.407	-53.25
877.579	36.86
877.752	-43.01
877.924	12.29
878.097	63.49
878.269	18.43
878.442	32.77
878.614	30.72
878.786	16.38
878.959	55.3
879.131	14.34
879.303	-90.11
879.476	40.96
879.648	40.96
879.82	-18.43
879.993	-61.44
880.165	-67.58
880.337	-40.96
880.509	-4.1
880.681	-79.87
880.854	-22.53
881.026	45.06
881.198	137.21
881.37	-69.63
881.542	16.38
881.714	-30.72
881.886	-47.1
882.058	10.24
882.23	-4.1
882.402	-45.06
882.574	-18.43
882.746	49.15
882.918	47.1
883.09	53.25
883.262	-26.62
883.434	-2.05
883.606	-106.49
883.778	-34.82
883.95	159.74
884.122	-79.87
884.293	100.35
884.465	-88.06
884.637	38.91
884.809	-75.77
884.98	0
885.152	20.48
885.324	12.29
885.496	-8.19
885.667	-69.63
885.839	-108.54
886.011	69.63
886.182	30.72
886.354	65.54
886.525	20.48
886.697	55.3
886.869	-96.25
887.04	-8.19
887.212	55.3
887.383	110.59
887.555	45.06
887.726	-180.22
887.897	-22.53
888.069	-69.63
888.24	71.68
888.412	22.53
888.583	-4.1
888.754	38.91
888.926	-90.11
889.097	-63.49
889.268	-116.73
889.44	-22.53
889.611	-161.79
889.782	-90.11
889.953	-98.3
890.125	104.45
890.296	-71.68
890.467	-6.14
890.638	-18.43
890.809	-51.2
890.98	-75.77
891.151	47.1
891.323	22.53
891.494	-61.44
891.665	73.73
891.836	-18.43
892.007	-40.96
892.178	-6.14
892.349	2.05
892.52	-34.82
892.691	47.1
892.862	-18.43
893.032	-110.59
893.203	-2.05
893.374	0
893.545	133.12
893.716	-122.88
893.887	102.4
894.057	-14.34
894.228	38.91
894.399	-126.97
894.57	96.25
894.74	-28.67
894.911	-43.01
895.082	-30.72
895.253	-77.82
895.423	-43.01
895.594	73.73
895.764	-14.34
895.935	-88.06
896.106	-26.62
896.276	-81.92
896.447	-75.77
896.617	-114.69
896.788	-69.63
896.958	-53.25
897.129	34.82
897.299	-38.91
897.47	30.72
897.64	26.62
897.81	-73.73
897.981	28.67
898.151	-40.96
898.322	49.15
898.492	-28.67
898.662	-45.06
898.832	8.19
899.003	-51.2
899.173	55.3
899.343	-102.4
899.513	-65.53
