Data from USB4F104151__220__11-06-03-327.txt Node

Date: Wed Feb 26 11:06:03 EST 2025
User: louis
Spectrometer: USB4F10415
Trigger mode: 4
Integration Time (sec): 1.000000E-1
Scans to average: 1
Electric dark correction enabled: true
Nonlinearity correction enabled: false
Boxcar width: 0
XAxis mode: Wavelengths
Number of Pixels in Spectrum: 3648
>>>>>Begin Spectral Data<<<<<
178.204	-375.63
178.424	-375.63
178.644	-375.63
178.864	-400.21
179.084	-334.67
179.304	11.43
179.524	-17.24
179.744	-13.14
179.964	11.43
180.184	44.2
180.404	21.67
180.624	-35.67
180.844	23.72
181.064	-58.2
181.283	36.01
181.503	-41.81
181.723	17.58
181.943	-107.35
182.163	210.09
182.383	-23.38
182.602	87.21
182.822	81.07
183.042	31.91
183.262	-2.9
183.482	15.53
183.701	-45.91
183.921	25.77
184.141	27.82
184.361	60.59
184.58	109.74
184.8	9.39
185.02	-52.05
185.239	179.37
185.459	117.93
185.679	107.69
185.898	-93.01
186.118	70.83
186.338	160.94
186.557	85.16
186.777	13.48
186.997	-25.43
187.216	23.72
187.436	156.84
187.655	58.54
187.875	97.45
188.095	29.87
188.314	113.83
188.534	218.28
188.753	-0.85
188.973	60.59
189.192	232.62
189.412	1.19
189.631	60.59
189.851	95.4
190.07	165.03
190.29	-41.81
190.509	76.97
190.729	54.44
190.948	72.87
191.168	234.66
191.387	126.12
191.607	-62.29
191.826	156.84
192.045	27.82
192.265	21.67
192.484	132.26
192.704	-13.14
192.923	-88.92
193.142	162.98
193.362	126.12
193.581	203.94
193.8	52.39
194.02	132.26
194.239	38.06
194.458	169.13
194.678	23.72
194.897	109.74
195.116	62.63
195.335	11.43
195.555	48.3
195.774	-52.05
195.993	111.78
196.212	38.06
196.432	44.2
196.651	7.34
196.87	25.77
197.089	232.62
197.308	126.12
197.528	185.51
197.747	25.77
197.966	103.59
198.185	187.56
198.404	27.82
198.623	124.07
198.842	160.94
199.062	115.88
199.281	132.26
199.5	87.21
199.719	27.82
199.938	105.64
200.157	25.77
200.376	62.63
200.595	183.46
200.814	62.63
201.033	23.72
201.252	132.26
201.471	85.16
201.69	38.06
201.909	52.39
202.128	109.74
202.347	70.83
202.566	9.39
202.785	-80.72
203.004	-11.09
203.223	279.72
203.442	15.53
203.661	-33.62
203.879	93.35
204.098	97.45
204.317	-82.77
204.536	130.22
204.755	48.3
204.974	97.45
205.193	-15.19
205.411	232.62
205.63	171.18
205.849	87.21
206.068	17.58
206.287	-9.05
206.505	68.78
206.724	40.11
206.943	-86.87
207.162	-21.33
207.381	91.31
207.599	105.64
207.818	70.83
208.037	5.29
208.255	101.55
208.474	81.07
208.693	93.35
208.911	-29.52
209.13	167.08
209.349	72.87
209.567	27.82
209.786	60.59
210.005	76.97
210.223	66.73
210.442	-99.16
210.661	58.54
210.879	111.78
211.098	44.2
211.316	111.78
211.535	111.78
211.753	25.77
211.972	130.22
212.191	21.67
212.409	64.68
212.628	68.78
212.846	7.34
213.065	107.69
213.283	40.11
213.502	21.67
213.72	25.77
213.938	76.97
214.157	-37.72
214.375	101.55
214.594	103.59
214.812	81.07
215.031	46.25
215.249	-27.48
215.467	64.68
215.686	91.31
215.904	138.41
216.122	158.89
216.341	152.74
216.559	115.88
216.778	87.21
216.996	56.49
217.214	-0.85
217.432	85.16
217.651	-45.91
217.869	31.91
218.087	83.11
218.306	-29.52
218.524	60.59
218.742	50.35
218.96	122.02
219.179	25.77
219.397	79.02
219.615	357.54
219.833	128.17
220.051	-41.81
220.27	111.78
220.488	154.79
220.706	122.02
220.924	-33.62
221.142	7.34
221.36	44.2
221.578	3.24
221.796	85.16
222.015	44.2
222.233	36.01
222.451	222.38
222.669	-62.29
222.887	101.55
223.105	48.3
223.323	44.2
223.541	3.24
223.759	38.06
223.977	124.07
224.195	119.98
224.413	44.2
224.631	111.78
224.849	165.03
225.067	249
225.285	13.48
225.503	60.59
225.721	-19.29
225.939	101.55
226.157	-4.95
226.375	259.24
226.592	-9.05
226.81	-0.85
227.028	93.35
227.246	124.07
227.464	97.45
227.682	130.22
227.9	154.79
228.117	68.78
228.335	44.2
228.553	76.97
228.771	99.5
228.989	93.35
229.206	83.11
229.424	50.35
229.642	-2.9
229.86	9.39
230.077	189.61
230.295	105.64
230.513	101.55
230.731	64.68
230.948	249
231.166	183.46
231.384	-52.05
231.601	15.53
231.819	185.51
232.037	58.54
232.254	60.59
232.472	64.68
232.689	-9.05
232.907	158.89
233.125	-7
233.342	-39.76
233.56	40.11
233.777	17.58
233.995	25.77
234.213	156.84
234.43	134.31
234.648	79.02
234.865	-4.95
235.083	42.15
235.3	44.2
235.518	105.64
235.735	134.31
235.953	52.39
236.17	97.45
236.388	66.73
236.605	-15.19
236.822	99.5
237.04	124.07
237.257	79.02
237.475	-35.67
237.692	25.77
237.909	95.4
238.127	29.87
238.344	85.16
238.562	36.01
238.779	-64.34
238.996	-43.86
239.214	68.78
239.431	138.41
239.648	56.49
239.865	97.45
240.083	101.55
240.3	-37.72
240.517	-35.67
240.735	-7
240.952	126.12
241.169	99.5
241.386	122.02
241.603	19.63
241.821	38.06
242.038	50.35
242.255	136.36
242.472	-13.14
242.689	81.07
242.907	101.55
243.124	113.83
243.341	23.72
243.558	3.24
243.775	-54.1
243.992	-23.38
244.209	119.98
244.426	107.69
244.643	130.22
244.86	40.11
245.078	146.6
245.295	44.2
245.512	52.39
245.729	-2.9
245.946	111.78
246.163	40.11
246.38	13.48
246.597	64.68
246.814	60.59
247.031	40.11
247.248	-15.19
247.464	101.55
247.681	25.77
247.898	46.25
248.115	58.54
248.332	11.43
248.549	130.22
248.766	142.5
248.983	81.07
249.2	85.16
249.417	130.22
249.633	79.02
249.85	142.5
250.067	31.91
250.284	17.58
250.501	56.49
250.717	101.55
250.934	-66.39
251.151	27.82
251.368	103.59
251.585	-15.19
251.801	36.01
252.018	-25.43
252.235	119.98
252.451	-70.48
252.668	-33.62
252.885	95.4
253.102	52.39
253.318	5.29
253.535	3.24
253.752	-37.72
253.968	-19.29
254.185	-70.48
254.401	-7
254.618	62.63
254.835	126.12
255.051	132.26
255.268	160.94
255.484	62.63
255.701	3.24
255.917	148.65
256.134	-33.62
256.351	117.93
256.567	-31.57
256.784	3.24
257	-45.91
257.217	167.08
257.433	105.64
257.65	93.35
257.866	140.46
258.082	-21.33
258.299	29.87
258.515	38.06
258.732	48.3
258.948	36.01
259.165	113.83
259.381	-9.05
259.597	81.07
259.814	79.02
260.03	91.31
260.246	97.45
260.463	122.02
260.679	130.22
260.895	105.64
261.112	113.83
261.328	122.02
261.544	-7
261.761	185.51
261.977	33.96
262.193	-2.9
262.409	115.88
262.626	72.87
262.842	-37.72
263.058	103.59
263.274	130.22
263.49	87.21
263.707	42.15
263.923	72.87
264.139	-21.33
264.355	25.77
264.571	99.5
264.787	56.49
265.004	214.18
265.22	44.2
265.436	-27.48
265.652	31.91
265.868	191.66
266.084	-37.72
266.3	93.35
266.516	27.82
266.732	72.87
266.948	48.3
267.164	-17.24
267.38	91.31
267.596	107.69
267.812	160.94
268.028	40.11
268.244	83.11
268.46	74.92
268.676	1.19
268.892	95.4
269.108	-60.24
269.324	-4.95
269.54	-47.96
269.756	107.69
269.972	29.87
270.188	1.19
270.403	-70.48
270.619	-54.1
270.835	83.11
271.051	68.78
271.267	1.19
271.483	27.82
271.698	89.26
271.914	54.44
272.13	119.98
272.346	7.34
272.562	89.26
272.777	126.12
272.993	64.68
273.209	50.35
273.425	70.83
273.64	-54.1
273.856	70.83
274.072	-0.85
274.287	3.24
274.503	111.78
274.719	85.16
274.934	19.63
275.15	-2.9
275.366	74.92
275.581	-107.35
275.797	44.2
276.012	23.72
276.228	15.53
276.444	64.68
276.659	187.56
276.875	-7
277.09	17.58
277.306	15.53
277.521	36.01
277.737	15.53
277.952	42.15
278.168	29.87
278.383	87.21
278.599	56.49
278.814	95.4
279.03	42.15
279.245	70.83
279.461	25.77
279.676	101.55
279.892	-66.39
280.107	7.34
280.322	-21.33
280.538	74.92
280.753	60.59
280.969	97.45
281.184	-33.62
281.399	165.03
281.615	3.24
281.83	68.78
282.045	-45.91
282.26	11.43
282.476	11.43
282.691	162.98
282.906	15.53
283.122	101.55
283.337	25.77
283.552	111.78
283.767	-39.76
283.983	134.31
284.198	13.48
284.413	122.02
284.628	-68.44
284.843	36.01
285.058	64.68
285.274	64.68
285.489	-27.48
285.704	119.98
285.919	31.91
286.134	-11.09
286.349	68.78
286.564	42.15
286.779	111.78
286.995	17.58
287.21	-13.14
287.425	132.26
287.64	-9.05
287.855	13.48
288.07	-29.52
288.285	154.79
288.5	117.93
288.715	-2.9
288.93	-27.48
289.145	-64.34
289.36	111.78
289.575	38.06
289.79	140.46
290.004	-2.9
290.219	74.92
290.434	42.15
290.649	-43.86
290.864	17.58
291.079	-9.05
291.294	60.59
291.509	126.12
291.724	7.34
291.938	-7
292.153	31.91
292.368	-0.85
292.583	70.83
292.798	87.21
293.012	128.17
293.227	56.49
293.442	-13.14
293.657	165.03
293.871	132.26
294.086	56.49
294.301	152.74
294.516	152.74
294.73	140.46
294.945	-76.63
295.16	1.19
295.374	126.12
295.589	165.03
295.804	7.34
296.018	29.87
296.233	144.55
296.447	-2.9
296.662	-56.15
296.877	101.55
297.091	19.63
297.306	27.82
297.52	91.31
297.735	152.74
297.949	38.06
298.164	105.64
298.378	113.83
298.593	-9.05
298.807	-19.29
299.022	132.26
299.236	154.79
299.451	33.96
299.665	89.26
299.88	13.48
300.094	64.68
300.309	68.78
300.523	95.4
300.737	5.29
300.952	83.11
301.166	72.87
301.381	-50
301.595	-39.76
301.809	91.31
302.024	-4.95
302.238	-21.33
302.452	195.75
302.667	66.73
302.881	109.74
303.095	60.59
303.309	33.96
303.524	3.24
303.738	5.29
303.952	-37.72
304.166	109.74
304.381	-50
304.595	197.8
304.809	85.16
305.023	52.39
305.237	-4.95
305.452	60.59
305.666	89.26
305.88	21.67
306.094	79.02
306.308	74.92
306.522	95.4
306.736	87.21
306.95	85.16
307.164	25.77
307.379	38.06
307.593	156.84
307.807	89.26
308.021	64.68
308.235	17.58
308.449	-52.05
308.663	87.21
308.877	173.22
309.091	89.26
309.305	66.73
309.519	-64.34
309.733	103.59
309.947	-43.86
310.161	64.68
310.374	144.55
310.588	136.36
310.802	-39.76
311.016	25.77
311.23	93.35
311.444	-31.57
311.658	9.39
311.872	142.5
312.085	117.93
312.299	152.74
312.513	124.07
312.727	93.35
312.941	21.67
313.154	119.98
313.368	64.68
313.582	124.07
313.796	117.93
314.009	58.54
314.223	144.55
314.437	81.07
314.651	79.02
314.864	-37.72
315.078	38.06
315.292	-58.2
315.505	64.68
315.719	119.98
315.933	9.39
316.146	19.63
316.36	-60.24
316.573	214.18
316.787	81.07
317.001	81.07
317.214	-58.2
317.428	58.54
317.641	-15.19
317.855	31.91
318.068	25.77
318.282	-0.85
318.495	220.33
318.709	87.21
318.922	36.01
319.136	128.17
319.349	72.87
319.563	64.68
319.776	122.02
319.99	-76.63
320.203	76.97
320.417	-7
320.63	44.2
320.843	175.27
321.057	93.35
321.27	54.44
321.483	54.44
321.697	132.26
321.91	36.01
322.124	52.39
322.337	58.54
322.55	-25.43
322.763	93.35
322.977	91.31
323.19	-0.85
323.403	87.21
323.617	56.49
323.83	132.26
324.043	27.82
324.256	36.01
324.469	15.53
324.683	154.79
324.896	5.29
325.109	5.29
325.322	50.35
325.535	140.46
325.748	119.98
325.962	31.91
326.175	64.68
326.388	167.08
326.601	179.37
326.814	113.83
327.027	97.45
327.24	150.7
327.453	-101.2
327.666	126.12
327.879	142.5
328.092	31.91
328.305	97.45
328.518	9.39
328.731	36.01
328.944	-21.33
329.157	72.87
329.37	31.91
329.583	167.08
329.796	122.02
330.009	-41.81
330.222	93.35
330.435	56.49
330.648	17.58
330.861	132.26
331.073	64.68
331.286	136.36
331.499	60.59
331.712	-56.15
331.925	21.67
332.138	95.4
332.35	179.37
332.563	-9.05
332.776	191.66
332.989	-45.91
333.202	68.78
333.414	91.31
333.627	76.97
333.84	-7
334.053	5.29
334.265	5.29
334.478	-74.58
334.691	11.43
334.903	-2.9
335.116	-0.85
335.329	23.72
335.541	144.55
335.754	124.07
335.966	21.67
336.179	19.63
336.392	-58.2
336.604	66.73
336.817	124.07
337.029	33.96
337.242	25.77
337.454	144.55
337.667	3.24
337.88	216.23
338.092	76.97
338.305	62.63
338.517	1.19
338.729	11.43
338.942	160.94
339.154	-27.48
339.367	5.29
339.579	54.44
339.792	66.73
340.004	74.92
340.217	36.01
340.429	9.39
340.641	-37.72
340.854	25.77
341.066	19.63
341.278	113.83
341.491	226.47
341.703	109.74
341.915	31.91
342.128	52.39
342.34	72.87
342.552	3.24
342.764	103.59
342.977	70.83
343.189	27.82
343.401	132.26
343.613	-43.86
343.826	72.87
344.038	58.54
344.25	38.06
344.462	48.3
344.674	130.22
344.886	93.35
345.099	91.31
345.311	44.2
345.523	-95.06
345.735	-78.68
345.947	-11.09
346.159	91.31
346.371	154.79
346.583	58.54
346.795	191.66
347.007	31.91
347.219	146.6
347.431	42.15
347.643	83.11
347.855	5.29
348.067	154.79
348.279	21.67
348.491	74.92
348.703	152.74
348.915	85.16
349.127	31.91
349.339	5.29
349.551	40.11
349.763	107.69
349.975	107.69
350.187	23.72
350.399	68.78
350.61	152.74
350.822	-11.09
351.034	54.44
351.246	70.83
351.458	111.78
351.669	68.78
351.881	124.07
352.093	72.87
352.305	138.41
352.517	52.39
352.728	169.13
352.94	136.36
353.152	124.07
353.363	-35.67
353.575	36.01
353.787	146.6
353.999	33.96
354.21	103.59
354.422	-60.24
354.633	54.44
354.845	9.39
355.057	72.87
355.268	-41.81
355.48	70.83
355.692	-23.38
355.903	-27.48
356.115	3.24
356.326	-33.62
356.538	107.69
356.749	79.02
356.961	126.12
357.172	31.91
357.384	-15.19
357.595	228.52
357.807	58.54
358.018	25.77
358.23	-17.24
358.441	169.13
358.653	54.44
358.864	42.15
359.075	99.5
359.287	36.01
359.498	109.74
359.709	44.2
359.921	119.98
360.132	74.92
360.344	27.82
360.555	70.83
360.766	54.44
360.977	60.59
361.189	142.5
361.4	101.55
361.611	81.07
361.823	107.69
362.034	33.96
362.245	40.11
362.456	13.48
362.667	124.07
362.879	-7
363.09	-25.43
363.301	70.83
363.512	79.02
363.723	-23.38
363.935	44.2
364.146	130.22
364.357	29.87
364.568	48.3
364.779	-11.09
364.99	158.89
365.201	-2.9
365.412	99.5
365.623	-50
365.834	83.11
366.045	29.87
366.256	97.45
366.467	89.26
366.678	62.63
366.889	48.3
367.1	58.54
367.311	54.44
367.522	9.39
367.733	68.78
367.944	66.73
368.155	-13.14
368.366	124.07
368.577	52.39
368.788	173.22
368.999	15.53
369.209	15.53
369.42	185.51
369.631	142.5
369.842	113.83
370.053	-21.33
370.264	128.17
370.474	27.82
370.685	64.68
370.896	140.46
371.107	142.5
371.317	68.78
371.528	89.26
371.739	179.37
371.95	115.88
372.16	185.51
372.371	-15.19
372.582	52.39
372.792	97.45
373.003	76.97
373.214	115.88
373.424	142.5
373.635	-56.15
373.846	60.59
374.056	54.44
374.267	150.7
374.477	36.01
374.688	-37.72
374.898	103.59
375.109	56.49
375.319	101.55
375.53	165.03
375.74	165.03
375.951	15.53
376.161	13.48
376.372	74.92
376.582	-39.76
376.793	138.41
377.003	81.07
377.214	27.82
377.424	142.5
377.635	27.82
377.845	-52.05
378.055	177.32
378.266	-41.81
378.476	-15.19
378.686	130.22
378.897	109.74
379.107	187.56
379.317	132.26
379.528	3.24
379.738	48.3
379.948	-21.33
380.158	126.12
380.369	1.19
380.579	158.89
380.789	42.15
380.999	46.25
381.21	132.26
381.42	238.76
381.63	-19.29
381.84	97.45
382.05	105.64
382.261	85.16
382.471	109.74
382.681	119.98
382.891	148.65
383.101	97.45
383.311	15.53
383.521	-29.52
383.731	68.78
383.941	115.88
384.151	156.84
384.361	68.78
384.571	29.87
384.781	27.82
384.991	115.88
385.201	208.04
385.411	124.07
385.621	103.59
385.831	-2.9
386.041	136.36
386.251	64.68
386.461	95.4
386.671	-7
386.881	169.13
387.091	15.53
387.301	87.21
387.511	62.63
387.72	205.99
387.93	89.26
388.14	-62.29
388.35	105.64
388.56	136.36
388.769	130.22
388.979	48.3
389.189	-11.09
389.399	54.44
389.609	171.18
389.818	136.36
390.028	44.2
390.238	74.92
390.447	-50
390.657	119.98
390.867	56.49
391.076	-138.07
391.286	40.11
391.496	111.78
391.705	126.12
391.915	160.94
392.125	117.93
392.334	76.97
392.544	169.13
392.753	115.88
392.963	3.24
393.172	54.44
393.382	103.59
393.591	214.18
393.801	-45.91
394.01	154.79
394.22	66.73
394.429	33.96
394.639	72.87
394.848	117.93
395.058	-9.05
395.267	7.34
395.477	91.31
395.686	103.59
395.895	244.9
396.105	249
396.314	60.59
396.524	117.93
396.733	-9.05
396.942	134.31
397.152	42.15
397.361	68.78
397.57	58.54
397.78	68.78
397.989	138.41
398.198	208.04
398.407	87.21
398.617	13.48
398.826	97.45
399.035	21.67
399.244	144.55
399.453	85.16
399.663	126.12
399.872	81.07
400.081	7.34
400.29	138.41
400.499	-31.57
400.708	44.2
400.917	122.02
401.127	9.39
401.336	36.01
401.545	214.18
401.754	150.7
401.963	169.13
402.172	56.49
402.381	-7
402.59	87.21
402.799	-9.05
403.008	136.36
403.217	58.54
403.426	85.16
403.635	-15.19
403.844	79.02
404.053	-19.29
404.262	13.48
404.471	179.37
404.68	66.73
404.888	27.82
405.097	54.44
405.306	99.5
405.515	40.11
405.724	27.82
405.933	146.6
406.142	91.31
406.35	27.82
406.559	91.31
406.768	83.11
406.977	185.51
407.185	91.31
407.394	85.16
407.603	-15.19
407.812	44.2
408.02	126.12
408.229	50.35
408.438	38.06
408.646	-13.14
408.855	40.11
409.064	11.43
409.272	142.5
409.481	99.5
409.69	5.29
409.898	48.3
410.107	85.16
410.315	142.5
410.524	-11.09
410.733	-9.05
410.941	52.39
411.15	183.46
411.358	152.74
411.567	208.04
411.775	76.97
411.984	124.07
412.192	105.64
412.401	23.72
412.609	124.07
412.818	99.5
413.026	105.64
413.234	40.11
413.443	54.44
413.651	17.58
413.86	44.2
414.068	103.59
414.276	183.46
414.485	3.24
414.693	117.93
414.901	134.31
415.11	162.98
415.318	119.98
415.526	132.26
415.734	158.89
415.943	60.59
416.151	173.22
416.359	25.77
416.567	38.06
416.776	197.8
416.984	101.55
417.192	185.51
417.4	85.16
417.608	-47.96
417.817	-56.15
418.025	130.22
418.233	185.51
418.441	-7
418.649	-2.9
418.857	122.02
419.065	175.27
419.273	42.15
419.481	85.16
419.689	31.91
419.897	13.48
420.105	25.77
420.313	154.79
420.521	140.46
420.729	142.5
420.937	58.54
421.145	15.53
421.353	81.07
421.561	93.35
421.769	148.65
421.977	50.35
422.185	115.88
422.393	70.83
422.601	89.26
422.809	66.73
423.017	119.98
423.224	97.45
423.432	148.65
423.64	17.58
423.848	156.84
424.056	-13.14
424.263	154.79
424.471	68.78
424.679	136.36
424.887	15.53
425.094	230.57
425.302	122.02
425.51	36.01
425.718	142.5
425.925	60.59
426.133	89.26
426.341	285.86
426.548	60.59
426.756	46.25
426.964	122.02
427.171	40.11
427.379	132.26
427.586	79.02
427.794	126.12
428.001	224.42
428.209	134.31
428.417	175.27
428.624	124.07
428.832	79.02
429.039	107.69
429.247	79.02
429.454	195.75
429.662	162.98
429.869	140.46
430.076	193.7
430.284	126.12
430.491	97.45
430.699	79.02
430.906	181.42
431.114	148.65
431.321	146.6
431.528	140.46
431.736	152.74
431.943	134.31
432.15	169.13
432.358	195.75
432.565	277.67
432.772	27.82
432.979	281.77
433.187	113.83
433.394	220.33
433.601	111.78
433.808	255.14
434.016	281.77
434.223	179.37
434.43	140.46
434.637	271.53
434.844	283.81
435.052	361.64
435.259	296.1
435.466	220.33
435.673	265.38
435.88	324.77
436.087	369.83
436.294	353.45
436.501	320.68
436.708	222.38
436.915	318.63
437.122	328.87
437.329	300.2
437.537	345.25
437.743	349.35
437.95	480.42
438.157	361.64
438.364	345.25
438.571	373.92
438.778	507.04
438.985	484.52
439.192	449.7
439.399	461.99
439.606	519.33
439.813	502.95
440.02	685.22
440.227	634.02
440.433	539.81
440.64	597.15
440.847	529.57
441.054	672.93
441.261	670.88
441.467	582.82
441.674	642.21
441.881	763.04
442.088	670.88
442.294	699.55
442.501	808.09
442.708	793.76
442.914	842.91
443.121	857.25
443.328	926.88
443.534	898.2
443.741	857.25
443.948	818.33
444.154	984.22
444.361	1068.19
444.568	1041.56
444.774	922.78
444.981	978.08
445.187	1268.89
445.394	1225.88
445.6	1117.34
445.807	1336.47
446.013	1350.81
446.22	1221.78
446.426	1397.91
446.633	1516.69
446.839	1709.2
447.046	1404.05
447.252	1651.86
447.459	1701.01
447.665	1666.19
447.871	1920.14
448.078	2006.16
448.284	1954.96
448.491	2100.36
448.697	2028.68
448.903	2034.83
449.11	2256.01
449.316	2204.81
449.522	2311.3
449.728	2366.6
449.935	2454.66
450.141	2475.14
450.347	2733.18
450.553	2602.11
450.76	2866.3
450.966	2946.17
451.172	2997.37
451.378	3144.83
451.584	3169.4
451.791	3447.93
451.997	3499.13
452.203	3476.6
452.409	3724.4
452.615	3925.1
452.821	3755.12
453.027	3693.68
453.233	4355.18
453.44	4224.11
453.646	4473.96
453.852	4576.36
454.058	4881.5
454.264	4973.66
454.47	5258.33
454.676	5293.15
454.882	5680.21
455.088	5643.35
455.294	5741.65
455.5	6304.84
455.705	6696
455.911	6515.78
456.117	6683.72
456.323	7031.87
456.529	7003.2
456.735	7646.26
456.941	7859.25
457.147	8242.22
457.352	8123.44
457.558	8625.19
457.764	8993.83
457.97	9489.43
458.176	9638.94
458.381	10318.86
458.587	10636.3
458.793	10980.36
458.999	11301.89
459.204	12264.43
459.41	12739.56
459.616	12557.29
459.821	13220.83
460.027	13874.13
460.233	14640.08
460.438	14681.03
460.644	15211.46
460.85	15455.17
461.055	16153.52
461.261	16675.76
461.466	16882.6
461.672	16843.69
461.878	18844.56
462.083	18426.77
462.289	19139.46
462.494	20013.95
462.7	20190.07
462.905	20126.58
463.111	21947.23
463.316	23018.32
463.522	23286.6
463.727	24136.51
463.932	25150.25
464.138	25821.98
464.343	27036.43
464.549	27120.4
464.754	29010.67
464.959	29776.61
465.165	30130.91
465.37	30257.88
465.575	30079.71
465.781	31781.57
465.986	33321.65
466.191	32350.91
466.397	32965.3
466.602	32012.99
466.807	34097.83
467.012	34411.17
467.218	34941.59
467.423	35299.98
467.628	36635.26
467.833	38228.58
468.038	37327.47
468.244	36610.68
468.449	38789.72
468.654	37767.79
468.859	37894.76
469.064	38335.07
469.269	36768.38
469.474	37327.47
469.679	38584.93
469.885	36889.21
470.09	37993.06
470.295	37851.75
470.5	37112.44
470.705	37304.95
470.91	36231.81
471.115	36139.65
471.32	36819.58
471.525	36352.64
471.73	35148.43
471.935	35168.91
472.139	33602.22
472.344	34153.12
472.549	33356.46
472.754	33153.71
472.959	31824.58
473.164	31371.98
473.369	30800.6
473.574	31937.22
473.778	30982.87
473.983	30319.32
474.188	29856.48
474.393	28617.46
474.598	28265.21
474.802	27517.7
475.007	27400.97
475.212	27345.67
475.417	25994.01
475.621	25842.46
475.826	25705.25
476.031	24621.87
476.235	24369.97
476.44	24496.95
476.645	23999.29
476.849	23450.44
477.054	23188.3
477.259	22666.06
477.463	22604.63
477.668	21885.79
477.872	21863.26
478.077	21136.23
478.282	20745.07
478.486	20751.21
478.691	20495.22
478.895	20423.54
479.1	20202.36
479.304	19964.79
479.509	19307.4
479.713	19526.53
479.918	19012.49
480.122	18627.47
480.326	19110.79
480.531	18809.74
480.735	18369.43
480.94	18264.98
481.144	18750.35
481.348	17818.52
481.553	18066.33
481.757	17476.51
481.961	17730.46
482.166	17726.36
482.37	17376.16
482.574	17007.53
482.778	17034.15
482.983	17269.67
483.187	16894.89
483.391	16716.72
483.595	16489.39
483.8	16214.96
484.004	16411.57
484.208	16366.51
484.412	16165.81
484.616	15795.13
484.821	15852.47
485.025	15385.54
485.229	15406.02
485.433	14988.23
485.637	14836.68
485.841	14431.18
486.045	14435.28
486.249	14678.99
486.453	14064.6
486.657	13956.05
486.861	13820.89
487.065	13329.38
487.269	13339.62
487.473	12876.77
487.677	13042.66
487.881	13081.57
488.085	12643.31
488.289	12448.75
488.493	12108.79
488.697	12313.58
488.901	11891.7
489.105	11533.31
489.309	11248.64
489.512	11035.65
489.716	11289.6
489.92	10744.84
490.124	10562.57
490.328	10763.27
490.531	10189.84
490.735	10165.26
490.939	9980.95
491.143	9679.89
491.346	9542.68
491.55	9507.87
491.754	9270.3
491.958	9282.59
492.161	8889.38
492.365	8893.47
492.569	8543.27
492.772	8530.98
492.976	8471.59
493.18	8561.7
493.383	8524.84
493.587	8184.88
493.79	8234.03
493.994	7910.45
494.197	7844.91
494.401	7859.25
494.605	7754.8
494.808	7644.21
495.012	7611.45
495.215	7543.86
495.419	7498.81
495.622	7509.05
495.825	7377.98
496.029	7339.07
496.232	7445.56
496.436	7222.33
496.639	7259.2
496.843	7279.68
497.046	7175.23
497.249	7441.47
497.453	7302.2
497.656	7093.31
497.859	7334.97
498.063	7226.43
498.266	7351.35
498.469	7273.53
498.673	7289.92
498.876	7531.58
499.079	7353.4
499.282	7398.46
499.485	7660.6
499.689	7773.24
499.892	7627.83
500.095	7570.49
500.298	7777.33
500.501	7550.01
500.705	7654.45
500.908	7859.25
501.111	7877.68
501.314	8062
501.517	8174.64
501.72	8107.05
501.923	8006.7
502.126	8326.19
502.329	8406.06
502.532	8301.61
502.735	8432.68
502.938	8678.44
503.141	8739.88
503.344	8881.19
503.547	8889.38
503.75	9002.02
503.953	9245.73
504.156	9366.56
504.359	9393.18
504.562	9563.16
504.765	9669.66
504.968	10107.92
505.17	10060.82
505.373	10048.53
505.576	10523.66
505.779	10400.78
505.982	10587.15
506.185	10851.33
506.387	10814.47
506.59	11256.83
506.793	11379.71
506.996	11338.75
507.198	12037.11
507.401	12028.92
507.604	12250.1
507.807	12381.17
508.009	13048.8
508.212	12788.71
508.415	13396.96
508.617	13581.28
508.82	13497.31
509.022	13745.11
509.225	14289.87
509.428	14693.32
509.63	14648.27
509.833	15018.95
510.035	15852.47
510.238	15942.58
510.44	16221.11
510.643	16382.9
510.845	16978.86
511.048	17105.83
511.25	17597.34
511.453	17785.76
511.655	18621.33
511.858	18875.27
512.06	19385.22
512.262	19602.3
512.465	19884.92
512.667	20343.67
512.87	20841.32
513.072	21664.61
513.274	21920.6
513.477	22412.12
513.679	22827.85
513.881	23499.59
514.084	23984.96
514.286	24365.88
514.488	24785.71
514.69	26039.07
514.893	25938.72
515.095	26540.82
515.297	26811.15
515.499	27599.62
515.701	28340.99
515.904	29063.92
516.106	29479.66
516.308	29924.07
516.51	30831.32
516.712	31283.92
516.914	31709.89
517.116	33022.64
517.318	33000.12
517.52	33395.37
517.722	33989.28
517.925	35144.34
518.127	35345.04
518.329	36483.71
518.531	36059.78
518.733	37452.4
518.935	38054.5
519.136	38507.1
519.338	39158.36
519.54	39678.54
519.742	40092.23
519.944	40579.65
520.146	41839.15
520.348	42011.18
520.55	42404.39
520.752	42754.59
520.954	43844.11
521.155	43467.28
521.357	44329.48
521.559	45146.62
521.761	45636.08
521.963	45744.62
522.164	46793.18
522.366	46707.17
522.568	47096.28
522.77	47522.26
522.971	47909.33
523.173	48255.43
523.375	48832.96
523.576	48617.92
523.778	48478.66
523.98	49349.05
524.181	49572.28
524.383	49390.01
524.584	49936.82
524.786	49461.69
524.988	49523.13
525.189	49803.7
525.391	50614.69
525.592	50373.03
525.794	50399.66
525.995	50033.07
526.197	50590.12
526.398	50362.79
526.6	50303.4
526.801	49863.09
527.003	50088.37
527.204	49570.23
527.406	50119.09
527.607	49725.88
527.808	49686.96
528.01	48460.23
528.211	48386.5
528.412	49140.16
528.614	48738.75
528.815	48153.04
529.016	48181.71
529.218	47270.36
529.419	47282.65
529.62	46709.22
529.822	46014.96
530.023	45791.73
530.224	45353.46
530.425	44904.96
530.626	44309
530.828	43835.92
531.029	44300.81
531.23	43012.63
531.431	42340.9
531.632	42220.07
531.833	41792.04
532.035	41357.88
532.236	40931.9
532.437	40923.71
532.638	39899.72
532.839	39643.73
533.04	39387.73
533.241	38249.06
533.442	38566.49
533.643	37579.37
533.844	36969.08
534.045	36403.84
534.246	36067.97
534.447	35912.33
534.648	34988.69
534.849	34712.22
535.05	34071.2
535.251	34028.2
535.451	33376.94
535.652	32940.72
535.853	32268.99
536.054	32486.07
536.255	31709.89
536.456	30872.28
536.657	31068.88
536.857	30409.43
537.058	30048.99
537.259	29879.01
537.46	29549.29
537.66	28879.6
537.861	28566.26
538.062	28326.65
538.263	27607.81
538.463	27388.68
538.664	26956.56
538.865	26696.47
539.065	27101.97
539.266	25969.44
539.466	25979.68
539.667	25228.07
539.868	25236.27
540.068	24947.5
540.269	24621.87
540.469	24388.41
540.67	23855.93
540.87	23513.92
541.071	23487.3
541.271	23370.57
541.472	22700.88
541.672	22715.22
541.873	22266.71
542.073	21793.63
542.274	21920.6
542.474	21381.99
542.675	21169
542.875	21511.01
543.075	20777.84
543.276	20401.01
543.476	20493.17
543.676	20130.68
543.877	20130.68
544.077	20038.52
544.277	19841.92
544.478	19317.64
544.678	19092.36
544.878	18924.43
545.078	18660.24
545.279	18535.31
545.479	18101.14
545.679	18142.1
545.879	17693.6
546.079	17609.63
546.28	17533.86
546.48	17007.53
546.68	17228.71
546.88	17052.58
547.08	16759.72
547.28	16481.2
547.48	16010.17
547.68	16399.28
547.88	15870.9
548.081	15549.37
548.281	15543.23
548.481	15195.07
548.681	15182.79
548.881	15008.71
549.081	14801.86
549.28	14511.05
549.48	14406.61
549.68	14224.34
549.88	14144.47
550.08	13820.89
550.28	13700.06
550.48	13517.79
550.68	13054.95
550.88	13069.28
551.08	12940.26
551.279	12934.12
551.479	12401.65
551.679	12354.54
551.879	12272.62
552.079	12157.94
552.278	11768.82
552.478	11754.49
552.678	11379.71
552.878	11621.37
553.077	11111.43
553.277	10920.96
553.477	10802.18
553.676	10578.95
553.876	10349.58
554.076	10431.5
554.275	10230.8
554.475	9939.99
554.674	9978.9
554.874	9817.11
555.074	9518.11
555.273	9524.25
555.473	9415.71
555.672	9010.21
555.872	9006.11
556.071	8891.43
556.271	8979.49
556.47	8422.44
556.67	8410.15
556.869	8234.03
557.068	8244.27
557.268	7920.69
557.467	7803.96
557.667	7808.05
557.866	7545.91
558.065	7484.47
558.265	7240.76
558.464	7195.71
558.663	7154.75
558.863	7095.36
559.062	7093.31
559.261	6741.06
559.461	6884.42
559.66	6597.7
559.859	6548.55
560.058	6411.34
560.258	6145.1
560.457	6227.02
560.656	6276.17
560.855	6044.75
561.054	5977.17
561.253	5796.95
561.453	5594.2
561.652	5594.2
561.851	5586.01
562.05	5512.28
562.249	5391.45
562.448	5327.96
562.647	5235.8
562.846	5172.32
563.045	5086.3
563.244	5094.49
563.443	5061.73
563.642	4985.95
563.841	4678.76
564.04	4852.83
564.239	4654.18
564.438	4555.88
564.637	4312.17
564.836	4420.71
565.035	4256.87
565.234	4299.88
565.432	4336.74
565.631	4361.32
565.83	4326.5
566.029	3980.4
566.228	4064.36
566.427	4025.45
566.625	3751.03
566.824	3724.4
567.023	3902.58
567.222	3523.7
567.42	3761.27
567.619	3687.54
567.818	3658.87
568.016	3689.59
568.215	3423.35
568.414	3550.32
568.612	3366.01
568.811	3267.7
569.01	3318.9
569.208	3202.17
569.407	3247.23
569.605	3079.29
569.804	3234.94
570.002	3042.43
570.201	3099.77
570.4	2972.8
570.598	3021.95
570.797	2958.46
570.995	2737.28
571.193	2808.96
571.392	2665.6
571.59	2704.51
571.789	2841.73
571.987	2688.13
572.186	2649.22
572.384	2491.52
572.582	2514.05
572.781	2653.31
572.979	2280.58
573.177	2555.01
573.376	2325.64
573.574	2403.46
573.772	2333.83
573.971	2288.78
574.169	2129.03
574.367	2323.59
574.565	2126.99
574.763	2131.08
574.962	2059.4
575.16	2065.55
575.358	1977.48
575.556	2020.49
575.754	2022.54
575.952	2051.21
576.151	1954.96
576.349	1967.24
576.547	1762.45
576.745	1793.17
576.943	1893.52
577.141	1684.62
577.339	1500.31
577.537	1739.92
577.735	1674.39
577.933	1760.4
578.131	1610.9
578.329	1727.63
578.527	1592.47
578.725	1604.75
578.923	1369.24
579.121	1598.61
579.319	1371.29
579.516	1410.2
579.714	1678.48
579.912	1508.5
580.11	1289.37
580.308	1348.76
580.506	1332.37
580.704	1197.21
580.901	1223.83
581.099	1434.77
581.297	1338.52
581.495	1309.85
581.692	1240.22
581.89	1408.15
582.088	1287.32
582.285	1272.98
582.483	1168.54
582.681	1174.68
582.878	1107.1
583.076	1160.34
583.274	1119.39
583.471	1217.69
583.669	990.36
583.866	1043.61
584.064	1125.53
584.262	855.2
584.459	982.17
584.657	1070.23
584.854	959.64
585.052	973.98
585.249	902.3
585.447	961.69
585.644	904.35
585.841	1078.43
586.039	947.36
586.236	943.26
586.434	838.81
586.631	822.43
586.828	832.67
587.026	918.68
587.223	711.84
587.42	836.77
587.618	906.4
587.815	877.73
588.012	795.81
588.21	763.04
588.407	830.62
588.604	887.97
588.801	613.54
588.999	787.61
589.196	836.77
589.393	783.52
589.59	617.63
589.787	707.74
589.984	758.94
590.182	679.07
590.379	703.65
590.576	767.13
590.773	763.04
590.97	660.64
591.167	722.08
591.364	758.94
591.561	625.83
591.758	781.47
591.955	652.45
592.152	697.5
592.349	687.26
592.546	597.15
592.743	629.92
592.94	636.06
593.137	699.55
593.334	697.5
593.531	732.32
593.727	683.17
593.924	793.76
594.121	674.98
594.318	685.22
594.515	750.75
594.712	840.86
594.908	756.9
595.105	627.87
595.302	705.7
595.499	722.08
595.696	883.87
595.892	701.6
596.089	885.92
596.286	744.61
596.482	887.97
596.679	928.92
596.876	736.42
597.072	957.6
597.269	892.06
597.466	898.2
597.662	818.33
597.859	842.91
598.055	967.84
598.252	1082.52
598.448	1055.9
598.645	1105.05
598.841	1098.91
599.038	1227.93
599.234	1277.08
599.431	1164.44
599.627	1318.04
599.824	1342.61
600.02	1375.38
600.217	1391.77
600.413	1455.25
600.609	1471.64
600.806	1750.16
601.002	1741.97
601.198	1506.45
601.395	1854.61
601.591	1846.41
601.787	1950.86
601.984	2190.47
602.18	1848.46
602.376	2065.55
602.572	2233.48
602.769	2380.93
602.965	2344.07
603.161	2446.47
603.357	2485.38
603.553	2679.94
603.75	2520.2
603.946	2755.71
604.142	2886.78
604.338	3032.19
604.534	3017.85
604.73	3144.83
604.926	3216.51
605.122	3409.01
605.318	3388.53
605.514	3488.89
605.71	3632.24
605.906	3738.74
606.102	3775.6
606.298	4037.74
606.494	4211.82
606.69	4316.26
606.886	4201.58
607.082	4490.34
607.278	4463.72
607.474	4734.05
607.67	4883.55
607.866	4748.39
608.062	5168.22
608.257	5252.19
608.453	5397.59
608.649	5448.79
608.845	5600.34
609.041	5755.99
609.236	6102.09
609.432	6298.7
609.628	6114.38
609.824	6532.17
610.019	6601.8
610.215	6638.66
610.411	7158.85
610.606	7210.04
610.802	7167.04
610.998	7562.3
611.193	7846.96
611.389	7662.65
611.584	8109.1
611.78	8217.65
611.976	8416.3
612.171	8997.92
612.367	8819.75
612.562	9151.52
612.758	9415.71
612.953	9405.47
613.149	9853.97
613.344	10112.02
613.539	10583.05
613.735	10791.94
613.93	11070.47
614.126	11023.36
614.321	11564.03
614.517	11877.37
614.712	11987.96
614.907	12489.71
615.103	12844.01
615.298	12743.66
615.493	13368.29
615.688	13513.69
615.884	14330.83
616.079	14451.66
616.274	14863.3
616.47	14977.99
616.665	15520.7
616.86	15952.82
617.055	16270.26
617.25	16401.33
617.445	16993.19
617.641	17482.66
617.836	17986.46
618.031	18224.02
618.226	18959.24
618.421	19364.74
618.616	19729.28
618.811	19876.73
619.006	20527.99
619.201	20597.62
619.396	21392.23
619.591	21371.75
619.786	22457.17
619.981	22664.02
620.176	23360.33
620.371	23188.3
620.566	24316.73
620.761	24644.4
620.956	25185.07
621.151	25586.47
621.346	26424.09
621.541	26399.51
621.735	27089.68
621.93	27507.46
622.125	27863.81
622.32	28203.77
622.515	28969.71
622.709	29444.84
622.904	30022.37
623.099	30558.94
623.294	31193.81
623.488	31412.94
623.683	32080.58
623.878	32312
624.072	33112.75
624.267	33667.75
624.462	33987.24
624.656	34314.91
624.851	35213.97
625.046	35320.46
625.24	36289.15
625.435	36573.82
625.629	36838.01
625.824	37628.52
626.018	37970.54
626.213	37937.77
626.407	38916.7
626.602	38539.87
626.796	39445.07
626.991	40075.85
627.185	39744.08
627.38	39789.13
627.574	40294.98
627.768	40305.22
627.963	40458.82
628.157	40569.41
628.352	41185.85
628.546	40434.24
628.74	41349.68
628.935	40931.9
629.129	40968.76
629.323	40577.6
629.517	40145.48
629.712	40149.57
629.906	39852.62
630.1	38650.46
630.294	39340.63
630.489	38308.45
630.683	38294.11
630.877	37415.54
631.071	36725.37
631.265	36573.82
631.459	35775.11
631.653	34753.18
631.848	33972.9
632.042	33274.54
632.236	32799.41
632.43	31615.69
632.624	30882.52
632.818	30059.23
633.012	28807.92
633.206	27738.88
633.4	27159.31
633.594	25621.28
633.788	25508.65
633.982	24447.8
634.176	23724.86
634.369	22586.19
634.563	21578.59
634.757	20743.02
634.951	20257.65
635.145	19485.57
635.339	18881.42
635.533	17859.48
635.726	17140.65
635.92	16540.59
636.114	15797.18
636.308	14971.85
636.501	14599.12
636.695	13691.87
636.889	13165.54
637.083	12770.28
637.276	12205.04
637.47	11531.26
637.664	11238.4
637.857	10830.85
638.051	10535.95
638.244	9849.88
638.438	9681.94
638.632	9471
638.825	8870.95
639.019	8588.33
639.212	8039.47
639.406	7996.46
639.599	7443.51
639.793	7279.68
639.986	7015.49
640.18	6716.48
640.373	6392.91
640.567	6218.83
640.76	5934.16
640.954	5674.07
641.147	5581.91
641.34	5307.48
641.534	5078.11
641.727	4934.75
641.92	4854.88
642.114	4594.79
642.307	4465.77
642.5	4410.47
642.694	4023.41
642.887	3855.47
643.08	3918.96
643.273	3601.52
643.467	3443.83
643.66	3239.03
643.853	3259.51
644.046	3206.27
644.239	2905.21
644.432	2788.48
644.626	2653.31
644.819	2614.4
645.012	2507.91
645.205	2473.09
645.398	2401.41
645.591	2321.54
645.784	2096.27
645.977	2104.46
646.17	1995.92
646.363	2043.02
646.556	1752.21
646.749	1727.63
646.942	1789.07
647.135	1715.34
647.328	1600.66
647.521	1631.38
647.714	1332.37
647.907	1537.17
648.099	1350.81
648.292	1467.54
648.485	1258.65
648.678	1207.45
648.871	1111.19
649.064	1266.84
649.256	971.93
649.449	1031.32
649.642	1031.32
649.835	943.26
650.027	890.01
650.22	928.92
650.413	885.92
650.605	916.64
650.798	787.61
650.991	851.1
651.183	801.95
651.376	717.98
651.568	781.47
651.761	619.68
651.954	681.12
652.146	662.69
652.339	679.07
652.531	689.31
652.724	570.53
652.916	617.63
653.109	482.47
653.301	543.91
653.494	693.41
653.686	550.05
653.879	574.63
654.071	580.77
654.263	519.33
654.456	527.52
654.648	572.58
654.84	478.37
655.033	322.73
655.225	586.91
655.417	302.25
655.61	634.02
655.802	429.22
655.994	423.08
656.186	292.01
656.379	388.26
656.571	349.35
656.763	253.09
656.955	292.01
657.148	277.67
657.34	388.26
657.532	287.91
657.724	351.4
657.916	353.45
658.108	447.65
658.3	347.3
658.492	378.02
658.684	294.05
658.876	408.74
659.068	199.85
659.26	175.27
659.452	285.86
659.644	326.82
659.836	259.24
660.028	277.67
660.22	191.66
660.412	216.23
660.604	216.23
660.796	205.99
660.988	330.92
661.18	224.42
661.372	298.15
661.563	220.33
661.755	195.75
661.947	152.74
662.139	195.75
662.331	210.09
662.522	197.8
662.714	103.59
662.906	183.46
663.097	238.76
663.289	136.36
663.481	70.83
663.673	275.62
663.864	203.94
664.056	263.33
664.247	158.89
664.439	228.52
664.631	228.52
664.822	265.38
665.014	89.26
665.205	140.46
665.397	195.75
665.588	238.76
665.78	128.17
665.971	228.52
666.163	195.75
666.354	175.27
666.546	95.4
666.737	169.13
666.929	85.16
667.12	107.69
667.311	220.33
667.503	128.17
667.694	224.42
667.885	173.22
668.077	228.52
668.268	76.97
668.459	126.12
668.651	197.8
668.842	220.33
669.033	93.35
669.224	101.55
669.416	251.05
669.607	171.18
669.798	154.79
669.989	273.57
670.18	117.93
670.371	138.41
670.563	3.24
670.754	271.53
670.945	224.42
671.136	162.98
671.327	115.88
671.518	220.33
671.709	246.95
671.9	152.74
672.091	349.35
672.282	154.79
672.473	74.92
672.664	19.63
672.855	152.74
673.046	193.7
673.237	238.76
673.428	156.84
673.619	189.61
673.809	158.89
674	167.08
674.191	144.55
674.382	148.65
674.573	152.74
674.764	208.04
674.954	212.14
675.145	74.92
675.336	117.93
675.527	107.69
675.717	103.59
675.908	136.36
676.099	85.16
676.289	181.42
676.48	99.5
676.671	191.66
676.861	130.22
677.052	156.84
677.243	187.56
677.433	58.54
677.624	203.94
677.814	150.7
678.005	177.32
678.195	277.67
678.386	115.88
678.576	177.32
678.767	103.59
678.957	146.6
679.148	220.33
679.338	281.77
679.529	187.56
679.719	150.7
679.909	244.9
680.1	310.44
680.29	146.6
680.481	79.02
680.671	275.62
680.861	236.71
681.052	267.43
681.242	205.99
681.432	212.14
681.622	107.69
681.813	128.17
682.003	238.76
682.193	193.7
682.383	187.56
682.573	175.27
682.764	197.8
682.954	169.13
683.144	253.09
683.334	165.03
683.524	220.33
683.714	179.37
683.904	285.86
684.094	175.27
684.284	271.53
684.474	343.21
684.664	287.91
684.854	265.38
685.044	144.55
685.234	269.48
685.424	269.48
685.614	171.18
685.804	314.53
685.994	302.25
686.184	165.03
686.374	226.47
686.564	142.5
686.753	193.7
686.943	177.32
687.133	99.5
687.323	146.6
687.513	267.43
687.702	240.81
687.892	275.62
688.082	203.94
688.272	208.04
688.461	226.47
688.651	355.49
688.841	259.24
689.03	124.07
689.22	201.9
689.41	265.38
689.599	205.99
689.789	195.75
689.979	347.3
690.168	140.46
690.358	265.38
690.547	236.71
690.737	244.9
690.926	214.18
691.116	253.09
691.305	294.05
691.495	228.52
691.684	193.7
691.874	165.03
692.063	220.33
692.252	287.91
692.442	255.14
692.631	138.41
692.82	193.7
693.01	251.05
693.199	205.99
693.388	183.46
693.578	306.34
693.767	236.71
693.956	162.98
694.146	169.13
694.335	328.87
694.524	210.09
694.713	162.98
694.902	154.79
695.092	101.55
695.281	160.94
695.47	191.66
695.659	152.74
695.848	181.42
696.037	136.36
696.226	214.18
696.415	136.36
696.604	345.25
696.793	246.95
696.982	212.14
697.171	347.3
697.36	173.22
697.549	230.57
697.738	54.44
697.927	205.99
698.116	195.75
698.305	263.33
698.494	195.75
698.683	148.65
698.872	365.73
699.061	142.5
699.25	179.37
699.438	203.94
699.627	216.23
699.816	300.2
700.005	144.55
700.193	148.65
700.382	289.96
700.571	249
700.76	230.57
700.948	267.43
701.137	158.89
701.326	246.95
701.514	128.17
701.703	277.67
701.892	240.81
702.08	363.69
702.269	193.7
702.457	162.98
702.646	285.86
702.834	122.02
703.023	269.48
703.212	285.86
703.4	197.8
703.589	162.98
703.777	154.79
703.965	119.98
704.154	132.26
704.342	99.5
704.531	134.31
704.719	195.75
704.907	304.29
705.096	119.98
705.284	62.63
705.472	72.87
705.661	212.14
705.849	304.29
706.037	238.76
706.226	201.9
706.414	240.81
706.602	158.89
706.79	210.09
706.979	132.26
707.167	249
707.355	91.31
707.543	162.98
707.731	171.18
707.919	171.18
708.107	154.79
708.296	138.41
708.484	119.98
708.672	187.56
708.86	162.98
709.048	228.52
709.236	115.88
709.424	216.23
709.612	152.74
709.8	103.59
709.988	111.78
710.176	132.26
710.364	314.53
710.551	111.78
710.739	175.27
710.927	191.66
711.115	173.22
711.303	197.8
711.491	249
711.679	187.56
711.866	216.23
712.054	138.41
712.242	181.42
712.43	279.72
712.617	136.36
712.805	214.18
712.993	197.8
713.181	93.35
713.368	273.57
713.556	109.74
713.744	165.03
713.931	269.48
714.119	242.85
714.306	183.46
714.494	185.51
714.682	210.09
714.869	105.64
715.057	107.69
715.244	134.31
715.432	281.77
715.619	171.18
715.807	152.74
715.994	185.51
716.182	263.33
716.369	216.23
716.556	195.75
716.744	50.35
716.931	81.07
717.119	201.9
717.306	222.38
717.493	294.05
717.681	165.03
717.868	175.27
718.055	126.12
718.242	199.85
718.43	195.75
718.617	273.57
718.804	205.99
718.991	328.87
719.179	263.33
719.366	273.57
719.553	187.56
719.74	238.76
719.927	246.95
720.114	238.76
720.301	105.64
720.488	107.69
720.676	171.18
720.863	205.99
721.05	343.21
721.237	242.85
721.424	230.57
721.611	216.23
721.798	148.65
721.985	169.13
722.172	267.43
722.358	171.18
722.545	283.81
722.732	273.57
722.919	294.05
723.106	257.19
723.293	212.14
723.48	298.15
723.667	222.38
723.853	216.23
724.04	228.52
724.227	232.62
724.414	191.66
724.6	197.8
724.787	404.64
724.974	439.46
725.161	210.09
725.347	95.4
725.534	234.66
725.72	246.95
725.907	212.14
726.094	214.18
726.28	214.18
726.467	205.99
726.653	187.56
726.84	353.45
727.027	408.74
727.213	220.33
727.4	318.63
727.586	289.96
727.773	173.22
727.959	212.14
728.145	230.57
728.332	275.62
728.518	160.94
728.705	322.73
728.891	316.58
729.077	232.62
729.264	162.98
729.45	150.7
729.636	304.29
729.823	222.38
730.009	365.73
730.195	259.24
730.382	304.29
730.568	160.94
730.754	255.14
730.94	216.23
731.126	236.71
731.313	287.91
731.499	277.67
731.685	292.01
731.871	267.43
732.057	251.05
732.243	224.42
732.429	273.57
732.615	343.21
732.801	351.4
732.987	214.18
733.173	273.57
733.359	212.14
733.545	296.1
733.731	189.61
733.917	355.49
734.103	310.44
734.289	330.92
734.475	113.83
734.661	418.98
734.847	318.63
735.033	269.48
735.219	279.72
735.404	232.62
735.59	216.23
735.776	226.47
735.962	316.58
736.148	277.67
736.333	285.86
736.519	249
736.705	195.75
736.89	332.97
737.076	271.53
737.262	169.13
737.447	226.47
737.633	173.22
737.819	298.15
738.004	257.19
738.19	234.66
738.375	257.19
738.561	316.58
738.747	271.53
738.932	251.05
739.118	433.32
739.303	310.44
739.489	304.29
739.674	222.38
739.859	179.37
740.045	302.25
740.23	378.02
740.416	177.32
740.601	322.73
740.786	236.71
740.972	226.47
741.157	249
741.342	210.09
741.528	107.69
741.713	324.77
741.898	205.99
742.084	228.52
742.269	212.14
742.454	265.38
742.639	326.82
742.824	310.44
743.01	335.01
743.195	326.82
743.38	349.35
743.565	255.14
743.75	230.57
743.935	339.11
744.12	347.3
744.305	181.42
744.49	181.42
744.675	195.75
744.86	296.1
745.045	273.57
745.23	253.09
745.415	339.11
745.6	253.09
745.785	255.14
745.97	347.3
746.155	302.25
746.34	312.49
746.525	208.04
746.71	320.68
746.895	162.98
747.079	197.8
747.264	181.42
747.449	300.2
747.634	312.49
747.819	287.91
748.003	257.19
748.188	179.37
748.373	224.42
748.557	289.96
748.742	214.18
748.927	210.09
749.111	230.57
749.296	169.13
749.481	275.62
749.665	255.14
749.85	136.36
750.034	224.42
750.219	298.15
750.404	162.98
750.588	298.15
750.773	220.33
750.957	228.52
751.141	148.65
751.326	289.96
751.51	175.27
751.695	222.38
751.879	210.09
752.064	277.67
752.248	197.8
752.432	294.05
752.617	236.71
752.801	269.48
752.985	152.74
753.17	253.09
753.354	228.52
753.538	113.83
753.722	113.83
753.907	187.56
754.091	83.11
754.275	292.01
754.459	91.31
754.643	146.6
754.828	246.95
755.012	117.93
755.196	115.88
755.38	203.94
755.564	173.22
755.748	156.84
755.932	160.94
756.116	195.75
756.3	214.18
756.484	76.97
756.668	208.04
756.852	50.35
757.036	148.65
757.22	179.37
757.404	74.92
757.588	93.35
757.772	173.22
757.956	177.32
758.14	279.72
758.323	130.22
758.507	218.28
758.691	52.39
758.875	171.18
759.059	205.99
759.242	113.83
759.426	130.22
759.61	91.31
759.794	70.83
759.977	238.76
760.161	298.15
760.345	255.14
760.528	203.94
760.712	165.03
760.895	193.7
761.079	128.17
761.263	70.83
761.446	95.4
761.63	154.79
761.813	214.18
761.997	7.34
762.18	130.22
762.364	132.26
762.547	31.91
762.731	85.16
762.914	136.36
763.098	74.92
763.281	38.06
763.464	42.15
763.648	165.03
763.831	81.07
764.015	56.49
764.198	177.32
764.381	136.36
764.564	115.88
764.748	175.27
764.931	81.07
765.114	136.36
765.297	156.84
765.481	31.91
765.664	40.11
765.847	103.59
766.03	240.81
766.213	167.08
766.397	79.02
766.58	23.72
766.763	70.83
766.946	64.68
767.129	79.02
767.312	15.53
767.495	44.2
767.678	1.19
767.861	152.74
768.044	89.26
768.227	40.11
768.41	68.78
768.593	56.49
768.776	97.45
768.959	91.31
769.142	218.28
769.324	58.54
769.507	140.46
769.69	36.01
769.873	103.59
770.056	283.81
770.239	68.78
770.421	72.87
770.604	109.74
770.787	85.16
770.97	93.35
771.152	38.06
771.335	99.5
771.518	44.2
771.7	160.94
771.883	158.89
772.066	-2.9
772.248	115.88
772.431	199.85
772.613	76.97
772.796	87.21
772.978	144.55
773.161	173.22
773.343	58.54
773.526	11.43
773.708	13.48
773.891	-82.77
774.073	105.64
774.256	62.63
774.438	205.99
774.621	64.68
774.803	156.84
774.985	3.24
775.168	124.07
775.35	21.67
775.532	169.13
775.715	62.63
775.897	81.07
776.079	87.21
776.261	107.69
776.444	23.72
776.626	-23.38
776.808	54.44
776.99	62.63
777.173	169.13
777.355	40.11
777.537	126.12
777.719	85.16
777.901	11.43
778.083	70.83
778.265	9.39
778.447	36.01
778.629	33.96
778.811	19.63
778.993	138.41
779.175	162.98
779.357	19.63
779.539	-25.43
779.721	142.5
779.903	115.88
780.085	9.39
780.267	36.01
780.449	56.49
780.631	156.84
780.812	171.18
780.994	89.26
781.176	-9.05
781.358	29.87
781.54	42.15
781.721	79.02
781.903	122.02
782.085	66.73
782.267	132.26
782.448	-27.48
782.63	13.48
782.812	132.26
782.993	87.21
783.175	109.74
783.357	11.43
783.538	148.65
783.72	3.24
783.901	42.15
784.083	97.45
784.264	79.02
784.446	-9.05
784.627	-29.52
784.809	52.39
784.99	42.15
785.172	130.22
785.353	95.4
785.535	54.44
785.716	-4.95
785.897	-72.53
786.079	83.11
786.26	9.39
786.441	54.44
786.623	-152.4
786.804	-25.43
786.985	25.77
787.167	68.78
787.348	-25.43
787.529	-2.9
787.71	115.88
787.891	42.15
788.073	-11.09
788.254	-56.15
788.435	126.12
788.616	93.35
788.797	13.48
788.978	38.06
789.159	15.53
789.34	146.6
789.522	-27.48
789.703	-11.09
789.884	50.35
790.065	76.97
790.246	181.42
790.427	-37.72
790.607	124.07
790.788	91.31
790.969	-43.86
791.15	58.54
791.331	11.43
791.512	-23.38
791.693	-4.95
791.874	87.21
792.054	169.13
792.235	7.34
792.416	-74.58
792.597	-43.86
792.778	25.77
792.958	87.21
793.139	76.97
793.32	87.21
793.5	-50
793.681	15.53
793.862	76.97
794.042	-21.33
794.223	-58.2
794.404	7.34
794.584	-47.96
794.765	36.01
794.945	-23.38
795.126	89.26
795.306	38.06
795.487	38.06
795.667	19.63
795.848	66.73
796.028	81.07
796.209	-43.86
796.389	70.83
796.57	-13.14
796.75	31.91
796.93	-43.86
797.111	-23.38
797.291	25.77
797.471	150.7
797.652	-66.39
797.832	40.11
798.012	85.16
798.192	1.19
798.373	-13.14
798.553	-39.76
798.733	5.29
798.913	9.39
799.093	-0.85
799.274	48.3
799.454	87.21
799.634	-0.85
799.814	-29.52
799.994	87.21
800.174	56.49
800.354	-27.48
800.534	-43.86
800.714	27.82
800.894	-64.34
801.074	23.72
801.254	-9.05
801.434	122.02
801.614	40.11
801.794	7.34
801.974	1850.51
802.154	-17.24
802.334	83.11
802.514	15.53
802.693	-13.14
802.873	-21.33
803.053	101.55
803.233	189.61
803.413	17.58
803.592	13.48
803.772	13.48
803.952	9.39
804.131	-25.43
804.311	48.3
804.491	117.93
804.67	36.01
804.85	-56.15
805.03	38.06
805.209	113.83
805.389	15.53
805.568	-41.81
805.748	33.96
805.928	-0.85
806.107	36.01
806.287	1.19
806.466	93.35
806.646	36.01
806.825	66.73
807.004	3.24
807.184	87.21
807.363	107.69
807.543	33.96
807.722	-27.48
807.901	136.36
808.081	70.83
808.26	-74.58
808.439	29.87
808.619	48.3
808.798	-54.1
808.977	42.15
809.156	117.93
809.336	64.68
809.515	95.4
809.694	-15.19
809.873	-50
810.052	109.74
810.231	99.5
810.411	58.54
810.59	107.69
810.769	79.02
810.948	136.36
811.127	-93.01
811.306	-25.43
811.485	21.67
811.664	95.4
811.843	33.96
812.022	5.29
812.201	-64.34
812.38	33.96
812.559	-13.14
812.737	85.16
812.916	-50
813.095	-7
813.274	-15.19
813.453	50.35
813.632	19.63
813.811	72.87
813.989	-72.53
814.168	-27.48
814.347	-45.91
814.526	74.92
814.704	68.78
814.883	136.36
815.062	-4.95
815.24	48.3
815.419	-19.29
815.598	-23.38
815.776	-47.96
815.955	21.67
816.133	-80.72
816.312	52.39
816.49	-43.86
816.669	48.3
816.847	33.96
817.026	9.39
817.204	-11.09
817.383	46.25
817.561	17.58
817.74	68.78
817.918	70.83
818.097	11.43
818.275	-21.33
818.453	42.15
818.632	52.39
818.81	-21.33
818.988	17.58
819.167	-33.62
819.345	19.63
819.523	-17.24
819.701	66.73
819.879	64.68
820.058	64.68
820.236	19.63
820.414	-9.05
820.592	-82.77
820.77	-72.53
820.948	23.72
821.127	5.29
821.305	-64.34
821.483	-82.77
821.661	103.59
821.839	56.49
822.017	-43.86
822.195	-31.57
822.373	111.78
822.551	-70.48
822.729	33.96
822.907	5.29
823.085	19.63
823.262	13.48
823.44	-70.48
823.618	-25.43
823.796	66.73
823.974	-72.53
824.152	-13.14
824.329	13.48
824.507	1.19
824.685	1.19
824.863	29.87
825.04	7.34
825.218	21.67
825.396	19.63
825.574	27.82
825.751	-13.14
825.929	111.78
826.107	-74.58
826.284	29.87
826.462	62.63
826.639	-64.34
826.817	17.58
826.994	23.72
827.172	-31.57
827.349	130.22
827.527	46.25
827.704	48.3
827.882	31.91
828.059	-0.85
828.237	23.72
828.414	25.77
828.591	-66.39
828.769	11.43
828.946	-33.62
829.124	31.91
829.301	91.31
829.478	-47.96
829.655	109.74
829.833	9.39
830.01	-39.76
830.187	46.25
830.364	36.01
830.542	3.24
830.719	136.36
830.896	-4.95
831.073	66.73
831.25	36.01
831.427	3.24
831.604	17.58
831.782	7.34
831.959	11.43
832.136	5.29
832.313	74.92
832.49	-17.24
832.667	56.49
832.844	-45.91
833.021	79.02
833.198	-47.96
833.374	5.29
833.551	27.82
833.728	5.29
833.905	103.59
834.082	-93.01
834.259	-29.52
834.436	70.83
834.612	-15.19
834.789	5.29
834.966	7.34
835.143	15.53
835.319	-64.34
835.496	128.17
835.673	31.91
835.85	83.11
836.026	-0.85
836.203	103.59
836.38	-37.72
836.556	42.15
836.733	-37.72
836.909	156.84
837.086	5.29
837.262	-64.34
837.439	-62.29
837.616	-72.53
837.792	-0.85
837.968	42.15
838.145	-117.59
838.321	48.3
838.498	99.5
838.674	-62.29
838.851	38.06
839.027	-47.96
839.203	-31.57
839.38	107.69
839.556	-78.68
839.732	11.43
839.909	25.77
840.085	93.35
840.261	-21.33
840.437	66.73
840.614	-52.05
840.79	74.92
840.966	81.07
841.142	29.87
841.318	11.43
841.494	15.53
841.671	60.59
841.847	-70.48
842.023	-47.96
842.199	25.77
842.375	103.59
842.551	-56.15
842.727	-68.44
842.903	124.07
843.079	-88.92
843.255	85.16
843.431	15.53
843.607	-4.95
843.783	-150.36
843.959	-11.09
844.134	85.16
844.31	79.02
844.486	29.87
844.662	-43.86
844.838	1.19
845.013	56.49
845.189	107.69
845.365	54.44
845.541	15.53
845.716	-11.09
845.892	36.01
846.068	-21.33
846.244	-25.43
846.419	83.11
846.595	-99.16
846.77	-115.54
846.946	21.67
847.122	3.24
847.297	-56.15
847.473	109.74
847.648	-9.05
847.824	29.87
847.999	-62.29
848.175	1.19
848.35	62.63
848.526	99.5
848.701	31.91
848.876	52.39
849.052	50.35
849.227	-19.29
849.403	-15.19
849.578	-17.24
849.753	27.82
849.929	-4.95
850.104	-58.2
850.279	-43.86
850.454	76.97
850.63	56.49
850.805	62.63
850.98	62.63
851.155	42.15
851.33	1.19
851.505	-111.44
851.681	130.22
851.856	29.87
852.031	33.96
852.206	11.43
852.381	-105.3
852.556	-50
852.731	48.3
852.906	142.5
853.081	48.3
853.256	136.36
853.431	7.34
853.606	-60.24
853.781	-56.15
853.956	-45.91
854.131	7.34
854.305	-68.44
854.48	-45.91
854.655	-27.48
854.83	-39.76
855.005	-17.24
855.18	87.21
855.354	29.87
855.529	-39.76
855.704	-25.43
855.879	-0.85
856.053	-19.29
856.228	-33.62
856.403	-76.63
856.577	33.96
856.752	-68.44
856.926	9.39
857.101	17.58
857.276	-62.29
857.45	134.31
857.625	93.35
857.799	9.39
857.974	-82.77
858.148	-50
858.323	-25.43
858.497	-76.63
858.672	3.24
858.846	-56.15
859.02	99.5
859.195	-86.87
859.369	-25.43
859.543	-11.09
859.718	5.29
859.892	9.39
860.066	66.73
860.241	-41.81
860.415	-17.24
860.589	-4.95
860.763	-62.29
860.938	3.24
861.112	107.69
861.286	-58.2
861.46	-7
861.634	-43.86
861.808	128.17
861.982	-4.95
862.157	-78.68
862.331	-52.05
862.505	-86.87
862.679	-99.16
862.853	-7
863.027	17.58
863.201	173.22
863.375	-43.86
863.549	-13.14
863.722	23.72
863.896	111.78
864.07	36.01
864.244	-13.14
864.418	50.35
864.592	21.67
864.766	-9.05
864.939	-21.33
865.113	-19.29
865.287	109.74
865.461	-41.81
865.634	46.25
865.808	-0.85
865.982	-78.68
866.156	-39.76
866.329	-15.19
866.503	42.15
866.676	56.49
866.85	-9.05
867.024	-66.39
867.197	54.44
867.371	44.2
867.544	5.29
867.718	-31.57
867.891	56.49
868.065	-66.39
868.238	29.87
868.412	72.87
868.585	3.24
868.759	-97.11
868.932	-2.9
869.105	-70.48
869.279	-19.29
869.452	-60.24
869.625	68.78
869.799	13.48
869.972	-127.83
870.145	-64.34
870.319	89.26
870.492	-13.14
870.665	-4.95
870.838	-33.62
871.011	-64.34
871.185	3.24
871.358	-47.96
871.531	60.59
871.704	-11.09
871.877	5.29
872.05	1.19
872.223	-97.11
872.396	33.96
872.569	29.87
872.742	-52.05
872.915	46.25
873.088	-9.05
873.261	-15.19
873.434	99.5
873.607	-17.24
873.78	58.54
873.953	-58.2
874.126	15.53
874.299	33.96
874.471	11.43
874.644	-35.67
874.817	13.48
874.99	138.41
875.163	38.06
875.335	7.34
875.508	3.24
875.681	72.87
875.853	23.72
876.026	21.67
876.199	81.07
876.371	11.43
876.544	68.78
876.717	-41.81
876.889	85.16
877.062	-19.29
877.234	3.24
877.407	-39.76
877.579	40.11
877.752	70.83
877.924	36.01
878.097	25.77
878.269	-78.68
878.442	15.53
878.614	-9.05
878.786	-39.76
878.959	-15.19
879.131	60.59
879.303	-127.83
879.476	-11.09
879.648	62.63
879.82	79.02
879.993	1.19
880.165	29.87
880.337	-82.77
880.509	-31.57
880.681	-88.92
880.854	-70.48
881.026	74.92
881.198	130.22
881.37	-47.96
881.542	13.48
881.714	25.77
881.886	19.63
882.058	54.44
882.23	107.69
882.402	-21.33
882.574	-4.95
882.746	66.73
882.918	38.06
883.09	-13.14
883.262	-17.24
883.434	-4.95
883.606	-54.1
883.778	-56.15
883.95	68.78
884.122	-25.43
884.293	105.64
884.465	46.25
884.637	91.31
884.809	21.67
884.98	19.63
885.152	36.01
885.324	58.54
885.496	-70.48
885.667	-27.48
885.839	-9.05
886.011	138.41
886.182	25.77
886.354	54.44
886.525	38.06
886.697	79.02
886.869	-39.76
887.04	-7
887.212	48.3
887.383	105.64
887.555	1.19
887.726	5.29
887.897	33.96
888.069	56.49
888.24	83.11
888.412	79.02
888.583	54.44
888.754	-52.05
888.926	-146.26
889.097	23.72
889.268	-25.43
889.44	23.72
889.611	-99.16
889.782	-33.62
889.953	3.24
890.125	140.46
890.296	-41.81
890.467	-70.48
890.638	-52.05
890.809	19.63
890.98	-66.39
891.151	-11.09
891.323	126.12
891.494	-25.43
891.665	81.07
891.836	58.54
892.007	17.58
892.178	66.73
892.349	29.87
892.52	-64.34
892.691	-7
892.862	-33.62
893.032	-56.15
893.203	-74.58
893.374	-58.2
893.545	44.2
893.716	-97.11
893.887	21.67
894.057	-43.86
894.228	7.34
894.399	-13.14
894.57	85.16
894.74	-19.29
894.911	9.39
895.082	-37.72
895.253	11.43
895.423	-31.57
895.594	152.74
895.764	27.82
895.935	-35.67
896.106	7.34
896.276	-78.68
896.447	-17.24
896.617	-9.05
896.788	46.25
896.958	60.59
897.129	17.58
897.299	29.87
897.47	25.77
897.64	99.5
897.81	-0.85
897.981	-58.2
898.151	-47.96
898.322	15.53
898.492	1.19
898.662	-27.48
898.832	-47.96
899.003	7.34
899.173	74.92
899.343	-33.62
899.513	-37.72
