Data from USB4F104151__130__10-46-25-957.txt Node

Date: Wed Feb 26 10:46:25 EST 2025
User: louis
Spectrometer: USB4F10415
Trigger mode: 4
Integration Time (sec): 1.000000E-1
Scans to average: 1
Electric dark correction enabled: true
Nonlinearity correction enabled: false
Boxcar width: 0
XAxis mode: Wavelengths
Number of Pixels in Spectrum: 3648
>>>>>Begin Spectral Data<<<<<
178.204	-379.9
178.424	-379.9
178.644	-379.9
178.864	-381.95
179.084	-394.23
179.304	-35.84
179.524	5.12
179.744	7.17
179.964	91.13
180.184	-46.08
180.404	60.42
180.624	-87.04
180.844	1.02
181.064	-107.52
181.283	46.08
181.503	5.12
181.723	60.42
181.943	-62.46
182.163	197.63
182.383	46.08
182.602	95.23
182.822	23.55
183.042	93.18
183.262	-1.02
183.482	-1.02
183.701	29.7
183.921	74.75
184.141	-31.74
184.361	33.79
184.58	29.7
184.8	78.85
185.02	-41.98
185.239	156.67
185.459	99.33
185.679	160.77
185.898	-113.66
186.118	78.85
186.338	-23.55
186.557	156.67
186.777	31.74
186.997	50.18
187.216	54.27
187.436	230.4
187.655	128
187.875	21.5
188.095	-13.31
188.314	152.57
188.534	130.05
188.753	-31.74
188.973	107.52
189.192	121.85
189.412	-46.08
189.631	66.56
189.851	58.37
190.07	152.57
190.29	-41.98
190.509	-44.03
190.729	58.37
190.948	162.81
191.168	261.12
191.387	130.05
191.607	52.22
191.826	103.42
192.045	72.7
192.265	-1.02
192.484	68.61
192.704	99.33
192.923	-15.36
193.142	199.68
193.362	31.74
193.581	84.99
193.8	33.79
194.02	54.27
194.239	46.08
194.458	78.85
194.678	3.07
194.897	15.36
195.116	87.04
195.335	87.04
195.555	48.13
195.774	-3.07
195.993	66.56
196.212	-3.07
196.432	-15.36
196.651	-3.07
196.87	46.08
197.089	185.34
197.308	78.85
197.528	84.99
197.747	-41.98
197.966	109.57
198.185	175.1
198.404	-27.65
198.623	74.75
198.842	168.96
199.062	80.89
199.281	130.05
199.5	17.41
199.719	142.33
199.938	41.98
200.157	48.13
200.376	62.46
200.595	162.81
200.814	21.5
201.033	-48.13
201.252	87.04
201.471	-33.79
201.69	132.09
201.909	17.41
202.128	109.57
202.347	84.99
202.566	60.42
202.785	1.02
203.004	-74.75
203.223	214.01
203.442	50.18
203.661	-107.52
203.879	78.85
204.098	84.99
204.317	-25.6
204.536	52.22
204.755	107.52
204.974	78.85
205.193	48.13
205.411	185.34
205.63	148.48
205.849	46.08
206.068	78.85
206.287	-7.17
206.505	66.56
206.724	-33.79
206.943	-39.94
207.162	25.6
207.381	48.13
207.599	11.26
207.818	41.98
208.037	-27.65
208.255	25.6
208.474	82.94
208.693	68.61
208.911	46.08
209.13	89.09
209.349	105.47
209.567	82.94
209.786	17.41
210.005	136.19
210.223	7.17
210.442	-62.46
210.661	29.7
210.879	70.65
211.098	56.32
211.316	70.65
211.535	50.18
211.753	31.74
211.972	66.56
212.191	52.22
212.409	-33.79
212.628	105.47
212.846	-41.98
213.065	54.27
213.283	158.72
213.502	27.65
213.72	58.37
213.938	93.18
214.157	19.46
214.375	80.89
214.594	29.7
214.812	64.51
215.031	46.08
215.249	37.89
215.467	31.74
215.686	113.66
215.904	35.84
216.122	39.94
216.341	130.05
216.559	111.61
216.778	162.81
216.996	166.91
217.214	25.6
217.432	50.18
217.651	-64.51
217.869	35.84
218.087	-5.12
218.306	21.5
218.524	52.22
218.742	-13.31
218.96	76.8
219.179	29.7
219.397	33.79
219.615	254.97
219.833	70.65
220.051	1.02
220.27	181.25
220.488	136.19
220.706	103.42
220.924	-1.02
221.142	9.22
221.36	132.09
221.578	15.36
221.796	29.7
222.015	54.27
222.233	58.37
222.451	185.34
222.669	27.65
222.887	97.28
223.105	-41.98
223.323	-21.5
223.541	-109.57
223.759	72.7
223.977	72.7
224.195	156.67
224.413	76.8
224.631	17.41
224.849	31.74
225.067	248.83
225.285	-68.61
225.503	78.85
225.721	-58.37
225.939	11.26
226.157	52.22
226.375	201.72
226.592	-5.12
226.81	-13.31
227.028	128
227.246	72.7
227.464	101.37
227.682	113.66
227.9	58.37
228.117	66.56
228.335	80.89
228.553	5.12
228.771	29.7
228.989	-3.07
229.206	76.8
229.424	-19.46
229.642	44.03
229.86	-103.42
230.077	130.05
230.295	44.03
230.513	123.9
230.731	101.37
230.948	162.81
231.166	128
231.384	-33.79
231.601	-39.94
231.819	128
232.037	19.46
232.254	15.36
232.472	19.46
232.689	-58.37
232.907	101.37
233.125	-60.42
233.342	35.84
233.56	-76.8
233.777	109.57
233.995	74.75
234.213	95.23
234.43	68.61
234.648	72.7
234.865	46.08
235.083	84.99
235.3	121.85
235.518	113.66
235.735	154.62
235.953	64.51
236.17	78.85
236.388	11.26
236.605	-27.65
236.822	109.57
237.04	93.18
237.257	152.57
237.475	50.18
237.692	17.41
237.909	84.99
238.127	93.18
238.344	84.99
238.562	29.7
238.779	-56.32
238.996	62.46
239.214	140.29
239.431	68.61
239.648	-27.65
239.865	70.65
240.083	80.89
240.3	-58.37
240.517	48.13
240.735	66.56
240.952	117.76
241.169	1.02
241.386	87.04
241.603	-1.02
241.821	15.36
242.038	76.8
242.255	78.85
242.472	-11.26
242.689	64.51
242.907	60.42
243.124	99.33
243.341	39.94
243.558	-23.55
243.775	-11.26
243.992	-7.17
244.209	44.03
244.426	168.96
244.643	66.56
244.86	11.26
245.078	99.33
245.295	33.79
245.512	-17.41
245.729	21.5
245.946	68.61
246.163	17.41
246.38	-33.79
246.597	130.05
246.814	3.07
247.031	13.31
247.248	109.57
247.464	87.04
247.681	58.37
247.898	37.89
248.115	175.1
248.332	-48.13
248.549	103.42
248.766	222.2
248.983	125.95
249.2	142.33
249.417	154.62
249.633	3.07
249.85	93.18
250.067	113.66
250.284	103.42
250.501	31.74
250.717	27.65
250.934	-1.02
251.151	39.94
251.368	39.94
251.585	119.81
251.801	74.75
252.018	-9.22
252.235	119.81
252.451	-3.07
252.668	44.03
252.885	31.74
253.102	99.33
253.318	7.17
253.535	37.89
253.752	27.65
253.968	1.02
254.185	-41.98
254.401	-11.26
254.618	37.89
254.835	-50.18
255.051	117.76
255.268	70.65
255.484	41.98
255.701	78.85
255.917	68.61
256.134	76.8
256.351	56.32
256.567	-19.46
256.784	78.85
257	-97.28
257.217	117.76
257.433	99.33
257.65	35.84
257.866	128
258.082	-35.84
258.299	-19.46
258.515	29.7
258.732	9.22
258.948	-56.32
259.165	60.42
259.381	13.31
259.597	111.61
259.814	21.5
260.03	5.12
260.246	-17.41
260.463	130.05
260.679	97.28
260.895	91.13
261.112	89.09
261.328	37.89
261.544	41.98
261.761	109.57
261.977	33.79
262.193	48.13
262.409	95.23
262.626	-15.36
262.842	11.26
263.058	-3.07
263.274	115.71
263.49	125.95
263.707	23.55
263.923	115.71
264.139	-60.42
264.355	41.98
264.571	123.9
264.787	99.33
265.004	89.09
265.22	27.65
265.436	66.56
265.652	-3.07
265.868	66.56
266.084	1.02
266.3	-31.74
266.516	-29.7
266.732	58.37
266.948	117.76
267.164	-44.03
267.38	87.04
267.596	119.81
267.812	113.66
268.028	123.9
268.244	-74.75
268.46	82.94
268.676	25.6
268.892	60.42
269.108	-1.02
269.324	9.22
269.54	-80.89
269.756	41.98
269.972	5.12
270.188	19.46
270.403	-39.94
270.619	35.84
270.835	136.19
271.051	-11.26
271.267	-7.17
271.483	29.7
271.698	115.71
271.914	15.36
272.13	70.65
272.346	70.65
272.562	31.74
272.777	52.22
272.993	52.22
273.209	-31.74
273.425	101.37
273.64	-23.55
273.856	54.27
274.072	-15.36
274.287	-7.17
274.503	9.22
274.719	134.14
274.934	-13.31
275.15	-68.61
275.366	95.23
275.581	-5.12
275.797	39.94
276.012	15.36
276.228	3.07
276.444	41.98
276.659	87.04
276.875	23.55
277.09	70.65
277.306	54.27
277.521	91.13
277.737	99.33
277.952	70.65
278.168	-11.26
278.383	46.08
278.599	7.17
278.814	95.23
279.03	7.17
279.245	74.75
279.461	-15.36
279.676	64.51
279.892	-29.7
280.107	19.46
280.322	-35.84
280.538	44.03
280.753	-41.98
280.969	31.74
281.184	11.26
281.399	87.04
281.615	82.94
281.83	105.47
282.045	-62.46
282.26	-105.47
282.476	-72.7
282.691	156.67
282.906	103.42
283.122	11.26
283.337	-72.7
283.552	89.09
283.767	-48.13
283.983	35.84
284.198	-48.13
284.413	117.76
284.628	-103.42
284.843	44.03
285.058	76.8
285.274	-5.12
285.489	-31.74
285.704	107.52
285.919	23.55
286.134	72.7
286.349	13.31
286.564	17.41
286.779	181.25
286.995	70.65
287.21	-99.33
287.425	41.98
287.64	1.02
287.855	76.8
288.07	-35.84
288.285	166.91
288.5	142.33
288.715	11.26
288.93	11.26
289.145	-9.22
289.36	123.9
289.575	99.33
289.79	185.34
290.004	-37.89
290.219	105.47
290.434	-5.12
290.649	-19.46
290.864	-5.12
291.079	54.27
291.294	105.47
291.509	117.76
291.724	101.37
291.938	58.37
292.153	103.42
292.368	35.84
292.583	-9.22
292.798	134.14
293.012	82.94
293.227	132.09
293.442	-76.8
293.657	181.25
293.871	99.33
294.086	82.94
294.301	164.86
294.516	103.42
294.73	48.13
294.945	-25.6
295.16	119.81
295.374	148.48
295.589	84.99
295.804	39.94
296.018	-46.08
296.233	211.96
296.447	9.22
296.662	72.7
296.877	181.25
297.091	31.74
297.306	1.02
297.52	13.31
297.735	66.56
297.949	-11.26
298.164	48.13
298.378	37.89
298.593	11.26
298.807	-25.6
299.022	5.12
299.236	179.2
299.451	46.08
299.665	64.51
299.88	5.12
300.094	70.65
300.309	48.13
300.523	62.46
300.737	-15.36
300.952	64.51
301.166	41.98
301.381	35.84
301.595	-19.46
301.809	107.52
302.024	29.7
302.238	-15.36
302.452	146.43
302.667	84.99
302.881	222.2
303.095	93.18
303.309	70.65
303.524	27.65
303.738	3.07
303.952	-19.46
304.166	64.51
304.381	-76.8
304.595	93.18
304.809	11.26
305.023	54.27
305.237	-66.56
305.452	105.47
305.666	101.37
305.88	123.9
306.094	183.29
306.308	111.61
306.522	181.25
306.736	62.46
306.95	101.37
307.164	-19.46
307.379	70.65
307.593	95.23
307.807	128
308.021	52.22
308.235	109.57
308.449	-82.94
308.663	29.7
308.877	220.16
309.091	27.65
309.305	9.22
309.519	-76.8
309.733	35.84
309.947	-97.28
310.161	62.46
310.374	130.05
310.588	168.96
310.802	-64.51
311.016	33.79
311.23	58.37
311.444	15.36
311.658	25.6
311.872	87.04
312.085	121.85
312.299	142.33
312.513	132.09
312.727	52.22
312.941	-19.46
313.154	76.8
313.368	46.08
313.582	7.17
313.796	27.65
314.009	9.22
314.223	185.34
314.437	93.18
314.651	105.47
314.864	27.65
315.078	41.98
315.292	-46.08
315.505	-41.98
315.719	148.48
315.933	125.95
316.146	21.5
316.36	-19.46
316.573	84.99
316.787	80.89
317.001	54.27
317.214	-58.37
317.428	62.46
317.641	-44.03
317.855	3.07
318.068	74.75
318.282	-39.94
318.495	166.91
318.709	166.91
318.922	64.51
319.136	183.29
319.349	144.38
319.563	-19.46
319.776	52.22
319.99	-103.42
320.203	107.52
320.417	58.37
320.63	5.12
320.843	207.87
321.057	54.27
321.27	76.8
321.483	54.27
321.697	160.77
321.91	87.04
322.124	-13.31
322.337	82.94
322.55	-11.26
322.763	70.65
322.977	-23.55
323.19	15.36
323.403	66.56
323.617	31.74
323.83	54.27
324.043	-33.79
324.256	84.99
324.469	-33.79
324.683	134.14
324.896	21.5
325.109	3.07
325.322	-74.75
325.535	93.18
325.748	41.98
325.962	158.72
326.175	37.89
326.388	1.02
326.601	166.91
326.814	-54.27
327.027	1.02
327.24	181.25
327.453	-37.89
327.666	183.29
327.879	156.67
328.092	41.98
328.305	39.94
328.518	74.75
328.731	33.79
328.944	5.12
329.157	29.7
329.37	-95.23
329.583	152.57
329.796	121.85
330.009	-27.65
330.222	134.14
330.435	150.53
330.648	41.98
330.861	111.61
331.073	117.76
331.286	89.09
331.499	66.56
331.712	-7.17
331.925	-52.22
332.138	-5.12
332.35	134.14
332.563	-66.56
332.776	117.76
332.989	25.6
333.202	-11.26
333.414	50.18
333.627	52.22
333.84	-5.12
334.053	84.99
334.265	68.61
334.478	-11.26
334.691	68.61
334.903	121.85
335.116	-7.17
335.329	66.56
335.541	37.89
335.754	236.54
335.966	-37.89
336.179	93.18
336.392	-1.02
336.604	-1.02
336.817	162.81
337.029	37.89
337.242	19.46
337.454	105.47
337.667	46.08
337.88	156.67
338.092	74.75
338.305	41.98
338.517	-25.6
338.729	99.33
338.942	175.1
339.154	-31.74
339.367	-66.56
339.579	80.89
339.792	-87.04
340.004	64.51
340.217	46.08
340.429	-17.41
340.641	-3.07
340.854	-60.42
341.066	-25.6
341.278	148.48
341.491	191.49
341.703	56.32
341.915	-11.26
342.128	89.09
342.34	109.57
342.552	-84.99
342.764	35.84
342.977	58.37
343.189	25.6
343.401	80.89
343.613	-58.37
343.826	46.08
344.038	-64.51
344.25	-37.89
344.462	3.07
344.674	119.81
344.886	68.61
345.099	44.03
345.311	91.13
345.523	29.7
345.735	-66.56
345.947	23.55
346.159	87.04
346.371	-19.46
346.583	39.94
346.795	207.87
347.007	84.99
347.219	23.55
347.431	27.65
347.643	109.57
347.855	-35.84
348.067	84.99
348.279	-23.55
348.491	7.17
348.703	66.56
348.915	25.6
349.127	-3.07
349.339	72.7
349.551	13.31
349.763	117.76
349.975	29.7
350.187	84.99
350.399	134.14
350.61	113.66
350.822	31.74
351.034	95.23
351.246	5.12
351.458	95.23
351.669	44.03
351.881	107.52
352.093	107.52
352.305	70.65
352.517	138.24
352.728	125.95
352.94	11.26
353.152	72.7
353.363	-25.6
353.575	160.77
353.787	175.1
353.999	62.46
354.21	123.9
354.422	44.03
354.633	21.5
354.845	48.13
355.057	142.33
355.268	-74.75
355.48	54.27
355.692	-74.75
355.903	-46.08
356.115	-70.65
356.326	-54.27
356.538	150.53
356.749	54.27
356.961	191.49
357.172	93.18
357.384	-7.17
357.595	95.23
357.807	23.55
358.018	-44.03
358.23	21.5
358.441	160.77
358.653	80.89
358.864	66.56
359.075	-23.55
359.287	9.22
359.498	39.94
359.709	107.52
359.921	5.12
360.132	60.42
360.344	-50.18
360.555	76.8
360.766	58.37
360.977	35.84
361.189	46.08
361.4	-19.46
361.611	181.25
361.823	105.47
362.034	48.13
362.245	-99.33
362.456	3.07
362.667	82.94
362.879	-41.98
363.09	3.07
363.301	70.65
363.512	68.61
363.723	70.65
363.935	46.08
364.146	136.19
364.357	-3.07
364.568	-21.5
364.779	-15.36
364.99	132.09
365.201	68.61
365.412	150.53
365.623	-9.22
365.834	25.6
366.045	68.61
366.256	95.23
366.467	93.18
366.678	31.74
366.889	33.79
367.1	54.27
367.311	89.09
367.522	56.32
367.733	105.47
367.944	82.94
368.155	56.32
368.366	95.23
368.577	144.38
368.788	128
368.999	5.12
369.209	44.03
369.42	226.3
369.631	252.92
369.842	128
370.053	-11.26
370.264	146.43
370.474	-31.74
370.685	35.84
370.896	17.41
371.107	132.09
371.317	52.22
371.528	134.14
371.739	224.25
371.95	72.7
372.16	103.42
372.371	-113.66
372.582	78.85
372.792	64.51
373.003	76.8
373.214	41.98
373.424	125.95
373.635	7.17
373.846	111.61
374.056	9.22
374.267	5.12
374.477	105.47
374.688	76.8
374.898	74.75
375.109	-17.41
375.319	82.94
375.53	146.43
375.74	113.66
375.951	25.6
376.161	113.66
376.372	113.66
376.582	37.89
376.793	35.84
377.003	-19.46
377.214	-111.61
377.424	58.37
377.635	27.65
377.845	46.08
378.055	95.23
378.266	-76.8
378.476	-7.17
378.686	31.74
378.897	41.98
379.107	205.82
379.317	80.89
379.528	-25.6
379.738	82.94
379.948	-93.18
380.158	154.62
380.369	56.32
380.579	78.85
380.789	80.89
380.999	97.28
381.21	183.29
381.42	109.57
381.63	-7.17
381.84	177.15
382.05	115.71
382.261	115.71
382.471	121.85
382.681	-1.02
382.891	142.33
383.101	3.07
383.311	-31.74
383.521	-13.31
383.731	-3.07
383.941	195.58
384.151	31.74
384.361	29.7
384.571	76.8
384.781	87.04
384.991	156.67
385.201	291.84
385.411	72.7
385.621	76.8
385.831	80.89
386.041	54.27
386.251	89.09
386.461	109.57
386.671	-21.5
386.881	82.94
387.091	58.37
387.301	84.99
387.511	87.04
387.72	29.7
387.93	89.09
388.14	3.07
388.35	119.81
388.56	173.05
388.769	168.96
388.979	68.61
389.189	-17.41
389.399	111.61
389.609	109.57
389.818	11.26
390.028	54.27
390.238	84.99
390.447	-82.94
390.657	84.99
390.867	29.7
391.076	-31.74
391.286	52.22
391.496	-11.26
391.705	27.65
391.915	177.15
392.125	111.61
392.334	23.55
392.544	87.04
392.753	70.65
392.963	56.32
393.172	41.98
393.382	-5.12
393.591	254.97
393.801	-50.18
394.01	207.87
394.22	117.76
394.429	80.89
394.639	-54.27
394.848	84.99
395.058	13.31
395.267	-15.36
395.477	82.94
395.686	134.14
395.895	193.53
396.105	132.09
396.314	68.61
396.524	97.28
396.733	25.6
396.942	179.2
397.152	52.22
397.361	117.76
397.57	224.25
397.78	52.22
397.989	56.32
398.198	142.33
398.407	-1.02
398.617	35.84
398.826	15.36
399.035	56.32
399.244	101.37
399.453	44.03
399.663	-13.31
399.872	23.55
400.081	17.41
400.29	187.39
400.499	-27.65
400.708	89.09
400.917	44.03
401.127	46.08
401.336	52.22
401.545	201.72
401.754	105.47
401.963	37.89
402.172	52.22
402.381	-25.6
402.59	35.84
402.799	54.27
403.008	97.28
403.217	72.7
403.426	97.28
403.635	-23.55
403.844	-29.7
404.053	44.03
404.262	-19.46
404.471	238.59
404.68	64.51
404.888	7.17
405.097	-60.42
405.306	44.03
405.515	50.18
405.724	17.41
405.933	121.85
406.142	41.98
406.35	240.64
406.559	-25.6
406.768	48.13
406.977	171.01
407.185	68.61
407.394	93.18
407.603	-74.75
407.812	17.41
408.02	101.37
408.229	44.03
408.438	62.46
408.646	-41.98
408.855	52.22
409.064	99.33
409.272	25.6
409.481	142.33
409.69	-46.08
409.898	-66.56
410.107	119.81
410.315	150.53
410.524	35.84
410.733	39.94
410.941	-23.55
411.15	39.94
411.358	19.46
411.567	154.62
411.775	37.89
411.984	1.02
412.192	158.72
412.401	54.27
412.609	125.95
412.818	158.72
413.026	107.52
413.234	25.6
413.443	107.52
413.651	-23.55
413.86	66.56
414.068	193.53
414.276	201.72
414.485	7.17
414.693	164.86
414.901	207.87
415.11	64.51
415.318	62.46
415.526	130.05
415.734	136.19
415.943	93.18
416.151	166.91
416.359	29.7
416.567	70.65
416.776	89.09
416.984	144.38
417.192	179.2
417.4	-5.12
417.608	13.31
417.817	-70.65
418.025	144.38
418.233	222.2
418.441	39.94
418.649	-27.65
418.857	66.56
419.065	119.81
419.273	-3.07
419.481	107.52
419.689	62.46
419.897	54.27
420.105	-27.65
420.313	78.85
420.521	156.67
420.729	128
420.937	-11.26
421.145	-23.55
421.353	87.04
421.561	254.97
421.769	80.89
421.977	95.23
422.185	25.6
422.393	41.98
422.601	107.52
422.809	84.99
423.017	31.74
423.224	50.18
423.432	87.04
423.64	11.26
423.848	109.57
424.056	27.65
424.263	136.19
424.471	93.18
424.679	150.53
424.887	-46.08
425.094	107.52
425.302	95.23
425.51	66.56
425.718	142.33
425.925	78.85
426.133	37.89
426.341	332.79
426.548	89.09
426.756	17.41
426.964	97.28
427.171	58.37
427.379	82.94
427.586	-3.07
427.794	80.89
428.001	160.77
428.209	72.7
428.417	162.81
428.624	150.53
428.832	84.99
429.039	115.71
429.247	164.86
429.454	97.28
429.662	283.64
429.869	91.13
430.076	80.89
430.284	134.14
430.491	271.36
430.699	87.04
430.906	240.64
431.114	84.99
431.321	150.53
431.528	181.25
431.736	150.53
431.943	173.05
432.15	234.49
432.358	232.44
432.565	320.51
432.772	74.75
432.979	261.12
433.187	54.27
433.394	279.55
433.601	119.81
433.808	240.64
434.016	234.49
434.223	248.83
434.43	197.63
434.637	312.32
434.844	300.03
435.052	177.15
435.259	250.88
435.466	297.98
435.673	254.97
435.88	246.78
436.087	320.51
436.294	326.65
436.501	316.41
436.708	271.36
436.915	304.12
437.122	394.23
437.329	238.59
437.537	351.23
437.743	334.84
437.95	467.96
438.157	328.7
438.364	367.61
438.571	304.12
438.778	472.06
438.985	541.69
439.192	541.69
439.399	453.63
439.606	527.35
439.813	484.34
440.02	560.12
440.227	664.57
440.433	562.17
440.64	596.98
440.847	500.73
441.054	562.17
441.261	726
441.467	576.5
441.674	648.18
441.881	740.34
442.088	654.33
442.294	818.16
442.501	762.87
442.708	869.36
442.914	740.34
443.121	885.75
443.328	838.64
443.534	812.02
443.741	867.31
443.948	752.63
444.154	1018.86
444.361	1182.7
444.568	1014.77
444.774	1063.92
444.981	1074.16
445.187	1188.85
445.394	1115.12
445.6	1246.19
445.807	1362.92
446.013	1199.09
446.22	1270.76
446.426	1444.84
446.633	1455.08
446.839	1643.49
447.046	1571.82
447.252	1623.02
447.459	1567.72
447.665	1594.34
447.871	1838.05
448.078	1952.74
448.284	1852.39
448.491	1973.22
448.697	2073.57
448.903	2147.3
449.11	2249.69
449.316	2100.19
449.522	2345.95
449.728	2577.37
449.935	2501.59
450.141	2454.49
450.347	2831.32
450.553	2714.58
450.76	2835.41
450.966	3001.3
451.172	3050.45
451.378	3025.87
451.584	3187.66
451.791	3406.8
451.997	3591.11
452.203	3580.87
452.409	3701.7
452.615	3976.13
452.821	3826.63
453.027	3802.05
453.233	4422.59
453.44	4205.5
453.646	4481.98
453.852	4621.24
454.058	4791.22
454.264	4934.58
454.47	5333.93
454.676	5219.25
454.882	5794.73
455.088	5598.12
455.294	5821.35
455.5	6181.79
455.705	6558.62
455.911	6532
456.117	6749.08
456.323	6917.01
456.529	6939.54
456.735	7680.91
456.941	7783.31
457.147	8180.61
457.352	8246.15
457.558	8571.77
457.764	9149.3
457.97	9298.8
458.176	9634.67
458.381	10079.08
458.587	10607.45
458.793	10965.85
458.999	10746.72
459.204	12286.79
459.41	12641.09
459.616	12389.19
459.821	13347.64
460.027	13703.98
460.233	14463.78
460.438	14459.68
460.644	15463.19
460.85	15112.99
461.055	16132.87
461.261	16923.39
461.466	16503.56
461.672	16861.95
461.878	18643.68
462.083	18436.84
462.289	18797.28
462.494	19749.59
462.7	19757.78
462.905	20171.47
463.111	21768.88
463.316	22610.6
463.522	23333.53
463.727	24027.79
463.932	24736.39
464.138	25576.06
464.343	26536.56
464.549	26915.43
464.754	28498.51
464.959	29678.14
465.165	29854.26
465.37	29346.37
465.575	29647.42
465.781	31754.78
465.986	32750.09
466.191	32154.13
466.397	32340.5
466.602	31650.33
466.807	33481.22
467.012	33962.49
467.218	34628.08
467.423	34980.33
467.628	35809.76
467.833	37472.71
468.038	36800.97
468.244	36561.36
468.449	38089.15
468.654	37345.73
468.859	36993.48
469.064	37364.17
469.269	36501.97
469.474	36745.68
469.679	37798.34
469.885	36415.96
470.09	37196.23
470.295	37308.87
470.5	36698.58
470.705	36800.97
470.91	35750.37
471.115	35494.37
471.32	35848.67
471.525	35805.66
471.73	34832.88
471.935	34615.79
472.139	33442.31
472.344	33032.71
472.549	33237.51
472.754	32295.44
472.959	31771.16
473.164	30863.91
473.369	30276.15
473.574	31091.24
473.778	30777.9
473.983	30034.49
474.188	29309.5
474.393	28119.63
474.598	27568.73
474.802	27200.1
475.007	27015.78
475.212	26802.79
475.417	25760.37
475.621	25328.25
475.826	25213.57
476.031	24760.97
476.235	24070.8
476.44	24085.14
476.645	23718.55
476.849	23224.99
477.054	22903.46
477.259	22276.78
477.463	22244.01
477.668	21398.2
477.872	21818.04
478.077	20857.54
478.282	20474.57
478.486	20316.87
478.691	19876.56
478.895	19905.23
479.1	19442.39
479.304	19542.74
479.509	18840.29
479.713	19106.52
479.918	18748.13
480.122	18434.79
480.326	18422.5
480.531	18256.62
480.735	17916.65
480.94	18109.16
481.144	18449.13
481.348	17709.81
481.553	17795.82
481.757	17203.96
481.961	17265.4
482.166	17271.54
482.37	16851.71
482.574	16708.35
482.778	16833.28
482.983	16790.27
483.187	16608
483.391	16462.6
483.595	16274.18
483.8	15917.84
484.004	15991.56
484.208	16024.33
484.412	15774.48
484.616	15608.59
484.821	15541.01
485.025	14850.85
485.229	15012.63
485.433	14846.75
485.637	14807.84
485.841	14406.44
486.045	14437.16
486.249	14211.88
486.453	13919.02
486.657	13638.45
486.861	13728.56
487.065	13095.74
487.269	12806.97
487.473	12870.46
487.677	12899.13
487.881	12798.78
488.085	12163.91
488.289	12403.52
488.493	11957.07
488.697	11887.43
488.901	11627.34
489.105	11250.52
489.309	11115.35
489.512	10892.12
489.716	10793.82
489.92	10562.4
490.124	10378.08
490.328	10388.32
490.531	10199.91
490.735	10109.8
490.939	9700.2
491.143	9552.75
491.346	9360.24
491.55	9225.08
491.754	9100.15
491.958	9188.21
492.161	8663.93
492.365	8854.39
492.569	8625.02
492.772	8506.24
492.976	8260.48
493.18	8344.45
493.383	8240
493.587	7994.25
493.79	8153.99
493.994	7740.3
494.197	7742.35
494.401	7590.8
494.605	7437.2
494.808	7596.94
495.012	7459.73
495.215	7580.56
495.419	7431.05
495.622	7263.12
495.825	7322.51
496.029	7228.31
496.232	7406.48
496.436	7181.2
496.639	7328.66
496.843	7050.13
497.046	7091.09
497.249	7375.76
497.453	7250.83
497.656	7080.85
497.859	7111.57
498.063	7281.55
498.266	7269.27
498.469	7089.04
498.673	7091.09
498.876	7279.5
499.079	7256.98
499.282	7168.91
499.485	7580.56
499.689	7420.81
499.892	7490.45
500.095	7541.64
500.298	7748.49
500.501	7328.66
500.705	7703.43
500.908	7762.83
501.111	7742.35
501.314	7820.17
501.517	8088.45
501.72	7967.62
501.923	7914.38
502.126	8094.6
502.329	8385.41
502.532	8344.45
502.735	8403.84
502.938	8676.22
503.141	8602.49
503.344	8686.46
503.547	9030.52
503.75	8850.3
503.953	9087.86
504.156	9292.66
504.359	9438.06
504.562	9511.79
504.765	9724.78
504.968	9775.98
505.17	9833.32
505.373	10083.17
505.576	10189.67
505.779	10324.83
505.982	10314.59
506.185	10931.03
506.387	10990.42
506.59	10976.09
506.793	11520.85
506.996	11332.44
507.198	11832.14
507.401	11926.35
507.604	12202.82
507.807	12409.67
508.009	12733.25
508.212	12794.68
508.415	13054.78
508.617	13282.1
508.82	13368.12
509.022	13617.97
509.225	14267.17
509.428	14394.15
509.63	14742.3
509.833	14773.02
510.035	15768.34
510.238	15733.52
510.44	15934.22
510.643	16489.22
510.845	16612.1
511.048	17128.19
511.25	17210.11
511.453	17795.82
511.655	18612.96
511.858	18651.88
512.06	19415.77
512.262	19366.62
512.465	19919.57
512.667	20134.6
512.87	20902.59
513.072	20957.89
513.274	21850.8
513.477	22237.87
513.679	22669.99
513.881	23212.7
514.084	23986.83
514.286	24240.78
514.488	24803.97
514.69	25729.66
514.893	26139.25
515.095	26212.98
515.297	27021.92
515.499	27462.24
515.701	28439.12
515.904	28811.85
516.106	29446.72
516.308	30116.4
516.51	30814.76
516.712	30980.65
516.914	31691.29
517.116	32254.48
517.318	33040.9
517.52	33427.97
517.722	34089.46
517.925	35080.68
518.127	35586.53
518.329	36229.59
518.531	36284.89
518.733	37231.05
518.935	38140.35
519.136	38261.18
519.338	39125.42
519.54	39766.43
519.742	40575.38
519.944	40716.69
520.146	41466.25
520.348	42191.23
520.55	42684.79
520.752	43235.69
520.954	44061.02
521.155	43690.34
521.357	45068.62
521.559	45146.45
521.761	45836.61
521.963	46078.27
522.164	46557.5
522.366	46856.5
522.568	47690.02
522.77	47679.78
522.971	48433.44
523.173	48361.76
523.375	48863.51
523.576	48847.13
523.778	48597.27
523.98	49541.39
524.181	49973.51
524.383	49879.3
524.584	50440.45
524.786	50606.33
524.988	50170.11
525.189	50493.69
525.391	50739.45
525.592	50723.07
525.794	50690.3
525.995	50727.16
526.197	50858.23
526.398	50671.87
526.6	50997.49
526.801	50614.52
527.003	50872.57
527.204	50440.45
527.406	50628.86
527.607	50225.41
527.808	50317.57
528.01	48945.43
528.211	49449.23
528.412	49484.04
528.614	49449.23
528.815	48904.47
529.016	48771.35
529.218	47925.54
529.419	48034.08
529.62	47397.16
529.822	46866.74
530.023	46586.17
530.224	46162.24
530.425	45783.37
530.626	44654.93
530.828	44562.78
531.029	44988.75
531.23	43972.96
531.431	43100.53
531.632	43473.26
531.833	42463.61
532.035	42324.35
532.236	41234.83
532.437	40931.73
532.638	40573.33
532.839	40104.35
533.04	40036.77
533.241	38840.75
533.442	38871.47
533.643	38029.76
533.844	37994.94
534.045	37532.1
534.246	36538.83
534.447	36567.51
534.648	35781.09
534.849	35310.05
535.05	34595.31
535.251	34189.81
535.451	33946.11
535.652	33546.75
535.853	32829.96
536.054	32778.76
536.255	32256.53
536.456	31511.07
536.657	31777.31
536.857	30544.43
537.058	30468.66
537.259	30188.08
537.46	29772.35
537.66	29286.98
537.861	28693.07
538.062	28303.95
538.263	28232.27
538.463	27757.14
538.664	27538.01
538.865	27177.57
539.065	27023.97
539.266	26485.36
539.466	26268.27
539.667	25444.99
539.868	25881.21
540.068	25270.91
540.269	25047.68
540.469	24889.99
540.67	24066.7
540.87	23964.31
541.071	23763.61
541.271	23489.18
541.472	23220.89
541.672	22751.91
541.873	22561.45
542.073	22231.72
542.274	22153.9
542.474	21881.52
542.675	21758.64
542.875	21858.99
543.075	21267.13
543.276	20955.84
543.476	21050.05
543.676	20382.41
543.877	20140.75
544.077	20277.96
544.277	19833.55
544.478	19575.51
544.678	19518.17
544.878	19184.35
545.078	19127
545.279	18672.36
545.479	18594.53
545.679	18621.16
545.879	17961.71
546.079	17933.04
546.28	17773.3
546.48	17578.74
546.68	17570.55
546.88	17152.76
547.08	17138.43
547.28	16851.71
547.48	16241.42
547.68	16401.16
547.88	15936.27
548.081	15876.88
548.281	15704.85
548.481	15465.24
548.681	15137.56
548.881	15045.4
549.081	15123.23
549.28	14396.2
549.48	14568.23
549.68	14318.37
549.88	14324.52
550.08	13765.42
550.28	13898.54
550.48	13796.14
550.68	13454.13
550.88	13052.73
551.08	12993.34
551.279	12931.9
551.479	12391.23
551.679	12344.13
551.879	12229.45
552.079	12176.2
552.278	12084.04
552.478	11752.27
552.678	11570
552.878	11578.19
553.077	11320.15
553.277	10824.54
553.477	10924.89
553.676	10793.82
553.876	10498.91
554.076	10373.99
554.275	10255.2
554.475	10105.7
554.674	9995.11
554.874	9964.39
555.074	9626.48
555.273	9526.13
555.473	9364.34
555.672	8919.93
555.872	9100.15
556.071	8878.97
556.271	8897.4
556.47	8518.53
556.67	8448.9
556.869	8240
557.068	8180.61
557.268	7967.62
557.467	8018.82
557.667	7908.23
557.866	7562.12
558.065	7549.84
558.265	7392.14
558.464	7084.95
558.663	7203.73
558.863	7080.85
559.062	7107.48
559.261	6763.42
559.461	6871.96
559.66	6738.84
559.859	6460.32
560.058	6206.37
560.258	6314.91
560.457	6089.64
560.656	6194.08
560.855	5913.51
561.054	5874.6
561.253	5669.8
561.453	5856.17
561.652	5647.27
561.851	5704.62
562.05	5473.2
562.249	5204.91
562.448	5452.72
562.647	5049.27
562.846	5133.23
563.045	5104.56
563.244	5004.21
563.443	4918.2
563.642	4758.46
563.841	4895.67
564.04	4699.06
564.239	4672.44
564.438	4533.18
564.637	4432.83
564.836	4426.68
565.035	4494.27
565.234	4266.94
565.432	4340.67
565.631	4144.06
565.83	4058.05
566.029	4086.72
566.228	4017.09
566.427	3914.69
566.625	3779.53
566.824	3802.05
567.023	3726.28
567.222	3742.66
567.42	3726.28
567.619	3529.67
567.818	3623.88
568.016	3572.68
568.215	3562.44
568.414	3587.02
568.612	3404.75
568.811	3257.29
569.01	3279.82
569.208	3130.32
569.407	3281.87
569.605	3167.18
569.804	3118.03
570.002	3120.08
570.201	2968.53
570.4	3079.12
570.598	3023.83
570.797	2950.1
570.995	2862.04
571.193	2757.59
571.392	2825.17
571.59	2567.13
571.789	2771.93
571.987	2550.75
572.186	2640.86
572.384	2636.76
572.582	2454.49
572.781	2552.79
572.979	2495.45
573.177	2313.18
573.376	2376.67
573.574	2368.48
573.772	2145.25
573.971	2239.45
574.169	2040.8
574.367	2184.16
574.565	2124.77
574.763	2126.82
574.962	2102.24
575.16	1946.59
575.358	2030.56
575.556	1985.51
575.754	1930.21
575.952	1977.31
576.151	1930.21
576.349	1868.77
576.547	1717.22
576.745	1790.95
576.943	1829.86
577.141	1772.52
577.339	1649.64
577.537	1686.5
577.735	1788.9
577.933	1600.49
578.131	1479.66
578.329	1684.45
578.527	1391.59
578.725	1612.78
578.923	1485.8
579.121	1461.23
579.319	1295.34
579.516	1450.99
579.714	1586.15
579.912	1471.47
580.11	1321.96
580.308	1266.67
580.506	1297.39
580.704	1199.09
580.901	1242.09
581.099	1340.4
581.297	1164.27
581.495	1268.72
581.692	1104.88
581.89	1305.58
582.088	1303.53
582.285	1227.76
582.483	1086.45
582.681	1096.69
582.878	1086.45
583.076	1131.5
583.274	1076.21
583.471	1100.78
583.669	1100.78
583.866	947.19
584.064	930.8
584.262	1006.58
584.459	922.61
584.657	1037.3
584.854	1029.1
585.052	895.99
585.249	1008.62
585.447	900.08
585.644	787.44
585.841	992.24
586.039	859.12
586.236	904.18
586.434	904.18
586.631	809.97
586.828	803.83
587.026	799.73
587.223	719.86
587.42	678.9
587.618	705.53
587.815	920.56
588.012	754.68
588.21	699.38
588.407	791.54
588.604	752.63
588.801	656.37
588.999	740.34
589.196	719.86
589.393	650.23
589.59	678.9
589.787	787.44
589.984	678.9
590.182	736.24
590.379	633.85
590.576	635.89
590.773	689.14
590.97	627.7
591.167	723.96
591.364	709.62
591.561	582.65
591.758	791.54
591.955	654.33
592.152	674.81
592.349	623.61
592.546	625.65
592.743	648.18
592.94	621.56
593.137	615.41
593.334	699.38
593.531	646.13
593.727	656.37
593.924	631.8
594.121	742.39
594.318	701.43
594.515	721.91
594.712	795.64
594.908	855.03
595.105	596.98
595.302	719.86
595.499	658.42
595.696	726
595.892	596.98
596.089	814.07
596.286	723.96
596.482	822.26
596.679	830.45
596.876	697.33
597.072	814.07
597.269	873.46
597.466	756.72
597.662	881.65
597.859	885.75
598.055	818.16
598.252	895.99
598.448	889.84
598.645	1006.58
598.841	1082.35
599.038	1231.85
599.234	1182.7
599.431	1262.57
599.627	1139.69
599.824	1283.05
600.02	1283.05
600.217	1213.42
600.413	1496.04
600.609	1383.4
600.806	1686.5
601.002	1532.9
601.198	1518.57
601.395	1704.93
601.591	1790.95
601.787	1823.72
601.984	1817.57
602.18	1960.93
602.376	1915.87
602.572	2137.06
602.769	2225.12
602.965	2130.91
603.161	2335.71
603.357	2454.49
603.553	2661.34
603.75	2438.11
603.946	2493.4
604.142	2671.58
604.338	2874.32
604.534	2862.04
604.73	3075.03
604.926	2966.48
605.122	3394.51
605.318	3263.44
605.514	3544.01
605.71	3341.26
605.906	3507.15
606.102	3630.02
606.298	3843.01
606.494	3959.75
606.69	4080.58
606.886	4031.43
607.082	4121.54
607.278	4391.87
607.474	4508.6
607.67	4690.87
607.866	4617.15
608.062	4879.29
608.257	4905.91
608.453	4938.68
608.649	5020.6
608.845	5209.01
609.041	5434.29
609.236	5673.9
609.432	5596.07
609.628	5897.13
609.824	6282.14
610.019	6239.14
610.215	6636.44
610.411	6742.94
610.606	7035.8
610.802	6931.35
610.998	7091.09
611.193	7248.79
611.389	7488.4
611.584	7480.21
611.78	7742.35
611.976	8033.16
612.171	8299.39
612.367	8522.62
612.562	8625.02
612.758	8948.6
612.953	8985.46
613.149	9393.01
613.344	9538.41
613.539	9960.3
613.735	10191.72
613.93	10388.32
614.126	10744.67
614.321	11047.77
614.517	11279.19
614.712	11522.9
614.907	11774.8
615.103	12063.56
615.298	12436.29
615.493	12802.88
615.688	12819.26
615.884	13398.84
616.079	13333.3
616.274	13974.31
616.47	14228.26
616.665	14852.89
616.86	15139.61
617.055	15205.14
617.25	15624.98
617.445	16210.7
617.641	16347.91
617.836	17015.55
618.031	17115.9
618.226	18033.39
618.421	18184.94
618.616	18764.51
618.811	18809.57
619.006	19530.45
619.201	19671.76
619.396	20359.88
619.591	20423.37
619.786	21213.88
619.981	21318.33
620.176	22250.16
620.371	22338.22
620.566	22805.16
620.761	23122.59
620.956	23839.38
621.151	23736.98
621.346	24898.18
621.541	24855.17
621.735	26020.47
621.93	26028.66
622.125	26673.77
622.32	27032.16
622.515	27650.65
622.709	28074.58
622.904	28176.98
623.099	28758.6
623.294	29758.01
623.488	30030.39
623.683	30677.55
623.878	30755.37
624.072	31439.39
624.267	32082.45
624.462	32451.09
624.656	32766.48
624.851	33348.1
625.046	33569.28
625.24	34171.38
625.435	34877.93
625.629	35256.81
625.824	35613.15
626.018	35944.92
626.213	36268.5
626.407	37106.12
626.602	36848.08
626.796	37648.83
626.991	37685.7
627.185	38343.09
627.38	38554.04
627.574	38537.65
627.768	38984.11
627.963	38900.14
628.157	38998.44
628.352	39815.58
628.546	39016.88
628.74	39375.27
628.935	38877.61
629.129	39797.15
629.323	39186.86
629.517	39137.71
629.712	38746.54
629.906	38939.05
630.1	38054.33
630.294	37712.32
630.489	37132.75
630.683	37480.9
630.877	36057.56
631.071	35424.74
631.265	35336.68
631.459	34650.61
631.653	33962.49
631.848	32930.31
632.042	32393.75
632.236	31910.43
632.43	30501.42
632.624	29880.89
632.818	29117
633.012	28244.56
633.206	27257.44
633.4	26450.54
633.594	25672.31
633.788	24902.28
633.982	23974.55
634.176	23427.74
634.369	22198.96
634.563	21611.19
634.757	20515.53
634.951	20085.45
635.145	19174.11
635.339	18459.37
635.533	17533.68
635.726	17134.33
635.92	16229.13
636.114	15530.77
636.308	15160.09
636.501	14492.45
636.695	13701.93
636.889	13464.37
637.083	12694.33
637.276	12147.53
637.47	11613.01
637.664	11273.04
637.857	10666.85
638.051	10416.99
638.244	9964.39
638.438	9460.59
638.632	9139.06
638.825	8657.79
639.019	8278.91
639.212	8133.51
639.406	7660.43
639.599	7517.07
639.793	7023.51
639.986	7054.23
640.18	6699.93
640.373	6362.01
640.567	6071.2
640.76	6026.15
640.954	5739.43
641.147	5340.08
641.34	5129.14
641.534	4979.64
641.727	4977.59
641.92	4633.53
642.114	4400.06
642.307	4277.18
642.5	4109.25
642.694	3890.12
642.887	3822.53
643.08	3795.91
643.273	3621.83
643.467	3298.25
643.66	3255.25
643.853	3222.48
644.046	3058.64
644.239	3003.35
644.432	2769.88
644.626	2585.56
644.819	2612.18
645.012	2513.88
645.205	2470.87
645.398	2348
645.591	2175.97
645.784	2022.37
645.977	1954.79
646.17	2083.81
646.363	1879.01
646.556	1737.7
646.749	1749.99
646.942	1829.86
647.135	1686.5
647.328	1577.96
647.521	1487.85
647.714	1448.94
647.907	1463.27
648.099	1285.1
648.292	1319.92
648.485	1278.96
648.678	1291.24
648.871	1201.13
649.064	1133.55
649.256	1031.15
649.449	1049.58
649.642	900.08
649.835	963.57
650.027	857.07
650.22	1092.59
650.413	822.26
650.605	906.23
650.798	756.72
650.991	793.59
651.183	730.1
651.376	734.2
651.568	764.92
651.761	590.84
651.954	654.33
652.146	680.95
652.339	639.99
652.531	623.61
652.724	537.59
652.916	553.98
653.109	410.62
653.301	705.53
653.494	654.33
653.686	584.7
653.879	603.13
654.071	558.07
654.263	349.18
654.456	386.04
654.648	451.58
654.84	406.52
655.033	427
655.225	521.21
655.417	297.98
655.61	447.48
655.802	504.82
655.994	441.34
656.186	285.69
656.379	457.72
656.571	246.78
656.763	261.12
656.955	275.45
657.148	343.03
657.34	439.29
657.532	308.22
657.724	332.79
657.916	291.84
658.108	373.75
658.3	320.51
658.492	392.19
658.684	273.4
658.876	287.74
659.068	222.2
659.26	160.77
659.452	195.58
659.644	314.36
659.836	449.53
660.028	297.98
660.22	160.77
660.412	285.69
660.604	152.57
660.796	234.49
660.988	343.03
661.18	250.88
661.372	259.07
661.563	222.2
661.755	283.64
661.947	189.44
662.139	160.77
662.331	173.05
662.522	183.29
662.714	125.95
662.906	162.81
663.097	209.92
663.289	87.04
663.481	117.76
663.673	193.53
663.864	244.73
664.056	218.11
664.247	72.7
664.439	349.18
664.631	199.68
664.822	279.55
665.014	209.92
665.205	91.13
665.397	119.81
665.588	166.91
665.78	144.38
665.971	181.25
666.163	87.04
666.354	189.44
666.546	78.85
666.737	158.72
666.929	119.81
667.12	113.66
667.311	125.95
667.503	162.81
667.694	87.04
667.885	128
668.077	236.54
668.268	33.79
668.459	82.94
668.651	128
668.842	183.29
669.033	35.84
669.224	52.22
669.416	332.79
669.607	132.09
669.798	60.42
669.989	142.33
670.18	168.96
670.371	222.2
670.563	5.12
670.754	242.68
670.945	138.24
671.136	191.49
671.327	91.13
671.518	211.96
671.709	369.66
671.9	164.86
672.091	195.58
672.282	140.29
672.473	142.33
672.664	144.38
672.855	193.53
673.046	162.81
673.237	164.86
673.428	89.09
673.619	205.82
673.809	214.01
674	238.59
674.191	207.87
674.382	220.16
674.573	144.38
674.764	211.96
674.954	261.12
675.145	130.05
675.336	119.81
675.527	115.71
675.717	103.42
675.908	199.68
676.099	101.37
676.289	181.25
676.48	70.65
676.671	236.54
676.861	97.28
677.052	279.55
677.243	201.72
677.433	113.66
677.624	181.25
677.814	123.9
678.005	173.05
678.195	293.88
678.386	148.48
678.576	252.92
678.767	136.19
678.957	189.44
679.148	297.98
679.338	353.27
679.529	205.82
679.719	152.57
679.909	197.63
680.1	150.53
680.29	214.01
680.481	173.05
680.671	291.84
680.861	144.38
681.052	289.79
681.242	146.43
681.432	148.48
681.622	179.2
681.813	142.33
682.003	144.38
682.193	246.78
682.383	277.5
682.573	226.3
682.764	201.72
682.954	162.81
683.144	336.89
683.334	193.53
683.524	205.82
683.714	289.79
683.904	277.5
684.094	259.07
684.284	259.07
684.474	332.79
684.664	291.84
684.854	216.06
685.044	252.92
685.234	207.87
685.424	330.75
685.614	242.68
685.804	349.18
685.994	295.93
686.184	269.31
686.374	244.73
686.564	340.99
686.753	222.2
686.943	179.2
687.133	197.63
687.323	281.6
687.513	322.56
687.702	220.16
687.892	269.31
688.082	320.51
688.272	312.32
688.461	177.15
688.651	308.22
688.841	197.63
689.03	267.26
689.22	187.39
689.41	230.4
689.599	271.36
689.789	128
689.979	449.53
690.168	238.59
690.358	300.03
690.547	218.11
690.737	232.44
690.926	222.2
691.116	259.07
691.305	328.7
691.495	254.97
691.684	119.81
691.874	173.05
692.063	224.25
692.252	216.06
692.442	248.83
692.631	250.88
692.82	203.77
693.01	236.54
693.199	209.92
693.388	240.64
693.578	183.29
693.767	287.74
693.956	308.22
694.146	310.27
694.335	211.96
694.524	234.49
694.713	261.12
694.902	226.3
695.092	152.57
695.281	259.07
695.47	244.73
695.659	240.64
695.848	154.62
696.037	168.96
696.226	287.74
696.415	224.25
696.604	216.06
696.793	271.36
696.982	152.57
697.171	386.04
697.36	150.53
697.549	156.67
697.738	7.17
697.927	197.63
698.116	136.19
698.305	205.82
698.494	218.11
698.683	191.49
698.872	408.57
699.061	220.16
699.25	99.33
699.438	181.25
699.627	152.57
699.816	369.66
700.005	254.97
700.193	263.16
700.382	263.16
700.571	197.63
700.76	138.24
700.948	304.12
701.137	287.74
701.326	281.6
701.514	78.85
701.703	308.22
701.892	158.72
702.08	285.69
702.269	197.63
702.457	166.91
702.646	218.11
702.834	156.67
703.023	318.46
703.212	269.31
703.4	209.92
703.589	187.39
703.777	150.53
703.965	148.48
704.154	214.01
704.342	193.53
704.531	93.18
704.719	216.06
704.907	259.07
705.096	218.11
705.284	123.9
705.472	173.05
705.661	193.53
705.849	297.98
706.037	234.49
706.226	230.4
706.414	179.2
706.602	228.35
706.79	216.06
706.979	80.89
707.167	209.92
707.355	103.42
707.543	209.92
707.731	250.88
707.919	263.16
708.107	166.91
708.296	80.89
708.484	166.91
708.672	162.81
708.86	334.84
709.048	113.66
709.236	125.95
709.424	216.06
709.612	205.82
709.8	119.81
709.988	224.25
710.176	259.07
710.364	244.73
710.551	306.17
710.739	97.28
710.927	160.77
711.115	130.05
711.303	218.11
711.491	240.64
711.679	91.13
711.866	312.32
712.054	119.81
712.242	252.92
712.43	310.27
712.617	207.87
712.805	222.2
712.993	250.88
713.181	134.14
713.368	238.59
713.556	146.43
713.744	95.23
713.931	312.32
714.119	277.5
714.306	203.77
714.494	201.72
714.682	205.82
714.869	173.05
715.057	185.34
715.244	101.37
715.432	175.1
715.619	203.77
715.807	113.66
715.994	119.81
716.182	230.4
716.369	218.11
716.556	295.93
716.744	154.62
716.931	130.05
717.119	265.21
717.306	205.82
717.493	246.78
717.681	130.05
717.868	244.73
718.055	310.27
718.242	220.16
718.43	246.78
718.617	300.03
718.804	265.21
718.991	312.32
719.179	248.83
719.366	228.35
719.553	164.86
719.74	99.33
719.927	228.35
720.114	234.49
720.301	95.23
720.488	158.72
720.676	142.33
720.863	283.64
721.05	340.99
721.237	207.87
721.424	191.49
721.611	234.49
721.798	162.81
721.985	214.01
722.172	148.48
722.358	156.67
722.545	345.08
722.732	175.1
722.919	306.17
723.106	234.49
723.293	226.3
723.48	230.4
723.667	177.15
723.853	297.98
724.04	316.41
724.227	328.7
724.414	183.29
724.6	330.75
724.787	267.26
724.974	416.76
725.161	257.02
725.347	146.43
725.534	257.02
725.72	273.4
725.907	283.64
726.094	330.75
726.28	201.72
726.467	140.29
726.653	175.1
726.84	345.08
727.027	394.23
727.213	214.01
727.4	261.12
727.586	224.25
727.773	285.69
727.959	220.16
728.145	263.16
728.332	228.35
728.518	142.33
728.705	332.79
728.891	293.88
729.077	150.53
729.264	166.91
729.45	261.12
729.636	357.37
729.823	244.73
730.009	263.16
730.195	310.27
730.382	250.88
730.568	132.09
730.754	261.12
730.94	285.69
731.126	252.92
731.313	257.02
731.499	283.64
731.685	293.88
731.871	390.14
732.057	244.73
732.243	300.03
732.429	287.74
732.615	334.84
732.801	324.6
732.987	261.12
733.173	263.16
733.359	269.31
733.545	388.09
733.731	197.63
733.917	295.93
734.103	228.35
734.289	263.16
734.475	232.44
734.661	427
734.847	277.5
735.033	162.81
735.219	381.95
735.404	209.92
735.59	148.48
735.776	197.63
735.962	281.6
736.148	310.27
736.333	353.27
736.519	291.84
736.705	265.21
736.89	228.35
737.076	242.68
737.262	140.29
737.447	236.54
737.633	197.63
737.819	244.73
738.004	216.06
738.19	224.25
738.375	263.16
738.561	242.68
738.747	308.22
738.932	136.19
739.118	418.81
739.303	291.84
739.489	355.32
739.674	195.58
739.859	191.49
740.045	326.65
740.23	300.03
740.416	103.42
740.601	287.74
740.786	211.96
740.972	287.74
741.157	201.72
741.342	211.96
741.528	201.72
741.713	338.94
741.898	318.46
742.084	257.02
742.269	152.57
742.454	365.56
742.639	246.78
742.824	259.07
743.01	322.56
743.195	347.13
743.38	250.88
743.565	254.97
743.75	257.02
743.935	310.27
744.12	254.97
744.305	150.53
744.49	224.25
744.675	295.93
744.86	226.3
745.045	293.88
745.23	230.4
745.415	302.08
745.6	388.09
745.785	185.34
745.97	257.02
746.155	248.83
746.34	332.79
746.525	173.05
746.71	316.41
746.895	160.77
747.079	197.63
747.264	220.16
747.449	287.74
747.634	289.79
747.819	201.72
748.003	226.3
748.188	54.27
748.373	347.13
748.557	214.01
748.742	168.96
748.927	203.77
749.111	216.06
749.296	214.01
749.481	242.68
749.665	140.29
749.85	97.28
750.034	254.97
750.219	220.16
750.404	224.25
750.588	234.49
750.773	128
750.957	205.82
751.141	177.15
751.326	275.45
751.51	146.43
751.695	179.2
751.879	111.61
752.064	310.27
752.248	281.6
752.432	322.56
752.617	195.58
752.801	228.35
752.985	187.39
753.17	162.81
753.354	205.82
753.538	203.77
753.722	189.44
753.907	148.48
754.091	89.09
754.275	232.44
754.459	46.08
754.643	152.57
754.828	132.09
755.012	201.72
755.196	128
755.38	209.92
755.564	87.04
755.748	140.29
755.932	193.53
756.116	216.06
756.3	218.11
756.484	175.1
756.668	273.4
756.852	109.57
757.036	89.09
757.22	162.81
757.404	115.71
757.588	193.53
757.772	183.29
757.956	187.39
758.14	291.84
758.323	58.37
758.507	152.57
758.691	136.19
758.875	177.15
759.059	310.27
759.242	87.04
759.426	203.77
759.61	107.52
759.794	158.72
759.977	144.38
760.161	402.43
760.345	240.64
760.528	89.09
760.712	140.29
760.895	207.87
761.079	162.81
761.263	82.94
761.446	35.84
761.63	93.18
761.813	140.29
761.997	33.79
762.18	115.71
762.364	183.29
762.547	21.5
762.731	111.61
762.914	138.24
763.098	70.65
763.281	119.81
763.464	56.32
763.648	121.85
763.831	80.89
764.015	17.41
764.198	171.01
764.381	111.61
764.564	123.9
764.748	171.01
764.931	136.19
765.114	52.22
765.297	87.04
765.481	17.41
765.664	33.79
765.847	134.14
766.03	158.72
766.213	66.56
766.397	99.33
766.58	1.02
766.763	123.9
766.946	64.51
767.129	44.03
767.312	25.6
767.495	48.13
767.678	91.13
767.861	128
768.044	99.33
768.227	29.7
768.41	60.42
768.593	146.43
768.776	134.14
768.959	113.66
769.142	185.34
769.324	31.74
769.507	52.22
769.69	68.61
769.873	54.27
770.056	269.31
770.239	62.46
770.421	123.9
770.604	93.18
770.787	48.13
770.97	113.66
771.152	101.37
771.335	103.42
771.518	97.28
771.7	168.96
771.883	209.92
772.066	132.09
772.248	80.89
772.431	189.44
772.613	52.22
772.796	66.56
772.978	152.57
773.161	168.96
773.343	13.31
773.526	27.65
773.708	-23.55
773.891	13.31
774.073	46.08
774.256	-13.31
774.438	189.44
774.621	56.32
774.803	66.56
774.985	121.85
775.168	97.28
775.35	52.22
775.532	95.23
775.715	-5.12
775.897	113.66
776.079	35.84
776.261	78.85
776.444	109.57
776.626	39.94
776.808	-1.02
776.99	-72.7
777.173	64.51
777.355	13.31
777.537	70.65
777.719	76.8
777.901	76.8
778.083	31.74
778.265	-21.5
778.447	115.71
778.629	-5.12
778.811	93.18
778.993	72.7
779.175	56.32
779.357	11.26
779.539	-123.9
779.721	13.31
779.903	74.75
780.085	62.46
780.267	9.22
780.449	35.84
780.631	76.8
780.812	115.71
780.994	54.27
781.176	33.79
781.358	78.85
781.54	52.22
781.721	33.79
781.903	68.61
782.085	52.22
782.267	121.85
782.448	-70.65
782.63	46.08
782.812	58.37
782.993	60.42
783.175	130.05
783.357	-66.56
783.538	107.52
783.72	-29.7
783.901	-1.02
784.083	50.18
784.264	105.47
784.446	17.41
784.627	-46.08
784.809	25.6
784.99	41.98
785.172	19.46
785.353	50.18
785.535	82.94
785.716	-5.12
785.897	-13.31
786.079	-9.22
786.26	52.22
786.441	-3.07
786.623	-41.98
786.804	68.61
786.985	29.7
787.167	72.7
787.348	35.84
787.529	3.07
787.71	205.82
787.891	132.09
788.073	37.89
788.254	-54.27
788.435	183.29
788.616	37.89
788.797	17.41
788.978	5.12
789.159	-35.84
789.34	113.66
789.522	-41.98
789.703	13.31
789.884	82.94
790.065	-7.17
790.246	218.11
790.427	27.65
790.607	113.66
790.788	-7.17
790.969	25.6
791.15	93.18
791.331	27.65
791.512	119.81
791.693	-70.65
791.874	25.6
792.054	197.63
792.235	146.43
792.416	-11.26
792.597	33.79
792.778	82.94
792.958	62.46
793.139	29.7
793.32	56.32
793.5	-66.56
793.681	87.04
793.862	13.31
794.042	58.37
794.223	-39.94
794.404	-3.07
794.584	-41.98
794.765	27.65
794.945	-52.22
795.126	91.13
795.306	152.57
795.487	-13.31
795.667	27.65
795.848	29.7
796.028	72.7
796.209	54.27
796.389	-31.74
796.57	29.7
796.75	-91.13
796.93	7.17
797.111	11.26
797.291	3.07
797.471	76.8
797.652	-29.7
797.832	-56.32
798.012	58.37
798.192	-9.22
798.373	-140.29
798.553	-72.7
798.733	39.94
798.913	25.6
799.093	19.46
799.274	-56.32
799.454	44.03
799.634	27.65
799.814	148.48
799.994	136.19
800.174	128
800.354	31.74
800.534	-166.91
800.714	13.31
800.894	-150.53
801.074	-41.98
801.254	21.5
801.434	82.94
801.614	-39.94
801.794	17.41
801.974	1504.23
802.154	-11.26
802.334	103.42
802.514	-33.79
802.693	-78.85
802.873	17.41
803.053	80.89
803.233	60.42
803.413	-39.94
803.592	-25.6
803.772	-74.75
803.952	23.55
804.131	-132.09
804.311	64.51
804.491	150.53
804.67	-37.89
804.85	15.36
805.03	44.03
805.209	187.39
805.389	-1.02
805.568	72.7
805.748	-17.41
805.928	3.07
806.107	84.99
806.287	123.9
806.466	41.98
806.646	17.41
806.825	-35.84
807.004	-39.94
807.184	39.94
807.363	35.84
807.543	39.94
807.722	-19.46
807.901	68.61
808.081	76.8
808.26	-105.47
808.439	-39.94
808.619	29.7
808.798	-66.56
808.977	41.98
809.156	152.57
809.336	-35.84
809.515	78.85
809.694	-103.42
809.873	-97.28
810.052	60.42
810.231	93.18
810.411	58.37
810.59	128
810.769	-3.07
810.948	117.76
811.127	-84.99
811.306	-31.74
811.485	-60.42
811.664	125.95
811.843	-5.12
812.022	-9.22
812.201	7.17
812.38	21.5
812.559	-15.36
812.737	5.12
812.916	-56.32
813.095	3.07
813.274	25.6
813.453	-41.98
813.632	80.89
813.811	39.94
813.989	-56.32
814.168	9.22
814.347	-117.76
814.526	58.37
814.704	39.94
814.883	72.7
815.062	-46.08
815.24	52.22
815.419	-11.26
815.598	-29.7
815.776	-105.47
815.955	-25.6
816.133	-66.56
816.312	-9.22
816.49	-27.65
816.669	3.07
816.847	-15.36
817.026	-3.07
817.204	-13.31
817.383	3.07
817.561	-117.76
817.74	41.98
817.918	13.31
818.097	-5.12
818.275	-19.46
818.453	1.02
818.632	117.76
818.81	21.5
818.988	-35.84
819.167	-52.22
819.345	31.74
819.523	-27.65
819.701	41.98
819.879	27.65
820.058	9.22
820.236	-17.41
820.414	-21.5
820.592	5.12
820.77	-13.31
820.948	-29.7
821.127	-25.6
821.305	25.6
821.483	-3.07
821.661	48.13
821.839	19.46
822.017	-76.8
822.195	-60.42
822.373	29.7
822.551	5.12
822.729	-50.18
822.907	19.46
823.085	80.89
823.262	-17.41
823.44	-60.42
823.618	-52.22
823.796	9.22
823.974	-44.03
824.152	-70.65
824.329	41.98
824.507	19.46
824.685	80.89
824.863	3.07
825.04	44.03
825.218	60.42
825.396	-9.22
825.574	-19.46
825.751	5.12
825.929	66.56
826.107	-130.05
826.284	80.89
826.462	39.94
826.639	-13.31
826.817	-148.48
826.994	-44.03
827.172	-7.17
827.349	70.65
827.527	-15.36
827.704	50.18
827.882	121.85
828.059	39.94
828.237	41.98
828.414	46.08
828.591	-80.89
828.769	27.65
828.946	-60.42
829.124	46.08
829.301	37.89
829.478	-44.03
829.655	31.74
829.833	-27.65
830.01	-93.18
830.187	-44.03
830.364	-3.07
830.542	3.07
830.719	148.48
830.896	80.89
831.073	-93.18
831.25	97.28
831.427	35.84
831.604	-31.74
831.782	-76.8
831.959	-39.94
832.136	-39.94
832.313	58.37
832.49	72.7
832.667	37.89
832.844	-93.18
833.021	-27.65
833.198	29.7
833.374	-78.85
833.551	-35.84
833.728	11.26
833.905	35.84
834.082	-93.18
834.259	25.6
834.436	162.81
834.612	9.22
834.789	37.89
834.966	35.84
835.143	-44.03
835.319	-93.18
835.496	60.42
835.673	15.36
835.85	48.13
836.026	72.7
836.203	119.81
836.38	-44.03
836.556	29.7
836.733	-50.18
836.909	189.44
837.086	-3.07
837.262	-107.52
837.439	62.46
837.616	-27.65
837.792	1.02
837.968	-7.17
838.145	-117.76
838.321	23.55
838.498	87.04
838.674	70.65
838.851	1.02
839.027	-46.08
839.203	9.22
839.38	60.42
839.556	-62.46
839.732	119.81
839.909	19.46
840.085	9.22
840.261	-13.31
840.437	33.79
840.614	-11.26
840.79	37.89
840.966	1.02
841.142	29.7
841.318	-44.03
841.494	-15.36
841.671	121.85
841.847	-11.26
842.023	-146.43
842.199	35.84
842.375	154.62
842.551	-113.66
842.727	-41.98
842.903	99.33
843.079	-91.13
843.255	140.29
843.431	-9.22
843.607	19.46
843.783	-50.18
843.959	9.22
844.134	11.26
844.31	37.89
844.486	-89.09
844.662	-46.08
844.838	-66.56
845.013	-7.17
845.189	68.61
845.365	-1.02
845.541	-50.18
845.716	31.74
845.892	66.56
846.068	-9.22
846.244	-115.71
846.419	52.22
846.595	-70.65
846.77	-35.84
846.946	17.41
847.122	-39.94
847.297	-29.7
847.473	154.62
847.648	-113.66
847.824	13.31
847.999	-68.61
848.175	17.41
848.35	70.65
848.526	130.05
848.701	37.89
848.876	95.23
849.052	74.75
849.227	-21.5
849.403	58.37
849.578	-5.12
849.753	37.89
849.929	74.75
850.104	-109.57
850.279	-95.23
850.454	33.79
850.63	62.46
850.805	50.18
850.98	27.65
851.155	3.07
851.33	48.13
851.505	-89.09
851.681	82.94
851.856	-35.84
852.031	33.79
852.206	-23.55
852.381	-156.67
852.556	52.22
852.731	-101.37
852.906	29.7
853.081	-31.74
853.256	72.7
853.431	-17.41
853.606	-33.79
853.781	-17.41
853.956	-158.72
854.131	-29.7
854.305	-66.56
854.48	82.94
854.655	-52.22
854.83	5.12
855.005	17.41
855.18	46.08
855.354	-39.94
855.529	5.12
855.704	-9.22
855.879	41.98
856.053	-123.9
856.228	-31.74
856.403	-89.09
856.577	64.51
856.752	-68.61
856.926	31.74
857.101	78.85
857.276	-31.74
857.45	80.89
857.625	70.65
857.799	13.31
857.974	9.22
858.148	-80.89
858.323	11.26
858.497	-66.56
858.672	-37.89
858.846	-44.03
859.02	48.13
859.195	-44.03
859.369	-56.32
859.543	-35.84
859.718	-33.79
859.892	56.32
860.066	-5.12
860.241	-54.27
860.415	21.5
860.589	-60.42
860.763	-15.36
860.938	-64.51
861.112	48.13
861.286	-1.02
861.46	17.41
861.634	-80.89
861.808	50.18
861.982	-7.17
862.157	-107.52
862.331	-89.09
862.505	-27.65
862.679	-93.18
862.853	60.42
863.027	-19.46
863.201	130.05
863.375	-39.94
863.549	35.84
863.722	70.65
863.896	11.26
864.07	-84.99
864.244	-52.22
864.418	58.37
864.592	-9.22
864.766	-82.94
864.939	19.46
865.113	-15.36
865.287	72.7
865.461	-46.08
865.634	80.89
865.808	3.07
865.982	-21.5
866.156	-7.17
866.329	-54.27
866.503	9.22
866.676	52.22
866.85	29.7
867.024	-87.04
867.197	31.74
867.371	-21.5
867.544	-23.55
867.718	-80.89
867.891	121.85
868.065	-123.9
868.238	29.7
868.412	70.65
868.585	46.08
868.759	-60.42
868.932	-9.22
869.105	-103.42
869.279	-76.8
869.452	-25.6
869.625	48.13
869.799	19.46
869.972	-99.33
870.145	-74.75
870.319	-7.17
870.492	-44.03
870.665	-48.13
870.838	-29.7
871.011	-117.76
871.185	31.74
871.358	-33.79
871.531	25.6
871.704	60.42
871.877	27.65
872.05	-37.89
872.223	9.22
872.396	-5.12
872.569	-17.41
872.742	-25.6
872.915	19.46
873.088	-103.42
873.261	-91.13
873.434	72.7
873.607	11.26
873.78	76.8
873.953	-60.42
874.126	31.74
874.299	54.27
874.471	-27.65
874.644	-27.65
874.817	64.51
874.99	142.33
875.163	-15.36
875.335	17.41
875.508	-25.6
875.681	84.99
875.853	-72.7
876.026	60.42
876.199	46.08
876.371	9.22
876.544	-60.42
876.717	-5.12
876.889	7.17
877.062	-7.17
877.234	-97.28
877.407	5.12
877.579	-35.84
877.752	-17.41
877.924	-87.04
878.097	11.26
878.269	54.27
878.442	9.22
878.614	54.27
878.786	-21.5
878.959	-52.22
879.131	-29.7
879.303	13.31
879.476	-17.41
879.648	97.28
879.82	-11.26
879.993	-48.13
880.165	-76.8
880.337	-156.67
880.509	48.13
880.681	-72.7
880.854	-25.6
881.026	66.56
881.198	199.68
881.37	-15.36
881.542	1.02
881.714	-19.46
881.886	5.12
882.058	5.12
882.23	48.13
882.402	-99.33
882.574	-7.17
882.746	111.61
882.918	140.29
883.09	37.89
883.262	-23.55
883.434	-13.31
883.606	-134.14
883.778	1.02
883.95	156.67
884.122	-39.94
884.293	-5.12
884.465	17.41
884.637	56.32
884.809	-109.57
884.98	101.37
885.152	44.03
885.324	46.08
885.496	-23.55
885.667	-64.51
885.839	-74.75
886.011	64.51
886.182	7.17
886.354	29.7
886.525	-39.94
886.697	-5.12
886.869	-13.31
887.04	29.7
887.212	87.04
887.383	130.05
887.555	-11.26
887.726	-76.8
887.897	-58.37
888.069	-25.6
888.24	50.18
888.412	11.26
888.583	-15.36
888.754	-37.89
888.926	-132.09
889.097	-80.89
889.268	-152.57
889.44	-29.7
889.611	-136.19
889.782	-80.89
889.953	-76.8
890.125	72.7
890.296	-111.61
890.467	-60.42
890.638	-25.6
890.809	-11.26
890.98	-91.13
891.151	19.46
891.323	97.28
891.494	46.08
891.665	80.89
891.836	-11.26
892.007	-54.27
892.178	21.5
892.349	66.56
892.52	-97.28
892.691	-44.03
892.862	-80.89
893.032	-123.9
893.203	-23.55
893.374	-25.6
893.545	-1.02
893.716	-44.03
893.887	84.99
894.057	-56.32
894.228	-5.12
894.399	-70.65
894.57	15.36
894.74	17.41
894.911	-1.02
895.082	-25.6
895.253	-44.03
895.423	33.79
895.594	-3.07
895.764	21.5
895.935	-68.61
896.106	-5.12
896.276	-52.22
896.447	-19.46
896.617	-82.94
896.788	-125.95
896.958	-5.12
897.129	-5.12
897.299	-27.65
897.47	117.76
897.64	44.03
897.81	-21.5
897.981	-11.26
898.151	-111.61
898.322	-19.46
898.492	-5.12
898.662	-35.84
898.832	-44.03
899.003	5.12
899.173	52.22
899.343	-91.13
899.513	-109.57
