Data from USB4F104151__167__11-04-51-736.txt Node

Date: Wed Feb 26 11:04:51 EST 2025
User: louis
Spectrometer: USB4F10415
Trigger mode: 4
Integration Time (sec): 1.000000E-1
Scans to average: 1
Electric dark correction enabled: true
Nonlinearity correction enabled: false
Boxcar width: 0
XAxis mode: Wavelengths
Number of Pixels in Spectrum: 3648
>>>>>Begin Spectral Data<<<<<
178.204	-367.27
178.424	-367.27
178.644	-367.27
178.864	-379.56
179.084	-408.23
179.304	-74.41
179.524	11.61
179.744	68.95
179.964	107.86
180.184	-37.55
180.404	-2.73
180.624	-49.83
180.844	25.94
181.064	-131.75
181.283	52.56
181.503	30.04
181.723	-0.68
181.943	-121.51
182.163	161.11
182.383	-51.88
182.602	-0.68
182.822	163.15
183.042	56.66
183.262	77.14
183.482	-109.23
183.701	54.61
183.921	38.23
184.141	-45.74
184.361	89.43
184.58	40.28
184.8	-0.68
185.02	-21.16
185.239	120.15
185.459	3.41
185.679	128.34
185.898	-74.41
186.118	77.14
186.338	27.99
186.557	132.44
186.777	-78.51
186.997	-37.55
187.216	52.56
187.436	66.9
187.655	58.71
187.875	83.28
188.095	11.61
188.314	124.24
188.534	146.77
188.753	-21.16
188.973	111.96
189.192	148.82
189.412	1.37
189.631	-37.55
189.851	44.37
190.07	169.3
190.29	-62.12
190.509	19.8
190.729	-23.21
190.948	179.54
191.168	255.31
191.387	95.57
191.607	-35.5
191.826	71
192.045	-17.07
192.265	85.33
192.484	-49.83
192.704	40.28
192.923	-64.17
193.142	23.89
193.362	120.15
193.581	101.72
193.8	71
194.02	126.29
194.239	50.52
194.458	95.57
194.678	3.41
194.897	-29.35
195.116	-6.83
195.335	52.56
195.555	23.89
195.774	-47.79
195.993	109.91
196.212	-53.93
196.432	15.7
196.651	9.56
196.87	-33.45
197.089	232.79
197.308	38.23
197.528	103.76
197.747	5.46
197.966	-2.73
198.185	163.15
198.404	-21.16
198.623	36.18
198.842	73.04
199.062	134.48
199.281	-19.11
199.5	71
199.719	27.99
199.938	-6.83
200.157	42.32
200.376	81.24
200.595	44.37
200.814	44.37
201.033	3.41
201.252	185.68
201.471	5.46
201.69	56.66
201.909	52.56
202.128	30.04
202.347	15.7
202.566	-2.73
202.785	-144.04
203.004	9.56
203.223	279.89
203.442	50.52
203.661	-21.16
203.879	9.56
204.098	83.28
204.317	32.08
204.536	21.84
204.755	-17.07
204.974	105.81
205.193	25.94
205.411	118.1
205.63	93.52
205.849	3.41
206.068	-0.68
206.287	-29.35
206.505	85.33
206.724	-0.68
206.943	-80.55
207.162	-10.92
207.381	40.28
207.599	34.13
207.818	83.28
208.037	-66.22
208.255	-47.79
208.474	36.18
208.693	17.75
208.911	-76.46
209.13	50.52
209.349	30.04
209.567	9.56
209.786	68.95
210.005	42.32
210.223	64.85
210.442	-84.65
210.661	77.14
210.879	85.33
211.098	27.99
211.316	9.56
211.535	91.48
211.753	5.46
211.972	21.84
212.191	-35.5
212.409	-43.69
212.628	58.71
212.846	13.65
213.065	97.62
213.283	136.53
213.502	11.61
213.72	44.37
213.938	-8.87
214.157	38.23
214.375	109.91
214.594	13.65
214.812	11.61
215.031	-15.02
215.249	52.56
215.467	44.37
215.686	-12.97
215.904	56.66
216.122	75.09
216.341	97.62
216.559	23.89
216.778	105.81
216.996	64.85
217.214	21.84
217.432	-0.68
217.651	-19.11
217.869	75.09
218.087	52.56
218.306	-0.68
218.524	27.99
218.742	-2.73
218.96	56.66
219.179	-80.55
219.397	19.8
219.615	238.93
219.833	50.52
220.051	-15.02
220.27	81.24
220.488	109.91
220.706	46.42
220.924	-53.93
221.142	-12.97
221.36	64.85
221.578	7.51
221.796	40.28
222.015	54.61
222.233	15.7
222.451	81.24
222.669	-72.36
222.887	79.19
223.105	9.56
223.323	95.57
223.541	44.37
223.759	81.24
223.977	3.41
224.195	130.39
224.413	30.04
224.631	81.24
224.849	9.56
225.067	208.21
225.285	-39.59
225.503	-10.92
225.721	-45.74
225.939	54.61
226.157	11.61
226.375	230.74
226.592	-23.21
226.81	48.47
227.028	79.19
227.246	54.61
227.464	38.23
227.682	103.76
227.9	50.52
228.117	-12.97
228.335	58.71
228.553	5.46
228.771	-33.45
228.989	34.13
229.206	97.62
229.424	-19.11
229.642	-41.64
229.86	-96.94
230.077	128.34
230.295	23.89
230.513	9.56
230.731	109.91
230.948	130.39
231.166	222.55
231.384	-19.11
231.601	-4.78
231.819	128.34
232.037	66.9
232.254	-19.11
232.472	-8.87
232.689	-45.74
232.907	146.77
233.125	-4.78
233.342	11.61
233.56	-23.21
233.777	-60.07
233.995	11.61
234.213	56.66
234.43	99.67
234.648	-29.35
234.865	21.84
235.083	34.13
235.3	68.95
235.518	40.28
235.735	66.9
235.953	138.58
236.17	-10.92
236.388	1.37
236.605	19.8
236.822	152.91
237.04	42.32
237.257	87.38
237.475	-23.21
237.692	-8.87
237.909	107.86
238.127	-17.07
238.344	38.23
238.562	-17.07
238.779	-51.88
238.996	-74.41
239.214	27.99
239.431	-6.83
239.648	38.23
239.865	40.28
240.083	75.09
240.3	5.46
240.517	13.65
240.735	7.51
240.952	136.53
241.169	44.37
241.386	75.09
241.603	3.41
241.821	-6.83
242.038	54.61
242.255	48.47
242.472	-45.74
242.689	-17.07
242.907	62.8
243.124	34.13
243.341	-0.68
243.558	-84.65
243.775	-101.03
243.992	-121.51
244.209	97.62
244.426	157.01
244.643	77.14
244.86	56.66
245.078	52.56
245.295	5.46
245.512	-35.5
245.729	-10.92
245.946	116.05
246.163	-23.21
246.38	-4.78
246.597	38.23
246.814	-2.73
247.031	44.37
247.248	54.61
247.464	83.28
247.681	7.51
247.898	42.32
248.115	38.23
248.332	-2.73
248.549	152.91
248.766	126.29
248.983	124.24
249.2	71
249.417	114
249.633	1.37
249.85	34.13
250.067	48.47
250.284	21.84
250.501	42.32
250.717	71
250.934	32.08
251.151	-0.68
251.368	13.65
251.585	17.75
251.801	114
252.018	-51.88
252.235	60.76
252.451	-37.55
252.668	-10.92
252.885	71
253.102	93.52
253.318	5.46
253.535	-0.68
253.752	3.41
253.968	-15.02
254.185	15.7
254.401	81.24
254.618	91.48
254.835	-33.45
255.051	85.33
255.268	48.47
255.484	109.91
255.701	-35.5
255.917	111.96
256.134	-53.93
256.351	132.44
256.567	-39.59
256.784	-15.02
257	-92.84
257.217	50.52
257.433	75.09
257.65	44.37
257.866	87.38
258.082	-27.31
258.299	-74.41
258.515	93.52
258.732	-15.02
258.948	-29.35
259.165	48.47
259.381	15.7
259.597	83.28
259.814	46.42
260.03	11.61
260.246	46.42
260.463	99.67
260.679	116.05
260.895	1.37
261.112	3.41
261.328	136.53
261.544	58.71
261.761	95.57
261.977	25.94
262.193	-64.17
262.409	1.37
262.626	-35.5
262.842	-6.83
263.058	-35.5
263.274	79.19
263.49	42.32
263.707	38.23
263.923	71
264.139	-78.51
264.355	-0.68
264.571	120.15
264.787	42.32
265.004	77.14
265.22	27.99
265.436	-60.07
265.652	-8.87
265.868	52.56
266.084	-2.73
266.3	44.37
266.516	-17.07
266.732	52.56
266.948	64.85
267.164	-4.78
267.38	50.52
267.596	48.47
267.812	165.2
268.028	44.37
268.244	-23.21
268.46	38.23
268.676	-23.21
268.892	40.28
269.108	-76.46
269.324	-41.64
269.54	-119.46
269.756	154.96
269.972	-39.59
270.188	46.42
270.403	-80.55
270.619	87.38
270.835	114
271.051	62.8
271.267	-29.35
271.483	-64.17
271.698	32.08
271.914	-37.55
272.13	25.94
272.346	-31.4
272.562	-2.73
272.777	111.96
272.993	-6.83
273.209	-4.78
273.425	109.91
273.64	-86.7
273.856	62.8
274.072	-39.59
274.287	-39.59
274.503	87.38
274.719	99.67
274.934	-86.7
275.15	-47.79
275.366	44.37
275.581	-0.68
275.797	50.52
276.012	13.65
276.228	44.37
276.444	-19.11
276.659	144.72
276.875	34.13
277.09	-55.98
277.306	-29.35
277.521	81.24
277.737	-15.02
277.952	68.95
278.168	40.28
278.383	13.65
278.599	-2.73
278.814	64.85
279.03	3.41
279.245	111.96
279.461	-10.92
279.676	97.62
279.892	15.7
280.107	-19.11
280.322	-2.73
280.538	-23.21
280.753	17.75
280.969	64.85
281.184	85.33
281.399	163.15
281.615	-55.98
281.83	52.56
282.045	-29.35
282.26	-76.46
282.476	-10.92
282.691	130.39
282.906	64.85
283.122	54.61
283.337	-37.55
283.552	34.13
283.767	-15.02
283.983	15.7
284.198	-55.98
284.413	73.04
284.628	-27.31
284.843	-12.97
285.058	118.1
285.274	-60.07
285.489	-8.87
285.704	107.86
285.919	52.56
286.134	-58.03
286.349	52.56
286.564	-6.83
286.779	114
286.995	-29.35
287.21	-47.79
287.425	58.71
287.64	19.8
287.855	71
288.07	-41.64
288.285	73.04
288.5	73.04
288.715	58.71
288.93	7.51
289.145	-15.02
289.36	66.9
289.575	-66.22
289.79	122.2
290.004	3.41
290.219	146.77
290.434	-8.87
290.649	25.94
290.864	-66.22
291.079	34.13
291.294	116.05
291.509	27.99
291.724	30.04
291.938	30.04
292.153	-21.16
292.368	-27.31
292.583	56.66
292.798	64.85
293.012	77.14
293.227	42.32
293.442	11.61
293.657	97.62
293.871	126.29
294.086	-23.21
294.301	183.63
294.516	46.42
294.73	48.47
294.945	50.52
295.16	-117.42
295.374	103.76
295.589	138.58
295.804	-27.31
296.018	85.33
296.233	114
296.447	21.84
296.662	-45.74
296.877	144.72
297.091	107.86
297.306	30.04
297.52	-2.73
297.735	11.61
297.949	-8.87
298.164	66.9
298.378	126.29
298.593	3.41
298.807	-17.07
299.022	77.14
299.236	60.76
299.451	-12.97
299.665	25.94
299.88	-2.73
300.094	34.13
300.309	-23.21
300.523	73.04
300.737	19.8
300.952	50.52
301.166	40.28
301.381	-47.79
301.595	-17.07
301.809	23.89
302.024	13.65
302.238	-10.92
302.452	114
302.667	-15.02
302.881	118.1
303.095	148.82
303.309	32.08
303.524	-23.21
303.738	-47.79
303.952	-15.02
304.166	136.53
304.381	-127.66
304.595	91.48
304.809	-8.87
305.023	-0.68
305.237	23.89
305.452	-25.26
305.666	83.28
305.88	83.28
306.094	93.52
306.308	62.8
306.522	105.81
306.736	77.14
306.95	75.09
307.164	-35.5
307.379	-4.78
307.593	111.96
307.807	99.67
308.021	87.38
308.235	52.56
308.449	-70.31
308.663	44.37
308.877	226.64
309.091	56.66
309.305	30.04
309.519	-62.12
309.733	120.15
309.947	-31.4
310.161	36.18
310.374	83.28
310.588	64.85
310.802	-27.31
311.016	-80.55
311.23	32.08
311.444	-111.27
311.658	-21.16
311.872	46.42
312.085	122.2
312.299	122.2
312.513	60.76
312.727	30.04
312.941	-41.64
313.154	13.65
313.368	-21.16
313.582	13.65
313.796	27.99
314.009	56.66
314.223	114
314.437	5.46
314.651	44.37
314.864	-60.07
315.078	-49.83
315.292	-10.92
315.505	-39.59
315.719	62.8
315.933	103.76
316.146	15.7
316.36	79.19
316.573	124.24
316.787	99.67
317.001	7.51
317.214	48.47
317.428	73.04
317.641	3.41
317.855	-45.74
318.068	79.19
318.282	-55.98
318.495	23.89
318.709	101.72
318.922	-58.03
319.136	101.72
319.349	93.52
319.563	-29.35
319.776	54.61
319.99	-2.73
320.203	38.23
320.417	79.19
320.63	75.09
320.843	185.68
321.057	23.89
321.27	71
321.483	32.08
321.697	89.43
321.91	68.95
322.124	85.33
322.337	111.96
322.55	5.46
322.763	54.61
322.977	-90.79
323.19	-2.73
323.403	-17.07
323.617	52.56
323.83	89.43
324.043	-21.16
324.256	11.61
324.469	-21.16
324.683	73.04
324.896	-35.5
325.109	-25.26
325.322	-43.69
325.535	71
325.748	79.19
325.962	46.42
326.175	56.66
326.388	-0.68
326.601	97.62
326.814	73.04
327.027	54.61
327.24	120.15
327.453	-45.74
327.666	-19.11
327.879	167.25
328.092	89.43
328.305	58.71
328.518	-12.97
328.731	-17.07
328.944	34.13
329.157	48.47
329.37	79.19
329.583	175.44
329.796	85.33
330.009	-58.03
330.222	27.99
330.435	97.62
330.648	95.57
330.861	40.28
331.073	38.23
331.286	42.32
331.499	-78.51
331.712	-27.31
331.925	-58.03
332.138	120.15
332.35	93.52
332.563	-39.59
332.776	44.37
332.989	-29.35
333.202	44.37
333.414	128.34
333.627	73.04
333.84	-29.35
334.053	5.46
334.265	17.75
334.478	-25.26
334.691	-10.92
334.903	34.13
335.116	-39.59
335.329	-15.02
335.541	56.66
335.754	148.82
335.966	36.18
336.179	83.28
336.392	54.61
336.604	36.18
336.817	136.53
337.029	60.76
337.242	-0.68
337.454	93.52
337.667	91.48
337.88	171.35
338.092	54.61
338.305	79.19
338.517	19.8
338.729	42.32
338.942	148.82
339.154	-4.78
339.367	-78.51
339.579	58.71
339.792	-10.92
340.004	150.87
340.217	15.7
340.429	83.28
340.641	-68.27
340.854	-53.93
341.066	-55.98
341.278	97.62
341.491	202.07
341.703	-0.68
341.915	-45.74
342.128	30.04
342.34	25.94
342.552	17.75
342.764	-37.55
342.977	-4.78
343.189	73.04
343.401	13.65
343.613	-72.36
343.826	75.09
344.038	-107.18
344.25	-2.73
344.462	-66.22
344.674	64.85
344.886	19.8
345.099	-31.4
345.311	103.76
345.523	-62.12
345.735	-80.55
345.947	62.8
346.159	13.65
346.371	46.42
346.583	-37.55
346.795	132.44
347.007	15.7
347.219	-33.45
347.431	7.51
347.643	140.63
347.855	-35.5
348.067	126.29
348.279	-96.94
348.491	17.75
348.703	38.23
348.915	71
349.127	40.28
349.339	7.51
349.551	3.41
349.763	77.14
349.975	118.1
350.187	48.47
350.399	152.91
350.61	42.32
350.822	32.08
351.034	17.75
351.246	48.47
351.458	101.72
351.669	38.23
351.881	27.99
352.093	132.44
352.305	58.71
352.517	-58.03
352.728	62.8
352.94	73.04
353.152	87.38
353.363	1.37
353.575	60.76
353.787	107.86
353.999	38.23
354.21	154.96
354.422	9.56
354.633	44.37
354.845	52.56
355.057	79.19
355.268	21.84
355.48	81.24
355.692	-12.97
355.903	40.28
356.115	-21.16
356.326	-101.03
356.538	146.77
356.749	91.48
356.961	185.68
357.172	21.84
357.384	-27.31
357.595	171.35
357.807	-41.64
358.018	11.61
358.23	27.99
358.441	140.63
358.653	91.48
358.864	19.8
359.075	-17.07
359.287	73.04
359.498	122.2
359.709	40.28
359.921	-37.55
360.132	46.42
360.344	-6.83
360.555	-4.78
360.766	-39.59
360.977	68.95
361.189	62.8
361.4	-58.03
361.611	-6.83
361.823	87.38
362.034	58.71
362.245	-86.7
362.456	36.18
362.667	30.04
362.879	7.51
363.09	-17.07
363.301	73.04
363.512	-10.92
363.723	-25.26
363.935	5.46
364.146	191.83
364.357	19.8
364.568	44.37
364.779	46.42
364.99	163.15
365.201	34.13
365.412	103.76
365.623	-25.26
365.834	32.08
366.045	111.96
366.256	36.18
366.467	40.28
366.678	48.47
366.889	25.94
367.1	-21.16
367.311	93.52
367.522	-33.45
367.733	99.67
367.944	60.76
368.155	114
368.366	77.14
368.577	83.28
368.788	48.47
368.999	-19.11
369.209	-64.17
369.42	257.36
369.631	238.93
369.842	107.86
370.053	13.65
370.264	64.85
370.474	-84.65
370.685	-37.55
370.896	5.46
371.107	171.35
371.317	62.8
371.528	11.61
371.739	118.1
371.95	27.99
372.16	73.04
372.371	-45.74
372.582	30.04
372.792	62.8
373.003	99.67
373.214	77.14
373.424	101.72
373.635	-0.68
373.846	122.2
374.056	52.56
374.267	-23.21
374.477	54.61
374.688	-68.27
374.898	32.08
375.109	44.37
375.319	-2.73
375.53	103.76
375.74	89.43
375.951	93.52
376.161	48.47
376.372	83.28
376.582	-25.26
376.793	107.86
377.003	-35.5
377.214	68.95
377.424	60.76
377.635	-2.73
377.845	-29.35
378.055	99.67
378.266	-43.69
378.476	-29.35
378.686	71
378.897	-35.5
379.107	111.96
379.317	97.62
379.528	-39.59
379.738	42.32
379.948	-47.79
380.158	97.62
380.369	99.67
380.579	52.56
380.789	79.19
380.999	101.72
381.21	107.86
381.42	136.53
381.63	25.94
381.84	32.08
382.05	81.24
382.261	87.38
382.471	136.53
382.681	-68.27
382.891	87.38
383.101	-35.5
383.311	-150.18
383.521	-58.03
383.731	157.01
383.941	103.76
384.151	124.24
384.361	-15.02
384.571	23.89
384.781	50.52
384.991	128.34
385.201	136.53
385.411	42.32
385.621	111.96
385.831	68.95
386.041	-15.02
386.251	75.09
386.461	97.62
386.671	-21.16
386.881	81.24
387.091	9.56
387.301	105.81
387.511	71
387.72	109.91
387.93	144.72
388.14	-86.7
388.35	64.85
388.56	169.3
388.769	109.91
388.979	-27.31
389.189	-10.92
389.399	58.71
389.609	83.28
389.818	62.8
390.028	34.13
390.238	42.32
390.447	-39.59
390.657	111.96
390.867	42.32
391.076	-88.75
391.286	116.05
391.496	-60.07
391.705	56.66
391.915	130.39
392.125	136.53
392.334	-10.92
392.544	124.24
392.753	52.56
392.963	-58.03
393.172	-8.87
393.382	-2.73
393.591	204.11
393.801	-12.97
394.01	181.59
394.22	95.57
394.429	23.89
394.639	17.75
394.848	52.56
395.058	105.81
395.267	-0.68
395.477	85.33
395.686	146.77
395.895	181.59
396.105	167.25
396.314	114
396.524	48.47
396.733	38.23
396.942	124.24
397.152	32.08
397.361	42.32
397.57	64.85
397.78	-35.5
397.989	87.38
398.198	185.68
398.407	42.32
398.617	103.76
398.826	3.41
399.035	5.46
399.244	40.28
399.453	58.71
399.663	54.61
399.872	85.33
400.081	-60.07
400.29	103.76
400.499	-94.89
400.708	48.47
400.917	21.84
401.127	42.32
401.336	-12.97
401.545	187.73
401.754	71
401.963	68.95
402.172	75.09
402.381	-84.65
402.59	36.18
402.799	68.95
403.008	56.66
403.217	-12.97
403.426	56.66
403.635	-68.27
403.844	60.76
404.053	32.08
404.262	7.51
404.471	130.39
404.68	66.9
404.888	5.46
405.097	-8.87
405.306	40.28
405.515	105.81
405.724	-53.93
405.933	64.85
406.142	32.08
406.35	111.96
406.559	75.09
406.768	19.8
406.977	103.76
407.185	103.76
407.394	62.8
407.603	3.41
407.812	64.85
408.02	114
408.229	77.14
408.438	68.95
408.646	-70.31
408.855	38.23
409.064	52.56
409.272	66.9
409.481	17.75
409.69	-70.31
409.898	-21.16
410.107	83.28
410.315	81.24
410.524	77.14
410.733	-15.02
410.941	105.81
411.15	71
411.358	77.14
411.567	154.96
411.775	56.66
411.984	3.41
412.192	140.63
412.401	3.41
412.609	163.15
412.818	148.82
413.026	122.2
413.234	-2.73
413.443	60.76
413.651	54.61
413.86	7.51
414.068	62.8
414.276	126.29
414.485	36.18
414.693	173.39
414.901	140.63
415.11	93.52
415.318	-6.83
415.526	-4.78
415.734	99.67
415.943	17.75
416.151	52.56
416.359	132.44
416.567	83.28
416.776	189.78
416.984	64.85
417.192	107.86
417.4	-29.35
417.608	11.61
417.817	-10.92
418.025	116.05
418.233	193.87
418.441	40.28
418.649	3.41
418.857	9.56
419.065	79.19
419.273	3.41
419.481	77.14
419.689	95.57
419.897	46.42
420.105	-19.11
420.313	114
420.521	111.96
420.729	114
420.937	44.37
421.145	-39.59
421.353	142.68
421.561	114
421.769	64.85
421.977	-4.78
422.185	105.81
422.393	66.9
422.601	81.24
422.809	62.8
423.017	64.85
423.224	83.28
423.432	107.86
423.64	-39.59
423.848	83.28
424.056	-31.4
424.263	120.15
424.471	75.09
424.679	75.09
424.887	50.52
425.094	85.33
425.302	5.46
425.51	32.08
425.718	23.89
425.925	99.67
426.133	-8.87
426.341	226.64
426.548	7.51
426.756	3.41
426.964	83.28
427.171	-66.22
427.379	48.47
427.586	134.48
427.794	48.47
428.001	150.87
428.209	179.54
428.417	167.25
428.624	68.95
428.832	93.52
429.039	130.39
429.247	32.08
429.454	91.48
429.662	245.07
429.869	191.83
430.076	116.05
430.284	114
430.491	118.1
430.699	169.3
430.906	204.11
431.114	103.76
431.321	93.52
431.528	73.04
431.736	132.44
431.943	58.71
432.15	142.68
432.358	122.2
432.565	298.32
432.772	42.32
432.979	238.93
433.187	87.38
433.394	177.49
433.601	169.3
433.808	259.41
434.016	243.03
434.223	138.58
434.43	224.59
434.637	271.7
434.844	243.03
435.052	185.68
435.259	220.5
435.466	361.81
435.673	257.36
435.88	269.65
436.087	288.08
436.294	388.43
436.501	243.03
436.708	271.7
436.915	298.32
437.122	357.71
437.329	187.73
437.537	224.59
437.743	243.03
437.95	337.23
438.157	333.14
438.364	273.75
438.571	378.19
438.778	486.73
438.985	408.91
439.192	396.62
439.399	449.87
439.606	453.97
439.813	527.69
440.02	513.36
440.227	623.95
440.433	523.6
440.64	537.93
440.847	447.82
441.054	580.94
441.261	687.43
441.467	585.04
441.674	623.95
441.881	662.86
442.088	626
442.294	709.96
442.501	775.5
442.708	779.59
442.914	824.65
443.121	816.46
443.328	845.13
443.534	904.52
443.741	916.81
443.948	769.35
444.154	976.2
444.361	1111.36
444.568	1006.92
444.774	1037.64
444.981	941.38
445.187	1142.08
445.394	1111.36
445.6	1176.9
445.807	1344.83
446.013	1281.35
446.22	1158.47
446.426	1355.07
446.633	1465.66
446.839	1658.17
447.046	1353.02
447.252	1686.84
447.459	1627.45
447.665	1604.92
447.871	1770.81
448.078	1887.54
448.284	1838.39
448.491	1895.74
448.697	2155.83
448.903	2153.78
449.11	2186.55
449.316	2135.35
449.522	2434.35
449.728	2374.96
449.935	2450.74
450.141	2446.64
450.347	2741.55
450.553	2651.44
450.76	2800.94
450.966	2909.48
451.172	3087.65
451.378	3013.93
451.584	3200.29
451.791	3497.25
451.997	3460.38
452.203	3429.66
452.409	3757.34
452.615	3966.23
452.821	3788.06
453.027	3925.27
453.233	4506.9
453.44	4271.38
453.646	4449.55
453.852	4703.5
454.058	4760.84
454.264	4928.78
454.47	5215.49
454.676	5309.7
454.882	5772.54
455.088	5274.88
455.294	5780.73
455.5	6161.66
455.705	6444.27
455.911	6550.77
456.117	6802.67
456.323	6960.36
456.529	7056.62
456.735	7681.25
456.941	7718.11
457.147	8283.35
457.352	8281.3
457.558	8422.61
457.764	9116.87
457.97	9440.45
458.176	9743.55
458.381	10267.83
458.587	10423.48
458.793	10894.51
458.999	10978.48
459.204	12291.23
459.41	12840.08
459.616	12848.27
459.821	13626.5
460.027	13851.78
460.233	14480.5
460.438	14689.4
460.644	15412.33
460.85	15662.18
461.055	16192.61
461.261	16989.27
461.466	16583.77
461.672	16819.28
461.878	19323.95
462.083	18891.83
462.289	18873.4
462.494	20040.74
462.7	19975.2
462.905	20372.51
463.111	22178.82
463.316	23018.49
463.522	23413.74
463.727	24032.23
463.932	25191.38
464.138	26018.76
464.343	27157.43
464.549	27083.7
464.754	28971.93
464.959	29784.97
465.165	30485.38
465.37	30077.83
465.575	30116.75
465.781	32191.34
465.986	33495.89
466.191	32867.17
466.397	33012.57
466.602	31869.81
466.807	33874.77
467.012	34636.61
467.218	35271.48
467.423	35423.03
467.628	36399.91
467.833	37950.23
468.038	37573.4
468.244	36549.42
468.449	38750.98
468.654	37585.69
468.859	37462.81
469.064	37966.61
469.269	36678.44
469.474	37471
469.679	38320.91
469.885	36887.33
470.09	37913.36
470.295	37925.65
470.5	37094.18
470.705	37329.69
470.91	36096.81
471.115	35642.17
471.32	36078.38
471.525	36006.7
471.73	34874.18
471.935	34716.48
472.139	33538.9
472.344	33702.74
472.549	33794.9
472.754	32463.72
472.959	31802.22
473.164	30704.51
473.369	30382.98
473.574	31325.05
473.778	30606.21
473.983	30294.92
474.188	29399.96
474.393	28074.92
474.598	28130.22
474.802	27378.61
475.007	27222.97
475.212	26764.22
475.417	25723.85
475.621	25641.93
475.826	25510.86
476.031	24904.67
476.235	24239.08
476.44	24173.54
476.645	23725.04
476.849	23434.22
477.054	22805.5
477.259	22193.15
477.463	22457.34
477.668	21685.26
477.872	21654.54
478.077	21326.86
478.282	20669.47
478.486	20175.91
478.691	20255.78
478.895	19971.11
479.1	19733.54
479.304	19784.74
479.509	19151.92
479.713	19518.51
479.918	18922.55
480.122	18388.03
480.326	18752.57
480.531	18818.1
480.735	18234.43
480.94	18115.65
481.144	18730.04
481.348	17552.46
481.553	17906.76
481.757	17175.63
481.961	17325.13
482.166	17556.55
482.37	17529.93
482.574	16671.83
482.778	16755.8
482.983	17081.42
483.187	16780.37
483.391	16530.52
483.595	16512.09
483.8	16022.62
484.004	16389.21
484.208	16413.79
484.412	15866.98
484.616	15823.97
484.821	15697
485.025	15158.38
485.229	15205.49
485.433	14957.68
485.637	14933.11
485.841	14566.52
486.045	14251.13
486.249	14230.65
486.453	13769.86
486.657	13980.8
486.861	13667.46
487.065	13143.18
487.269	13264.01
487.473	12741.78
487.677	13022.35
487.881	12637.33
488.085	12500.12
488.289	12209.31
488.493	12137.63
488.697	12037.28
488.901	11431.08
489.105	11529.38
489.309	11228.33
489.512	11259.05
489.716	10910.89
489.92	10511.54
490.124	10378.42
490.328	10472.63
490.531	9991.36
490.735	9936.06
490.939	9800.9
491.143	9469.12
491.346	9411.78
491.55	9120.97
491.754	9241.8
491.958	9055.44
492.161	8850.64
492.365	8813.77
492.569	8627.41
492.772	8400.09
492.976	8592.59
493.18	8371.41
493.383	8176.86
493.587	7986.4
493.79	8000.73
493.994	7660.77
494.197	7775.45
494.401	7687.39
494.605	7587.04
494.808	7677.15
495.012	7421.16
495.215	7441.64
495.419	7492.83
495.622	7339.24
495.825	7406.82
496.029	7179.5
496.232	7308.52
496.436	7161.06
496.639	7394.53
496.843	6917.36
497.046	7081.19
497.249	7175.4
497.453	7183.59
497.656	7017.71
497.859	7093.48
498.063	7300.33
498.266	7343.33
498.469	7107.82
498.673	7273.7
498.876	7353.57
499.079	7247.08
499.282	7326.95
499.485	7703.78
499.689	7329
499.892	7292.13
500.095	7589.09
500.298	7716.06
500.501	7490.79
500.705	7711.97
500.908	7646.43
501.111	7785.69
501.314	7892.19
501.517	7982.3
501.72	8078.55
501.923	7904.48
502.126	8076.51
502.329	8447.19
502.532	8348.89
502.735	8395.99
502.938	8813.77
503.141	8649.94
503.344	8715.47
503.547	8950.99
503.75	8895.69
503.953	8973.52
504.156	9241.8
504.359	9374.92
504.562	9342.15
504.765	9575.62
504.968	9739.46
505.17	9843.9
505.373	9938.11
505.576	10134.71
505.779	10407.09
505.982	10333.37
506.185	10669.23
506.387	10912.94
506.59	10992.81
506.793	11236.52
506.996	11379.88
507.198	11850.91
507.401	11738.27
507.604	12104.86
507.807	12334.23
508.009	12469.4
508.212	12702.87
508.415	13200.52
508.617	13438.09
508.82	13626.5
509.022	13651.08
509.225	14199.93
509.428	14472.31
509.63	14564.47
509.833	14990.45
510.035	15846.5
510.238	15797.35
510.44	15866.98
510.643	16530.52
510.845	16847.96
511.048	17019.99
511.25	17601.61
511.453	17886.28
511.655	18805.81
511.858	18734.14
512.06	19207.22
512.262	19401.77
512.465	19852.33
512.667	20429.85
512.87	20466.72
513.072	21345.3
513.274	21902.34
513.477	22252.55
513.679	22701.05
513.881	23423.98
514.084	23772.14
514.286	24255.46
514.488	24898.52
514.69	25799.63
514.893	25846.73
515.095	26328
515.297	27296.69
515.499	27470.77
515.701	27884.46
515.904	28804
516.106	29459.35
516.308	29877.13
516.51	30485.38
516.712	30948.22
516.914	31820.66
517.116	32000.88
517.318	32818.02
517.52	33373.02
517.722	33981.26
517.925	34521.93
518.127	35429.18
518.329	36289.32
518.531	35988.27
518.733	37397.27
518.935	37653.27
519.136	38159.12
519.338	38853.38
519.54	39285.5
519.742	40194.8
519.944	40624.87
520.146	41161.44
520.348	41603.8
520.55	42320.59
520.752	42459.85
520.954	43408.06
521.155	43696.83
521.357	44227.25
521.559	44718.76
521.761	45322.91
521.963	45458.08
522.164	45965.98
522.366	46334.61
522.568	46901.9
522.77	47415.94
522.971	48091.77
523.173	47084.17
523.375	48597.62
523.576	47798.91
523.778	47798.91
523.98	48736.88
524.181	48906.86
524.383	49226.34
524.584	49652.32
524.786	49273.45
524.988	49087.08
525.189	49955.42
525.391	49668.7
525.592	49990.23
525.794	49953.37
525.995	50047.58
526.197	49900.12
526.398	49338.98
526.6	49992.28
526.801	49478.24
527.003	49449.57
527.204	49465.95
527.406	49496.67
527.607	48939.63
527.808	48685.68
528.01	47989.37
528.211	48640.62
528.412	48460.4
528.614	47749.76
528.815	47426.18
529.016	47913.59
529.218	46899.85
529.419	46750.35
529.62	46039.7
529.822	45945.5
530.023	45130.4
530.224	44812.97
530.425	44677.8
530.626	44004.02
530.828	43244.23
531.029	43604.67
531.23	42926.79
531.431	42021.59
531.632	41892.57
531.833	41511.64
532.035	40938.21
532.236	40393.45
532.437	40110.83
532.638	39129.86
532.839	38841.09
533.04	38779.65
533.241	37853.97
533.442	37856.02
533.643	37135.13
533.844	36475.69
534.045	36191.02
534.246	35474.23
534.447	35046.21
534.648	34894.66
534.849	34353.99
535.05	33946.45
535.251	33393.5
535.451	32807.78
535.652	32494.44
535.853	32072.56
536.054	31613.81
536.255	31185.79
536.456	30256.01
536.657	30530.44
536.857	30051.21
537.058	29754.26
537.259	29315.99
537.46	28910.49
537.66	28267.43
537.861	27861.93
538.062	27610.03
538.263	27282.36
538.463	26690.49
538.664	26383.3
538.865	26356.68
539.065	25979.85
539.266	25435.09
539.466	25361.36
539.667	24894.43
539.868	24914.91
540.068	24382.43
540.269	24146.92
540.469	23948.26
540.67	23417.84
540.87	23155.7
541.071	22940.66
541.271	22729.72
541.472	22754.3
541.672	22350.85
541.873	22027.27
542.073	21494.8
542.274	21736.46
542.474	21359.63
542.675	21083.16
542.875	21025.81
543.075	20519.96
543.276	20530.2
543.476	20364.32
543.676	19950.63
543.877	19977.25
544.077	19530.8
544.277	19266.61
544.478	19125.3
544.678	18969.65
544.878	18838.58
545.078	18246.72
545.279	18175.04
545.479	18076.74
545.679	17734.73
545.879	17480.78
546.079	17609.8
546.28	16903.25
546.48	16893.01
546.68	16856.15
546.88	16772.18
547.08	16444.51
547.28	16215.13
547.48	15875.17
547.68	16010.34
547.88	15502.44
548.081	15201.39
548.281	15258.73
548.481	15033.46
548.681	14785.65
548.881	14550.14
549.081	14353.53
549.28	14290.04
549.48	14224.51
549.68	13976.7
549.88	13638.79
550.08	13431.94
550.28	13452.42
550.48	13362.31
550.68	13079.69
550.88	12956.82
551.08	12530.84
551.279	12743.83
551.479	12356.76
551.679	12307.61
551.879	11881.63
552.079	11764.9
552.278	11725.99
552.478	11623.59
552.678	11304.1
552.878	10921.13
553.077	10863.79
553.277	10626.23
553.477	10673.33
553.676	10396.85
553.876	10175.67
554.076	10081.47
554.275	10095.8
554.475	9796.8
554.674	9606.34
554.874	9514.18
555.074	9307.34
555.273	9213.13
555.473	8977.61
555.672	8676.56
555.872	8707.28
556.071	8711.38
556.271	8715.47
556.47	8295.64
556.67	8172.76
556.869	8283.35
557.068	8000.73
557.268	7865.57
557.467	7601.38
557.667	7693.54
557.866	7611.62
558.065	7183.59
558.265	7271.65
558.464	7042.28
558.663	7081.19
558.863	7025.9
559.062	6751.47
559.261	6716.65
559.461	6493.43
559.66	6427.89
559.859	6300.92
560.058	6122.74
560.258	5995.77
560.457	5934.33
560.656	5981.43
560.855	5844.22
561.054	5739.77
561.253	5778.69
561.453	5602.56
561.652	5483.78
561.851	5600.51
562.05	5416.19
562.249	5152.01
562.448	5266.69
562.647	4943.11
562.846	5098.76
563.045	5188.87
563.244	4908.3
563.443	4955.4
563.642	4781.32
563.841	4828.43
564.04	4506.9
564.239	4584.72
564.438	4375.83
564.637	4283.67
564.836	4216.08
565.035	4228.37
565.234	4185.37
565.432	4175.13
565.631	4160.79
565.83	4119.83
566.029	3773.72
566.228	4021.53
566.427	3923.23
566.625	3685.66
566.824	3763.48
567.023	3783.96
567.222	3622.17
567.42	3597.6
567.619	3570.97
567.818	3552.54
568.016	3607.84
568.215	3417.38
568.414	3384.61
568.612	3267.88
568.811	3321.12
569.01	3169.57
569.208	3171.62
569.407	3132.71
569.605	3050.79
569.804	3034.41
570.002	3032.36
570.201	2835.75
570.4	2864.43
570.598	2952.49
570.797	2817.32
570.995	2661.68
571.193	2794.79
571.392	2645.29
571.59	2563.37
571.789	2755.88
571.987	2630.96
572.186	2612.53
572.384	2370.87
572.582	2366.77
572.781	2495.79
572.979	2409.78
573.177	2247.99
573.376	2368.82
573.574	2276.66
573.772	2252.08
573.971	2041.14
574.169	2114.87
574.367	2084.15
574.565	2071.86
574.763	2022.71
574.962	2051.38
575.16	1885.5
575.358	1860.92
575.556	1938.74
575.754	1944.89
575.952	1961.27
576.151	1948.98
576.349	1961.27
576.547	1606.97
576.745	1852.73
576.943	1752.38
577.141	1672.51
577.339	1594.68
577.537	1582.4
577.735	1652.03
577.933	1539.39
578.131	1420.61
578.329	1729.85
578.527	1543.49
578.725	1574.21
578.923	1330.5
579.121	1490.24
579.319	1283.39
579.516	1434.94
579.714	1561.92
579.912	1396.03
580.11	1199.43
580.308	1334.59
580.506	1346.88
580.704	1129.8
580.901	1217.86
581.099	1369.41
581.297	1221.95
581.495	1224
581.692	1084.74
581.89	1246.53
582.088	1099.08
582.285	1211.71
582.483	1099.08
582.681	1178.95
582.878	1094.98
583.076	1142.08
583.274	1015.11
583.471	1181
583.669	1086.79
583.866	951.62
584.064	990.53
584.262	877.9
584.459	890.18
584.657	841.03
584.854	931.14
585.052	970.05
585.249	990.53
585.447	929.1
585.644	769.35
585.841	986.44
586.039	902.47
586.236	957.77
586.434	871.75
586.631	777.55
586.828	724.3
587.026	787.79
587.223	648.52
587.42	685.39
587.618	763.21
587.815	869.7
588.012	828.74
588.21	646.48
588.407	773.45
588.604	795.98
588.801	648.52
588.999	720.2
589.196	687.43
589.393	683.34
589.59	738.63
589.787	769.35
589.984	720.2
590.182	650.57
590.379	652.62
590.576	634.19
590.773	630.09
590.97	636.24
591.167	732.49
591.364	591.18
591.561	666.96
591.758	759.11
591.955	795.98
592.152	609.61
592.349	640.33
592.546	605.52
592.743	591.18
592.94	646.48
593.137	673.1
593.334	732.49
593.531	765.26
593.727	628.04
593.924	679.24
594.121	654.67
594.318	617.8
594.515	730.44
594.712	787.79
594.908	808.26
595.105	570.7
595.302	789.83
595.499	744.78
595.696	800.07
595.892	673.1
596.089	752.97
596.286	707.91
596.482	898.38
596.679	812.36
596.876	675.15
597.072	777.55
597.269	834.89
597.466	845.13
597.662	881.99
597.859	908.62
598.055	910.66
598.252	943.43
598.448	1088.84
598.645	1068.36
598.841	1152.32
599.038	1226.05
599.234	1271.11
599.431	1187.14
599.627	1219.91
599.824	1348.93
600.02	1232.19
600.217	1359.17
600.413	1449.28
600.609	1387.84
600.806	1840.44
601.002	1641.79
601.198	1596.73
601.395	1758.52
601.591	1811.77
601.787	1887.54
601.984	2024.76
602.18	2014.52
602.376	2135.35
602.572	2225.46
602.769	2225.46
602.965	2309.43
603.161	2450.74
603.357	2573.61
603.553	2620.72
603.75	2665.77
603.946	2719.02
604.142	2778.41
604.338	3044.65
604.534	3034.41
604.73	3020.07
604.926	3085.61
605.122	3298.59
605.318	3468.58
605.514	3532.06
605.71	3507.49
605.906	3796.25
606.102	3718.43
606.298	3988.76
606.494	4156.69
606.69	4273.43
606.886	4289.81
607.082	4341.01
607.278	4547.86
607.474	4580.62
607.67	4855.05
607.866	4777.23
608.062	5166.34
608.257	5104.9
608.453	5184.77
608.649	5428.48
608.845	5432.58
609.041	5604.61
609.236	5956.86
609.432	6006.01
609.628	6311.16
609.824	6372.6
610.019	6413.56
610.215	6509.81
610.411	6933.74
610.606	7068.91
610.802	7189.74
610.998	7533.79
611.193	7812.32
611.389	7761.12
611.584	7906.52
611.78	8053.98
611.976	8406.23
612.171	8824.01
612.367	8948.94
612.562	8998.09
612.758	9311.43
612.953	9452.74
613.149	9927.87
613.344	9999.55
613.539	10482.87
613.735	10446.01
613.93	10867.89
614.126	11138.22
614.321	11574.44
614.517	11992.22
614.712	12098.72
614.907	12287.13
615.103	12946.58
615.298	12924.05
615.493	13261.96
615.688	13382.79
615.884	14275.71
616.079	14249.08
616.274	14627.96
616.47	14734.45
616.665	15473.77
616.86	15758.44
617.055	15940.71
617.25	16503.9
617.445	17149.01
617.641	17212.49
617.836	18058.31
618.031	17935.43
618.226	18799.67
618.421	19168.3
618.616	19751.98
618.811	19854.37
619.006	20683.8
619.201	20526.11
619.396	21482.51
619.591	21429.26
619.786	22600.7
619.981	22508.54
620.176	23423.98
620.371	23483.38
620.566	24310.75
620.761	24710.11
620.956	25246.68
621.151	25375.7
621.346	26434.5
621.541	26563.52
621.735	27304.88
621.93	27585.46
622.125	27874.22
622.32	28367.78
622.515	29373.33
622.709	29617.04
622.904	30245.77
623.099	30708.61
623.294	31284.09
623.488	31447.93
623.683	32152.43
623.878	32433
624.072	33071.96
624.267	33819.47
624.462	34210.64
624.656	34544.45
624.851	35334.97
625.046	35777.33
625.24	36449.07
625.435	36797.22
625.629	36913.95
625.824	37819.16
626.018	37876.5
626.213	38103.82
626.407	39092.99
626.602	38847.24
626.796	39277.31
626.991	39817.97
627.185	39934.71
627.38	40293.1
627.574	40403.69
627.768	40616.68
627.963	40635.11
628.157	40831.72
628.352	41468.64
628.546	40471.28
628.74	41523.93
628.935	40973.03
629.129	41063.14
629.323	40618.73
629.517	40524.52
629.712	40231.66
629.906	40176.37
630.1	38982.4
630.294	39228.16
630.489	38621.96
630.683	38173.45
630.877	37149.47
631.071	36653.86
631.265	36332.33
631.459	35269.44
631.653	34618.18
631.848	33893.2
632.042	33067.87
632.236	32041.84
632.43	31144.83
632.624	30514.05
632.818	29612.95
633.012	28720.03
633.206	27714.48
633.4	26905.53
633.594	25906.12
633.788	25287.64
633.982	24302.56
634.176	23356.4
634.369	22492.16
634.563	21814.28
634.757	21044.24
634.951	20139.04
635.145	19276.85
635.339	18545.72
635.533	17638.47
635.726	16999.51
635.92	16237.66
636.114	15426.67
636.308	15043.7
636.501	14572.66
636.695	13759.62
636.889	13175.95
637.083	12737.68
637.276	12053.66
637.47	11609.25
637.664	11263.15
637.857	10595.51
638.051	10202.3
638.244	9942.21
638.438	9489.6
638.632	9237.7
638.825	8799.44
639.019	8549.59
639.212	8056.03
639.406	7685.34
639.599	7388.39
639.793	7202.02
639.986	6767.85
640.18	6759.66
640.373	6253.81
640.567	6077.69
640.76	5856.51
640.954	5684.48
641.147	5438.72
641.34	5311.75
641.534	5033.22
641.727	5002.5
641.92	4832.52
642.114	4695.31
642.307	4363.54
642.5	4168.98
642.694	3964.18
642.887	3788.06
643.08	3691.8
643.273	3720.48
643.467	3517.73
643.66	3417.38
643.853	3038.5
644.046	3155.24
644.239	3073.32
644.432	2778.41
644.626	2641.2
644.819	2577.71
645.012	2493.74
645.205	2458.93
645.398	2379.06
645.591	2227.51
645.784	2084.15
645.977	1953.08
646.17	1948.98
646.363	1830.2
646.556	1695.04
646.749	1740.09
646.942	1717.56
647.135	1670.46
647.328	1547.58
647.521	1584.45
647.714	1451.33
647.907	1396.03
648.099	1330.5
648.292	1445.18
648.485	1289.54
648.678	1242.43
648.871	1123.65
649.064	1207.62
649.256	972.1
649.449	1027.4
649.642	904.52
649.835	947.53
650.027	935.24
650.22	961.86
650.413	746.83
650.605	941.38
650.798	791.88
650.991	818.5
651.183	701.77
651.376	849.22
651.568	765.26
651.761	613.71
651.954	681.29
652.146	605.52
652.339	640.33
652.531	701.77
652.724	535.89
652.916	511.31
653.109	445.77
653.301	580.94
653.494	626
653.686	468.3
653.879	595.28
654.071	429.39
654.263	447.82
654.456	355.66
654.648	585.04
654.84	531.79
655.033	437.58
655.225	542.03
655.417	421.2
655.61	482.64
655.802	331.09
655.994	423.25
656.186	298.32
656.379	382.29
656.571	265.55
656.763	367.95
656.955	316.75
657.148	263.51
657.34	349.52
657.532	351.57
657.724	298.32
657.916	267.6
658.108	261.46
658.3	294.22
658.492	314.7
658.684	222.55
658.876	281.94
659.068	152.91
659.26	183.63
659.452	152.91
659.644	259.41
659.836	359.76
660.028	304.46
660.22	257.36
660.412	202.07
660.604	200.02
660.796	261.46
660.988	292.18
661.18	200.02
661.372	236.88
661.563	152.91
661.755	222.55
661.947	126.29
662.139	163.15
662.331	140.63
662.522	216.4
662.714	132.44
662.906	46.42
663.097	212.31
663.289	89.43
663.481	32.08
663.673	132.44
663.864	200.02
664.056	247.12
664.247	66.9
664.439	224.59
664.631	236.88
664.822	193.87
665.014	187.73
665.205	120.15
665.397	126.29
665.588	87.38
665.78	191.83
665.971	173.39
666.163	169.3
666.354	212.31
666.546	48.47
666.737	64.85
666.929	54.61
667.12	134.48
667.311	79.19
667.503	140.63
667.694	99.67
667.885	163.15
668.077	105.81
668.268	-4.78
668.459	99.67
668.651	109.91
668.842	140.63
669.033	9.56
669.224	27.99
669.416	281.94
669.607	85.33
669.798	81.24
669.989	183.63
670.18	99.67
670.371	200.02
670.563	75.09
670.754	169.3
670.945	146.77
671.136	44.37
671.327	36.18
671.518	159.06
671.709	206.16
671.9	222.55
672.091	202.07
672.282	118.1
672.473	124.24
672.664	93.52
672.855	79.19
673.046	75.09
673.237	140.63
673.428	128.34
673.619	134.48
673.809	144.72
674	171.35
674.191	142.68
674.382	83.28
674.573	1.37
674.764	87.38
674.954	202.07
675.145	97.62
675.336	109.91
675.527	101.72
675.717	62.8
675.908	64.85
676.099	46.42
676.289	142.68
676.48	13.65
676.671	165.2
676.861	128.34
677.052	161.11
677.243	77.14
677.433	54.61
677.624	191.83
677.814	177.49
678.005	85.33
678.195	177.49
678.386	9.56
678.576	132.44
678.767	50.52
678.957	128.34
679.148	132.44
679.338	169.3
679.529	152.91
679.719	114
679.909	218.45
680.1	161.11
680.29	163.15
680.481	15.7
680.671	68.95
680.861	140.63
681.052	107.86
681.242	81.24
681.432	138.58
681.622	181.59
681.813	-12.97
682.003	146.77
682.193	3.41
682.383	144.72
682.573	109.91
682.764	62.8
682.954	126.29
683.144	189.78
683.334	118.1
683.524	124.24
683.714	134.48
683.904	185.68
684.094	114
684.284	120.15
684.474	195.92
684.664	179.54
684.854	179.54
685.044	165.2
685.234	228.69
685.424	208.21
685.614	107.86
685.804	292.18
685.994	103.76
686.184	58.71
686.374	165.2
686.564	107.86
686.753	128.34
686.943	27.99
687.133	75.09
687.323	124.24
687.513	144.72
687.702	99.67
687.892	167.25
688.082	183.63
688.272	126.29
688.461	77.14
688.651	300.37
688.841	103.76
689.03	116.05
689.22	191.83
689.41	283.98
689.599	136.53
689.789	42.32
689.979	206.16
690.168	89.43
690.358	187.73
690.547	210.26
690.737	154.96
690.926	169.3
691.116	173.39
691.305	214.35
691.495	255.31
691.684	71
691.874	62.8
692.063	83.28
692.252	171.35
692.442	206.16
692.631	140.63
692.82	99.67
693.01	91.48
693.199	73.04
693.388	197.97
693.578	132.44
693.767	210.26
693.956	240.98
694.146	124.24
694.335	140.63
694.524	144.72
694.713	220.5
694.902	126.29
695.092	126.29
695.281	177.49
695.47	91.48
695.659	109.91
695.848	173.39
696.037	32.08
696.226	138.58
696.415	210.26
696.604	257.36
696.793	159.06
696.982	71
697.171	283.98
697.36	64.85
697.549	175.44
697.738	52.56
697.927	95.57
698.116	62.8
698.305	165.2
698.494	142.68
698.683	66.9
698.872	263.51
699.061	181.59
699.25	105.81
699.438	107.86
699.627	21.84
699.816	263.51
700.005	64.85
700.193	128.34
700.382	195.92
700.571	148.82
700.76	185.68
700.948	208.21
701.137	200.02
701.326	154.96
701.514	91.48
701.703	195.92
701.892	154.96
702.08	222.55
702.269	85.33
702.457	134.48
702.646	130.39
702.834	138.58
703.023	177.49
703.212	210.26
703.4	218.45
703.589	64.85
703.777	136.53
703.965	107.86
704.154	71
704.342	56.66
704.531	83.28
704.719	245.07
704.907	232.79
705.096	56.66
705.284	-8.87
705.472	128.34
705.661	150.87
705.849	224.59
706.037	292.18
706.226	126.29
706.414	140.63
706.602	126.29
706.79	195.92
706.979	114
707.167	232.79
707.355	62.8
707.543	146.77
707.731	140.63
707.919	134.48
708.107	187.73
708.296	142.68
708.484	87.38
708.672	193.87
708.86	228.69
709.048	140.63
709.236	38.23
709.424	171.35
709.612	163.15
709.8	40.28
709.988	114
710.176	140.63
710.364	204.11
710.551	152.91
710.739	105.81
710.927	52.56
711.115	132.44
711.303	232.79
711.491	183.63
711.679	56.66
711.866	206.16
712.054	103.76
712.242	169.3
712.43	253.27
712.617	126.29
712.805	128.34
712.993	128.34
713.181	60.76
713.368	236.88
713.556	175.44
713.744	130.39
713.931	253.27
714.119	202.07
714.306	140.63
714.494	118.1
714.682	150.87
714.869	97.62
715.057	122.2
715.244	75.09
715.432	146.77
715.619	124.24
715.807	103.76
715.994	134.48
716.182	206.16
716.369	265.55
716.556	240.98
716.744	138.58
716.931	91.48
717.119	165.2
717.306	161.11
717.493	148.82
717.681	75.09
717.868	79.19
718.055	99.67
718.242	175.44
718.43	167.25
718.617	187.73
718.804	91.48
718.991	228.69
719.179	189.78
719.366	161.11
719.553	163.15
719.74	240.98
719.927	152.91
720.114	189.78
720.301	120.15
720.488	83.28
720.676	79.19
720.863	230.74
721.05	392.53
721.237	191.83
721.424	212.31
721.611	238.93
721.798	107.86
721.985	73.04
722.172	87.38
722.358	99.67
722.545	159.06
722.732	150.87
722.919	216.4
723.106	183.63
723.293	97.62
723.48	152.91
723.667	220.5
723.853	212.31
724.04	187.73
724.227	193.87
724.414	36.18
724.6	257.36
724.787	273.75
724.974	292.18
725.161	167.25
725.347	118.1
725.534	159.06
725.72	185.68
725.907	240.98
726.094	263.51
726.28	124.24
726.467	200.02
726.653	173.39
726.84	275.79
727.027	298.32
727.213	152.91
727.4	218.45
727.586	204.11
727.773	222.55
727.959	216.4
728.145	62.8
728.332	150.87
728.518	154.96
728.705	247.12
728.891	146.77
729.077	175.44
729.264	124.24
729.45	136.53
729.636	228.69
729.823	189.78
730.009	273.75
730.195	232.79
730.382	273.75
730.568	50.52
730.754	245.07
730.94	222.55
731.126	103.76
731.313	177.49
731.499	163.15
731.685	236.88
731.871	130.39
732.057	322.9
732.243	259.41
732.429	202.07
732.615	261.46
732.801	222.55
732.987	124.24
733.173	87.38
733.359	132.44
733.545	212.31
733.731	191.83
733.917	316.75
734.103	175.44
734.289	222.55
734.475	224.59
734.661	320.85
734.847	165.2
735.033	169.3
735.219	245.07
735.404	179.54
735.59	224.59
735.776	251.22
735.962	261.46
736.148	255.31
736.333	324.94
736.519	175.44
736.705	216.4
736.89	261.46
737.076	177.49
737.262	136.53
737.447	120.15
737.633	251.22
737.819	294.22
738.004	109.91
738.19	281.94
738.375	267.6
738.561	253.27
738.747	157.01
738.932	93.52
739.118	343.38
739.303	298.32
739.489	195.92
739.674	154.96
739.859	136.53
740.045	183.63
740.23	200.02
740.416	58.71
740.601	159.06
740.786	290.13
740.972	169.3
741.157	191.83
741.342	150.87
741.528	73.04
741.713	288.08
741.898	105.81
742.084	136.53
742.269	154.96
742.454	245.07
742.639	234.83
742.824	152.91
743.01	236.88
743.195	290.13
743.38	234.83
743.565	142.68
743.75	226.64
743.935	292.18
744.12	316.75
744.305	89.43
744.49	167.25
744.675	220.5
744.86	218.45
745.045	189.78
745.23	269.65
745.415	150.87
745.6	312.66
745.785	191.83
745.97	175.44
746.155	206.16
746.34	222.55
746.525	191.83
746.71	228.69
746.895	87.38
747.079	107.86
747.264	183.63
747.449	243.03
747.634	275.79
747.819	238.93
748.003	124.24
748.188	148.82
748.373	122.2
748.557	126.29
748.742	183.63
748.927	87.38
749.111	116.05
749.296	234.83
749.481	259.41
749.665	210.26
749.85	163.15
750.034	144.72
750.219	150.87
750.404	107.86
750.588	189.78
750.773	136.53
750.957	167.25
751.141	124.24
751.326	169.3
751.51	-29.35
751.695	159.06
751.879	222.55
752.064	232.79
752.248	222.55
752.432	300.37
752.617	234.83
752.801	216.4
752.985	101.72
753.17	214.35
753.354	146.77
753.538	152.91
753.722	73.04
753.907	126.29
754.091	81.24
754.275	105.81
754.459	77.14
754.643	71
754.828	175.44
755.012	208.21
755.196	81.24
755.38	191.83
755.564	89.43
755.748	140.63
755.932	77.14
756.116	183.63
756.3	150.87
756.484	120.15
756.668	134.48
756.852	60.76
757.036	148.82
757.22	109.91
757.404	73.04
757.588	68.95
757.772	193.87
757.956	122.2
758.14	220.5
758.323	101.72
758.507	128.34
758.691	64.85
758.875	146.77
759.059	193.87
759.242	111.96
759.426	79.19
759.61	148.82
759.794	99.67
759.977	144.72
760.161	345.42
760.345	187.73
760.528	179.54
760.712	132.44
760.895	161.11
761.079	134.48
761.263	42.32
761.446	148.82
761.63	68.95
761.813	124.24
761.997	27.99
762.18	118.1
762.364	122.2
762.547	1.37
762.731	163.15
762.914	122.2
763.098	32.08
763.281	122.2
763.464	134.48
763.648	52.56
763.831	99.67
764.015	81.24
764.198	91.48
764.381	30.04
764.564	54.61
764.748	120.15
764.931	87.38
765.114	99.67
765.297	118.1
765.481	56.66
765.664	116.05
765.847	132.44
766.03	228.69
766.213	1.37
766.397	116.05
766.58	-53.93
766.763	99.67
766.946	-4.78
767.129	-12.97
767.312	9.56
767.495	71
767.678	58.71
767.861	91.48
768.044	95.57
768.227	40.28
768.41	-8.87
768.593	56.66
768.776	66.9
768.959	-0.68
769.142	148.82
769.324	99.67
769.507	89.43
769.69	-43.69
769.873	-21.16
770.056	265.55
770.239	64.85
770.421	146.77
770.604	154.96
770.787	11.61
770.97	27.99
771.152	36.18
771.335	75.09
771.518	9.56
771.7	169.3
771.883	122.2
772.066	60.76
772.248	97.62
772.431	85.33
772.613	177.49
772.796	60.76
772.978	118.1
773.161	130.39
773.343	36.18
773.526	7.51
773.708	75.09
773.891	-49.83
774.073	5.46
774.256	-25.26
774.438	146.77
774.621	-6.83
774.803	40.28
774.985	15.7
775.168	130.39
775.35	23.89
775.532	146.77
775.715	-23.21
775.897	114
776.079	-0.68
776.261	126.29
776.444	-4.78
776.626	36.18
776.808	-15.02
776.99	13.65
777.173	122.2
777.355	-58.03
777.537	93.52
777.719	122.2
777.901	-23.21
778.083	-12.97
778.265	-78.51
778.447	105.81
778.629	-8.87
778.811	64.85
778.993	167.25
779.175	54.61
779.357	79.19
779.539	-60.07
779.721	-27.31
779.903	99.67
780.085	13.65
780.267	-15.02
780.449	7.51
780.631	126.29
780.812	111.96
780.994	73.04
781.176	32.08
781.358	-25.26
781.54	-2.73
781.721	48.47
781.903	73.04
782.085	34.13
782.267	99.67
782.448	-68.27
782.63	-17.07
782.812	11.61
782.993	66.9
783.175	60.76
783.357	3.41
783.538	77.14
783.72	27.99
783.901	15.7
784.083	66.9
784.264	30.04
784.446	-21.16
784.627	-103.08
784.809	-12.97
784.99	-12.97
785.172	34.13
785.353	9.56
785.535	44.37
785.716	3.41
785.897	-17.07
786.079	58.71
786.26	-10.92
786.441	87.38
786.623	-76.46
786.804	-74.41
786.985	-0.68
787.167	11.61
787.348	81.24
787.529	-17.07
787.71	130.39
787.891	75.09
788.073	-4.78
788.254	-35.5
788.435	77.14
788.616	64.85
788.797	-39.59
788.978	-19.11
789.159	-29.35
789.34	79.19
789.522	13.65
789.703	-27.31
789.884	-72.36
790.065	50.52
790.246	144.72
790.427	-12.97
790.607	161.11
790.788	17.75
790.969	-33.45
791.15	-4.78
791.331	-29.35
791.512	27.99
791.693	38.23
791.874	-74.41
792.054	200.02
792.235	73.04
792.416	-6.83
792.597	-41.64
792.778	66.9
792.958	-25.26
793.139	56.66
793.32	7.51
793.5	-41.64
793.681	107.86
793.862	38.23
794.042	32.08
794.223	-117.42
794.404	-53.93
794.584	-80.55
794.765	-12.97
794.945	81.24
795.126	44.37
795.306	56.66
795.487	40.28
795.667	-27.31
795.848	-15.02
796.028	-15.02
796.209	-37.55
796.389	48.47
796.57	62.8
796.75	-84.65
796.93	-17.07
797.111	-55.98
797.291	-84.65
797.471	-0.68
797.652	17.75
797.832	-47.79
798.012	66.9
798.192	11.61
798.373	-76.46
798.553	-17.07
798.733	3.41
798.913	-76.46
799.093	15.7
799.274	71
799.454	1.37
799.634	89.43
799.814	128.34
799.994	27.99
800.174	56.66
800.354	-60.07
800.534	-92.84
800.714	9.56
800.894	-21.16
801.074	-31.4
801.254	-37.55
801.434	83.28
801.614	-74.41
801.794	-39.59
801.974	1869.11
802.154	-2.73
802.334	56.66
802.514	-35.5
802.693	-10.92
802.873	15.7
803.053	52.56
803.233	52.56
803.413	-43.69
803.592	-47.79
803.772	-43.69
803.952	-2.73
804.131	-111.27
804.311	91.48
804.491	64.85
804.67	-31.4
804.85	-10.92
805.03	34.13
805.209	66.9
805.389	-4.78
805.568	-35.5
805.748	38.23
805.928	-19.11
806.107	36.18
806.287	-19.11
806.466	97.62
806.646	5.46
806.825	-94.89
807.004	-12.97
807.184	-25.26
807.363	9.56
807.543	21.84
807.722	-41.64
807.901	105.81
808.081	116.05
808.26	-117.42
808.439	3.41
808.619	46.42
808.798	-107.18
808.977	17.75
809.156	44.37
809.336	19.8
809.515	132.44
809.694	-119.46
809.873	-25.26
810.052	60.76
810.231	75.09
810.411	-4.78
810.59	27.99
810.769	13.65
810.948	-0.68
811.127	-94.89
811.306	21.84
811.485	-6.83
811.664	177.49
811.843	-58.03
812.022	-21.16
812.201	-92.84
812.38	-12.97
812.559	-2.73
812.737	9.56
812.916	-74.41
813.095	-176.81
813.274	40.28
813.453	-62.12
813.632	50.52
813.811	42.32
813.989	-107.18
814.168	15.7
814.347	-17.07
814.526	3.41
814.704	68.95
814.883	101.72
815.062	-68.27
815.24	101.72
815.419	-15.02
815.598	-39.59
815.776	-162.47
815.955	-58.03
816.133	-168.62
816.312	42.32
816.49	-35.5
816.669	97.62
816.847	32.08
817.026	50.52
817.204	-55.98
817.383	5.46
817.561	-64.17
817.74	58.71
817.918	71
818.097	36.18
818.275	-78.51
818.453	25.94
818.632	-4.78
818.81	32.08
818.988	-35.5
819.167	5.46
819.345	21.84
819.523	-105.13
819.701	-35.5
819.879	15.7
820.058	42.32
820.236	-8.87
820.414	-12.97
820.592	-199.34
820.77	-23.21
820.948	-33.45
821.127	-27.31
821.305	19.8
821.483	-76.46
821.661	48.47
821.839	83.28
822.017	-144.04
822.195	-0.68
822.373	50.52
822.551	-21.16
822.729	44.37
822.907	-0.68
823.085	54.61
823.262	66.9
823.44	1.37
823.618	7.51
823.796	11.61
823.974	-55.98
824.152	-0.68
824.329	-39.59
824.507	7.51
824.685	56.66
824.863	25.94
825.04	-0.68
825.218	13.65
825.396	-51.88
825.574	-27.31
825.751	-4.78
825.929	97.62
826.107	-64.17
826.284	-27.31
826.462	7.51
826.639	-68.27
826.817	-25.26
826.994	19.8
827.172	-121.51
827.349	122.2
827.527	-43.69
827.704	75.09
827.882	25.94
828.059	-15.02
828.237	1.37
828.414	-12.97
828.591	-133.8
828.769	5.46
828.946	-78.51
829.124	36.18
829.301	130.39
829.478	-70.31
829.655	42.32
829.833	40.28
830.01	-137.9
830.187	-0.68
830.364	23.89
830.542	5.46
830.719	58.71
830.896	-33.45
831.073	-17.07
831.25	48.47
831.427	56.66
831.604	34.13
831.782	-31.4
831.959	23.89
832.136	3.41
832.313	21.84
832.49	-55.98
832.667	15.7
832.844	-12.97
833.021	134.48
833.198	68.95
833.374	46.42
833.551	15.7
833.728	-53.93
833.905	-4.78
834.082	-141.99
834.259	11.61
834.436	152.91
834.612	-72.36
834.789	-15.02
834.966	-43.69
835.143	32.08
835.319	-37.55
835.496	66.9
835.673	-31.4
835.85	114
836.026	60.76
836.203	-4.78
836.38	-10.92
836.556	-17.07
836.733	-4.78
836.909	95.57
837.086	-152.23
837.262	-70.31
837.439	-60.07
837.616	-90.79
837.792	-25.26
837.968	25.94
838.145	-111.27
838.321	52.56
838.498	-39.59
838.674	3.41
838.851	-84.65
839.027	-41.64
839.203	-25.26
839.38	-15.02
839.556	-37.55
839.732	64.85
839.909	-19.11
840.085	54.61
840.261	-74.41
840.437	56.66
840.614	-55.98
840.79	77.14
840.966	23.89
841.142	17.75
841.318	-70.31
841.494	54.61
841.671	9.56
841.847	-70.31
842.023	-137.9
842.199	93.52
842.375	68.95
842.551	-144.04
842.727	-21.16
842.903	120.15
843.079	-23.21
843.255	107.86
843.431	77.14
843.607	32.08
843.783	-158.38
843.959	91.48
844.134	-76.46
844.31	77.14
844.486	-139.94
844.662	-68.27
844.838	-41.64
845.013	42.32
845.189	-6.83
845.365	54.61
845.541	9.56
845.716	-15.02
845.892	114
846.068	-101.03
846.244	-15.02
846.419	21.84
846.595	-123.56
846.77	-82.6
846.946	36.18
847.122	-107.18
847.297	-72.36
847.473	85.33
847.648	-166.57
847.824	34.13
847.999	-109.23
848.175	-12.97
848.35	21.84
848.526	68.95
848.701	7.51
848.876	68.95
849.052	17.75
849.227	-39.59
849.403	-58.03
849.578	95.57
849.753	54.61
849.929	19.8
850.104	-88.75
850.279	27.99
850.454	21.84
850.63	-92.84
850.805	-12.97
850.98	7.51
851.155	19.8
851.33	-51.88
851.505	-133.8
851.681	60.76
851.856	-55.98
852.031	21.84
852.206	7.51
852.381	-53.93
852.556	-70.31
852.731	3.41
852.906	64.85
853.081	38.23
853.256	23.89
853.431	-29.35
853.606	-92.84
853.781	-109.23
853.956	-60.07
854.131	-31.4
854.305	-60.07
854.48	-43.69
854.655	-49.83
854.83	-66.22
855.005	-98.99
855.18	-37.55
855.354	-70.31
855.529	-2.73
855.704	-66.22
855.879	5.46
856.053	-94.89
856.228	-2.73
856.403	-94.89
856.577	48.47
856.752	-144.04
856.926	56.66
857.101	-17.07
857.276	-103.08
857.45	30.04
857.625	46.42
857.799	-37.55
857.974	36.18
858.148	-121.51
858.323	-35.5
858.497	-45.74
858.672	-35.5
858.846	-19.11
859.02	-15.02
859.195	-84.65
859.369	-8.87
859.543	-4.78
859.718	15.7
859.892	30.04
860.066	-39.59
860.241	-55.98
860.415	-55.98
860.589	-31.4
860.763	-29.35
860.938	44.37
861.112	120.15
861.286	-94.89
861.46	-10.92
861.634	-8.87
861.808	1.37
861.982	-115.37
862.157	-98.99
862.331	-49.83
862.505	-109.23
862.679	-72.36
862.853	-84.65
863.027	-70.31
863.201	122.2
863.375	-78.51
863.549	5.46
863.722	9.56
863.896	71
864.07	-53.93
864.244	-29.35
864.418	62.8
864.592	34.13
864.766	-72.36
864.939	-19.11
865.113	-21.16
865.287	93.52
865.461	-109.23
865.634	7.51
865.808	-25.26
865.982	-70.31
866.156	-78.51
866.329	-154.28
866.503	-27.31
866.676	44.37
866.85	13.65
867.024	-78.51
867.197	-0.68
867.371	-43.69
867.544	7.51
867.718	-72.36
867.891	27.99
868.065	-101.03
868.238	-115.37
868.412	32.08
868.585	38.23
868.759	-49.83
868.932	-47.79
869.105	-117.42
869.279	11.61
869.452	-119.46
869.625	27.99
869.799	-47.79
869.972	-31.4
870.145	-51.88
870.319	50.52
870.492	7.51
870.665	-23.21
870.838	-107.18
871.011	-191.14
871.185	-17.07
871.358	-86.7
871.531	42.32
871.704	-64.17
871.877	-37.55
872.05	-19.11
872.223	-123.56
872.396	17.75
872.569	17.75
872.742	-64.17
872.915	50.52
873.088	-47.79
873.261	-60.07
873.434	27.99
873.607	-121.51
873.78	58.71
873.953	-92.84
874.126	27.99
874.299	-6.83
874.471	-55.98
874.644	-55.98
874.817	15.7
874.99	77.14
875.163	-45.74
875.335	34.13
875.508	-39.59
875.681	77.14
875.853	-43.69
876.026	44.37
876.199	-6.83
876.371	-6.83
876.544	-19.11
876.717	-6.83
876.889	-137.9
877.062	48.47
877.234	-123.56
877.407	-60.07
877.579	5.46
877.752	15.7
877.924	-23.21
878.097	32.08
878.269	54.61
878.442	-23.21
878.614	46.42
878.786	-21.16
878.959	-8.87
879.131	-64.17
879.303	-160.42
879.476	-109.23
879.648	11.61
879.82	34.13
879.993	-29.35
880.165	-37.55
880.337	-98.99
880.509	-31.4
880.681	-154.28
880.854	-76.46
881.026	-23.21
881.198	68.95
881.37	-66.22
881.542	1.37
881.714	-62.12
881.886	-37.55
882.058	1.37
882.23	5.46
882.402	-27.31
882.574	-58.03
882.746	87.38
882.918	60.76
883.09	-70.31
883.262	-19.11
883.434	-41.64
883.606	-160.42
883.778	-0.68
883.95	46.42
884.122	-72.36
884.293	73.04
884.465	52.56
884.637	68.95
884.809	-84.65
884.98	-10.92
885.152	-21.16
885.324	-15.02
885.496	-58.03
885.667	-39.59
885.839	-60.07
886.011	44.37
886.182	-8.87
886.354	54.61
886.525	-27.31
886.697	54.61
886.869	-76.46
887.04	-119.46
887.212	15.7
887.383	136.53
887.555	-10.92
887.726	-82.6
887.897	-107.18
888.069	-23.21
888.24	93.52
888.412	-19.11
888.583	-55.98
888.754	-62.12
888.926	-21.16
889.097	-62.12
889.268	-111.27
889.44	-53.93
889.611	-78.51
889.782	-84.65
889.953	-125.61
890.125	64.85
890.296	-107.18
890.467	-47.79
890.638	-6.83
890.809	27.99
890.98	-19.11
891.151	75.09
891.323	77.14
891.494	-8.87
891.665	-49.83
891.836	-92.84
892.007	58.71
892.178	13.65
892.349	-37.55
892.52	-35.5
892.691	1.37
892.862	-51.88
893.032	-127.66
893.203	-51.88
893.374	-31.4
893.545	101.72
893.716	-70.31
893.887	130.39
894.057	11.61
894.228	-31.4
894.399	-4.78
894.57	68.95
894.74	5.46
894.911	-60.07
895.082	-12.97
895.253	-60.07
895.423	11.61
895.594	-2.73
895.764	-12.97
895.935	-94.89
896.106	5.46
896.276	-53.93
896.447	-12.97
896.617	-31.4
896.788	-72.36
896.958	-121.51
897.129	-123.56
897.299	-76.46
897.47	118.1
897.64	46.42
897.81	-53.93
897.981	5.46
898.151	-84.65
898.322	-76.46
898.492	3.41
898.662	-76.46
898.832	-53.93
899.003	-101.03
899.173	1.37
899.343	-62.12
899.513	-4.78
