Data from USB4F104151__203__11-05-38-029.txt Node

Date: Wed Feb 26 11:05:38 EST 2025
User: louis
Spectrometer: USB4F10415
Trigger mode: 4
Integration Time (sec): 1.000000E-1
Scans to average: 1
Electric dark correction enabled: true
Nonlinearity correction enabled: false
Boxcar width: 0
XAxis mode: Wavelengths
Number of Pixels in Spectrum: 3648
>>>>>Begin Spectral Data<<<<<
178.204	-372.05
178.424	-372.05
178.644	-372.05
178.864	-339.28
179.084	-378.19
179.304	33.45
179.524	45.74
179.744	-13.65
179.964	107.18
180.184	-13.65
180.404	6.83
180.624	-30.04
180.844	-46.42
181.064	-95.57
181.283	-15.7
181.503	-56.66
181.723	78.51
181.943	-79.19
182.163	217.77
182.383	31.4
182.602	117.42
182.822	174.76
183.042	72.36
183.262	-32.08
183.482	27.31
183.701	33.45
183.921	60.07
184.141	-11.61
184.361	131.75
184.58	84.65
184.8	17.07
185.02	-42.32
185.239	127.66
185.459	101.03
185.679	43.69
185.898	-42.32
186.118	-15.7
186.338	33.45
186.557	133.8
186.777	-54.61
186.997	-7.51
187.216	-13.65
187.436	215.72
187.655	74.41
187.875	185
188.095	84.65
188.314	185
188.534	107.18
188.753	-44.37
188.973	123.56
189.192	162.47
189.412	4.78
189.631	35.5
189.851	76.46
190.07	234.15
190.29	-25.94
190.509	8.87
190.729	-17.75
190.948	76.46
191.168	287.4
191.387	-11.61
191.607	10.92
191.826	35.5
192.045	58.03
192.265	66.22
192.484	47.79
192.704	80.55
192.923	19.11
193.142	215.72
193.362	160.42
193.581	144.04
193.8	68.27
194.02	76.46
194.239	31.4
194.458	80.55
194.678	31.4
194.897	21.16
195.116	68.27
195.335	31.4
195.555	47.79
195.774	41.64
195.993	98.99
196.212	109.23
196.432	68.27
196.651	0.68
196.87	62.12
197.089	250.53
197.308	35.5
197.528	64.17
197.747	-46.42
197.966	86.7
198.185	180.9
198.404	-52.56
198.623	225.96
198.842	170.66
199.062	66.22
199.281	129.7
199.5	-30.04
199.719	96.94
199.938	88.75
200.157	103.08
200.376	88.75
200.595	144.04
200.814	94.89
201.033	19.11
201.252	191.14
201.471	-7.51
201.69	119.46
201.909	76.46
202.128	162.47
202.347	107.18
202.566	78.51
202.785	-13.65
203.004	-27.99
203.223	236.2
203.442	25.26
203.661	35.5
203.879	109.23
204.098	189.1
204.317	21.16
204.536	111.27
204.755	60.07
204.974	92.84
205.193	15.02
205.411	133.8
205.63	146.09
205.849	86.7
206.068	0.68
206.287	-34.13
206.505	213.67
206.724	58.03
206.943	-54.61
207.162	-87.38
207.381	76.46
207.599	72.36
207.818	84.65
208.037	64.17
208.255	17.07
208.474	51.88
208.693	68.27
208.911	62.12
209.13	154.28
209.349	117.42
209.567	113.32
209.786	76.46
210.005	86.7
210.223	96.94
210.442	-50.52
210.661	94.89
210.879	70.31
211.098	115.37
211.316	88.75
211.535	90.79
211.753	76.46
211.972	78.51
212.191	-21.84
212.409	101.03
212.628	113.32
212.846	55.98
213.065	94.89
213.283	133.8
213.502	49.83
213.72	76.46
213.938	47.79
214.157	-19.8
214.375	101.03
214.594	-9.56
214.812	66.22
215.031	10.92
215.249	55.98
215.467	98.99
215.686	25.26
215.904	72.36
216.122	43.69
216.341	111.27
216.559	86.7
216.778	82.6
216.996	158.38
217.214	117.42
217.432	4.78
217.651	-7.51
217.869	55.98
218.087	98.99
218.306	-27.99
218.524	51.88
218.742	43.69
218.96	125.61
219.179	-34.13
219.397	-9.56
219.615	277.16
219.833	74.41
220.051	-21.84
220.27	150.18
220.488	144.04
220.706	96.94
220.924	2.73
221.142	-25.94
221.36	10.92
221.578	103.08
221.796	82.6
222.015	33.45
222.233	33.45
222.451	180.9
222.669	27.31
222.887	158.38
223.105	-3.41
223.323	27.31
223.541	-52.56
223.759	103.08
223.977	-3.41
224.195	158.38
224.413	78.51
224.631	37.55
224.849	115.37
225.067	195.24
225.285	113.32
225.503	35.5
225.721	-132.44
225.939	-7.51
226.157	31.4
226.375	185
226.592	43.69
226.81	76.46
227.028	170.66
227.246	115.37
227.464	66.22
227.682	187.05
227.9	84.65
228.117	62.12
228.335	109.23
228.553	82.6
228.771	82.6
228.989	58.03
229.206	133.8
229.424	96.94
229.642	-38.23
229.86	8.87
230.077	129.7
230.295	33.45
230.513	150.18
230.731	92.84
230.948	123.56
231.166	215.72
231.384	86.7
231.601	41.64
231.819	166.57
232.037	-15.7
232.254	-15.7
232.472	68.27
232.689	-3.41
232.907	172.71
233.125	49.83
233.342	-40.28
233.56	-44.37
233.777	8.87
233.995	8.87
234.213	41.64
234.43	129.7
234.648	29.35
234.865	-21.84
235.083	90.79
235.3	78.51
235.518	127.66
235.735	103.08
235.953	127.66
236.17	49.83
236.388	-38.23
236.605	12.97
236.822	150.18
237.04	98.99
237.257	96.94
237.475	-52.56
237.692	53.93
237.909	156.33
238.127	-5.46
238.344	113.32
238.562	68.27
238.779	-30.04
238.996	15.02
239.214	31.4
239.431	76.46
239.648	90.79
239.865	88.75
240.083	94.89
240.3	-27.99
240.517	39.59
240.735	41.64
240.952	111.27
241.169	141.99
241.386	60.07
241.603	84.65
241.821	-64.85
242.038	137.9
242.255	82.6
242.472	25.26
242.689	101.03
242.907	53.93
243.124	98.99
243.341	60.07
243.558	-34.13
243.775	15.02
243.992	-52.56
244.209	92.84
244.426	203.43
244.643	135.85
244.86	68.27
245.078	129.7
245.295	25.26
245.512	10.92
245.729	66.22
245.946	68.27
246.163	96.94
246.38	35.5
246.597	92.84
246.814	82.6
247.031	72.36
247.248	29.35
247.464	137.9
247.681	25.26
247.898	119.46
248.115	137.9
248.332	4.78
248.549	123.56
248.766	92.84
248.983	144.04
249.2	123.56
249.417	123.56
249.633	23.21
249.85	139.94
250.067	41.64
250.284	111.27
250.501	109.23
250.717	86.7
250.934	8.87
251.151	76.46
251.368	70.31
251.585	25.26
251.801	125.61
252.018	60.07
252.235	94.89
252.451	0.68
252.668	25.26
252.885	76.46
253.102	88.75
253.318	103.08
253.535	-89.43
253.752	-50.52
253.968	49.83
254.185	12.97
254.401	92.84
254.618	64.17
254.835	6.83
255.051	115.37
255.268	137.9
255.484	35.5
255.701	96.94
255.917	92.84
256.134	-101.72
256.351	76.46
256.567	41.64
256.784	-5.46
257	-36.18
257.217	92.84
257.433	96.94
257.65	29.35
257.866	201.38
258.082	-77.14
258.299	25.26
258.515	10.92
258.732	8.87
258.948	17.07
259.165	88.75
259.381	-11.61
259.597	133.8
259.814	53.93
260.03	-9.56
260.246	88.75
260.463	105.13
260.679	166.57
260.895	2.73
261.112	76.46
261.328	25.26
261.544	-25.94
261.761	170.66
261.977	-40.28
262.193	55.98
262.409	105.13
262.626	2.73
262.842	47.79
263.058	-7.51
263.274	105.13
263.49	74.41
263.707	133.8
263.923	78.51
264.139	21.16
264.355	41.64
264.571	133.8
264.787	17.07
265.004	164.52
265.22	41.64
265.436	-87.38
265.652	60.07
265.868	51.88
266.084	-9.56
266.3	47.79
266.516	25.26
266.732	-3.41
266.948	60.07
267.164	-9.56
267.38	103.08
267.596	92.84
267.812	182.95
268.028	35.5
268.244	45.74
268.46	80.55
268.676	68.27
268.892	-7.51
269.108	45.74
269.324	6.83
269.54	8.87
269.756	72.36
269.972	-44.37
270.188	58.03
270.403	-11.61
270.619	-21.84
270.835	88.75
271.051	55.98
271.267	66.22
271.483	47.79
271.698	86.7
271.914	33.45
272.13	78.51
272.346	62.12
272.562	41.64
272.777	92.84
272.993	49.83
273.209	-79.19
273.425	82.6
273.64	-54.61
273.856	80.55
274.072	-3.41
274.287	60.07
274.503	82.6
274.719	166.57
274.934	-15.7
275.15	-81.24
275.366	33.45
275.581	-11.61
275.797	101.03
276.012	107.18
276.228	23.21
276.444	84.65
276.659	68.27
276.875	-77.14
277.09	98.99
277.306	117.42
277.521	84.65
277.737	-5.46
277.952	72.36
278.168	80.55
278.383	31.4
278.599	15.02
278.814	121.51
279.03	43.69
279.245	125.61
279.461	82.6
279.676	127.66
279.892	-36.18
280.107	-25.94
280.322	62.12
280.538	15.02
280.753	-5.46
280.969	29.35
281.184	-3.41
281.399	137.9
281.615	-21.84
281.83	111.27
282.045	-27.99
282.26	-5.46
282.476	-17.75
282.691	113.32
282.906	25.26
283.122	68.27
283.337	35.5
283.552	90.79
283.767	117.42
283.983	133.8
284.198	-44.37
284.413	135.85
284.628	-56.66
284.843	117.42
285.058	109.23
285.274	21.16
285.489	-103.76
285.704	98.99
285.919	-17.75
286.134	94.89
286.349	45.74
286.564	-38.23
286.779	137.9
286.995	17.07
287.21	-27.99
287.425	119.46
287.64	29.35
287.855	55.98
288.07	-54.61
288.285	49.83
288.5	94.89
288.715	123.56
288.93	19.11
289.145	-27.99
289.36	131.75
289.575	35.5
289.79	125.61
290.004	0.68
290.219	129.7
290.434	8.87
290.649	6.83
290.864	10.92
291.079	-9.56
291.294	19.11
291.509	43.69
291.724	80.55
291.938	51.88
292.153	94.89
292.368	29.35
292.583	23.21
292.798	58.03
293.012	94.89
293.227	111.27
293.442	21.16
293.657	117.42
293.871	166.57
294.086	41.64
294.301	178.86
294.516	129.7
294.73	107.18
294.945	-93.52
295.16	6.83
295.374	117.42
295.589	84.65
295.804	29.35
296.018	53.93
296.233	121.51
296.447	107.18
296.662	-99.67
296.877	152.23
297.091	64.17
297.306	0.68
297.52	45.74
297.735	94.89
297.949	49.83
298.164	33.45
298.378	35.5
298.593	66.22
298.807	37.55
299.022	8.87
299.236	137.9
299.451	98.99
299.665	-32.08
299.88	41.64
300.094	76.46
300.309	33.45
300.523	21.16
300.737	107.18
300.952	141.99
301.166	119.46
301.381	-42.32
301.595	-50.52
301.809	2.73
302.024	-11.61
302.238	15.02
302.452	107.18
302.667	53.93
302.881	131.75
303.095	43.69
303.309	68.27
303.524	60.07
303.738	-48.47
303.952	-32.08
304.166	135.85
304.381	-85.33
304.595	164.52
304.809	8.87
305.023	19.11
305.237	0.68
305.452	0.68
305.666	129.7
305.88	27.31
306.094	131.75
306.308	113.32
306.522	113.32
306.736	70.31
306.95	103.08
307.164	76.46
307.379	74.41
307.593	150.18
307.807	182.95
308.021	10.92
308.235	166.57
308.449	-13.65
308.663	19.11
308.877	283.3
309.091	47.79
309.305	45.74
309.519	-50.52
309.733	121.51
309.947	-38.23
310.161	105.13
310.374	109.23
310.588	117.42
310.802	-13.65
311.016	-40.28
311.23	113.32
311.444	19.11
311.658	-13.65
311.872	193.19
312.085	129.7
312.299	109.23
312.513	144.04
312.727	62.12
312.941	-25.94
313.154	70.31
313.368	58.03
313.582	62.12
313.796	41.64
314.009	4.78
314.223	154.28
314.437	74.41
314.651	92.84
314.864	27.31
315.078	-3.41
315.292	-46.42
315.505	111.27
315.719	107.18
315.933	66.22
316.146	33.45
316.36	35.5
316.573	176.81
316.787	64.17
317.001	35.5
317.214	-3.41
317.428	131.75
317.641	2.73
317.855	68.27
318.068	25.26
318.282	66.22
318.495	180.9
318.709	60.07
318.922	94.89
319.136	129.7
319.349	92.84
319.563	25.26
319.776	29.35
319.99	-5.46
320.203	78.51
320.417	37.55
320.63	121.51
320.843	158.38
321.057	88.75
321.27	25.26
321.483	129.7
321.697	185
321.91	39.59
322.124	37.55
322.337	90.79
322.55	-34.13
322.763	70.31
322.977	39.59
323.19	-15.7
323.403	72.36
323.617	127.66
323.83	154.28
324.043	60.07
324.256	96.94
324.469	-54.61
324.683	131.75
324.896	74.41
325.109	25.26
325.322	-27.99
325.535	84.65
325.748	94.89
325.962	35.5
326.175	62.12
326.388	66.22
326.601	185
326.814	86.7
327.027	94.89
327.24	232.1
327.453	-97.62
327.666	176.81
327.879	51.88
328.092	62.12
328.305	113.32
328.518	43.69
328.731	-3.41
328.944	12.97
329.157	115.37
329.37	-15.7
329.583	193.19
329.796	150.18
330.009	-58.71
330.222	141.99
330.435	80.55
330.648	66.22
330.861	101.03
331.073	68.27
331.286	160.42
331.499	64.17
331.712	-19.8
331.925	82.6
332.138	43.69
332.35	103.08
332.563	27.31
332.776	90.79
332.989	-50.52
333.202	80.55
333.414	74.41
333.627	94.89
333.84	23.21
334.053	115.37
334.265	12.97
334.478	-32.08
334.691	27.31
334.903	133.8
335.116	43.69
335.329	-66.9
335.541	131.75
335.754	141.99
335.966	58.03
336.179	49.83
336.392	25.26
336.604	74.41
336.817	92.84
337.029	94.89
337.242	-30.04
337.454	115.37
337.667	51.88
337.88	154.28
338.092	129.7
338.305	113.32
338.517	-13.65
338.729	172.71
338.942	111.27
339.154	-23.89
339.367	47.79
339.579	17.07
339.792	10.92
340.004	137.9
340.217	55.98
340.429	141.99
340.641	-56.66
340.854	-38.23
341.066	-27.99
341.278	70.31
341.491	117.42
341.703	76.46
341.915	78.51
342.128	82.6
342.34	129.7
342.552	43.69
342.764	49.83
342.977	8.87
343.189	117.42
343.401	150.18
343.613	-52.56
343.826	121.51
344.038	27.31
344.25	129.7
344.462	-44.37
344.674	35.5
344.886	80.55
345.099	27.31
345.311	74.41
345.523	39.59
345.735	-56.66
345.947	117.42
346.159	125.61
346.371	37.55
346.583	-7.51
346.795	154.28
347.007	31.4
347.219	72.36
347.431	10.92
347.643	197.29
347.855	23.21
348.067	240.3
348.279	-52.56
348.491	90.79
348.703	35.5
348.915	37.55
349.127	74.41
349.339	86.7
349.551	0.68
349.763	105.13
349.975	74.41
350.187	101.03
350.399	64.17
350.61	76.46
350.822	-1.37
351.034	66.22
351.246	21.16
351.458	72.36
351.669	133.8
351.881	103.08
352.093	135.85
352.305	58.03
352.517	131.75
352.728	209.58
352.94	41.64
353.152	27.31
353.363	27.31
353.575	160.42
353.787	197.29
353.999	139.94
354.21	123.56
354.422	37.55
354.633	84.65
354.845	131.75
355.057	23.21
355.268	8.87
355.48	117.42
355.692	4.78
355.903	43.69
356.115	-11.61
356.326	-75.09
356.538	203.43
356.749	6.83
356.961	180.9
357.172	66.22
357.384	21.16
357.595	107.18
357.807	2.73
358.018	-7.51
358.23	25.26
358.441	205.48
358.653	86.7
358.864	39.59
359.075	-50.52
359.287	129.7
359.498	158.38
359.709	180.9
359.921	39.59
360.132	70.31
360.344	80.55
360.555	17.07
360.766	47.79
360.977	47.79
361.189	125.61
361.4	55.98
361.611	193.19
361.823	172.71
362.034	55.98
362.245	-91.48
362.456	53.93
362.667	141.99
362.879	-25.94
363.09	72.36
363.301	84.65
363.512	131.75
363.723	15.02
363.935	64.17
364.146	154.28
364.357	19.11
364.568	88.75
364.779	-5.46
364.99	115.37
365.201	27.31
365.412	156.33
365.623	-91.48
365.834	123.56
366.045	45.74
366.256	86.7
366.467	201.38
366.678	37.55
366.889	70.31
367.1	10.92
367.311	160.42
367.522	33.45
367.733	156.33
367.944	90.79
368.155	82.6
368.366	121.51
368.577	123.56
368.788	125.61
368.999	-11.61
369.209	35.5
369.42	197.29
369.631	215.72
369.842	51.88
370.053	47.79
370.264	45.74
370.474	0.68
370.685	41.64
370.896	74.41
371.107	135.85
371.317	0.68
371.528	125.61
371.739	209.58
371.95	2.73
372.16	55.98
372.371	4.78
372.582	4.78
372.792	105.13
373.003	21.16
373.214	96.94
373.424	137.9
373.635	-40.28
373.846	156.33
374.056	107.18
374.267	82.6
374.477	39.59
374.688	12.97
374.898	92.84
375.109	6.83
375.319	113.32
375.53	148.14
375.74	76.46
375.951	-13.65
376.161	70.31
376.372	193.19
376.582	-3.41
376.793	84.65
377.003	76.46
377.214	23.21
377.424	94.89
377.635	43.69
377.845	-3.41
378.055	162.47
378.266	-46.42
378.476	-30.04
378.686	82.6
378.897	0.68
379.107	117.42
379.317	105.13
379.528	10.92
379.738	115.37
379.948	-17.75
380.158	21.16
380.369	66.22
380.579	86.7
380.789	84.65
380.999	96.94
381.21	53.93
381.42	137.9
381.63	64.17
381.84	70.31
382.05	94.89
382.261	125.61
382.471	51.88
382.681	0.68
382.891	176.81
383.101	19.11
383.311	27.31
383.521	17.07
383.731	86.7
383.941	137.9
384.151	51.88
384.361	43.69
384.571	94.89
384.781	45.74
384.991	158.38
385.201	141.99
385.411	119.46
385.621	6.83
385.831	53.93
386.041	55.98
386.251	4.78
386.461	146.09
386.671	49.83
386.881	66.22
387.091	113.32
387.301	154.28
387.511	-1.37
387.72	15.02
387.93	109.23
388.14	6.83
388.35	37.55
388.56	205.48
388.769	154.28
388.979	27.31
389.189	21.16
389.399	53.93
389.609	156.33
389.818	125.61
390.028	88.75
390.238	62.12
390.447	19.11
390.657	90.79
390.867	68.27
391.076	-40.28
391.286	121.51
391.496	43.69
391.705	74.41
391.915	141.99
392.125	117.42
392.334	25.26
392.544	80.55
392.753	15.02
392.963	-25.94
393.172	21.16
393.382	82.6
393.591	135.85
393.801	25.26
394.01	135.85
394.22	125.61
394.429	-52.56
394.639	-7.51
394.848	160.42
395.058	105.13
395.267	21.16
395.477	125.61
395.686	39.59
395.895	180.9
396.105	232.1
396.314	86.7
396.524	8.87
396.733	94.89
396.942	168.62
397.152	164.52
397.361	68.27
397.57	47.79
397.78	109.23
397.989	107.18
398.198	254.63
398.407	84.65
398.617	27.31
398.826	21.16
399.035	-3.41
399.244	172.71
399.453	12.97
399.663	76.46
399.872	68.27
400.081	-19.8
400.29	148.14
400.499	33.45
400.708	211.62
400.917	74.41
401.127	76.46
401.336	-27.99
401.545	121.51
401.754	144.04
401.963	129.7
402.172	19.11
402.381	-3.41
402.59	21.16
402.799	68.27
403.008	101.03
403.217	82.6
403.426	23.21
403.635	-30.04
403.844	105.13
404.053	94.89
404.262	-40.28
404.471	176.81
404.68	35.5
404.888	101.03
405.097	-36.18
405.306	78.51
405.515	150.18
405.724	41.64
405.933	94.89
406.142	98.99
406.35	82.6
406.559	12.97
406.768	35.5
406.977	189.1
407.185	70.31
407.394	129.7
407.603	8.87
407.812	123.56
408.02	219.82
408.229	-1.37
408.438	37.55
408.646	31.4
408.855	0.68
409.064	117.42
409.272	80.55
409.481	98.99
409.69	-23.89
409.898	31.4
410.107	64.17
410.315	131.75
410.524	86.7
410.733	107.18
410.941	103.08
411.15	176.81
411.358	125.61
411.567	125.61
411.775	72.36
411.984	76.46
412.192	115.37
412.401	2.73
412.609	125.61
412.818	187.05
413.026	98.99
413.234	29.35
413.443	45.74
413.651	-77.14
413.86	62.12
414.068	117.42
414.276	219.82
414.485	45.74
414.693	176.81
414.901	178.86
415.11	133.8
415.318	23.21
415.526	35.5
415.734	119.46
415.943	8.87
416.151	191.14
416.359	125.61
416.567	68.27
416.776	174.76
416.984	92.84
417.192	174.76
417.4	2.73
417.608	-7.51
417.817	80.55
418.025	70.31
418.233	195.24
418.441	60.07
418.649	-1.37
418.857	23.21
419.065	168.62
419.273	27.31
419.481	49.83
419.689	105.13
419.897	19.11
420.105	-30.04
420.313	187.05
420.521	189.1
420.729	170.66
420.937	72.36
421.145	-13.65
421.353	133.8
421.561	203.43
421.769	88.75
421.977	76.46
422.185	162.47
422.393	72.36
422.601	92.84
422.809	92.84
423.017	127.66
423.224	92.84
423.432	109.23
423.64	58.03
423.848	141.99
424.056	107.18
424.263	172.71
424.471	33.45
424.679	172.71
424.887	29.35
425.094	127.66
425.302	64.17
425.51	45.74
425.718	135.85
425.925	90.79
426.133	8.87
426.341	223.91
426.548	121.51
426.756	55.98
426.964	66.22
427.171	55.98
427.379	135.85
427.586	74.41
427.794	115.37
428.001	168.62
428.209	84.65
428.417	146.09
428.624	121.51
428.832	160.42
429.039	80.55
429.247	236.2
429.454	187.05
429.662	187.05
429.869	133.8
430.076	189.1
430.284	131.75
430.491	246.44
430.699	125.61
430.906	297.64
431.114	174.76
431.321	203.43
431.528	152.23
431.736	160.42
431.943	197.29
432.15	193.19
432.358	285.35
432.565	283.3
432.772	96.94
432.979	252.58
433.187	125.61
433.394	271.01
433.601	205.48
433.808	205.48
434.016	320.17
434.223	271.01
434.43	166.57
434.637	238.25
434.844	299.69
435.052	236.2
435.259	316.07
435.466	348.84
435.673	275.11
435.88	338.6
436.087	451.24
436.294	328.36
436.501	391.84
436.708	367.27
436.915	420.52
437.122	477.86
437.329	354.98
437.537	363.17
437.743	367.27
437.95	475.81
438.157	414.37
438.364	383.65
438.571	484
438.778	559.78
438.985	441
439.192	613.03
439.399	512.67
439.606	555.68
439.813	602.79
440.02	617.12
440.227	723.62
440.433	608.93
440.64	586.4
440.847	598.69
441.054	717.47
441.261	776.86
441.467	639.65
441.674	760.48
441.881	866.97
442.088	621.22
442.294	838.3
442.501	920.22
442.708	950.94
442.914	905.88
443.121	977.56
443.328	1006.24
443.534	1069.72
443.741	1084.06
443.948	942.75
444.154	1231.51
444.361	1342.1
444.568	1200.79
444.774	1206.94
444.981	1200.79
445.187	1434.26
445.394	1381.01
445.6	1362.58
445.807	1493.65
446.013	1387.16
446.22	1405.59
446.426	1575.57
446.633	1727.12
446.839	1862.29
447.046	1837.71
447.252	1899.15
447.459	1915.53
447.665	2056.84
447.871	1968.78
448.078	2220.68
448.284	2212.49
448.491	2323.08
448.697	2536.07
448.903	2609.79
449.11	2603.65
449.316	2501.25
449.522	2663.04
449.728	2890.37
449.935	2861.69
450.141	2943.61
450.347	3224.19
450.553	3240.57
450.76	3168.89
450.966	3504.76
451.172	3494.52
451.378	3805.81
451.584	3758.71
451.791	4076.14
451.997	4039.28
452.203	4188.78
452.409	4391.53
452.615	4590.18
452.821	4522.6
453.027	4424.3
453.233	5093.98
453.44	4921.95
453.646	5210.72
453.852	5468.76
454.058	5565.01
454.264	5816.91
454.47	6173.26
454.676	6345.29
454.882	6806.08
455.088	6298.19
455.294	6777.41
455.5	7209.53
455.705	7776.82
455.911	7633.46
456.117	8055.34
456.323	8202.8
456.529	8206.89
456.735	8952.35
456.941	9021.99
457.147	9660.95
457.352	9693.72
457.558	9972.24
457.764	10504.71
457.97	10787.33
458.176	11389.44
458.381	11813.37
458.587	12077.55
458.793	12802.54
458.999	12708.33
459.204	14299.6
459.41	14989.77
459.616	14535.12
459.821	15550.91
460.027	16228.79
460.233	16888.23
460.438	17136.04
460.644	17754.52
460.85	18219.41
461.055	19016.07
461.261	19491.2
461.466	18948.49
461.672	19612.03
461.878	22038.87
462.083	21551.46
462.289	22079.83
462.494	22927.69
462.7	23347.53
462.905	23234.89
463.111	25358.63
463.316	26501.4
463.522	27379.98
463.727	28098.81
463.932	28872.95
464.138	30234.85
464.343	31101.14
464.549	31627.46
464.754	33849.51
464.959	34324.64
465.165	34986.13
465.37	34965.65
465.575	34672.79
465.781	37154.93
465.986	38424.67
466.191	37396.59
466.397	37990.5
466.602	36917.37
466.807	39055.45
467.012	39733.32
467.218	40480.83
467.423	40597.57
467.628	41693.23
467.833	43778.06
468.038	43008.03
468.244	42448.93
468.449	44185.61
468.654	43550.74
468.859	43644.94
469.064	43450.39
469.269	42407.97
469.474	43085.85
469.679	43923.47
469.885	42197.03
470.09	43143.19
470.295	43474.96
470.5	42483.75
470.705	42749.98
470.91	41721.9
471.115	41150.52
471.32	42158.12
471.525	41672.75
471.73	40235.08
471.935	39903.31
472.139	38844.51
472.344	38525.02
472.549	38592.61
472.754	37611.63
472.959	36806.78
473.164	35752.07
473.369	35037.33
473.574	35922.05
473.778	35489.93
473.983	34697.37
474.188	34246.82
474.393	32628.92
474.598	32458.94
474.802	31693
475.007	31641.8
475.212	31041.74
475.417	29645.03
475.621	29726.95
475.826	29260.01
476.031	28473.59
476.235	27881.73
476.44	27973.89
476.645	27355.4
476.849	27070.73
477.054	26558.74
477.259	25858.34
477.463	25565.48
477.668	25100.59
477.872	25282.86
478.077	24594.74
478.282	23963.97
478.486	23554.37
478.691	23447.88
478.895	23335.24
479.1	22948.17
479.304	22716.75
479.509	21870.94
479.713	22364.5
479.918	21829.98
480.122	21317.99
480.326	21434.72
480.531	21283.17
480.735	21070.19
480.94	20812.14
481.144	21240.17
481.348	20101.5
481.553	20126.07
481.757	19853.69
481.961	20105.59
482.166	20431.22
482.37	19857.79
482.574	19356.04
482.778	19083.66
482.983	19546.5
483.187	19476.87
483.391	19292.55
483.595	18880.91
483.8	18588.05
484.004	18743.69
484.208	18618.77
484.412	18176.41
484.616	17908.12
484.821	18121.11
485.025	17371.55
485.229	17488.29
485.433	17023.4
485.637	16994.73
485.841	16716.2
486.045	16767.4
486.249	16419.25
486.453	16193.97
486.657	16091.57
486.861	15706.56
487.065	15073.73
487.269	15315.39
487.473	14696.91
487.677	14995.91
487.881	14838.22
488.085	14084.56
488.289	14109.14
488.493	13773.27
488.697	13689.31
488.901	13453.79
489.105	13097.44
489.309	13097.44
489.512	12493.29
489.716	12470.76
489.92	12243.44
490.124	11870.71
490.328	11983.35
490.531	11438.59
490.735	11559.42
490.939	11227.65
491.143	10906.12
491.346	10803.72
491.55	10574.35
491.754	10365.45
491.958	10418.7
492.161	10228.24
492.365	10150.42
492.569	9605.66
492.772	9886.23
492.976	9839.12
493.18	9529.88
493.383	9728.53
493.587	9275.93
493.79	9302.56
493.994	8974.88
494.197	9011.75
494.401	8972.83
494.605	8817.19
494.808	8765.99
495.012	8716.84
495.215	8661.54
495.419	8526.38
495.622	8440.36
495.825	8409.64
496.029	8421.93
496.232	8444.46
496.436	8319.53
496.639	8319.53
496.843	8202.8
497.046	8374.83
497.249	8454.7
497.453	8241.71
497.656	8229.42
497.859	8192.56
498.063	8366.64
498.266	8479.27
498.469	8165.93
498.673	8202.8
498.876	8411.69
499.079	8344.11
499.282	8380.97
499.485	8809
499.689	8704.55
499.892	8639.01
500.095	8694.31
500.298	8731.17
500.501	8628.77
500.705	8870.44
500.908	8886.82
501.111	8899.11
501.314	9087.52
501.517	9005.6
501.72	9191.97
501.923	9243.17
502.126	9415.19
502.329	9644.57
502.532	9564.7
502.735	9501.21
502.938	10002.96
503.141	9853.46
503.344	10023.44
503.547	10109.46
503.75	10121.74
503.953	10437.13
504.156	10578.44
504.359	10623.5
504.562	10781.19
504.765	11244.03
504.968	11264.51
505.17	11403.77
505.373	11311.61
505.576	11647.48
505.779	11796.98
505.982	11756.02
506.185	12483.05
506.387	12325.36
506.59	12626.41
506.793	12964.32
506.996	13007.33
507.198	13466.08
507.401	13672.92
507.604	13652.44
507.807	14162.39
508.009	14528.97
508.212	14660.04
508.415	14875.08
508.617	15174.08
508.82	15450.56
509.022	15411.65
509.225	16294.32
509.428	16425.39
509.63	16607.66
509.833	16972.2
510.035	17506.72
510.238	17785.24
510.44	18139.54
510.643	18438.55
510.845	19132.81
511.048	19224.97
511.25	19902.84
511.453	20228.47
511.655	21248.36
511.858	21444.96
512.06	21637.47
512.262	21829.98
512.465	22184.28
512.667	23034.19
512.87	23660.87
513.072	23509.32
513.274	24744.24
513.477	25217.32
513.679	25811.23
513.881	26386.71
514.084	26896.66
514.286	27488.52
514.488	27767.04
514.69	28920.05
514.893	29239.53
515.095	29536.49
515.297	30793.94
515.499	30787.8
515.701	31467.72
515.904	32540.86
516.106	33179.82
516.308	33360.05
516.51	34320.54
516.712	34551.96
516.914	35537.04
517.116	36141.19
517.318	36569.21
517.52	37556.33
517.722	38013.03
517.925	39075.93
518.127	39540.82
518.329	40357.95
518.531	40321.09
518.733	41551.92
518.935	42303.53
519.136	42536.99
519.338	43511.83
519.54	44042.25
519.742	44769.28
519.944	45135.87
520.146	46542.82
520.348	46591.97
520.55	47265.75
520.752	47394.78
520.954	48809.92
521.155	48410.57
521.357	49250.24
521.559	49928.11
521.761	50810.79
521.963	50937.76
522.164	51566.49
522.366	51376.03
522.568	52383.63
522.77	52502.41
522.971	53518.2
523.173	53075.84
523.375	53804.92
523.576	53526.39
523.778	53645.18
523.98	54570.86
524.181	54615.91
524.383	54488.94
524.584	55234.4
524.786	54910.82
524.988	54964.07
525.189	55373.66
525.391	55308.13
525.592	55467.87
525.794	55218.02
525.995	55179.1
526.197	55353.18
526.398	55113.57
526.6	55121.76
526.801	55076.71
527.003	54976.36
527.204	54427.5
527.406	54810.47
527.607	54001.52
527.808	54722.41
528.01	53233.53
528.211	53653.37
528.412	54097.78
528.614	53436.28
528.815	52785.03
529.016	52619.14
529.218	51892.11
529.419	51595.16
529.62	51216.29
529.822	50591.65
530.023	50067.37
530.224	49948.59
530.425	48961.47
530.626	48408.52
530.828	47644.63
531.029	48588.74
531.23	47003.61
531.431	46622.69
531.632	46473.19
531.833	45977.58
532.035	45629.43
532.236	44998.65
532.437	44312.58
532.638	43628.56
532.839	43532.31
533.04	43046.94
533.241	41945.13
533.442	42332.2
533.643	40816.7
533.844	40335.43
534.045	39960.65
534.246	38916.18
534.447	38977.62
534.648	38635.61
534.849	37847.15
535.05	36860.02
535.251	36733.05
535.451	36186.24
535.652	35987.59
535.853	35418.25
536.054	35063.96
536.255	34640.03
536.456	33757.35
536.657	33657
536.857	33120.43
537.058	32641.21
537.259	32606.39
537.46	32002.24
537.66	31164.62
537.861	31066.32
538.062	30365.92
538.263	30163.17
538.463	29411.56
538.664	29327.6
538.865	28893.43
539.065	28981.49
539.266	28238.08
539.466	28027.13
539.667	27500.81
539.868	27631.88
540.068	27001.1
540.269	27031.82
540.469	26579.22
540.67	25997.6
540.87	25583.91
541.071	25186.6
541.271	25438.5
541.472	25207.08
541.672	24506.68
541.873	24191.29
542.073	23697.73
542.274	23836.99
542.474	23443.78
542.675	23050.57
542.875	23056.71
543.075	22524.24
543.276	22235.48
543.476	22274.39
543.676	21762.4
543.877	21829.98
544.077	21608.8
544.277	21434.72
544.478	21119.34
544.678	20783.47
544.878	20642.16
545.078	20341.11
545.279	20298.1
545.479	19847.55
545.679	19503.49
545.879	19306.88
546.079	19237.25
546.28	18913.67
546.48	18278.8
546.68	18520.46
546.88	18315.67
547.08	18174.36
547.28	17717.66
547.48	17410.47
547.68	17435.04
547.88	17041.83
548.081	16888.23
548.281	16603.57
548.481	16429.49
548.681	16355.76
548.881	16056.76
549.081	15935.93
549.28	15659.45
549.48	15585.72
549.68	15393.22
549.88	15108.55
550.08	14746.06
550.28	14789.06
550.48	14592.46
550.68	14150.1
550.88	14084.56
551.08	13914.58
551.279	13697.5
551.479	13328.86
551.679	13367.77
551.879	13208.03
552.079	13093.35
552.278	12704.23
552.478	12669.42
552.678	12280.3
552.878	12194.29
553.077	11954.68
553.277	11680.25
553.477	11403.77
553.676	11340.29
553.876	11266.56
554.076	11094.53
554.275	11141.63
554.475	10369.55
554.674	10445.32
554.874	10365.45
555.074	10170.9
555.273	10150.42
555.473	10080.78
555.672	9822.74
555.872	9605.66
556.071	9320.99
556.271	9456.15
556.47	9126.43
556.67	8915.49
556.869	8821.28
557.068	8630.82
557.268	8710.69
557.467	8417.83
557.667	8413.74
557.866	8231.47
558.065	7924.27
558.265	7887.41
558.464	7635.51
558.663	7860.79
558.863	7428.67
559.062	7397.95
559.261	7260.73
559.461	7111.23
559.66	7047.74
559.859	6941.25
560.058	6699.59
560.258	6699.59
560.457	6466.12
560.656	6529.61
560.855	6312.52
561.054	6287.95
561.253	6212.17
561.453	6308.43
561.652	6117.97
561.851	5892.69
562.05	5943.89
562.249	5665.36
562.448	5849.68
562.647	5493.33
562.846	5380.7
563.045	5581.4
563.244	5374.55
563.443	5354.07
563.642	5300.83
563.841	5122.65
564.04	4987.49
564.239	5014.11
564.438	4807.27
564.637	4745.83
564.836	4778.59
565.035	4575.84
565.234	4635.24
565.432	4479.59
565.631	4440.68
565.83	4352.62
566.029	4362.86
566.228	4289.13
566.427	4139.63
566.625	4117.1
566.824	4121.2
567.023	3902.06
567.222	3961.45
567.42	4065.9
567.619	3967.6
567.818	3900.02
568.016	3838.58
568.215	3656.31
568.414	3910.26
568.612	3687.03
568.811	3504.76
569.01	3582.58
569.208	3404.41
569.407	3531.38
569.605	3355.26
569.804	3293.82
570.002	3371.64
570.201	3156.6
570.4	3261.05
570.598	3031.68
570.797	3080.83
570.995	3060.35
571.193	3066.49
571.392	3093.12
571.59	2863.74
571.789	2919.04
571.987	2953.85
572.186	2808.45
572.384	2749.06
572.582	2728.58
572.781	2796.16
572.979	2620.03
573.177	2599.56
573.376	2474.63
573.574	2501.25
573.772	2464.39
573.971	2466.44
574.169	2255.5
574.367	2413.19
574.565	2302.6
574.763	2237.06
574.962	2300.55
575.16	2196.11
575.358	2189.96
575.556	1999.5
575.754	2083.47
575.952	2085.51
576.151	2159.24
576.349	2062.99
576.547	1903.25
576.745	1960.59
576.943	1854.09
577.141	1895.05
577.339	1743.5
577.537	1931.92
577.735	1903.25
577.933	1835.66
578.131	1737.36
578.329	1813.13
578.527	1651.35
578.725	1815.18
578.923	1673.87
579.121	1723.02
579.319	1460.88
579.516	1477.27
579.714	1786.51
579.912	1534.61
580.11	1464.98
580.308	1428.12
580.506	1452.69
580.704	1346.2
580.901	1401.49
581.099	1503.89
581.297	1354.39
581.495	1387.16
581.692	1329.81
581.89	1438.36
582.088	1350.29
582.285	1354.39
582.483	1260.18
582.681	1245.85
582.878	1311.38
583.076	1262.23
583.274	1198.74
583.471	1364.63
583.669	1139.35
583.866	905.88
584.064	1112.73
584.262	1133.21
584.459	1094.3
584.657	1114.78
584.854	1090.2
585.052	983.71
585.249	1075.87
585.447	1057.43
585.644	924.32
585.841	1043.1
586.039	1004.19
586.236	1090.2
586.434	944.8
586.631	946.84
586.828	860.83
587.026	959.13
587.223	789.15
587.42	795.29
587.618	948.89
587.815	903.84
588.012	895.65
588.21	821.92
588.407	932.51
588.604	846.49
588.801	830.11
588.999	762.53
589.196	926.36
589.393	735.9
589.59	860.83
589.787	819.87
589.984	846.49
590.182	869.02
590.379	723.62
590.576	715.42
590.773	830.11
590.97	748.19
591.167	735.9
591.364	772.77
591.561	705.18
591.758	950.94
591.955	840.35
592.152	770.72
592.349	686.75
592.546	676.51
592.743	666.27
592.94	731.81
593.137	821.92
593.334	791.2
593.531	758.43
593.727	873.12
593.924	778.91
594.121	674.46
594.318	692.9
594.515	842.4
594.712	811.68
594.908	770.72
595.105	699.04
595.302	834.21
595.499	830.11
595.696	998.04
595.892	823.97
596.089	924.32
596.286	783.01
596.482	924.32
596.679	922.27
596.876	852.64
597.072	1086.11
597.269	969.37
597.466	979.61
597.662	1010.33
597.859	969.37
598.055	1026.72
598.252	1133.21
598.448	1094.3
598.645	1165.98
598.841	1223.32
599.038	1354.39
599.234	1366.68
599.431	1440.4
599.627	1376.92
599.824	1469.08
600.02	1399.45
600.217	1542.8
600.413	1512.08
600.609	1694.35
600.806	2009.74
601.002	1739.41
601.198	1784.46
601.395	2013.84
601.591	1903.25
601.787	2042.51
601.984	2198.15
602.18	2196.11
602.376	2251.4
602.572	2372.23
602.769	2521.73
602.965	2542.21
603.161	2566.79
603.357	2724.48
603.553	2841.22
603.75	2785.92
603.946	2957.95
604.142	3027.58
604.338	3271.29
604.534	3162.75
604.73	3297.91
604.926	3441.27
605.122	3699.31
605.318	3736.18
605.514	3881.58
605.71	3875.44
605.906	4129.39
606.102	4131.44
606.298	4418.15
606.494	4403.82
606.69	4573.8
606.886	4817.51
607.082	4776.55
607.278	4907.62
607.474	5022.3
607.67	5202.52
607.866	5223
608.062	5646.93
608.257	5825.11
608.453	6019.66
608.649	5892.69
608.845	6222.41
609.041	6206.03
609.236	6449.74
609.432	6677.06
609.628	6890.05
609.824	6998.59
610.019	7187.01
610.215	7305.79
610.411	7711.28
610.606	7750.2
610.802	7881.27
610.998	8251.95
611.193	8481.32
611.389	8655.4
611.584	9062.94
611.78	8905.25
611.976	9421.34
612.171	9609.75
612.367	9966.1
612.562	9830.93
612.758	10082.83
612.953	10428.94
613.149	10729.99
613.344	11018.75
613.539	11342.33
613.735	11610.62
613.93	11993.59
614.126	12227.06
614.321	12624.36
614.517	12968.42
614.712	13160.93
614.907	13488.6
615.103	14260.69
615.298	14176.72
615.493	14713.29
615.688	14797.26
615.884	15688.12
616.079	15378.88
616.274	16175.54
616.47	16710.06
616.665	17093.03
616.86	17150.37
617.055	17797.53
617.25	18026.9
617.445	18954.63
617.641	19196.29
617.836	19440
618.031	19601.79
618.226	20713.84
618.421	20935.02
618.616	21807.45
618.811	21948.76
619.006	22804.81
619.201	22853.97
619.396	23513.41
619.591	23712.06
619.786	24506.68
619.981	24365.37
620.176	25469.22
620.371	25868.58
620.566	26525.97
620.761	26816.79
620.956	27547.91
621.151	27932.93
621.346	28561.65
621.541	28780.79
621.735	30099.68
621.93	30003.42
622.125	30800.08
622.32	31027.41
622.515	32176.32
622.709	32397.5
622.904	33241.26
623.099	33577.13
623.294	34011.3
623.488	34234.53
623.683	35604.62
623.878	35365.01
624.072	36196.48
624.267	36767.87
624.462	37455.98
624.656	37564.53
624.851	38482.02
625.046	38834.27
625.24	39358.55
625.435	39827.53
625.629	40456.26
625.824	40697.92
626.018	41721.9
626.213	41375.8
626.407	42471.46
626.602	42407.97
626.796	43104.28
626.991	43585.55
627.185	43986.96
627.38	43935.76
627.574	44003.34
627.768	44292.1
627.963	44406.79
628.157	44480.52
628.352	45080.57
628.546	44433.41
628.74	45365.24
628.935	44652.55
629.129	44802.05
629.323	44220.42
629.517	43976.72
629.712	43823.12
629.906	43347.99
630.1	42557.47
630.294	42889.24
630.489	42045.48
630.683	41701.42
630.877	40673.34
631.071	40020.04
631.265	39743.56
631.459	39000.15
631.653	37910.63
631.848	37380.21
632.042	35942.53
632.236	35231.89
632.43	34267.3
632.624	33628.33
632.818	32540.86
633.012	31178.96
633.206	30435.55
633.4	29481.19
633.594	28064
633.788	27402.5
633.982	26622.23
634.176	25706.79
634.369	24604.98
634.563	23685.44
634.757	22700.37
634.951	22165.85
635.145	21043.56
635.339	20437.36
635.533	19163.53
635.726	18909.58
635.92	17897.88
636.114	17334.69
636.308	16482.74
636.501	16030.13
636.695	15215.04
636.889	14496.21
637.083	13986.26
637.276	13412.83
637.47	12753.38
637.664	12253.68
637.857	11891.19
638.051	11223.55
638.244	10891.78
638.438	10377.74
638.632	10131.98
638.825	9572.89
639.019	9288.22
639.212	8897.06
639.406	8614.44
639.599	8178.22
639.793	7842.36
639.986	7459.38
640.18	7397.95
640.373	7060.03
640.567	6664.77
640.76	6523.46
640.954	6304.33
641.147	5927.5
641.34	5661.27
641.534	5634.64
641.727	5450.33
641.92	5204.57
642.114	4958.81
642.307	4733.54
642.5	4553.32
642.694	4387.43
642.887	4205.16
643.08	4106.86
643.273	4127.34
643.467	3633.78
643.66	3568.24
643.853	3519.09
644.046	3523.19
644.239	3297.91
644.432	3072.64
644.626	2898.56
644.819	2765.44
645.012	2755.2
645.205	2704
645.398	2730.62
645.591	2470.53
645.784	2433.67
645.977	2136.71
646.17	2214.54
646.363	2138.76
646.556	1925.77
646.749	1856.14
646.942	1913.49
647.135	1862.29
647.328	1720.98
647.521	1661.59
647.714	1604.24
647.907	1596.05
648.099	1536.66
648.292	1639.06
648.485	1405.59
648.678	1311.38
648.871	1254.04
649.064	1270.42
649.256	1088.15
649.449	1155.74
649.642	1098.39
649.835	1125.02
650.027	1039
650.22	1073.82
650.413	942.75
650.605	977.56
650.798	887.45
650.991	873.12
651.183	778.91
651.376	871.07
651.568	844.45
651.761	742.05
651.954	840.35
652.146	701.09
652.339	778.91
652.531	709.28
652.724	547.49
652.916	588.45
653.109	541.35
653.301	656.03
653.494	733.86
653.686	565.92
653.879	649.89
654.071	629.41
654.263	477.86
654.456	443.04
654.648	553.63
654.84	518.82
655.033	477.86
655.225	555.68
655.417	332.45
655.61	479.91
655.802	430.76
655.994	510.63
656.186	340.65
656.379	469.67
656.571	357.03
656.763	363.17
656.955	299.69
657.148	383.65
657.34	461.48
657.532	324.26
657.724	322.21
657.916	328.36
658.108	400.04
658.3	301.73
658.492	363.17
658.684	240.3
658.876	428.71
659.068	248.49
659.26	211.62
659.452	189.1
659.644	326.31
659.836	389.8
660.028	309.93
660.22	201.38
660.412	234.15
660.604	309.93
660.796	281.25
660.988	314.02
661.18	211.62
661.372	242.34
661.563	170.66
661.755	293.54
661.947	98.99
662.139	141.99
662.331	238.25
662.522	195.24
662.714	219.82
662.906	150.18
663.097	160.42
663.289	98.99
663.481	117.42
663.673	201.38
663.864	162.47
664.056	250.53
664.247	131.75
664.439	301.73
664.631	250.53
664.822	215.72
665.014	164.52
665.205	182.95
665.397	195.24
665.588	156.33
665.78	201.38
665.971	264.87
666.163	125.61
666.354	180.9
666.546	152.23
666.737	131.75
666.929	82.6
667.12	131.75
667.311	244.39
667.503	127.66
667.694	70.31
667.885	154.28
668.077	160.42
668.268	123.56
668.459	178.86
668.651	166.57
668.842	250.53
669.033	160.42
669.224	51.88
669.416	326.31
669.607	117.42
669.798	152.23
669.989	191.14
670.18	230.06
670.371	170.66
670.563	70.31
670.754	197.29
670.945	162.47
671.136	217.77
671.327	141.99
671.518	168.62
671.709	275.11
671.9	219.82
672.091	160.42
672.282	166.57
672.473	109.23
672.664	80.55
672.855	193.19
673.046	185
673.237	281.25
673.428	80.55
673.619	139.94
673.809	131.75
674	268.97
674.191	195.24
674.382	133.8
674.573	158.38
674.764	135.85
674.954	211.62
675.145	174.76
675.336	90.79
675.527	119.46
675.717	68.27
675.908	125.61
676.099	72.36
676.289	107.18
676.48	12.97
676.671	109.23
676.861	148.14
677.052	207.53
677.243	133.8
677.433	111.27
677.624	232.1
677.814	176.81
678.005	21.16
678.195	242.34
678.386	129.7
678.576	185
678.767	62.12
678.957	172.71
679.148	301.73
679.338	250.53
679.529	281.25
679.719	131.75
679.909	248.49
680.1	246.44
680.29	252.58
680.481	68.27
680.671	213.67
680.861	240.3
681.052	201.38
681.242	92.84
681.432	291.49
681.622	289.45
681.813	35.5
682.003	123.56
682.193	58.03
682.383	172.71
682.573	209.58
682.764	223.91
682.954	144.04
683.144	213.67
683.334	105.13
683.524	244.39
683.714	240.3
683.904	309.93
684.094	135.85
684.284	170.66
684.474	297.64
684.664	176.81
684.854	242.34
685.044	137.9
685.234	197.29
685.424	174.76
685.614	162.47
685.804	328.36
685.994	152.23
686.184	150.18
686.374	193.19
686.564	182.95
686.753	139.94
686.943	49.83
687.133	185
687.323	129.7
687.513	152.23
687.702	101.03
687.892	150.18
688.082	275.11
688.272	150.18
688.461	125.61
688.651	236.2
688.841	207.53
689.03	121.51
689.22	109.23
689.41	273.06
689.599	195.24
689.789	176.81
689.979	328.36
690.168	213.67
690.358	217.77
690.547	150.18
690.737	242.34
690.926	185
691.116	199.34
691.305	293.54
691.495	228.01
691.684	53.93
691.874	219.82
692.063	158.38
692.252	215.72
692.442	268.97
692.631	72.36
692.82	191.14
693.01	242.34
693.199	144.04
693.388	213.67
693.578	148.14
693.767	205.48
693.956	189.1
694.146	172.71
694.335	225.96
694.524	195.24
694.713	268.97
694.902	154.28
695.092	221.86
695.281	281.25
695.47	160.42
695.659	131.75
695.848	187.05
696.037	160.42
696.226	187.05
696.415	141.99
696.604	297.64
696.793	242.34
696.982	246.44
697.171	250.53
697.36	121.51
697.549	250.53
697.738	33.45
697.927	117.42
698.116	78.51
698.305	248.49
698.494	168.62
698.683	201.38
698.872	373.41
699.061	160.42
699.25	225.96
699.438	209.58
699.627	80.55
699.816	250.53
700.005	103.08
700.193	144.04
700.382	277.16
700.571	221.86
700.76	244.39
700.948	264.87
701.137	301.73
701.326	262.82
701.514	139.94
701.703	230.06
701.892	180.9
702.08	340.65
702.269	107.18
702.457	209.58
702.646	137.9
702.834	141.99
703.023	232.1
703.212	234.15
703.4	238.25
703.589	156.33
703.777	129.7
703.965	127.66
704.154	146.09
704.342	187.05
704.531	103.08
704.719	201.38
704.907	336.55
705.096	60.07
705.284	12.97
705.472	219.82
705.661	144.04
705.849	217.77
706.037	260.77
706.226	279.21
706.414	150.18
706.602	150.18
706.79	234.15
706.979	76.46
707.167	240.3
707.355	117.42
707.543	187.05
707.731	201.38
707.919	258.73
708.107	168.62
708.296	76.46
708.484	187.05
708.672	221.86
708.86	168.62
709.048	242.34
709.236	94.89
709.424	234.15
709.612	172.71
709.8	103.08
709.988	144.04
710.176	236.2
710.364	240.3
710.551	148.14
710.739	166.57
710.927	178.86
711.115	90.79
711.303	279.21
711.491	246.44
711.679	119.46
711.866	221.86
712.054	174.76
712.242	162.47
712.43	281.25
712.617	146.09
712.805	266.92
712.993	129.7
713.181	111.27
713.368	156.33
713.556	230.06
713.744	178.86
713.931	322.21
714.119	197.29
714.306	154.28
714.494	111.27
714.682	228.01
714.869	119.46
715.057	166.57
715.244	6.83
715.432	178.86
715.619	137.9
715.807	225.96
715.994	101.03
716.182	187.05
716.369	160.42
716.556	258.73
716.744	125.61
716.931	135.85
717.119	256.68
717.306	180.9
717.493	285.35
717.681	127.66
717.868	146.09
718.055	170.66
718.242	127.66
718.43	260.77
718.617	248.49
718.804	146.09
718.991	258.73
719.179	223.91
719.366	260.77
719.553	182.95
719.74	170.66
719.927	191.14
720.114	236.2
720.301	135.85
720.488	70.31
720.676	141.99
720.863	271.01
721.05	418.47
721.237	264.87
721.424	262.82
721.611	191.14
721.798	74.41
721.985	72.36
722.172	180.9
722.358	187.05
722.545	250.53
722.732	209.58
722.919	287.4
723.106	207.53
723.293	137.9
723.48	180.9
723.667	191.14
723.853	281.25
724.04	232.1
724.227	289.45
724.414	219.82
724.6	213.67
724.787	264.87
724.974	369.32
725.161	215.72
725.347	146.09
725.534	158.38
725.72	271.01
725.907	260.77
726.094	299.69
726.28	219.82
726.467	215.72
726.653	162.47
726.84	291.49
727.027	385.7
727.213	195.24
727.4	281.25
727.586	264.87
727.773	162.47
727.959	215.72
728.145	262.82
728.332	225.96
728.518	191.14
728.705	264.87
728.891	195.24
729.077	236.2
729.264	180.9
729.45	158.38
729.636	254.63
729.823	199.34
730.009	230.06
730.195	311.97
730.382	252.58
730.568	131.75
730.754	297.64
730.94	244.39
731.126	316.07
731.313	268.97
731.499	203.43
731.685	318.12
731.871	223.91
732.057	236.2
732.243	244.39
732.429	289.45
732.615	336.55
732.801	250.53
732.987	232.1
733.173	266.92
733.359	168.62
733.545	305.83
733.731	230.06
733.917	309.93
734.103	309.93
734.289	260.77
734.475	199.34
734.661	371.37
734.847	228.01
735.033	244.39
735.219	303.78
735.404	133.8
735.59	189.1
735.776	273.06
735.962	232.1
736.148	295.59
736.333	307.88
736.519	234.15
736.705	217.77
736.89	330.41
737.076	125.61
737.262	129.7
737.447	105.13
737.633	207.53
737.819	332.45
738.004	205.48
738.19	287.4
738.375	334.5
738.561	320.17
738.747	189.1
738.932	160.42
739.118	287.4
739.303	240.3
739.489	307.88
739.674	193.19
739.859	150.18
740.045	185
740.23	219.82
740.416	170.66
740.601	219.82
740.786	301.73
740.972	174.76
741.157	219.82
741.342	205.48
741.528	121.51
741.713	365.22
741.898	141.99
742.084	301.73
742.269	240.3
742.454	352.93
742.639	260.77
742.824	197.29
743.01	295.59
743.195	344.74
743.38	219.82
743.565	301.73
743.75	187.05
743.935	221.86
744.12	223.91
744.305	144.04
744.49	289.45
744.675	213.67
744.86	187.05
745.045	305.83
745.23	264.87
745.415	324.26
745.6	268.97
745.785	244.39
745.97	295.59
746.155	254.63
746.34	299.69
746.525	240.3
746.71	305.83
746.895	123.56
747.079	144.04
747.264	176.81
747.449	225.96
747.634	262.82
747.819	223.91
748.003	223.91
748.188	156.33
748.373	297.64
748.557	219.82
748.742	162.47
748.927	191.14
749.111	150.18
749.296	252.58
749.481	193.19
749.665	141.99
749.85	205.48
750.034	203.43
750.219	211.62
750.404	193.19
750.588	180.9
750.773	115.37
750.957	176.81
751.141	242.34
751.326	303.78
751.51	141.99
751.695	187.05
751.879	180.9
752.064	338.6
752.248	187.05
752.432	232.1
752.617	268.97
752.801	219.82
752.985	172.71
753.17	256.68
753.354	250.53
753.538	223.91
753.722	144.04
753.907	166.57
754.091	90.79
754.275	182.95
754.459	82.6
754.643	117.42
754.828	187.05
755.012	201.38
755.196	135.85
755.38	201.38
755.564	162.47
755.748	76.46
755.932	187.05
756.116	176.81
756.3	176.81
756.484	170.66
756.668	219.82
756.852	119.46
757.036	107.18
757.22	197.29
757.404	129.7
757.588	117.42
757.772	197.29
757.956	94.89
758.14	273.06
758.323	96.94
758.507	103.08
758.691	135.85
758.875	187.05
759.059	133.8
759.242	86.7
759.426	41.64
759.61	84.65
759.794	39.59
759.977	176.81
760.161	309.93
760.345	279.21
760.528	185
760.712	84.65
760.895	178.86
761.079	185
761.263	107.18
761.446	72.36
761.63	113.32
761.813	279.21
761.997	33.45
762.18	162.47
762.364	240.3
762.547	-46.42
762.731	127.66
762.914	98.99
763.098	58.03
763.281	105.13
763.464	37.55
763.648	141.99
763.831	98.99
764.015	94.89
764.198	160.42
764.381	148.14
764.564	92.84
764.748	90.79
764.931	76.46
765.114	90.79
765.297	150.18
765.481	29.35
765.664	123.56
765.847	43.69
766.03	156.33
766.213	41.64
766.397	123.56
766.58	101.03
766.763	84.65
766.946	58.03
767.129	82.6
767.312	-21.84
767.495	86.7
767.678	55.98
767.861	101.03
768.044	70.31
768.227	117.42
768.41	17.07
768.593	133.8
768.776	78.51
768.959	33.45
769.142	195.24
769.324	146.09
769.507	78.51
769.69	68.27
769.873	51.88
770.056	219.82
770.239	58.03
770.421	203.43
770.604	139.94
770.787	64.17
770.97	53.93
771.152	51.88
771.335	117.42
771.518	0.68
771.7	135.85
771.883	213.67
772.066	78.51
772.248	115.37
772.431	178.86
772.613	139.94
772.796	49.83
772.978	60.07
773.161	158.38
773.343	131.75
773.526	-13.65
773.708	-54.61
773.891	-50.52
774.073	84.65
774.256	121.51
774.438	236.2
774.621	19.11
774.803	98.99
774.985	45.74
775.168	170.66
775.35	92.84
775.532	21.16
775.715	-7.51
775.897	78.51
776.079	17.07
776.261	148.14
776.444	96.94
776.626	51.88
776.808	101.03
776.99	-75.09
777.173	137.9
777.355	82.6
777.537	119.46
777.719	150.18
777.901	-23.89
778.083	4.78
778.265	58.03
778.447	119.46
778.629	31.4
778.811	10.92
778.993	133.8
779.175	166.57
779.357	135.85
779.539	-11.61
779.721	84.65
779.903	207.53
780.085	49.83
780.267	98.99
780.449	-30.04
780.631	156.33
780.812	78.51
780.994	115.37
781.176	37.55
781.358	88.75
781.54	76.46
781.721	53.93
781.903	135.85
782.085	-38.23
782.267	84.65
782.448	2.73
782.63	-5.46
782.812	107.18
782.993	84.65
783.175	76.46
783.357	55.98
783.538	101.03
783.72	-11.61
783.901	64.17
784.083	17.07
784.264	121.51
784.446	19.11
784.627	2.73
784.809	164.52
784.99	66.22
785.172	101.03
785.353	76.46
785.535	41.64
785.716	-19.8
785.897	-40.28
786.079	17.07
786.26	-19.8
786.441	117.42
786.623	-120.15
786.804	15.02
786.985	47.79
787.167	90.79
787.348	-7.51
787.529	-3.41
787.71	84.65
787.891	117.42
788.073	64.17
788.254	-64.85
788.435	117.42
788.616	55.98
788.797	55.98
788.978	-11.61
789.159	-3.41
789.34	148.14
789.522	68.27
789.703	4.78
789.884	37.55
790.065	47.79
790.246	119.46
790.427	60.07
790.607	133.8
790.788	74.41
790.969	58.03
791.15	123.56
791.331	12.97
791.512	0.68
791.693	-73.04
791.874	-62.8
792.054	185
792.235	141.99
792.416	-58.71
792.597	-11.61
792.778	109.23
792.958	53.93
793.139	72.36
793.32	62.12
793.5	27.31
793.681	144.04
793.862	101.03
794.042	78.51
794.223	-30.04
794.404	12.97
794.584	-13.65
794.765	-21.84
794.945	98.99
795.126	45.74
795.306	90.79
795.487	-38.23
795.667	-1.37
795.848	66.22
796.028	72.36
796.209	117.42
796.389	121.51
796.57	76.46
796.75	-5.46
796.93	-54.61
797.111	17.07
797.291	39.59
797.471	76.46
797.652	43.69
797.832	-1.37
798.012	76.46
798.192	21.16
798.373	-15.7
798.553	92.84
798.733	55.98
798.913	-44.37
799.093	76.46
799.274	33.45
799.454	92.84
799.634	98.99
799.814	121.51
799.994	58.03
800.174	27.31
800.354	117.42
800.534	-38.23
800.714	105.13
800.894	15.02
801.074	-54.61
801.254	-13.65
801.434	113.32
801.614	51.88
801.794	-50.52
801.974	1811.09
802.154	-15.7
802.334	60.07
802.514	-52.56
802.693	37.55
802.873	23.21
803.053	103.08
803.233	10.92
803.413	103.08
803.592	-7.51
803.772	60.07
803.952	31.4
804.131	-116.05
804.311	64.17
804.491	66.22
804.67	-11.61
804.85	-15.7
805.03	62.12
805.209	-13.65
805.389	88.75
805.568	-81.24
805.748	-5.46
805.928	105.13
806.107	49.83
806.287	150.18
806.466	45.74
806.646	31.4
806.825	-66.9
807.004	49.83
807.184	15.02
807.363	103.08
807.543	94.89
807.722	-97.62
807.901	92.84
808.081	78.51
808.26	-99.67
808.439	43.69
808.619	21.16
808.798	-34.13
808.977	2.73
809.156	66.22
809.336	92.84
809.515	23.21
809.694	-62.8
809.873	-77.14
810.052	49.83
810.231	127.66
810.411	76.46
810.59	86.7
810.769	51.88
810.948	29.35
811.127	-79.19
811.306	-15.7
811.485	-52.56
811.664	139.94
811.843	68.27
812.022	8.87
812.201	8.87
812.38	21.16
812.559	-9.56
812.737	90.79
812.916	-68.95
813.095	-60.76
813.274	47.79
813.453	80.55
813.632	47.79
813.811	115.37
813.989	4.78
814.168	-9.56
814.347	-103.76
814.526	19.11
814.704	74.41
814.883	141.99
815.062	-21.84
815.24	133.8
815.419	-30.04
815.598	47.79
815.776	-81.24
815.955	-3.41
816.133	-126.29
816.312	90.79
816.49	23.21
816.669	66.22
816.847	-3.41
817.026	-50.52
817.204	15.02
817.383	-1.37
817.561	41.64
817.74	39.59
817.918	43.69
818.097	72.36
818.275	-23.89
818.453	70.31
818.632	66.22
818.81	-56.66
818.988	29.35
819.167	-1.37
819.345	-1.37
819.523	-15.7
819.701	-21.84
819.879	27.31
820.058	-50.52
820.236	68.27
820.414	39.59
820.592	51.88
820.77	-9.56
820.948	10.92
821.127	-44.37
821.305	37.55
821.483	-19.8
821.661	78.51
821.839	43.69
822.017	-32.08
822.195	-13.65
822.373	105.13
822.551	55.98
822.729	62.12
822.907	35.5
823.085	58.03
823.262	60.07
823.44	-44.37
823.618	-62.8
823.796	25.26
823.974	15.02
824.152	-13.65
824.329	-40.28
824.507	53.93
824.685	55.98
824.863	6.83
825.04	25.26
825.218	43.69
825.396	0.68
825.574	12.97
825.751	-62.8
825.929	51.88
826.107	-87.38
826.284	-11.61
826.462	-23.89
826.639	-30.04
826.817	-66.9
826.994	-40.28
827.172	-15.7
827.349	82.6
827.527	72.36
827.704	21.16
827.882	117.42
828.059	-34.13
828.237	8.87
828.414	47.79
828.591	-66.9
828.769	8.87
828.946	-62.8
829.124	60.07
829.301	141.99
829.478	58.03
829.655	51.88
829.833	-9.56
830.01	-118.1
830.187	33.45
830.364	-17.75
830.542	35.5
830.719	180.9
830.896	-27.99
831.073	92.84
831.25	96.94
831.427	35.5
831.604	19.11
831.782	35.5
831.959	66.22
832.136	-13.65
832.313	43.69
832.49	-15.7
832.667	-15.7
832.844	-50.52
833.021	101.03
833.198	12.97
833.374	23.21
833.551	23.21
833.728	-17.75
833.905	72.36
834.082	-46.42
834.259	31.4
834.436	113.32
834.612	-124.24
834.789	66.22
834.966	70.31
835.143	70.31
835.319	-85.33
835.496	70.31
835.673	64.17
835.85	133.8
836.026	53.93
836.203	109.23
836.38	12.97
836.556	-46.42
836.733	29.35
836.909	154.28
837.086	-1.37
837.262	-161.11
837.439	-27.99
837.616	37.55
837.792	80.55
837.968	-64.85
838.145	-36.18
838.321	-52.56
838.498	35.5
838.674	49.83
838.851	51.88
839.027	0.68
839.203	-5.46
839.38	88.75
839.556	-11.61
839.732	49.83
839.909	-44.37
840.085	15.02
840.261	27.31
840.437	4.78
840.614	-23.89
840.79	49.83
840.966	-9.56
841.142	-32.08
841.318	80.55
841.494	27.31
841.671	72.36
841.847	-27.99
842.023	2.73
842.199	19.11
842.375	117.42
842.551	-79.19
842.727	-71
842.903	86.7
843.079	-25.94
843.255	80.55
843.431	96.94
843.607	25.26
843.783	-107.86
843.959	17.07
844.134	-30.04
844.31	107.18
844.486	-66.9
844.662	10.92
844.838	-48.47
845.013	43.69
845.189	64.17
845.365	-21.84
845.541	33.45
845.716	53.93
845.892	60.07
846.068	-13.65
846.244	55.98
846.419	6.83
846.595	-38.23
846.77	-109.91
846.946	74.41
847.122	-5.46
847.297	4.78
847.473	187.05
847.648	-73.04
847.824	82.6
847.999	-140.63
848.175	19.11
848.35	19.11
848.526	25.26
848.701	92.84
848.876	60.07
849.052	70.31
849.227	-21.84
849.403	27.31
849.578	-77.14
849.753	25.26
849.929	66.22
850.104	-34.13
850.279	58.03
850.454	39.59
850.63	0.68
850.805	-17.75
850.98	66.22
851.155	-62.8
851.33	84.65
851.505	-56.66
851.681	101.03
851.856	10.92
852.031	80.55
852.206	39.59
852.381	-3.41
852.556	-36.18
852.731	41.64
852.906	78.51
853.081	105.13
853.256	166.57
853.431	15.02
853.606	-5.46
853.781	0.68
853.956	-120.15
854.131	-9.56
854.305	-85.33
854.48	-25.94
854.655	-40.28
854.83	-103.76
855.005	-17.75
855.18	33.45
855.354	-17.75
855.529	58.03
855.704	-64.85
855.879	-11.61
856.053	-107.86
856.228	19.11
856.403	-40.28
856.577	33.45
856.752	-140.63
856.926	-48.47
857.101	33.45
857.276	-17.75
857.45	72.36
857.625	90.79
857.799	29.35
857.974	64.17
858.148	-152.91
858.323	35.5
858.497	23.21
858.672	33.45
858.846	-75.09
859.02	168.62
859.195	-46.42
859.369	-3.41
859.543	-9.56
859.718	27.31
859.892	23.21
860.066	37.55
860.241	-36.18
860.415	-5.46
860.589	76.46
860.763	47.79
860.938	23.21
861.112	125.61
861.286	-32.08
861.46	4.78
861.634	-52.56
861.808	84.65
861.982	-44.37
862.157	-58.71
862.331	-23.89
862.505	-79.19
862.679	-44.37
862.853	53.93
863.027	-66.9
863.201	64.17
863.375	-79.19
863.549	45.74
863.722	2.73
863.896	176.81
864.07	-5.46
864.244	23.21
864.418	-3.41
864.592	21.16
864.766	33.45
864.939	60.07
865.113	-54.61
865.287	39.59
865.461	-44.37
865.634	-3.41
865.808	8.87
865.982	-38.23
866.156	-50.52
866.329	-89.43
866.503	0.68
866.676	49.83
866.85	53.93
867.024	-66.9
867.197	-3.41
867.371	49.83
867.544	27.31
867.718	-128.34
867.891	94.89
868.065	-66.9
868.238	-21.84
868.412	105.13
868.585	45.74
868.759	-89.43
868.932	10.92
869.105	-122.2
869.279	37.55
869.452	-48.47
869.625	21.16
869.799	-7.51
869.972	-105.81
870.145	0.68
870.319	33.45
870.492	2.73
870.665	-62.8
870.838	-7.51
871.011	-34.13
871.185	-34.13
871.358	12.97
871.531	96.94
871.704	-97.62
871.877	49.83
872.05	-13.65
872.223	-60.76
872.396	25.26
872.569	4.78
872.742	-103.76
872.915	25.26
873.088	-40.28
873.261	37.55
873.434	31.4
873.607	-9.56
873.78	53.93
873.953	-11.61
874.126	-23.89
874.299	10.92
874.471	8.87
874.644	-11.61
874.817	39.59
874.99	117.42
875.163	-77.14
875.335	39.59
875.508	-23.89
875.681	33.45
875.853	-30.04
876.026	68.27
876.199	15.02
876.371	43.69
876.544	58.03
876.717	-42.32
876.889	-48.47
877.062	98.99
877.234	-66.9
877.407	-85.33
877.579	-23.89
877.752	33.45
877.924	72.36
878.097	8.87
878.269	-13.65
878.442	-5.46
878.614	148.14
878.786	23.21
878.959	117.42
879.131	0.68
879.303	-109.91
879.476	0.68
879.648	84.65
879.82	-21.84
879.993	17.07
880.165	2.73
880.337	-40.28
880.509	-27.99
880.681	-111.96
880.854	-23.89
881.026	58.03
881.198	254.63
881.37	90.79
881.542	58.03
881.714	-19.8
881.886	-114
882.058	33.45
882.23	70.31
882.402	-13.65
882.574	21.16
882.746	45.74
882.918	98.99
883.09	51.88
883.262	-34.13
883.434	35.5
883.606	-17.75
883.778	-17.75
883.95	84.65
884.122	6.83
884.293	55.98
884.465	88.75
884.637	4.78
884.809	-56.66
884.98	23.21
885.152	98.99
885.324	45.74
885.496	-17.75
885.667	-38.23
885.839	-1.37
886.011	113.32
886.182	19.11
886.354	27.31
886.525	29.35
886.697	31.4
886.869	-23.89
887.04	21.16
887.212	154.28
887.383	121.51
887.555	0.68
887.726	-56.66
887.897	-11.61
888.069	15.02
888.24	66.22
888.412	43.69
888.583	29.35
888.754	-38.23
888.926	-107.86
889.097	58.03
889.268	-52.56
889.44	-3.41
889.611	-75.09
889.782	-83.28
889.953	-87.38
890.125	94.89
890.296	-54.61
890.467	-25.94
890.638	-46.42
890.809	-13.65
890.98	-56.66
891.151	55.98
891.323	113.32
891.494	86.7
891.665	53.93
891.836	33.45
892.007	-40.28
892.178	0.68
892.349	15.02
892.52	21.16
892.691	27.31
892.862	-15.7
893.032	-140.63
893.203	25.26
893.374	6.83
893.545	62.12
893.716	-9.56
893.887	98.99
894.057	39.59
894.228	10.92
894.399	-52.56
894.57	60.07
894.74	55.98
894.911	58.03
895.082	-21.84
895.253	4.78
895.423	6.83
895.594	82.6
895.764	68.27
895.935	-101.72
896.106	-17.75
896.276	-85.33
896.447	2.73
896.617	-30.04
896.788	-32.08
896.958	-66.9
897.129	-118.1
897.299	-66.9
897.47	164.52
897.64	-44.37
897.81	-30.04
897.981	41.64
898.151	-23.89
898.322	12.97
898.492	2.73
898.662	-75.09
898.832	-48.47
899.003	-56.66
899.173	117.42
899.343	-95.57
899.513	-87.38
