Data from USB4F104151__273__11-20-45-831.txt Node

Date: Wed Feb 26 11:20:45 EST 2025
User: louis
Spectrometer: USB4F10415
Trigger mode: 4
Integration Time (sec): 1.000000E-1
Scans to average: 1
Electric dark correction enabled: true
Nonlinearity correction enabled: false
Boxcar width: 0
XAxis mode: Wavelengths
Number of Pixels in Spectrum: 3648
>>>>>Begin Spectral Data<<<<<
178.204	-413.86
178.424	-413.86
178.644	-413.86
178.864	-403.62
179.084	-362.66
179.304	-75.95
179.524	-55.47
179.744	22.36
179.964	81.75
180.184	77.65
180.404	-4.27
180.624	-51.37
180.844	34.64
181.064	-96.43
181.283	65.36
181.503	-41.13
181.723	42.84
181.943	-121
182.163	216.91
182.383	20.31
182.602	55.12
182.822	102.23
183.042	106.32
183.262	24.4
183.482	-28.84
183.701	42.84
183.921	-28.84
184.141	-59.56
184.361	81.75
184.58	36.69
184.8	59.22
185.02	3.93
185.239	130.9
185.459	34.64
185.679	227.15
185.898	-137.38
186.118	28.5
186.338	75.6
186.557	104.28
186.777	8.02
186.997	-10.41
187.216	-43.18
187.436	153.43
187.655	89.94
187.875	145.24
188.095	55.12
188.314	112.47
188.534	128.85
188.753	1.88
188.973	85.84
189.192	186.19
189.412	3.93
189.631	10.07
189.851	73.56
190.07	110.42
190.29	-22.7
190.509	-57.51
190.729	24.4
190.948	200.53
191.168	290.64
191.387	63.32
191.607	98.13
191.826	59.22
192.045	51.03
192.265	38.74
192.484	51.03
192.704	63.32
192.923	-49.32
193.142	223.06
193.362	91.99
193.581	196.43
193.8	120.66
194.02	75.6
194.239	-8.36
194.458	48.98
194.678	18.26
194.897	-63.66
195.116	91.99
195.335	44.88
195.555	-2.22
195.774	-8.36
195.993	77.65
196.212	-24.75
196.432	44.88
196.651	20.31
196.87	30.55
197.089	239.44
197.308	14.17
197.528	118.61
197.747	-41.13
197.966	-0.17
198.185	114.52
198.404	-55.47
198.623	98.13
198.842	73.56
199.062	155.47
199.281	182.1
199.5	98.13
199.719	110.42
199.938	34.64
200.157	73.56
200.376	81.75
200.595	94.04
200.814	-0.17
201.033	34.64
201.252	104.28
201.471	40.79
201.69	75.6
201.909	16.21
202.128	51.03
202.347	128.85
202.566	18.26
202.785	-69.8
203.004	-24.75
203.223	200.53
203.442	40.79
203.661	10.07
203.879	36.69
204.098	48.98
204.317	-57.51
204.536	120.66
204.755	48.98
204.974	118.61
205.193	-12.46
205.411	114.52
205.63	48.98
205.849	-14.51
206.068	30.55
206.287	-28.84
206.505	114.52
206.724	-43.18
206.943	-10.41
207.162	12.12
207.381	44.88
207.599	40.79
207.818	3.93
208.037	-43.18
208.255	48.98
208.474	30.55
208.693	73.56
208.911	71.51
209.13	171.86
209.349	169.81
209.567	71.51
209.786	53.08
210.005	59.22
210.223	73.56
210.442	-88.23
210.661	32.6
210.879	28.5
211.098	24.4
211.316	96.08
211.535	91.99
211.753	69.46
211.972	44.88
212.191	42.84
212.409	81.75
212.628	51.03
212.846	12.12
213.065	79.7
213.283	91.99
213.502	3.93
213.72	-16.55
213.938	26.45
214.157	-10.41
214.375	167.76
214.594	-49.32
214.812	34.64
215.031	87.89
215.249	38.74
215.467	83.8
215.686	3.93
215.904	128.85
216.122	26.45
216.341	204.63
216.559	79.7
216.778	110.42
216.996	192.34
217.214	32.6
217.432	-34.99
217.651	1.88
217.869	-0.17
218.087	55.12
218.306	36.69
218.524	-28.84
218.742	59.22
218.96	87.89
219.179	-43.18
219.397	42.84
219.615	257.87
219.833	48.98
220.051	26.45
220.27	55.12
220.488	141.14
220.706	116.56
220.924	-18.6
221.142	-2.22
221.36	149.33
221.578	-43.18
221.796	12.12
222.015	12.12
222.233	18.26
222.451	159.57
222.669	-84.14
222.887	38.74
223.105	-45.23
223.323	42.84
223.541	12.12
223.759	16.21
223.977	30.55
224.195	147.28
224.413	53.08
224.631	38.74
224.849	89.94
225.067	233.3
225.285	-39.08
225.503	-2.22
225.721	-59.56
225.939	8.02
226.157	108.37
226.375	116.56
226.592	18.26
226.81	-12.46
227.028	118.61
227.246	87.89
227.464	-30.89
227.682	104.28
227.9	100.18
228.117	14.17
228.335	51.03
228.553	59.22
228.771	16.21
228.989	8.02
229.206	3.93
229.424	-45.23
229.642	36.69
229.86	-88.23
230.077	147.28
230.295	-32.94
230.513	108.37
230.731	75.6
230.948	184.15
231.166	180.05
231.384	42.84
231.601	-71.85
231.819	206.67
232.037	-10.41
232.254	22.36
232.472	-16.55
232.689	53.08
232.907	81.75
233.125	-30.89
233.342	5.97
233.56	57.17
233.777	-0.17
233.995	24.4
234.213	53.08
234.43	42.84
234.648	53.08
234.865	57.17
235.083	116.56
235.3	55.12
235.518	79.7
235.735	157.52
235.953	104.28
236.17	112.47
236.388	24.4
236.605	94.04
236.822	106.32
237.04	178
237.257	65.36
237.475	-12.46
237.692	40.79
237.909	34.64
238.127	24.4
238.344	61.27
238.562	38.74
238.779	-47.27
238.996	-22.7
239.214	38.74
239.431	94.04
239.648	-10.41
239.865	122.71
240.083	89.94
240.3	55.12
240.517	-45.23
240.735	-6.31
240.952	145.24
241.169	-22.7
241.386	-16.55
241.603	57.17
241.821	-16.55
242.038	139.09
242.255	114.52
242.472	-96.43
242.689	48.98
242.907	71.51
243.124	59.22
243.341	73.56
243.558	-30.89
243.775	-67.75
243.992	-82.09
244.209	110.42
244.426	120.66
244.643	18.26
244.86	24.4
245.078	100.18
245.295	-86.19
245.512	26.45
245.729	-26.79
245.946	94.04
246.163	20.31
246.38	51.03
246.597	63.32
246.814	28.5
247.031	34.64
247.248	28.5
247.464	116.56
247.681	32.6
247.898	132.95
248.115	-30.89
248.332	-30.89
248.549	87.89
248.766	149.33
248.983	110.42
249.2	57.17
249.417	79.7
249.633	-47.27
249.85	100.18
250.067	53.08
250.284	5.97
250.501	18.26
250.717	32.6
250.934	-32.94
251.151	79.7
251.368	-6.31
251.585	108.37
251.801	14.17
252.018	-8.36
252.235	159.57
252.451	-69.8
252.668	44.88
252.885	77.65
253.102	157.52
253.318	91.99
253.535	14.17
253.752	-61.61
253.968	-6.31
254.185	-69.8
254.401	28.5
254.618	30.55
254.835	30.55
255.051	65.36
255.268	96.08
255.484	38.74
255.701	40.79
255.917	28.5
256.134	-8.36
256.351	14.17
256.567	-94.38
256.784	65.36
257	-26.79
257.217	120.66
257.433	145.24
257.65	77.65
257.866	130.9
258.082	-69.8
258.299	10.07
258.515	85.84
258.732	38.74
258.948	-22.7
259.165	44.88
259.381	-77.99
259.597	108.37
259.814	98.13
260.03	-8.36
260.246	42.84
260.463	143.19
260.679	106.32
260.895	87.89
261.112	16.21
261.328	57.17
261.544	-20.65
261.761	118.61
261.977	-28.84
262.193	-28.84
262.409	114.52
262.626	67.41
262.842	44.88
263.058	12.12
263.274	26.45
263.49	12.12
263.707	94.04
263.923	46.93
264.139	-28.84
264.355	83.8
264.571	73.56
264.787	89.94
265.004	118.61
265.22	59.22
265.436	-69.8
265.652	-4.27
265.868	32.6
266.084	-10.41
266.3	38.74
266.516	-45.23
266.732	16.21
266.948	48.98
267.164	-24.75
267.38	112.47
267.596	63.32
267.812	245.59
268.028	85.84
268.244	-14.51
268.46	48.98
268.676	38.74
268.892	116.56
269.108	26.45
269.324	-121
269.54	-80.04
269.756	126.8
269.972	-10.41
270.188	18.26
270.403	-57.51
270.619	38.74
270.835	89.94
271.051	24.4
271.267	22.36
271.483	-43.18
271.698	10.07
271.914	77.65
272.13	57.17
272.346	-12.46
272.562	114.52
272.777	141.14
272.993	-10.41
273.209	22.36
273.425	67.41
273.64	-14.51
273.856	65.36
274.072	-34.99
274.287	-49.32
274.503	67.41
274.719	108.37
274.934	-51.37
275.15	-106.67
275.366	18.26
275.581	-8.36
275.797	-20.65
276.012	75.6
276.228	3.93
276.444	34.64
276.659	91.99
276.875	-39.08
277.09	42.84
277.306	48.98
277.521	110.42
277.737	42.84
277.952	130.9
278.168	108.37
278.383	34.64
278.599	24.4
278.814	87.89
279.03	-30.89
279.245	149.33
279.461	-34.99
279.676	137.04
279.892	-14.51
280.107	14.17
280.322	5.97
280.538	61.27
280.753	-41.13
280.969	61.27
281.184	40.79
281.399	108.37
281.615	69.46
281.83	83.8
282.045	-63.66
282.26	-14.51
282.476	38.74
282.691	104.28
282.906	79.7
283.122	24.4
283.337	-39.08
283.552	94.04
283.767	-2.22
283.983	48.98
284.198	67.41
284.413	28.5
284.628	-55.47
284.843	36.69
285.058	3.93
285.274	63.32
285.489	-4.27
285.704	42.84
285.919	-47.27
286.134	-24.75
286.349	128.85
286.564	-18.6
286.779	192.34
286.995	-14.51
287.21	-16.55
287.425	94.04
287.64	12.12
287.855	77.65
288.07	-69.8
288.285	98.13
288.5	143.19
288.715	89.94
288.93	-18.6
289.145	24.4
289.36	71.51
289.575	-47.27
289.79	61.27
290.004	59.22
290.219	57.17
290.434	-53.42
290.649	-47.27
290.864	36.69
291.079	30.55
291.294	57.17
291.509	46.93
291.724	-26.79
291.938	18.26
292.153	26.45
292.368	-14.51
292.583	83.8
292.798	48.98
293.012	32.6
293.227	126.8
293.442	5.97
293.657	91.99
293.871	108.37
294.086	102.23
294.301	143.19
294.516	98.13
294.73	63.32
294.945	-0.17
295.16	55.12
295.374	85.84
295.589	137.04
295.804	-2.22
296.018	-30.89
296.233	91.99
296.447	122.71
296.662	-100.52
296.877	141.14
297.091	53.08
297.306	75.6
297.52	-4.27
297.735	102.23
297.949	38.74
298.164	89.94
298.378	34.64
298.593	-34.99
298.807	16.21
299.022	-2.22
299.236	171.86
299.451	61.27
299.665	-20.65
299.88	69.46
300.094	67.41
300.309	44.88
300.523	8.02
300.737	8.02
300.952	91.99
301.166	110.42
301.381	57.17
301.595	-24.75
301.809	-43.18
302.024	40.79
302.238	20.31
302.452	102.23
302.667	-14.51
302.881	126.8
303.095	71.51
303.309	55.12
303.524	16.21
303.738	20.31
303.952	-20.65
304.166	48.98
304.381	-131.24
304.595	182.1
304.809	-41.13
305.023	128.85
305.237	-4.27
305.452	-10.41
305.666	114.52
305.88	118.61
306.094	98.13
306.308	34.64
306.522	75.6
306.736	100.18
306.95	110.42
307.164	65.36
307.379	-6.31
307.593	149.33
307.807	175.95
308.021	51.03
308.235	118.61
308.449	-71.85
308.663	75.6
308.877	212.82
309.091	46.93
309.305	108.37
309.519	-127.14
309.733	102.23
309.947	-26.79
310.161	71.51
310.374	55.12
310.588	141.14
310.802	-18.6
311.016	28.5
311.23	57.17
311.444	40.79
311.658	85.84
311.872	110.42
312.085	218.96
312.299	126.8
312.513	132.95
312.727	118.61
312.941	-12.46
313.154	98.13
313.368	44.88
313.582	28.5
313.796	20.31
314.009	10.07
314.223	157.52
314.437	124.76
314.651	157.52
314.864	-22.7
315.078	-0.17
315.292	-47.27
315.505	73.56
315.719	79.7
315.933	116.56
316.146	61.27
316.36	-121
316.573	102.23
316.787	42.84
317.001	24.4
317.214	-86.19
317.428	18.26
317.641	-41.13
317.855	53.08
318.068	36.69
318.282	55.12
318.495	237.39
318.709	40.79
318.922	32.6
319.136	139.09
319.349	169.81
319.563	-12.46
319.776	18.26
319.99	-28.84
320.203	96.08
320.417	53.08
320.63	102.23
320.843	135
321.057	57.17
321.27	14.17
321.483	36.69
321.697	147.28
321.91	14.17
322.124	122.71
322.337	48.98
322.55	-51.37
322.763	65.36
322.977	48.98
323.19	-55.47
323.403	-4.27
323.617	124.76
323.83	149.33
324.043	-43.18
324.256	51.03
324.469	-88.23
324.683	67.41
324.896	-16.55
325.109	104.28
325.322	-28.84
325.535	89.94
325.748	30.55
325.962	46.93
326.175	-6.31
326.388	36.69
326.601	132.95
326.814	110.42
327.027	-34.99
327.24	120.66
327.453	-30.89
327.666	63.32
327.879	110.42
328.092	38.74
328.305	96.08
328.518	18.26
328.731	-28.84
328.944	-8.36
329.157	-8.36
329.37	18.26
329.583	188.24
329.796	231.25
330.009	-96.43
330.222	44.88
330.435	28.5
330.648	77.65
330.861	83.8
331.073	59.22
331.286	151.38
331.499	10.07
331.712	12.12
331.925	75.6
332.138	48.98
332.35	112.47
332.563	30.55
332.776	91.99
332.989	-63.66
333.202	26.45
333.414	71.51
333.627	61.27
333.84	16.21
334.053	38.74
334.265	-98.47
334.478	8.02
334.691	26.45
334.903	40.79
335.116	-47.27
335.329	-12.46
335.541	61.27
335.754	132.95
335.966	-4.27
336.179	14.17
336.392	-22.7
336.604	38.74
336.817	208.72
337.029	28.5
337.242	100.18
337.454	34.64
337.667	-8.36
337.88	106.32
338.092	98.13
338.305	61.27
338.517	34.64
338.729	94.04
338.942	130.9
339.154	-12.46
339.367	-6.31
339.579	94.04
339.792	-34.99
340.004	114.52
340.217	26.45
340.429	83.8
340.641	-67.75
340.854	-55.47
341.066	12.12
341.278	151.38
341.491	188.24
341.703	71.51
341.915	-22.7
342.128	48.98
342.34	79.7
342.552	24.4
342.764	1.88
342.977	42.84
343.189	55.12
343.401	102.23
343.613	-37.03
343.826	3.93
344.038	-90.28
344.25	20.31
344.462	-41.13
344.674	-4.27
344.886	-16.55
345.099	34.64
345.311	124.76
345.523	32.6
345.735	-61.61
345.947	8.02
346.159	112.47
346.371	14.17
346.583	-0.17
346.795	229.2
347.007	-82.09
347.219	59.22
347.431	-14.51
347.643	100.18
347.855	120.66
348.067	77.65
348.279	-104.62
348.491	79.7
348.703	85.84
348.915	-12.46
349.127	-43.18
349.339	-4.27
349.551	71.51
349.763	65.36
349.975	79.7
350.187	94.04
350.399	53.08
350.61	46.93
350.822	-18.6
351.034	102.23
351.246	98.13
351.458	61.27
351.669	91.99
351.881	63.32
352.093	116.56
352.305	57.17
352.517	79.7
352.728	145.24
352.94	57.17
353.152	110.42
353.363	-30.89
353.575	69.46
353.787	247.63
353.999	83.8
354.21	116.56
354.422	-18.6
354.633	-22.7
354.845	-14.51
355.057	42.84
355.268	3.93
355.48	85.84
355.692	-82.09
355.903	18.26
356.115	42.84
356.326	-80.04
356.538	69.46
356.749	75.6
356.961	153.43
357.172	-4.27
357.384	-57.51
357.595	223.06
357.807	36.69
358.018	-4.27
358.23	104.28
358.441	198.48
358.653	42.84
358.864	69.46
359.075	-12.46
359.287	14.17
359.498	106.32
359.709	55.12
359.921	79.7
360.132	-37.03
360.344	-37.03
360.555	-55.47
360.766	98.13
360.977	59.22
361.189	173.91
361.4	10.07
361.611	139.09
361.823	83.8
362.034	77.65
362.245	-82.09
362.456	-10.41
362.667	44.88
362.879	-14.51
363.09	102.23
363.301	-10.41
363.512	28.5
363.723	-98.47
363.935	63.32
364.146	51.03
364.357	59.22
364.568	42.84
364.779	-26.79
364.99	151.38
365.201	32.6
365.412	77.65
365.623	-45.23
365.834	57.17
366.045	-22.7
366.256	126.8
366.467	100.18
366.678	102.23
366.889	83.8
367.1	20.31
367.311	145.24
367.522	-12.46
367.733	141.14
367.944	71.51
368.155	-34.99
368.366	40.79
368.577	104.28
368.788	122.71
368.999	-18.6
369.209	57.17
369.42	161.62
369.631	188.24
369.842	165.71
370.053	20.31
370.264	106.32
370.474	-45.23
370.685	91.99
370.896	36.69
371.107	81.75
371.317	36.69
371.528	42.84
371.739	120.66
371.95	20.31
372.16	20.31
372.371	-41.13
372.582	-8.36
372.792	53.08
373.003	63.32
373.214	79.7
373.424	128.85
373.635	10.07
373.846	118.61
374.056	-14.51
374.267	141.14
374.477	48.98
374.688	-43.18
374.898	87.89
375.109	79.7
375.319	53.08
375.53	137.04
375.74	112.47
375.951	-47.27
376.161	46.93
376.372	122.71
376.582	48.98
376.793	32.6
377.003	51.03
377.214	32.6
377.424	36.69
377.635	87.89
377.845	36.69
378.055	135
378.266	3.93
378.476	-67.75
378.686	114.52
378.897	5.97
379.107	120.66
379.317	91.99
379.528	32.6
379.738	28.5
379.948	-22.7
380.158	98.13
380.369	57.17
380.579	75.6
380.789	63.32
380.999	112.47
381.21	71.51
381.42	112.47
381.63	77.65
381.84	89.94
382.05	75.6
382.261	96.08
382.471	130.9
382.681	-22.7
382.891	200.53
383.101	112.47
383.311	-55.47
383.521	-69.8
383.731	87.89
383.941	63.32
384.151	61.27
384.361	63.32
384.571	-6.31
384.781	-45.23
384.991	141.14
385.201	155.47
385.411	83.8
385.621	71.51
385.831	46.93
386.041	75.6
386.251	-39.08
386.461	137.04
386.671	-20.65
386.881	16.21
387.091	1.88
387.301	20.31
387.511	14.17
387.72	71.51
387.93	110.42
388.14	-37.03
388.35	40.79
388.56	139.09
388.769	114.52
388.979	53.08
389.189	16.21
389.399	20.31
389.609	63.32
389.818	194.39
390.028	75.6
390.238	67.41
390.447	-63.66
390.657	108.37
390.867	-2.22
391.076	-102.57
391.286	71.51
391.496	-45.23
391.705	65.36
391.915	94.04
392.125	104.28
392.334	-0.17
392.544	106.32
392.753	112.47
392.963	12.12
393.172	-30.89
393.382	28.5
393.591	145.24
393.801	-34.99
394.01	130.9
394.22	114.52
394.429	55.12
394.639	-26.79
394.848	75.6
395.058	128.85
395.267	22.36
395.477	40.79
395.686	85.84
395.895	214.87
396.105	147.28
396.314	34.64
396.524	46.93
396.733	63.32
396.942	112.47
397.152	69.46
397.361	57.17
397.57	104.28
397.78	14.17
397.989	83.8
398.198	249.68
398.407	10.07
398.617	53.08
398.826	-6.31
399.035	46.93
399.244	102.23
399.453	3.93
399.663	77.65
399.872	36.69
400.081	-18.6
400.29	124.76
400.499	-47.27
400.708	118.61
400.917	-10.41
401.127	26.45
401.336	-14.51
401.545	135
401.754	116.56
401.963	130.9
402.172	38.74
402.381	-14.51
402.59	55.12
402.799	42.84
403.008	75.6
403.217	63.32
403.426	8.02
403.635	-6.31
403.844	137.04
404.053	38.74
404.262	73.56
404.471	120.66
404.68	96.08
404.888	-47.27
405.097	141.14
405.306	22.36
405.515	83.8
405.724	77.65
405.933	65.36
406.142	139.09
406.35	200.53
406.559	-51.37
406.768	-2.22
406.977	145.24
407.185	81.75
407.394	79.7
407.603	-0.17
407.812	157.52
408.02	120.66
408.229	44.88
408.438	71.51
408.646	10.07
408.855	36.69
409.064	-45.23
409.272	28.5
409.481	69.46
409.69	26.45
409.898	-41.13
410.107	167.76
410.315	24.4
410.524	-51.37
410.733	40.79
410.941	-71.85
411.15	59.22
411.358	65.36
411.567	182.1
411.775	48.98
411.984	51.03
412.192	110.42
412.401	-12.46
412.609	221.01
412.818	104.28
413.026	-8.36
413.234	126.8
413.443	77.65
413.651	-4.27
413.86	32.6
414.068	198.48
414.276	98.13
414.485	-67.75
414.693	155.47
414.901	210.77
415.11	38.74
415.318	-4.27
415.526	26.45
415.734	112.47
415.943	-20.65
416.151	167.76
416.359	3.93
416.567	135
416.776	73.56
416.984	106.32
417.192	116.56
417.4	38.74
417.608	61.27
417.817	30.55
418.025	130.9
418.233	151.38
418.441	-0.17
418.649	-24.75
418.857	83.8
419.065	139.09
419.273	-12.46
419.481	34.64
419.689	94.04
419.897	-12.46
420.105	-4.27
420.313	139.09
420.521	114.52
420.729	96.08
420.937	40.79
421.145	-14.51
421.353	83.8
421.561	116.56
421.769	57.17
421.977	14.17
422.185	98.13
422.393	32.6
422.601	26.45
422.809	126.8
423.017	83.8
423.224	83.8
423.432	114.52
423.64	38.74
423.848	161.62
424.056	-12.46
424.263	114.52
424.471	48.98
424.679	200.53
424.887	12.12
425.094	124.76
425.302	55.12
425.51	48.98
425.718	216.91
425.925	112.47
426.133	1.88
426.341	225.11
426.548	55.12
426.756	34.64
426.964	77.65
427.171	3.93
427.379	87.89
427.586	67.41
427.794	202.58
428.001	104.28
428.209	128.85
428.417	112.47
428.624	130.9
428.832	143.19
429.039	94.04
429.247	118.61
429.454	73.56
429.662	147.28
429.869	108.37
430.076	110.42
430.284	77.65
430.491	126.8
430.699	173.91
430.906	221.01
431.114	65.36
431.321	120.66
431.528	126.8
431.736	130.9
431.943	44.88
432.15	182.1
432.358	112.47
432.565	137.04
432.772	34.64
432.979	169.81
433.187	159.57
433.394	159.57
433.601	124.76
433.808	157.52
434.016	296.78
434.223	241.49
434.43	161.62
434.637	270.16
434.844	225.11
435.052	208.72
435.259	249.68
435.466	178
435.673	182.1
435.88	264.02
436.087	268.11
436.294	356.18
436.501	206.67
436.708	288.59
436.915	208.72
437.122	335.7
437.329	141.14
437.537	245.59
437.743	325.46
437.95	403.28
438.157	309.07
438.364	302.93
438.571	354.13
438.778	403.28
438.985	411.47
439.192	393.04
439.399	347.98
439.606	333.65
439.813	419.66
440.02	577.36
440.227	614.22
440.433	413.52
440.64	444.24
440.847	436.05
441.054	505.68
441.261	628.56
441.467	485.2
441.674	503.63
441.881	683.85
442.088	540.49
442.294	599.88
442.501	653.13
442.708	739.15
442.914	579.4
443.121	761.67
443.328	700.23
443.534	806.73
443.741	839.5
443.948	706.38
444.154	935.75
444.361	1052.49
444.568	792.39
444.774	872.26
444.981	745.29
445.187	1056.58
445.394	1021.77
445.6	970.57
445.807	1091.4
446.013	1075.01
446.22	976.71
446.426	1161.03
446.633	1300.29
446.839	1544
447.046	1191.75
447.252	1343.3
447.459	1402.69
447.665	1382.21
447.871	1457.98
448.078	1668.92
448.284	1531.71
448.491	1775.42
448.697	1818.43
448.903	1869.62
449.11	1892.15
449.316	1877.82
449.522	2021.17
449.728	1967.93
449.935	2195.25
450.141	2293.55
450.347	2268.98
450.553	2363.19
450.76	2471.73
450.966	2586.41
451.172	2563.89
451.378	2813.74
451.584	2707.24
451.791	3030.82
451.997	3084.07
452.203	3082.02
452.409	3188.52
452.615	3303.2
452.821	3225.38
453.027	3282.72
453.233	3694.36
453.44	3518.24
453.646	3774.24
453.852	4120.34
454.058	4216.6
454.264	4132.63
454.47	4503.31
454.676	4509.46
454.882	4941.58
455.088	4736.78
455.294	5015.3
455.5	5418.75
455.705	5725.95
455.911	5576.45
456.117	5699.33
456.323	5961.47
456.529	5983.99
456.735	6438.64
456.941	6651.63
457.147	6870.76
457.352	7030.51
457.558	7362.28
457.764	7757.53
457.97	8085.21
458.176	8224.47
458.381	8564.43
458.587	8691.41
458.793	9316.04
458.999	9285.32
459.204	10485.43
459.41	10669.75
459.616	10559.16
459.821	11380.39
460.027	11832.99
460.233	12340.89
460.438	12347.03
460.644	12963.47
460.85	13227.66
461.055	13522.57
461.261	14337.66
461.466	14132.86
461.672	14294.65
461.878	15869.54
462.083	15963.75
462.289	15875.68
462.494	16672.34
462.7	17002.07
462.905	17126.99
463.111	18550.33
463.316	19179.06
463.522	19607.08
463.727	20481.56
463.932	21280.27
464.138	21904.9
464.343	22797.82
464.549	23191.03
464.754	24452.58
464.959	25228.76
465.165	25490.9
465.37	25357.78
465.575	25759.18
465.781	27221.43
465.986	27989.42
466.191	27794.86
466.397	28157.35
466.602	27321.78
466.807	28878.24
467.012	29013.4
467.218	29756.82
467.423	29953.42
467.628	30725.5
467.833	32515.43
468.038	31354.23
468.244	30965.12
468.449	32816.48
468.654	31919.47
468.859	32130.41
469.064	32281.96
469.269	31690.1
469.474	31825.26
469.679	32687.46
469.885	31698.29
470.09	32208.23
470.295	32091.5
470.5	31518.07
470.705	31683.95
470.91	30813.57
471.115	30612.87
471.32	31178.11
471.525	31067.52
471.73	30143.88
471.935	29826.45
472.139	28501.41
472.344	28784.03
472.549	28542.37
472.754	28202.41
472.959	27338.16
473.164	26314.18
473.369	25955.79
473.574	27028.92
473.778	26265.03
473.983	25718.22
474.188	25361.87
474.393	24264.16
474.598	24223.2
474.802	23719.4
475.007	23342.58
475.212	23068.15
475.417	22038.02
475.621	21884.42
475.826	21667.34
476.031	21313.04
476.235	21153.3
476.44	21036.56
476.645	20538.91
476.849	20000.29
477.054	19858.98
477.259	19394.09
477.463	19390
477.668	18609.72
477.872	18730.55
478.077	18122.3
478.282	17563.21
478.486	17679.94
478.691	17442.38
478.895	17024.59
479.1	16897.62
479.304	16938.58
479.509	16258.65
479.713	16719.45
479.918	16176.73
480.122	15971.94
480.326	15982.18
480.531	15933.03
480.735	15959.65
480.94	15433.32
481.144	15916.64
481.348	15036.02
481.553	15263.34
481.757	14798.45
481.961	14960.24
482.166	15023.73
482.37	14558.84
482.574	14511.74
482.778	14255.74
482.983	14657.14
483.187	14286.46
483.391	14599.8
483.595	13940.35
483.8	13692.55
484.004	13813.38
484.208	14038.66
484.412	13860.48
484.616	13545.09
484.821	13418.12
485.025	12981.9
485.229	13035.15
485.433	12738.19
485.637	12643.99
485.841	12439.19
486.045	12467.86
486.249	12488.34
486.453	12031.65
486.657	12048.03
486.861	11800.23
487.065	11437.73
487.269	11429.54
487.473	11208.36
487.677	10847.92
487.881	10968.75
488.085	10686.13
488.289	10733.23
488.493	10362.55
488.697	10540.72
488.901	9832.13
489.105	9780.93
489.309	9793.22
489.512	9615.04
489.716	9428.68
489.92	9178.83
490.124	8910.54
490.328	9289.42
490.531	8765.14
490.735	8572.63
490.939	8582.87
491.143	8341.21
491.346	8179.42
491.55	8189.66
491.754	7991
491.958	7696.1
492.161	7741.15
492.365	7667.42
492.569	7364.32
492.772	7243.49
492.976	7157.48
493.18	7053.03
493.383	7028.46
493.587	6987.5
493.79	7036.65
493.994	6698.74
494.197	6592.24
494.401	6815.47
494.605	6582
494.808	6645.49
495.012	6536.95
495.215	6479.6
495.419	6526.71
495.622	6264.57
495.825	6342.39
496.029	6352.63
496.232	6459.12
496.436	6080.25
496.639	6285.05
496.843	6180.6
497.046	6180.6
497.249	6405.88
497.453	6239.99
497.656	6033.15
497.859	6196.98
498.063	6242.04
498.266	6317.81
498.469	6156.02
498.673	6219.51
498.876	6237.94
499.079	6278.9
499.282	6270.71
499.485	6696.69
499.689	6424.31
499.892	6530.8
500.095	6385.4
500.298	6633.2
500.501	6602.48
500.705	6639.34
500.908	6690.54
501.111	6708.97
501.314	6737.65
501.517	6825.71
501.72	7024.36
501.923	6766.32
502.126	7077.61
502.329	7286.5
502.532	7171.82
502.735	7300.84
502.938	7405.28
503.141	7446.24
503.344	7595.75
503.547	7605.99
503.75	7786.21
503.953	7642.85
504.156	7714.53
504.359	7771.87
504.562	7900.89
504.765	8191.7
504.968	8371.93
505.17	8435.41
505.373	8662.74
505.576	8904.4
505.779	9008.84
505.982	9025.23
506.185	9234.12
506.387	9328.33
506.59	9584.32
506.793	9662.15
506.996	9811.65
507.198	10120.89
507.401	10186.43
507.604	10467
507.807	10450.61
508.009	10825.39
508.212	10931.89
508.415	11191.98
508.617	11273.9
508.82	11656.87
509.022	11755.17
509.225	12142.24
509.428	12705.43
509.63	12326.55
509.833	12791.44
510.035	13432.46
510.238	13266.57
510.44	13530.76
510.643	14343.8
510.845	14327.42
511.048	14323.32
511.25	14878.32
511.453	15246.96
511.655	15961.7
511.858	16002.66
512.06	16240.22
512.262	16731.73
512.465	16811.6
512.667	17309.26
512.87	17710.66
513.072	17917.51
513.274	18554.43
513.477	18798.13
513.679	19217.97
513.881	19783.21
514.084	20117.03
514.286	20719.13
514.488	21308.94
514.69	21802.5
514.893	21878.28
515.095	22437.37
515.297	23148.02
515.499	23195.12
515.701	23778.79
515.904	24622.56
516.106	25103.83
516.308	25253.33
516.51	26025.42
516.712	26195.4
516.914	26586.56
517.116	27602.35
517.318	27960.75
517.52	28380.58
517.722	28765.6
517.925	29586.83
518.127	30133.64
518.329	30795.14
518.531	30582.15
518.733	31421.81
518.935	32154.99
519.136	32271.72
519.338	33250.65
519.54	33670.48
519.742	34536.77
519.944	34626.88
520.146	35654.97
520.348	35386.68
520.55	35720.5
520.752	36230.44
520.954	37072.16
521.155	37266.72
521.357	38100.24
521.559	38425.87
521.761	39277.82
521.963	39269.63
522.164	39562.49
522.366	39701.75
522.568	40307.95
522.77	40633.58
522.971	41274.59
523.173	40953.06
523.375	41499.87
523.576	41487.58
523.778	41678.04
523.98	42390.73
524.181	42585.29
524.383	42386.64
524.584	42654.92
524.786	42824.9
524.988	42456.27
525.189	43128
525.391	43273.41
525.592	43433.15
525.794	43547.84
525.995	43095.24
526.197	42964.17
526.398	43308.22
526.6	43482.3
526.801	43291.84
527.003	43150.53
527.204	42638.54
527.406	43195.59
527.607	42558.67
527.808	42339.54
528.01	42054.87
528.211	41872.6
528.412	42618.06
528.614	41786.58
528.815	41264.35
529.016	41868.5
529.218	40584.43
529.419	40432.88
529.62	39922.93
529.822	40021.23
530.023	39970.04
530.224	39355.64
530.425	39144.7
530.626	38614.28
530.828	37539.1
531.029	38151.44
531.23	37463.32
531.431	36781.35
531.632	37025.06
531.833	36220.2
532.035	35595.57
532.236	35290.43
532.437	35247.42
532.638	34395.46
532.839	34458.95
533.04	33957.2
533.241	33095
533.442	33584.47
533.643	32478.57
533.844	32077.16
534.045	31757.68
534.246	31057.28
534.447	30969.21
534.648	30356.87
534.849	30418.31
535.05	29662.61
535.251	29316.5
535.451	28927.39
535.652	28544.42
535.853	28267.94
536.054	27680.17
536.255	27514.29
536.456	26891.71
536.657	26938.81
536.857	26525.12
537.058	25560.53
537.259	25763.28
537.46	25267.67
537.66	24976.86
537.861	24327.65
538.062	24368.61
538.263	23817.71
538.463	23832.04
538.664	23537.13
538.865	23051.77
539.065	23057.91
539.266	22308.35
539.466	22701.56
539.667	21786.12
539.868	21726.73
540.068	21294.61
540.269	21433.87
540.469	21198.35
540.67	20760.09
540.87	20549.15
541.071	20401.69
541.271	20274.72
541.472	19727.91
541.672	19729.96
541.873	19373.61
542.073	18884.15
542.274	19043.89
542.474	18804.28
542.675	18568.76
542.875	18619.96
543.075	18116.16
543.276	17626.7
543.476	17985.09
543.676	17395.28
543.877	17374.8
544.077	17133.14
544.277	17063.5
544.478	16879.19
544.678	16756.31
544.878	16526.94
545.078	16344.67
545.279	15799.91
545.479	15707.75
545.679	15715.94
545.879	15367.79
546.079	15507.05
546.28	15150.7
546.48	14863.99
546.68	14691.96
546.88	14796.4
547.08	14540.41
547.28	14272.12
547.48	13811.33
547.68	13952.64
547.88	13549.19
548.081	13719.17
548.281	13409.93
548.481	13354.63
548.681	12961.42
548.881	13072.01
549.081	12535.45
549.28	12689.04
549.48	12465.82
549.68	12349.08
549.88	12271.26
550.08	11939.49
550.28	11693.73
550.48	11722.4
550.68	11611.81
550.88	11343.53
551.08	10817.2
551.279	11036.33
551.479	10583.73
551.679	10839.73
551.879	10305.21
552.079	10444.47
552.278	10118.84
552.478	10202.81
552.678	9991.87
552.878	9946.81
553.077	9649.86
553.277	9367.24
553.477	9567.94
553.676	9258.7
553.876	8752.85
554.076	8857.29
554.275	8808.14
554.475	8591.06
554.674	8496.85
554.874	8386.26
555.074	8308.44
555.273	8169.18
555.473	7911.13
555.672	7700.19
555.872	7735.01
556.071	7562.98
556.271	7702.24
556.47	7495.39
556.67	7263.97
556.869	7274.21
557.068	7151.34
557.268	6817.52
557.467	6756.08
557.667	6721.26
557.866	6538.99
558.065	6342.39
558.265	6360.82
558.464	6227.7
558.663	6121.21
558.863	6049.53
559.062	6024.95
559.261	5803.77
559.461	5906.17
559.66	5541.63
559.859	5523.2
560.058	5480.19
560.258	5457.67
560.457	5390.08
560.656	5482.24
560.855	5113.61
561.054	5222.15
561.253	4990.73
561.453	4892.43
561.652	4898.57
561.851	4986.63
562.05	4636.43
562.249	4529.94
562.448	4491.02
562.647	4454.16
562.846	4366.1
563.045	4507.41
563.244	4292.37
563.443	4337.43
563.642	4103.96
563.841	4284.18
564.04	4144.92
564.239	4069.14
564.438	4040.47
564.637	3807
564.836	3770.14
565.035	3766.04
565.234	3796.76
565.432	3608.35
565.631	3626.78
565.83	3516.19
566.029	3499.81
566.228	3460.9
566.427	3571.49
566.625	3252
566.824	3290.92
567.023	3090.21
567.222	3118.89
567.42	3247.91
567.619	3137.32
567.818	3088.17
568.016	3213.09
568.215	2998.06
568.414	3043.11
568.612	2907.94
568.811	2762.54
569.01	2703.15
569.208	2844.46
569.407	2819.88
569.605	2866.99
569.804	2684.72
570.002	2660.14
570.201	2600.75
570.4	2641.71
570.598	2533.17
570.797	2520.88
570.995	2430.77
571.193	2453.3
571.392	2428.72
571.59	2352.95
571.789	2402.1
571.987	2395.95
572.186	2340.66
572.384	2246.45
572.582	1984.31
572.781	2301.75
572.979	2006.84
573.177	2025.27
573.376	2037.56
573.574	2027.32
573.772	1947.45
573.971	1908.54
574.169	1843
574.367	1799.99
574.565	1916.73
574.763	1791.8
574.962	1738.55
575.16	1763.13
575.358	1621.82
575.556	1740.6
575.754	1732.41
575.952	1695.55
576.151	1582.91
576.349	1625.92
576.547	1544
576.745	1515.33
576.943	1572.67
577.141	1521.47
577.339	1451.84
577.537	1505.09
577.735	1392.45
577.933	1439.55
578.131	1367.87
578.329	1443.65
578.527	1306.43
578.725	1437.5
578.923	1165.12
579.121	1390.4
579.319	1208.13
579.516	1292.1
579.714	1400.64
579.912	1204.03
580.11	1085.25
580.308	1201.99
580.506	1101.64
580.704	1072.96
580.901	1087.3
581.099	1226.56
581.297	1068.87
581.495	1109.83
581.692	1040.2
581.89	1165.12
582.088	1077.06
582.285	1036.1
582.483	1046.34
582.681	1032.01
582.878	927.56
583.076	1027.91
583.274	894.79
583.471	1075.01
583.669	874.31
583.866	792.39
584.064	927.56
584.262	749.39
584.459	804.68
584.657	862.02
584.854	888.65
585.052	890.7
585.249	972.61
585.447	771.91
585.644	675.66
585.841	862.02
586.039	706.38
586.236	859.98
586.434	796.49
586.631	644.94
586.828	730.95
587.026	737.1
587.223	595.79
587.42	683.85
587.618	747.34
587.815	870.22
588.012	739.15
588.21	677.71
588.407	759.63
588.604	749.39
588.801	556.88
588.999	587.6
589.196	726.86
589.393	628.56
589.59	716.62
589.787	681.8
589.984	612.17
590.182	528.21
590.379	554.83
590.576	585.55
590.773	608.08
590.97	622.41
591.167	630.6
591.364	651.08
591.561	552.78
591.758	618.32
591.955	544.59
592.152	661.32
592.349	575.31
592.546	526.16
592.743	483.15
592.94	655.18
593.137	626.51
593.334	632.65
593.531	763.72
593.727	614.22
593.924	636.75
594.121	534.35
594.318	597.84
594.515	649.04
594.712	700.23
594.908	673.61
595.105	567.12
595.302	667.47
595.499	636.75
595.696	698.19
595.892	579.4
596.089	669.52
596.286	556.88
596.482	804.68
596.679	640.84
596.876	673.61
597.072	819.02
597.269	640.84
597.466	767.82
597.662	730.95
597.859	749.39
598.055	812.87
598.252	819.02
598.448	941.89
598.645	970.57
598.841	948.04
599.038	1066.82
599.234	1068.87
599.431	972.61
599.627	1077.06
599.824	1083.2
600.02	1097.54
600.217	1210.18
600.413	1107.78
600.609	1242.95
600.806	1570.62
601.002	1333.06
601.198	1353.54
601.395	1572.67
601.591	1480.51
601.787	1625.92
601.984	1599.29
602.18	1662.78
602.376	1691.45
602.572	1937.21
602.769	1947.45
602.965	1935.16
603.161	2135.86
603.357	2084.66
603.553	2406.19
603.75	2088.76
603.946	2219.83
604.142	2365.23
604.338	2408.24
604.534	2484.02
604.73	2543.41
604.926	2707.24
605.122	2909.99
605.318	2873.13
605.514	2899.75
605.71	3012.39
605.906	3276.58
606.102	3278.63
606.298	3321.63
606.494	3360.55
606.69	3626.78
606.886	3548.96
607.082	3702.56
607.278	3833.63
607.474	3976.98
607.67	4146.97
607.866	4019.99
608.062	4273.94
608.257	4450.07
608.453	4486.93
608.649	4611.85
608.845	4663.05
609.041	4656.91
609.236	5072.65
609.432	5064.46
609.628	5521.15
609.824	5383.94
610.019	5408.51
610.215	5691.13
610.411	5857.02
610.606	6082.3
610.802	6166.26
610.998	6377.2
611.193	6455.03
611.389	6473.46
611.584	6827.76
611.78	6858.48
611.976	7247.59
612.171	7612.13
612.367	7628.51
612.562	7810.78
612.758	7829.21
612.953	8085.21
613.149	8247
613.344	8554.19
613.539	8724.18
613.735	9086.67
613.93	9137.87
614.126	9373.38
614.321	9750.21
614.517	10251.96
614.712	10053.31
614.907	10358.46
615.103	10835.63
615.298	10960.56
615.493	11423.4
615.688	11220.65
615.884	12172.96
616.079	11996.83
616.274	12414.62
616.47	12549.78
616.665	13143.69
616.86	13338.25
617.055	13612.68
617.25	13717.12
617.445	14446.2
617.641	14349.95
617.836	15103.6
618.031	15183.47
618.226	15779.43
618.421	16260.7
618.616	16764.5
618.811	16653.91
619.006	17581.64
619.201	17708.62
619.396	17915.46
619.591	18099.78
619.786	18994.74
619.981	18931.25
620.176	19830.31
620.371	20006.44
620.566	20258.34
620.761	20882.97
620.956	21368.34
621.151	21431.82
621.346	22377.98
621.541	22177.28
621.735	22918.65
621.93	23082.49
622.125	23660.01
622.32	23674.35
622.515	24573.41
622.709	24782.3
622.904	25519.57
623.099	25759.18
623.294	26570.18
623.488	26772.92
623.683	27278.77
623.878	27168.18
624.072	28337.57
624.267	28620.19
624.462	28990.87
624.656	29158.81
624.851	29623.7
625.046	30170.5
625.24	30410.12
625.435	30907.77
625.629	31538.55
625.824	31767.92
626.018	32492.9
626.213	32183.66
626.407	33107.29
626.602	32902.5
626.796	33854.8
626.991	34125.13
627.185	34088.27
627.38	34551.11
627.574	34893.12
627.768	34544.97
627.963	35026.24
628.157	34981.18
628.352	35548.47
628.546	34874.69
628.74	35396.92
628.935	35204.41
629.129	35239.23
629.323	34952.51
629.517	35038.53
629.712	34504.01
629.906	34774.34
630.1	34127.18
630.294	34061.65
630.489	33426.78
630.683	33488.21
630.877	32583.01
631.071	32134.51
631.265	31649.14
631.459	31085.95
631.653	30170.5
631.848	29728.14
632.042	29009.31
632.236	28769.69
632.43	27770.29
632.624	27080.12
632.818	26369.47
633.012	25236.95
633.206	24421.86
633.4	23911.91
633.594	23336.43
633.788	22156.8
633.982	21757.45
634.176	20680.22
634.369	19650.09
634.563	19361.33
634.757	18239.04
634.951	17962.56
635.145	17352.27
635.339	16705.11
635.533	16100.96
635.726	15437.42
635.92	14415.48
636.114	14038.66
636.308	13543.05
636.501	13094.54
636.695	12543.64
636.889	11773.6
637.083	11599.52
637.276	10915.5
637.47	10479.29
637.664	9989.82
637.857	9688.77
638.051	9389.77
638.244	8910.54
638.438	8668.88
638.632	8275.67
638.825	7689.95
639.019	7610.08
639.212	7313.13
639.406	7165.67
639.599	6663.92
639.793	6520.56
639.986	6121.21
640.18	6010.62
640.373	5691.13
640.567	5545.73
640.76	5349.12
640.954	5070.6
641.147	4828.94
641.34	4574.99
641.534	4677.39
641.727	4499.22
641.92	4155.16
642.114	3974.94
642.307	3858.2
642.5	3731.23
642.694	3540.77
642.887	3485.47
643.08	3397.41
643.273	3168.04
643.467	2944.81
643.66	2957.1
643.853	2930.47
644.046	2836.27
644.239	2760.49
644.432	2584.37
644.626	2381.62
644.819	2330.42
645.012	2244.4
645.205	2189.11
645.398	2144.05
645.591	1986.36
645.784	1869.62
645.977	1804.09
646.17	1799.99
646.363	1656.64
646.556	1603.39
646.749	1484.61
646.942	1607.48
647.135	1457.98
647.328	1429.31
647.521	1496.89
647.714	1351.49
647.907	1265.47
648.099	1181.51
648.292	1285.95
648.485	1226.56
648.678	1029.96
648.871	1001.29
649.064	1075.01
649.256	882.5
649.449	868.17
649.642	894.79
649.835	862.02
650.027	831.3
650.22	786.25
650.413	786.25
650.605	898.89
650.798	687.95
650.991	739.15
651.183	675.66
651.376	753.48
651.568	726.86
651.761	569.16
651.954	653.13
652.146	618.32
652.339	712.52
652.531	681.8
652.724	442.19
652.916	530.25
653.109	386.9
653.301	563.02
653.494	575.31
653.686	501.58
653.879	571.21
654.071	438.09
654.263	384.85
654.456	370.51
654.648	448.33
654.84	440.14
655.033	360.27
655.225	411.47
655.417	341.84
655.61	558.92
655.802	491.34
655.994	335.7
656.186	280.4
656.379	374.61
656.571	249.68
656.763	284.5
656.955	288.59
657.148	266.07
657.34	380.75
657.532	261.97
657.724	339.79
657.916	321.36
658.108	311.12
658.3	325.46
658.492	329.55
658.684	223.06
658.876	382.8
659.068	145.24
659.26	132.95
659.452	126.8
659.644	251.73
659.836	356.18
660.028	243.54
660.22	225.11
660.412	202.58
660.604	274.26
660.796	202.58
660.988	345.94
661.18	159.57
661.372	198.48
661.563	282.45
661.755	233.3
661.947	77.65
662.139	63.32
662.331	235.35
662.522	175.95
662.714	122.71
662.906	161.62
663.097	171.86
663.289	180.05
663.481	40.79
663.673	114.52
663.864	132.95
664.056	200.53
664.247	190.29
664.439	298.83
664.631	126.8
664.822	276.31
665.014	175.95
665.205	94.04
665.397	85.84
665.588	96.08
665.78	69.46
665.971	286.54
666.163	135
666.354	155.47
666.546	53.08
666.737	98.13
666.929	130.9
667.12	135
667.311	216.91
667.503	100.18
667.694	69.46
667.885	153.43
668.077	110.42
668.268	81.75
668.459	151.38
668.651	231.25
668.842	208.72
669.033	-16.55
669.224	91.99
669.416	335.7
669.607	87.89
669.798	79.7
669.989	227.15
670.18	139.09
670.371	163.67
670.563	79.7
670.754	196.43
670.945	194.39
671.136	200.53
671.327	112.47
671.518	216.91
671.709	350.03
671.9	155.47
672.091	204.63
672.282	272.21
672.473	159.57
672.664	114.52
672.855	184.15
673.046	100.18
673.237	167.76
673.428	186.19
673.619	214.87
673.809	108.37
674	206.67
674.191	192.34
674.382	128.85
674.573	94.04
674.764	210.77
674.954	167.76
675.145	147.28
675.336	65.36
675.527	178
675.717	112.47
675.908	96.08
676.099	100.18
676.289	184.15
676.48	-16.55
676.671	139.09
676.861	216.91
677.052	94.04
677.243	149.33
677.433	159.57
677.624	198.48
677.814	214.87
678.005	169.81
678.195	325.46
678.386	132.95
678.576	137.04
678.767	12.12
678.957	186.19
679.148	239.44
679.338	280.4
679.529	216.91
679.719	159.57
679.909	218.96
680.1	292.69
680.29	169.81
680.481	44.88
680.671	245.59
680.861	204.63
681.052	251.73
681.242	145.24
681.432	282.45
681.622	186.19
681.813	57.17
682.003	157.52
682.193	135
682.383	210.77
682.573	198.48
682.764	225.11
682.954	206.67
683.144	272.21
683.334	73.56
683.524	153.43
683.714	214.87
683.904	243.54
684.094	221.01
684.284	227.15
684.474	259.92
684.664	196.43
684.854	216.91
685.044	282.45
685.234	245.59
685.424	288.59
685.614	204.63
685.804	266.07
685.994	315.22
686.184	173.91
686.374	149.33
686.564	145.24
686.753	200.53
686.943	83.8
687.133	171.86
687.323	243.54
687.513	198.48
687.702	206.67
687.892	221.01
688.082	253.78
688.272	329.55
688.461	151.38
688.651	329.55
688.841	276.31
689.03	194.39
689.22	204.63
689.41	241.49
689.599	255.83
689.789	178
689.979	298.83
690.168	169.81
690.358	227.15
690.547	223.06
690.737	171.86
690.926	237.39
691.116	180.05
691.305	292.69
691.495	227.15
691.684	178
691.874	155.47
692.063	149.33
692.252	272.21
692.442	251.73
692.631	186.19
692.82	233.3
693.01	280.4
693.199	175.95
693.388	223.06
693.578	223.06
693.767	218.96
693.956	278.35
694.146	239.44
694.335	233.3
694.524	245.59
694.713	294.74
694.902	167.76
695.092	161.62
695.281	329.55
695.47	239.44
695.659	106.32
695.848	200.53
696.037	143.19
696.226	239.44
696.415	233.3
696.604	325.46
696.793	216.91
696.982	225.11
697.171	321.36
697.36	122.71
697.549	169.81
697.738	143.19
697.927	135
698.116	173.91
698.305	247.63
698.494	149.33
698.683	186.19
698.872	358.22
699.061	218.96
699.25	251.73
699.438	182.1
699.627	128.85
699.816	255.83
700.005	46.93
700.193	194.39
700.382	259.92
700.571	192.34
700.76	231.25
700.948	214.87
701.137	304.98
701.326	210.77
701.514	153.43
701.703	147.28
701.892	216.91
702.08	335.7
702.269	196.43
702.457	178
702.646	229.2
702.834	196.43
703.023	245.59
703.212	286.54
703.4	182.1
703.589	173.91
703.777	145.24
703.965	223.06
704.154	157.52
704.342	149.33
704.531	190.29
704.719	159.57
704.907	300.88
705.096	223.06
705.284	169.81
705.472	229.2
705.661	200.53
705.849	261.97
706.037	182.1
706.226	282.45
706.414	243.54
706.602	81.75
706.79	266.07
706.979	141.14
707.167	190.29
707.355	126.8
707.543	214.87
707.731	247.63
707.919	167.76
708.107	237.39
708.296	141.14
708.484	130.9
708.672	229.2
708.86	227.15
709.048	126.8
709.236	132.95
709.424	173.91
709.612	311.12
709.8	139.09
709.988	227.15
710.176	239.44
710.364	358.22
710.551	161.62
710.739	192.34
710.927	151.38
711.115	212.82
711.303	274.26
711.491	300.88
711.679	212.82
711.866	335.7
712.054	159.57
712.242	178
712.43	286.54
712.617	155.47
712.805	264.02
712.993	212.82
713.181	155.47
713.368	354.13
713.556	206.67
713.744	141.14
713.931	309.07
714.119	264.02
714.306	180.05
714.494	192.34
714.682	229.2
714.869	173.91
715.057	243.54
715.244	149.33
715.432	339.79
715.619	102.23
715.807	169.81
715.994	137.04
716.182	266.07
716.369	239.44
716.556	253.78
716.744	102.23
716.931	63.32
717.119	235.35
717.306	171.86
717.493	309.07
717.681	155.47
717.868	53.08
718.055	216.91
718.242	194.39
718.43	208.72
718.617	296.78
718.804	143.19
718.991	307.02
719.179	245.59
719.366	229.2
719.553	294.74
719.74	188.24
719.927	165.71
720.114	286.54
720.301	153.43
720.488	188.24
720.676	159.57
720.863	251.73
721.05	376.66
721.237	280.4
721.424	253.78
721.611	208.72
721.798	124.76
721.985	190.29
722.172	163.67
722.358	202.58
722.545	309.07
722.732	171.86
722.919	270.16
723.106	313.17
723.293	255.83
723.48	257.87
723.667	180.05
723.853	307.02
724.04	237.39
724.227	393.04
724.414	186.19
724.6	313.17
724.787	407.38
724.974	386.9
725.161	161.62
725.347	165.71
725.534	231.25
725.72	280.4
725.907	274.26
726.094	264.02
726.28	241.49
726.467	300.88
726.653	108.37
726.84	358.22
727.027	378.7
727.213	163.67
727.4	390.99
727.586	339.79
727.773	235.35
727.959	251.73
728.145	327.5
728.332	208.72
728.518	137.04
728.705	345.94
728.891	280.4
729.077	241.49
729.264	155.47
729.45	264.02
729.636	370.51
729.823	227.15
730.009	292.69
730.195	253.78
730.382	221.01
730.568	212.82
730.754	235.35
730.94	288.59
731.126	239.44
731.313	278.35
731.499	231.25
731.685	282.45
731.871	284.5
732.057	264.02
732.243	311.12
732.429	231.25
732.615	360.27
732.801	288.59
732.987	225.11
733.173	298.83
733.359	200.53
733.545	286.54
733.731	274.26
733.917	339.79
734.103	272.21
734.289	233.3
734.475	135
734.661	343.89
734.847	350.03
735.033	280.4
735.219	292.69
735.404	352.08
735.59	149.33
735.776	223.06
735.962	296.78
736.148	272.21
736.333	384.85
736.519	288.59
736.705	278.35
736.89	264.02
737.076	321.36
737.262	331.6
737.447	165.71
737.633	231.25
737.819	354.13
738.004	239.44
738.19	259.92
738.375	376.66
738.561	380.75
738.747	329.55
738.932	249.68
739.118	382.8
739.303	378.7
739.489	329.55
739.674	266.07
739.859	167.76
740.045	268.11
740.23	229.2
740.416	173.91
740.601	247.63
740.786	317.26
740.972	216.91
741.157	233.3
741.342	147.28
741.528	116.56
741.713	304.98
741.898	264.02
742.084	300.88
742.269	239.44
742.454	319.31
742.639	380.75
742.824	264.02
743.01	397.14
743.195	386.9
743.38	290.64
743.565	333.65
743.75	239.44
743.935	276.31
744.12	268.11
744.305	223.06
744.49	208.72
744.675	282.45
744.86	208.72
745.045	237.39
745.23	259.92
745.415	290.64
745.6	458.57
745.785	288.59
745.97	325.46
746.155	280.4
746.34	417.61
746.525	304.98
746.71	372.56
746.895	139.09
747.079	184.15
747.264	247.63
747.449	298.83
747.634	282.45
747.819	268.11
748.003	190.29
748.188	161.62
748.373	241.49
748.557	229.2
748.742	323.41
748.927	241.49
749.111	151.38
749.296	137.04
749.481	309.07
749.665	223.06
749.85	151.38
750.034	239.44
750.219	145.24
750.404	218.96
750.588	221.01
750.773	200.53
750.957	169.81
751.141	227.15
751.326	280.4
751.51	112.47
751.695	227.15
751.879	221.01
752.064	311.12
752.248	194.39
752.432	282.45
752.617	282.45
752.801	294.74
752.985	116.56
753.17	311.12
753.354	225.11
753.538	210.77
753.722	202.58
753.907	214.87
754.091	59.22
754.275	214.87
754.459	145.24
754.643	124.76
754.828	268.11
755.012	264.02
755.196	32.6
755.38	149.33
755.564	192.34
755.748	198.48
755.932	192.34
756.116	300.88
756.3	190.29
756.484	157.52
756.668	227.15
756.852	14.17
757.036	184.15
757.22	145.24
757.404	12.12
757.588	186.19
757.772	243.54
757.956	116.56
758.14	239.44
758.323	137.04
758.507	79.7
758.691	171.86
758.875	249.68
759.059	237.39
759.242	77.65
759.426	106.32
759.61	145.24
759.794	73.56
759.977	143.19
760.161	356.18
760.345	202.58
760.528	241.49
760.712	110.42
760.895	87.89
761.079	124.76
761.263	34.64
761.446	151.38
761.63	91.99
761.813	188.24
761.997	36.69
762.18	167.76
762.364	192.34
762.547	26.45
762.731	163.67
762.914	212.82
763.098	89.94
763.281	59.22
763.464	114.52
763.648	192.34
763.831	159.57
764.015	59.22
764.198	186.19
764.381	85.84
764.564	102.23
764.748	77.65
764.931	159.57
765.114	55.12
765.297	173.91
765.481	61.27
765.664	112.47
765.847	143.19
766.03	200.53
766.213	128.85
766.397	73.56
766.58	77.65
766.763	198.48
766.946	112.47
767.129	48.98
767.312	12.12
767.495	137.04
767.678	36.69
767.861	108.37
768.044	96.08
768.227	98.13
768.41	32.6
768.593	91.99
768.776	89.94
768.959	-73.9
769.142	257.87
769.324	48.98
769.507	83.8
769.69	57.17
769.873	85.84
770.056	216.91
770.239	106.32
770.421	100.18
770.604	128.85
770.787	132.95
770.97	128.85
771.152	55.12
771.335	188.24
771.518	-14.51
771.7	186.19
771.883	173.91
772.066	116.56
772.248	173.91
772.431	178
772.613	124.76
772.796	112.47
772.978	73.56
773.161	173.91
773.343	61.27
773.526	118.61
773.708	1.88
773.891	38.74
774.073	91.99
774.256	20.31
774.438	155.47
774.621	-30.89
774.803	149.33
774.985	38.74
775.168	126.8
775.35	46.93
775.532	163.67
775.715	5.97
775.897	44.88
776.079	3.93
776.261	71.51
776.444	24.4
776.626	100.18
776.808	98.13
776.99	-2.22
777.173	108.37
777.355	30.55
777.537	79.7
777.719	85.84
777.901	61.27
778.083	-0.17
778.265	-2.22
778.447	55.12
778.629	38.74
778.811	53.08
778.993	100.18
779.175	81.75
779.357	75.6
779.539	-43.18
779.721	24.4
779.903	126.8
780.085	51.03
780.267	40.79
780.449	91.99
780.631	104.28
780.812	132.95
780.994	104.28
781.176	85.84
781.358	-10.41
781.54	46.93
781.721	139.09
781.903	221.01
782.085	77.65
782.267	120.66
782.448	-34.99
782.63	57.17
782.812	38.74
782.993	94.04
783.175	71.51
783.357	-6.31
783.538	42.84
783.72	-20.65
783.901	30.55
784.083	180.05
784.264	94.04
784.446	-6.31
784.627	-24.75
784.809	145.24
784.99	5.97
785.172	124.76
785.353	87.89
785.535	141.14
785.716	-12.46
785.897	28.5
786.079	44.88
786.26	87.89
786.441	51.03
786.623	-90.28
786.804	-4.27
786.985	69.46
787.167	122.71
787.348	83.8
787.529	16.21
787.71	159.57
787.891	67.41
788.073	-4.27
788.254	-90.28
788.435	214.87
788.616	3.93
788.797	3.93
788.978	-2.22
789.159	-57.51
789.34	46.93
789.522	44.88
789.703	-2.22
789.884	116.56
790.065	94.04
790.246	221.01
790.427	48.98
790.607	190.29
790.788	145.24
790.969	89.94
791.15	10.07
791.331	-86.19
791.512	1.88
791.693	32.6
791.874	1.88
792.054	186.19
792.235	96.08
792.416	-39.08
792.597	-57.51
792.778	75.6
792.958	96.08
793.139	53.08
793.32	16.21
793.5	12.12
793.681	118.61
793.862	48.98
794.042	22.36
794.223	-96.43
794.404	81.75
794.584	-32.94
794.765	-10.41
794.945	79.7
795.126	79.7
795.306	89.94
795.487	10.07
795.667	1.88
795.848	112.47
796.028	-4.27
796.209	75.6
796.389	94.04
796.57	-6.31
796.75	14.17
796.93	40.79
797.111	-39.08
797.291	22.36
797.471	69.46
797.652	-82.09
797.832	42.84
798.012	44.88
798.192	-67.75
798.373	-47.27
798.553	18.26
798.733	18.26
798.913	-16.55
799.093	10.07
799.274	-8.36
799.454	71.51
799.634	59.22
799.814	57.17
799.994	-26.79
800.174	44.88
800.354	59.22
800.534	-82.09
800.714	24.4
800.894	-55.47
801.074	-26.79
801.254	36.69
801.434	77.65
801.614	8.02
801.794	-98.47
801.974	1947.45
802.154	-90.28
802.334	20.31
802.514	-106.67
802.693	1.88
802.873	-43.18
803.053	102.23
803.233	126.8
803.413	-43.18
803.592	-26.79
803.772	-116.9
803.952	-2.22
804.131	-143.53
804.311	30.55
804.491	128.85
804.67	-41.13
804.85	-106.67
805.03	69.46
805.209	16.21
805.389	61.27
805.568	-6.31
805.748	5.97
805.928	-8.36
806.107	71.51
806.287	24.4
806.466	71.51
806.646	-8.36
806.825	32.6
807.004	14.17
807.184	32.6
807.363	38.74
807.543	24.4
807.722	-14.51
807.901	110.42
808.081	71.51
808.26	-139.43
808.439	87.89
808.619	24.4
808.798	-118.95
808.977	40.79
809.156	96.08
809.336	16.21
809.515	22.36
809.694	-69.8
809.873	42.84
810.052	63.32
810.231	106.32
810.411	-26.79
810.59	94.04
810.769	46.93
810.948	-0.17
811.127	-151.72
811.306	-8.36
811.485	57.17
811.664	124.76
811.843	3.93
812.022	-69.8
812.201	-39.08
812.38	42.84
812.559	-26.79
812.737	32.6
812.916	-30.89
813.095	16.21
813.274	-12.46
813.453	81.75
813.632	65.36
813.811	46.93
813.989	-26.79
814.168	126.8
814.347	-82.09
814.526	18.26
814.704	83.8
814.883	128.85
815.062	-67.75
815.24	135
815.419	-100.52
815.598	30.55
815.776	-131.24
815.955	73.56
816.133	-123.05
816.312	38.74
816.49	-57.51
816.669	16.21
816.847	-59.56
817.026	10.07
817.204	59.22
817.383	26.45
817.561	-65.71
817.74	75.6
817.918	5.97
818.097	-84.14
818.275	-45.23
818.453	1.88
818.632	104.28
818.81	-57.51
818.988	-2.22
819.167	-67.75
819.345	28.5
819.523	-51.37
819.701	-28.84
819.879	75.6
820.058	14.17
820.236	85.84
820.414	32.6
820.592	-26.79
820.77	-14.51
820.948	-14.51
821.127	-55.47
821.305	83.8
821.483	-8.36
821.661	-24.75
821.839	44.88
822.017	8.02
822.195	-61.61
822.373	73.56
822.551	44.88
822.729	128.85
822.907	-49.32
823.085	96.08
823.262	12.12
823.44	48.98
823.618	28.5
823.796	3.93
823.974	-6.31
824.152	-37.03
824.329	75.6
824.507	-24.75
824.685	40.79
824.863	-10.41
825.04	32.6
825.218	14.17
825.396	-10.41
825.574	3.93
825.751	-49.32
825.929	-30.89
826.107	14.17
826.284	-6.31
826.462	98.13
826.639	38.74
826.817	-80.04
826.994	51.03
827.172	-116.9
827.349	137.04
827.527	40.79
827.704	-4.27
827.882	42.84
828.059	42.84
828.237	-20.65
828.414	32.6
828.591	-57.51
828.769	3.93
828.946	-45.23
829.124	16.21
829.301	65.36
829.478	-47.27
829.655	3.93
829.833	14.17
830.01	-94.38
830.187	-34.99
830.364	-59.56
830.542	-10.41
830.719	137.04
830.896	48.98
831.073	30.55
831.25	128.85
831.427	-12.46
831.604	-6.31
831.782	-57.51
831.959	151.38
832.136	-30.89
832.313	28.5
832.49	-57.51
832.667	22.36
832.844	-8.36
833.021	55.12
833.198	79.7
833.374	-10.41
833.551	5.97
833.728	22.36
833.905	98.13
834.082	-116.9
834.259	42.84
834.436	135
834.612	-98.47
834.789	106.32
834.966	12.12
835.143	22.36
835.319	-47.27
835.496	98.13
835.673	42.84
835.85	108.37
836.026	32.6
836.203	28.5
836.38	-51.37
836.556	3.93
836.733	-92.33
836.909	77.65
837.086	-67.75
837.262	-149.67
837.439	59.22
837.616	-65.71
837.792	42.84
837.968	-51.37
838.145	-49.32
838.321	53.08
838.498	34.64
838.674	26.45
838.851	30.55
839.027	-67.75
839.203	55.12
839.38	42.84
839.556	5.97
839.732	212.82
839.909	12.12
840.085	102.23
840.261	-82.09
840.437	71.51
840.614	-2.22
840.79	173.91
840.966	24.4
841.142	32.6
841.318	-39.08
841.494	83.8
841.671	55.12
841.847	-77.99
842.023	-49.32
842.199	73.56
842.375	71.51
842.551	-116.9
842.727	-88.23
842.903	96.08
843.079	-57.51
843.255	30.55
843.431	-18.6
843.607	30.55
843.783	-125.1
843.959	-67.75
844.134	-55.47
844.31	104.28
844.486	-30.89
844.662	-26.79
844.838	-43.18
845.013	63.32
845.189	51.03
845.365	-6.31
845.541	-4.27
845.716	67.41
845.892	59.22
846.068	-90.28
846.244	-49.32
846.419	73.56
846.595	-37.03
846.77	-49.32
846.946	69.46
847.122	-59.56
847.297	-51.37
847.473	143.19
847.648	-125.1
847.824	-22.7
847.999	-82.09
848.175	-45.23
848.35	28.5
848.526	116.56
848.701	51.03
848.876	79.7
849.052	83.8
849.227	-57.51
849.403	-14.51
849.578	-67.75
849.753	-10.41
849.929	46.93
850.104	-32.94
850.279	-121
850.454	42.84
850.63	20.31
850.805	57.17
850.98	-43.18
851.155	3.93
851.33	89.94
851.505	-26.79
851.681	98.13
851.856	-65.71
852.031	67.41
852.206	65.36
852.381	-49.32
852.556	-24.75
852.731	67.41
852.906	79.7
853.081	10.07
853.256	67.41
853.431	-12.46
853.606	-63.66
853.781	-102.57
853.956	-129.19
854.131	32.6
854.305	-67.75
854.48	-24.75
854.655	-12.46
854.83	-18.6
855.005	42.84
855.18	22.36
855.354	-14.51
855.529	-2.22
855.704	-26.79
855.879	28.5
856.053	-37.03
856.228	55.12
856.403	-102.57
856.577	71.51
856.752	-84.14
856.926	28.5
857.101	26.45
857.276	-26.79
857.45	24.4
857.625	-16.55
857.799	65.36
857.974	32.6
858.148	-73.9
858.323	48.98
858.497	5.97
858.672	-159.91
858.846	-28.84
859.02	-2.22
859.195	-26.79
859.369	16.21
859.543	8.02
859.718	-51.37
859.892	-10.41
860.066	26.45
860.241	-30.89
860.415	-37.03
860.589	30.55
860.763	-39.08
860.938	8.02
861.112	28.5
861.286	-16.55
861.46	24.4
861.634	-4.27
861.808	42.84
861.982	-57.51
862.157	-43.18
862.331	-39.08
862.505	-49.32
862.679	-71.85
862.853	-104.62
863.027	-82.09
863.201	149.33
863.375	32.6
863.549	51.03
863.722	34.64
863.896	46.93
864.07	-6.31
864.244	-34.99
864.418	34.64
864.592	36.69
864.766	18.26
864.939	34.64
865.113	-77.99
865.287	94.04
865.461	-51.37
865.634	-14.51
865.808	-37.03
865.982	34.64
866.156	-49.32
866.329	-88.23
866.503	14.17
866.676	61.27
866.85	16.21
867.024	-22.7
867.197	28.5
867.371	34.64
867.544	69.46
867.718	-198.82
867.891	73.56
868.065	-55.47
868.238	44.88
868.412	67.41
868.585	-0.17
868.759	-34.99
868.932	-4.27
869.105	-108.71
869.279	-96.43
869.452	-82.09
869.625	53.08
869.799	63.32
869.972	-47.27
870.145	-63.66
870.319	69.46
870.492	12.12
870.665	-18.6
870.838	-37.03
871.011	-143.53
871.185	-2.22
871.358	-2.22
871.531	59.22
871.704	48.98
871.877	-16.55
872.05	-12.46
872.223	-133.29
872.396	59.22
872.569	24.4
872.742	-63.66
872.915	46.93
873.088	-24.75
873.261	-26.79
873.434	1.88
873.607	48.98
873.78	34.64
873.953	-41.13
874.126	69.46
874.299	91.99
874.471	-14.51
874.644	-77.99
874.817	-22.7
874.99	135
875.163	-12.46
875.335	75.6
875.508	-51.37
875.681	10.07
875.853	-20.65
876.026	20.31
876.199	87.89
876.371	-6.31
876.544	-53.42
876.717	46.93
876.889	-6.31
877.062	42.84
877.234	-80.04
877.407	-53.42
877.579	53.08
877.752	3.93
877.924	83.8
878.097	28.5
878.269	28.5
878.442	5.97
878.614	3.93
878.786	16.21
878.959	-71.85
879.131	-16.55
879.303	-110.76
879.476	-34.99
879.648	1.88
879.82	36.69
879.993	24.4
880.165	-32.94
880.337	-147.62
880.509	30.55
880.681	-77.99
880.854	-20.65
881.026	38.74
881.198	149.33
881.37	34.64
881.542	16.21
881.714	26.45
881.886	-24.75
882.058	-49.32
882.23	-24.75
882.402	-77.99
882.574	20.31
882.746	55.12
882.918	100.18
883.09	69.46
883.262	-77.99
883.434	83.8
883.606	-114.86
883.778	-8.36
883.95	128.85
884.122	-77.99
884.293	77.65
884.465	-30.89
884.637	73.56
884.809	-45.23
884.98	-30.89
885.152	28.5
885.324	26.45
885.496	-2.22
885.667	-51.37
885.839	40.79
886.011	89.94
886.182	1.88
886.354	85.84
886.525	55.12
886.697	36.69
886.869	18.26
887.04	-92.33
887.212	32.6
887.383	71.51
887.555	-41.13
887.726	-98.47
887.897	-26.79
888.069	-69.8
888.24	98.13
888.412	-20.65
888.583	-10.41
888.754	-49.32
888.926	-112.81
889.097	-34.99
889.268	-47.27
889.44	5.97
889.611	-116.9
889.782	-116.9
889.953	3.93
890.125	89.94
890.296	-12.46
890.467	-34.99
890.638	-43.18
890.809	-6.31
890.98	-63.66
891.151	-4.27
891.323	143.19
891.494	-32.94
891.665	-65.71
891.836	10.07
892.007	-34.99
892.178	46.93
892.349	10.07
892.52	-65.71
892.691	-34.99
892.862	-30.89
893.032	-71.85
893.203	-59.56
893.374	12.12
893.545	65.36
893.716	-30.89
893.887	40.79
894.057	38.74
894.228	-10.41
894.399	-125.1
894.57	44.88
894.74	-63.66
894.911	-12.46
895.082	-73.9
895.253	-59.56
895.423	28.5
895.594	110.42
895.764	3.93
895.935	-84.14
896.106	77.65
896.276	-12.46
896.447	32.6
896.617	-94.38
896.788	-55.47
896.958	-49.32
897.129	-61.61
897.299	-61.61
897.47	100.18
897.64	3.93
897.81	30.55
897.981	-28.84
898.151	-75.95
898.322	-6.31
898.492	75.6
898.662	-69.8
898.832	-30.89
899.003	-53.42
899.173	18.26
899.343	-26.79
899.513	-123.05
