Data from USB4F104151__183__11-05-10-533.txt Node

Date: Wed Feb 26 11:05:10 EST 2025
User: louis
Spectrometer: USB4F10415
Trigger mode: 4
Integration Time (sec): 1.000000E-1
Scans to average: 1
Electric dark correction enabled: true
Nonlinearity correction enabled: false
Boxcar width: 0
XAxis mode: Wavelengths
Number of Pixels in Spectrum: 3648
>>>>>Begin Spectral Data<<<<<
178.204	-377.85
178.424	-377.85
178.644	-377.85
178.864	-459.77
179.084	-439.29
179.304	21.5
179.524	-9.22
179.744	31.74
179.964	35.84
180.184	33.79
180.404	-19.46
180.624	-50.18
180.844	-27.65
181.064	25.6
181.283	-17.41
181.503	-82.94
181.723	58.37
181.943	-82.94
182.163	203.77
182.383	-87.04
182.602	72.7
182.822	105.47
183.042	25.6
183.262	-17.41
183.482	-70.65
183.701	-9.22
183.921	-1.02
184.141	-56.32
184.361	121.85
184.58	130.05
184.8	35.84
185.02	-19.46
185.239	7.17
185.459	99.33
185.679	39.94
185.898	-74.75
186.118	68.61
186.338	33.79
186.557	121.85
186.777	-84.99
186.997	17.41
187.216	-52.22
187.436	183.29
187.655	1.02
187.875	62.46
188.095	-3.07
188.314	117.76
188.534	179.2
188.753	-44.03
188.973	123.9
189.192	173.05
189.412	23.55
189.631	-11.26
189.851	25.6
190.07	230.4
190.29	-117.76
190.509	48.13
190.729	52.22
190.948	95.23
191.168	232.44
191.387	19.46
191.607	27.65
191.826	9.22
192.045	84.99
192.265	1.02
192.484	134.14
192.704	-35.84
192.923	-29.7
193.142	214.01
193.362	54.27
193.581	148.48
193.8	74.75
194.02	52.22
194.239	11.26
194.458	107.52
194.678	107.52
194.897	-72.7
195.116	82.94
195.335	95.23
195.555	37.89
195.774	-3.07
195.993	29.7
196.212	3.07
196.432	-23.55
196.651	-35.84
196.87	33.79
197.089	244.73
197.308	21.5
197.528	54.27
197.747	9.22
197.966	27.65
198.185	175.1
198.404	41.98
198.623	111.61
198.842	152.57
199.062	29.7
199.281	62.46
199.5	15.36
199.719	115.71
199.938	52.22
200.157	66.56
200.376	115.71
200.595	68.61
200.814	68.61
201.033	5.12
201.252	136.19
201.471	11.26
201.69	134.14
201.909	-33.79
202.128	68.61
202.347	3.07
202.566	31.74
202.785	-93.18
203.004	-39.94
203.223	199.68
203.442	35.84
203.661	-95.23
203.879	46.08
204.098	80.89
204.317	-103.42
204.536	9.22
204.755	101.37
204.974	23.55
205.193	-21.5
205.411	168.96
205.63	91.13
205.849	64.51
206.068	35.84
206.287	35.84
206.505	39.94
206.724	50.18
206.943	-44.03
207.162	-5.12
207.381	82.94
207.599	9.22
207.818	76.8
208.037	-78.85
208.255	44.03
208.474	3.07
208.693	3.07
208.911	-23.55
209.13	48.13
209.349	50.18
209.567	70.65
209.786	70.65
210.005	117.76
210.223	54.27
210.442	-62.46
210.661	80.89
210.879	-19.46
211.098	19.46
211.316	17.41
211.535	89.09
211.753	52.22
211.972	31.74
212.191	-3.07
212.409	-60.42
212.628	132.09
212.846	-101.37
213.065	-7.17
213.283	121.85
213.502	-15.36
213.72	58.37
213.938	56.32
214.157	-21.5
214.375	138.24
214.594	29.7
214.812	82.94
215.031	11.26
215.249	17.41
215.467	-37.89
215.686	136.19
215.904	11.26
216.122	70.65
216.341	119.81
216.559	27.65
216.778	113.66
216.996	117.76
217.214	-19.46
217.432	41.98
217.651	-117.76
217.869	7.17
218.087	48.13
218.306	-27.65
218.524	78.85
218.742	31.74
218.96	89.09
219.179	60.42
219.397	-15.36
219.615	228.35
219.833	128
220.051	25.6
220.27	91.13
220.488	52.22
220.706	66.56
220.924	9.22
221.142	19.46
221.36	50.18
221.578	89.09
221.796	13.31
222.015	-52.22
222.233	37.89
222.451	146.43
222.669	-87.04
222.887	50.18
223.105	37.89
223.323	17.41
223.541	-119.81
223.759	64.51
223.977	46.08
224.195	58.37
224.413	66.56
224.631	62.46
224.849	56.32
225.067	259.07
225.285	-31.74
225.503	-70.65
225.721	-105.47
225.939	-29.7
226.157	39.94
226.375	166.91
226.592	-52.22
226.81	5.12
227.028	125.95
227.246	162.81
227.464	31.74
227.682	19.46
227.9	33.79
228.117	97.28
228.335	58.37
228.553	58.37
228.771	56.32
228.989	44.03
229.206	46.08
229.424	56.32
229.642	-23.55
229.86	11.26
230.077	62.46
230.295	58.37
230.513	109.57
230.731	29.7
230.948	138.24
231.166	173.05
231.384	-39.94
231.601	-11.26
231.819	128
232.037	13.31
232.254	39.94
232.472	-7.17
232.689	-25.6
232.907	150.53
233.125	13.31
233.342	9.22
233.56	21.5
233.777	31.74
233.995	3.07
234.213	87.04
234.43	130.05
234.648	25.6
234.865	33.79
235.083	84.99
235.3	50.18
235.518	146.43
235.735	160.77
235.953	82.94
236.17	-21.5
236.388	-41.98
236.605	3.07
236.822	60.42
237.04	62.46
237.257	9.22
237.475	-80.89
237.692	17.41
237.909	44.03
238.127	1.02
238.344	64.51
238.562	54.27
238.779	-11.26
238.996	-35.84
239.214	46.08
239.431	17.41
239.648	37.89
239.865	23.55
240.083	115.71
240.3	11.26
240.517	-41.98
240.735	60.42
240.952	113.66
241.169	64.51
241.386	74.75
241.603	-5.12
241.821	-33.79
242.038	89.09
242.255	44.03
242.472	-39.94
242.689	99.33
242.907	37.89
243.124	25.6
243.341	-1.02
243.558	17.41
243.775	-48.13
243.992	-3.07
244.209	142.33
244.426	179.2
244.643	66.56
244.86	17.41
245.078	84.99
245.295	-46.08
245.512	15.36
245.729	66.56
245.946	87.04
246.163	46.08
246.38	-21.5
246.597	58.37
246.814	17.41
247.031	25.6
247.248	-13.31
247.464	31.74
247.681	19.46
247.898	72.7
248.115	58.37
248.332	-35.84
248.549	134.14
248.766	91.13
248.983	78.85
249.2	35.84
249.417	107.52
249.633	17.41
249.85	23.55
250.067	48.13
250.284	7.17
250.501	23.55
250.717	35.84
250.934	-50.18
251.151	31.74
251.368	37.89
251.585	66.56
251.801	52.22
252.018	-37.89
252.235	109.57
252.451	-52.22
252.668	-121.85
252.885	162.81
253.102	46.08
253.318	72.7
253.535	-41.98
253.752	33.79
253.968	-19.46
254.185	-31.74
254.401	109.57
254.618	33.79
254.835	27.65
255.051	87.04
255.268	72.7
255.484	91.13
255.701	7.17
255.917	78.85
256.134	11.26
256.351	1.02
256.567	-101.37
256.784	62.46
257	-25.6
257.217	125.95
257.433	46.08
257.65	11.26
257.866	128
258.082	19.46
258.299	-46.08
258.515	27.65
258.732	-9.22
258.948	-17.41
259.165	23.55
259.381	-25.6
259.597	97.28
259.814	-27.65
260.03	82.94
260.246	-7.17
260.463	183.29
260.679	50.18
260.895	68.61
261.112	9.22
261.328	-21.5
261.544	25.6
261.761	123.9
261.977	-21.5
262.193	-19.46
262.409	27.65
262.626	66.56
262.842	-5.12
263.058	3.07
263.274	25.6
263.49	152.57
263.707	64.51
263.923	48.13
264.139	-119.81
264.355	84.99
264.571	166.91
264.787	99.33
265.004	125.95
265.22	31.74
265.436	-64.51
265.652	-91.13
265.868	56.32
266.084	11.26
266.3	-52.22
266.516	-1.02
266.732	11.26
266.948	44.03
267.164	29.7
267.38	50.18
267.596	7.17
267.812	119.81
268.028	72.7
268.244	-60.42
268.46	33.79
268.676	-1.02
268.892	-9.22
269.108	-13.31
269.324	-39.94
269.54	-41.98
269.756	84.99
269.972	-33.79
270.188	17.41
270.403	-82.94
270.619	62.46
270.835	37.89
271.051	50.18
271.267	-72.7
271.483	-66.56
271.698	68.61
271.914	50.18
272.13	58.37
272.346	-37.89
272.562	-35.84
272.777	60.42
272.993	21.5
273.209	-46.08
273.425	80.89
273.64	-117.76
273.856	21.5
274.072	-103.42
274.287	25.6
274.503	103.42
274.719	7.17
274.934	31.74
275.15	-29.7
275.366	99.33
275.581	-93.18
275.797	-7.17
276.012	44.03
276.228	33.79
276.444	50.18
276.659	138.24
276.875	-60.42
277.09	-54.27
277.306	-11.26
277.521	99.33
277.737	84.99
277.952	101.37
278.168	31.74
278.383	11.26
278.599	93.18
278.814	62.46
279.03	76.8
279.245	177.15
279.461	3.07
279.676	101.37
279.892	-13.31
280.107	25.6
280.322	-39.94
280.538	39.94
280.753	-48.13
280.969	21.5
281.184	80.89
281.399	156.67
281.615	44.03
281.83	3.07
282.045	-39.94
282.26	68.61
282.476	117.76
282.691	97.28
282.906	105.47
283.122	101.37
283.337	17.41
283.552	97.28
283.767	23.55
283.983	156.67
284.198	64.51
284.413	80.89
284.628	-66.56
284.843	64.51
285.058	23.55
285.274	-7.17
285.489	31.74
285.704	60.42
285.919	11.26
286.134	60.42
286.349	27.65
286.564	-19.46
286.779	66.56
286.995	-23.55
287.21	-78.85
287.425	121.85
287.64	-31.74
287.855	48.13
288.07	23.55
288.285	117.76
288.5	134.14
288.715	82.94
288.93	11.26
289.145	7.17
289.36	97.28
289.575	-13.31
289.79	91.13
290.004	15.36
290.219	166.91
290.434	-37.89
290.649	-60.42
290.864	-119.81
291.079	27.65
291.294	58.37
291.509	80.89
291.724	-5.12
291.938	39.94
292.153	76.8
292.368	35.84
292.583	123.9
292.798	58.37
293.012	3.07
293.227	-35.84
293.442	23.55
293.657	33.79
293.871	140.29
294.086	37.89
294.301	154.62
294.516	46.08
294.73	58.37
294.945	-117.76
295.16	68.61
295.374	84.99
295.589	95.23
295.804	-19.46
296.018	23.55
296.233	177.15
296.447	-29.7
296.662	-5.12
296.877	76.8
297.091	93.18
297.306	1.02
297.52	-13.31
297.735	62.46
297.949	-11.26
298.164	3.07
298.378	35.84
298.593	-125.95
298.807	-13.31
299.022	52.22
299.236	99.33
299.451	3.07
299.665	35.84
299.88	9.22
300.094	-52.22
300.309	31.74
300.523	31.74
300.737	-50.18
300.952	17.41
301.166	74.75
301.381	5.12
301.595	50.18
301.809	9.22
302.024	56.32
302.238	27.65
302.452	93.18
302.667	33.79
302.881	91.13
303.095	93.18
303.309	72.7
303.524	-17.41
303.738	7.17
303.952	44.03
304.166	111.61
304.381	-60.42
304.595	177.15
304.809	-78.85
305.023	54.27
305.237	44.03
305.452	-7.17
305.666	82.94
305.88	21.5
306.094	87.04
306.308	31.74
306.522	70.65
306.736	35.84
306.95	-23.55
307.164	15.36
307.379	-31.74
307.593	68.61
307.807	160.77
308.021	62.46
308.235	-25.6
308.449	-103.42
308.663	-25.6
308.877	179.2
309.091	11.26
309.305	54.27
309.519	-109.57
309.733	113.66
309.947	-84.99
310.161	128
310.374	109.57
310.588	93.18
310.802	-60.42
311.016	39.94
311.23	60.42
311.444	31.74
311.658	-31.74
311.872	146.43
312.085	138.24
312.299	148.48
312.513	111.61
312.727	37.89
312.941	-21.5
313.154	60.42
313.368	13.31
313.582	35.84
313.796	44.03
314.009	9.22
314.223	93.18
314.437	19.46
314.651	29.7
314.864	-80.89
315.078	-25.6
315.292	-58.37
315.505	-35.84
315.719	-41.98
315.933	31.74
316.146	-9.22
316.36	-37.89
316.573	123.9
316.787	95.23
317.001	72.7
317.214	-58.37
317.428	48.13
317.641	-39.94
317.855	-17.41
318.068	1.02
318.282	3.07
318.495	177.15
318.709	-11.26
318.922	50.18
319.136	99.33
319.349	74.75
319.563	-27.65
319.776	25.6
319.99	-138.24
320.203	80.89
320.417	17.41
320.63	105.47
320.843	248.83
321.057	13.31
321.27	54.27
321.483	46.08
321.697	160.77
321.91	128
322.124	1.02
322.337	21.5
322.55	-60.42
322.763	41.98
322.977	19.46
323.19	-31.74
323.403	46.08
323.617	62.46
323.83	130.05
324.043	62.46
324.256	3.07
324.469	-52.22
324.683	146.43
324.896	31.74
325.109	109.57
325.322	-99.33
325.535	89.09
325.748	101.37
325.962	1.02
326.175	72.7
326.388	46.08
326.601	82.94
326.814	15.36
327.027	7.17
327.24	128
327.453	-56.32
327.666	101.37
327.879	134.14
328.092	-11.26
328.305	23.55
328.518	-15.36
328.731	-21.5
328.944	-29.7
329.157	97.28
329.37	-17.41
329.583	168.96
329.796	160.77
330.009	-11.26
330.222	80.89
330.435	134.14
330.648	9.22
330.861	25.6
331.073	87.04
331.286	105.47
331.499	25.6
331.712	-121.85
331.925	-25.6
332.138	-25.6
332.35	191.49
332.563	25.6
332.776	72.7
332.989	-87.04
333.202	19.46
333.414	-11.26
333.627	23.55
333.84	-27.65
334.053	41.98
334.265	60.42
334.478	-54.27
334.691	-9.22
334.903	-3.07
335.116	31.74
335.329	54.27
335.541	87.04
335.754	113.66
335.966	-5.12
336.179	7.17
336.392	48.13
336.604	66.56
336.817	46.08
337.029	5.12
337.242	29.7
337.454	87.04
337.667	68.61
337.88	154.62
338.092	-1.02
338.305	-17.41
338.517	-50.18
338.729	117.76
338.942	95.23
339.154	-23.55
339.367	35.84
339.579	31.74
339.792	-17.41
340.004	48.13
340.217	3.07
340.429	101.37
340.641	-93.18
340.854	5.12
341.066	35.84
341.278	142.33
341.491	115.71
341.703	80.89
341.915	-76.8
342.128	68.61
342.34	35.84
342.552	-52.22
342.764	58.37
342.977	1.02
343.189	19.46
343.401	35.84
343.613	-76.8
343.826	25.6
344.038	-19.46
344.25	17.41
344.462	9.22
344.674	87.04
344.886	35.84
345.099	44.03
345.311	78.85
345.523	-5.12
345.735	-78.85
345.947	19.46
346.159	1.02
346.371	11.26
346.583	-11.26
346.795	195.58
347.007	-19.46
347.219	70.65
347.431	58.37
347.643	80.89
347.855	-25.6
348.067	123.9
348.279	31.74
348.491	101.37
348.703	46.08
348.915	-13.31
349.127	5.12
349.339	74.75
349.551	3.07
349.763	97.28
349.975	-11.26
350.187	125.95
350.399	117.76
350.61	15.36
350.822	-3.07
351.034	50.18
351.246	46.08
351.458	50.18
351.669	87.04
351.881	89.09
352.093	130.05
352.305	140.29
352.517	39.94
352.728	125.95
352.94	48.13
353.152	33.79
353.363	-52.22
353.575	15.36
353.787	121.85
353.999	117.76
354.21	125.95
354.422	3.07
354.633	72.7
354.845	52.22
355.057	21.5
355.268	128
355.48	9.22
355.692	-66.56
355.903	52.22
356.115	-91.13
356.326	-70.65
356.538	115.71
356.749	58.37
356.961	60.42
357.172	72.7
357.384	9.22
357.595	228.35
357.807	-1.02
358.018	-37.89
358.23	-21.5
358.441	146.43
358.653	7.17
358.864	46.08
359.075	-17.41
359.287	-23.55
359.498	101.37
359.709	89.09
359.921	13.31
360.132	19.46
360.344	17.41
360.555	-46.08
360.766	-21.5
360.977	48.13
361.189	41.98
361.4	48.13
361.611	119.81
361.823	-5.12
362.034	-39.94
362.245	-80.89
362.456	-31.74
362.667	78.85
362.879	-27.65
363.09	-9.22
363.301	99.33
363.512	-39.94
363.723	-13.31
363.935	13.31
364.146	72.7
364.357	-41.98
364.568	41.98
364.779	7.17
364.99	60.42
365.201	-78.85
365.412	21.5
365.623	-117.76
365.834	125.95
366.045	54.27
366.256	44.03
366.467	80.89
366.678	-3.07
366.889	50.18
367.1	17.41
367.311	105.47
367.522	-74.75
367.733	44.03
367.944	64.51
368.155	-50.18
368.366	-52.22
368.577	62.46
368.788	41.98
368.999	17.41
369.209	11.26
369.42	150.53
369.631	220.16
369.842	33.79
370.053	-23.55
370.264	150.53
370.474	-11.26
370.685	17.41
370.896	-56.32
371.107	111.61
371.317	74.75
371.528	25.6
371.739	128
371.95	35.84
372.16	150.53
372.371	-78.85
372.582	-41.98
372.792	27.65
373.003	-39.94
373.214	56.32
373.424	152.57
373.635	3.07
373.846	115.71
374.056	62.46
374.267	-1.02
374.477	154.62
374.688	-7.17
374.898	64.51
375.109	5.12
375.319	35.84
375.53	103.42
375.74	101.37
375.951	9.22
376.161	44.03
376.372	109.57
376.582	54.27
376.793	140.29
377.003	-19.46
377.214	-33.79
377.424	56.32
377.635	-3.07
377.845	39.94
378.055	56.32
378.266	-91.13
378.476	89.09
378.686	52.22
378.897	60.42
379.107	128
379.317	97.28
379.528	11.26
379.738	119.81
379.948	-15.36
380.158	82.94
380.369	46.08
380.579	21.5
380.789	-11.26
380.999	70.65
381.21	123.9
381.42	132.09
381.63	-11.26
381.84	50.18
382.05	76.8
382.261	87.04
382.471	109.57
382.681	3.07
382.891	160.77
383.101	33.79
383.311	-17.41
383.521	-39.94
383.731	80.89
383.941	103.42
384.151	80.89
384.361	44.03
384.571	27.65
384.781	70.65
384.991	142.33
385.201	187.39
385.411	84.99
385.621	48.13
385.831	56.32
386.041	13.31
386.251	17.41
386.461	84.99
386.671	48.13
386.881	46.08
387.091	-17.41
387.301	58.37
387.511	19.46
387.72	91.13
387.93	58.37
388.14	-13.31
388.35	97.28
388.56	46.08
388.769	103.42
388.979	68.61
389.189	-7.17
389.399	66.56
389.609	107.52
389.818	50.18
390.028	11.26
390.238	25.6
390.447	5.12
390.657	17.41
390.867	-1.02
391.076	-31.74
391.286	91.13
391.496	78.85
391.705	-33.79
391.915	82.94
392.125	87.04
392.334	-48.13
392.544	150.53
392.753	70.65
392.963	-25.6
393.172	-62.46
393.382	-29.7
393.591	246.78
393.801	48.13
394.01	168.96
394.22	54.27
394.429	-25.6
394.639	-23.55
394.848	66.56
395.058	41.98
395.267	-1.02
395.477	82.94
395.686	52.22
395.895	138.24
396.105	97.28
396.314	107.52
396.524	5.12
396.733	-9.22
396.942	37.89
397.152	82.94
397.361	132.09
397.57	52.22
397.78	33.79
397.989	54.27
398.198	78.85
398.407	-13.31
398.617	-23.55
398.826	9.22
399.035	60.42
399.244	162.81
399.453	72.7
399.663	-7.17
399.872	52.22
400.081	-64.51
400.29	125.95
400.499	-21.5
400.708	105.47
400.917	39.94
401.127	37.89
401.336	17.41
401.545	152.57
401.754	181.25
401.963	33.79
402.172	-3.07
402.381	-21.5
402.59	11.26
402.799	80.89
403.008	62.46
403.217	70.65
403.426	160.77
403.635	-56.32
403.844	27.65
404.053	7.17
404.262	-5.12
404.471	191.49
404.68	80.89
404.888	33.79
405.097	7.17
405.306	121.85
405.515	87.04
405.724	-33.79
405.933	130.05
406.142	37.89
406.35	109.57
406.559	74.75
406.768	29.7
406.977	87.04
407.185	130.05
407.394	134.14
407.603	-97.28
407.812	113.66
408.02	130.05
408.229	58.37
408.438	29.7
408.646	11.26
408.855	70.65
409.064	68.61
409.272	31.74
409.481	125.95
409.69	-64.51
409.898	50.18
410.107	119.81
410.315	17.41
410.524	-54.27
410.733	-41.98
410.941	52.22
411.15	160.77
411.358	56.32
411.567	46.08
411.775	-17.41
411.984	82.94
412.192	95.23
412.401	-19.46
412.609	187.39
412.818	64.51
413.026	60.42
413.234	99.33
413.443	68.61
413.651	-15.36
413.86	-48.13
414.068	144.38
414.276	74.75
414.485	-66.56
414.693	121.85
414.901	185.34
415.11	87.04
415.318	-3.07
415.526	56.32
415.734	76.8
415.943	54.27
416.151	136.19
416.359	23.55
416.567	29.7
416.776	76.8
416.984	130.05
417.192	228.35
417.4	33.79
417.608	62.46
417.817	-29.7
418.025	56.32
418.233	203.77
418.441	-37.89
418.649	-41.98
418.857	21.5
419.065	177.15
419.273	-50.18
419.481	23.55
419.689	-21.5
419.897	48.13
420.105	25.6
420.313	95.23
420.521	84.99
420.729	111.61
420.937	-37.89
421.145	-17.41
421.353	164.86
421.561	150.53
421.769	105.47
421.977	19.46
422.185	48.13
422.393	97.28
422.601	136.19
422.809	78.85
423.017	5.12
423.224	84.99
423.432	84.99
423.64	-23.55
423.848	162.81
424.056	-5.12
424.263	37.89
424.471	78.85
424.679	134.14
424.887	-9.22
425.094	78.85
425.302	99.33
425.51	17.41
425.718	46.08
425.925	39.94
426.133	-25.6
426.341	160.77
426.548	17.41
426.756	31.74
426.964	130.05
427.171	3.07
427.379	105.47
427.586	-23.55
427.794	7.17
428.001	115.71
428.209	101.37
428.417	109.57
428.624	80.89
428.832	97.28
429.039	82.94
429.247	132.09
429.454	101.37
429.662	214.01
429.869	173.05
430.076	76.8
430.284	93.18
430.491	226.3
430.699	103.42
430.906	224.25
431.114	84.99
431.321	111.61
431.528	91.13
431.736	101.37
431.943	148.48
432.15	209.92
432.358	125.95
432.565	248.83
432.772	-25.6
432.979	162.81
433.187	220.16
433.394	226.3
433.601	140.29
433.808	238.59
434.016	238.59
434.223	203.77
434.43	171.01
434.637	252.92
434.844	232.44
435.052	228.35
435.259	209.92
435.466	216.06
435.673	246.78
435.88	228.35
436.087	349.18
436.294	267.26
436.501	287.74
436.708	191.49
436.915	246.78
437.122	347.13
437.329	211.96
437.537	349.18
437.743	373.75
437.95	381.95
438.157	390.14
438.364	316.41
438.571	404.47
438.778	343.03
438.985	347.13
439.192	435.19
439.399	340.99
439.606	371.71
439.813	435.19
440.02	527.35
440.227	545.78
440.433	533.5
440.64	537.59
440.847	437.24
441.054	586.74
441.261	668.66
441.467	556.02
441.674	451.58
441.881	607.22
442.088	644.09
442.294	689.14
442.501	707.57
442.708	742.39
442.914	789.49
443.121	846.84
443.328	799.73
443.534	838.64
443.741	832.5
443.948	703.48
444.154	924.66
444.361	1039.34
444.568	920.56
444.774	951.28
444.981	867.31
445.187	1111.02
445.394	1043.44
445.6	1041.39
445.807	1166.32
446.013	1143.79
446.22	1076.21
446.426	1362.92
446.633	1502.19
446.839	1481.71
447.046	1240.05
447.252	1483.75
447.459	1510.38
447.665	1418.22
447.871	1682.41
448.078	1852.39
448.284	1682.41
448.491	1846.24
448.697	1942.5
448.903	1899.49
449.11	2040.8
449.316	1919.97
449.522	2282.46
449.728	2247.65
449.935	2341.85
450.141	2368.48
450.347	2690.01
450.553	2509.79
450.76	2679.77
450.966	2726.87
451.172	2810.84
451.378	2923.48
451.584	3027.92
451.791	3191.76
451.997	3212.24
452.203	3470.28
452.409	3380.17
452.615	3646.41
452.821	3613.64
453.027	3521.48
453.233	4213.7
453.44	4062.15
453.646	4121.54
453.852	4418.49
454.058	4504.51
454.264	4461.5
454.47	4891.57
454.676	4993.97
454.882	5446.57
455.088	5135.28
455.294	5460.91
455.5	5874.6
455.705	6071.2
455.911	6028.2
456.117	6370.21
456.323	6509.47
456.529	6607.77
456.735	7017.36
456.941	7474.06
457.147	7691.15
457.352	7652.24
457.558	8037.25
457.764	8715.13
457.97	8713.08
458.176	8915.83
458.381	9395.06
458.587	9767.79
458.793	10013.54
458.999	10152.81
459.204	11408.21
459.41	11930.44
459.616	11780.94
459.821	12331.84
460.027	12944.19
460.233	13497.14
460.438	13667.12
460.644	14132.01
460.85	14320.42
461.055	15078.17
461.261	15909.65
461.466	15362.84
461.672	15737.62
461.878	17744.63
462.083	17320.7
462.289	17828.59
462.494	18604.77
462.7	18653.92
462.905	18873.06
463.111	20583.11
463.316	21596.85
463.522	21875.38
463.727	22577.83
463.932	23591.58
464.138	24568.46
464.343	25363.07
464.549	25281.15
464.754	27116.13
464.959	27701.85
465.165	28258.9
465.37	28437.07
465.575	28111.44
465.781	30085.68
465.986	30757.42
466.191	30302.77
466.397	30929.45
466.602	29854.26
466.807	31658.52
467.012	32356.88
467.218	32885.26
467.423	33012.23
467.628	33942.01
467.833	35514.85
468.038	35099.11
468.244	34140.66
468.449	36067.8
468.654	35308.01
468.859	35076.58
469.064	35322.34
469.269	34167.29
469.474	35064.3
469.679	35961.31
469.885	34636.27
470.09	35131.88
470.295	35301.86
470.5	34722.29
470.705	34699.76
470.91	33825.28
471.115	33669.63
471.32	33772.03
471.525	33554.94
471.73	32770.57
471.935	32748.04
472.139	31308.32
472.344	31642.14
472.549	31420.96
472.754	30597.68
472.959	30003.77
473.164	28830.28
473.369	28701.26
473.574	29164.1
473.778	28834.38
473.983	28273.23
474.188	28029.52
474.393	26514.03
474.598	26534.51
474.802	25877.11
475.007	25592.44
475.212	25533.05
475.417	23968.4
475.621	24078.99
475.826	23593.62
476.031	23161.5
476.235	22794.92
476.44	22489.77
476.645	21895.86
476.849	21877.43
477.054	21598.9
477.259	21017.28
477.463	21205.69
477.668	20431.56
477.872	20509.38
478.077	20034.25
478.282	19112.67
478.486	19159.77
478.691	19036.89
478.895	18727.65
479.1	18395.88
479.304	18651.88
479.509	17898.22
479.713	18184.94
479.918	17742.58
480.122	17306.36
480.326	17550.07
480.531	17523.44
480.735	17033.98
480.94	16831.23
481.144	17273.59
481.348	16614.15
481.553	16608
481.757	16093.96
481.961	16366.34
482.166	16538.37
482.37	16155.4
482.574	15903.5
482.778	15754
482.983	15821.58
483.187	15551.25
483.391	15508.24
483.595	15344.41
483.8	15104.79
484.004	15254.3
484.208	15092.51
484.412	14885.66
484.616	14875.42
484.821	14787.36
485.025	14312.23
485.229	14299.94
485.433	14127.91
485.637	13871.92
485.841	13560.63
486.045	13388.6
486.249	13542.19
486.453	13091.64
486.657	12905.28
486.861	12731.2
487.065	12450.63
487.269	12700.48
487.473	12172.1
487.677	12309.32
487.881	11883.34
488.085	11541.33
488.289	11547.47
488.493	11197.27
488.697	11225.94
488.901	10941.27
489.105	10595.17
489.309	10486.62
489.512	10496.86
489.716	10195.81
489.92	9890.67
490.124	10120.04
490.328	9837.42
490.531	9552.75
490.735	9313.14
490.939	9165.68
491.143	9122.68
491.346	8876.92
491.55	8899.45
491.754	8743.8
491.958	8573.82
492.161	8422.27
492.365	8192.9
492.569	7951.24
492.772	7877.51
492.976	7863.18
493.18	7631.76
493.383	7703.43
493.587	7766.92
493.79	7644.04
493.994	7326.61
494.197	7297.94
494.401	7234.45
494.605	7150.48
494.808	7091.09
495.012	6908.82
495.215	7213.97
495.419	6992.79
495.622	6931.35
495.825	6898.58
496.029	6665.11
496.232	6800.28
496.436	6689.69
496.639	6777.75
496.843	6755.22
497.046	6730.65
497.249	6945.69
497.453	6667.16
497.656	6691.74
497.859	6738.84
498.063	6861.72
498.266	7080.85
498.469	6716.31
498.673	6896.53
498.876	6886.29
499.079	6917.01
499.282	7035.8
499.485	7273.36
499.689	6931.35
499.892	7144.34
500.095	6945.69
500.298	7158.67
500.501	6839.19
500.705	7390.1
500.908	7250.83
501.111	7584.65
501.314	7429.01
501.517	7555.98
501.72	7627.66
501.923	7580.56
502.126	7703.43
502.329	7818.12
502.532	7801.74
502.735	8004.49
502.938	8133.51
503.141	8053.64
503.344	8061.83
503.547	8389.5
503.75	8276.87
503.953	8682.36
504.156	8706.94
504.359	8840.06
504.562	8868.73
504.765	9155.44
504.968	9245.55
505.17	9399.15
505.373	9481.07
505.576	9683.82
505.779	9775.98
505.982	9837.42
506.185	10292.07
506.387	10171.24
506.59	10363.75
506.793	10691.42
506.996	10820.44
507.198	11053.91
507.401	11160.41
507.604	11692.88
507.807	11813.71
508.009	11881.29
508.212	12151.62
508.415	12467.01
508.617	12600.13
508.82	12686.14
509.022	12790.59
509.225	13456.18
509.428	13548.34
509.63	13933.36
509.833	14082.86
510.035	14791.45
510.238	14863.13
510.44	15063.83
510.643	15624.98
510.845	15667.98
511.048	16132.87
511.25	16743.17
511.453	16777.98
511.655	17920.75
511.858	17656.56
512.06	18277.1
512.262	18457.32
512.465	18686.69
512.667	19137.24
512.87	19563.22
513.072	20206.28
513.274	20540.1
513.477	21050.05
513.679	21392.06
513.881	21865.14
514.084	22254.25
514.286	22981.28
514.488	23675.54
514.69	24306.32
514.893	24748.68
515.095	25166.46
515.297	25510.52
515.499	26116.72
515.701	26733.16
515.904	27443.81
516.106	27920.98
516.308	28404.3
516.51	29147.72
516.712	29372.99
516.914	30321.2
517.116	30911.02
517.318	30941.74
517.52	31519.26
517.722	32279.06
517.925	32795.15
518.127	33714.69
518.329	34152.95
518.531	34165.24
518.733	35387.88
518.935	36168.15
519.136	36282.84
519.338	37333.45
519.54	37769.66
519.742	38015.42
519.944	38551.99
520.146	39795.1
520.348	39891.36
520.55	40268.19
520.752	40567.19
520.954	41468.3
521.155	41222.54
521.357	42326.39
521.559	42748.28
521.761	43622.76
521.963	43932
522.164	44147.04
522.366	44781.91
522.568	44910.93
522.77	45166.93
522.971	46055.75
523.173	45646.15
523.375	45730.12
523.576	46084.42
523.778	46252.35
523.98	47227.18
524.181	47022.39
524.383	47010.1
524.584	47485.23
524.786	47550.76
524.988	47653.16
525.189	48044.32
525.391	48398.62
525.592	48126.24
525.794	47941.92
525.995	47849.77
526.197	47841.57
526.398	47974.69
526.6	47986.98
526.801	47868.2
527.003	47792.42
527.204	47358.25
527.406	48025.89
527.607	47012.15
527.808	47317.29
528.01	46211.39
528.211	46373.18
528.412	47294.77
528.614	46362.94
528.815	45853
529.016	46252.35
529.218	45138.26
529.419	44585.3
529.62	44028.26
529.822	43995.49
530.023	43764.07
530.224	42840.43
530.425	42846.58
530.626	42289.53
530.828	41519.49
531.029	42058.11
531.23	41134.48
531.431	40591.76
531.632	40243.61
531.833	39639.46
532.035	39244.2
532.236	39035.31
532.437	38418.87
532.638	37937.6
532.839	37620.16
533.04	37079.5
533.241	36162.01
533.442	36860.37
533.643	35815.9
533.844	35113.45
534.045	35025.39
534.246	34152.95
534.447	33556.99
534.648	33524.22
534.849	33081.86
535.05	32424.47
535.251	32092.69
535.451	31558.17
535.652	31107.62
535.853	30945.83
536.054	30681.64
536.255	30163.51
536.456	29424.19
536.657	29538.88
536.857	28826.18
537.058	28365.39
537.259	27910.74
537.46	27902.55
537.66	27503.2
537.861	27036.26
538.062	26419.82
538.263	26184.3
538.463	26051.19
538.664	25756.28
538.865	25471.61
539.065	25176.7
539.266	24498.83
539.466	24756.87
539.667	23984.79
539.868	24072.85
540.068	23509.66
540.269	23390.88
540.469	23317.15
540.67	22966.95
540.87	22532.78
541.071	22131.37
541.271	22028.98
541.472	21410.49
541.672	21478.07
541.873	21279.42
542.073	20863.68
542.274	21062.33
542.474	20466.38
542.675	20198.09
542.875	20196.04
543.075	19589.85
543.276	19309.27
543.476	19761.87
543.676	19036.89
543.877	18918.11
544.077	18717.41
544.277	18866.91
544.478	18383.59
544.678	18293.48
544.878	17933.04
545.078	17806.06
545.279	17492.73
545.479	17146.62
545.679	17361.66
545.879	16970.49
546.079	16605.95
546.28	16587.52
546.48	16405.25
546.68	16405.25
546.88	15950.6
547.08	15649.55
547.28	15559.44
547.48	15199
547.68	15235.86
547.88	15026.97
548.081	14883.61
548.281	14813.98
548.481	14607.14
548.681	14594.85
548.881	14209.83
549.081	14037.8
549.28	13876.01
549.48	13597.49
549.68	13419.32
549.88	13478.71
550.08	13136.7
550.28	12995.39
550.48	12788.54
550.68	12700.48
550.88	12251.97
551.08	12073.8
551.279	11957.07
551.479	11756.36
551.679	11701.07
551.879	11410.26
552.079	11445.07
552.278	10883.93
552.478	11240.28
552.678	10918.75
552.878	10855.26
553.077	10519.39
553.277	10347.36
553.477	10197.86
553.676	10089.32
553.876	9941.86
554.076	9737.07
554.275	9366.39
554.475	9161.59
554.674	9278.32
554.874	9182.07
555.074	9087.86
555.273	8764.28
555.473	8883.06
555.672	8643.45
555.872	8420.22
556.071	8354.69
556.271	8397.7
556.47	8129.41
556.67	7848.84
556.869	7820.17
557.068	7656.33
557.268	7566.22
557.467	7588.75
557.667	7535.5
557.866	7285.65
558.065	7043.99
558.265	6884.25
558.464	6804.38
558.663	6697.88
558.863	6560.67
559.062	6724.51
559.261	6366.11
559.461	6441.89
559.66	6259.62
559.859	5931.94
560.058	5880.74
560.258	5886.89
560.457	5684.14
560.656	5893.03
560.855	5598.12
561.054	5604.27
561.253	5462.96
561.453	5471.15
561.652	5444.52
561.851	5270.45
562.05	5032.88
562.249	4998.07
562.448	4940.72
562.647	4815.8
562.846	4891.57
563.045	4725.69
563.244	4578.23
563.443	4613.05
563.642	4643.77
563.841	4602.81
564.04	4369.34
564.239	4441.02
564.438	4316.09
564.637	4088.77
564.836	4223.94
565.035	4135.87
565.234	3910.6
565.432	3996.61
565.631	3933.12
565.83	3931.08
566.029	3863.49
566.228	3773.38
566.427	3785.67
566.625	3640.26
566.824	3529.67
567.023	3464.14
567.222	3572.68
567.42	3382.22
567.619	3486.67
567.818	3505.1
568.016	3572.68
568.215	3345.36
568.414	3378.12
568.612	3118.03
568.811	3222.48
569.01	3175.38
569.208	3017.68
569.407	3154.9
569.605	2962.39
569.804	2923.48
570.002	2814.93
570.201	2698.2
570.4	2679.77
570.598	2653.14
570.797	2749.4
570.995	2630.62
571.193	2687.96
571.392	2653.14
571.59	2454.49
571.789	2425.82
571.987	2425.82
572.186	2497.5
572.384	2440.15
572.582	2345.95
572.781	2470.87
572.979	2241.5
573.177	2278.37
573.376	2247.65
573.574	2184.16
573.772	2184.16
573.971	2051.04
574.169	1901.54
574.367	2161.63
574.565	2046.94
574.763	2106.34
574.962	1938.4
575.16	1905.63
575.358	1813.48
575.556	1778.66
575.754	1983.46
575.952	1862.63
576.151	1788.9
576.349	1749.99
576.547	1733.61
576.745	1700.84
576.943	1778.66
577.141	1563.62
577.339	1575.91
577.537	1692.65
577.735	1684.45
577.933	1491.95
578.131	1387.5
578.329	1584.1
578.527	1426.41
578.725	1410.03
578.923	1371.12
579.121	1516.52
579.319	1276.91
579.516	1395.69
579.714	1469.42
579.912	1244.14
580.11	1287.15
580.308	1336.3
580.506	1149.93
580.704	1108.98
580.901	1172.46
581.099	1223.66
581.297	1147.89
581.495	1141.74
581.692	1151.98
581.89	1225.71
582.088	1170.41
582.285	1106.93
582.483	986.1
582.681	1139.69
582.878	1002.48
583.076	1074.16
583.274	977.91
583.471	1078.26
583.669	1033.2
583.866	1014.77
584.064	809.97
584.262	830.45
584.459	900.08
584.657	963.57
584.854	924.66
585.052	820.21
585.249	996.34
585.447	934.9
585.644	799.73
585.841	906.23
586.039	900.08
586.236	885.75
586.434	752.63
586.631	771.06
586.828	656.37
587.026	734.2
587.223	695.29
587.42	695.29
587.618	711.67
587.815	779.25
588.012	715.77
588.21	719.86
588.407	754.68
588.604	787.44
588.801	658.42
588.999	656.37
589.196	832.5
589.393	732.15
589.59	627.7
589.787	672.76
589.984	650.23
590.182	650.23
590.379	508.92
590.576	664.57
590.773	637.94
590.97	623.61
591.167	699.38
591.364	605.17
591.561	574.46
591.758	715.77
591.955	687.09
592.152	732.15
592.349	637.94
592.546	541.69
592.743	492.54
592.94	615.41
593.137	676.85
593.334	654.33
593.531	637.94
593.727	676.85
593.924	662.52
594.121	639.99
594.318	504.82
594.515	652.28
594.712	674.81
594.908	740.34
595.105	570.36
595.302	670.71
595.499	701.43
595.696	789.49
595.892	680.95
596.089	801.78
596.286	795.64
596.482	863.22
596.679	832.5
596.876	709.62
597.072	828.4
597.269	852.98
597.466	867.31
597.662	902.13
597.859	908.27
598.055	926.71
598.252	938.99
598.448	1004.53
598.645	1045.49
598.841	1018.86
599.038	1180.65
599.234	1219.57
599.431	1125.36
599.627	1229.81
599.824	1154.03
600.02	1272.81
600.217	1295.34
600.413	1377.26
600.609	1391.59
600.806	1657.83
601.002	1518.57
601.198	1592.3
601.395	1725.41
601.591	1633.26
601.787	1713.13
601.984	1874.92
602.18	1922.02
602.376	1969.12
602.572	2192.35
602.769	2159.58
602.965	2221.02
603.161	2331.61
603.357	2415.58
603.553	2415.58
603.75	2495.45
603.946	2651.1
604.142	2733.01
604.338	2919.38
604.534	2950.1
604.73	2890.71
604.926	3105.74
605.122	3148.75
605.318	2995.15
605.514	3216.33
605.71	3345.36
605.906	3498.95
606.102	3670.98
606.298	3816.39
606.494	3953.6
606.69	4107.2
606.886	4006.85
607.082	4244.42
607.278	4252.61
607.474	4432.83
607.67	4543.42
607.866	4469.69
608.062	4797.37
608.257	4881.33
608.453	4823.99
608.649	5297.07
608.845	5237.68
609.041	5440.43
609.236	5673.9
609.432	5731.24
609.628	6198.18
609.824	6108.07
610.019	6146.98
610.215	6445.98
610.411	6615.96
610.606	6787.99
610.802	6855.58
610.998	7074.71
611.193	7371.66
611.389	7279.5
611.584	7400.34
611.78	7715.72
611.976	7994.25
612.171	8352.64
612.367	8397.7
612.562	8715.13
612.758	8631.16
612.953	8842.11
613.149	9147.25
613.344	9493.36
613.539	10079.08
613.735	10052.45
613.93	10279.78
614.126	10744.67
614.321	10896.22
614.517	11369.3
614.712	11426.64
614.907	11746.12
615.103	12104.52
615.298	12235.59
615.493	12503.87
615.688	12745.53
615.884	13409.08
616.079	13595.44
616.274	13822.77
616.47	14050.09
616.665	14476.07
616.86	15039.26
617.055	15297.3
617.25	15430.42
617.445	16081.67
617.641	16343.81
617.836	16790.27
618.031	17011.45
618.226	17873.65
618.421	18119.4
618.616	18703.07
618.811	18899.68
619.006	19501.78
619.201	19843.79
619.396	20390.6
619.591	20185.8
619.786	21181.12
619.981	21408.44
620.176	22170.29
620.371	22272.68
620.566	22739.62
620.761	23220.89
620.956	23642.78
621.151	23952.02
621.346	24720.01
621.541	25045.63
621.735	25893.49
621.93	25688.7
622.125	26415.72
622.32	26485.36
622.515	27593.31
622.709	27478.62
622.904	28107.35
623.099	28813.9
623.294	29844.02
623.488	29667.9
623.683	30618.16
623.878	30632.49
624.072	31099.43
624.267	31834.65
624.462	32440.85
624.656	32633.36
624.851	33354.24
625.046	33399.3
625.24	33985.02
625.435	34533.87
625.629	35160.55
625.824	35142.12
626.018	35916.25
626.213	35772.89
626.407	36520.4
626.602	36696.53
626.796	37341.64
626.991	37771.71
627.185	37691.84
627.38	37853.63
627.574	37960.12
627.768	38101.43
627.963	38191.55
628.157	38322.62
628.352	38748.59
628.546	38384.05
628.74	38744.5
628.935	38402.49
629.129	38595
629.323	38447.54
629.517	38209.98
629.712	37712.32
629.906	37429.7
630.1	37075.4
630.294	36815.31
630.489	36229.59
630.683	36274.65
630.877	35301.86
631.071	34349.56
631.265	34296.31
631.459	33137.16
631.653	32408.08
631.848	31865.37
632.042	30865.96
632.236	30497.33
632.43	29465.15
632.624	28936.77
632.818	27925.08
633.012	26845.8
633.206	26083.95
633.4	25567.87
633.594	24371.85
633.788	23583.38
633.982	22989.47
634.176	22248.11
634.369	21070.53
634.563	20224.72
634.757	19235.55
634.951	19012.32
635.145	18203.37
635.339	17326.84
635.533	16737.02
635.726	16251.66
635.92	15328.02
636.114	14555.94
636.308	14166.82
636.501	13560.63
636.695	13140.79
636.889	12374.85
637.083	11995.98
637.276	11674.45
637.47	10926.94
637.664	10371.94
637.857	10132.33
638.051	9601.9
638.244	9341.81
638.438	8917.88
638.632	8706.94
638.825	8127.36
639.019	8004.49
639.212	7584.65
639.406	7418.77
639.599	7033.75
639.793	6878.1
639.986	6560.67
640.18	6294.43
640.373	6011.81
640.567	5591.98
640.76	5522.35
640.954	5352.37
641.147	4993.97
641.34	4940.72
641.534	4746.17
641.727	4682.68
641.92	4291.52
642.114	4197.31
642.307	3982.28
642.5	3965.89
642.694	3652.55
642.887	3554.25
643.08	3634.12
643.273	3408.84
643.467	3214.29
643.66	3058.64
643.853	2870.23
644.046	2796.5
644.239	2812.89
644.432	2728.92
644.626	2472.92
644.819	2462.68
645.012	2319.32
645.205	2292.7
645.398	2169.82
645.591	2081.76
645.784	1948.64
645.977	1817.57
646.17	1766.37
646.363	1805.28
646.556	1713.13
646.749	1471.47
646.942	1608.68
647.135	1557.48
647.328	1588.2
647.521	1477.61
647.714	1397.74
647.907	1354.73
648.099	1217.52
648.292	1405.93
648.485	1186.8
648.678	1123.31
648.871	1057.78
649.064	1092.59
649.256	928.75
649.449	908.27
649.642	863.22
649.835	910.32
650.027	844.79
650.22	932.85
650.413	775.16
650.605	793.59
650.798	742.39
650.991	711.67
651.183	670.71
651.376	742.39
651.568	726
651.761	658.42
651.954	613.37
652.146	549.88
652.339	611.32
652.531	695.29
652.724	467.96
652.916	521.21
653.109	386.04
653.301	539.64
653.494	510.97
653.686	437.24
653.879	547.83
654.071	467.96
654.263	320.51
654.456	408.57
654.648	490.49
654.84	371.71
655.033	306.17
655.225	480.25
655.417	273.4
655.61	496.63
655.802	386.04
655.994	541.69
656.186	291.84
656.379	478.2
656.571	365.56
656.763	320.51
656.955	281.6
657.148	271.36
657.34	379.9
657.532	367.61
657.724	220.16
657.916	220.16
658.108	332.79
658.3	330.75
658.492	320.51
658.684	220.16
658.876	265.21
659.068	171.01
659.26	119.81
659.452	195.58
659.644	207.87
659.836	340.99
660.028	191.49
660.22	115.71
660.412	267.26
660.604	234.49
660.796	263.16
660.988	314.36
661.18	216.06
661.372	259.07
661.563	259.07
661.755	166.91
661.947	150.53
662.139	128
662.331	123.9
662.522	246.78
662.714	158.72
662.906	140.29
663.097	154.62
663.289	138.24
663.481	82.94
663.673	181.25
663.864	152.57
664.056	185.34
664.247	105.47
664.439	222.2
664.631	185.34
664.822	107.52
665.014	80.89
665.205	113.66
665.397	80.89
665.588	226.3
665.78	146.43
665.971	175.1
666.163	27.65
666.354	177.15
666.546	66.56
666.737	166.91
666.929	82.94
667.12	64.51
667.311	117.76
667.503	74.75
667.694	152.57
667.885	128
668.077	97.28
668.268	7.17
668.459	121.85
668.651	142.33
668.842	173.05
669.033	62.46
669.224	70.65
669.416	322.56
669.607	132.09
669.798	33.79
669.989	248.83
670.18	173.05
670.371	168.96
670.563	80.89
670.754	185.34
670.945	93.18
671.136	242.68
671.327	80.89
671.518	150.53
671.709	154.62
671.9	166.91
672.091	236.54
672.282	70.65
672.473	146.43
672.664	-9.22
672.855	68.61
673.046	134.14
673.237	234.49
673.428	33.79
673.619	185.34
673.809	19.46
674	146.43
674.191	166.91
674.382	107.52
674.573	132.09
674.764	72.7
674.954	166.91
675.145	31.74
675.336	54.27
675.527	29.7
675.717	17.41
675.908	44.03
676.099	64.51
676.289	113.66
676.48	23.55
676.671	158.72
676.861	99.33
677.052	113.66
677.243	97.28
677.433	164.86
677.624	138.24
677.814	119.81
678.005	52.22
678.195	189.44
678.386	87.04
678.576	111.61
678.767	-19.46
678.957	115.71
679.148	103.42
679.338	228.35
679.529	154.62
679.719	156.67
679.909	117.76
680.1	162.81
680.29	168.96
680.481	54.27
680.671	152.57
680.861	175.1
681.052	162.81
681.242	54.27
681.432	158.72
681.622	177.15
681.813	72.7
682.003	113.66
682.193	9.22
682.383	140.29
682.573	76.8
682.764	93.18
682.954	140.29
683.144	285.69
683.334	52.22
683.524	162.81
683.714	187.39
683.904	148.48
684.094	87.04
684.284	101.37
684.474	187.39
684.664	164.86
684.854	216.06
685.044	209.92
685.234	216.06
685.424	113.66
685.614	93.18
685.804	242.68
685.994	84.99
686.184	93.18
686.374	179.2
686.564	125.95
686.753	193.53
686.943	66.56
687.133	78.85
687.323	148.48
687.513	244.73
687.702	123.9
687.892	207.87
688.082	209.92
688.272	236.54
688.461	121.85
688.651	250.88
688.841	134.14
689.03	95.23
689.22	46.08
689.41	162.81
689.599	240.64
689.789	160.77
689.979	226.3
690.168	72.7
690.358	242.68
690.547	205.82
690.737	228.35
690.926	115.71
691.116	113.66
691.305	211.96
691.495	197.63
691.684	82.94
691.874	33.79
692.063	109.57
692.252	226.3
692.442	201.72
692.631	123.9
692.82	224.25
693.01	261.12
693.199	121.85
693.388	158.72
693.578	166.91
693.767	107.52
693.956	205.82
694.146	62.46
694.335	230.4
694.524	130.05
694.713	232.44
694.902	109.57
695.092	173.05
695.281	183.29
695.47	146.43
695.659	132.09
695.848	125.95
696.037	148.48
696.226	250.88
696.415	68.61
696.604	207.87
696.793	164.86
696.982	183.29
697.171	228.35
697.36	60.42
697.549	109.57
697.738	25.6
697.927	105.47
698.116	103.42
698.305	140.29
698.494	203.77
698.683	80.89
698.872	248.83
699.061	168.96
699.25	68.61
699.438	189.44
699.627	52.22
699.816	226.3
700.005	7.17
700.193	56.32
700.382	283.64
700.571	142.33
700.76	183.29
700.948	199.68
701.137	156.67
701.326	228.35
701.514	82.94
701.703	144.38
701.892	158.72
702.08	297.98
702.269	111.61
702.457	54.27
702.646	191.49
702.834	119.81
703.023	187.39
703.212	171.01
703.4	156.67
703.589	80.89
703.777	205.82
703.965	146.43
704.154	52.22
704.342	-13.31
704.531	117.76
704.719	87.04
704.907	248.83
705.096	123.9
705.284	17.41
705.472	109.57
705.661	199.68
705.849	199.68
706.037	152.57
706.226	125.95
706.414	154.62
706.602	97.28
706.79	183.29
706.979	119.81
707.167	220.16
707.355	62.46
707.543	193.53
707.731	166.91
707.919	134.14
708.107	107.52
708.296	70.65
708.484	101.37
708.672	136.19
708.86	148.48
709.048	199.68
709.236	62.46
709.424	162.81
709.612	130.05
709.8	115.71
709.988	197.63
710.176	164.86
710.364	216.06
710.551	128
710.739	195.58
710.927	60.42
711.115	156.67
711.303	261.12
711.491	248.83
711.679	119.81
711.866	230.4
712.054	189.44
712.242	140.29
712.43	156.67
712.617	168.96
712.805	218.11
712.993	154.62
713.181	7.17
713.368	197.63
713.556	160.77
713.744	74.75
713.931	312.32
714.119	181.25
714.306	13.31
714.494	78.85
714.682	113.66
714.869	-5.12
715.057	144.38
715.244	56.32
715.432	117.76
715.619	115.71
715.807	154.62
715.994	201.72
716.182	183.29
716.369	175.1
716.556	134.14
716.744	74.75
716.931	13.31
717.119	203.77
717.306	111.61
717.493	199.68
717.681	95.23
717.868	72.7
718.055	189.44
718.242	132.09
718.43	183.29
718.617	185.34
718.804	150.53
718.991	263.16
719.179	156.67
719.366	109.57
719.553	168.96
719.74	140.29
719.927	123.9
720.114	156.67
720.301	58.37
720.488	13.31
720.676	125.95
720.863	211.96
721.05	295.93
721.237	209.92
721.424	220.16
721.611	158.72
721.798	103.42
721.985	109.57
722.172	117.76
722.358	68.61
722.545	119.81
722.732	130.05
722.919	248.83
723.106	175.1
723.293	113.66
723.48	189.44
723.667	150.53
723.853	189.44
724.04	222.2
724.227	234.49
724.414	74.75
724.6	134.14
724.787	289.79
724.974	351.23
725.161	171.01
725.347	60.42
725.534	226.3
725.72	209.92
725.907	224.25
726.094	123.9
726.28	128
726.467	173.05
726.653	125.95
726.84	248.83
727.027	310.27
727.213	146.43
727.4	230.4
727.586	142.33
727.773	205.82
727.959	101.37
728.145	209.92
728.332	199.68
728.518	70.65
728.705	214.01
728.891	166.91
729.077	193.53
729.264	173.05
729.45	142.33
729.636	283.64
729.823	142.33
730.009	211.96
730.195	207.87
730.382	232.44
730.568	82.94
730.754	162.81
730.94	117.76
731.126	158.72
731.313	138.24
731.499	211.96
731.685	218.11
731.871	242.68
732.057	218.11
732.243	252.92
732.429	246.78
732.615	259.07
732.801	234.49
732.987	154.62
733.173	171.01
733.359	168.96
733.545	277.5
733.731	207.87
733.917	293.88
734.103	279.55
734.289	179.2
734.475	111.61
734.661	312.32
734.847	214.01
735.033	254.97
735.219	220.16
735.404	183.29
735.59	140.29
735.776	166.91
735.962	179.2
736.148	197.63
736.333	257.02
736.519	230.4
736.705	173.05
736.89	152.57
737.076	226.3
737.262	134.14
737.447	95.23
737.633	132.09
737.819	197.63
738.004	257.02
738.19	177.15
738.375	187.39
738.561	236.54
738.747	156.67
738.932	68.61
739.118	338.94
739.303	224.25
739.489	267.26
739.674	173.05
739.859	162.81
740.045	261.12
740.23	185.34
740.416	39.94
740.601	132.09
740.786	117.76
740.972	148.48
741.157	70.65
741.342	146.43
741.528	185.34
741.713	281.6
741.898	115.71
742.084	263.16
742.269	132.09
742.454	222.2
742.639	314.36
742.824	185.34
743.01	304.12
743.195	365.56
743.38	171.01
743.565	236.54
743.75	218.11
743.935	211.96
744.12	244.73
744.305	128
744.49	87.04
744.675	228.35
744.86	132.09
745.045	226.3
745.23	183.29
745.415	199.68
745.6	236.54
745.785	207.87
745.97	248.83
746.155	166.91
746.34	277.5
746.525	138.24
746.71	271.36
746.895	111.61
747.079	107.52
747.264	148.48
747.449	185.34
747.634	189.44
747.819	142.33
748.003	132.09
748.188	117.76
748.373	230.4
748.557	181.25
748.742	162.81
748.927	197.63
749.111	171.01
749.296	144.38
749.481	160.77
749.665	193.53
749.85	105.47
750.034	201.72
750.219	142.33
750.404	138.24
750.588	134.14
750.773	48.13
750.957	232.44
751.141	125.95
751.326	261.12
751.51	52.22
751.695	158.72
751.879	156.67
752.064	326.65
752.248	82.94
752.432	234.49
752.617	248.83
752.801	244.73
752.985	113.66
753.17	199.68
753.354	242.68
753.538	160.77
753.722	101.37
753.907	95.23
754.091	64.51
754.275	162.81
754.459	-44.03
754.643	80.89
754.828	175.1
755.012	150.53
755.196	64.51
755.38	148.48
755.564	74.75
755.748	109.57
755.932	195.58
756.116	254.97
756.3	156.67
756.484	74.75
756.668	228.35
756.852	5.12
757.036	107.52
757.22	134.14
757.404	37.89
757.588	23.55
757.772	103.42
757.956	121.85
758.14	244.73
758.323	62.46
758.507	171.01
758.691	56.32
758.875	115.71
759.059	44.03
759.242	78.85
759.426	97.28
759.61	115.71
759.794	15.36
759.977	154.62
760.161	265.21
760.345	183.29
760.528	187.39
760.712	99.33
760.895	35.84
761.079	70.65
761.263	68.61
761.446	-3.07
761.63	27.65
761.813	205.82
761.997	-64.51
762.18	33.79
762.364	72.7
762.547	74.75
762.731	-7.17
762.914	70.65
763.098	31.74
763.281	52.22
763.464	132.09
763.648	91.13
763.831	70.65
764.015	70.65
764.198	179.2
764.381	3.07
764.564	125.95
764.748	37.89
764.931	105.47
765.114	-48.13
765.297	242.68
765.481	74.75
765.664	48.13
765.847	46.08
766.03	232.44
766.213	27.65
766.397	25.6
766.58	-5.12
766.763	89.09
766.946	119.81
767.129	54.27
767.312	97.28
767.495	48.13
767.678	23.55
767.861	121.85
768.044	80.89
768.227	-11.26
768.41	64.51
768.593	125.95
768.776	111.61
768.959	19.46
769.142	148.48
769.324	66.56
769.507	17.41
769.69	37.89
769.873	15.36
770.056	183.29
770.239	27.65
770.421	91.13
770.604	130.05
770.787	72.7
770.97	52.22
771.152	11.26
771.335	109.57
771.518	1.02
771.7	50.18
771.883	162.81
772.066	7.17
772.248	-27.65
772.431	80.89
772.613	93.18
772.796	13.31
772.978	117.76
773.161	119.81
773.343	-11.26
773.526	21.5
773.708	-91.13
773.891	-99.33
774.073	-17.41
774.256	7.17
774.438	146.43
774.621	-17.41
774.803	70.65
774.985	37.89
775.168	99.33
775.35	48.13
775.532	87.04
775.715	19.46
775.897	39.94
776.079	5.12
776.261	48.13
776.444	56.32
776.626	5.12
776.808	56.32
776.99	-11.26
777.173	29.7
777.355	27.65
777.537	5.12
777.719	101.37
777.901	29.7
778.083	-11.26
778.265	-68.61
778.447	54.27
778.629	-46.08
778.811	105.47
778.993	99.33
779.175	103.42
779.357	89.09
779.539	-17.41
779.721	-54.27
779.903	101.37
780.085	-46.08
780.267	56.32
780.449	89.09
780.631	19.46
780.812	154.62
780.994	60.42
781.176	-3.07
781.358	9.22
781.54	48.13
781.721	132.09
781.903	148.48
782.085	72.7
782.267	74.75
782.448	-48.13
782.63	-97.28
782.812	62.46
782.993	33.79
783.175	78.85
783.357	19.46
783.538	35.84
783.72	19.46
783.901	23.55
784.083	41.98
784.264	39.94
784.446	-68.61
784.627	15.36
784.809	146.43
784.99	-21.5
785.172	87.04
785.353	9.22
785.535	3.07
785.716	19.46
785.897	1.02
786.079	25.6
786.26	46.08
786.441	-21.5
786.623	-113.66
786.804	41.98
786.985	-54.27
787.167	44.03
787.348	13.31
787.529	35.84
787.71	103.42
787.891	19.46
788.073	-76.8
788.254	-56.32
788.435	103.42
788.616	31.74
788.797	-41.98
788.978	-33.79
789.159	-33.79
789.34	105.47
789.522	33.79
789.703	46.08
789.884	64.51
790.065	33.79
790.246	156.67
790.427	21.5
790.607	128
790.788	91.13
790.969	9.22
791.15	66.56
791.331	-41.98
791.512	-33.79
791.693	-23.55
791.874	-64.51
792.054	148.48
792.235	138.24
792.416	-132.09
792.597	9.22
792.778	3.07
792.958	93.18
793.139	35.84
793.32	-25.6
793.5	-52.22
793.681	142.33
793.862	62.46
794.042	13.31
794.223	-74.75
794.404	-7.17
794.584	-60.42
794.765	-58.37
794.945	-21.5
795.126	11.26
795.306	99.33
795.487	-89.09
795.667	19.46
795.848	13.31
796.028	-9.22
796.209	7.17
796.389	39.94
796.57	-33.79
796.75	-62.46
796.93	23.55
797.111	-41.98
797.291	-9.22
797.471	70.65
797.652	23.55
797.832	-33.79
798.012	-35.84
798.192	-13.31
798.373	-82.94
798.553	-44.03
798.733	82.94
798.913	-27.65
799.093	35.84
799.274	-5.12
799.454	25.6
799.634	121.85
799.814	60.42
799.994	84.99
800.174	-7.17
800.354	7.17
800.534	-136.19
800.714	91.13
800.894	-115.71
801.074	-101.37
801.254	-82.94
801.434	66.56
801.614	-3.07
801.794	-78.85
801.974	1928.16
802.154	33.79
802.334	17.41
802.514	-56.32
802.693	-11.26
802.873	-5.12
803.053	95.23
803.233	46.08
803.413	50.18
803.592	-50.18
803.772	-37.89
803.952	-3.07
804.131	-64.51
804.311	64.51
804.491	60.42
804.67	-103.42
804.85	-74.75
805.03	52.22
805.209	37.89
805.389	-60.42
805.568	-9.22
805.748	27.65
805.928	-35.84
806.107	50.18
806.287	62.46
806.466	115.71
806.646	-3.07
806.825	-5.12
807.004	-23.55
807.184	48.13
807.363	66.56
807.543	23.55
807.722	-44.03
807.901	128
808.081	1.02
808.26	-150.53
808.439	15.36
808.619	-5.12
808.798	-109.57
808.977	13.31
809.156	74.75
809.336	25.6
809.515	19.46
809.694	-103.42
809.873	-7.17
810.052	54.27
810.231	66.56
810.411	84.99
810.59	156.67
810.769	-29.7
810.948	31.74
811.127	-93.18
811.306	-7.17
811.485	-64.51
811.664	109.57
811.843	-29.7
812.022	-17.41
812.201	-35.84
812.38	50.18
812.559	-5.12
812.737	58.37
812.916	-158.72
813.095	-48.13
813.274	60.42
813.453	54.27
813.632	50.18
813.811	80.89
813.989	-111.61
814.168	27.65
814.347	-33.79
814.526	-15.36
814.704	97.28
814.883	173.05
815.062	-150.53
815.24	-19.46
815.419	-33.79
815.598	21.5
815.776	-138.24
815.955	25.6
816.133	-132.09
816.312	-21.5
816.49	-27.65
816.669	46.08
816.847	-1.02
817.026	35.84
817.204	-72.7
817.383	5.12
817.561	-21.5
817.74	7.17
817.918	39.94
818.097	-87.04
818.275	-76.8
818.453	3.07
818.632	46.08
818.81	1.02
818.988	39.94
819.167	-27.65
819.345	-44.03
819.523	-160.77
819.701	31.74
819.879	82.94
820.058	21.5
820.236	48.13
820.414	-1.02
820.592	-46.08
820.77	-39.94
820.948	-29.7
821.127	-19.46
821.305	-3.07
821.483	-68.61
821.661	52.22
821.839	58.37
822.017	-9.22
822.195	-58.37
822.373	78.85
822.551	52.22
822.729	48.13
822.907	25.6
823.085	-7.17
823.262	-41.98
823.44	17.41
823.618	-84.99
823.796	58.37
823.974	15.36
824.152	-21.5
824.329	-27.65
824.507	33.79
824.685	93.18
824.863	-1.02
825.04	-35.84
825.218	70.65
825.396	44.03
825.574	-37.89
825.751	5.12
825.929	54.27
826.107	-29.7
826.284	-56.32
826.462	-23.55
826.639	-68.61
826.817	-41.98
826.994	-31.74
827.172	-89.09
827.349	128
827.527	60.42
827.704	-3.07
827.882	48.13
828.059	-19.46
828.237	-7.17
828.414	54.27
828.591	-158.72
828.769	-78.85
828.946	-31.74
829.124	56.32
829.301	62.46
829.478	-74.75
829.655	64.51
829.833	70.65
830.01	-111.61
830.187	66.56
830.364	-35.84
830.542	15.36
830.719	74.75
830.896	72.7
831.073	48.13
831.25	31.74
831.427	31.74
831.604	-37.89
831.782	-3.07
831.959	-7.17
832.136	5.12
832.313	-54.27
832.49	-48.13
832.667	-41.98
832.844	-93.18
833.021	35.84
833.198	5.12
833.374	-25.6
833.551	58.37
833.728	-62.46
833.905	72.7
834.082	-87.04
834.259	23.55
834.436	76.8
834.612	7.17
834.789	74.75
834.966	-64.51
835.143	46.08
835.319	-152.57
835.496	5.12
835.673	17.41
835.85	37.89
836.026	31.74
836.203	37.89
836.38	-48.13
836.556	-17.41
836.733	27.65
836.909	41.98
837.086	15.36
837.262	-150.53
837.439	17.41
837.616	-56.32
837.792	-27.65
837.968	-17.41
838.145	-89.09
838.321	19.46
838.498	46.08
838.674	-9.22
838.851	-19.46
839.027	-70.65
839.203	41.98
839.38	3.07
839.556	-62.46
839.732	78.85
839.909	56.32
840.085	50.18
840.261	-101.37
840.437	-31.74
840.614	-95.23
840.79	9.22
840.966	-50.18
841.142	35.84
841.318	-9.22
841.494	29.7
841.671	19.46
841.847	-66.56
842.023	19.46
842.199	-50.18
842.375	140.29
842.551	-91.13
842.727	-91.13
842.903	113.66
843.079	-125.95
843.255	101.37
843.431	-60.42
843.607	33.79
843.783	-164.86
843.959	58.37
844.134	-97.28
844.31	76.8
844.486	-7.17
844.662	-111.61
844.838	17.41
845.013	82.94
845.189	39.94
845.365	50.18
845.541	-7.17
845.716	29.7
845.892	60.42
846.068	-62.46
846.244	-115.71
846.419	-21.5
846.595	-119.81
846.77	-84.99
846.946	-7.17
847.122	-76.8
847.297	41.98
847.473	117.76
847.648	-60.42
847.824	-52.22
847.999	-140.29
848.175	-5.12
848.35	52.22
848.526	56.32
848.701	48.13
848.876	54.27
849.052	-27.65
849.227	35.84
849.403	31.74
849.578	-58.37
849.753	-68.61
849.929	50.18
850.104	-29.7
850.279	-3.07
850.454	62.46
850.63	21.5
850.805	64.51
850.98	-5.12
851.155	-70.65
851.33	17.41
851.505	-138.24
851.681	107.52
851.856	-7.17
852.031	64.51
852.206	13.31
852.381	-101.37
852.556	-27.65
852.731	33.79
852.906	17.41
853.081	1.02
853.256	117.76
853.431	-41.98
853.606	-46.08
853.781	-113.66
853.956	-175.1
854.131	3.07
854.305	-113.66
854.48	-48.13
854.655	-80.89
854.83	-41.98
855.005	-15.36
855.18	68.61
855.354	5.12
855.529	15.36
855.704	-68.61
855.879	11.26
856.053	-58.37
856.228	-58.37
856.403	-101.37
856.577	39.94
856.752	-173.05
856.926	82.94
857.101	-39.94
857.276	-78.85
857.45	7.17
857.625	37.89
857.799	27.65
857.974	-9.22
858.148	-115.71
858.323	-19.46
858.497	-70.65
858.672	1.02
858.846	-99.33
859.02	-9.22
859.195	-68.61
859.369	-21.5
859.543	-15.36
859.718	-39.94
859.892	13.31
860.066	33.79
860.241	-37.89
860.415	-109.57
860.589	-50.18
860.763	-23.55
860.938	-9.22
861.112	-29.7
861.286	19.46
861.46	-15.36
861.634	-99.33
861.808	95.23
861.982	3.07
862.157	-87.04
862.331	-41.98
862.505	-99.33
862.679	-87.04
862.853	13.31
863.027	-1.02
863.201	44.03
863.375	-68.61
863.549	17.41
863.722	3.07
863.896	52.22
864.07	-54.27
864.244	35.84
864.418	25.6
864.592	35.84
864.766	-35.84
864.939	-115.71
865.113	-52.22
865.287	50.18
865.461	-87.04
865.634	-44.03
865.808	-82.94
865.982	-21.5
866.156	-125.95
866.329	-121.85
866.503	1.02
866.676	107.52
866.85	27.65
867.024	-62.46
867.197	29.7
867.371	41.98
867.544	-1.02
867.718	-101.37
867.891	62.46
868.065	-72.7
868.238	-64.51
868.412	95.23
868.585	-31.74
868.759	-62.46
868.932	-105.47
869.105	-121.85
869.279	-37.89
869.452	-13.31
869.625	37.89
869.799	15.36
869.972	-27.65
870.145	-80.89
870.319	82.94
870.492	-54.27
870.665	-3.07
870.838	-62.46
871.011	-82.94
871.185	-23.55
871.358	-101.37
871.531	33.79
871.704	-41.98
871.877	3.07
872.05	-11.26
872.223	-72.7
872.396	50.18
872.569	3.07
872.742	-62.46
872.915	-25.6
873.088	50.18
873.261	-70.65
873.434	-3.07
873.607	29.7
873.78	44.03
873.953	-162.81
874.126	-5.12
874.299	-29.7
874.471	-7.17
874.644	-27.65
874.817	39.94
874.99	117.76
875.163	-62.46
875.335	-3.07
875.508	-15.36
875.681	33.79
875.853	-25.6
876.026	13.31
876.199	50.18
876.371	-7.17
876.544	23.55
876.717	21.5
876.889	-50.18
877.062	93.18
877.234	-56.32
877.407	-76.8
877.579	-3.07
877.752	-9.22
877.924	23.55
878.097	3.07
878.269	17.41
878.442	21.5
878.614	-91.13
878.786	-52.22
878.959	7.17
879.131	50.18
879.303	-138.24
879.476	-3.07
879.648	31.74
879.82	-3.07
879.993	-87.04
880.165	-37.89
880.337	-74.75
880.509	-13.31
880.681	-91.13
880.854	-87.04
881.026	9.22
881.198	150.53
881.37	-52.22
881.542	-52.22
881.714	-46.08
881.886	-103.42
882.058	7.17
882.23	-54.27
882.402	-70.65
882.574	13.31
882.746	37.89
882.918	80.89
883.09	-15.36
883.262	-64.51
883.434	41.98
883.606	-87.04
883.778	-72.7
883.95	80.89
884.122	-82.94
884.293	31.74
884.465	-33.79
884.637	89.09
884.809	-58.37
884.98	17.41
885.152	1.02
885.324	25.6
885.496	-84.99
885.667	-27.65
885.839	-48.13
886.011	70.65
886.182	13.31
886.354	50.18
886.525	39.94
886.697	-15.36
886.869	-72.7
887.04	27.65
887.212	97.28
887.383	130.05
887.555	17.41
887.726	-44.03
887.897	-15.36
888.069	-35.84
888.24	23.55
888.412	-7.17
888.583	-1.02
888.754	-29.7
888.926	-70.65
889.097	-97.28
889.268	-109.57
889.44	-41.98
889.611	-111.61
889.782	-48.13
889.953	-41.98
890.125	-17.41
890.296	-21.5
890.467	-58.37
890.638	-101.37
890.809	93.18
890.98	-87.04
891.151	-3.07
891.323	136.19
891.494	3.07
891.665	-5.12
891.836	-54.27
892.007	-56.32
892.178	-9.22
892.349	-3.07
892.52	-15.36
892.691	-23.55
892.862	-138.24
893.032	-93.18
893.203	-89.09
893.374	23.55
893.545	15.36
893.716	-93.18
893.887	56.32
894.057	-44.03
894.228	3.07
894.399	-74.75
894.57	56.32
894.74	-3.07
894.911	-93.18
895.082	-35.84
895.253	-113.66
895.423	15.36
895.594	31.74
895.764	64.51
895.935	-31.74
896.106	27.65
896.276	-5.12
896.447	-13.31
896.617	-132.09
896.788	-91.13
896.958	-107.52
897.129	-39.94
897.299	-31.74
897.47	60.42
897.64	80.89
897.81	-74.75
897.981	35.84
898.151	-80.89
898.322	27.65
898.492	44.03
898.662	-78.85
898.832	-17.41
899.003	-15.36
899.173	52.22
899.343	-119.81
899.513	-91.13
