Data from USB4F104151__269__11-20-40-831.txt Node

Date: Wed Feb 26 11:20:40 EST 2025
User: louis
Spectrometer: USB4F10415
Trigger mode: 4
Integration Time (sec): 1.000000E-1
Scans to average: 1
Electric dark correction enabled: true
Nonlinearity correction enabled: false
Boxcar width: 0
XAxis mode: Wavelengths
Number of Pixels in Spectrum: 3648
>>>>>Begin Spectral Data<<<<<
178.204	-438.61
178.424	-438.61
178.644	-438.61
178.864	-426.32
179.084	-362.83
179.304	16.04
179.524	-6.49
179.744	1.71
179.964	20.14
180.184	65.19
180.404	9.9
180.624	-14.68
180.844	-69.97
181.064	-76.12
181.283	34.47
181.503	-51.54
181.723	71.34
181.943	-131.41
182.163	143.02
182.383	-51.54
182.602	52.91
182.822	186.02
183.042	34.47
183.262	-16.73
183.482	28.33
183.701	89.77
183.921	22.19
184.141	-33.11
184.361	-0.34
184.58	44.71
184.8	22.19
185.02	-29.01
185.239	104.11
185.459	11.95
185.679	175.78
185.898	-98.64
186.118	34.47
186.338	-47.44
186.557	130.73
186.777	-35.16
186.997	3.75
187.216	40.62
187.436	220.84
187.655	73.39
187.875	108.2
188.095	73.39
188.314	140.97
188.534	91.82
188.753	-49.49
188.973	100.01
189.192	231.08
189.412	-0.34
189.631	91.82
189.851	65.19
190.07	153.26
190.29	-39.25
190.509	-33.11
190.729	106.15
190.948	151.21
191.168	276.13
191.387	42.67
191.607	59.05
191.826	91.82
192.045	-24.92
192.265	52.91
192.484	93.87
192.704	5.8
192.923	-8.53
193.142	104.11
193.362	59.05
193.581	114.34
193.8	44.71
194.02	124.58
194.239	13.99
194.458	18.09
194.678	-20.82
194.897	1.71
195.116	46.76
195.335	77.48
195.555	28.33
195.774	30.38
195.993	65.19
196.212	42.67
196.432	-43.35
196.651	9.9
196.87	22.19
197.089	243.37
197.308	108.2
197.528	75.43
197.747	-100.69
197.966	18.09
198.185	128.68
198.404	52.91
198.623	159.4
198.842	145.06
199.062	112.3
199.281	106.15
199.5	36.52
199.719	97.96
199.938	61.1
200.157	114.34
200.376	110.25
200.595	87.72
200.814	52.91
201.033	-41.3
201.252	149.16
201.471	65.19
201.69	50.86
201.909	30.38
202.128	87.72
202.347	59.05
202.566	-57.68
202.785	-33.11
203.004	-20.82
203.223	183.98
203.442	24.23
203.661	-96.6
203.879	97.96
204.098	102.06
204.317	-8.53
204.536	59.05
204.755	50.86
204.974	50.86
205.193	20.14
205.411	79.53
205.63	155.3
205.849	136.87
206.068	75.43
206.287	-51.54
206.505	50.86
206.724	26.28
206.943	-59.73
207.162	52.91
207.381	44.71
207.599	-35.16
207.818	136.87
208.037	13.99
208.255	30.38
208.474	91.82
208.693	67.24
208.911	-55.64
209.13	5.8
209.349	63.15
209.567	42.67
209.786	63.15
210.005	155.3
210.223	-12.63
210.442	-94.55
210.661	77.48
210.879	26.28
211.098	36.52
211.316	-29.01
211.535	128.68
211.753	79.53
211.972	13.99
212.191	18.09
212.409	32.43
212.628	124.58
212.846	-39.25
213.065	75.43
213.283	95.91
213.502	-20.82
213.72	13.99
213.938	75.43
214.157	-6.49
214.375	61.1
214.594	46.76
214.812	20.14
215.031	30.38
215.249	-20.82
215.467	97.96
215.686	18.09
215.904	20.14
216.122	87.72
216.341	63.15
216.559	75.43
216.778	73.39
216.996	67.24
217.214	32.43
217.432	-24.92
217.651	-6.49
217.869	50.86
218.087	63.15
218.306	5.8
218.524	46.76
218.742	16.04
218.96	130.73
219.179	-12.63
219.397	59.05
219.615	196.26
219.833	75.43
220.051	-127.32
220.27	132.78
220.488	20.14
220.706	52.91
220.924	1.71
221.142	-37.2
221.36	-41.3
221.578	-18.77
221.796	54.95
222.015	20.14
222.233	36.52
222.451	134.82
222.669	-22.87
222.887	75.43
223.105	30.38
223.323	-37.2
223.541	59.05
223.759	5.8
223.977	93.87
224.195	194.22
224.413	114.34
224.631	59.05
224.849	50.86
225.067	261.8
225.285	28.33
225.503	42.67
225.721	-96.6
225.939	132.78
226.157	44.71
226.375	255.65
226.592	-29.01
226.81	7.85
227.028	91.82
227.246	87.72
227.464	100.01
227.682	100.01
227.9	112.3
228.117	116.39
228.335	50.86
228.553	77.48
228.771	-55.64
228.989	32.43
229.206	130.73
229.424	-88.4
229.642	9.9
229.86	13.99
230.077	118.44
230.295	3.75
230.513	149.16
230.731	65.19
230.948	114.34
231.166	106.15
231.384	104.11
231.601	-41.3
231.819	183.98
232.037	-78.16
232.254	26.28
232.472	50.86
232.689	16.04
232.907	93.87
233.125	-0.34
233.342	-16.73
233.56	65.19
233.777	-2.39
233.995	7.85
234.213	100.01
234.43	122.54
234.648	42.67
234.865	48.81
235.083	73.39
235.3	16.04
235.518	-12.63
235.735	136.87
235.953	89.77
236.17	116.39
236.388	48.81
236.605	36.52
236.822	95.91
237.04	112.3
237.257	89.77
237.475	5.8
237.692	38.57
237.909	120.49
238.127	13.99
238.344	67.24
238.562	65.19
238.779	-59.73
238.996	-72.02
239.214	36.52
239.431	30.38
239.648	-18.77
239.865	52.91
240.083	89.77
240.3	59.05
240.517	42.67
240.735	9.9
240.952	179.88
241.169	30.38
241.386	-2.39
241.603	85.67
241.821	-65.88
242.038	50.86
242.255	128.68
242.472	-51.54
242.689	138.92
242.907	38.57
243.124	-39.25
243.341	-20.82
243.558	-39.25
243.775	-119.12
243.992	-41.3
244.209	57
244.426	153.26
244.643	34.47
244.86	-67.92
245.078	126.63
245.295	18.09
245.512	40.62
245.729	3.75
245.946	52.91
246.163	36.52
246.38	-55.64
246.597	65.19
246.814	26.28
247.031	165.54
247.248	63.15
247.464	177.83
247.681	136.87
247.898	87.72
248.115	65.19
248.332	1.71
248.549	69.29
248.766	229.03
248.983	91.82
249.2	50.86
249.417	87.72
249.633	48.81
249.85	155.3
250.067	22.19
250.284	20.14
250.501	75.43
250.717	120.49
250.934	-110.93
251.151	42.67
251.368	116.39
251.585	52.91
251.801	1.71
252.018	-8.53
252.235	173.74
252.451	-51.54
252.668	-31.06
252.885	87.72
253.102	-2.39
253.318	-57.68
253.535	16.04
253.752	95.91
253.968	-22.87
254.185	-78.16
254.401	46.76
254.618	118.44
254.835	-12.63
255.051	97.96
255.268	69.29
255.484	34.47
255.701	7.85
255.917	28.33
256.134	-12.63
256.351	89.77
256.567	38.57
256.784	-29.01
257	-8.53
257.217	116.39
257.433	79.53
257.65	116.39
257.866	67.24
258.082	-8.53
258.299	24.23
258.515	52.91
258.732	-59.73
258.948	85.67
259.165	71.34
259.381	-84.31
259.597	145.06
259.814	71.34
260.03	5.8
260.246	-61.78
260.463	77.48
260.679	143.02
260.895	63.15
261.112	85.67
261.328	26.28
261.544	-4.44
261.761	114.34
261.977	16.04
262.193	-37.2
262.409	81.58
262.626	40.62
262.842	18.09
263.058	-76.12
263.274	161.45
263.49	106.15
263.707	71.34
263.923	85.67
264.139	-69.97
264.355	30.38
264.571	188.07
264.787	95.91
265.004	155.3
265.22	5.8
265.436	-0.34
265.652	20.14
265.868	28.33
266.084	-12.63
266.3	108.2
266.516	-49.49
266.732	97.96
266.948	30.38
267.164	-6.49
267.38	52.91
267.596	7.85
267.812	165.54
268.028	67.24
268.244	-49.49
268.46	179.88
268.676	40.62
268.892	67.24
269.108	-86.36
269.324	18.09
269.54	-8.53
269.756	112.3
269.972	-20.82
270.188	-20.82
270.403	-39.25
270.619	46.76
270.835	153.26
271.051	63.15
271.267	-37.2
271.483	57
271.698	106.15
271.914	73.39
272.13	38.57
272.346	-31.06
272.562	32.43
272.777	110.25
272.993	-2.39
273.209	16.04
273.425	91.82
273.64	-35.16
273.856	97.96
274.072	-10.58
274.287	-100.69
274.503	93.87
274.719	13.99
274.934	-14.68
275.15	-74.07
275.366	-8.53
275.581	-37.2
275.797	69.29
276.012	26.28
276.228	34.47
276.444	46.76
276.659	93.87
276.875	-24.92
277.09	1.71
277.306	50.86
277.521	57
277.737	79.53
277.952	165.54
278.168	-26.96
278.383	13.99
278.599	16.04
278.814	46.76
279.03	44.71
279.245	95.91
279.461	-18.77
279.676	153.26
279.892	-65.88
280.107	-59.73
280.322	-12.63
280.538	36.52
280.753	-35.16
280.969	110.25
281.184	67.24
281.399	100.01
281.615	7.85
281.83	75.43
282.045	42.67
282.26	30.38
282.476	42.67
282.691	65.19
282.906	-2.39
283.122	87.72
283.337	13.99
283.552	67.24
283.767	-45.4
283.983	57
284.198	40.62
284.413	61.1
284.628	-41.3
284.843	24.23
285.058	71.34
285.274	16.04
285.489	-84.31
285.704	124.58
285.919	-0.34
286.134	-26.96
286.349	7.85
286.564	11.95
286.779	151.21
286.995	40.62
287.21	-41.3
287.425	32.43
287.64	18.09
287.855	11.95
288.07	7.85
288.285	63.15
288.5	71.34
288.715	73.39
288.93	22.19
289.145	-22.87
289.36	120.49
289.575	-6.49
289.79	114.34
290.004	-20.82
290.219	110.25
290.434	-82.26
290.649	-16.73
290.864	24.23
291.079	42.67
291.294	179.88
291.509	87.72
291.724	-10.58
291.938	83.63
292.153	69.29
292.368	-35.16
292.583	-26.96
292.798	100.01
293.012	42.67
293.227	30.38
293.442	1.71
293.657	106.15
293.871	128.68
294.086	132.78
294.301	155.3
294.516	169.64
294.73	67.24
294.945	-8.53
295.16	11.95
295.374	67.24
295.589	157.35
295.804	-61.78
296.018	52.91
296.233	120.49
296.447	63.15
296.662	-45.4
296.877	151.21
297.091	79.53
297.306	-4.44
297.52	-61.78
297.735	46.76
297.949	40.62
298.164	-33.11
298.378	26.28
298.593	5.8
298.807	18.09
299.022	-47.44
299.236	126.63
299.451	83.63
299.665	38.57
299.88	69.29
300.094	126.63
300.309	-0.34
300.523	28.33
300.737	-18.77
300.952	61.1
301.166	61.1
301.381	-78.16
301.595	18.09
301.809	7.85
302.024	28.33
302.238	-18.77
302.452	106.15
302.667	91.82
302.881	106.15
303.095	40.62
303.309	34.47
303.524	-76.12
303.738	-24.92
303.952	30.38
304.166	44.71
304.381	-35.16
304.595	169.64
304.809	95.91
305.023	20.14
305.237	13.99
305.452	-12.63
305.666	75.43
305.88	30.38
306.094	59.05
306.308	85.67
306.522	106.15
306.736	65.19
306.95	106.15
307.164	50.86
307.379	-59.73
307.593	95.91
307.807	157.35
308.021	100.01
308.235	85.67
308.449	-26.96
308.663	24.23
308.877	169.64
309.091	34.47
309.305	32.43
309.519	-108.88
309.733	120.49
309.947	-76.12
310.161	9.9
310.374	83.63
310.588	128.68
310.802	-18.77
311.016	-0.34
311.23	40.62
311.444	24.23
311.658	32.43
311.872	30.38
312.085	102.06
312.299	79.53
312.513	100.01
312.727	13.99
312.941	-10.58
313.154	34.47
313.368	-24.92
313.582	81.58
313.796	106.15
314.009	9.9
314.223	149.16
314.437	97.96
314.651	102.06
314.864	-43.35
315.078	44.71
315.292	-72.02
315.505	-47.44
315.719	22.19
315.933	24.23
316.146	-0.34
316.36	30.38
316.573	116.39
316.787	71.34
317.001	5.8
317.214	24.23
317.428	30.38
317.641	-84.31
317.855	-43.35
318.068	106.15
318.282	71.34
318.495	163.5
318.709	32.43
318.922	38.57
319.136	157.35
319.349	93.87
319.563	-24.92
319.776	100.01
319.99	-53.59
320.203	128.68
320.417	-24.92
320.63	42.67
320.843	134.82
321.057	69.29
321.27	7.85
321.483	22.19
321.697	159.4
321.91	40.62
322.124	79.53
322.337	102.06
322.55	28.33
322.763	118.44
322.977	18.09
323.19	34.47
323.403	11.95
323.617	52.91
323.83	128.68
324.043	-43.35
324.256	118.44
324.469	-78.16
324.683	136.87
324.896	34.47
325.109	95.91
325.322	-37.2
325.535	81.58
325.748	106.15
325.962	75.43
326.175	50.86
326.388	140.97
326.601	122.54
326.814	40.62
327.027	130.73
327.24	138.92
327.453	-67.92
327.666	114.34
327.879	206.5
328.092	20.14
328.305	79.53
328.518	22.19
328.731	-10.58
328.944	38.57
329.157	153.26
329.37	26.28
329.583	202.41
329.796	112.3
330.009	-67.92
330.222	173.74
330.435	104.11
330.648	26.28
330.861	3.75
331.073	42.67
331.286	104.11
331.499	22.19
331.712	-51.54
331.925	79.53
332.138	-14.68
332.35	140.97
332.563	-94.55
332.776	147.11
332.989	5.8
333.202	-24.92
333.414	13.99
333.627	-26.96
333.84	-22.87
334.053	42.67
334.265	61.1
334.478	13.99
334.691	7.85
334.903	22.19
335.116	30.38
335.329	28.33
335.541	104.11
335.754	237.22
335.966	-39.25
336.179	-6.49
336.392	34.47
336.604	65.19
336.817	79.53
337.029	112.3
337.242	67.24
337.454	46.76
337.667	38.57
337.88	149.16
338.092	104.11
338.305	153.26
338.517	-0.34
338.729	67.24
338.942	145.06
339.154	-20.82
339.367	-26.96
339.579	116.39
339.792	3.75
340.004	28.33
340.217	-29.01
340.429	50.86
340.641	-14.68
340.854	-53.59
341.066	24.23
341.278	190.12
341.491	91.82
341.703	59.05
341.915	-33.11
342.128	79.53
342.34	18.09
342.552	-59.73
342.764	61.1
342.977	9.9
343.189	67.24
343.401	67.24
343.613	-110.93
343.826	38.57
344.038	-131.41
344.25	34.47
344.462	83.63
344.674	63.15
344.886	-106.84
345.099	106.15
345.311	100.01
345.523	1.71
345.735	-86.36
345.947	28.33
346.159	24.23
346.371	-22.87
346.583	57
346.795	116.39
347.007	54.95
347.219	46.76
347.431	-18.77
347.643	132.78
347.855	52.91
348.067	120.49
348.279	-74.07
348.491	38.57
348.703	69.29
348.915	7.85
349.127	-63.83
349.339	71.34
349.551	-4.44
349.763	145.06
349.975	-33.11
350.187	202.41
350.399	122.54
350.61	118.44
350.822	22.19
351.034	79.53
351.246	20.14
351.458	36.52
351.669	116.39
351.881	79.53
352.093	145.06
352.305	46.76
352.517	67.24
352.728	112.3
352.94	87.72
353.152	124.58
353.363	-47.44
353.575	63.15
353.787	97.96
353.999	13.99
354.21	126.63
354.422	-72.02
354.633	-14.68
354.845	-8.53
355.057	61.1
355.268	34.47
355.48	59.05
355.692	-26.96
355.903	71.34
356.115	-35.16
356.326	-29.01
356.538	126.63
356.749	1.71
356.961	50.86
357.172	42.67
357.384	-0.34
357.595	194.22
357.807	28.33
358.018	34.47
358.23	54.95
358.441	147.11
358.653	3.75
358.864	3.75
359.075	34.47
359.287	-2.39
359.498	30.38
359.709	81.58
359.921	9.9
360.132	63.15
360.344	36.52
360.555	36.52
360.766	85.67
360.977	32.43
361.189	167.59
361.4	16.04
361.611	73.39
361.823	163.5
362.034	126.63
362.245	-108.88
362.456	71.34
362.667	7.85
362.879	-26.96
363.09	87.72
363.301	50.86
363.512	85.67
363.723	-10.58
363.935	36.52
364.146	130.73
364.357	48.81
364.568	38.57
364.779	-31.06
364.99	177.83
365.201	9.9
365.412	7.85
365.623	-65.88
365.834	69.29
366.045	7.85
366.256	87.72
366.467	85.67
366.678	-14.68
366.889	61.1
367.1	-20.82
367.311	93.87
367.522	16.04
367.733	57
367.944	108.2
368.155	26.28
368.366	89.77
368.577	87.72
368.788	104.11
368.999	-74.07
369.209	59.05
369.42	183.98
369.631	239.27
369.842	108.2
370.053	-2.39
370.264	167.59
370.474	-4.44
370.685	13.99
370.896	7.85
371.107	114.34
371.317	50.86
371.528	13.99
371.739	91.82
371.95	69.29
372.16	177.83
372.371	-55.64
372.582	65.19
372.792	65.19
373.003	34.47
373.214	34.47
373.424	54.95
373.635	-49.49
373.846	145.06
374.056	54.95
374.267	44.71
374.477	118.44
374.688	30.38
374.898	126.63
375.109	112.3
375.319	30.38
375.53	-18.77
375.74	102.06
375.951	1.71
376.161	30.38
376.372	57
376.582	-26.96
376.793	7.85
377.003	-45.4
377.214	-100.69
377.424	104.11
377.635	40.62
377.845	11.95
378.055	128.68
378.266	-61.78
378.476	22.19
378.686	16.04
378.897	75.43
379.107	110.25
379.317	93.87
379.528	-2.39
379.738	91.82
379.948	-59.73
380.158	165.54
380.369	91.82
380.579	91.82
380.789	71.34
380.999	89.77
381.21	138.92
381.42	247.46
381.63	1.71
381.84	97.96
382.05	122.54
382.261	136.87
382.471	206.5
382.681	-18.77
382.891	134.82
383.101	75.43
383.311	-20.82
383.521	-6.49
383.731	91.82
383.941	149.16
384.151	18.09
384.361	97.96
384.571	71.34
384.781	91.82
384.991	220.84
385.201	91.82
385.411	140.97
385.621	46.76
385.831	50.86
386.041	-16.73
386.251	42.67
386.461	124.58
386.671	61.1
386.881	11.95
387.091	18.09
387.301	181.93
387.511	75.43
387.72	104.11
387.93	138.92
388.14	75.43
388.35	52.91
388.56	77.48
388.769	112.3
388.979	85.67
389.189	-47.44
389.399	20.14
389.609	79.53
389.818	190.12
390.028	97.96
390.238	61.1
390.447	-18.77
390.657	114.34
390.867	-6.49
391.076	-80.21
391.286	26.28
391.496	81.58
391.705	38.57
391.915	145.06
392.125	186.02
392.334	16.04
392.544	157.35
392.753	36.52
392.963	30.38
393.172	-33.11
393.382	-49.49
393.591	85.67
393.801	13.99
394.01	132.78
394.22	118.44
394.429	-31.06
394.639	38.57
394.848	61.1
395.058	114.34
395.267	91.82
395.477	73.39
395.686	34.47
395.895	157.35
396.105	151.21
396.314	42.67
396.524	1.71
396.733	13.99
396.942	192.17
397.152	32.43
397.361	104.11
397.57	63.15
397.78	61.1
397.989	34.47
398.198	181.93
398.407	69.29
398.617	93.87
398.826	69.29
399.035	-29.01
399.244	100.01
399.453	59.05
399.663	110.25
399.872	124.58
400.081	18.09
400.29	89.77
400.499	-16.73
400.708	54.95
400.917	30.38
401.127	65.19
401.336	30.38
401.545	120.49
401.754	169.64
401.963	110.25
402.172	50.86
402.381	-22.87
402.59	20.14
402.799	44.71
403.008	120.49
403.217	5.8
403.426	106.15
403.635	-37.2
403.844	77.48
404.053	-16.73
404.262	9.9
404.471	192.17
404.68	77.48
404.888	75.43
405.097	116.39
405.306	61.1
405.515	34.47
405.724	57
405.933	110.25
406.142	11.95
406.35	69.29
406.559	-31.06
406.768	-10.58
406.977	136.87
407.185	65.19
407.394	69.29
407.603	-24.92
407.812	18.09
408.02	81.58
408.229	54.95
408.438	13.99
408.646	24.23
408.855	61.1
409.064	52.91
409.272	-2.39
409.481	169.64
409.69	-18.77
409.898	-41.3
410.107	-8.53
410.315	104.11
410.524	-67.92
410.733	114.34
410.941	1.71
411.15	136.87
411.358	106.15
411.567	124.58
411.775	9.9
411.984	112.3
412.192	13.99
412.401	-31.06
412.609	140.97
412.818	61.1
413.026	52.91
413.234	42.67
413.443	128.68
413.651	50.86
413.86	28.33
414.068	93.87
414.276	145.06
414.485	42.67
414.693	171.69
414.901	265.89
415.11	136.87
415.318	61.1
415.526	44.71
415.734	104.11
415.943	20.14
416.151	122.54
416.359	26.28
416.567	77.48
416.776	114.34
416.984	32.43
417.192	208.55
417.4	38.57
417.608	34.47
417.817	3.75
418.025	112.3
418.233	186.02
418.441	-26.96
418.649	9.9
418.857	7.85
419.065	143.02
419.273	-67.92
419.481	110.25
419.689	22.19
419.897	13.99
420.105	-37.2
420.313	124.58
420.521	169.64
420.729	128.68
420.937	57
421.145	59.05
421.353	132.78
421.561	112.3
421.769	110.25
421.977	-0.34
422.185	97.96
422.393	128.68
422.601	59.05
422.809	42.67
423.017	71.34
423.224	13.99
423.432	89.77
423.64	40.62
423.848	155.3
424.056	-59.73
424.263	233.13
424.471	16.04
424.679	143.02
424.887	11.95
425.094	177.83
425.302	30.38
425.51	32.43
425.718	167.59
425.925	104.11
426.133	-72.02
426.341	206.5
426.548	30.38
426.756	67.24
426.964	89.77
427.171	104.11
427.379	30.38
427.586	24.23
427.794	100.01
428.001	114.34
428.209	108.2
428.417	200.36
428.624	143.02
428.832	100.01
429.039	106.15
429.247	61.1
429.454	126.63
429.662	251.56
429.869	28.33
430.076	159.4
430.284	177.83
430.491	194.22
430.699	145.06
430.906	253.61
431.114	100.01
431.321	134.82
431.528	95.91
431.736	32.43
431.943	157.35
432.15	143.02
432.358	231.08
432.565	239.27
432.772	1.71
432.979	216.74
433.187	71.34
433.394	177.83
433.601	77.48
433.808	214.7
434.016	235.18
434.223	206.5
434.43	169.64
434.637	192.17
434.844	226.98
435.052	202.41
435.259	269.99
435.466	272.04
435.673	145.06
435.88	157.35
436.087	300.71
436.294	306.85
436.501	267.94
436.708	249.51
436.915	224.94
437.122	347.81
437.329	274.09
437.537	317.09
437.743	286.37
437.95	419.49
438.157	292.52
438.364	339.62
438.571	392.87
438.778	351.91
438.985	456.36
439.192	444.07
439.399	366.25
439.606	446.12
439.813	384.68
440.02	587.43
440.227	548.51
440.433	542.37
440.64	450.21
440.847	409.25
441.054	495.27
441.261	716.45
441.467	566.95
441.674	591.52
441.881	591.52
442.088	558.75
442.294	714.4
442.501	718.5
442.708	704.16
442.914	698.02
443.121	759.46
443.328	837.28
443.534	841.37
443.741	743.07
443.948	716.45
444.154	882.33
444.361	1072.79
444.568	964.25
444.774	962.2
444.981	868
445.187	1146.52
445.394	972.44
445.6	956.06
445.807	1179.29
446.013	1023.64
446.22	1154.71
446.426	1271.45
446.633	1371.8
446.839	1445.52
447.046	1177.24
447.252	1595.03
447.459	1482.39
447.665	1537.68
447.871	1566.35
448.078	1719.95
448.284	1701.52
448.491	1765.01
448.697	1851.02
448.903	1904.27
449.11	1902.22
449.316	1930.89
449.522	2016.91
449.728	2174.6
449.935	2115.21
450.141	2197.13
450.347	2573.96
450.553	2375.3
450.76	2520.71
450.966	2518.66
451.172	2713.22
451.378	2860.67
451.584	2819.71
451.791	3051.13
451.997	3032.7
452.203	3118.72
452.409	3348.09
452.615	3378.81
452.821	3321.46
453.027	3348.09
453.233	3786.35
453.44	3731.06
453.646	3980.91
453.852	4134.51
454.058	4109.93
454.264	4277.87
454.47	4615.78
454.676	4677.22
454.882	5088.86
455.088	4918.88
455.294	5166.68
455.5	5443.16
455.705	5715.54
455.911	5725.78
456.117	6014.54
456.323	6090.32
456.529	5987.92
456.735	6698.56
456.941	6966.85
457.147	7130.69
457.352	7374.39
457.558	7464.5
457.764	7968.31
457.97	8191.53
458.176	8435.24
458.381	8742.44
458.587	9219.61
458.793	9373.21
458.999	9764.37
459.204	10728.97
459.41	11130.37
459.616	10890.76
459.821	11726.33
460.027	11953.65
460.233	12660.2
460.438	12795.37
460.644	13434.33
460.85	13493.72
461.055	13825.5
461.261	14626.25
461.466	14390.74
461.672	14630.35
461.878	16360.88
462.083	16215.48
462.289	16557.49
462.494	17208.74
462.7	17268.13
462.905	17511.84
463.111	19168.65
463.316	19965.31
463.522	20194.68
463.727	20843.88
463.932	21843.29
464.138	22433.11
464.343	23477.57
464.549	23541.06
464.754	24800.56
464.959	25777.44
465.165	26494.23
465.37	26189.08
465.575	26144.03
465.781	27757.83
465.986	28636.41
466.191	28206.33
466.397	28583.16
466.602	27911.42
466.807	29713.64
467.012	29914.34
467.218	30498.01
467.423	30756.05
467.628	31227.09
467.833	32965.81
468.038	32263.36
468.244	32095.42
468.449	33598.63
468.654	32892.08
468.859	32699.58
469.064	32916.66
469.269	32165.06
469.474	32347.33
469.679	33242.29
469.885	32531.64
470.09	32672.95
470.295	32816.31
470.5	32210.11
470.705	32378.04
470.91	31530.19
471.115	30960.85
471.32	31945.92
471.525	31505.61
471.73	30936.27
471.935	30500.06
472.139	29306.09
472.344	29904.1
472.549	29136.11
472.754	28732.66
472.959	28056.83
473.164	27409.67
473.369	26629.4
473.574	27567.37
473.778	26821.91
473.983	26440.98
474.188	26064.16
474.393	24806.7
474.598	24509.75
474.802	24108.35
475.007	23999.8
475.212	23983.42
475.417	22979.92
475.621	22543.7
475.826	22279.51
476.031	21859.68
476.235	21402.98
476.44	21642.59
476.645	20665.71
476.849	20632.94
477.054	20247.93
477.259	19871.1
477.463	19783.04
477.668	19111.3
477.872	19283.33
478.077	18476.43
478.282	18072.98
478.486	17999.26
478.691	17536.42
478.895	17532.32
479.1	17411.49
479.304	17225.12
479.509	16795.05
479.713	17077.67
479.918	16690.6
480.122	16039.35
480.326	16637.36
480.531	16350.64
480.735	16215.48
480.94	15846.84
481.144	16285.11
481.348	15467.97
481.553	15562.17
481.757	15117.76
481.961	15398.34
482.166	15343.04
482.37	15240.64
482.574	14822.86
482.778	14900.68
482.983	15076.8
483.187	14865.86
483.391	14552.52
483.595	14347.73
483.8	14065.11
484.004	14183.89
484.208	14192.08
484.412	14079.44
484.616	13827.54
484.821	13805.02
485.025	13266.4
485.229	13481.44
485.433	12957.16
485.637	12998.12
485.841	12828.13
486.045	12701.16
486.249	12688.87
486.453	12414.45
486.657	12207.6
486.861	12310
487.065	11800.05
487.269	11851.25
487.473	11245.06
487.677	11576.83
487.881	11394.56
488.085	10907.14
488.289	11044.35
488.493	10319.37
488.697	10577.42
488.901	10456.59
489.105	10167.82
489.309	10034.71
489.512	9901.59
489.716	9821.72
489.92	9502.23
490.124	9250.33
490.328	9315.87
490.531	8738.34
490.735	8988.19
490.939	8724.01
491.143	8590.89
491.346	8425
491.55	8425
491.754	8207.92
491.958	7992.88
492.161	7970.35
492.365	7724.6
492.569	7677.49
492.772	7527.99
492.976	7433.79
493.18	7149.12
493.383	7343.67
493.587	7233.08
493.79	7304.76
493.994	6915.65
494.197	6872.64
494.401	6782.53
494.605	6745.67
494.808	6704.71
495.012	6602.31
495.215	6600.26
495.419	6665.8
495.622	6430.28
495.825	6446.66
496.029	6465.1
496.232	6399.56
496.436	6362.7
496.639	6559.3
496.843	6424.14
497.046	6387.27
497.249	6448.71
497.453	6338.12
497.656	6413.9
497.859	6481.48
498.063	6463.05
498.266	6452.81
498.469	6372.94
498.673	6381.13
498.876	6477.38
499.079	6465.1
499.282	6524.49
499.485	6702.66
499.689	6645.32
499.892	6708.8
500.095	6512.2
500.298	6637.13
500.501	6542.92
500.705	6768.2
500.908	6760
501.111	6895.17
501.314	7108.16
501.517	6981.18
501.72	7034.43
501.923	7145.02
502.126	7259.71
502.329	7525.94
502.532	7362.11
502.735	7509.56
502.938	7718.45
503.141	7730.74
503.344	7693.88
503.547	7804.47
503.75	8025.65
503.953	7890.48
504.156	8201.77
504.359	8091.18
504.562	8369.71
504.765	8437.29
504.968	8508.97
505.17	8771.11
505.373	8994.34
505.576	9051.68
505.779	9141.79
505.982	9139.74
506.185	9653.78
506.387	9594.39
506.59	9764.37
506.793	9852.44
506.996	10114.58
507.198	10331.66
507.401	10575.37
507.604	10714.63
507.807	10962.44
508.009	11251.2
508.212	11040.26
508.415	11529.72
508.617	11752.95
508.82	11927.03
509.022	12090.87
509.225	12707.3
509.428	12805.61
509.63	13051.36
509.833	13325.79
510.035	13886.93
510.238	13825.5
510.44	14046.68
510.643	14583.24
510.845	14865.86
511.048	15027.65
511.25	15498.69
511.453	15525.31
511.655	16346.55
511.858	16459.18
512.06	16895.4
512.262	17167.78
512.465	17431.97
512.667	17896.86
512.87	18492.82
513.072	18736.52
513.274	19402.11
513.477	19651.97
513.679	20145.53
513.881	20446.58
514.084	21124.46
514.286	21443.94
514.488	21874.01
514.69	22631.76
514.893	22914.38
515.095	23248.2
515.297	23813.44
515.499	24149.31
515.701	24982.83
515.904	25279.78
516.106	25793.83
516.308	26328.34
516.51	27073.81
516.712	27018.51
516.914	27968.77
517.116	28757.24
517.318	28890.35
517.52	29572.33
517.722	29742.31
517.925	30495.96
518.127	31327.44
518.329	31886.53
518.531	31853.76
518.733	32615.61
518.935	32998.58
519.136	33828.01
519.338	34335.9
519.54	34725.02
519.742	35587.21
519.944	36013.19
520.146	36678.78
520.348	36764.79
520.55	37248.11
520.752	37481.58
520.954	38673.5
521.155	38251.62
521.357	39361.62
521.559	39961.67
521.761	40383.55
521.963	40645.69
522.164	40672.32
522.366	41057.34
522.568	41702.45
522.77	41817.13
522.971	42810.4
523.173	42382.37
523.375	42736.67
523.576	43002.91
523.778	42908.7
523.98	43717.65
524.181	43969.55
524.383	43981.84
524.584	44313.61
524.786	43990.03
524.988	43879.44
525.189	44598.27
525.391	44481.54
525.592	44905.47
525.794	44928
525.995	44805.12
526.197	44397.57
526.398	44688.38
526.6	44907.52
526.801	44739.58
527.003	44672
527.204	44084.23
527.406	44377.09
527.607	43883.53
527.808	44096.52
528.01	43179.03
528.211	43322.39
528.412	43699.22
528.614	43400.21
528.815	43035.67
529.016	43101.21
529.218	42062.89
529.419	41901.1
529.62	41720.88
529.822	41405.49
530.023	40920.12
530.224	40930.36
530.425	40127.56
530.626	39474.26
530.828	39093.33
531.029	39361.62
531.23	38530.14
531.431	38161.51
531.632	38091.88
531.833	37624.94
532.035	36738.17
532.236	36672.64
532.437	36447.36
532.638	35476.62
532.839	35644.55
533.04	34874.52
533.241	34272.42
533.442	34772.12
533.643	33598.63
533.844	33326.25
534.045	32785.59
534.246	32462.01
534.447	32341.18
534.648	31341.77
534.849	31145.17
535.05	30403.8
535.251	30121.18
535.451	30084.32
535.652	29666.53
535.853	29342.95
536.054	28683.51
536.255	28165.37
536.456	27837.7
536.657	27897.09
536.857	27170.06
537.058	26897.68
537.259	26543.38
537.46	26115.36
537.66	25474.34
537.861	25341.22
538.062	24974.64
538.263	25068.84
538.463	24370.49
538.664	24206.65
538.865	24075.58
539.065	23588.16
539.266	23125.32
539.466	23125.32
539.667	22590.8
539.868	22646.1
540.068	22250.84
540.269	21855.58
540.469	21904.73
540.67	21658.98
540.87	21077.35
541.071	21009.77
541.271	20833.64
541.472	20571.5
541.672	20225.4
541.873	19924.35
542.073	19535.23
542.274	19672.45
542.474	19740.03
542.675	18843.02
542.875	18974.09
543.075	18822.54
543.276	18294.16
543.476	18433.43
543.676	18277.78
543.877	18138.52
544.077	17821.08
544.277	17624.48
544.478	17403.3
544.678	17175.97
544.878	16942.5
545.078	16825.77
545.279	16459.18
545.479	16209.33
545.679	16070.07
545.879	16025.01
546.079	15814.07
546.28	15506.88
546.48	15519.17
546.68	15588.8
546.88	15207.87
547.08	15021.51
547.28	14814.66
547.48	14562.76
547.68	14417.36
547.88	14149.07
548.081	14155.22
548.281	13729.24
548.481	13592.03
548.681	13637.08
548.881	13395.42
549.081	13409.76
549.28	13006.31
549.48	13237.73
549.68	12598.76
549.88	12506.6
550.08	12060.15
550.28	12420.59
550.48	12168.69
550.68	11808.25
550.88	11611.64
551.08	11441.66
551.279	11347.45
551.479	10833.41
551.679	11099.65
551.879	10929.67
552.079	10808.84
552.278	10663.43
552.478	10601.99
552.678	10407.44
552.878	10204.69
553.077	10012.18
553.277	9739.8
553.477	9844.24
553.676	9500.19
553.876	9399.84
554.076	9141.79
554.275	9141.79
554.475	8724.01
554.674	8812.07
554.874	8830.5
555.074	8375.85
555.273	8560.17
555.473	8238.64
555.672	8111.66
555.872	7816.76
556.071	7843.38
556.271	7831.09
556.47	7708.21
556.67	7337.53
556.869	7474.74
557.068	7175.74
557.268	7224.89
557.467	7007.81
557.667	7046.72
557.866	6778.44
558.065	6661.7
558.265	6678.08
558.464	6405.7
558.663	6389.32
558.863	6317.64
559.062	6155.85
559.261	6121.04
559.461	6155.85
559.66	5906
559.859	5805.65
560.058	5557.85
560.258	5555.8
560.457	5449.3
560.656	5445.21
560.855	5287.51
561.054	5424.73
561.253	5250.65
561.453	5203.55
561.652	5168.73
561.851	4992.61
562.05	4892.26
562.249	4746.85
562.448	4902.5
562.647	4716.13
562.846	4695.65
563.045	4490.85
563.244	4497
563.443	4550.25
563.642	4142.7
563.841	4408.94
564.04	4310.63
564.239	4150.89
564.438	3997.29
564.637	3905.14
564.836	4089.45
565.035	3862.13
565.234	3726.96
565.432	3782.26
565.631	3733.11
565.83	3841.65
566.029	3534.45
566.228	3575.41
566.427	3577.46
566.625	3454.58
566.824	3440.25
567.023	3362.42
567.222	3264.12
567.42	3378.81
567.619	3182.2
567.818	3176.06
568.016	3194.49
568.215	3163.77
568.414	3085.95
568.612	3016.32
568.811	3001.98
569.01	2989.69
569.208	2827.9
569.407	2848.38
569.605	2870.91
569.804	2735.74
570.002	2858.62
570.201	2569.86
570.4	2612.87
570.598	2590.34
570.797	2530.95
570.995	2604.67
571.193	2399.88
571.392	2451.08
571.59	2334.34
571.789	2522.76
571.987	2416.26
572.186	2342.53
572.384	2178.7
572.582	2229.9
572.781	2303.62
572.979	2082.44
573.177	2156.17
573.376	2109.07
573.574	2135.69
573.772	2109.07
573.971	1902.22
574.169	1900.17
574.367	1920.65
574.565	1816.21
574.763	1859.21
574.962	1965.71
575.16	1799.82
575.358	1691.28
575.556	1920.65
575.754	1775.25
575.952	1724.05
576.151	1744.53
576.349	1660.56
576.547	1646.23
576.745	1562.26
576.943	1633.94
577.141	1529.49
577.339	1543.83
577.537	1685.14
577.735	1574.55
577.933	1537.68
578.131	1302.17
578.329	1556.11
578.527	1334.93
578.725	1468.05
578.923	1322.65
579.121	1377.94
579.319	1185.43
579.516	1296.02
579.714	1392.28
579.912	1275.54
580.11	1167
580.308	1220.25
580.506	1142.43
580.704	1072.79
580.901	1144.47
581.099	1236.63
581.297	1201.82
581.495	1177.24
581.692	1128.09
581.89	1236.63
582.088	1037.98
582.285	1074.84
582.483	1105.56
582.681	1046.17
582.878	980.64
583.076	951.96
583.274	1042.07
583.471	1052.31
583.669	947.87
583.866	851.61
584.064	896.67
584.262	855.71
584.459	917.15
584.657	792.22
584.854	949.92
585.052	892.57
585.249	900.76
585.447	908.96
585.644	722.59
585.841	884.38
586.039	749.22
586.236	884.38
586.434	784.03
586.631	687.78
586.828	761.5
587.026	855.71
587.223	683.68
587.42	808.61
587.618	771.74
587.815	749.22
588.012	738.98
588.21	605.86
588.407	747.17
588.604	720.54
588.801	587.43
588.999	667.3
589.196	657.06
589.393	614.05
589.59	718.5
589.787	730.78
589.984	638.62
590.182	636.58
590.379	505.51
590.576	587.43
590.773	640.67
590.97	540.32
591.167	624.29
591.364	726.69
591.561	589.47
591.758	738.98
591.955	607.91
592.152	564.9
592.349	560.8
592.546	556.71
592.743	585.38
592.94	519.84
593.137	695.97
593.334	704.16
593.531	638.62
593.727	642.72
593.924	679.58
594.121	646.82
594.318	587.43
594.515	655.01
594.712	771.74
594.908	695.97
595.105	501.41
595.302	773.79
595.499	671.39
595.696	767.65
595.892	614.05
596.089	728.74
596.286	632.48
596.482	814.75
596.679	751.26
596.876	730.78
597.072	859.81
597.269	804.51
597.466	839.33
597.662	779.93
597.859	827.04
598.055	847.52
598.252	894.62
598.448	941.72
598.645	943.77
598.841	986.78
599.038	1083.03
599.234	1134.23
599.431	1105.56
599.627	1138.33
599.824	1203.86
600.02	1126.04
600.217	1240.73
600.413	1302.17
600.609	1322.65
600.806	1597.07
601.002	1377.94
601.198	1451.67
601.395	1576.59
601.591	1666.71
601.787	1666.71
601.984	1787.54
602.18	1779.34
602.376	1783.44
602.572	1902.22
602.769	2113.16
602.965	2064.01
603.161	2184.84
603.357	2246.28
603.553	2340.49
603.75	2293.38
603.946	2457.22
604.142	2500.23
604.338	2674.31
604.534	2606.72
604.73	2750.08
604.926	2811.52
605.122	2877.05
605.318	2940.54
605.514	3214.97
605.71	3245.69
605.906	3362.42
606.102	3354.23
606.298	3602.04
606.494	3667.57
606.69	3851.89
606.886	3812.98
607.082	3905.14
607.278	3993.2
607.474	4251.24
607.67	4449.89
607.866	4241
608.062	4630.12
608.257	4578.92
608.453	4853.34
608.649	4929.12
608.845	5142.11
609.041	5025.37
609.236	5256.79
609.432	5647.96
609.628	5621.33
609.824	5975.63
610.019	5740.12
610.215	6016.59
610.411	6231.63
610.606	6461
610.802	6516.3
610.998	6762.05
611.193	6897.22
611.389	6975.04
611.584	7257.66
611.78	7224.89
611.976	7530.04
612.171	7933.49
612.367	8037.94
612.562	8037.94
612.758	8379.95
612.953	8635.94
613.149	8879.65
613.344	8980
613.539	9498.14
613.735	9664.02
613.93	9586.2
614.126	9956.88
614.321	10233.36
614.517	10409.48
614.712	10851.85
614.907	11148.8
615.103	11492.86
615.298	11496.96
615.493	11888.12
615.688	12115.44
615.884	12561.9
616.079	12721.64
616.274	13338.08
616.47	13522.4
616.665	13753.82
616.86	14126.55
617.055	14540.24
617.25	14726.6
617.445	15197.63
617.641	15478.21
617.836	15797.69
618.031	16100.79
618.226	16782.76
618.421	17153.44
618.616	17446.3
618.811	17741.21
619.006	18357.65
619.201	18673.04
619.396	19129.73
619.591	19291.52
619.786	20079.99
619.981	20079.99
620.176	20829.55
620.371	21155.18
620.566	21822.81
620.761	22130.01
620.956	22852.94
621.151	22900.05
621.346	23463.24
621.541	23483.72
621.735	24651.06
621.93	24728.88
622.125	25249.07
622.32	25349.42
622.515	26227.99
622.709	26735.89
622.904	26811.67
623.099	27729.16
623.294	28062.97
623.488	28282.11
623.683	29021.42
623.878	28945.65
624.072	29971.68
624.267	30276.83
624.462	30891.22
624.656	30692.57
624.851	31562.95
625.046	31917.25
625.24	32466.11
625.435	32707.77
625.629	33471.66
625.824	33574.06
626.018	34340
626.213	34292.9
626.407	35032.21
626.602	35126.42
626.796	35781.77
626.991	36203.65
627.185	36486.27
627.38	36658.3
627.574	36850.81
627.768	37166.2
627.963	36834.42
628.157	36938.87
628.352	37651.56
628.546	37405.81
628.74	37893.22
628.935	36766.84
629.129	37727.34
629.323	37071.99
629.517	37033.08
629.712	37041.27
629.906	36504.7
630.1	36007.05
630.294	36297.86
630.489	35619.98
630.683	35216.53
630.877	34591.9
631.071	34274.46
631.265	33774.76
631.459	33246.38
631.653	32322.75
631.848	31538.38
632.042	30772.44
632.236	30211.29
632.43	29089.01
632.624	28501.24
632.818	27741.44
633.012	26977.55
633.206	26121.5
633.4	25539.88
633.594	24556.85
633.788	23784.77
633.982	23092.55
634.176	22515.03
634.369	21003.63
634.563	20245.88
634.757	19455.36
634.951	19111.3
635.145	18353.55
635.339	17761.69
635.533	16967.08
635.726	16422.32
635.92	15259.07
636.114	15021.51
636.308	14452.17
636.501	14069.2
636.695	13428.19
636.889	12670.44
637.083	12217.84
637.276	11630.07
637.47	11226.62
637.664	10653.19
637.857	10419.72
638.051	9791
638.244	9457.18
638.438	9070.11
638.632	8945.19
638.825	8408.62
639.019	8134.19
639.212	7708.21
639.406	7542.33
639.599	7161.41
639.793	7028.29
639.986	6647.37
640.18	6446.66
640.373	6159.95
640.567	5910.1
640.76	5740.12
640.954	5496.41
641.147	5127.77
641.34	4873.82
641.534	4828.77
641.727	4707.94
641.92	4505.19
642.114	4306.54
642.307	4185.71
642.5	4048.49
642.694	3737.2
642.887	3622.52
643.08	3667.57
643.273	3409.53
643.467	3327.61
643.66	3155.58
643.853	3001.98
644.046	2805.38
644.239	2770.56
644.432	2584.2
644.626	2594.44
644.819	2526.85
645.012	2313.86
645.205	2348.68
645.398	2397.83
645.591	2201.23
645.784	1998.48
645.977	1922.7
646.17	1879.69
646.363	1824.4
646.556	1777.3
646.749	1670.8
646.942	1697.42
647.135	1633.94
647.328	1498.77
647.521	1429.14
647.714	1326.74
647.907	1375.89
648.099	1246.87
648.292	1281.69
648.485	1261.21
648.678	1136.28
648.871	1142.43
649.064	1076.89
649.256	1052.31
649.449	1011.36
649.642	947.87
649.835	964.25
650.027	904.86
650.22	937.63
650.413	777.89
650.605	880.29
650.798	767.65
650.991	720.54
651.183	779.93
651.376	730.78
651.568	734.88
651.761	681.63
651.954	648.86
652.146	581.28
652.339	616.1
652.531	583.33
652.724	579.23
652.916	560.8
653.109	466.6
653.301	603.81
653.494	544.42
653.686	505.51
653.879	534.18
654.071	460.45
654.263	364.2
654.456	401.06
654.648	544.42
654.84	472.74
655.033	409.25
655.225	497.32
655.417	265.89
655.61	521.89
655.802	407.2
655.994	444.07
656.186	288.42
656.379	384.68
656.571	222.89
656.763	220.84
656.955	231.08
657.148	315.05
657.34	472.74
657.532	308.9
657.724	259.75
657.916	411.3
658.108	472.74
658.3	358.05
658.492	284.33
658.684	194.22
658.876	376.48
659.068	163.5
659.26	159.4
659.452	243.37
659.644	255.65
659.836	296.61
660.028	323.24
660.22	233.13
660.412	243.37
660.604	235.18
660.796	216.74
660.988	265.89
661.18	229.03
661.372	272.04
661.563	229.03
661.755	181.93
661.947	204.46
662.139	188.07
662.331	224.94
662.522	198.31
662.714	188.07
662.906	136.87
663.097	138.92
663.289	118.44
663.481	79.53
663.673	233.13
663.864	206.5
664.056	233.13
664.247	110.25
664.439	261.8
664.631	186.02
664.822	298.66
665.014	188.07
665.205	130.73
665.397	173.74
665.588	81.58
665.78	124.58
665.971	231.08
666.163	112.3
666.354	183.98
666.546	126.63
666.737	163.5
666.929	190.12
667.12	132.78
667.311	177.83
667.503	95.91
667.694	204.46
667.885	169.64
668.077	143.02
668.268	26.28
668.459	188.07
668.651	165.54
668.842	134.82
669.033	57
669.224	91.82
669.416	323.24
669.607	50.86
669.798	-10.58
669.989	200.36
670.18	93.87
670.371	237.22
670.563	128.68
670.754	140.97
670.945	128.68
671.136	157.35
671.327	87.72
671.518	208.55
671.709	298.66
671.9	229.03
672.091	265.89
672.282	163.5
672.473	222.89
672.664	138.92
672.855	175.78
673.046	161.45
673.237	261.8
673.428	81.58
673.619	194.22
673.809	110.25
674	186.02
674.191	171.69
674.382	128.68
674.573	188.07
674.764	100.01
674.954	231.08
675.145	69.29
675.336	173.74
675.527	124.58
675.717	149.16
675.908	102.06
676.099	149.16
676.289	194.22
676.48	30.38
676.671	169.64
676.861	108.2
677.052	229.03
677.243	116.39
677.433	140.97
677.624	239.27
677.814	114.34
678.005	140.97
678.195	308.9
678.386	44.71
678.576	85.67
678.767	91.82
678.957	177.83
679.148	214.7
679.338	378.53
679.529	284.33
679.719	179.88
679.909	210.6
680.1	298.66
680.29	214.7
680.481	106.15
680.671	284.33
680.861	255.65
681.052	229.03
681.242	192.17
681.432	235.18
681.622	222.89
681.813	171.69
682.003	173.74
682.193	220.84
682.383	224.94
682.573	181.93
682.764	267.94
682.954	173.74
683.144	308.9
683.334	272.04
683.524	253.61
683.714	282.28
683.904	323.24
684.094	198.31
684.284	231.08
684.474	396.96
684.664	347.81
684.854	317.09
685.044	317.09
685.234	341.67
685.424	247.46
685.614	161.45
685.804	366.25
685.994	304.81
686.184	214.7
686.374	247.46
686.564	313
686.753	171.69
686.943	206.5
687.133	319.14
687.323	190.12
687.513	347.81
687.702	272.04
687.892	198.31
688.082	315.05
688.272	345.77
688.461	218.79
688.651	394.92
688.841	284.33
689.03	206.5
689.22	302.76
689.41	292.52
689.599	300.71
689.789	204.46
689.979	302.76
690.168	233.13
690.358	302.76
690.547	249.51
690.737	276.13
690.926	304.81
691.116	282.28
691.305	278.18
691.495	259.75
691.684	257.7
691.874	214.7
692.063	229.03
692.252	274.09
692.442	222.89
692.631	149.16
692.82	183.98
693.01	333.48
693.199	198.31
693.388	204.46
693.578	313
693.767	269.99
693.956	239.27
694.146	114.34
694.335	263.85
694.524	216.74
694.713	267.94
694.902	210.6
695.092	192.17
695.281	251.56
695.47	188.07
695.659	269.99
695.848	247.46
696.037	229.03
696.226	374.44
696.415	190.12
696.604	317.09
696.793	237.22
696.982	155.3
697.171	374.44
697.36	128.68
697.549	280.23
697.738	169.64
697.927	210.6
698.116	157.35
698.305	235.18
698.494	276.13
698.683	233.13
698.872	345.77
699.061	169.64
699.25	202.41
699.438	263.85
699.627	126.63
699.816	388.77
700.005	147.11
700.193	249.51
700.382	265.89
700.571	265.89
700.76	216.74
700.948	251.56
701.137	212.65
701.326	255.65
701.514	122.54
701.703	261.8
701.892	261.8
702.08	343.72
702.269	202.41
702.457	233.13
702.646	288.42
702.834	173.74
703.023	216.74
703.212	321.19
703.4	263.85
703.589	216.74
703.777	145.06
703.965	255.65
704.154	208.55
704.342	145.06
704.531	220.84
704.719	251.56
704.907	306.85
705.096	130.73
705.284	161.45
705.472	206.5
705.661	229.03
705.849	212.65
706.037	349.86
706.226	210.6
706.414	253.61
706.602	163.5
706.79	362.15
706.979	280.23
707.167	239.27
707.355	192.17
707.543	337.57
707.731	169.64
707.919	186.02
708.107	224.94
708.296	122.54
708.484	159.4
708.672	265.89
708.86	292.52
709.048	304.81
709.236	128.68
709.424	267.94
709.612	321.19
709.8	145.06
709.988	237.22
710.176	247.46
710.364	278.18
710.551	210.6
710.739	239.27
710.927	198.31
711.115	202.41
711.303	261.8
711.491	306.85
711.679	210.6
711.866	245.41
712.054	313
712.242	274.09
712.43	253.61
712.617	327.33
712.805	286.37
712.993	212.65
713.181	134.82
713.368	237.22
713.556	300.71
713.744	239.27
713.931	409.25
714.119	288.42
714.306	247.46
714.494	159.4
714.682	257.7
714.869	153.26
715.057	231.08
715.244	132.78
715.432	288.42
715.619	300.71
715.807	269.99
715.994	216.74
716.182	306.85
716.369	347.81
716.556	282.28
716.744	231.08
716.931	192.17
717.119	265.89
717.306	265.89
717.493	306.85
717.681	216.74
717.868	253.61
718.055	247.46
718.242	183.98
718.43	231.08
718.617	331.43
718.804	263.85
718.991	370.34
719.179	302.76
719.366	296.61
719.553	313
719.74	214.7
719.927	269.99
720.114	288.42
720.301	269.99
720.488	229.03
720.676	179.88
720.863	321.19
721.05	364.2
721.237	286.37
721.424	356.01
721.611	358.05
721.798	214.7
721.985	251.56
722.172	233.13
722.358	245.41
722.545	364.2
722.732	306.85
722.919	269.99
723.106	298.66
723.293	337.57
723.48	341.67
723.667	259.75
723.853	380.58
724.04	288.42
724.227	374.44
724.414	335.53
724.6	323.24
724.787	294.57
724.974	437.92
725.161	345.77
725.347	261.8
725.534	296.61
725.72	274.09
725.907	313
726.094	366.25
726.28	327.33
726.467	269.99
726.653	237.22
726.84	360.1
727.027	390.82
727.213	202.41
727.4	329.38
727.586	229.03
727.773	259.75
727.959	319.14
728.145	282.28
728.332	284.33
728.518	249.51
728.705	253.61
728.891	294.57
729.077	349.86
729.264	245.41
729.45	300.71
729.636	380.58
729.823	327.33
730.009	429.73
730.195	302.76
730.382	360.1
730.568	351.91
730.754	321.19
730.94	306.85
731.126	302.76
731.313	323.24
731.499	272.04
731.685	310.95
731.871	310.95
732.057	282.28
732.243	380.58
732.429	401.06
732.615	405.16
732.801	308.9
732.987	274.09
733.173	233.13
733.359	226.98
733.545	323.24
733.731	282.28
733.917	323.24
734.103	302.76
734.289	341.67
734.475	276.13
734.661	421.54
734.847	351.91
735.033	335.53
735.219	372.39
735.404	239.27
735.59	233.13
735.776	419.49
735.962	257.7
736.148	405.16
736.333	427.68
736.519	374.44
736.705	296.61
736.89	300.71
737.076	378.53
737.262	239.27
737.447	276.13
737.633	308.9
737.819	360.1
738.004	308.9
738.19	319.14
738.375	378.53
738.561	388.77
738.747	423.59
738.932	237.22
739.118	390.82
739.303	333.48
739.489	372.39
739.674	300.71
739.859	304.81
740.045	356.01
740.23	399.01
740.416	204.46
740.601	382.63
740.786	360.1
740.972	231.08
741.157	288.42
741.342	247.46
741.528	278.18
741.713	353.96
741.898	267.94
742.084	325.29
742.269	265.89
742.454	302.76
742.639	394.92
742.824	288.42
743.01	358.05
743.195	423.59
743.38	298.66
743.565	290.47
743.75	345.77
743.935	310.95
744.12	360.1
744.305	169.64
744.49	319.14
744.675	362.15
744.86	249.51
745.045	364.2
745.23	308.9
745.415	284.33
745.6	351.91
745.785	294.57
745.97	310.95
746.155	353.96
746.34	386.72
746.525	300.71
746.71	413.35
746.895	214.7
747.079	239.27
747.264	235.18
747.449	259.75
747.634	341.67
747.819	310.95
748.003	231.08
748.188	198.31
748.373	280.23
748.557	333.48
748.742	239.27
748.927	218.79
749.111	208.55
749.296	263.85
749.481	329.38
749.665	298.66
749.85	272.04
750.034	272.04
750.219	220.84
750.404	284.33
750.588	304.81
750.773	249.51
750.957	333.48
751.141	233.13
751.326	339.62
751.51	132.78
751.695	251.56
751.879	218.79
752.064	384.68
752.248	196.26
752.432	390.82
752.617	235.18
752.801	288.42
752.985	173.74
753.17	259.75
753.354	233.13
753.538	192.17
753.722	186.02
753.907	145.06
754.091	200.36
754.275	269.99
754.459	167.59
754.643	194.22
754.828	263.85
755.012	269.99
755.196	159.4
755.38	202.41
755.564	190.12
755.748	138.92
755.932	233.13
756.116	247.46
756.3	261.8
756.484	138.92
756.668	263.85
756.852	32.43
757.036	175.78
757.22	243.37
757.404	149.16
757.588	222.89
757.772	216.74
757.956	218.79
758.14	288.42
758.323	138.92
758.507	194.22
758.691	122.54
758.875	183.98
759.059	138.92
759.242	147.11
759.426	143.02
759.61	167.59
759.794	200.36
759.977	231.08
760.161	323.24
760.345	267.94
760.528	212.65
760.712	192.17
760.895	249.51
761.079	196.26
761.263	79.53
761.446	85.67
761.63	104.11
761.813	278.18
761.997	110.25
762.18	169.64
762.364	151.21
762.547	57
762.731	108.2
762.914	36.52
763.098	171.69
763.281	110.25
763.464	104.11
763.648	157.35
763.831	138.92
764.015	149.16
764.198	220.84
764.381	73.39
764.564	190.12
764.748	91.82
764.931	181.93
765.114	136.87
765.297	233.13
765.481	13.99
765.664	83.63
765.847	186.02
766.03	317.09
766.213	104.11
766.397	106.15
766.58	42.67
766.763	169.64
766.946	149.16
767.129	130.73
767.312	140.97
767.495	71.34
767.678	95.91
767.861	50.86
768.044	95.91
768.227	153.26
768.41	116.39
768.593	192.17
768.776	54.95
768.959	130.73
769.142	224.94
769.324	32.43
769.507	44.71
769.69	93.87
769.873	38.57
770.056	214.7
770.239	110.25
770.421	97.96
770.604	79.53
770.787	110.25
770.97	147.11
771.152	61.1
771.335	181.93
771.518	32.43
771.7	132.78
771.883	155.3
772.066	108.2
772.248	120.49
772.431	233.13
772.613	112.3
772.796	91.82
772.978	9.9
773.161	198.31
773.343	26.28
773.526	52.91
773.708	-61.78
773.891	38.57
774.073	52.91
774.256	73.39
774.438	206.5
774.621	93.87
774.803	114.34
774.985	61.1
775.168	153.26
775.35	122.54
775.532	149.16
775.715	75.43
775.897	104.11
776.079	65.19
776.261	24.23
776.444	132.78
776.626	26.28
776.808	1.71
776.99	57
777.173	83.63
777.355	38.57
777.537	138.92
777.719	124.58
777.901	24.23
778.083	-29.01
778.265	24.23
778.447	30.38
778.629	24.23
778.811	52.91
778.993	79.53
779.175	179.88
779.357	106.15
779.539	-8.53
779.721	26.28
779.903	106.15
780.085	54.95
780.267	100.01
780.449	-80.21
780.631	69.29
780.812	118.44
780.994	106.15
781.176	-2.39
781.358	-10.58
781.54	3.75
781.721	102.06
781.903	198.31
782.085	-47.44
782.267	198.31
782.448	-12.63
782.63	9.9
782.812	79.53
782.993	71.34
783.175	83.63
783.357	71.34
783.538	28.33
783.72	36.52
783.901	65.19
784.083	75.43
784.264	97.96
784.446	16.04
784.627	-26.96
784.809	79.53
784.99	-29.01
785.172	54.95
785.353	52.91
785.535	73.39
785.716	48.81
785.897	-53.59
786.079	95.91
786.26	34.47
786.441	59.05
786.623	-49.49
786.804	-4.44
786.985	32.43
787.167	87.72
787.348	42.67
787.529	7.85
787.71	177.83
787.891	54.95
788.073	-16.73
788.254	-33.11
788.435	159.4
788.616	20.14
788.797	-67.92
788.978	73.39
789.159	-16.73
789.34	122.54
789.522	11.95
789.703	26.28
789.884	52.91
790.065	20.14
790.246	136.87
790.427	-12.63
790.607	153.26
790.788	61.1
790.969	11.95
791.15	100.01
791.331	-10.58
791.512	57
791.693	-47.44
791.874	-65.88
792.054	239.27
792.235	161.45
792.416	-45.4
792.597	-51.54
792.778	132.78
792.958	50.86
793.139	57
793.32	71.34
793.5	-69.97
793.681	118.44
793.862	46.76
794.042	3.75
794.223	-26.96
794.404	36.52
794.584	-61.78
794.765	67.24
794.945	42.67
795.126	71.34
795.306	85.67
795.487	48.81
795.667	22.19
795.848	26.28
796.028	9.9
796.209	11.95
796.389	67.24
796.57	1.71
796.75	-8.53
796.93	26.28
797.111	-86.36
797.291	-24.92
797.471	54.95
797.652	52.91
797.832	-4.44
798.012	102.06
798.192	5.8
798.373	36.52
798.553	61.1
798.733	110.25
798.913	-131.41
799.093	-12.63
799.274	54.95
799.454	75.43
799.634	116.39
799.814	71.34
799.994	65.19
800.174	63.15
800.354	-14.68
800.534	-106.84
800.714	91.82
800.894	-82.26
801.074	-61.78
801.254	-20.82
801.434	89.77
801.614	-4.44
801.794	1.71
801.974	1900.17
802.154	-22.87
802.334	71.34
802.514	-76.12
802.693	9.9
802.873	50.86
803.053	63.15
803.233	28.33
803.413	93.87
803.592	-2.39
803.772	-35.16
803.952	3.75
804.131	-14.68
804.311	42.67
804.491	165.54
804.67	67.24
804.85	-53.59
805.03	9.9
805.209	81.58
805.389	67.24
805.568	-22.87
805.748	-55.64
805.928	-61.78
806.107	122.54
806.287	61.1
806.466	73.39
806.646	-22.87
806.825	22.19
807.004	30.38
807.184	149.16
807.363	75.43
807.543	59.05
807.722	-74.07
807.901	134.82
808.081	63.15
808.26	-139.6
808.439	83.63
808.619	32.43
808.798	-53.59
808.977	50.86
809.156	106.15
809.336	18.09
809.515	67.24
809.694	-55.64
809.873	59.05
810.052	89.77
810.231	177.83
810.411	26.28
810.59	95.91
810.769	11.95
810.948	7.85
811.127	-86.36
811.306	5.8
811.485	-119.12
811.664	151.21
811.843	110.25
812.022	18.09
812.201	-33.11
812.38	-41.3
812.559	-72.02
812.737	-8.53
812.916	1.71
813.095	7.85
813.274	54.95
813.453	-6.49
813.632	63.15
813.811	79.53
813.989	-31.06
814.168	13.99
814.347	-104.79
814.526	26.28
814.704	120.49
814.883	44.71
815.062	-127.32
815.24	75.43
815.419	-67.92
815.598	16.04
815.776	-78.16
815.955	18.09
816.133	-217.43
816.312	59.05
816.49	-69.97
816.669	61.1
816.847	1.71
817.026	9.9
817.204	-65.88
817.383	77.48
817.561	16.04
817.74	85.67
817.918	59.05
818.097	-100.69
818.275	-33.11
818.453	46.76
818.632	-2.39
818.81	-33.11
818.988	-76.12
819.167	-45.4
819.345	-26.96
819.523	5.8
819.701	69.29
819.879	-6.49
820.058	59.05
820.236	36.52
820.414	22.19
820.592	-6.49
820.77	-14.68
820.948	3.75
821.127	-90.45
821.305	81.58
821.483	-94.55
821.661	44.71
821.839	30.38
822.017	-102.74
822.195	-88.4
822.373	95.91
822.551	52.91
822.729	65.19
822.907	-55.64
823.085	32.43
823.262	34.47
823.44	18.09
823.618	32.43
823.796	-14.68
823.974	-12.63
824.152	-110.93
824.329	-80.21
824.507	-6.49
824.685	-0.34
824.863	-41.3
825.04	75.43
825.218	30.38
825.396	1.71
825.574	-14.68
825.751	1.71
825.929	13.99
826.107	-41.3
826.284	59.05
826.462	13.99
826.639	-16.73
826.817	-55.64
826.994	-0.34
827.172	-59.73
827.349	159.4
827.527	22.19
827.704	71.34
827.882	57
828.059	-29.01
828.237	-49.49
828.414	46.76
828.591	-174.42
828.769	-43.35
828.946	-33.11
829.124	7.85
829.301	77.48
829.478	11.95
829.655	13.99
829.833	-20.82
830.01	-110.93
830.187	7.85
830.364	-0.34
830.542	28.33
830.719	151.21
830.896	5.8
831.073	-14.68
831.25	40.62
831.427	22.19
831.604	22.19
831.782	-80.21
831.959	24.23
832.136	3.75
832.313	-43.35
832.49	-43.35
832.667	-8.53
832.844	-88.4
833.021	50.86
833.198	-12.63
833.374	11.95
833.551	69.29
833.728	7.85
833.905	106.15
834.082	-166.23
834.259	42.67
834.436	71.34
834.612	-115.03
834.789	1.71
834.966	-69.97
835.143	83.63
835.319	-100.69
835.496	124.58
835.673	-2.39
835.85	13.99
836.026	46.76
836.203	42.67
836.38	34.47
836.556	-100.69
836.733	-14.68
836.909	104.11
837.086	-2.39
837.262	-104.79
837.439	36.52
837.616	11.95
837.792	20.14
837.968	-20.82
838.145	-125.27
838.321	-45.4
838.498	28.33
838.674	81.58
838.851	9.9
839.027	36.52
839.203	59.05
839.38	3.75
839.556	-49.49
839.732	179.88
839.909	95.91
840.085	50.86
840.261	-6.49
840.437	34.47
840.614	-31.06
840.79	-31.06
840.966	93.87
841.142	22.19
841.318	-92.5
841.494	52.91
841.671	28.33
841.847	-90.45
842.023	-24.92
842.199	-10.58
842.375	157.35
842.551	-96.6
842.727	-45.4
842.903	169.64
843.079	-72.02
843.255	75.43
843.431	-33.11
843.607	34.47
843.783	-123.22
843.959	134.82
844.134	-119.12
844.31	140.97
844.486	-45.4
844.662	13.99
844.838	30.38
845.013	44.71
845.189	81.58
845.365	65.19
845.541	-55.64
845.716	1.71
845.892	30.38
846.068	-76.12
846.244	-20.82
846.419	-14.68
846.595	-90.45
846.77	-92.5
846.946	54.95
847.122	16.04
847.297	-86.36
847.473	128.68
847.648	-92.5
847.824	-31.06
847.999	-135.51
848.175	1.71
848.35	13.99
848.526	59.05
848.701	13.99
848.876	67.24
849.052	48.81
849.227	28.33
849.403	28.33
849.578	-26.96
849.753	-8.53
849.929	40.62
850.104	-86.36
850.279	7.85
850.454	-10.58
850.63	38.57
850.805	-24.92
850.98	-10.58
851.155	1.71
851.33	11.95
851.505	-112.98
851.681	124.58
851.856	-33.11
852.031	-8.53
852.206	-8.53
852.381	-39.25
852.556	-92.5
852.731	32.43
852.906	97.96
853.081	13.99
853.256	79.53
853.431	-39.25
853.606	-8.53
853.781	-24.92
853.956	-125.27
854.131	75.43
854.305	-88.4
854.48	-43.35
854.655	-24.92
854.83	-37.2
855.005	-72.02
855.18	20.14
855.354	-29.01
855.529	18.09
855.704	-115.03
855.879	46.76
856.053	-145.75
856.228	-47.44
856.403	-47.44
856.577	52.91
856.752	-41.3
856.926	-6.49
857.101	63.15
857.276	-55.64
857.45	100.01
857.625	38.57
857.799	50.86
857.974	38.57
858.148	-121.17
858.323	13.99
858.497	54.95
858.672	-67.92
858.846	-49.49
859.02	118.44
859.195	-94.55
859.369	13.99
859.543	-10.58
859.718	110.25
859.892	13.99
860.066	-12.63
860.241	-12.63
860.415	-26.96
860.589	9.9
860.763	-10.58
860.938	-2.39
861.112	-31.06
861.286	-102.74
861.46	65.19
861.634	-59.73
861.808	69.29
861.982	-51.54
862.157	-119.12
862.331	-24.92
862.505	-63.83
862.679	-18.77
862.853	-39.25
863.027	-22.87
863.201	147.11
863.375	-41.3
863.549	-6.49
863.722	61.1
863.896	110.25
864.07	-43.35
864.244	26.28
864.418	59.05
864.592	50.86
864.766	-35.16
864.939	34.47
865.113	30.38
865.287	79.53
865.461	-125.27
865.634	75.43
865.808	-10.58
865.982	32.43
866.156	-53.59
866.329	-90.45
866.503	-0.34
866.676	114.34
866.85	9.9
867.024	-20.82
867.197	71.34
867.371	69.29
867.544	44.71
867.718	-80.21
867.891	91.82
868.065	-69.97
868.238	-2.39
868.412	85.67
868.585	57
868.759	-45.4
868.932	-65.88
869.105	-57.68
869.279	-29.01
869.452	-67.92
869.625	3.75
869.799	-2.39
869.972	-112.98
870.145	-74.07
870.319	116.39
870.492	-24.92
870.665	-2.39
870.838	-29.01
871.011	-117.08
871.185	-51.54
871.358	-84.31
871.531	42.67
871.704	-92.5
871.877	83.63
872.05	-61.78
872.223	-133.46
872.396	7.85
872.569	145.06
872.742	-22.87
872.915	-16.73
873.088	-2.39
873.261	-74.07
873.434	75.43
873.607	-37.2
873.78	-12.63
873.953	-96.6
874.126	-14.68
874.299	18.09
874.471	-57.68
874.644	11.95
874.817	-31.06
874.99	157.35
875.163	-69.97
875.335	-20.82
875.508	-45.4
875.681	38.57
875.853	7.85
876.026	5.8
876.199	-2.39
876.371	18.09
876.544	-35.16
876.717	-6.49
876.889	1.71
877.062	71.34
877.234	-84.31
877.407	-24.92
877.579	-4.44
877.752	-14.68
877.924	52.91
878.097	-59.73
878.269	-10.58
878.442	-2.39
878.614	54.95
878.786	34.47
878.959	79.53
879.131	16.04
879.303	-104.79
879.476	-43.35
879.648	-26.96
879.82	-41.3
879.993	-92.5
880.165	26.28
880.337	-86.36
880.509	18.09
880.681	-92.5
880.854	-57.68
881.026	61.1
881.198	116.39
881.37	-59.73
881.542	57
881.714	-22.87
881.886	1.71
882.058	-67.92
882.23	36.52
882.402	-39.25
882.574	11.95
882.746	75.43
882.918	50.86
883.09	54.95
883.262	3.75
883.434	-10.58
883.606	-121.17
883.778	-43.35
883.95	114.34
884.122	-31.06
884.293	59.05
884.465	-63.83
884.637	110.25
884.809	-88.4
884.98	-0.34
885.152	16.04
885.324	32.43
885.496	-129.36
885.667	-88.4
885.839	9.9
886.011	57
886.182	16.04
886.354	89.77
886.525	9.9
886.697	-39.25
886.869	-37.2
887.04	-29.01
887.212	22.19
887.383	104.11
887.555	24.23
887.726	-139.6
887.897	-57.68
888.069	-18.77
888.24	40.62
888.412	81.58
888.583	-31.06
888.754	1.71
888.926	-90.45
889.097	-22.87
889.268	-98.64
889.44	-33.11
889.611	-65.88
889.782	-98.64
889.953	-37.2
890.125	9.9
890.296	-106.84
890.467	-51.54
890.638	-4.44
890.809	-59.73
890.98	-74.07
891.151	89.77
891.323	83.63
891.494	-100.69
891.665	-22.87
891.836	-10.58
892.007	-47.44
892.178	-49.49
892.349	38.57
892.52	-2.39
892.691	38.57
892.862	3.75
893.032	-112.98
893.203	-86.36
893.374	-31.06
893.545	67.24
893.716	-41.3
893.887	61.1
894.057	-92.5
894.228	-74.07
894.399	-61.78
894.57	104.11
894.74	-35.16
894.911	-63.83
895.082	-108.88
895.253	-26.96
895.423	-47.44
895.594	28.33
895.764	75.43
895.935	-61.78
896.106	61.1
896.276	-18.77
896.447	48.81
896.617	-117.08
896.788	-80.21
896.958	-108.88
897.129	-14.68
897.299	-10.58
897.47	100.01
897.64	85.67
897.81	42.67
897.981	-2.39
898.151	-63.83
898.322	71.34
898.492	13.99
898.662	-53.59
898.832	-74.07
899.003	26.28
899.173	77.48
899.343	-96.6
899.513	-112.98
