Data from USB4F104151__43__10-43-05-979.txt Node

Date: Wed Feb 26 10:43:05 EST 2025
User: louis
Spectrometer: USB4F10415
Trigger mode: 4
Integration Time (sec): 1.000000E-1
Scans to average: 1
Electric dark correction enabled: true
Nonlinearity correction enabled: false
Boxcar width: 0
XAxis mode: Wavelengths
Number of Pixels in Spectrum: 3648
>>>>>Begin Spectral Data<<<<<
178.204	-306.51
178.424	-306.51
178.644	-306.51
178.864	-329.04
179.084	-355.66
179.304	76.46
179.524	43.69
179.744	8.87
179.964	-50.52
180.184	76.46
180.404	21.16
180.624	-75.09
180.844	33.45
181.064	-109.91
181.283	29.35
181.503	-52.56
181.723	-1.37
181.943	-52.56
182.163	254.63
182.383	-23.89
182.602	66.22
182.822	164.52
183.042	144.04
183.262	-56.66
183.482	47.79
183.701	27.31
183.921	0.68
184.141	-30.04
184.361	94.89
184.58	49.83
184.8	72.36
185.02	0.68
185.239	164.52
185.459	41.64
185.679	117.42
185.898	-62.8
186.118	39.59
186.338	103.08
186.557	115.37
186.777	53.93
186.997	49.83
187.216	78.51
187.436	197.29
187.655	90.79
187.875	84.65
188.095	72.36
188.314	88.75
188.534	111.27
188.753	-15.7
188.973	74.41
189.192	178.86
189.412	39.59
189.631	68.27
189.851	141.99
190.07	178.86
190.29	-11.61
190.509	17.07
190.729	43.69
190.948	195.24
191.168	219.82
191.387	76.46
191.607	0.68
191.826	92.84
192.045	-13.65
192.265	-3.41
192.484	70.31
192.704	15.02
192.923	-71
193.142	166.57
193.362	82.6
193.581	103.08
193.8	58.03
194.02	109.22
194.239	62.12
194.458	119.46
194.678	72.36
194.897	-58.71
195.116	78.51
195.335	78.51
195.555	191.14
195.774	25.26
195.993	74.41
196.212	45.74
196.432	68.27
196.651	12.97
196.87	76.46
197.089	219.82
197.308	101.03
197.528	45.74
197.747	2.73
197.966	60.07
198.185	115.37
198.404	-11.61
198.623	101.03
198.842	131.75
199.062	158.38
199.281	96.94
199.5	86.7
199.719	154.28
199.938	156.33
200.157	123.56
200.376	131.75
200.595	121.51
200.814	60.07
201.033	68.27
201.252	262.82
201.471	86.7
201.69	29.35
201.909	70.31
202.128	113.32
202.347	131.75
202.566	88.75
202.785	-40.28
203.004	53.93
203.223	277.16
203.442	94.89
203.661	-58.71
203.879	98.99
204.098	141.99
204.317	-91.48
204.536	66.22
204.755	109.22
204.974	131.75
205.193	15.02
205.411	121.51
205.63	219.82
205.849	82.6
206.068	66.22
206.287	66.22
206.505	123.56
206.724	12.97
206.943	-71
207.162	0.68
207.381	68.27
207.599	51.88
207.818	60.07
208.037	-5.46
208.255	84.65
208.474	178.86
208.693	21.16
208.911	60.07
209.13	31.4
209.349	80.55
209.567	139.94
209.786	78.51
210.005	41.64
210.223	94.89
210.442	-32.08
210.661	19.11
210.879	55.98
211.098	-17.75
211.316	41.64
211.535	82.6
211.753	84.65
211.972	109.22
212.191	25.26
212.409	31.4
212.628	58.03
212.846	-3.41
213.065	10.92
213.283	137.9
213.502	60.07
213.72	109.22
213.938	41.64
214.157	33.45
214.375	117.42
214.594	53.93
214.812	90.79
215.031	31.4
215.249	31.4
215.467	105.13
215.686	53.93
215.904	101.03
216.122	88.75
216.341	115.37
216.559	111.27
216.778	162.47
216.996	242.34
217.214	-1.37
217.432	-15.7
217.651	-107.86
217.869	90.79
218.087	98.99
218.306	-9.56
218.524	133.8
218.742	64.17
218.96	98.99
219.179	-38.23
219.397	21.16
219.615	182.95
219.833	115.37
220.051	33.45
220.27	96.94
220.488	129.7
220.706	119.46
220.924	-1.37
221.142	35.5
221.36	49.83
221.578	131.75
221.796	86.7
222.015	88.75
222.233	27.31
222.451	141.99
222.669	33.45
222.887	146.09
223.105	27.31
223.323	47.79
223.541	51.88
223.759	82.6
223.977	45.74
224.195	144.04
224.413	41.64
224.631	180.9
224.849	4.78
225.067	211.62
225.285	43.69
225.503	47.79
225.721	-99.67
225.939	86.7
226.157	49.83
226.375	268.97
226.592	-13.65
226.81	37.55
227.028	109.22
227.246	185
227.464	35.5
227.682	146.09
227.9	92.84
228.117	94.89
228.335	70.31
228.553	133.8
228.771	21.16
228.989	64.17
229.206	141.99
229.424	25.26
229.642	72.36
229.86	76.46
230.077	125.61
230.295	74.41
230.513	72.36
230.731	76.46
230.948	256.68
231.166	164.52
231.384	43.69
231.601	-34.13
231.819	182.95
232.037	25.26
232.254	-1.37
232.472	-15.7
232.689	39.59
232.907	201.38
233.125	17.07
233.342	27.31
233.56	41.64
233.777	29.35
233.995	25.26
234.213	121.51
234.43	117.42
234.648	21.16
234.865	55.98
235.083	68.27
235.3	19.11
235.518	88.75
235.735	119.46
235.953	64.17
236.17	43.69
236.388	-42.32
236.605	60.07
236.822	117.42
237.04	166.57
237.257	84.65
237.475	-7.51
237.692	70.31
237.909	86.7
238.127	4.78
238.344	84.65
238.562	72.36
238.779	78.51
238.996	-13.65
239.214	86.7
239.431	164.52
239.648	-21.85
239.865	53.93
240.083	117.42
240.3	78.51
240.517	45.74
240.735	96.94
240.952	107.18
241.169	51.88
241.386	55.98
241.603	41.64
241.821	-15.7
242.038	96.94
242.255	113.32
242.472	-38.23
242.689	119.46
242.907	148.14
243.124	80.55
243.341	82.6
243.558	25.26
243.775	-13.65
243.992	-5.46
244.209	174.76
244.426	172.71
244.643	72.36
244.86	-5.46
245.078	70.31
245.295	101.03
245.512	-36.18
245.729	21.16
245.946	82.6
246.163	66.22
246.38	55.98
246.597	74.41
246.814	51.88
247.031	37.55
247.248	58.03
247.464	68.27
247.681	45.74
247.898	94.89
248.115	115.37
248.332	10.92
248.549	185
248.766	131.75
248.983	129.7
249.2	80.55
249.417	55.98
249.633	-9.56
249.85	111.27
250.067	35.5
250.284	-3.41
250.501	51.88
250.717	101.03
250.934	-15.7
251.151	49.83
251.368	111.27
251.585	66.22
251.801	-21.85
252.018	-13.65
252.235	209.58
252.451	-103.76
252.668	80.55
252.885	170.66
253.102	107.18
253.318	76.46
253.535	-38.23
253.752	-30.04
253.968	6.83
254.185	-3.41
254.401	90.79
254.618	135.85
254.835	-54.61
255.051	74.41
255.268	82.6
255.484	103.08
255.701	66.22
255.917	45.74
256.134	-9.56
256.351	37.55
256.567	21.16
256.784	64.17
257	39.59
257.217	90.79
257.433	150.18
257.65	53.93
257.866	117.42
258.082	-54.61
258.299	-66.9
258.515	121.51
258.732	-46.42
258.948	10.92
259.165	66.22
259.381	-36.18
259.597	109.22
259.814	84.65
260.03	62.12
260.246	84.65
260.463	101.03
260.679	162.47
260.895	84.65
261.112	121.51
261.328	23.21
261.544	-75.09
261.761	195.24
261.977	-5.46
262.193	-11.61
262.409	105.13
262.626	25.26
262.842	53.93
263.058	27.31
263.274	98.99
263.49	39.59
263.707	111.27
263.923	84.65
264.139	-34.13
264.355	84.65
264.571	121.51
264.787	49.83
265.004	176.81
265.22	47.79
265.436	-21.85
265.652	8.87
265.868	88.75
266.084	8.87
266.3	-11.61
266.516	-64.85
266.732	60.07
266.948	27.31
267.164	39.59
267.38	178.86
267.596	162.47
267.812	154.28
268.028	39.59
268.244	-38.23
268.46	92.84
268.676	33.45
268.892	-1.37
269.108	74.41
269.324	29.35
269.54	-60.76
269.756	76.46
269.972	-89.43
270.188	8.87
270.403	-19.8
270.619	19.11
270.835	105.13
271.051	31.4
271.267	-50.52
271.483	49.83
271.698	96.94
271.914	131.75
272.13	12.97
272.346	55.98
272.562	148.14
272.777	111.27
272.993	37.55
273.209	82.6
273.425	121.51
273.64	-42.32
273.856	98.99
274.072	41.64
274.287	-30.04
274.503	158.38
274.719	62.12
274.934	31.4
275.15	-44.37
275.366	55.98
275.581	2.73
275.797	58.03
276.012	55.98
276.228	15.02
276.444	158.38
276.659	178.86
276.875	-30.04
277.09	-44.37
277.306	53.93
277.521	115.37
277.737	127.66
277.952	146.09
278.168	-3.41
278.383	43.69
278.599	141.99
278.814	146.09
279.03	15.02
279.245	166.57
279.461	111.27
279.676	154.28
279.892	-60.76
280.107	-3.41
280.322	21.16
280.538	74.41
280.753	-36.18
280.969	43.69
281.184	74.41
281.399	121.51
281.615	90.79
281.83	113.32
282.045	2.73
282.26	-23.89
282.476	84.65
282.691	137.9
282.906	125.61
283.122	27.31
283.337	-48.47
283.552	51.88
283.767	31.4
283.983	129.7
284.198	6.83
284.413	31.4
284.628	-42.32
284.843	19.11
285.058	92.84
285.274	45.74
285.489	6.83
285.704	139.94
285.919	-56.66
286.134	98.99
286.349	82.6
286.564	19.11
286.779	113.32
286.995	49.83
287.21	55.98
287.425	105.13
287.64	-5.46
287.855	29.35
288.07	-81.24
288.285	119.46
288.5	170.66
288.715	45.74
288.93	90.79
289.145	25.26
289.36	117.42
289.575	0.68
289.79	172.71
290.004	62.12
290.219	199.34
290.434	45.74
290.649	4.78
290.864	64.17
291.079	10.92
291.294	51.88
291.509	43.69
291.724	146.09
291.938	70.31
292.153	58.03
292.368	41.64
292.583	35.5
292.798	78.51
293.012	66.22
293.227	113.32
293.442	49.83
293.657	45.74
293.871	133.8
294.086	76.46
294.301	180.9
294.516	178.86
294.73	29.35
294.945	15.02
295.16	29.35
295.374	215.72
295.589	105.13
295.804	-15.7
296.018	74.41
296.233	144.04
296.447	127.66
296.662	35.5
296.877	86.7
297.091	121.51
297.306	43.69
297.52	-62.8
297.735	90.79
297.949	135.85
298.164	51.88
298.378	47.79
298.593	37.55
298.807	6.83
299.022	80.55
299.236	170.66
299.451	29.35
299.665	-62.8
299.88	6.83
300.094	146.09
300.309	31.4
300.523	84.65
300.737	4.78
300.952	29.35
301.166	137.9
301.381	45.74
301.595	-34.13
301.809	74.41
302.024	-15.7
302.238	-15.7
302.452	98.99
302.667	51.88
302.881	135.85
303.095	109.22
303.309	146.09
303.524	76.46
303.738	51.88
303.952	47.79
304.166	133.8
304.381	-95.57
304.595	199.34
304.809	-27.99
305.023	76.46
305.237	55.98
305.452	-5.46
305.666	113.32
305.88	107.18
306.094	101.03
306.308	17.07
306.522	76.46
306.736	64.17
306.95	156.33
307.164	51.88
307.379	43.69
307.593	211.62
307.807	189.1
308.021	148.14
308.235	156.33
308.449	-99.67
308.663	80.55
308.877	225.96
309.091	19.11
309.305	103.08
309.519	-36.18
309.733	125.61
309.947	-40.28
310.161	86.7
310.374	164.52
310.588	84.65
310.802	70.31
311.016	27.31
311.23	82.6
311.444	-9.56
311.658	-42.32
311.872	82.6
312.085	82.6
312.299	180.9
312.513	187.05
312.727	58.03
312.941	-21.85
313.154	168.62
313.368	49.83
313.582	55.98
313.796	-11.61
314.009	12.97
314.223	154.28
314.437	53.93
314.651	135.85
314.864	35.5
315.078	6.83
315.292	-3.41
315.505	12.97
315.719	191.14
315.933	131.75
316.146	55.98
316.36	-23.89
316.573	191.14
316.787	76.46
317.001	70.31
317.214	-32.08
317.428	103.08
317.641	19.11
317.855	68.27
318.068	58.03
318.282	82.6
318.495	217.77
318.709	78.51
318.922	64.17
319.136	166.57
319.349	123.56
319.563	6.83
319.776	62.12
319.99	-91.48
320.203	76.46
320.417	41.64
320.63	51.88
320.843	248.49
321.057	49.83
321.27	49.83
321.483	105.13
321.697	88.75
321.91	121.51
322.124	62.12
322.337	17.07
322.55	23.21
322.763	51.88
322.977	72.36
323.19	107.18
323.403	127.66
323.617	74.41
323.83	187.05
324.043	2.73
324.256	31.4
324.469	-5.46
324.683	187.05
324.896	17.07
325.109	4.78
325.322	-79.19
325.535	133.8
325.748	66.22
325.962	62.12
326.175	19.11
326.388	49.83
326.601	49.83
326.814	-19.8
327.027	62.12
327.24	170.66
327.453	2.73
327.666	53.93
327.879	66.22
328.092	131.75
328.305	29.35
328.518	62.12
328.731	-15.7
328.944	4.78
329.157	66.22
329.37	78.51
329.583	160.42
329.796	109.22
330.009	-71
330.222	103.08
330.435	103.08
330.648	105.13
330.861	78.51
331.073	64.17
331.286	170.66
331.499	78.51
331.712	-11.61
331.925	88.75
332.138	162.47
332.35	90.79
332.563	-15.7
332.776	135.85
332.989	-21.85
333.202	49.83
333.414	15.02
333.627	70.31
333.84	74.41
334.053	131.75
334.265	51.88
334.478	17.07
334.691	12.97
334.903	72.36
335.116	29.35
335.329	64.17
335.541	168.62
335.754	207.53
335.966	-7.51
336.179	105.13
336.392	21.16
336.604	92.84
336.817	103.08
337.029	23.21
337.242	68.27
337.454	2.73
337.667	23.21
337.88	197.29
338.092	82.6
338.305	86.7
338.517	17.07
338.729	96.94
338.942	139.94
339.154	45.74
339.367	-1.37
339.579	129.7
339.792	-9.56
340.004	107.18
340.217	31.4
340.429	103.08
340.641	21.16
340.854	-3.41
341.066	-50.52
341.278	94.89
341.491	197.29
341.703	27.31
341.915	58.03
342.128	33.45
342.34	107.18
342.552	-48.47
342.764	53.93
342.977	84.65
343.189	162.47
343.401	168.62
343.613	-27.99
343.826	66.22
344.038	45.74
344.25	76.46
344.462	29.35
344.674	53.93
344.886	-5.46
345.099	64.17
345.311	137.9
345.523	64.17
345.735	-77.14
345.947	70.31
346.159	72.36
346.371	-1.37
346.583	45.74
346.795	156.33
347.007	-64.85
347.219	60.07
347.431	64.17
347.643	209.58
347.855	72.36
348.067	187.05
348.279	-54.61
348.491	80.55
348.703	162.47
348.915	-5.46
349.127	6.83
349.339	121.51
349.551	-7.51
349.763	111.27
349.975	84.65
350.187	111.27
350.399	174.76
350.61	80.55
350.822	43.69
351.034	64.17
351.246	51.88
351.458	94.89
351.669	64.17
351.881	141.99
352.093	127.66
352.305	113.32
352.517	21.16
352.728	144.04
352.94	58.03
353.152	47.79
353.363	-32.08
353.575	66.22
353.787	162.47
353.999	96.94
354.21	170.66
354.422	41.64
354.633	21.16
354.845	148.14
355.057	170.66
355.268	119.46
355.48	117.42
355.692	-17.75
355.903	53.93
356.115	-21.85
356.326	-54.61
356.538	240.3
356.749	51.88
356.961	215.72
357.172	-15.7
357.384	-34.13
357.595	189.1
357.807	31.4
358.018	-9.56
358.23	117.42
358.441	174.76
358.653	156.33
358.864	15.02
359.075	41.64
359.287	88.75
359.498	86.7
359.709	152.23
359.921	84.65
360.132	58.03
360.344	107.18
360.555	43.69
360.766	193.19
360.977	82.6
361.189	60.07
361.4	-11.61
361.611	152.23
361.823	146.09
362.034	55.98
362.245	-87.38
362.456	47.79
362.667	86.7
362.879	8.87
363.09	146.09
363.301	86.7
363.512	66.22
363.723	-30.04
363.935	-38.23
364.146	74.41
364.357	29.35
364.568	113.32
364.779	-25.94
364.99	146.09
365.201	66.22
365.412	78.51
365.623	-7.51
365.834	68.27
366.045	-46.42
366.256	109.22
366.467	74.41
366.678	15.02
366.889	68.27
367.1	-9.56
367.311	60.07
367.522	60.07
367.733	129.7
367.944	84.65
368.155	6.83
368.366	96.94
368.577	96.94
368.788	172.71
368.999	-50.52
369.209	94.89
369.42	199.34
369.631	283.3
369.842	164.52
370.053	-27.99
370.264	96.94
370.474	12.97
370.685	35.5
370.896	-17.75
371.107	164.52
371.317	92.84
371.528	39.59
371.739	90.79
371.95	64.17
372.16	88.75
372.371	-38.23
372.582	58.03
372.792	62.12
373.003	148.14
373.214	101.03
373.424	88.75
373.635	17.07
373.846	182.95
374.056	74.41
374.267	74.41
374.477	62.12
374.688	72.36
374.898	78.51
375.109	84.65
375.319	115.37
375.53	158.38
375.74	82.6
375.951	6.83
376.161	62.12
376.372	160.42
376.582	33.45
376.793	68.27
377.003	-46.42
377.214	-44.37
377.424	154.28
377.635	109.22
377.845	19.11
378.055	105.13
378.266	-101.72
378.476	17.07
378.686	86.7
378.897	-15.7
379.107	62.12
379.317	49.83
379.528	21.16
379.738	35.5
379.948	-36.18
380.158	150.18
380.369	74.41
380.579	109.22
380.789	43.69
380.999	125.61
381.21	74.41
381.42	158.38
381.63	23.21
381.84	96.94
382.05	137.9
382.261	137.9
382.471	141.99
382.681	58.03
382.891	144.04
383.101	141.99
383.311	55.98
383.521	86.7
383.731	62.12
383.941	111.27
384.151	45.74
384.361	88.75
384.571	70.31
384.781	115.37
384.991	262.82
385.201	244.39
385.411	178.86
385.621	51.88
385.831	39.59
386.041	101.03
386.251	39.59
386.461	156.33
386.671	58.03
386.881	-7.51
387.091	74.41
387.301	139.94
387.511	-34.13
387.72	146.09
387.93	49.83
388.14	-56.66
388.35	127.66
388.56	193.19
388.769	185
388.979	29.35
389.189	4.78
389.399	43.69
389.609	146.09
389.818	74.41
390.028	121.51
390.238	166.57
390.447	29.35
390.657	101.03
390.867	4.78
391.076	12.97
391.286	133.8
391.496	55.98
391.705	74.41
391.915	133.8
392.125	180.9
392.334	55.98
392.544	174.76
392.753	105.13
392.963	23.21
393.172	37.55
393.382	49.83
393.591	174.76
393.801	78.51
394.01	178.86
394.22	70.31
394.429	12.97
394.639	92.84
394.848	96.94
395.058	117.42
395.267	58.03
395.477	131.75
395.686	107.18
395.895	133.8
396.105	197.29
396.314	92.84
396.524	41.64
396.733	66.22
396.942	146.09
397.152	45.74
397.361	193.19
397.57	139.94
397.78	74.41
397.989	125.61
398.198	168.62
398.407	33.45
398.617	17.07
398.826	84.65
399.035	80.55
399.244	107.18
399.453	80.55
399.663	107.18
399.872	119.46
400.081	0.68
400.29	170.66
400.499	21.16
400.708	113.32
400.917	43.69
401.127	88.75
401.336	8.87
401.545	185
401.754	160.42
401.963	111.27
402.172	74.41
402.381	37.55
402.59	-25.94
402.799	76.46
403.008	168.62
403.217	133.8
403.426	92.84
403.635	15.02
403.844	133.8
404.053	4.78
404.262	35.5
404.471	195.24
404.68	92.84
404.888	113.32
405.097	107.18
405.306	72.36
405.515	203.43
405.724	15.02
405.933	133.8
406.142	64.17
406.35	92.84
406.559	-3.41
406.768	90.79
406.977	109.22
407.185	70.31
407.394	168.62
407.603	10.92
407.812	148.14
408.02	131.75
408.229	131.75
408.438	80.55
408.646	-56.66
408.855	49.83
409.064	86.7
409.272	80.55
409.481	170.66
409.69	-1.37
409.898	0.68
410.107	109.22
410.315	135.85
410.524	21.16
410.733	103.08
410.941	113.32
411.15	135.85
411.358	45.74
411.567	211.62
411.775	107.18
411.984	70.31
412.192	98.99
412.401	115.37
412.609	178.86
412.818	125.61
413.026	103.08
413.234	45.74
413.443	88.75
413.651	39.59
413.86	72.36
414.068	144.04
414.276	211.62
414.485	62.12
414.693	185
414.901	244.39
415.11	107.18
415.318	-9.56
415.526	80.55
415.734	141.99
415.943	111.27
416.151	148.14
416.359	15.02
416.567	84.65
416.776	209.58
416.984	144.04
417.192	127.66
417.4	21.16
417.608	23.21
417.817	21.16
418.025	125.61
418.233	203.43
418.441	23.21
418.649	2.73
418.857	105.13
419.065	141.99
419.273	113.32
419.481	35.5
419.689	105.13
419.897	62.12
420.105	-64.85
420.313	88.75
420.521	185
420.729	180.9
420.937	62.12
421.145	96.94
421.353	193.19
421.561	146.09
421.769	96.94
421.977	96.94
422.185	205.48
422.393	156.33
422.601	187.05
422.809	133.8
423.017	84.65
423.224	98.99
423.432	238.25
423.64	92.84
423.848	170.66
424.056	31.4
424.263	137.9
424.471	86.7
424.679	219.82
424.887	-5.46
425.094	178.86
425.302	117.42
425.51	103.08
425.718	66.22
425.925	78.51
426.133	-9.56
426.341	297.64
426.548	4.78
426.756	94.89
426.964	96.94
427.171	74.41
427.379	62.12
427.586	90.79
427.794	172.71
428.001	178.86
428.209	146.09
428.417	252.58
428.624	180.9
428.832	117.42
429.039	221.86
429.247	141.99
429.454	148.14
429.662	219.82
429.869	191.14
430.076	154.28
430.284	191.14
430.491	363.17
430.699	137.9
430.906	254.63
431.114	242.34
431.321	180.9
431.528	133.8
431.736	176.81
431.943	191.14
432.15	236.2
432.358	273.06
432.565	322.21
432.772	25.26
432.979	277.16
433.187	170.66
433.394	320.17
433.601	187.05
433.808	283.3
434.016	324.26
434.223	311.97
434.43	385.7
434.637	379.56
434.844	400.04
435.052	215.72
435.259	260.77
435.466	389.8
435.673	340.65
435.88	432.8
436.087	389.8
436.294	410.28
436.501	406.18
436.708	357.03
436.915	436.9
437.122	451.24
437.329	381.6
437.537	379.56
437.743	486.05
437.95	565.92
438.157	572.07
438.364	492.2
438.571	484
438.778	625.31
438.985	518.82
439.192	592.55
439.399	547.49
439.606	682.66
439.813	629.41
440.02	791.2
440.227	887.45
440.433	703.14
440.64	754.34
440.847	649.89
441.054	752.29
441.261	1002.14
441.467	735.9
441.674	778.91
441.881	922.27
442.088	869.02
442.294	996
442.501	1077.91
442.708	1036.95
442.914	1034.91
443.121	1116.83
443.328	1116.83
443.534	1301.14
443.741	1188.5
443.948	1188.5
444.154	1268.38
444.361	1475.22
444.568	1368.73
444.774	1325.72
444.981	1295
445.187	1548.95
445.394	1534.61
445.6	1483.41
445.807	1731.22
446.013	1829.52
446.22	1657.49
446.426	1798.8
446.633	2001.55
446.839	2183.82
447.046	1964.68
447.252	2054.8
447.459	2138.76
447.665	2144.91
447.871	2296.46
448.078	2515.59
448.284	2556.55
448.491	2699.91
448.697	2720.39
448.903	2744.96
449.11	2896.51
449.316	2847.36
449.522	3113.6
449.728	3203.71
449.935	3283.58
450.141	3324.54
450.347	3605.11
450.553	3512.95
450.76	3684.98
450.966	3715.7
451.172	4008.56
451.378	4141.68
451.584	4178.54
451.791	4549.22
451.997	4524.65
452.203	4749.92
452.409	4872.8
452.615	5347.93
452.821	5048.93
453.027	5096.03
453.233	5747.28
453.44	5601.88
453.646	5812.82
453.852	5980.75
454.058	6216.27
454.264	6586.95
454.47	6904.39
454.676	7105.09
454.882	7389.75
455.088	7299.64
455.294	7789.11
455.5	8122.93
455.705	8579.62
455.911	8671.78
456.117	8778.28
456.323	9234.97
456.529	8960.55
456.735	9980.43
456.941	10177.04
457.147	10619.4
457.352	10902.02
457.558	11100.67
457.764	12059.12
457.97	12208.62
458.176	12702.18
458.381	13406.69
458.587	13638.11
458.793	14315.98
458.999	14170.58
459.204	15942.07
459.41	16660.91
459.616	16124.34
459.821	17381.79
460.027	17910.17
460.233	18762.12
460.438	18854.28
460.644	19747.2
460.85	20367.73
461.055	20980.07
461.261	21956.96
461.466	21408.1
461.672	22090.07
461.878	24758.58
462.083	24217.91
462.289	24777.01
462.494	25817.38
462.7	26192.15
462.905	26671.38
463.111	28625.14
463.316	30130.4
463.522	30183.65
463.727	31117.52
463.932	32297.15
464.138	33767.59
464.343	34928.79
464.549	34865.3
464.754	37531.76
464.959	38387.81
465.165	39235.67
465.37	38975.58
465.575	38793.31
465.781	41453.62
465.986	42674.21
466.191	41992.23
466.397	42252.33
466.602	41769.01
466.807	43792.4
467.012	44718.08
467.218	44914.69
467.423	45199.35
467.628	46634.98
467.833	49170.36
468.038	47931.34
468.244	47247.32
468.449	49309.63
468.654	48549.83
468.859	48443.34
469.064	48652.23
469.269	47265.75
469.474	47658.96
469.679	49258.43
469.885	47763.41
470.09	48441.29
470.295	48537.54
470.5	47460.31
470.705	47466.45
470.91	46278.63
471.115	46045.16
471.32	46823.39
471.525	46524.39
471.73	45385.72
471.935	44791.81
472.139	43257.88
472.344	43776.01
472.549	43204.63
472.754	42436.64
472.959	41148.47
473.164	39940.17
473.369	39798.86
473.574	40636.48
473.778	39764.04
473.983	38975.58
474.188	38283.36
474.393	36839.54
474.598	36403.33
474.802	35393.68
475.007	35362.96
475.212	34949.27
475.417	33665.19
475.621	33417.39
475.826	32934.07
476.031	32164.03
476.235	31410.38
476.44	31363.28
476.645	30642.39
476.849	30370.01
477.054	30040.29
477.259	29157.61
477.463	28911.86
477.668	28201.21
477.872	28172.54
478.077	27523.33
478.282	26771.73
478.486	26497.3
478.691	26216.73
478.895	25809.18
479.1	25606.44
479.304	25696.55
479.509	24709.43
479.713	25127.21
479.918	24478.01
480.122	24176.95
480.326	24183.1
480.531	24211.77
480.735	23906.62
480.94	23382.34
481.144	24117.56
481.348	23243.08
481.553	23099.72
481.757	22583.63
481.961	22948.17
482.166	22741.33
482.37	22514
482.574	21979.48
482.778	22182.23
482.983	22243.67
483.187	21862.75
483.391	21670.24
483.595	21459.3
483.8	21350.76
484.004	21191.02
484.208	21168.49
484.412	20791.66
484.616	20676.98
484.821	20328.82
485.025	20017.53
485.229	20189.56
485.433	19304.84
485.637	19329.41
485.841	18962.83
486.045	18727.31
486.249	18864.52
486.453	18645.39
486.657	17985.94
486.861	17842.59
487.065	17197.48
487.269	17338.79
487.473	16900.52
487.677	16824.75
487.881	17080.74
488.085	16294.32
488.289	15972.79
488.493	15608.25
488.697	15788.47
488.901	15249.86
489.105	14893.51
489.309	14717.39
489.512	14582.22
489.716	14045.65
489.92	13760.98
490.124	13738.46
490.328	13779.42
490.531	13208.03
490.735	13171.17
490.939	12882.41
491.143	12567.02
491.346	12444.14
491.55	12286.45
491.754	11897.33
491.958	11999.73
492.161	11811.32
492.365	11514.36
492.569	11305.47
492.772	11297.28
492.976	11205.12
493.18	10758.66
493.383	10938.88
493.587	10713.61
493.79	10590.73
493.994	10490.38
494.197	10412.56
494.401	10322.45
494.605	10093.07
494.808	10101.26
495.012	9851.41
495.215	9939.47
495.419	9906.71
495.622	9572.89
495.825	9595.42
496.029	9472.54
496.232	9851.41
496.436	9525.79
496.639	9785.88
496.843	9607.7
497.046	9562.65
497.249	9644.57
497.453	9669.14
497.656	9728.53
497.859	9667.1
498.063	9693.72
498.266	9966.1
498.469	9751.06
498.673	9609.75
498.876	9706.01
499.079	9982.48
499.282	9789.97
499.485	10142.22
499.689	9871.89
499.892	10240.53
500.095	9863.7
500.298	10170.9
500.501	10062.35
500.705	10281.49
500.908	10557.96
501.111	10449.42
501.314	10701.32
501.517	10635.78
501.72	10844.68
501.923	10920.45
502.126	11067.91
502.329	11317.76
502.532	11106.82
502.735	11106.82
502.938	11518.46
503.141	11649.53
503.344	11651.58
503.547	11758.07
503.75	11899.38
503.953	12128.75
504.156	12564.97
504.359	12417.52
504.562	12607.98
504.765	13005.28
504.968	13216.22
505.17	13562.33
505.373	13513.18
505.576	13615.58
505.779	13826.52
505.982	13703.64
506.185	14477.77
506.387	14481.87
506.59	14901.7
506.793	15083.97
506.996	15352.26
507.198	16023.99
507.401	15851.96
507.604	16490.93
507.807	16808.36
508.009	17093.03
508.212	17211.81
508.415	17490.34
508.617	18080.15
508.82	18375.06
509.022	18373.01
509.225	19392.9
509.428	19231.11
509.63	19845.5
509.833	19984.76
510.035	21129.58
510.238	20949.35
510.44	21639.52
510.643	22096.22
510.845	22772.05
511.048	22890.83
511.25	23253.32
511.453	23900.48
511.655	24926.51
511.858	25069.87
512.06	25383.21
512.262	26079.52
512.465	26347.8
512.667	26921.23
512.87	27842.82
513.072	27945.22
513.274	29300.97
513.477	29659.37
513.679	30288.09
513.881	31047.89
514.084	31617.22
514.286	32192.7
514.488	32995.51
514.69	34205.86
514.893	34652.31
515.095	34912.41
515.297	35483.79
515.499	36219.01
515.701	37056.63
515.904	37898.34
516.106	38879.32
516.308	39336.02
516.51	40392.77
516.712	41234.49
516.914	42029.1
517.116	42639.39
517.318	43493.4
517.52	43671.57
517.722	44529.67
517.925	45039.61
518.127	46696.42
518.329	47161.31
518.531	47329.24
518.733	48586.69
518.935	49557.43
519.136	49622.97
519.338	50743.2
519.54	51314.59
519.742	52240.27
519.944	52938.63
520.146	53817.21
520.348	54194.03
520.55	54523.75
520.752	55367.52
520.954	56368.97
521.155	56397.65
521.357	57507.65
521.559	57984.82
521.761	58707.75
521.963	58670.89
522.164	59520.8
522.366	59453.22
522.568	60344.08
522.77	60550.93
522.971	61642.49
523.173	61134.6
523.375	61988.6
523.576	61658.88
523.778	62033.66
523.98	62658.29
524.181	62758.64
524.383	62822.12
524.584	63610.59
524.786	62822.12
524.988	63456.99
525.189	63315.68
525.391	63311.59
525.592	63661.79
525.794	63774.43
525.995	63407.84
526.197	63672.03
526.398	63547.11
526.6	63284.96
526.801	63495.91
527.003	62951.15
527.204	62942.95
527.406	63319.78
527.607	62594.8
527.808	62916.33
528.01	61667.07
528.211	61880.06
528.412	61929.21
528.614	61607.68
528.815	60688.14
529.016	60843.79
529.218	59461.41
529.419	59682.59
529.62	59246.37
529.822	58421.04
530.023	58017.59
530.224	57863.99
530.425	57026.37
530.626	56096.59
530.828	55666.52
531.029	56082.26
531.23	54447.98
531.431	53772.15
531.632	53792.63
531.833	53505.91
532.035	52883.33
532.236	52115.34
532.437	51656.6
532.638	50837.41
532.839	50294.7
533.04	49770.42
533.241	48369.61
533.442	48771.01
533.643	48111.56
533.844	46968.8
534.045	47101.92
534.246	45940.72
534.447	45488.12
534.648	44834.81
534.849	44187.66
535.05	43788.3
535.251	43421.72
535.451	42352.68
535.652	41764.91
535.853	41240.63
536.054	40824.89
536.255	40204.36
536.456	39448.66
536.657	39571.53
536.857	38797.4
537.058	38084.71
537.259	38226.02
537.46	37675.12
537.66	36839.54
537.861	36208.77
538.062	35651.72
538.263	35389.58
538.463	35063.96
538.664	34500.76
538.865	34095.27
539.065	33824.93
539.266	32958.64
539.466	33034.42
539.667	32243.9
539.868	32321.73
540.068	31779.01
540.269	31289.55
540.469	31086.8
540.67	30580.95
540.87	30257.37
541.071	29808.87
541.271	29749.48
541.472	29516.01
541.672	29044.98
541.873	28295.42
542.073	27742.47
542.274	28008.7
542.474	27498.76
542.675	27277.58
542.875	27128.08
543.075	26781.97
543.276	26089.76
543.476	26306.84
543.676	25497.89
543.877	25471.27
544.077	25518.37
544.277	24813.87
544.478	24385.85
544.678	24408.37
544.878	24283.45
545.078	23718.21
545.279	23673.15
545.479	23128.39
545.679	23320.9
545.879	22851.92
546.079	22419.8
546.28	22264.15
546.48	21780.83
546.68	21954.91
546.88	21637.47
547.08	21033.32
547.28	20877.68
547.48	20580.72
547.68	20877.68
547.88	20183.41
548.081	19980.67
548.281	19575.17
548.481	19497.35
548.681	19526.02
548.881	18977.16
549.081	18706.83
549.28	18028.95
549.48	18180.5
549.68	18026.9
549.88	17883.55
550.08	17406.37
550.28	17367.46
550.48	17154.47
550.68	17113.51
550.88	16624.04
551.08	16386.48
551.279	16386.48
551.479	15735.23
551.679	15843.77
551.879	15317.44
552.079	15606.2
552.278	15049.16
552.478	14924.23
552.678	14621.13
552.878	14404.05
553.077	14191.06
553.277	13937.11
553.477	13629.91
553.676	13627.87
553.876	13181.41
554.076	13089.25
554.275	12923.37
554.475	12380.65
554.674	12446.19
554.874	12394.99
555.074	12098.03
555.273	11964.92
555.473	11538.94
555.672	11500.03
555.872	11319.81
556.071	11332.09
556.271	11209.22
556.47	10793.48
556.67	10619.4
556.869	10525.19
557.068	10261.01
557.268	10195.47
557.467	9996.82
557.667	9849.36
557.866	9734.68
558.065	9445.91
558.265	9286.17
558.464	9040.42
558.663	8884.77
558.863	9001.51
559.062	8809
559.261	8634.92
559.461	8608.3
559.66	8239.66
559.859	8217.13
560.058	7987.76
560.258	7879.22
560.457	7873.07
560.656	7848.5
560.855	7397.95
561.054	7580.22
561.253	7287.36
561.453	7150.14
561.652	7141.95
561.851	7207.48
562.05	6857.28
562.249	6742.6
562.448	6797.89
562.647	6586.95
562.846	6320.71
563.045	6632.01
563.244	6361.67
563.443	6388.3
563.642	6212.17
563.841	6093.39
564.04	5870.16
564.239	5855.83
564.438	5929.55
564.637	5757.52
564.836	5673.56
565.035	5589.59
565.234	5474.9
565.432	5223
565.631	5335.64
565.83	5362.26
566.029	5184.09
566.228	5030.49
566.427	4969.05
566.625	4772.45
566.824	4866.66
567.023	4668
567.222	4700.77
567.42	4672.1
567.619	4706.91
567.818	4541.03
568.016	4610.66
568.215	4407.91
568.414	4379.24
568.612	4213.35
568.811	4358.76
569.01	4303.46
569.208	3977.84
569.407	4108.91
569.605	4127.34
569.804	3928.69
570.002	3924.59
570.201	3734.13
570.4	3865.2
570.598	3770.99
570.797	3650.16
570.995	3687.03
571.193	3390.07
571.392	3558
571.59	3400.31
571.789	3371.64
571.987	3510.9
572.186	3236.47
572.384	3332.73
572.582	3269.24
572.781	3228.28
572.979	2980.48
573.177	3052.16
573.376	3056.25
573.574	3115.64
573.772	2951.81
573.971	2871.93
574.169	2822.78
574.367	2833.02
574.565	2785.92
574.763	2622.08
574.962	2796.16
575.16	2562.69
575.358	2478.72
575.556	2579.08
575.754	2466.44
575.952	2615.94
576.151	2421.38
576.349	2419.33
576.547	2192.01
576.745	2290.31
576.943	2286.22
577.141	2284.17
577.339	2216.58
577.537	2251.4
577.735	2253.45
577.933	2114.19
578.131	2054.8
578.329	2187.91
578.527	2032.27
578.725	1960.59
578.923	1870.48
579.121	2122.38
579.319	1755.79
579.516	1819.28
579.714	2001.55
579.912	1907.34
580.11	1677.97
580.308	1759.89
580.506	1729.17
580.704	1645.2
580.901	1620.63
581.099	1802.9
581.297	1614.48
581.495	1624.72
581.692	1524.37
581.89	1690.26
582.088	1616.53
582.285	1528.47
582.483	1520.28
582.681	1440.4
582.878	1485.46
583.076	1473.17
583.274	1467.03
583.471	1526.42
583.669	1473.17
583.866	1264.28
584.064	1329.81
584.262	1335.96
584.459	1202.84
584.657	1196.7
584.854	1362.58
585.052	1288.85
585.249	1362.58
585.447	1211.03
585.644	1155.74
585.841	1301.14
586.039	1254.04
586.236	1264.28
586.434	1053.34
586.631	1088.15
586.828	1098.39
587.026	1145.5
587.223	858.78
587.42	977.56
587.618	1102.49
587.815	1088.15
588.012	967.32
588.21	1049.24
588.407	1016.48
588.604	1055.39
588.801	916.12
588.999	1014.43
589.196	973.47
589.393	932.51
589.59	918.17
589.787	903.84
589.984	1020.57
590.182	985.76
590.379	952.99
590.576	914.08
590.773	805.53
590.97	834.21
591.167	950.94
591.364	897.69
591.561	836.25
591.758	991.9
591.955	887.45
592.152	828.06
592.349	883.36
592.546	860.83
592.743	801.44
592.94	848.54
593.137	842.4
593.334	873.12
593.531	985.76
593.727	955.04
593.924	778.91
594.121	821.92
594.318	789.15
594.515	903.84
594.712	957.08
594.908	979.61
595.105	895.64
595.302	899.74
595.499	936.6
595.696	1104.54
595.892	840.35
596.089	1094.3
596.286	965.28
596.482	1118.87
596.679	979.61
596.876	979.61
597.072	1098.39
597.269	1010.33
597.466	1114.78
597.662	1129.11
597.859	1147.55
598.055	1170.07
598.252	1243.8
598.448	1411.73
598.645	1333.91
598.841	1417.88
599.038	1505.94
599.234	1499.8
599.431	1538.71
599.627	1557.14
599.824	1725.07
600.02	1677.97
600.217	1686.16
600.413	1811.09
600.609	1862.29
600.806	2179.72
601.002	2015.88
601.198	1929.87
601.395	2288.26
601.591	2284.17
601.787	2458.25
601.984	2456.2
602.18	2491.01
602.376	2472.58
602.572	2761.34
602.769	2841.22
602.965	2871.93
603.161	3125.88
603.357	3154.55
603.553	3211.9
603.75	3136.12
603.946	3471.99
604.142	3525.24
604.338	3666.55
604.534	3697.27
604.73	3723.89
604.926	4012.65
605.122	4237.93
605.318	4207.21
605.514	4389.48
605.71	4455.01
605.906	4698.72
606.102	4721.25
606.298	5034.59
606.494	5259.87
606.69	5319.26
606.886	5409.37
607.082	5485.14
607.278	5644.88
607.474	5970.51
607.67	5915.22
607.866	6074.96
608.062	6294.09
608.257	6419.02
608.453	6681.16
608.649	6832.71
608.845	6894.15
609.041	7180.86
609.236	7537.21
609.432	7821.88
609.628	7766.58
609.824	8077.87
610.019	8159.79
610.215	8385.07
610.411	8747.56
610.606	9036.32
610.802	9005.6
610.998	9501.21
611.193	9726.49
611.389	9914.9
611.584	10123.79
611.78	10127.89
611.976	10689.03
612.171	11166.21
612.367	11270.65
612.562	11543.03
612.758	11860.47
612.953	11954.68
613.149	12577.26
613.344	12366.32
613.539	13142.5
613.735	13259.23
613.93	13720.03
614.126	14066.13
614.321	14469.58
614.517	14981.57
614.712	15251.91
614.907	15546.81
615.103	16032.18
615.298	16472.5
615.493	16982.44
615.688	17133.99
615.884	18209.17
616.079	18028.95
616.274	18571.66
616.47	18942.35
616.665	19452.29
616.86	19876.22
617.055	20369.78
617.25	20789.61
617.445	21594.47
617.641	21997.91
617.836	22409.56
618.031	22831.44
618.226	23681.35
618.421	23941.44
618.616	24764.72
618.811	24791.34
619.006	25975.07
619.201	26319.13
619.396	27162.89
619.591	26845.46
619.786	28348.67
619.981	28412.15
620.176	29255.92
620.371	29544.68
620.566	30331.1
620.761	30550.23
620.956	31881.41
621.151	32004.29
621.346	33116.34
621.541	33083.57
621.735	34357.41
621.93	34478.24
622.125	35340.43
622.32	35772.55
622.515	36632.7
622.709	36864.12
622.904	37783.66
623.099	38316.13
623.294	39733.32
623.488	39143.51
623.683	40177.73
623.878	40867.9
624.072	41719.85
624.267	42424.36
624.462	42917.92
624.656	43411.48
624.851	44302.34
625.046	44632.07
625.24	45510.64
625.435	45576.18
625.629	46591.97
625.824	46860.26
626.018	47808.47
626.213	47259.61
626.407	49016.77
626.602	48697.28
626.796	49905.59
626.991	50548.65
627.185	50425.77
627.38	50720.68
627.574	50892.71
627.768	50620.33
627.963	51419.03
628.157	51525.53
628.352	51935.12
628.546	51840.92
628.74	52203.41
628.935	52094.86
629.129	52029.33
629.323	51431.32
629.517	51675.03
629.712	50943.91
629.906	50849.7
630.1	49661.88
630.294	50268.08
630.489	49403.83
630.683	48879.55
630.877	47982.54
631.071	47067.1
631.265	46772.19
631.459	45699.06
631.653	44724.22
631.848	44322.82
632.042	42686.5
632.236	41930.79
632.43	40812.6
632.624	39710.8
632.818	38613.09
633.012	37105.78
633.206	35844.23
633.4	35074.2
633.594	33484.97
633.788	32854.2
633.982	31654.09
634.176	30613.72
634.369	29368.55
634.563	28387.58
634.757	27048.21
634.951	26454.29
635.145	25520.42
635.339	24232.25
635.533	23478.6
635.726	22337.88
635.92	21129.58
636.114	20668.78
636.308	19853.69
636.501	19155.33
636.695	18102.68
636.889	17529.25
637.083	16699.82
637.276	16030.13
637.47	15344.06
637.664	14887.37
637.857	14324.18
638.051	13818.33
638.244	13128.16
638.438	12681.71
638.632	12161.52
638.825	11420.16
639.019	11067.91
639.212	10764.81
639.406	10265.1
639.599	9837.08
639.793	9560.6
639.986	9263.65
640.18	8921.63
640.373	8518.18
640.567	8118.83
640.76	7807.54
640.954	7594.55
641.147	7084.61
641.34	6855.23
641.534	6885.95
641.727	6597.19
641.92	6273.61
642.114	6201.93
642.307	5882.45
642.5	5466.71
642.694	5247.58
642.887	5190.24
643.08	4993.63
643.273	4842.08
643.467	4596.32
643.66	4430.44
643.853	4129.39
644.046	4186.73
644.239	4047.47
644.432	3756.66
644.626	3568.24
644.819	3392.12
645.012	3336.82
645.205	3326.58
645.398	3160.7
645.591	2849.41
645.784	2869.89
645.977	2722.43
646.17	2726.53
646.363	2509.44
646.556	2366.09
646.749	2321.03
646.942	2370.18
647.135	2294.41
647.328	2071.18
647.521	2126.47
647.714	2017.93
647.907	1976.97
648.099	1712.78
648.292	1868.43
648.485	1700.5
648.678	1639.06
648.871	1551
649.064	1565.33
649.256	1440.4
649.449	1383.06
649.642	1352.34
649.835	1278.62
650.027	1290.9
650.22	1247.9
650.413	1221.27
650.605	1190.55
650.798	1008.28
650.991	1057.43
651.183	967.32
651.376	928.41
651.568	1030.81
651.761	940.7
651.954	860.83
652.146	903.84
652.339	903.84
652.531	893.6
652.724	776.86
652.916	727.71
653.109	551.59
653.301	871.07
653.494	729.76
653.686	676.51
653.879	690.85
654.071	713.38
654.263	592.55
654.456	676.51
654.648	705.18
654.84	621.22
655.033	500.39
655.225	613.03
655.417	510.63
655.61	596.64
655.802	578.21
655.994	617.12
656.186	475.81
656.379	520.87
656.571	336.55
656.763	389.8
656.955	461.48
657.148	449.19
657.34	492.2
657.532	406.18
657.724	395.94
657.916	432.8
658.108	516.77
658.3	445.09
658.492	420.52
658.684	244.39
658.876	475.81
659.068	328.36
659.26	250.53
659.452	383.65
659.644	422.56
659.836	551.59
660.028	248.49
660.22	291.49
660.412	324.26
660.604	211.62
660.796	207.53
660.988	492.2
661.18	283.3
661.372	318.12
661.563	324.26
661.755	266.92
661.947	225.96
662.139	205.48
662.331	307.88
662.522	176.81
662.714	215.72
662.906	268.97
663.097	252.58
663.289	176.81
663.481	135.85
663.673	217.77
663.864	240.3
664.056	338.6
664.247	172.71
664.439	250.53
664.631	275.11
664.822	189.1
665.014	207.53
665.205	205.48
665.397	201.38
665.588	209.58
665.78	281.25
665.971	225.96
666.163	125.61
666.354	232.1
666.546	129.7
666.737	264.87
666.929	125.61
667.12	170.66
667.311	117.42
667.503	170.66
667.694	168.62
667.885	264.87
668.077	230.06
668.268	47.79
668.459	254.63
668.651	146.09
668.842	156.33
669.033	172.71
669.224	86.7
669.416	307.88
669.607	137.9
669.798	86.7
669.989	240.3
670.18	160.42
670.371	166.57
670.563	45.74
670.754	266.92
670.945	277.16
671.136	203.43
671.327	94.89
671.518	217.77
671.709	336.55
671.9	230.06
672.091	234.15
672.282	191.14
672.473	146.09
672.664	154.28
672.855	182.95
673.046	228.01
673.237	217.77
673.428	234.15
673.619	225.96
673.809	86.7
674	268.97
674.191	254.63
674.382	94.89
674.573	152.23
674.764	78.51
674.954	238.25
675.145	101.03
675.336	117.42
675.527	137.9
675.717	189.1
675.908	107.18
676.099	152.23
676.289	160.42
676.48	76.46
676.671	187.05
676.861	107.18
677.052	176.81
677.243	174.76
677.433	92.84
677.624	232.1
677.814	168.62
678.005	152.23
678.195	328.36
678.386	82.6
678.576	185
678.767	148.14
678.957	144.04
679.148	293.54
679.338	287.4
679.529	273.06
679.719	185
679.909	305.83
680.1	258.73
680.29	254.63
680.481	119.46
680.671	293.54
680.861	273.06
681.052	187.05
681.242	209.58
681.432	230.06
681.622	162.47
681.813	148.14
682.003	242.34
682.193	178.86
682.383	234.15
682.573	256.68
682.764	230.06
682.954	193.19
683.144	228.01
683.334	219.82
683.524	197.29
683.714	322.21
683.904	246.44
684.094	221.86
684.284	217.77
684.474	305.83
684.664	354.98
684.854	252.58
685.044	207.53
685.234	252.58
685.424	250.53
685.614	244.39
685.804	352.93
685.994	268.97
686.184	283.3
686.374	248.49
686.564	271.01
686.753	273.06
686.943	160.42
687.133	223.91
687.323	172.71
687.513	314.02
687.702	180.9
687.892	203.43
688.082	338.6
688.272	299.69
688.461	301.73
688.651	336.55
688.841	322.21
689.03	244.39
689.22	217.77
689.41	307.88
689.599	189.1
689.789	248.49
689.979	256.68
690.168	152.23
690.358	305.83
690.547	285.35
690.737	219.82
690.926	244.39
691.116	273.06
691.305	309.93
691.495	283.3
691.684	131.75
691.874	170.66
692.063	187.05
692.252	332.45
692.442	246.44
692.631	182.95
692.82	236.2
693.01	252.58
693.199	236.2
693.388	207.53
693.578	162.47
693.767	264.87
693.956	234.15
694.146	191.14
694.335	211.62
694.524	193.19
694.713	232.1
694.902	223.91
695.092	141.99
695.281	203.43
695.47	135.85
695.659	158.38
695.848	260.77
696.037	172.71
696.226	273.06
696.415	209.58
696.604	217.77
696.793	203.43
696.982	164.52
697.171	307.88
697.36	164.52
697.549	191.14
697.738	53.93
697.927	121.51
698.116	109.22
698.305	172.71
698.494	230.06
698.683	189.1
698.872	381.6
699.061	172.71
699.25	156.33
699.438	279.21
699.627	119.46
699.816	238.25
700.005	107.18
700.193	121.51
700.382	215.72
700.571	262.82
700.76	230.06
700.948	199.34
701.137	168.62
701.326	225.96
701.514	164.52
701.703	236.2
701.892	248.49
702.08	344.74
702.269	303.78
702.457	160.42
702.646	238.25
702.834	146.09
703.023	281.25
703.212	254.63
703.4	213.67
703.589	125.61
703.777	170.66
703.965	187.05
704.154	195.24
704.342	187.05
704.531	174.76
704.719	221.86
704.907	320.17
705.096	121.51
705.284	86.7
705.472	234.15
705.661	232.1
705.849	234.15
706.037	379.56
706.226	168.62
706.414	242.34
706.602	150.18
706.79	219.82
706.979	94.89
707.167	207.53
707.355	70.31
707.543	275.11
707.731	209.58
707.919	148.14
708.107	172.71
708.296	127.66
708.484	180.9
708.672	164.52
708.86	178.86
709.048	283.3
709.236	148.14
709.424	232.1
709.612	238.25
709.8	125.61
709.988	172.71
710.176	273.06
710.364	281.25
710.551	234.15
710.739	260.77
710.927	119.46
711.115	223.91
711.303	268.97
711.491	283.3
711.679	158.38
711.866	279.21
712.054	240.3
712.242	178.86
712.43	287.4
712.617	178.86
712.805	238.25
712.993	152.23
713.181	64.17
713.368	287.4
713.556	205.48
713.744	223.91
713.931	400.04
714.119	285.35
714.306	172.71
714.494	232.1
714.682	232.1
714.869	121.51
715.057	252.58
715.244	25.26
715.432	250.53
715.619	197.29
715.807	197.29
715.994	123.56
716.182	289.45
716.369	295.59
716.556	254.63
716.744	121.51
716.931	150.18
717.119	252.58
717.306	273.06
717.493	234.15
717.681	158.38
717.868	185
718.055	283.3
718.242	242.34
718.43	250.53
718.617	297.64
718.804	178.86
718.991	303.78
719.179	238.25
719.366	357.03
719.553	295.59
719.74	307.88
719.927	178.86
720.114	232.1
720.301	139.94
720.488	139.94
720.676	221.86
720.863	307.88
721.05	371.37
721.237	291.49
721.424	336.55
721.611	225.96
721.798	115.37
721.985	219.82
722.172	197.29
722.358	209.58
722.545	357.03
722.732	273.06
722.919	252.58
723.106	277.16
723.293	285.35
723.48	273.06
723.667	178.86
723.853	295.59
724.04	258.73
724.227	303.78
724.414	209.58
724.6	244.39
724.787	342.69
724.974	389.8
725.161	252.58
725.347	203.43
725.534	275.11
725.72	273.06
725.907	307.88
726.094	324.26
726.28	185
726.467	252.58
726.653	221.86
726.84	375.46
727.027	393.89
727.213	316.07
727.4	354.98
727.586	271.01
727.773	295.59
727.959	273.06
728.145	324.26
728.332	268.97
728.518	297.64
728.705	277.16
728.891	211.62
729.077	295.59
729.264	273.06
729.45	246.44
729.636	375.46
729.823	240.3
730.009	242.34
730.195	291.49
730.382	287.4
730.568	156.33
730.754	187.05
730.94	258.73
731.126	291.49
731.313	314.02
731.499	219.82
731.685	359.08
731.871	334.5
732.057	365.22
732.243	406.18
732.429	400.04
732.615	350.89
732.801	223.91
732.987	297.64
733.173	244.39
733.359	277.16
733.545	209.58
733.731	238.25
733.917	346.79
734.103	295.59
734.289	271.01
734.475	236.2
734.661	375.46
734.847	332.45
735.033	273.06
735.219	324.26
735.404	201.38
735.59	242.34
735.776	260.77
735.962	334.5
736.148	281.25
736.333	346.79
736.519	232.1
736.705	260.77
736.89	289.45
737.076	311.97
737.262	217.77
737.447	223.91
737.633	307.88
737.819	324.26
738.004	252.58
738.19	246.44
738.375	236.2
738.561	314.02
738.747	350.89
738.932	211.62
739.118	400.04
739.303	258.73
739.489	354.98
739.674	326.31
739.859	213.67
740.045	350.89
740.23	361.13
740.416	172.71
740.601	211.62
740.786	352.93
740.972	146.09
741.157	238.25
741.342	215.72
741.528	297.64
741.713	357.03
741.898	207.53
742.084	244.39
742.269	211.62
742.454	340.65
742.639	299.69
742.824	262.82
743.01	305.83
743.195	322.21
743.38	287.4
743.565	262.82
743.75	314.02
743.935	348.84
744.12	381.6
744.305	187.05
744.49	305.83
744.675	217.77
744.86	225.96
745.045	326.31
745.23	297.64
745.415	271.01
745.6	365.22
745.785	225.96
745.97	297.64
746.155	271.01
746.34	277.16
746.525	264.87
746.71	359.08
746.895	268.97
747.079	213.67
747.264	213.67
747.449	258.73
747.634	260.77
747.819	250.53
748.003	260.77
748.188	164.52
748.373	248.49
748.557	213.67
748.742	295.59
748.927	279.21
749.111	164.52
749.296	174.76
749.481	246.44
749.665	268.97
749.85	232.1
750.034	223.91
750.219	242.34
750.404	213.67
750.588	273.06
750.773	176.81
750.957	279.21
751.141	223.91
751.326	326.31
751.51	156.33
751.695	88.75
751.879	168.62
752.064	307.88
752.248	129.7
752.432	260.77
752.617	268.97
752.801	273.06
752.985	158.38
753.17	217.77
753.354	174.76
753.538	283.3
753.722	148.14
753.907	150.18
754.091	84.65
754.275	178.86
754.459	178.86
754.643	148.14
754.828	178.86
755.012	217.77
755.196	168.62
755.38	174.76
755.564	211.62
755.748	141.99
755.932	266.92
756.116	234.15
756.3	170.66
756.484	203.43
756.668	197.29
756.852	98.99
757.036	219.82
757.22	123.56
757.404	111.27
757.588	129.7
757.772	158.38
757.956	162.47
758.14	322.21
758.323	109.22
758.507	250.53
758.691	84.65
758.875	154.28
759.059	160.42
759.242	111.27
759.426	193.19
759.61	189.1
759.794	8.87
759.977	246.44
760.161	438.95
760.345	244.39
760.528	266.92
760.712	271.01
760.895	246.44
761.079	64.17
761.263	117.42
761.446	84.65
761.63	74.41
761.813	228.01
761.997	-21.85
762.18	129.7
762.364	160.42
762.547	53.93
762.731	107.18
762.914	131.75
763.098	121.51
763.281	133.8
763.464	41.64
763.648	248.49
763.831	139.94
764.015	82.6
764.198	70.31
764.381	123.56
764.564	123.56
764.748	68.27
764.931	232.1
765.114	45.74
765.297	185
765.481	-19.8
765.664	31.4
765.847	101.03
766.03	228.01
766.213	84.65
766.397	53.93
766.58	62.12
766.763	191.14
766.946	66.22
767.129	144.04
767.312	45.74
767.495	156.33
767.678	21.16
767.861	172.71
768.044	158.38
768.227	41.64
768.41	131.75
768.593	76.46
768.776	199.34
768.959	45.74
769.142	174.76
769.324	74.41
769.507	94.89
769.69	90.79
769.873	27.31
770.056	283.3
770.239	82.6
770.421	135.85
770.604	103.08
770.787	41.64
770.97	141.99
771.152	-11.61
771.335	207.53
771.518	8.87
771.7	238.25
771.883	238.25
772.066	-25.94
772.248	125.61
772.431	178.86
772.613	148.14
772.796	78.51
772.978	109.22
773.161	193.19
773.343	92.84
773.526	78.51
773.708	-32.08
773.891	-36.18
774.073	101.03
774.256	55.98
774.438	244.39
774.621	64.17
774.803	49.83
774.985	68.27
775.168	62.12
775.35	86.7
775.532	166.57
775.715	31.4
775.897	156.33
776.079	55.98
776.261	123.56
776.444	86.7
776.626	109.22
776.808	119.46
776.99	19.11
777.173	119.46
777.355	76.46
777.537	174.76
777.719	45.74
777.901	-7.51
778.083	27.31
778.265	-9.56
778.447	195.24
778.629	17.07
778.811	80.55
778.993	45.74
779.175	125.61
779.357	43.69
779.539	88.75
779.721	80.55
779.903	121.51
780.085	-1.37
780.267	127.66
780.449	53.93
780.631	113.32
780.812	88.75
780.994	58.03
781.176	12.97
781.358	6.83
781.54	45.74
781.721	47.79
781.903	115.37
782.085	62.12
782.267	115.37
782.448	-66.9
782.63	31.4
782.812	96.94
782.993	109.22
783.175	131.75
783.357	47.79
783.538	90.79
783.72	-60.76
783.901	96.94
784.083	60.07
784.264	125.61
784.446	31.4
784.627	29.35
784.809	96.94
784.99	66.22
785.172	86.7
785.353	27.31
785.535	92.84
785.716	37.55
785.897	-7.51
786.079	31.4
786.26	64.17
786.441	62.12
786.623	-52.56
786.804	82.6
786.985	15.02
787.167	117.42
787.348	105.13
787.529	23.21
787.71	219.82
787.891	148.14
788.073	10.92
788.254	-75.09
788.435	133.8
788.616	107.18
788.797	-54.61
788.978	-44.37
789.159	-3.41
789.34	49.83
789.522	10.92
789.703	-11.61
789.884	96.94
790.065	70.31
790.246	125.61
790.427	60.07
790.607	193.19
790.788	68.27
790.969	-71
791.15	101.03
791.331	6.83
791.512	21.16
791.693	-9.56
791.874	-66.9
792.054	225.96
792.235	123.56
792.416	27.31
792.597	-42.32
792.778	125.61
792.958	60.07
793.139	19.11
793.32	98.99
793.5	43.69
793.681	193.19
793.862	101.03
794.042	29.35
794.223	-66.9
794.404	39.59
794.584	-85.33
794.765	84.65
794.945	25.26
795.126	90.79
795.306	152.23
795.487	68.27
795.667	2.73
795.848	96.94
796.028	-23.89
796.209	31.4
796.389	27.31
796.57	-9.56
796.75	60.07
796.93	8.87
797.111	47.79
797.291	-9.56
797.471	47.79
797.652	21.16
797.832	-75.09
798.012	150.18
798.192	-23.89
798.373	-71
798.553	60.07
798.733	76.46
798.913	8.87
799.093	-44.37
799.274	0.68
799.454	119.46
799.634	84.65
799.814	166.57
799.994	207.53
800.174	123.56
800.354	41.64
800.534	-36.18
800.714	51.88
800.894	2.73
801.074	33.45
801.254	-11.61
801.434	131.75
801.614	58.03
801.794	-48.47
801.974	1806.99
802.154	-11.61
802.334	92.84
802.514	-3.41
802.693	62.12
802.873	12.97
803.053	74.41
803.233	101.03
803.413	-50.52
803.592	-34.13
803.772	-9.56
803.952	31.4
804.131	-40.28
804.311	49.83
804.491	152.23
804.67	-23.89
804.85	33.45
805.03	62.12
805.209	92.84
805.389	15.02
805.568	0.68
805.748	-50.52
805.928	-36.18
806.107	121.51
806.287	41.64
806.466	84.65
806.646	80.55
806.825	-30.04
807.004	-25.94
807.184	62.12
807.363	35.5
807.543	131.75
807.722	-66.9
807.901	103.08
808.081	94.89
808.26	-79.19
808.439	-21.85
808.619	31.4
808.798	-25.94
808.977	64.17
809.156	96.94
809.336	4.78
809.515	31.4
809.694	-42.32
809.873	-19.8
810.052	72.36
810.231	51.88
810.411	84.65
810.59	70.31
810.769	-13.65
810.948	127.66
811.127	-54.61
811.306	-73.04
811.485	-17.75
811.664	127.66
811.843	62.12
812.022	0.68
812.201	29.35
812.38	-11.61
812.559	15.02
812.737	70.31
812.916	-42.32
813.095	-66.9
813.274	-5.46
813.453	-11.61
813.632	45.74
813.811	86.7
813.989	-23.89
814.168	-19.8
814.347	-99.67
814.526	8.87
814.704	144.04
814.883	115.37
815.062	23.21
815.24	12.97
815.419	-111.96
815.598	78.51
815.776	-142.68
815.955	23.21
816.133	-93.52
816.312	72.36
816.49	-9.56
816.669	31.4
816.847	21.16
817.026	35.5
817.204	-19.8
817.383	25.26
817.561	-25.94
817.74	-13.65
817.918	45.74
818.097	10.92
818.275	-40.28
818.453	141.99
818.632	58.03
818.81	31.4
818.988	-9.56
819.167	-60.76
819.345	47.79
819.523	-73.04
819.701	10.92
819.879	10.92
820.058	109.22
820.236	19.11
820.414	17.07
820.592	-11.61
820.77	86.7
820.948	-3.41
821.127	-42.32
821.305	47.79
821.483	-42.32
821.661	135.85
821.839	25.26
822.017	-91.48
822.195	2.73
822.373	-3.41
822.551	45.74
822.729	45.74
822.907	-1.37
823.085	92.84
823.262	25.26
823.44	17.07
823.618	27.31
823.796	6.83
823.974	-11.61
824.152	-25.94
824.329	-40.28
824.507	-7.51
824.685	105.13
824.863	-21.85
825.04	25.26
825.218	27.31
825.396	68.27
825.574	4.78
825.751	-1.37
825.929	39.59
826.107	-13.65
826.284	144.04
826.462	-17.75
826.639	-17.75
826.817	-87.38
826.994	84.65
827.172	-46.42
827.349	168.62
827.527	68.27
827.704	62.12
827.882	39.59
828.059	31.4
828.237	6.83
828.414	121.51
828.591	-83.28
828.769	-32.08
828.946	-64.85
829.124	66.22
829.301	193.19
829.478	-68.95
829.655	123.56
829.833	53.93
830.01	-169.3
830.187	78.51
830.364	12.97
830.542	35.5
830.719	107.18
830.896	78.51
831.073	72.36
831.25	-5.46
831.427	84.65
831.604	-64.85
831.782	-85.33
831.959	35.5
832.136	62.12
832.313	88.75
832.49	-48.47
832.667	101.03
832.844	-40.28
833.021	119.46
833.198	39.59
833.374	55.98
833.551	-27.99
833.728	0.68
833.905	133.8
834.082	-60.76
834.259	27.31
834.436	111.27
834.612	-58.71
834.789	86.7
834.966	-38.23
835.143	19.11
835.319	-64.85
835.496	-32.08
835.673	-38.23
835.85	129.7
836.026	45.74
836.203	105.13
836.38	-38.23
836.556	8.87
836.733	-32.08
836.909	127.66
837.086	37.55
837.262	-38.23
837.439	15.02
837.616	-68.95
837.792	15.02
837.968	47.79
838.145	-85.33
838.321	45.74
838.498	66.22
838.674	92.84
838.851	35.5
839.027	-36.18
839.203	17.07
839.38	41.64
839.556	-71
839.732	148.14
839.909	-32.08
840.085	53.93
840.261	-44.37
840.437	-30.04
840.614	-73.04
840.79	66.22
840.966	148.14
841.142	51.88
841.318	-11.61
841.494	51.88
841.671	64.17
841.847	-13.65
842.023	-23.89
842.199	39.59
842.375	162.47
842.551	-40.28
842.727	-1.37
842.903	141.99
843.079	4.78
843.255	107.18
843.431	19.11
843.607	70.31
843.783	-101.72
843.959	55.98
844.134	-52.56
844.31	113.32
844.486	-93.52
844.662	-19.8
844.838	-42.32
845.013	53.93
845.189	47.79
845.365	64.17
845.541	82.6
845.716	45.74
845.892	8.87
846.068	-44.37
846.244	10.92
846.419	-3.41
846.595	-73.04
846.77	-34.13
846.946	101.03
847.122	4.78
847.297	-48.47
847.473	88.75
847.648	-40.28
847.824	33.45
847.999	-87.38
848.175	72.36
848.35	49.83
848.526	119.46
848.701	53.93
848.876	39.59
849.052	66.22
849.227	23.21
849.403	19.11
849.578	4.78
849.753	43.69
849.929	12.97
850.104	-89.43
850.279	29.35
850.454	8.87
850.63	86.7
850.805	0.68
850.98	6.83
851.155	113.32
851.33	-27.99
851.505	-38.23
851.681	72.36
851.856	-9.56
852.031	62.12
852.206	84.65
852.381	-77.14
852.556	10.92
852.731	74.41
852.906	129.7
853.081	-13.65
853.256	182.95
853.431	37.55
853.606	-71
853.781	-46.42
853.956	-68.95
854.131	15.02
854.305	-103.76
854.48	-3.41
854.655	-25.94
854.83	-21.85
855.005	25.26
855.18	-25.94
855.354	12.97
855.529	25.26
855.704	51.88
855.879	47.79
856.053	-27.99
856.228	80.55
856.403	10.92
856.577	82.6
856.752	-60.76
856.926	27.31
857.101	-85.33
857.276	12.97
857.45	-1.37
857.625	84.65
857.799	17.07
857.974	-15.7
858.148	-130.39
858.323	53.93
858.497	-38.23
858.672	-64.85
858.846	6.83
859.02	78.51
859.195	33.45
859.369	23.21
859.543	6.83
859.718	2.73
859.892	21.16
860.066	31.4
860.241	-62.8
860.415	17.07
860.589	-36.18
860.763	12.97
860.938	-87.38
861.112	55.98
861.286	60.07
861.46	8.87
861.634	31.4
861.808	47.79
861.982	-32.08
862.157	-23.89
862.331	-58.71
862.505	-81.24
862.679	-46.42
862.853	47.79
863.027	-17.75
863.201	68.27
863.375	12.97
863.549	12.97
863.722	-9.56
863.896	92.84
864.07	-50.52
864.244	-5.46
864.418	70.31
864.592	53.93
864.766	111.27
864.939	55.98
865.113	4.78
865.287	92.84
865.461	-48.47
865.634	10.92
865.808	0.68
865.982	-54.61
866.156	-15.7
866.329	-42.32
866.503	-3.41
866.676	-17.75
866.85	-3.41
867.024	-97.62
867.197	29.35
867.371	17.07
867.544	19.11
867.718	-56.66
867.891	53.93
868.065	-36.18
868.238	33.45
868.412	2.73
868.585	45.74
868.759	-60.76
868.932	-27.99
869.105	-21.85
869.279	23.21
869.452	-116.05
869.625	21.16
869.799	-19.8
869.972	-71
870.145	-83.28
870.319	115.37
870.492	2.73
870.665	-11.61
870.838	-83.28
871.011	-83.28
871.185	-5.46
871.358	33.45
871.531	43.69
871.704	37.55
871.877	-15.7
872.05	23.21
872.223	-99.67
872.396	68.27
872.569	62.12
872.742	-118.1
872.915	70.31
873.088	-50.52
873.261	-44.37
873.434	88.75
873.607	19.11
873.78	68.27
873.953	-50.52
874.126	10.92
874.299	82.6
874.471	-50.52
874.644	-48.47
874.817	150.18
874.99	88.75
875.163	-25.94
875.335	53.93
875.508	2.73
875.681	117.42
875.853	-64.85
876.026	-17.75
876.199	84.65
876.371	21.16
876.544	-13.65
876.717	98.99
876.889	21.16
877.062	15.02
877.234	-38.23
877.407	-13.65
877.579	-25.94
877.752	-32.08
877.924	144.04
878.097	41.64
878.269	113.32
878.442	-9.56
878.614	47.79
878.786	-19.8
878.959	-15.7
879.131	23.21
879.303	-50.52
879.476	29.35
879.648	64.17
879.82	-38.23
879.993	4.78
880.165	4.78
880.337	-62.8
880.509	53.93
880.681	-17.75
880.854	-30.04
881.026	6.83
881.198	121.51
881.37	15.02
881.542	0.68
881.714	37.55
881.886	8.87
882.058	154.28
882.23	37.55
882.402	-95.57
882.574	-3.41
882.746	51.88
882.918	119.46
883.09	39.59
883.262	0.68
883.434	53.93
883.606	-56.66
883.778	55.98
883.95	98.99
884.122	-89.43
884.293	51.88
884.465	-15.7
884.637	68.27
884.809	-103.76
884.98	76.46
885.152	10.92
885.324	-3.41
885.496	-111.96
885.667	-21.85
885.839	51.88
886.011	60.07
886.182	-1.37
886.354	105.13
886.525	39.59
886.697	55.98
886.869	-68.95
887.04	47.79
887.212	82.6
887.383	185
887.555	35.5
887.726	27.31
887.897	-19.8
888.069	98.99
888.24	58.03
888.412	-38.23
888.583	2.73
888.754	60.07
888.926	-38.23
889.097	0.68
889.268	-79.19
889.44	68.27
889.611	-116.05
889.782	-95.57
889.953	-62.8
890.125	74.41
890.296	-17.75
890.467	-54.61
890.638	53.93
890.809	25.26
890.98	-17.75
891.151	6.83
891.323	135.85
891.494	-7.51
891.665	66.22
891.836	37.55
892.007	-3.41
892.178	51.88
892.349	86.7
892.52	37.55
892.691	21.16
892.862	33.45
893.032	-50.52
893.203	-44.37
893.374	10.92
893.545	33.45
893.716	-27.99
893.887	70.31
894.057	-15.7
894.228	-27.99
894.399	10.92
894.57	80.55
894.74	33.45
894.911	66.22
895.082	23.21
895.253	-111.96
895.423	-9.56
895.594	53.93
895.764	-15.7
895.935	-54.61
896.106	37.55
896.276	-30.04
896.447	41.64
896.617	-81.24
896.788	-62.8
896.958	27.31
897.129	-62.8
897.299	-21.85
897.47	172.71
897.64	60.07
897.81	-19.8
897.981	92.84
898.151	0.68
898.322	47.79
898.492	-5.46
898.662	-38.23
898.832	-21.85
899.003	4.78
899.173	31.4
899.343	-38.23
899.513	23.21
