Data from USB4F104151__132__10-46-46-854.txt Node

Date: Wed Feb 26 10:46:46 EST 2025
User: louis
Spectrometer: USB4F10415
Trigger mode: 4
Integration Time (sec): 1.000000E-1
Scans to average: 1
Electric dark correction enabled: true
Nonlinearity correction enabled: false
Boxcar width: 0
XAxis mode: Wavelengths
Number of Pixels in Spectrum: 3648
>>>>>Begin Spectral Data<<<<<
178.204	-371.54
178.424	-371.54
178.644	-371.54
178.864	-435.02
179.084	-349.01
179.304	15.53
179.524	44.2
179.744	44.2
179.964	46.25
180.184	85.16
180.404	36.01
180.624	-21.33
180.844	-88.92
181.064	-62.29
181.283	-27.48
181.503	-74.58
181.723	3.24
181.943	-4.95
182.163	195.75
182.383	-21.33
182.602	95.4
182.822	95.4
183.042	36.01
183.262	-23.38
183.482	11.43
183.701	89.26
183.921	56.49
184.141	-78.68
184.361	76.97
184.58	101.55
184.8	132.26
185.02	64.68
185.239	76.97
185.459	111.78
185.679	130.22
185.898	-142.16
186.118	5.29
186.338	58.54
186.557	111.78
186.777	-72.53
186.997	31.91
187.216	85.16
187.436	314.53
187.655	81.07
187.875	115.88
188.095	36.01
188.314	218.28
188.534	111.78
188.753	44.2
188.973	21.67
189.192	210.09
189.412	1.19
189.631	85.16
189.851	142.5
190.07	173.22
190.29	-84.82
190.509	-4.95
190.729	46.25
190.948	167.08
191.168	246.95
191.387	52.39
191.607	46.25
191.826	66.73
192.045	25.77
192.265	1.19
192.484	89.26
192.704	119.98
192.923	-54.1
193.142	199.85
193.362	189.61
193.581	169.13
193.8	156.84
194.02	154.79
194.239	60.59
194.458	81.07
194.678	50.35
194.897	-25.43
195.116	146.6
195.335	132.26
195.555	60.59
195.774	15.53
195.993	105.64
196.212	42.15
196.432	13.48
196.651	-9.05
196.87	27.82
197.089	205.99
197.308	68.78
197.528	117.93
197.747	11.43
197.966	124.07
198.185	171.18
198.404	62.63
198.623	97.45
198.842	195.75
199.062	175.27
199.281	66.73
199.5	83.11
199.719	154.79
199.938	52.39
200.157	142.5
200.376	60.59
200.595	148.65
200.814	107.69
201.033	11.43
201.252	193.7
201.471	25.77
201.69	93.35
201.909	5.29
202.128	152.74
202.347	148.65
202.566	-21.33
202.785	-68.44
203.004	-37.72
203.223	238.76
203.442	68.78
203.661	-37.72
203.879	56.49
204.098	146.6
204.317	-7
204.536	134.31
204.755	79.02
204.974	103.59
205.193	58.54
205.411	160.94
205.63	177.32
205.849	83.11
206.068	19.63
206.287	-56.15
206.505	111.78
206.724	27.82
206.943	7.34
207.162	42.15
207.381	70.83
207.599	21.67
207.818	19.63
208.037	52.39
208.255	33.96
208.474	126.12
208.693	62.63
208.911	1.19
209.13	113.83
209.349	156.84
209.567	138.41
209.786	138.41
210.005	119.98
210.223	44.2
210.442	-80.72
210.661	11.43
210.879	33.96
211.098	99.5
211.316	109.74
211.535	130.22
211.753	48.3
211.972	38.06
212.191	23.72
212.409	142.5
212.628	140.46
212.846	25.77
213.065	128.17
213.283	156.84
213.502	85.16
213.72	56.49
213.938	46.25
214.157	74.92
214.375	167.08
214.594	19.63
214.812	117.93
215.031	60.59
215.249	91.31
215.467	50.35
215.686	126.12
215.904	56.49
216.122	60.59
216.341	187.56
216.559	21.67
216.778	97.45
216.996	132.26
217.214	74.92
217.432	19.63
217.651	-88.92
217.869	33.96
218.087	54.44
218.306	66.73
218.524	111.78
218.742	58.54
218.96	64.68
219.179	36.01
219.397	105.64
219.615	203.94
219.833	130.22
220.051	23.72
220.27	122.02
220.488	175.27
220.706	89.26
220.924	7.34
221.142	70.83
221.36	48.3
221.578	99.5
221.796	-11.09
222.015	97.45
222.233	5.29
222.451	124.07
222.669	19.63
222.887	93.35
223.105	38.06
223.323	21.67
223.541	72.87
223.759	91.31
223.977	79.02
224.195	132.26
224.413	140.46
224.631	54.44
224.849	56.49
225.067	306.34
225.285	95.4
225.503	25.77
225.721	-109.4
225.939	64.68
226.157	160.94
226.375	226.47
226.592	38.06
226.81	79.02
227.028	257.19
227.246	97.45
227.464	70.83
227.682	87.21
227.9	85.16
228.117	42.15
228.335	132.26
228.553	107.69
228.771	36.01
228.989	74.92
229.206	138.41
229.424	31.91
229.642	9.39
229.86	-19.29
230.077	109.74
230.295	44.2
230.513	148.65
230.731	38.06
230.948	167.08
231.166	205.99
231.384	64.68
231.601	56.49
231.819	177.32
232.037	-13.14
232.254	-35.67
232.472	171.18
232.689	97.45
232.907	218.28
233.125	-31.57
233.342	81.07
233.56	-9.05
233.777	-4.95
233.995	95.4
234.213	107.69
234.43	154.79
234.648	52.39
234.865	33.96
235.083	85.16
235.3	74.92
235.518	144.55
235.735	150.7
235.953	9.39
236.17	60.59
236.388	74.92
236.605	138.41
236.822	97.45
237.04	124.07
237.257	87.21
237.475	-19.29
237.692	-0.85
237.909	165.03
238.127	68.78
238.344	31.91
238.562	101.55
238.779	-4.95
238.996	-68.44
239.214	107.69
239.431	74.92
239.648	5.29
239.865	91.31
240.083	105.64
240.3	-23.38
240.517	-4.95
240.735	38.06
240.952	119.98
241.169	119.98
241.386	107.69
241.603	79.02
241.821	-52.05
242.038	117.93
242.255	44.2
242.472	-107.35
242.689	195.75
242.907	130.22
243.124	111.78
243.341	79.02
243.558	9.39
243.775	-45.91
243.992	-56.15
244.209	81.07
244.426	224.42
244.643	66.73
244.86	38.06
245.078	54.44
245.295	70.83
245.512	-9.05
245.729	-23.38
245.946	132.26
246.163	109.74
246.38	-21.33
246.597	130.22
246.814	38.06
247.031	99.5
247.248	3.24
247.464	85.16
247.681	119.98
247.898	83.11
248.115	68.78
248.332	-25.43
248.549	111.78
248.766	181.42
248.983	50.35
249.2	93.35
249.417	142.5
249.633	-52.05
249.85	101.55
250.067	68.78
250.284	179.37
250.501	11.43
250.717	103.59
250.934	-37.72
251.151	83.11
251.368	66.73
251.585	76.97
251.801	134.31
252.018	-17.24
252.235	156.84
252.451	-7
252.668	81.07
252.885	126.12
253.102	64.68
253.318	25.77
253.535	58.54
253.752	72.87
253.968	36.01
254.185	-43.86
254.401	66.73
254.618	140.46
254.835	-11.09
255.051	128.17
255.268	103.59
255.484	60.59
255.701	52.39
255.917	107.69
256.134	66.73
256.351	101.55
256.567	3.24
256.784	25.77
257	27.82
257.217	103.59
257.433	99.5
257.65	1.19
257.866	160.94
258.082	-7
258.299	17.58
258.515	128.17
258.732	50.35
258.948	15.53
259.165	146.6
259.381	36.01
259.597	42.15
259.814	95.4
260.03	21.67
260.246	5.29
260.463	140.46
260.679	169.13
260.895	119.98
261.112	58.54
261.328	50.35
261.544	36.01
261.761	199.85
261.977	13.48
262.193	40.11
262.409	70.83
262.626	109.74
262.842	-9.05
263.058	66.73
263.274	144.55
263.49	79.02
263.707	183.46
263.923	167.08
264.139	-11.09
264.355	117.93
264.571	134.31
264.787	-9.05
265.004	128.17
265.22	-17.24
265.436	-33.62
265.652	132.26
265.868	48.3
266.084	-39.76
266.3	-4.95
266.516	-41.81
266.732	79.02
266.948	113.83
267.164	27.82
267.38	146.6
267.596	152.74
267.812	242.85
268.028	119.98
268.244	68.78
268.46	89.26
268.676	76.97
268.892	99.5
269.108	3.24
269.324	19.63
269.54	-80.72
269.756	146.6
269.972	-52.05
270.188	42.15
270.403	5.29
270.619	54.44
270.835	132.26
271.051	62.63
271.267	-27.48
271.483	-4.95
271.698	185.51
271.914	115.88
272.13	13.48
272.346	21.67
272.562	58.54
272.777	197.8
272.993	17.58
273.209	7.34
273.425	95.4
273.64	-68.44
273.856	101.55
274.072	5.29
274.287	29.87
274.503	160.94
274.719	50.35
274.934	31.91
275.15	-37.72
275.366	83.11
275.581	27.82
275.797	76.97
276.012	111.78
276.228	27.82
276.444	64.68
276.659	177.32
276.875	42.15
277.09	66.73
277.306	70.83
277.521	79.02
277.737	87.21
277.952	122.02
278.168	83.11
278.383	91.31
278.599	54.44
278.814	138.41
279.03	138.41
279.245	179.37
279.461	122.02
279.676	85.16
279.892	-45.91
280.107	-11.09
280.322	-2.9
280.538	17.58
280.753	64.68
280.969	44.2
281.184	13.48
281.399	138.41
281.615	38.06
281.83	119.98
282.045	-19.29
282.26	-25.43
282.476	15.53
282.691	93.35
282.906	140.46
283.122	48.3
283.337	40.11
283.552	93.35
283.767	17.58
283.983	97.45
284.198	40.11
284.413	60.59
284.628	31.91
284.843	56.49
285.058	132.26
285.274	76.97
285.489	-33.62
285.704	105.64
285.919	21.67
286.134	56.49
286.349	27.82
286.564	38.06
286.779	152.74
286.995	48.3
287.21	-27.48
287.425	169.13
287.64	156.84
287.855	38.06
288.07	19.63
288.285	160.94
288.5	158.89
288.715	91.31
288.93	101.55
289.145	5.29
289.36	113.83
289.575	-56.15
289.79	146.6
290.004	21.67
290.219	107.69
290.434	-11.09
290.649	156.84
290.864	-7
291.079	-21.33
291.294	144.55
291.509	91.31
291.724	-41.81
291.938	95.4
292.153	103.59
292.368	97.45
292.583	138.41
292.798	187.56
293.012	107.69
293.227	136.36
293.442	119.98
293.657	79.02
293.871	173.22
294.086	152.74
294.301	187.56
294.516	111.78
294.73	64.68
294.945	68.78
295.16	68.78
295.374	122.02
295.589	165.03
295.804	91.31
296.018	40.11
296.233	56.49
296.447	76.97
296.662	-13.14
296.877	142.5
297.091	85.16
297.306	19.63
297.52	76.97
297.735	101.55
297.949	115.88
298.164	72.87
298.378	36.01
298.593	50.35
298.807	60.59
299.022	105.64
299.236	122.02
299.451	36.01
299.665	11.43
299.88	89.26
300.094	113.83
300.309	93.35
300.523	-11.09
300.737	19.63
300.952	105.64
301.166	91.31
301.381	13.48
301.595	13.48
301.809	56.49
302.024	72.87
302.238	21.67
302.452	91.31
302.667	60.59
302.881	169.13
303.095	162.98
303.309	115.88
303.524	1.19
303.738	91.31
303.952	-52.05
304.166	124.07
304.381	-109.4
304.595	189.61
304.809	93.35
305.023	42.15
305.237	66.73
305.452	-2.9
305.666	33.96
305.88	130.22
306.094	111.78
306.308	109.74
306.522	42.15
306.736	122.02
306.95	220.33
307.164	25.77
307.379	-11.09
307.593	122.02
307.807	249
308.021	146.6
308.235	101.55
308.449	-15.19
308.663	89.26
308.877	179.37
309.091	95.4
309.305	50.35
309.519	-17.24
309.733	113.83
309.947	-4.95
310.161	132.26
310.374	136.36
310.588	128.17
310.802	66.73
311.016	27.82
311.23	87.21
311.444	13.48
311.658	87.21
311.872	150.7
312.085	115.88
312.299	97.45
312.513	175.27
312.727	117.93
312.941	-17.24
313.154	140.46
313.368	87.21
313.582	66.73
313.796	-4.95
314.009	29.87
314.223	167.08
314.437	148.65
314.651	126.12
314.864	19.63
315.078	-17.24
315.292	11.43
315.505	15.53
315.719	23.72
315.933	64.68
316.146	9.39
316.36	68.78
316.573	130.22
316.787	103.59
317.001	113.83
317.214	25.77
317.428	99.5
317.641	-58.2
317.855	-4.95
318.068	15.53
318.282	60.59
318.495	130.22
318.709	52.39
318.922	38.06
319.136	132.26
319.349	87.21
319.563	-19.29
319.776	52.39
319.99	-47.96
320.203	107.69
320.417	68.78
320.63	124.07
320.843	244.9
321.057	85.16
321.27	-4.95
321.483	91.31
321.697	146.6
321.91	54.44
322.124	162.98
322.337	-27.48
322.55	-7
322.763	97.45
322.977	40.11
323.19	-15.19
323.403	46.25
323.617	56.49
323.83	117.93
324.043	58.54
324.256	-2.9
324.469	-23.38
324.683	124.07
324.896	109.74
325.109	13.48
325.322	-78.68
325.535	126.12
325.748	128.17
325.962	23.72
326.175	142.5
326.388	74.92
326.601	99.5
326.814	-33.62
327.027	-31.57
327.24	165.03
327.453	-0.85
327.666	107.69
327.879	154.79
328.092	54.44
328.305	85.16
328.518	54.44
328.731	46.25
328.944	64.68
329.157	138.41
329.37	1.19
329.583	236.71
329.796	191.66
330.009	-25.43
330.222	128.17
330.435	85.16
330.648	142.5
330.861	46.25
331.073	72.87
331.286	179.37
331.499	36.01
331.712	-15.19
331.925	74.92
332.138	27.82
332.35	25.77
332.563	62.63
332.776	142.5
332.989	11.43
333.202	40.11
333.414	60.59
333.627	66.73
333.84	-23.38
334.053	79.02
334.265	-4.95
334.478	33.96
334.691	23.72
334.903	70.83
335.116	-93.01
335.329	68.78
335.541	130.22
335.754	220.33
335.966	-15.19
336.179	97.45
336.392	46.25
336.604	25.77
336.817	79.02
337.029	103.59
337.242	83.11
337.454	148.65
337.667	70.83
337.88	70.83
338.092	21.67
338.305	126.12
338.517	-4.95
338.729	189.61
338.942	156.84
339.154	-60.24
339.367	-7
339.579	52.39
339.792	-21.33
340.004	191.66
340.217	-21.33
340.429	36.01
340.641	-23.38
340.854	40.11
341.066	105.64
341.278	130.22
341.491	298.15
341.703	50.35
341.915	-21.33
342.128	113.83
342.34	76.97
342.552	-17.24
342.764	-0.85
342.977	52.39
343.189	103.59
343.401	130.22
343.613	-68.44
343.826	21.67
344.038	-41.81
344.25	119.98
344.462	19.63
344.674	40.11
344.886	21.67
345.099	124.07
345.311	3.24
345.523	76.97
345.735	-105.3
345.947	42.15
346.159	132.26
346.371	76.97
346.583	5.29
346.795	195.75
347.007	50.35
347.219	81.07
347.431	-25.43
347.643	171.18
347.855	-19.29
348.067	115.88
348.279	-0.85
348.491	146.6
348.703	107.69
348.915	128.17
349.127	5.29
349.339	85.16
349.551	-11.09
349.763	115.88
349.975	-41.81
350.187	111.78
350.399	144.55
350.61	27.82
350.822	-19.29
351.034	56.49
351.246	146.6
351.458	111.78
351.669	197.8
351.881	160.94
352.093	111.78
352.305	101.55
352.517	130.22
352.728	148.65
352.94	83.11
353.152	115.88
353.363	17.58
353.575	85.16
353.787	234.66
353.999	126.12
354.21	197.8
354.422	-31.57
354.633	-35.67
354.845	85.16
355.057	29.87
355.268	146.6
355.48	132.26
355.692	21.67
355.903	64.68
356.115	17.58
356.326	-27.48
356.538	212.14
356.749	142.5
356.961	156.84
357.172	60.59
357.384	76.97
357.595	246.95
357.807	38.06
358.018	-0.85
358.23	95.4
358.441	122.02
358.653	130.22
358.864	91.31
359.075	58.54
359.287	72.87
359.498	72.87
359.709	136.36
359.921	81.07
360.132	128.17
360.344	9.39
360.555	13.48
360.766	105.64
360.977	25.77
361.189	158.89
361.4	29.87
361.611	72.87
361.823	179.37
362.034	87.21
362.245	-74.58
362.456	42.15
362.667	97.45
362.879	15.53
363.09	76.97
363.301	132.26
363.512	93.35
363.723	3.24
363.935	9.39
364.146	111.78
364.357	70.83
364.568	64.68
364.779	-148.31
364.99	56.49
365.201	-31.57
365.412	169.13
365.623	-23.38
365.834	150.7
366.045	134.31
366.256	126.12
366.467	38.06
366.678	52.39
366.889	76.97
367.1	19.63
367.311	214.18
367.522	19.63
367.733	109.74
367.944	158.89
368.155	62.63
368.366	122.02
368.577	134.31
368.788	158.89
368.999	23.72
369.209	58.54
369.42	255.14
369.631	210.09
369.842	156.84
370.053	31.91
370.264	138.41
370.474	56.49
370.685	117.93
370.896	17.58
371.107	27.82
371.317	113.83
371.528	79.02
371.739	154.79
371.95	85.16
372.16	111.78
372.371	54.44
372.582	48.3
372.792	134.31
373.003	56.49
373.214	46.25
373.424	109.74
373.635	11.43
373.846	99.5
374.056	85.16
374.267	91.31
374.477	124.07
374.688	54.44
374.898	91.31
375.109	33.96
375.319	85.16
375.53	136.36
375.74	173.22
375.951	103.59
376.161	105.64
376.372	76.97
376.582	29.87
376.793	76.97
377.003	72.87
377.214	-31.57
377.424	25.77
377.635	99.5
377.845	48.3
378.055	173.22
378.266	-58.2
378.476	-19.29
378.686	76.97
378.897	122.02
379.107	76.97
379.317	103.59
379.528	-39.76
379.738	195.75
379.948	72.87
380.158	138.41
380.369	95.4
380.579	109.74
380.789	-76.63
380.999	146.6
381.21	119.98
381.42	205.99
381.63	93.35
381.84	99.5
382.05	126.12
382.261	122.02
382.471	87.21
382.681	25.77
382.891	201.9
383.101	99.5
383.311	-39.76
383.521	-60.24
383.731	165.03
383.941	97.45
384.151	29.87
384.361	68.78
384.571	70.83
384.781	-2.9
384.991	234.66
385.201	189.61
385.411	132.26
385.621	21.67
385.831	25.77
386.041	113.83
386.251	109.74
386.461	169.13
386.671	74.92
386.881	109.74
387.091	144.55
387.301	130.22
387.511	109.74
387.72	93.35
387.93	175.27
388.14	17.58
388.35	79.02
388.56	216.23
388.769	232.62
388.979	79.02
389.189	9.39
389.399	48.3
389.609	76.97
389.818	122.02
390.028	79.02
390.238	81.07
390.447	3.24
390.657	101.55
390.867	46.25
391.076	-64.34
391.286	113.83
391.496	3.24
391.705	42.15
391.915	152.74
392.125	97.45
392.334	66.73
392.544	199.85
392.753	60.59
392.963	44.2
393.172	9.39
393.382	46.25
393.591	228.52
393.801	11.43
394.01	201.9
394.22	181.42
394.429	15.53
394.639	81.07
394.848	87.21
395.058	-11.09
395.267	19.63
395.477	68.78
395.686	44.2
395.895	175.27
396.105	109.74
396.314	136.36
396.524	76.97
396.733	15.53
396.942	107.69
397.152	187.56
397.361	195.75
397.57	74.92
397.78	109.74
397.989	240.81
398.198	203.94
398.407	81.07
398.617	64.68
398.826	-11.09
399.035	107.69
399.244	156.84
399.453	113.83
399.663	13.48
399.872	134.31
400.081	62.63
400.29	122.02
400.499	-19.29
400.708	210.09
400.917	70.83
401.127	81.07
401.336	29.87
401.545	185.51
401.754	128.17
401.963	107.69
402.172	3.24
402.381	48.3
402.59	62.63
402.799	76.97
403.008	74.92
403.217	93.35
403.426	44.2
403.635	-45.91
403.844	46.25
404.053	76.97
404.262	60.59
404.471	165.03
404.68	64.68
404.888	99.5
405.097	99.5
405.306	130.22
405.515	165.03
405.724	68.78
405.933	101.55
406.142	60.59
406.35	183.46
406.559	93.35
406.768	81.07
406.977	216.23
407.185	87.21
407.394	181.42
407.603	-25.43
407.812	68.78
408.02	107.69
408.229	-15.19
408.438	128.17
408.646	-78.68
408.855	7.34
409.064	83.11
409.272	21.67
409.481	91.31
409.69	-50
409.898	46.25
410.107	130.22
410.315	152.74
410.524	-4.95
410.733	97.45
410.941	83.11
411.15	171.18
411.358	54.44
411.567	134.31
411.775	95.4
411.984	62.63
412.192	103.59
412.401	31.91
412.609	167.08
412.818	189.61
413.026	109.74
413.234	44.2
413.443	44.2
413.651	17.58
413.86	7.34
414.068	171.18
414.276	146.6
414.485	33.96
414.693	208.04
414.901	191.66
415.11	76.97
415.318	111.78
415.526	42.15
415.734	136.36
415.943	56.49
416.151	126.12
416.359	162.98
416.567	95.4
416.776	79.02
416.984	81.07
417.192	257.19
417.4	36.01
417.608	27.82
417.817	62.63
418.025	103.59
418.233	173.22
418.441	-17.24
418.649	23.72
418.857	25.77
419.065	222.38
419.273	154.79
419.481	113.83
419.689	64.68
419.897	81.07
420.105	44.2
420.313	138.41
420.521	138.41
420.729	175.27
420.937	70.83
421.145	89.26
421.353	76.97
421.561	214.18
421.769	109.74
421.977	15.53
422.185	169.13
422.393	42.15
422.601	146.6
422.809	74.92
423.017	148.65
423.224	148.65
423.432	156.84
423.64	66.73
423.848	105.64
424.056	50.35
424.263	228.52
424.471	89.26
424.679	156.84
424.887	25.77
425.094	218.28
425.302	156.84
425.51	31.91
425.718	181.42
425.925	89.26
426.133	72.87
426.341	273.57
426.548	27.82
426.756	93.35
426.964	111.78
427.171	-25.43
427.379	99.5
427.586	109.74
427.794	156.84
428.001	169.13
428.209	148.65
428.417	185.51
428.624	216.23
428.832	210.09
429.039	79.02
429.247	132.26
429.454	187.56
429.662	201.9
429.869	226.47
430.076	93.35
430.284	119.98
430.491	310.44
430.699	154.79
430.906	224.42
431.114	199.85
431.321	173.22
431.528	85.16
431.736	117.93
431.943	218.28
432.15	134.31
432.358	281.77
432.565	255.14
432.772	76.97
432.979	234.66
433.187	183.46
433.394	214.18
433.601	181.42
433.808	191.66
434.016	312.49
434.223	224.42
434.43	234.66
434.637	269.48
434.844	392.36
435.052	236.71
435.259	244.9
435.466	343.21
435.673	273.57
435.88	351.4
436.087	408.74
436.294	294.05
436.501	345.25
436.708	318.63
436.915	361.64
437.122	390.31
437.329	287.91
437.537	306.34
437.743	335.01
437.95	494.76
438.157	421.03
438.364	439.46
438.571	322.73
438.778	486.56
438.985	466.08
439.192	472.23
439.399	468.13
439.606	439.46
439.813	543.91
440.02	576.67
440.227	672.93
440.433	568.48
440.64	521.38
440.847	482.47
441.054	552.1
441.261	691.36
441.467	648.35
441.674	582.82
441.881	717.98
442.088	650.4
442.294	679.07
442.501	736.42
442.708	896.16
442.914	758.94
443.121	935.07
443.328	896.16
443.534	933.02
443.741	933.02
443.948	855.2
444.154	1041.56
444.361	1127.58
444.568	1092.76
444.774	1014.94
444.981	1006.75
445.187	1178.78
445.394	1141.91
445.6	1135.77
445.807	1395.86
446.013	1301.65
446.22	1244.31
446.426	1363.09
446.633	1494.16
446.839	1731.73
447.046	1473.68
447.252	1676.43
447.459	1707.15
447.665	1752.21
447.871	1832.08
448.078	2004.11
448.284	1924.24
448.491	1918.09
448.697	2172.04
448.903	2157.71
449.11	2028.68
449.316	2223.24
449.522	2362.5
449.728	2452.61
449.935	2495.62
450.141	2528.39
450.347	2745.47
450.553	2761.86
450.76	2780.29
450.966	3036.28
451.172	3085.44
451.378	3177.59
451.584	3243.13
451.791	3396.73
451.997	3529.84
452.203	3622
452.409	3849.33
452.615	3984.49
452.821	3789.94
453.027	3943.53
453.233	4258.92
453.44	4295.79
453.646	4342.89
453.852	4555.88
454.058	4807.78
454.264	4944.99
454.47	5254.23
454.676	5248.09
454.882	5643.35
455.088	5497.94
455.294	5868.63
455.5	6200.4
455.705	6366.28
455.911	6497.35
456.117	6792.26
456.323	6716.48
456.529	7005.25
456.735	7629.88
456.941	7695.41
457.147	8045.62
457.352	8201.26
457.558	8401.96
457.764	9221.15
457.97	9239.58
458.176	9518.11
458.381	10122.26
458.587	10060.82
458.793	10814.47
458.999	10966.02
459.204	11840.5
459.41	12680.17
459.616	12178.42
459.821	13034.47
460.027	13568.99
460.233	14166.99
460.438	14107.6
460.644	15147.97
460.85	15346.62
461.055	15815.61
461.261	16384.94
461.466	16360.37
461.672	16585.65
461.878	18430.87
462.083	18400.15
462.289	18533.26
462.494	19248
462.7	19559.3
462.905	19612.54
463.111	21222.25
463.316	22532.95
463.522	22432.6
463.727	23481.16
463.932	24582.96
464.138	25416.49
464.343	26192.67
464.549	26241.82
464.754	28279.55
464.959	29201.13
465.165	29631.21
465.37	29364.97
465.575	29125.36
465.781	31140.56
465.986	32250.56
466.191	31632.07
466.397	31945.41
466.602	31388.36
466.807	33110.71
467.012	33446.57
467.218	33956.52
467.423	34577.05
467.628	35035.8
467.833	37036.66
468.038	36450.94
468.244	35576.46
468.449	37577.33
468.654	36348.54
468.859	36561.53
469.064	36723.32
469.269	35873.42
469.474	36360.83
469.679	37347.95
469.885	36323.97
470.09	36831.86
470.295	37038.71
470.5	36053.64
470.705	36340.35
470.91	35187.35
471.115	34869.91
471.32	35451.53
471.525	35304.08
471.73	34177.7
471.935	34292.38
472.139	33170.1
472.344	32631.48
472.549	32408.25
472.754	31785.67
472.959	31245.01
473.164	30304.99
473.369	29666.02
473.574	30790.36
473.778	30005.98
473.983	29616.87
474.188	28945.14
474.393	27708.16
474.598	27400.97
474.802	26866.45
475.007	26778.39
475.212	25975.58
475.417	25037.61
475.621	25006.89
475.826	24527.67
476.031	23827.26
476.235	23694.15
476.44	23880.51
476.645	22852.43
476.849	22940.49
477.054	22459.22
477.259	22068.06
477.463	21896.03
477.668	21142.38
477.872	21275.49
478.077	20648.82
478.282	20005.75
478.486	19667.84
478.691	19735.42
478.895	19540.86
479.1	19538.82
479.304	19346.31
479.509	18637.71
479.713	18674.57
479.918	18189.21
480.122	17929.11
480.326	18072.47
480.531	18185.11
480.735	17925.02
480.94	17580.96
481.144	18283.41
481.348	17062.82
481.553	17230.76
481.757	16907.18
481.961	16982.95
482.166	17263.52
482.37	17056.68
482.574	16272.31
482.778	16368.56
482.983	16569.26
483.187	16200.63
483.391	16212.92
483.595	16004.02
483.8	15502.27
484.004	15784.89
484.208	15899.58
484.412	15680.44
484.616	15285.19
484.821	15408.06
485.025	14656.46
485.229	14726.09
485.433	14709.71
485.637	14582.73
485.841	14210
486.045	14109.65
486.249	14093.27
486.453	13777.88
486.657	13411.29
486.861	13532.12
487.065	12907.49
487.269	12930.02
487.473	12458.99
487.677	12581.87
487.881	12606.44
488.085	12096.5
488.289	11879.41
488.493	11701.24
488.697	11860.98
488.901	11508.73
489.105	11187.2
489.309	11029.51
489.512	10800.13
489.716	10632.2
489.92	10390.54
490.124	10124.3
490.328	10396.68
490.531	9903.12
490.735	9968.66
490.939	9577.5
491.143	9364.51
491.346	9333.79
491.55	9022.5
491.754	8842.28
491.958	8932.39
492.161	8696.87
492.365	8592.42
492.569	8414.25
492.772	8459.31
492.976	8260.65
493.18	8070.19
493.383	7955.51
493.587	7834.68
493.79	8016.94
493.994	7732.28
494.197	7681.08
494.401	7732.28
494.605	7437.37
494.808	7584.82
495.012	7287.87
495.215	7281.72
495.419	7265.34
495.622	7156.8
495.825	7244.86
496.029	7126.08
496.232	7150.65
496.436	6956.1
496.639	7105.6
496.843	6884.42
497.046	7154.75
497.249	7230.52
497.453	7150.65
497.656	7130.17
497.859	7093.31
498.063	7132.22
498.266	7089.21
498.469	7035.97
498.673	7341.11
498.876	6960.19
499.079	7033.92
499.282	7148.61
499.485	7525.43
499.689	7457.85
499.892	7400.51
500.095	7259.2
500.298	7550.01
500.501	7316.54
500.705	7494.71
500.908	7724.08
501.111	7554.1
501.314	7865.39
501.517	7959.6
501.72	7928.88
501.923	7941.17
502.126	8129.58
502.329	8320.04
502.532	8211.5
502.735	8051.76
502.938	8395.82
503.141	8551.46
503.344	8526.89
503.547	8725.54
503.75	8848.42
503.953	8770.6
504.156	9057.31
504.359	9219.1
504.562	9288.73
504.765	9352.22
504.968	9454.62
505.17	9618.46
505.373	9833.49
505.576	9927.7
505.779	9843.73
505.982	10345.48
506.185	10630.15
506.387	10742.79
506.59	11013.12
506.793	10904.58
506.996	11164.67
507.198	11441.15
507.401	11674.62
507.604	11871.22
507.807	12037.11
508.009	12239.86
508.212	12563.43
508.415	12651.5
508.617	12833.77
508.82	13161.44
509.022	13495.26
509.225	13943.77
509.428	14265.3
509.63	14359.5
509.833	14535.63
510.035	15107.01
510.238	15119.3
510.44	15836.09
510.643	16014.26
510.845	16524.21
511.048	16546.73
511.25	16917.42
511.453	17365.92
511.655	18078.61
511.858	18242.45
512.06	18701.2
512.262	18934.67
512.465	19305.35
512.667	19944.31
512.87	20507.51
513.072	20534.13
513.274	21455.72
513.477	21875.55
513.679	22377.3
513.881	22500.18
514.084	23434.05
514.286	23608.13
514.488	23970.62
514.69	25207.59
514.893	25307.94
515.095	25490.21
515.297	26397.46
515.499	26661.65
515.701	27345.67
515.904	28037.89
516.106	28482.3
516.308	28900.08
516.51	29979.36
516.712	30188.25
516.914	30880.47
517.116	31279.82
517.318	31992.51
517.52	32645.82
517.722	33182.38
517.925	33786.54
518.127	34902.68
518.329	34943.64
518.531	35152.53
518.733	36231.81
518.935	36754.04
519.136	37413.49
519.338	38011.49
519.54	38101.61
519.742	39244.37
519.944	39737.93
520.146	40485.44
520.348	40862.27
520.55	41337.4
520.752	41968.17
520.954	42484.26
521.155	42220.07
521.357	43393.56
521.559	44155.4
521.761	44667.39
521.963	44673.54
522.164	45306.36
522.366	45339.13
522.568	46051.82
522.77	46381.54
522.971	47421.91
523.173	46666.21
523.375	47288.79
523.576	47407.58
523.778	47413.72
523.98	47894.99
524.181	48380.36
524.383	48341.45
524.584	48753.09
524.786	48988.61
524.988	48447.94
525.189	49246.65
525.391	49109.44
525.592	49367.48
525.794	48998.85
525.995	48712.13
526.197	48751.04
526.398	49312.19
526.6	48687.56
526.801	49172.92
527.003	48644.55
527.204	48638.4
527.406	48970.18
527.607	48552.39
527.808	48294.35
528.01	47292.89
528.211	47595.99
528.412	48028.11
528.614	47419.86
528.815	47000.03
529.016	47253.98
529.218	46223.85
529.419	46000.62
529.62	45474.29
529.822	45093.37
530.023	44601.86
530.224	44618.24
530.425	43969.04
530.626	43227.67
530.828	42736.16
531.029	43035.16
531.23	42557.99
531.431	41634.35
531.632	41515.57
531.833	40989.24
532.035	40219.2
532.236	40014.41
532.437	39666.25
532.638	39197.27
532.839	38666.84
533.04	38204
533.241	37292.66
533.442	37526.13
533.643	36856.44
533.844	36334.21
534.045	35932.81
534.246	35226.26
534.447	35076.76
534.648	34331.29
534.849	34067.11
535.05	33376.94
535.251	32985.78
535.451	32697.02
535.652	32047.81
535.853	32129.73
536.054	31277.77
536.255	31007.44
536.456	30089.95
536.657	30302.94
536.857	29309.68
537.058	29158.13
537.259	29057.78
537.46	28607.22
537.66	28048.13
537.861	27654.92
538.062	27327.24
538.263	26956.56
538.463	26360.6
538.664	26194.71
538.865	26037.02
539.065	25926.43
539.266	25195.31
539.466	25027.37
539.667	24531.76
539.868	24947.5
540.068	24265.53
540.269	23954.24
540.469	23620.42
540.67	23403.33
540.87	23389
541.071	22793.04
541.271	22750.03
541.472	22496.08
541.672	21984.09
541.873	21664.61
542.073	21220.2
542.274	21373.8
542.474	21080.94
542.675	20671.34
542.875	20894.57
543.075	20423.54
543.276	19917.69
543.476	20128.63
543.676	19743.61
543.877	19676.03
544.077	19301.25
544.277	18946.95
544.478	18563.98
544.678	18836.36
544.878	18520.98
545.078	18150.29
545.279	18068.37
545.479	17769.37
545.679	17437.6
545.879	17382.31
546.079	16974.76
546.28	16896.94
546.48	16745.39
546.68	16415.66
546.88	16219.06
547.08	16303.03
547.28	15997.88
547.48	15692.73
547.68	15705.02
547.88	15246.27
548.081	15440.83
548.281	15084.48
548.481	14891.98
548.681	14838.73
548.881	14398.41
549.081	14281.68
549.28	14228.43
549.48	13773.78
549.68	13794.26
549.88	13720.54
550.08	13104.1
550.28	13130.72
550.48	12977.12
550.68	12979.17
550.88	12340.21
551.08	12350.45
551.279	12379.12
551.479	11932.66
551.679	12123.12
551.879	11998.2
552.079	11635.71
552.278	11424.76
552.478	11502.59
552.678	11217.92
552.878	11033.6
553.077	10816.52
553.277	10443.79
553.477	10363.92
553.676	10421.26
553.876	10056.72
554.076	9921.56
554.275	9729.05
554.475	9536.54
554.674	9507.87
554.874	9319.45
555.074	9077.79
555.273	8709.16
555.473	9149.47
555.672	8928.29
555.872	8559.66
556.071	8514.6
556.271	8533.03
556.47	8201.26
556.67	8088.62
556.869	8068.14
557.068	7709.75
557.268	7578.68
557.467	7576.63
557.667	7613.49
557.866	7427.13
558.065	7162.94
558.265	7066.69
558.464	6874.18
558.663	6964.29
558.863	6872.13
559.062	6663.24
559.261	6526.02
559.461	6532.17
559.66	6337.61
559.859	6194.25
560.058	6118.48
560.258	6151.24
560.457	5854.29
560.656	5903.44
560.855	5786.71
561.054	5866.58
561.253	5690.45
561.453	5540.95
561.652	5434.46
561.851	5596.25
562.05	5184.6
562.249	5078.11
562.448	5190.75
562.647	4975.71
562.846	4918.37
563.045	4934.75
563.244	4779.11
563.443	4752.48
563.642	4701.28
563.841	4643.94
564.04	4648.04
564.239	4402.28
564.438	4357.22
564.637	4230.25
564.836	4277.35
565.035	4138.09
565.234	4013.17
565.432	4002.93
565.631	4168.81
565.83	3906.67
566.029	3828.85
566.228	3751.03
566.427	3986.54
566.625	3564.66
566.824	3574.9
567.023	3644.53
567.222	3460.21
567.42	3529.84
567.619	3603.57
567.818	3316.86
568.016	3517.56
568.215	3277.94
568.414	3347.58
568.612	3351.67
568.811	3218.55
569.01	3097.72
569.208	3193.98
569.407	3163.26
569.605	2980.99
569.804	3048.57
570.002	2991.23
570.201	2722.95
570.4	2897.02
570.598	2765.95
570.797	2763.9
570.995	2587.78
571.193	2614.4
571.392	2643.07
571.59	2479.24
571.789	2581.64
571.987	2575.49
572.186	2645.12
572.384	2485.38
572.582	2372.74
572.781	2411.65
572.979	2292.87
573.177	2245.77
573.376	2172.04
573.574	2313.35
573.772	2124.94
573.971	2124.94
574.169	1963.15
574.367	2045.07
574.565	2022.54
574.763	2020.49
574.962	2047.12
575.16	2055.31
575.358	1967.24
575.556	1965.2
575.754	1905.81
575.952	1879.18
576.151	1893.52
576.349	1762.45
576.547	1614.99
576.745	1707.15
576.943	1719.44
577.141	1672.34
577.339	1692.82
577.537	1651.86
577.735	1692.82
577.933	1647.76
578.131	1459.35
578.329	1633.43
578.527	1508.5
578.725	1395.86
578.923	1293.46
579.121	1516.69
579.319	1143.96
579.516	1315.99
579.714	1485.97
579.912	1424.53
580.11	1305.75
580.308	1346.71
580.506	1236.12
580.704	1162.39
580.901	1162.39
581.099	1248.41
581.297	1352.85
581.495	1248.41
581.692	1215.64
581.89	1336.47
582.088	1121.43
582.285	1103
582.483	1225.88
582.681	1092.76
582.878	1088.67
583.076	1055.9
583.274	1107.1
583.471	1240.22
583.669	1023.13
583.866	967.84
584.064	935.07
584.262	902.3
584.459	965.79
584.657	916.64
584.854	986.27
585.052	814.24
585.249	967.84
585.447	906.4
585.644	826.53
585.841	904.35
586.039	894.11
586.236	978.08
586.434	933.02
586.631	717.98
586.828	863.39
587.026	760.99
587.223	693.41
587.42	787.61
587.618	826.53
587.815	847.01
588.012	812.19
588.21	595.11
588.407	820.38
588.604	818.33
588.801	703.65
588.999	658.59
589.196	820.38
589.393	603.3
589.59	629.92
589.787	715.94
589.984	699.55
590.182	681.12
590.379	668.83
590.576	644.26
590.773	664.74
590.97	625.83
591.167	715.94
591.364	691.36
591.561	709.79
591.758	724.13
591.955	642.21
592.152	695.46
592.349	543.91
592.546	726.18
592.743	492.71
592.94	644.26
593.137	767.13
593.334	732.32
593.531	732.32
593.727	658.59
593.924	691.36
594.121	611.49
594.318	679.07
594.515	642.21
594.712	773.28
594.908	765.09
595.105	459.94
595.302	717.98
595.499	715.94
595.696	832.67
595.892	664.74
596.089	816.29
596.286	642.21
596.482	830.62
596.679	726.18
596.876	830.62
597.072	849.05
597.269	789.66
597.466	926.88
597.662	855.2
597.859	861.34
598.055	877.73
598.252	898.2
598.448	885.92
598.645	992.41
598.841	1080.47
599.038	1150.11
599.234	1182.87
599.431	1113.24
599.627	1238.17
599.824	1191.06
600.02	1182.87
600.217	1279.13
600.413	1330.33
600.609	1467.54
600.806	1582.23
601.002	1488.02
601.198	1510.55
601.395	1666.19
601.591	1672.34
601.787	1815.69
601.984	1750.16
602.18	1803.41
602.376	1856.65
602.572	1989.77
602.769	2100.36
602.965	2151.56
603.161	2288.78
603.357	2258.06
603.553	2401.41
603.75	2387.08
603.946	2546.82
604.142	2569.35
604.338	2856.06
604.534	2763.9
604.73	2849.92
604.926	2837.63
605.122	3073.15
605.318	3056.76
605.514	3421.3
605.71	3323
605.906	3564.66
606.102	3544.18
606.298	3794.03
606.494	3918.96
606.69	3912.81
606.886	3966.06
607.082	3923.05
607.278	4043.88
607.474	4396.14
607.67	4422.76
607.866	4414.57
608.062	4836.45
608.257	4746.34
608.453	4924.51
608.649	5006.43
608.845	5037.15
609.041	5344.35
609.236	5295.19
609.432	5448.79
609.628	5887.06
609.824	5837.91
610.019	5977.17
610.215	6163.53
610.411	6442.06
610.606	6564.93
610.802	6593.61
610.998	6782.02
611.193	6984.77
611.389	7068.73
611.584	7332.92
611.78	7533.62
611.976	7914.55
612.171	8197.17
612.367	8021.04
612.562	8348.72
612.758	8735.78
612.953	8700.97
613.149	9020.45
613.344	9159.71
613.539	9438.23
613.735	9765.91
613.93	9933.84
614.126	10243.09
614.321	10660.87
614.517	10937.35
614.712	10945.54
614.907	11238.4
615.103	11500.54
615.298	11850.74
615.493	12153.84
615.688	12227.57
615.884	13022.18
616.079	13083.62
616.274	13530.08
616.47	13458.4
616.665	13784.02
616.86	14472.14
617.055	14625.74
617.25	15084.48
617.445	15561.66
617.641	15662.01
617.836	16157.62
618.031	16235.44
618.226	17150.88
618.421	17376.16
618.616	18086.81
618.811	18244.5
619.006	18918.28
619.201	19028.87
619.396	19624.83
619.591	19655.55
619.786	20593.52
619.981	20501.36
620.176	21177.19
620.371	21293.93
620.566	22143.83
620.761	22430.55
620.956	22977.36
621.151	23073.61
621.346	23851.84
621.541	23829.31
621.735	24861.49
621.93	24646.45
622.125	25506.6
622.32	25551.65
622.515	26491.67
622.709	26690.32
622.904	27249.42
623.099	27611.91
623.294	28304.12
623.488	28594.93
623.683	29438.7
623.878	29444.84
624.072	30196.45
624.267	30423.77
624.462	30950.1
624.656	31154.9
624.851	31795.91
625.046	32070.34
625.24	32936.63
625.435	32953.01
625.629	33434.28
625.824	33847.97
626.018	34749.08
626.213	34398.88
626.407	35480.21
626.602	35060.37
626.796	35975.81
626.991	36332.16
627.185	36426.37
627.38	36545.15
627.574	37100.15
627.768	37304.95
627.963	37159.54
628.157	37177.97
628.352	37696.11
628.546	36983.41
628.74	37692.01
628.935	37491.31
629.129	37745.26
629.323	37069.43
629.517	37114.48
629.712	36827.77
629.906	36346.5
630.1	36147.84
630.294	36037.25
630.489	35277.46
630.683	35537.55
630.877	34378.4
631.071	33872.55
631.265	33764.01
631.459	32780.98
631.653	32461.5
631.848	31402.7
632.042	30522.07
632.236	30030.56
632.43	28928.75
632.624	28592.89
632.818	27595.53
633.012	26770.19
633.206	25955.1
633.4	25355.05
633.594	24433.46
633.788	23782.21
633.982	22592.34
634.176	22090.59
634.369	20943.72
634.563	20222.84
634.757	19622.78
634.951	19022.73
635.145	18387.86
635.339	17554.33
635.533	16571.31
635.726	16073.65
635.92	15221.7
636.114	14609.36
636.308	14210
636.501	13540.32
636.695	13106.15
636.889	12440.56
637.083	12043.25
637.276	11508.73
637.47	10933.25
637.664	10611.72
637.857	10105.87
638.051	9597.98
638.244	9507.87
638.438	9020.45
638.632	8471.59
638.825	8281.13
639.019	8186.93
639.212	7765.04
639.406	7386.17
639.599	6929.47
639.793	6794.31
639.986	6478.92
640.18	6329.42
640.373	5925.97
640.567	5661.78
640.76	5608.53
640.954	5379.16
641.147	4983.9
641.34	4985.95
641.534	4811.87
641.727	4586.6
641.92	4459.62
642.114	4351.08
642.307	4056.17
642.5	3941.49
642.694	3796.08
642.887	3714.16
643.08	3630.2
643.273	3402.87
643.467	3370.1
643.66	3126.39
643.853	2980.99
644.046	2997.37
644.239	2817.15
644.432	2731.14
644.626	2561.16
644.819	2571.4
645.012	2339.97
645.205	2333.83
645.398	2268.3
645.591	2122.89
645.784	1887.37
645.977	1920.14
646.17	1885.33
646.363	1916.05
646.556	1612.95
646.749	1617.04
646.942	1561.75
647.135	1561.75
647.328	1438.87
647.521	1485.97
647.714	1350.81
647.907	1301.65
648.099	1379.48
648.292	1315.99
648.485	1221.78
648.678	1076.38
648.871	1141.91
649.064	1107.1
649.256	935.07
649.449	990.36
649.642	955.55
649.835	943.26
650.027	906.4
650.22	939.16
650.413	834.72
650.605	896.16
650.798	810.14
650.991	658.59
651.183	779.42
651.376	740.51
651.568	724.13
651.761	670.88
651.954	730.27
652.146	603.3
652.339	697.5
652.531	638.11
652.724	554.15
652.916	509.09
653.109	437.41
653.301	580.77
653.494	521.38
653.686	545.95
653.879	488.61
654.071	572.58
654.263	500.9
654.456	392.36
654.648	533.67
654.84	445.6
655.033	404.64
655.225	466.08
655.417	326.82
655.61	552.1
655.802	461.99
655.994	523.43
656.186	306.34
656.379	523.43
656.571	292.01
656.763	308.39
656.955	292.01
657.148	306.34
657.34	388.26
657.532	263.33
657.724	259.24
657.916	365.73
658.108	320.68
658.3	316.58
658.492	308.39
658.684	142.5
658.876	304.29
659.068	189.61
659.26	138.41
659.452	148.65
659.644	263.33
659.836	404.64
660.028	214.18
660.22	201.9
660.412	273.57
660.604	275.62
660.796	232.62
660.988	259.24
661.18	232.62
661.372	306.34
661.563	183.46
661.755	273.57
661.947	122.02
662.139	97.45
662.331	234.66
662.522	210.09
662.714	79.02
662.906	107.69
663.097	210.09
663.289	158.89
663.481	81.07
663.673	216.23
663.864	228.52
664.056	236.71
664.247	167.08
664.439	253.09
664.631	228.52
664.822	253.09
665.014	232.62
665.205	134.31
665.397	195.75
665.588	189.61
665.78	134.31
665.971	205.99
666.163	220.33
666.354	287.91
666.546	33.96
666.737	81.07
666.929	99.5
667.12	89.26
667.311	130.22
667.503	158.89
667.694	246.95
667.885	187.56
668.077	228.52
668.268	38.06
668.459	138.41
668.651	232.62
668.842	185.51
669.033	126.12
669.224	46.25
669.416	228.52
669.607	113.83
669.798	99.5
669.989	302.25
670.18	130.22
670.371	201.9
670.563	68.78
670.754	261.29
670.945	205.99
671.136	208.04
671.327	60.59
671.518	275.62
671.709	289.96
671.9	205.99
672.091	263.33
672.282	173.22
672.473	169.13
672.664	160.94
672.855	95.4
673.046	226.47
673.237	234.66
673.428	156.84
673.619	195.75
673.809	99.5
674	265.38
674.191	210.09
674.382	175.27
674.573	136.36
674.764	179.37
674.954	263.33
675.145	142.5
675.336	169.13
675.527	79.02
675.717	136.36
675.908	148.65
676.099	144.55
676.289	169.13
676.48	36.01
676.671	117.93
676.861	83.11
677.052	191.66
677.243	52.39
677.433	109.74
677.624	195.75
677.814	216.23
678.005	140.46
678.195	230.57
678.386	138.41
678.576	187.56
678.767	81.07
678.957	210.09
679.148	203.94
679.338	269.48
679.529	236.71
679.719	173.22
679.909	283.81
680.1	232.62
680.29	232.62
680.481	126.12
680.671	261.29
680.861	191.66
681.052	195.75
681.242	173.22
681.432	205.99
681.622	203.94
681.813	62.63
682.003	105.64
682.193	134.31
682.383	234.66
682.573	230.57
682.764	130.22
682.954	185.51
683.144	255.14
683.334	259.24
683.524	232.62
683.714	292.01
683.904	214.18
684.094	162.98
684.284	205.99
684.474	318.63
684.664	267.43
684.854	294.05
685.044	208.04
685.234	261.29
685.424	169.13
685.614	232.62
685.804	359.59
685.994	242.85
686.184	257.19
686.374	214.18
686.564	253.09
686.753	222.38
686.943	91.31
687.133	169.13
687.323	212.14
687.513	201.9
687.702	263.33
687.892	208.04
688.082	275.62
688.272	306.34
688.461	136.36
688.651	324.77
688.841	273.57
689.03	156.84
689.22	165.03
689.41	306.34
689.599	273.57
689.789	111.78
689.979	398.5
690.168	169.13
690.358	300.2
690.547	249
690.737	230.57
690.926	292.01
691.116	267.43
691.305	230.57
691.495	345.25
691.684	167.08
691.874	208.04
692.063	208.04
692.252	224.42
692.442	251.05
692.631	134.31
692.82	177.32
693.01	183.46
693.199	126.12
693.388	328.87
693.578	257.19
693.767	251.05
693.956	289.96
694.146	191.66
694.335	208.04
694.524	181.42
694.713	324.77
694.902	158.89
695.092	238.76
695.281	240.81
695.47	228.52
695.659	122.02
695.848	183.46
696.037	230.57
696.226	242.85
696.415	246.95
696.604	310.44
696.793	255.14
696.982	210.09
697.171	302.25
697.36	132.26
697.549	238.76
697.738	167.08
697.927	277.67
698.116	52.39
698.305	265.38
698.494	173.22
698.683	173.22
698.872	273.57
699.061	292.01
699.25	277.67
699.438	162.98
699.627	169.13
699.816	328.87
700.005	152.74
700.193	107.69
700.382	216.23
700.571	216.23
700.76	197.8
700.948	232.62
701.137	171.18
701.326	220.33
701.514	142.5
701.703	240.81
701.892	249
702.08	359.59
702.269	218.28
702.457	171.18
702.646	212.14
702.834	253.09
703.023	218.28
703.212	324.77
703.4	279.72
703.589	201.9
703.777	203.94
703.965	150.7
704.154	81.07
704.342	201.9
704.531	103.59
704.719	203.94
704.907	306.34
705.096	158.89
705.284	158.89
705.472	214.18
705.661	189.61
705.849	232.62
706.037	273.57
706.226	246.95
706.414	193.7
706.602	173.22
706.79	343.21
706.979	117.93
707.167	201.9
707.355	64.68
707.543	142.5
707.731	222.38
707.919	224.42
708.107	177.32
708.296	152.74
708.484	167.08
708.672	193.7
708.86	189.61
709.048	181.42
709.236	195.75
709.424	199.85
709.612	253.09
709.8	95.4
709.988	222.38
710.176	236.71
710.364	273.57
710.551	167.08
710.739	220.33
710.927	119.98
711.115	242.85
711.303	269.48
711.491	255.14
711.679	201.9
711.866	292.01
712.054	205.99
712.242	234.66
712.43	285.86
712.617	197.8
712.805	281.77
712.993	144.55
713.181	111.78
713.368	244.9
713.556	230.57
713.744	201.9
713.931	361.64
714.119	208.04
714.306	226.47
714.494	181.42
714.682	246.95
714.869	150.7
715.057	142.5
715.244	177.32
715.432	255.14
715.619	152.74
715.807	220.33
715.994	165.03
716.182	275.62
716.369	281.77
716.556	261.29
716.744	87.21
716.931	115.88
717.119	228.52
717.306	244.9
717.493	292.01
717.681	175.27
717.868	224.42
718.055	273.57
718.242	189.61
718.43	275.62
718.617	281.77
718.804	181.42
718.991	322.73
719.179	292.01
719.366	251.05
719.553	296.1
719.74	273.57
719.927	244.9
720.114	300.2
720.301	160.94
720.488	179.37
720.676	138.41
720.863	341.16
721.05	345.25
721.237	312.49
721.424	199.85
721.611	185.51
721.798	185.51
721.985	167.08
722.172	187.56
722.358	216.23
722.545	269.48
722.732	265.38
722.919	285.86
723.106	253.09
723.293	203.94
723.48	236.71
723.667	199.85
723.853	296.1
724.04	283.81
724.227	289.96
724.414	271.53
724.6	269.48
724.787	345.25
724.974	396.45
725.161	201.9
725.347	208.04
725.534	179.37
725.72	277.67
725.907	271.53
726.094	314.53
726.28	240.81
726.467	273.57
726.653	158.89
726.84	318.63
727.027	275.62
727.213	212.14
727.4	281.77
727.586	253.09
727.773	357.54
727.959	318.63
728.145	275.62
728.332	332.97
728.518	251.05
728.705	220.33
728.891	314.53
729.077	277.67
729.264	150.7
729.45	253.09
729.636	312.49
729.823	208.04
730.009	332.97
730.195	289.96
730.382	310.44
730.568	208.04
730.754	302.25
730.94	244.9
731.126	201.9
731.313	363.69
731.499	240.81
731.685	302.25
731.871	232.62
732.057	275.62
732.243	335.01
732.429	222.38
732.615	312.49
732.801	224.42
732.987	171.18
733.173	193.7
733.359	257.19
733.545	279.72
733.731	249
733.917	335.01
734.103	203.94
734.289	287.91
734.475	220.33
734.661	357.54
734.847	304.29
735.033	263.33
735.219	249
735.404	273.57
735.59	222.38
735.776	197.8
735.962	310.44
736.148	267.43
736.333	345.25
736.519	244.9
736.705	201.9
736.89	249
737.076	283.81
737.262	185.51
737.447	146.6
737.633	240.81
737.819	236.71
738.004	255.14
738.19	273.57
738.375	263.33
738.561	269.48
738.747	326.82
738.932	187.56
739.118	418.98
739.303	294.05
739.489	351.4
739.674	232.62
739.859	162.98
740.045	228.52
740.23	220.33
740.416	97.45
740.601	312.49
740.786	199.85
740.972	226.47
741.157	189.61
741.342	255.14
741.528	269.48
741.713	380.07
741.898	277.67
742.084	236.71
742.269	332.97
742.454	289.96
742.639	287.91
742.824	251.05
743.01	322.73
743.195	408.74
743.38	216.23
743.565	271.53
743.75	308.39
743.935	189.61
744.12	351.4
744.305	251.05
744.49	156.84
744.675	230.57
744.86	226.47
745.045	267.43
745.23	273.57
745.415	154.79
745.6	421.03
745.785	226.47
745.97	279.72
746.155	294.05
746.34	269.48
746.525	224.42
746.71	292.01
746.895	175.27
747.079	187.56
747.264	205.99
747.449	218.28
747.634	269.48
747.819	285.86
748.003	138.41
748.188	197.8
748.373	267.43
748.557	257.19
748.742	273.57
748.927	285.86
749.111	230.57
749.296	173.22
749.481	302.25
749.665	261.29
749.85	156.84
750.034	236.71
750.219	224.42
750.404	222.38
750.588	271.53
750.773	165.03
750.957	234.66
751.141	201.9
751.326	249
751.51	117.93
751.695	179.37
751.879	142.5
752.064	304.29
752.248	195.75
752.432	347.3
752.617	242.85
752.801	240.81
752.985	232.62
753.17	314.53
753.354	326.82
753.538	191.66
753.722	130.22
753.907	169.13
754.091	52.39
754.275	136.36
754.459	128.17
754.643	136.36
754.828	171.18
755.012	298.15
755.196	197.8
755.38	72.87
755.564	115.88
755.748	150.7
755.932	167.08
756.116	230.57
756.3	257.19
756.484	142.5
756.668	187.56
756.852	89.26
757.036	193.7
757.22	232.62
757.404	87.21
757.588	146.6
757.772	179.37
757.956	95.4
758.14	281.77
758.323	179.37
758.507	189.61
758.691	95.4
758.875	199.85
759.059	212.14
759.242	138.41
759.426	132.26
759.61	175.27
759.794	169.13
759.977	144.55
760.161	398.5
760.345	191.66
760.528	191.66
760.712	122.02
760.895	230.57
761.079	146.6
761.263	117.93
761.446	54.44
761.63	68.78
761.813	185.51
761.997	17.58
762.18	156.84
762.364	138.41
762.547	17.58
762.731	105.64
762.914	191.66
763.098	195.75
763.281	132.26
763.464	144.55
763.648	144.55
763.831	-0.85
764.015	122.02
764.198	142.5
764.381	130.22
764.564	197.8
764.748	203.94
764.931	249
765.114	83.11
765.297	85.16
765.481	76.97
765.664	101.55
765.847	124.07
766.03	185.51
766.213	48.3
766.397	115.88
766.58	11.43
766.763	150.7
766.946	109.74
767.129	93.35
767.312	165.03
767.495	132.26
767.678	50.35
767.861	95.4
768.044	117.93
768.227	115.88
768.41	122.02
768.593	95.4
768.776	138.41
768.959	89.26
769.142	169.13
769.324	117.93
769.507	160.94
769.69	101.55
769.873	136.36
770.056	269.48
770.239	128.17
770.421	156.84
770.604	181.42
770.787	56.49
770.97	119.98
771.152	-17.24
771.335	154.79
771.518	-47.96
771.7	165.03
771.883	171.18
772.066	-50
772.248	152.74
772.431	175.27
772.613	128.17
772.796	124.07
772.978	87.21
773.161	138.41
773.343	109.74
773.526	72.87
773.708	-21.33
773.891	97.45
774.073	62.63
774.256	19.63
774.438	210.09
774.621	85.16
774.803	150.7
774.985	136.36
775.168	109.74
775.35	25.77
775.532	103.59
775.715	74.92
775.897	33.96
776.079	-4.95
776.261	76.97
776.444	173.22
776.626	99.5
776.808	87.21
776.99	1.19
777.173	27.82
777.355	21.67
777.537	99.5
777.719	132.26
777.901	101.55
778.083	-13.14
778.265	3.24
778.447	154.79
778.629	1.19
778.811	138.41
778.993	140.46
779.175	201.9
779.357	201.9
779.539	-0.85
779.721	62.63
779.903	93.35
780.085	42.15
780.267	169.13
780.449	21.67
780.631	148.65
780.812	173.22
780.994	58.54
781.176	105.64
781.358	-23.38
781.54	-11.09
781.721	81.07
781.903	101.55
782.085	122.02
782.267	107.69
782.448	-7
782.63	-2.9
782.812	76.97
782.993	93.35
783.175	54.44
783.357	93.35
783.538	115.88
783.72	15.53
783.901	9.39
784.083	48.3
784.264	142.5
784.446	15.53
784.627	9.39
784.809	162.98
784.99	66.73
785.172	44.2
785.353	46.25
785.535	81.07
785.716	52.39
785.897	-76.63
786.079	56.49
786.26	81.07
786.441	29.87
786.623	-62.29
786.804	40.11
786.985	38.06
787.167	115.88
787.348	-4.95
787.529	60.59
787.71	210.09
787.891	95.4
788.073	9.39
788.254	25.77
788.435	167.08
788.616	79.02
788.797	9.39
788.978	21.67
789.159	-4.95
789.34	81.07
789.522	74.92
789.703	-35.67
789.884	36.01
790.065	5.29
790.246	189.61
790.427	25.77
790.607	146.6
790.788	150.7
790.969	3.24
791.15	74.92
791.331	74.92
791.512	-23.38
791.693	-50
791.874	89.26
792.054	195.75
792.235	146.6
792.416	-9.05
792.597	58.54
792.778	130.22
792.958	58.54
793.139	76.97
793.32	27.82
793.5	-62.29
793.681	167.08
793.862	87.21
794.042	109.74
794.223	-68.44
794.404	36.01
794.584	-127.83
794.765	31.91
794.945	54.44
795.126	52.39
795.306	142.5
795.487	42.15
795.667	42.15
795.848	36.01
796.028	66.73
796.209	54.44
796.389	62.63
796.57	50.35
796.75	-70.48
796.93	52.39
797.111	-31.57
797.291	115.88
797.471	58.54
797.652	3.24
797.832	-17.24
798.012	36.01
798.192	-7
798.373	-68.44
798.553	25.77
798.733	97.45
798.913	-17.24
799.093	-9.05
799.274	23.72
799.454	3.24
799.634	17.58
799.814	79.02
799.994	25.77
800.174	40.11
800.354	54.44
800.534	-54.1
800.714	87.21
800.894	15.53
801.074	-66.39
801.254	-50
801.434	130.22
801.614	-7
801.794	-25.43
801.974	1680.53
802.154	27.82
802.334	76.97
802.514	-80.72
802.693	44.2
802.873	-4.95
803.053	79.02
803.233	66.73
803.413	11.43
803.592	83.11
803.772	-21.33
803.952	76.97
804.131	-37.72
804.311	105.64
804.491	169.13
804.67	36.01
804.85	-15.19
805.03	44.2
805.209	103.59
805.389	-15.19
805.568	-0.85
805.748	15.53
805.928	87.21
806.107	97.45
806.287	33.96
806.466	48.3
806.646	1.19
806.825	17.58
807.004	42.15
807.184	1.19
807.363	62.63
807.543	126.12
807.722	-56.15
807.901	99.5
808.081	85.16
808.26	-131.92
808.439	44.2
808.619	93.35
808.798	54.44
808.977	-7
809.156	115.88
809.336	99.5
809.515	52.39
809.694	-68.44
809.873	-17.24
810.052	38.06
810.231	-9.05
810.411	54.44
810.59	91.31
810.769	48.3
810.948	42.15
811.127	-93.01
811.306	-37.72
811.485	36.01
811.664	165.03
811.843	23.72
812.022	72.87
812.201	-11.09
812.38	68.78
812.559	33.96
812.737	101.55
812.916	-33.62
813.095	-23.38
813.274	52.39
813.453	1.19
813.632	-58.2
813.811	128.17
813.989	-27.48
814.168	83.11
814.347	-9.05
814.526	-35.67
814.704	152.74
814.883	107.69
815.062	-11.09
815.24	83.11
815.419	-29.52
815.598	1.19
815.776	-103.25
815.955	23.72
816.133	-115.54
816.312	-19.29
816.49	-39.76
816.669	58.54
816.847	31.91
817.026	138.41
817.204	-60.24
817.383	-11.09
817.561	-50
817.74	132.26
817.918	40.11
818.097	-70.48
818.275	9.39
818.453	74.92
818.632	95.4
818.81	-4.95
818.988	17.58
819.167	40.11
819.345	91.31
819.523	9.39
819.701	9.39
819.879	50.35
820.058	29.87
820.236	17.58
820.414	44.2
820.592	3.24
820.77	15.53
820.948	21.67
821.127	-7
821.305	113.83
821.483	15.53
821.661	122.02
821.839	70.83
822.017	-72.53
822.195	-7
822.373	62.63
822.551	15.53
822.729	89.26
822.907	-0.85
823.085	119.98
823.262	25.77
823.44	-31.57
823.618	27.82
823.796	54.44
823.974	31.91
824.152	13.48
824.329	-29.52
824.507	83.11
824.685	-2.9
824.863	27.82
825.04	38.06
825.218	46.25
825.396	23.72
825.574	70.83
825.751	3.24
825.929	140.46
826.107	3.24
826.284	62.63
826.462	36.01
826.639	-25.43
826.817	11.43
826.994	-21.33
827.172	-31.57
827.349	56.49
827.527	103.59
827.704	83.11
827.882	101.55
828.059	-33.62
828.237	19.63
828.414	140.46
828.591	-54.1
828.769	13.48
828.946	-41.81
829.124	85.16
829.301	101.55
829.478	-29.52
829.655	91.31
829.833	5.29
830.01	-43.86
830.187	19.63
830.364	68.78
830.542	44.2
830.719	105.64
830.896	91.31
831.073	13.48
831.25	5.29
831.427	38.06
831.604	38.06
831.782	-27.48
831.959	105.64
832.136	-41.81
832.313	7.34
832.49	-2.9
832.667	46.25
832.844	-29.52
833.021	167.08
833.198	-15.19
833.374	50.35
833.551	23.72
833.728	-11.09
833.905	109.74
834.082	-33.62
834.259	52.39
834.436	87.21
834.612	-23.38
834.789	109.74
834.966	25.77
835.143	-37.72
835.319	-11.09
835.496	74.92
835.673	40.11
835.85	25.77
836.026	76.97
836.203	52.39
836.38	-76.63
836.556	-90.96
836.733	-45.91
836.909	134.31
837.086	-37.72
837.262	-45.91
837.439	64.68
837.616	-25.43
837.792	31.91
837.968	46.25
838.145	-103.25
838.321	117.93
838.498	36.01
838.674	70.83
838.851	-23.38
839.027	-23.38
839.203	-37.72
839.38	91.31
839.556	-2.9
839.732	52.39
839.909	76.97
840.085	23.72
840.261	-127.83
840.437	76.97
840.614	-50
840.79	91.31
840.966	1.19
841.142	38.06
841.318	13.48
841.494	-21.33
841.671	85.16
841.847	-4.95
842.023	-31.57
842.199	97.45
842.375	111.78
842.551	-39.76
842.727	-62.29
842.903	183.46
843.079	-9.05
843.255	117.93
843.431	38.06
843.607	29.87
843.783	-119.64
843.959	60.59
844.134	7.34
844.31	79.02
844.486	-93.01
844.662	-7
844.838	19.63
845.013	119.98
845.189	60.59
845.365	36.01
845.541	68.78
845.716	1.19
845.892	97.45
846.068	-54.1
846.244	15.53
846.419	-23.38
846.595	36.01
846.77	-50
846.946	38.06
847.122	-27.48
847.297	-21.33
847.473	70.83
847.648	-95.06
847.824	-9.05
847.999	-78.68
848.175	19.63
848.35	62.63
848.526	95.4
848.701	36.01
848.876	72.87
849.052	48.3
849.227	-0.85
849.403	46.25
849.578	19.63
849.753	36.01
849.929	66.73
850.104	5.29
850.279	31.91
850.454	124.07
850.63	56.49
850.805	13.48
850.98	72.87
851.155	21.67
851.33	46.25
851.505	-90.96
851.681	175.27
851.856	-41.81
852.031	-7
852.206	64.68
852.381	-15.19
852.556	-13.14
852.731	136.36
852.906	79.02
853.081	46.25
853.256	85.16
853.431	52.39
853.606	-58.2
853.781	-66.39
853.956	-109.4
854.131	38.06
854.305	-23.38
854.48	9.39
854.655	-29.52
854.83	33.96
855.005	40.11
855.18	89.26
855.354	-11.09
855.529	76.97
855.704	48.3
855.879	54.44
856.053	-35.67
856.228	17.58
856.403	-66.39
856.577	64.68
856.752	-52.05
856.926	27.82
857.101	58.54
857.276	-9.05
857.45	7.34
857.625	42.15
857.799	23.72
857.974	5.29
858.148	-125.78
858.323	156.84
858.497	27.82
858.672	-13.14
858.846	-17.24
859.02	124.07
859.195	-45.91
859.369	-2.9
859.543	48.3
859.718	3.24
859.892	36.01
860.066	19.63
860.241	29.87
860.415	3.24
860.589	42.15
860.763	-33.62
860.938	72.87
861.112	9.39
861.286	13.48
861.46	72.87
861.634	1.19
861.808	40.11
861.982	-15.19
862.157	-97.11
862.331	-2.9
862.505	-111.44
862.679	-62.29
862.853	-0.85
863.027	27.82
863.201	107.69
863.375	-74.58
863.549	15.53
863.722	36.01
863.896	97.45
864.07	-21.33
864.244	-7
864.418	46.25
864.592	89.26
864.766	-25.43
864.939	17.58
865.113	-2.9
865.287	76.97
865.461	-17.24
865.634	42.15
865.808	-15.19
865.982	19.63
866.156	-60.24
866.329	-31.57
866.503	81.07
866.676	181.42
866.85	-0.85
867.024	-78.68
867.197	95.4
867.371	109.74
867.544	48.3
867.718	-101.2
867.891	56.49
868.065	-43.86
868.238	-31.57
868.412	119.98
868.585	-11.09
868.759	-90.96
868.932	31.91
869.105	-101.2
869.279	-11.09
869.452	-99.16
869.625	64.68
869.799	-9.05
869.972	-109.4
870.145	-58.2
870.319	44.2
870.492	-35.67
870.665	21.67
870.838	-64.34
871.011	-211.79
871.185	21.67
871.358	-45.91
871.531	7.34
871.704	-56.15
871.877	52.39
872.05	7.34
872.223	-86.87
872.396	89.26
872.569	58.54
872.742	-78.68
872.915	50.35
873.088	-101.2
873.261	-7
873.434	99.5
873.607	36.01
873.78	148.65
873.953	-66.39
874.126	122.02
874.299	29.87
874.471	11.43
874.644	25.77
874.817	74.92
874.99	136.36
875.163	46.25
875.335	21.67
875.508	-37.72
875.681	152.74
875.853	-50
876.026	-31.57
876.199	54.44
876.371	-7
876.544	29.87
876.717	-13.14
876.889	38.06
877.062	70.83
877.234	-43.86
877.407	-37.72
877.579	3.24
877.752	64.68
877.924	7.34
878.097	25.77
878.269	46.25
878.442	11.43
878.614	83.11
878.786	76.97
878.959	79.02
879.131	-15.19
879.303	-125.78
879.476	58.54
879.648	119.98
879.82	-9.05
879.993	-9.05
880.165	-21.33
880.337	-97.11
880.509	38.06
880.681	-47.96
880.854	-37.72
881.026	115.88
881.198	148.65
881.37	17.58
881.542	58.54
881.714	-7
881.886	-17.24
882.058	83.11
882.23	1.19
882.402	-4.95
882.574	-64.34
882.746	91.31
882.918	144.55
883.09	66.73
883.262	13.48
883.434	-13.14
883.606	-66.39
883.778	23.72
883.95	146.6
884.122	15.53
884.293	68.78
884.465	-17.24
884.637	68.78
884.809	-21.33
884.98	58.54
885.152	31.91
885.324	79.02
885.496	-35.67
885.667	-50
885.839	54.44
886.011	17.58
886.182	113.83
886.354	81.07
886.525	-11.09
886.697	56.49
886.869	-47.96
887.04	15.53
887.212	64.68
887.383	154.79
887.555	56.49
887.726	-11.09
887.897	-58.2
888.069	7.34
888.24	91.31
888.412	-19.29
888.583	-17.24
888.754	56.49
888.926	-41.81
889.097	9.39
889.268	-52.05
889.44	27.82
889.611	3.24
889.782	-15.19
889.953	-131.92
890.125	134.31
890.296	-35.67
890.467	19.63
890.638	-50
890.809	-62.29
890.98	-27.48
891.151	48.3
891.323	91.31
891.494	-23.38
891.665	23.72
891.836	-9.05
892.007	29.87
892.178	36.01
892.349	33.96
892.52	-41.81
892.691	27.82
892.862	-0.85
893.032	-43.86
893.203	29.87
893.374	-35.67
893.545	95.4
893.716	13.48
893.887	103.59
894.057	-54.1
894.228	-33.62
894.399	-31.57
894.57	66.73
894.74	19.63
894.911	-2.9
895.082	3.24
895.253	15.53
895.423	21.67
895.594	91.31
895.764	66.73
895.935	-86.87
896.106	124.07
896.276	13.48
896.447	33.96
896.617	-62.29
896.788	-15.19
896.958	7.34
897.129	19.63
897.299	-52.05
897.47	119.98
897.64	9.39
897.81	-11.09
897.981	60.59
898.151	-37.72
898.322	81.07
898.492	93.35
898.662	-58.2
898.832	-37.72
899.003	3.24
899.173	42.15
899.343	-54.1
899.513	-72.53
