Data from USB4F104151__300__11-21-37-125.txt Node

Date: Wed Feb 26 11:21:37 EST 2025
User: louis
Spectrometer: USB4F10415
Trigger mode: 4
Integration Time (sec): 1.000000E-1
Scans to average: 1
Electric dark correction enabled: true
Nonlinearity correction enabled: false
Boxcar width: 0
XAxis mode: Wavelengths
Number of Pixels in Spectrum: 3648
>>>>>Begin Spectral Data<<<<<
178.204	-421.2
178.424	-421.2
178.644	-421.2
178.864	-503.12
179.084	-361.81
179.304	25.26
179.524	-21.84
179.744	-32.08
179.964	45.74
180.184	74.41
180.404	2.73
180.624	-27.99
180.844	2.73
181.064	-66.9
181.283	-3.41
181.503	-62.8
181.723	64.17
181.943	-120.15
182.163	150.18
182.383	-48.47
182.602	74.41
182.822	199.34
183.042	60.07
183.262	64.17
183.482	12.97
183.701	58.03
183.921	111.27
184.141	8.87
184.361	49.83
184.58	-5.46
184.8	19.11
185.02	-66.9
185.239	88.75
185.459	129.7
185.679	164.52
185.898	-85.33
186.118	88.75
186.338	68.27
186.557	148.14
186.777	-13.65
186.997	-32.08
187.216	29.35
187.436	127.66
187.655	66.22
187.875	144.04
188.095	25.26
188.314	135.85
188.534	84.65
188.753	-13.65
188.973	146.09
189.192	58.03
189.412	15.02
189.631	0.68
189.851	113.32
190.07	158.38
190.29	-77.14
190.509	-38.23
190.729	-1.37
190.948	103.08
191.168	271.01
191.387	90.79
191.607	-23.89
191.826	96.94
192.045	4.78
192.265	12.97
192.484	88.75
192.704	105.13
192.923	12.97
193.142	256.68
193.362	150.18
193.581	168.62
193.8	121.51
194.02	55.98
194.239	41.64
194.458	146.09
194.678	53.93
194.897	37.55
195.116	109.23
195.335	47.79
195.555	82.6
195.774	37.55
195.993	49.83
196.212	117.42
196.432	-9.56
196.651	0.68
196.87	117.42
197.089	209.58
197.308	39.59
197.528	82.6
197.747	-48.47
197.966	23.21
198.185	148.14
198.404	-17.75
198.623	60.07
198.842	121.51
199.062	105.13
199.281	94.89
199.5	90.79
199.719	84.65
199.938	92.84
200.157	47.79
200.376	115.37
200.595	27.31
200.814	80.55
201.033	-36.18
201.252	115.37
201.471	119.46
201.69	105.13
201.909	47.79
202.128	109.23
202.347	19.11
202.566	-1.37
202.785	-52.56
203.004	39.59
203.223	301.73
203.442	12.97
203.661	-19.8
203.879	58.03
204.098	180.9
204.317	-30.04
204.536	156.33
204.755	199.34
204.974	76.46
205.193	0.68
205.411	150.18
205.63	129.7
205.849	121.51
206.068	0.68
206.287	-52.56
206.505	103.08
206.724	74.41
206.943	82.6
207.162	2.73
207.381	51.88
207.599	39.59
207.818	55.98
208.037	-75.09
208.255	84.65
208.474	70.31
208.693	41.64
208.911	-21.84
209.13	176.81
209.349	62.12
209.567	117.42
209.786	51.88
210.005	121.51
210.223	27.31
210.442	-81.24
210.661	35.5
210.879	72.36
211.098	23.21
211.316	76.46
211.535	37.55
211.753	-62.8
211.972	39.59
212.191	27.31
212.409	51.88
212.628	150.18
212.846	-107.86
213.065	31.4
213.283	68.27
213.502	92.84
213.72	53.93
213.938	37.55
214.157	47.79
214.375	111.27
214.594	31.4
214.812	47.79
215.031	72.36
215.249	0.68
215.467	94.89
215.686	-40.28
215.904	60.07
216.122	55.98
216.341	94.89
216.559	10.92
216.778	66.22
216.996	90.79
217.214	37.55
217.432	-50.52
217.651	-23.89
217.869	55.98
218.087	8.87
218.306	29.35
218.524	8.87
218.742	21.16
218.96	135.85
219.179	43.69
219.397	2.73
219.615	256.68
219.833	98.99
220.051	-79.19
220.27	12.97
220.488	152.23
220.706	21.16
220.924	29.35
221.142	-30.04
221.36	17.07
221.578	43.69
221.796	-13.65
222.015	78.51
222.233	-23.89
222.451	191.14
222.669	33.45
222.887	187.05
223.105	-25.94
223.323	19.11
223.541	-99.67
223.759	53.93
223.977	-36.18
224.195	137.9
224.413	21.16
224.631	74.41
224.849	78.51
225.067	213.67
225.285	45.74
225.503	-38.23
225.721	-93.52
225.939	31.4
226.157	141.99
226.375	244.39
226.592	23.21
226.81	55.98
227.028	139.94
227.246	162.47
227.464	72.36
227.682	131.75
227.9	4.78
228.117	-1.37
228.335	88.75
228.553	23.21
228.771	-7.51
228.989	23.21
229.206	162.47
229.424	0.68
229.642	51.88
229.86	-50.52
230.077	105.13
230.295	23.21
230.513	111.27
230.731	58.03
230.948	156.33
231.166	152.23
231.384	-48.47
231.601	-81.24
231.819	160.42
232.037	43.69
232.254	23.21
232.472	-3.41
232.689	39.59
232.907	66.22
233.125	-5.46
233.342	21.16
233.56	-75.09
233.777	-36.18
233.995	107.18
234.213	68.27
234.43	72.36
234.648	10.92
234.865	72.36
235.083	105.13
235.3	25.26
235.518	125.61
235.735	60.07
235.953	86.7
236.17	-54.61
236.388	-5.46
236.605	43.69
236.822	107.18
237.04	96.94
237.257	154.28
237.475	-64.85
237.692	31.4
237.909	58.03
238.127	-73.04
238.344	76.46
238.562	60.07
238.779	-46.42
238.996	-66.9
239.214	25.26
239.431	62.12
239.648	-5.46
239.865	78.51
240.083	33.45
240.3	-11.61
240.517	-9.56
240.735	-21.84
240.952	185
241.169	137.9
241.386	60.07
241.603	-3.41
241.821	-64.85
242.038	80.55
242.255	101.03
242.472	-105.81
242.689	27.31
242.907	135.85
243.124	-13.65
243.341	10.92
243.558	-1.37
243.775	-34.13
243.992	8.87
244.209	90.79
244.426	162.47
244.643	47.79
244.86	-32.08
245.078	51.88
245.295	109.23
245.512	58.03
245.729	6.83
245.946	70.31
246.163	43.69
246.38	10.92
246.597	21.16
246.814	21.16
247.031	29.35
247.248	53.93
247.464	74.41
247.681	74.41
247.898	66.22
248.115	88.75
248.332	27.31
248.549	66.22
248.766	129.7
248.983	144.04
249.2	62.12
249.417	84.65
249.633	-3.41
249.85	123.56
250.067	17.07
250.284	76.46
250.501	-11.61
250.717	58.03
250.934	-5.46
251.151	25.26
251.368	31.4
251.585	10.92
251.801	-3.41
252.018	-30.04
252.235	107.18
252.451	-66.9
252.668	137.9
252.885	160.42
253.102	70.31
253.318	33.45
253.535	-62.8
253.752	-44.37
253.968	-1.37
254.185	25.26
254.401	62.12
254.618	70.31
254.835	-11.61
255.051	141.99
255.268	84.65
255.484	29.35
255.701	21.16
255.917	2.73
256.134	-19.8
256.351	68.27
256.567	-48.47
256.784	144.04
257	-23.89
257.217	137.9
257.433	88.75
257.65	109.23
257.866	111.27
258.082	-54.61
258.299	17.07
258.515	51.88
258.732	-23.89
258.948	-38.23
259.165	49.83
259.381	23.21
259.597	127.66
259.814	21.16
260.03	109.23
260.246	-25.94
260.463	25.26
260.679	86.7
260.895	41.64
261.112	4.78
261.328	-38.23
261.544	23.21
261.761	144.04
261.977	21.16
262.193	-3.41
262.409	115.37
262.626	31.4
262.842	60.07
263.058	-23.89
263.274	101.03
263.49	51.88
263.707	92.84
263.923	103.08
264.139	-132.44
264.355	103.08
264.571	105.13
264.787	105.13
265.004	94.89
265.22	90.79
265.436	8.87
265.652	-27.99
265.868	43.69
266.084	-25.94
266.3	88.75
266.516	-5.46
266.732	53.93
266.948	74.41
267.164	-105.81
267.38	103.08
267.596	107.18
267.812	168.62
268.028	33.45
268.244	-36.18
268.46	-13.65
268.676	27.31
268.892	43.69
269.108	0.68
269.324	-52.56
269.54	35.5
269.756	58.03
269.972	-23.89
270.188	-42.32
270.403	-32.08
270.619	-7.51
270.835	55.98
271.051	78.51
271.267	6.83
271.483	25.26
271.698	19.11
271.914	111.27
272.13	-32.08
272.346	55.98
272.562	113.32
272.777	107.18
272.993	72.36
273.209	10.92
273.425	78.51
273.64	-32.08
273.856	90.79
274.072	23.21
274.287	0.68
274.503	2.73
274.719	76.46
274.934	-54.61
275.15	-15.7
275.366	15.02
275.581	0.68
275.797	-34.13
276.012	107.18
276.228	19.11
276.444	62.12
276.659	90.79
276.875	29.35
277.09	31.4
277.306	-87.38
277.521	-25.94
277.737	17.07
277.952	60.07
278.168	-1.37
278.383	-23.89
278.599	23.21
278.814	86.7
279.03	60.07
279.245	139.94
279.461	-5.46
279.676	96.94
279.892	-83.28
280.107	-105.81
280.322	-97.62
280.538	98.99
280.753	-7.51
280.969	70.31
281.184	51.88
281.399	135.85
281.615	-11.61
281.83	72.36
282.045	-3.41
282.26	74.41
282.476	74.41
282.691	37.55
282.906	31.4
283.122	111.27
283.337	-23.89
283.552	-7.51
283.767	15.02
283.983	117.42
284.198	33.45
284.413	47.79
284.628	-13.65
284.843	33.45
285.058	74.41
285.274	-3.41
285.489	-68.95
285.704	98.99
285.919	47.79
286.134	41.64
286.349	6.83
286.564	-25.94
286.779	144.04
286.995	70.31
287.21	-62.8
287.425	144.04
287.64	103.08
287.855	19.11
288.07	-95.57
288.285	162.47
288.5	41.64
288.715	72.36
288.93	12.97
289.145	12.97
289.36	86.7
289.575	-9.56
289.79	119.46
290.004	60.07
290.219	98.99
290.434	-5.46
290.649	12.97
290.864	43.69
291.079	-15.7
291.294	45.74
291.509	74.41
291.724	86.7
291.938	39.59
292.153	15.02
292.368	-9.56
292.583	86.7
292.798	19.11
293.012	29.35
293.227	86.7
293.442	27.31
293.657	82.6
293.871	103.08
294.086	62.12
294.301	207.53
294.516	109.23
294.73	23.21
294.945	-34.13
295.16	-13.65
295.374	148.14
295.589	123.56
295.804	98.99
296.018	-1.37
296.233	41.64
296.447	86.7
296.662	37.55
296.877	113.32
297.091	131.75
297.306	92.84
297.52	-15.7
297.735	8.87
297.949	43.69
298.164	55.98
298.378	33.45
298.593	-62.8
298.807	19.11
299.022	17.07
299.236	133.8
299.451	35.5
299.665	39.59
299.88	8.87
300.094	39.59
300.309	15.02
300.523	60.07
300.737	-54.61
300.952	25.26
301.166	72.36
301.381	-17.75
301.595	21.16
301.809	66.22
302.024	62.12
302.238	27.31
302.452	137.9
302.667	6.83
302.881	115.37
303.095	90.79
303.309	70.31
303.524	47.79
303.738	41.64
303.952	-64.85
304.166	12.97
304.381	-107.86
304.595	152.23
304.809	-34.13
305.023	27.31
305.237	-17.75
305.452	10.92
305.666	15.02
305.88	64.17
306.094	107.18
306.308	12.97
306.522	109.23
306.736	64.17
306.95	84.65
307.164	4.78
307.379	8.87
307.593	125.61
307.807	115.37
308.021	12.97
308.235	74.41
308.449	-77.14
308.663	21.16
308.877	174.76
309.091	35.5
309.305	17.07
309.519	-58.71
309.733	101.03
309.947	-42.32
310.161	23.21
310.374	113.32
310.588	141.99
310.802	10.92
311.016	4.78
311.23	60.07
311.444	15.02
311.658	23.21
311.872	148.14
312.085	131.75
312.299	39.59
312.513	39.59
312.727	101.03
312.941	-85.33
313.154	68.27
313.368	123.56
313.582	80.55
313.796	115.37
314.009	0.68
314.223	172.71
314.437	78.51
314.651	117.42
314.864	39.59
315.078	-44.37
315.292	-25.94
315.505	33.45
315.719	88.75
315.933	6.83
316.146	4.78
316.36	8.87
316.573	92.84
316.787	82.6
317.001	131.75
317.214	6.83
317.428	72.36
317.641	-21.84
317.855	58.03
318.068	66.22
318.282	-3.41
318.495	172.71
318.709	68.27
318.922	70.31
319.136	223.91
319.349	131.75
319.563	19.11
319.776	96.94
319.99	-66.9
320.203	90.79
320.417	-13.65
320.63	123.56
320.843	158.38
321.057	72.36
321.27	10.92
321.483	2.73
321.697	101.03
321.91	64.17
322.124	-3.41
322.337	66.22
322.55	15.02
322.763	94.89
322.977	-62.8
323.19	53.93
323.403	58.03
323.617	35.5
323.83	109.23
324.043	43.69
324.256	70.31
324.469	-38.23
324.683	76.46
324.896	19.11
325.109	72.36
325.322	-91.48
325.535	113.32
325.748	113.32
325.962	29.35
326.175	98.99
326.388	51.88
326.601	68.27
326.814	80.55
327.027	84.65
327.24	137.9
327.453	-118.1
327.666	117.42
327.879	109.23
328.092	160.42
328.305	76.46
328.518	80.55
328.731	49.83
328.944	-7.51
329.157	49.83
329.37	19.11
329.583	125.61
329.796	117.42
330.009	-75.09
330.222	35.5
330.435	111.27
330.648	60.07
330.861	70.31
331.073	49.83
331.286	129.7
331.499	66.22
331.712	-71
331.925	25.26
332.138	101.03
332.35	203.43
332.563	31.4
332.776	180.9
332.989	-38.23
333.202	-19.8
333.414	-17.75
333.627	41.64
333.84	-19.8
334.053	103.08
334.265	45.74
334.478	8.87
334.691	58.03
334.903	25.26
335.116	10.92
335.329	101.03
335.541	135.85
335.754	150.18
335.966	-13.65
336.179	-38.23
336.392	-13.65
336.604	62.12
336.817	94.89
337.029	109.23
337.242	-1.37
337.454	101.03
337.667	-5.46
337.88	123.56
338.092	96.94
338.305	0.68
338.517	66.22
338.729	135.85
338.942	113.32
339.154	-13.65
339.367	-27.99
339.579	49.83
339.792	-77.14
340.004	94.89
340.217	55.98
340.429	94.89
340.641	8.87
340.854	-5.46
341.066	35.5
341.278	86.7
341.491	203.43
341.703	51.88
341.915	45.74
342.128	86.7
342.34	55.98
342.552	4.78
342.764	129.7
342.977	10.92
343.189	47.79
343.401	55.98
343.613	-68.95
343.826	35.5
344.038	51.88
344.25	62.12
344.462	-62.8
344.674	58.03
344.886	-32.08
345.099	-15.7
345.311	66.22
345.523	-34.13
345.735	-81.24
345.947	15.02
346.159	84.65
346.371	111.27
346.583	-25.94
346.795	273.06
347.007	17.07
347.219	49.83
347.431	19.11
347.643	115.37
347.855	0.68
348.067	139.94
348.279	2.73
348.491	0.68
348.703	-7.51
348.915	27.31
349.127	17.07
349.339	8.87
349.551	55.98
349.763	88.75
349.975	15.02
350.187	31.4
350.399	221.86
350.61	41.64
350.822	15.02
351.034	74.41
351.246	62.12
351.458	111.27
351.669	103.08
351.881	96.94
352.093	133.8
352.305	62.12
352.517	-17.75
352.728	154.28
352.94	80.55
353.152	117.42
353.363	0.68
353.575	4.78
353.787	207.53
353.999	55.98
354.21	84.65
354.422	2.73
354.633	12.97
354.845	15.02
355.057	-42.32
355.268	60.07
355.48	111.27
355.692	-56.66
355.903	19.11
356.115	-1.37
356.326	-159.06
356.538	146.09
356.749	148.14
356.961	172.71
357.172	66.22
357.384	-105.81
357.595	289.45
357.807	0.68
358.018	-17.75
358.23	66.22
358.441	164.52
358.653	64.17
358.864	113.32
359.075	-1.37
359.287	45.74
359.498	176.81
359.709	62.12
359.921	58.03
360.132	55.98
360.344	37.55
360.555	-25.94
360.766	60.07
360.977	70.31
361.189	129.7
361.4	-42.32
361.611	70.31
361.823	68.27
362.034	60.07
362.245	-13.65
362.456	-21.84
362.667	72.36
362.879	66.22
363.09	98.99
363.301	35.5
363.512	53.93
363.723	-38.23
363.935	-32.08
364.146	64.17
364.357	-5.46
364.568	98.99
364.779	-42.32
364.99	166.57
365.201	-97.62
365.412	156.33
365.623	10.92
365.834	35.5
366.045	64.17
366.256	105.13
366.467	64.17
366.678	64.17
366.889	76.46
367.1	-56.66
367.311	123.56
367.522	-7.51
367.733	35.5
367.944	29.35
368.155	21.16
368.366	123.56
368.577	101.03
368.788	176.81
368.999	-19.8
369.209	72.36
369.42	152.23
369.631	189.1
369.842	133.8
370.053	12.97
370.264	29.35
370.474	12.97
370.685	33.45
370.896	55.98
371.107	156.33
371.317	76.46
371.528	35.5
371.739	98.99
371.95	115.37
372.16	15.02
372.371	-23.89
372.582	64.17
372.792	29.35
373.003	8.87
373.214	21.16
373.424	103.08
373.635	-15.7
373.846	70.31
374.056	109.23
374.267	72.36
374.477	49.83
374.688	33.45
374.898	43.69
375.109	31.4
375.319	27.31
375.53	53.93
375.74	49.83
375.951	12.97
376.161	125.61
376.372	131.75
376.582	33.45
376.793	62.12
377.003	-19.8
377.214	-60.76
377.424	111.27
377.635	17.07
377.845	-79.19
378.055	174.76
378.266	-3.41
378.476	8.87
378.686	66.22
378.897	-95.57
379.107	55.98
379.317	-5.46
379.528	17.07
379.738	-1.37
379.948	-25.94
380.158	146.09
380.369	70.31
380.579	127.66
380.789	60.07
380.999	82.6
381.21	109.23
381.42	139.94
381.63	-11.61
381.84	121.51
382.05	25.26
382.261	148.14
382.471	127.66
382.681	-25.94
382.891	96.94
383.101	43.69
383.311	-3.41
383.521	2.73
383.731	127.66
383.941	68.27
384.151	55.98
384.361	111.27
384.571	55.98
384.781	39.59
384.991	137.9
385.201	240.3
385.411	37.55
385.621	33.45
385.831	10.92
386.041	29.35
386.251	115.37
386.461	135.85
386.671	0.68
386.881	88.75
387.091	60.07
387.301	125.61
387.511	66.22
387.72	47.79
387.93	90.79
388.14	-77.14
388.35	53.93
388.56	55.98
388.769	230.06
388.979	45.74
389.189	-40.28
389.399	37.55
389.609	105.13
389.818	47.79
390.028	35.5
390.238	74.41
390.447	29.35
390.657	92.84
390.867	64.17
391.076	-19.8
391.286	2.73
391.496	27.31
391.705	-15.7
391.915	152.23
392.125	84.65
392.334	72.36
392.544	96.94
392.753	-17.75
392.963	-46.42
393.172	37.55
393.382	-11.61
393.591	152.23
393.801	86.7
394.01	152.23
394.22	78.51
394.429	-13.65
394.639	17.07
394.848	19.11
395.058	35.5
395.267	35.5
395.477	15.02
395.686	111.27
395.895	121.51
396.105	207.53
396.314	70.31
396.524	-1.37
396.733	-1.37
396.942	96.94
397.152	64.17
397.361	70.31
397.57	39.59
397.78	78.51
397.989	94.89
398.198	141.99
398.407	58.03
398.617	15.02
398.826	96.94
399.035	-30.04
399.244	117.42
399.453	88.75
399.663	60.07
399.872	66.22
400.081	-40.28
400.29	94.89
400.499	-3.41
400.708	101.03
400.917	41.64
401.127	27.31
401.336	-30.04
401.545	203.43
401.754	113.32
401.963	154.28
402.172	123.56
402.381	31.4
402.59	62.12
402.799	21.16
403.008	121.51
403.217	60.07
403.426	115.37
403.635	-56.66
403.844	78.51
404.053	53.93
404.262	41.64
404.471	96.94
404.68	70.31
404.888	55.98
405.097	92.84
405.306	33.45
405.515	150.18
405.724	25.26
405.933	72.36
406.142	90.79
406.35	115.37
406.559	17.07
406.768	25.26
406.977	180.9
407.185	58.03
407.394	101.03
407.603	-101.72
407.812	88.75
408.02	129.7
408.229	41.64
408.438	105.13
408.646	25.26
408.855	-1.37
409.064	39.59
409.272	96.94
409.481	105.13
409.69	29.35
409.898	53.93
410.107	58.03
410.315	168.62
410.524	-58.71
410.733	39.59
410.941	25.26
411.15	92.84
411.358	148.14
411.567	146.09
411.775	86.7
411.984	107.18
412.192	60.07
412.401	33.45
412.609	152.23
412.818	135.85
413.026	64.17
413.234	86.7
413.443	60.07
413.651	-58.71
413.86	60.07
414.068	111.27
414.276	162.47
414.485	-19.8
414.693	152.23
414.901	156.33
415.11	117.42
415.318	39.59
415.526	88.75
415.734	156.33
415.943	-21.84
416.151	115.37
416.359	6.83
416.567	43.69
416.776	33.45
416.984	43.69
417.192	129.7
417.4	35.5
417.608	-1.37
417.817	-42.32
418.025	187.05
418.233	174.76
418.441	-38.23
418.649	-19.8
418.857	60.07
419.065	129.7
419.273	86.7
419.481	60.07
419.689	17.07
419.897	-93.52
420.105	-64.85
420.313	68.27
420.521	53.93
420.729	146.09
420.937	25.26
421.145	6.83
421.353	129.7
421.561	174.76
421.769	109.23
421.977	68.27
422.185	64.17
422.393	43.69
422.601	131.75
422.809	84.65
423.017	58.03
423.224	-23.89
423.432	94.89
423.64	29.35
423.848	146.09
424.056	-13.65
424.263	121.51
424.471	41.64
424.679	205.48
424.887	-40.28
425.094	172.71
425.302	117.42
425.51	72.36
425.718	103.08
425.925	27.31
426.133	-32.08
426.341	221.86
426.548	119.46
426.756	70.31
426.964	84.65
427.171	37.55
427.379	55.98
427.586	103.08
427.794	115.37
428.001	209.58
428.209	107.18
428.417	74.41
428.624	88.75
428.832	139.94
429.039	27.31
429.247	15.02
429.454	129.7
429.662	178.86
429.869	109.23
430.076	113.32
430.284	66.22
430.491	111.27
430.699	82.6
430.906	168.62
431.114	146.09
431.321	51.88
431.528	19.11
431.736	137.9
431.943	154.28
432.15	129.7
432.358	178.86
432.565	254.63
432.772	45.74
432.979	174.76
433.187	137.9
433.394	256.68
433.601	90.79
433.808	156.33
434.016	230.06
434.223	240.3
434.43	254.63
434.637	291.49
434.844	187.05
435.052	94.89
435.259	164.52
435.466	291.49
435.673	191.14
435.88	266.92
436.087	297.64
436.294	359.08
436.501	244.39
436.708	256.68
436.915	248.49
437.122	326.31
437.329	174.76
437.537	283.3
437.743	387.75
437.95	402.08
438.157	326.31
438.364	287.4
438.571	371.37
438.778	346.79
438.985	391.84
439.192	441
439.399	338.6
439.606	393.89
439.813	395.94
440.02	529.06
440.227	643.74
440.433	506.53
440.64	432.8
440.847	473.76
441.054	486.05
441.261	584.35
441.467	602.79
441.674	502.44
441.881	682.66
442.088	486.05
442.294	715.42
442.501	684.7
442.708	737.95
442.914	701.09
443.121	793.25
443.328	811.68
443.534	842.4
443.741	891.55
443.948	721.57
444.154	809.63
444.361	1043.1
444.568	967.32
444.774	1022.62
444.981	854.69
445.187	1116.83
445.394	1127.07
445.6	1075.87
445.807	1151.64
446.013	1149.59
446.22	1108.63
446.426	1274.52
446.633	1346.2
446.839	1507.99
447.046	1313.43
447.252	1489.56
447.459	1469.08
447.665	1475.22
447.871	1647.25
448.078	1743.5
448.284	1778.32
448.491	1745.55
448.697	1897.1
448.903	1976.97
449.11	2112.14
449.316	2034.32
449.522	2108.04
449.728	2247.3
449.935	2220.68
450.141	2194.06
450.347	2527.88
450.553	2503.3
450.76	2398.85
450.966	2630.27
451.172	2837.12
451.378	2833.02
451.584	2923.13
451.791	3041.92
451.997	3007.1
452.203	3267.19
452.409	3461.75
452.615	3639.92
452.821	3500.66
453.027	3383.93
453.233	3940.97
453.44	3773.04
453.646	4029.04
453.852	4061.8
454.058	4201.07
454.264	4491.88
454.47	4612.71
454.676	4651.62
454.882	5261.91
455.088	4889.18
455.294	5288.54
455.5	5601.88
455.705	5835.35
455.911	5782.1
456.117	6072.91
456.323	6437.45
456.529	6365.77
456.735	6836.8
456.941	6967.87
457.147	7414.33
457.352	7531.06
457.558	7563.83
457.764	8139.31
457.97	8333.87
458.176	8782.37
458.381	9351.71
458.587	9277.98
458.793	9824.79
458.999	9818.64
459.204	11057.67
459.41	11354.62
459.616	10988.03
459.821	11739.64
460.027	12311.02
460.233	12917.22
460.438	13152.74
460.644	13793.75
460.85	13945.3
461.055	14270.93
461.261	15006.15
461.466	14741.96
461.672	15167.94
461.878	16804.27
462.083	16705.96
462.289	17062.31
462.494	17691.04
462.7	17871.26
462.905	18059.67
463.111	19558.78
463.316	20447.6
463.522	21082.47
463.727	21668.19
463.932	22344.02
464.138	23056.71
464.343	24035.64
464.549	23978.3
464.754	25868.58
464.959	26343.7
465.165	26849.55
465.37	26792.21
465.575	26796.31
465.781	28408.06
465.986	29577.45
466.191	29217
466.397	29362.41
466.602	28868.85
466.807	30396.63
467.012	30933.2
467.218	31303.88
467.423	31604.94
467.628	32254.14
467.833	34013.35
468.038	33243.31
468.244	32762.04
468.449	34594.97
468.654	33570.99
468.859	33984.68
469.064	34001.06
469.269	32907.44
469.474	33513.64
469.679	34173.09
469.885	33480.88
470.09	33808.55
470.295	33851.56
470.5	33706.15
470.705	33413.29
470.91	32686.26
471.115	32075.97
471.32	33140.91
471.525	32649.4
471.73	31506.63
471.935	31248.59
472.139	30185.69
472.344	30163.17
472.549	30697.69
472.754	29884.64
472.959	29094.13
473.164	27787.52
473.369	27683.08
473.574	28629.24
473.778	27859.2
473.983	27298.06
474.188	26908.94
474.393	25706.79
474.598	25534.76
474.802	24996.14
475.007	24834.35
475.212	24729.91
475.417	23494.98
475.621	23279.94
475.826	22860.11
476.031	22489.43
476.235	21811.55
476.44	22165.85
476.645	21326.18
476.849	21197.16
477.054	21000.55
477.259	20310.39
477.463	20296.05
477.668	19829.12
477.872	19800.44
478.077	19034.5
478.282	18821.52
478.486	18379.15
478.691	18354.58
478.895	18256.28
479.1	17871.26
479.304	17920.41
479.509	17340.83
479.713	17424.8
479.918	17209.76
480.122	16640.43
480.326	16761.26
480.531	17015.21
480.735	16474.54
480.94	16181.68
481.144	17002.92
481.348	16073.14
481.553	16343.47
481.757	15671.74
481.961	15999.41
482.166	16107.96
482.37	15688.12
482.574	15499.71
482.778	15415.74
482.983	15727.03
483.187	15229.38
483.391	15411.65
483.595	15092.16
483.8	14635.47
484.004	14848.46
484.208	15045.06
484.412	14377.42
484.616	14352.85
484.821	14309.84
485.025	13595.1
485.229	13871.57
485.433	13687.26
485.637	13662.68
485.841	13339.1
486.045	13259.23
486.249	12847.59
486.453	12900.84
486.657	12509.68
486.861	12646.89
487.065	12110.32
487.269	12474.86
487.473	11846.13
487.677	11770.36
487.881	11907.57
488.085	11573.75
488.289	11348.48
488.493	10813.96
488.697	11041.28
488.901	10781.19
489.105	10519.05
489.309	10377.74
489.512	10158.61
489.716	10109.46
489.92	9656.86
490.124	9583.13
490.328	9583.13
490.531	9353.76
490.735	9277.98
490.939	8911.39
491.143	8651.3
491.346	8712.74
491.55	8542.76
491.754	8550.95
491.958	8268.33
492.161	8317.48
492.365	8165.93
492.569	7766.58
492.772	7678.52
492.976	7758.39
493.18	7504.44
493.383	7555.64
493.587	7506.49
493.79	7539.26
493.994	7117.37
494.197	7193.15
494.401	7055.93
494.605	6978.11
494.808	7031.36
495.012	6898.24
495.215	7160.38
495.419	6779.46
495.622	6644.29
495.825	6769.22
496.029	6681.16
496.232	6896.19
496.436	6623.81
496.639	6681.16
496.843	6273.61
497.046	6619.72
497.249	6861.38
497.453	6589
497.656	6613.57
497.859	6648.39
498.063	6713.92
498.266	6629.96
498.469	6550.09
498.673	6552.13
498.876	6541.89
499.079	6691.4
499.282	6539.85
499.485	7064.13
499.689	6990.4
499.892	6838.85
500.095	6902.34
500.298	7168.57
500.501	6867.52
500.705	7195.2
500.908	7131.71
501.111	7316.03
501.314	7418.43
501.517	7385.66
501.72	7690.81
501.923	7383.61
502.126	7510.58
502.329	7600.69
502.532	7709.24
502.735	7746.1
502.938	8063.54
503.141	7967.28
503.344	8051.25
503.547	8266.28
503.75	8229.42
503.953	8170.03
504.156	8534.57
504.359	8485.42
504.562	8509.99
504.765	8827.43
504.968	9028.13
505.17	9232.93
505.373	9118.24
505.576	9296.41
505.779	9558.55
505.982	9734.68
506.185	9919
506.387	10002.96
506.59	10131.98
506.793	10537.48
506.996	10514.95
507.198	10965.51
507.401	10930.69
507.604	10983.94
507.807	11381.24
508.009	11528.7
508.212	11885.05
508.415	12052.98
508.617	12337.65
508.82	12468.72
509.022	12558.83
509.225	13169.12
509.428	13117.92
509.63	13521.37
509.833	13599.2
510.035	14410.19
510.238	14154.19
510.44	14842.31
510.643	15202.75
510.845	15612.35
511.048	15561.15
511.25	16179.64
511.453	16085.43
511.655	16912.81
511.858	16775.59
512.06	17254.82
512.262	17684.89
512.465	18198.93
512.667	18604.43
512.87	18831.76
513.072	19128.71
513.274	20060.54
513.477	20228.47
513.679	21023.08
513.881	21260.65
514.084	21866.85
514.286	22038.87
514.488	22557.01
514.69	23507.27
514.893	23789.89
515.095	23920.96
515.297	24830.26
515.499	25112.88
515.701	25762.08
515.904	26437.91
516.106	27015.44
516.308	27468.04
516.51	27996.42
516.712	28463.35
516.914	28997.87
517.116	29876.45
517.318	30034.14
517.52	30347.48
517.722	31015.12
517.925	31822.02
518.127	32618.68
518.329	33132.72
518.531	33243.31
518.733	34164.9
518.935	34574.49
519.136	34971.8
519.338	35530.89
519.54	36161.67
519.742	36872.31
519.944	37390.45
520.146	38039.65
520.348	38443.1
520.55	38731.87
520.752	39125.08
520.954	40026.18
521.155	39860.3
521.357	40757.31
521.559	41343.03
521.761	41914.41
521.963	42151.98
522.164	42709.02
522.366	42926.11
522.568	43393.04
522.77	43618.32
522.971	44146.7
523.173	43927.56
523.375	44503.04
523.576	44193.8
523.778	44402.69
523.98	45406.2
524.181	45635.57
524.383	45330.42
524.584	45916.14
524.786	45993.96
524.988	46118.89
525.189	46188.52
525.391	46551.01
525.592	46514.15
525.794	46643.17
525.995	46262.25
526.197	46897.12
526.398	46458.85
526.6	46309.35
526.801	46303.21
527.003	46135.27
527.204	45981.68
527.406	45953.01
527.607	45629.43
527.808	46071.79
528.01	44646.4
528.211	45185.02
528.412	45447.16
528.614	45096.95
528.815	44347.4
529.016	44687.36
529.218	43823.12
529.419	43763.73
529.62	42928.16
529.822	42661.92
530.023	42151.98
530.224	41818.16
530.425	41801.77
530.626	40960.06
530.828	40196.17
531.029	40847.42
531.23	39747.66
531.431	39252.05
531.632	39493.71
531.833	38979.67
532.035	38211.68
532.236	37884.01
532.437	37537.9
532.638	36733.05
532.839	36530.3
533.04	36356.22
533.241	35338.38
533.442	35610.76
533.643	34660.51
533.844	34306.21
534.045	33714.34
534.246	33333.42
534.447	33478.83
534.648	32288.96
534.849	32354.49
535.05	31916.23
535.251	31082.7
535.451	30787.8
535.652	30429.4
535.853	29798.63
536.054	29536.49
536.255	29505.77
536.456	28698.87
536.657	28868.85
536.857	27963.65
537.058	27662.6
537.259	27744.52
537.46	26786.07
537.66	26704.15
537.861	26433.82
538.062	25956.64
538.263	25786.66
538.463	25256.23
538.664	25014.57
538.865	24930.61
539.065	24850.74
539.266	23875.9
539.466	23963.96
539.667	23386.44
539.868	23634.24
540.068	23120.2
540.269	22827.34
540.469	23026
540.67	22118.75
540.87	21780.83
541.071	21342.57
541.271	21375.33
541.472	21397.86
541.672	20957.55
541.873	20597.1
542.073	20130.17
542.274	20380.02
542.474	19829.12
542.675	19769.72
542.875	19954.04
543.075	19292.55
543.276	19130.76
543.476	18977.16
543.676	18989.45
543.877	18463.12
544.077	18424.21
544.277	18491.79
544.478	18026.9
544.678	17869.21
544.878	17537.44
545.078	17553.82
545.279	17035.69
545.479	16902.57
545.679	16583.09
545.879	16652.72
546.079	16226.74
546.28	15854.01
546.48	15946.17
546.68	15761.85
546.88	15671.74
547.08	15440.32
547.28	15165.89
547.48	14918.09
547.68	14926.28
547.88	14537.16
548.081	14424.53
548.281	14240.21
548.481	14154.19
548.681	14131.67
548.881	13760.98
549.081	13574.62
549.28	13429.21
549.48	13384.16
549.68	13128.16
549.88	12980.71
550.08	12820.97
550.28	12741.1
550.48	12321.26
550.68	12388.85
550.88	12239.34
551.08	11852.28
551.279	11688.44
551.479	11366.91
551.679	11323.9
551.879	11137.54
552.079	11078.15
552.278	11028.99
552.478	10904.07
552.678	10637.83
552.878	10811.91
553.077	10332.68
553.277	10002.96
553.477	10062.35
553.676	9933.33
553.876	9619.99
554.076	9447.96
554.275	9550.36
554.475	9376.28
554.674	9060.9
554.874	9054.75
555.074	8786.47
555.273	8628.77
555.473	8534.57
555.672	8512.04
555.872	8204.85
556.071	8135.21
556.271	8170.03
556.47	7881.27
556.67	7830.07
556.869	7658.04
557.068	7440.95
557.268	7131.71
557.467	7309.88
557.667	7332.41
557.866	6953.54
558.065	6980.16
558.265	6906.43
558.464	6863.43
558.663	6564.42
558.863	6597.19
559.062	6511.18
559.261	6167.12
559.461	6369.87
559.66	6009.42
559.859	5935.7
560.058	5808.72
560.258	5769.81
560.457	5767.76
560.656	5700.18
560.855	5509.72
561.054	5601.88
561.253	5444.18
561.453	5333.59
561.652	5145.18
561.851	5204.57
562.05	4901.47
562.249	4860.51
562.448	4889.18
562.647	4700.77
562.846	4776.55
563.045	4743.78
563.244	4553.32
563.443	4647.52
563.642	4369
563.841	4344.42
564.04	4336.23
564.239	4266.6
564.438	4199.02
564.637	3979.89
564.836	4100.72
565.035	4088.43
565.234	4045.42
565.432	3859.06
565.631	3926.64
565.83	3826.29
566.029	3660.4
566.228	3660.4
566.427	3691.12
566.625	3385.98
566.824	3615.35
567.023	3566.2
567.222	3353.21
567.42	3349.11
567.619	3422.84
567.818	3279.48
568.016	3414.65
568.215	3265.14
568.414	3254.9
568.612	3121.79
568.811	3078.78
569.01	2974.33
569.208	2925.18
569.407	3129.98
569.605	2871.93
569.804	2919.04
570.002	2779.78
570.201	2648.71
570.4	2794.11
570.598	2671.23
570.797	2677.38
570.995	2570.88
571.193	2534.02
571.392	2693.76
571.59	2329.22
571.789	2466.44
571.987	2411.14
572.186	2521.73
572.384	2341.51
572.582	2271.88
572.781	2378.37
572.979	2183.82
573.177	2241.16
573.376	2187.91
573.574	2278.02
573.772	2019.98
573.971	1983.12
574.169	1929.87
574.367	2052.75
574.565	2003.6
574.763	1903.25
574.962	1915.53
575.16	1852.05
575.358	1718.93
575.556	1913.49
575.754	1841.81
575.952	1751.7
576.151	1804.94
576.349	1782.42
576.547	1559.19
576.745	1735.31
576.943	1723.02
577.141	1645.2
577.339	1563.28
577.537	1577.62
577.735	1677.97
577.933	1520.28
578.131	1434.26
578.329	1587.86
578.527	1469.08
578.725	1471.12
578.923	1292.95
579.121	1417.88
579.319	1208.98
579.516	1321.62
579.714	1479.32
579.912	1299.09
580.11	1170.07
580.308	1282.71
580.506	1196.7
580.704	1063.58
580.901	1137.31
581.099	1268.38
581.297	1139.35
581.495	1194.65
581.692	1178.26
581.89	1258.14
582.088	1084.06
582.285	1131.16
582.483	1100.44
582.681	1004.19
582.878	991.9
583.076	1092.25
583.274	967.32
583.471	1186.46
583.669	979.61
583.866	862.88
584.064	893.6
584.262	891.55
584.459	897.69
584.657	938.65
584.854	950.94
585.052	963.23
585.249	973.47
585.447	959.13
585.644	719.52
585.841	934.56
586.039	916.12
586.236	971.42
586.434	805.53
586.631	746.14
586.828	780.96
587.026	809.63
587.223	594.59
587.42	746.14
587.618	744.1
587.815	811.68
588.012	733.86
588.21	727.71
588.407	754.34
588.604	756.38
588.801	600.74
588.999	674.46
589.196	723.62
589.393	613.03
589.59	690.85
589.787	660.13
589.984	711.33
590.182	770.72
590.379	662.18
590.576	682.66
590.773	602.79
590.97	608.93
591.167	602.79
591.364	692.9
591.561	557.73
591.758	791.2
591.955	672.42
592.152	686.75
592.349	615.07
592.546	574.11
592.743	625.31
592.94	606.88
593.137	651.94
593.334	797.34
593.531	709.28
593.727	629.41
593.924	744.1
594.121	631.46
594.318	514.72
594.515	660.13
594.712	750.24
594.908	740
595.105	604.83
595.302	715.42
595.499	705.18
595.696	801.44
595.892	617.12
596.089	793.25
596.286	639.65
596.482	805.53
596.679	725.66
596.876	768.67
597.072	764.58
597.269	783.01
597.466	846.49
597.662	840.35
597.859	780.96
598.055	916.12
598.252	948.89
598.448	959.13
598.645	938.65
598.841	998.04
599.038	1161.88
599.234	1247.9
599.431	1176.22
599.627	1190.55
599.824	1094.3
600.02	1245.85
600.217	1223.32
600.413	1446.55
600.609	1381.01
600.806	1714.83
601.002	1464.98
601.198	1495.7
601.395	1608.34
601.591	1657.49
601.787	1700.5
601.984	1870.48
602.18	1817.23
602.376	1952.4
602.572	1964.68
602.769	2019.98
602.965	2105.99
603.161	2269.83
603.357	2286.22
603.553	2484.87
603.75	2400.9
603.946	2488.96
604.142	2615.94
604.338	2818.69
604.534	2777.73
604.73	2841.22
604.926	2962.05
605.122	3172.99
605.318	3080.83
605.514	3277.43
605.71	3265.14
605.906	3414.65
606.102	3607.16
606.298	3627.64
606.494	3732.08
606.69	3877.49
606.886	3973.74
607.082	4053.61
607.278	4137.58
607.474	4348.52
607.67	4514.41
607.866	4473.45
608.062	4723.3
608.257	4721.25
608.453	4803.17
608.649	5120.6
608.845	5145.18
609.041	5249.63
609.236	5569.11
609.432	5681.75
609.628	5651.03
609.824	5956.18
610.019	6113.87
610.215	6195.79
610.411	6492.74
610.606	6761.03
610.802	6586.95
610.998	7037.5
611.193	7336.51
611.389	7250.49
611.584	7612.98
611.78	7606.84
611.976	7793.2
612.171	8303.15
612.367	8391.21
612.562	8415.79
612.758	8536.62
612.953	8743.46
613.149	9284.12
613.344	9286.17
613.539	9912.85
613.735	9882.13
613.93	10238.48
614.126	10193.42
614.321	10615.3
614.517	11028.99
614.712	11055.62
614.907	11631.1
615.103	11985.4
615.298	11934.2
615.493	12138.99
615.688	12599.79
615.884	13152.74
616.079	13156.83
616.274	13466.08
616.47	14004.69
616.665	14215.63
616.86	14748.11
617.055	15065.54
617.25	15165.89
617.445	15757.75
617.641	15905.21
617.836	16619.95
618.031	16740.78
618.226	17238.44
618.421	17820.06
618.616	18375.06
618.811	18571.66
619.006	19530.11
619.201	19202.44
619.396	19894.65
619.591	20015.48
619.786	21041.51
619.981	20875.63
620.176	21946.72
620.371	21909.85
620.566	22397.27
620.761	22677.84
620.956	23652.67
621.151	23714.11
621.346	24396.09
621.541	24369.46
621.735	25342.25
621.93	25239.85
622.125	25940.25
622.32	26396.95
622.515	26990.86
622.709	27576.58
622.904	27918.59
623.099	28412.15
623.294	29167.85
623.488	29606.12
623.683	29960.42
623.878	29989.09
624.072	30900.44
624.267	31310.03
624.462	31885.51
624.656	32393.4
624.851	32895.16
625.046	33267.89
625.24	33708.2
625.435	33720.49
625.629	34762.9
625.824	35149.97
626.018	35479.69
626.213	35414.16
626.407	36352.13
626.602	36509.82
626.796	37453.94
626.991	37716.08
627.185	37746.79
627.38	37845.1
627.574	38189.16
627.768	38228.07
627.963	38275.17
628.157	38586.46
628.352	38850.65
628.546	38264.93
628.74	38928.47
628.935	38764.64
629.129	39110.74
629.323	38385.76
629.517	38453.34
629.712	38563.93
629.906	38256.74
630.1	37441.65
630.294	37437.55
630.489	36976.76
630.683	36552.83
630.877	35303.57
631.071	35018.9
631.265	35090.58
631.459	34273.44
631.653	33505.45
631.848	32743.61
632.042	32063.68
632.236	31269.07
632.43	30327
632.624	29886.69
632.818	28866.8
633.012	27891.97
633.206	27216.14
633.4	26663.19
633.594	25291.05
633.788	24764.72
633.982	23853.37
634.176	23269.7
634.369	21868.89
634.563	20965.74
634.757	20279.67
634.951	19937.66
635.145	19233.16
635.339	18162.07
635.533	17463.71
635.726	16998.82
635.92	16212.4
636.114	15235.52
636.308	14860.74
636.501	14272.98
636.695	13695.45
636.889	13167.07
637.083	12679.66
637.276	11995.64
637.47	11424.25
637.664	11104.77
637.857	10809.86
638.051	10418.7
638.244	10048.02
638.438	9574.94
638.632	8897.06
638.825	8665.64
639.019	8454.7
639.212	7946.8
639.406	7715.38
639.599	7418.43
639.793	7096.89
639.986	6916.67
640.18	6656.58
640.373	6275.66
640.567	6058.57
640.76	5784.15
640.954	5673.56
641.147	5423.7
641.34	5274.2
641.534	5108.32
641.727	4874.85
641.92	4665.96
642.114	4549.22
642.307	4258.41
642.5	4137.58
642.694	3926.64
642.887	3885.68
643.08	3699.31
643.273	3664.5
643.467	3246.71
643.66	3263.1
643.853	3046.01
644.046	3093.12
644.239	2892.41
644.432	2771.58
644.626	2538.12
644.819	2581.12
645.012	2419.33
645.205	2517.64
645.398	2513.54
645.591	2308.74
645.784	2091.66
645.977	1958.54
646.17	2022.03
646.363	1936.01
646.556	1796.75
646.749	1690.26
646.942	1673.87
647.135	1723.02
647.328	1518.23
647.521	1518.23
647.714	1471.12
647.907	1389.21
648.099	1221.27
648.292	1397.4
648.485	1174.17
648.678	1176.22
648.871	1108.63
649.064	1221.27
649.256	1079.96
649.449	950.94
649.642	914.08
649.835	875.17
650.027	846.49
650.22	1065.63
650.413	785.05
650.605	971.42
650.798	850.59
650.991	748.19
651.183	715.42
651.376	756.38
651.568	742.05
651.761	723.62
651.954	676.51
652.146	680.61
652.339	666.27
652.531	672.42
652.724	561.83
652.916	592.55
653.109	461.48
653.301	633.51
653.494	539.3
653.686	430.76
653.879	604.83
654.071	533.15
654.263	426.66
654.456	455.33
654.648	479.91
654.84	604.83
655.033	432.8
655.225	506.53
655.417	295.59
655.61	488.1
655.802	352.93
655.994	463.52
656.186	266.92
656.379	434.85
656.571	275.11
656.763	256.68
656.955	318.12
657.148	307.88
657.34	420.52
657.532	250.53
657.724	273.06
657.916	373.41
658.108	346.79
658.3	334.5
658.492	277.16
658.684	236.2
658.876	324.26
659.068	164.52
659.26	103.08
659.452	180.9
659.644	297.64
659.836	332.45
660.028	191.14
660.22	266.92
660.412	268.97
660.604	172.71
660.796	207.53
660.988	244.39
661.18	189.1
661.372	242.34
661.563	236.2
661.755	185
661.947	174.76
662.139	164.52
662.331	182.95
662.522	178.86
662.714	139.94
662.906	109.23
663.097	199.34
663.289	158.38
663.481	86.7
663.673	209.58
663.864	154.28
664.056	164.52
664.247	129.7
664.439	258.73
664.631	156.33
664.822	217.77
665.014	80.55
665.205	66.22
665.397	197.29
665.588	166.57
665.78	182.95
665.971	166.57
666.163	154.28
666.354	166.57
666.546	133.8
666.737	84.65
666.929	144.04
667.12	92.84
667.311	150.18
667.503	162.47
667.694	168.62
667.885	129.7
668.077	207.53
668.268	113.32
668.459	105.13
668.651	187.05
668.842	101.03
669.033	109.23
669.224	82.6
669.416	318.12
669.607	150.18
669.798	88.75
669.989	301.73
670.18	125.61
670.371	189.1
670.563	-38.23
670.754	322.21
670.945	185
671.136	178.86
671.327	137.9
671.518	219.82
671.709	293.54
671.9	135.85
672.091	275.11
672.282	174.76
672.473	141.99
672.664	111.27
672.855	168.62
673.046	133.8
673.237	197.29
673.428	107.18
673.619	193.19
673.809	154.28
674	193.19
674.191	273.06
674.382	228.01
674.573	103.08
674.764	117.42
674.954	240.3
675.145	125.61
675.336	113.32
675.527	228.01
675.717	113.32
675.908	170.66
676.099	185
676.289	115.37
676.48	119.46
676.671	256.68
676.861	141.99
677.052	166.57
677.243	250.53
677.433	94.89
677.624	160.42
677.814	207.53
678.005	166.57
678.195	291.49
678.386	105.13
678.576	203.43
678.767	113.32
678.957	189.1
679.148	268.97
679.338	320.17
679.529	223.91
679.719	105.13
679.909	240.3
680.1	246.44
680.29	187.05
680.481	66.22
680.671	334.5
680.861	266.92
681.052	197.29
681.242	135.85
681.432	209.58
681.622	150.18
681.813	148.14
682.003	139.94
682.193	213.67
682.383	185
682.573	223.91
682.764	228.01
682.954	228.01
683.144	291.49
683.334	207.53
683.524	221.86
683.714	316.07
683.904	256.68
684.094	260.77
684.284	250.53
684.474	395.94
684.664	250.53
684.854	285.35
685.044	260.77
685.234	260.77
685.424	242.34
685.614	207.53
685.804	330.41
685.994	281.25
686.184	236.2
686.374	268.97
686.564	203.43
686.753	230.06
686.943	285.35
687.133	230.06
687.323	223.91
687.513	338.6
687.702	246.44
687.892	213.67
688.082	232.1
688.272	354.98
688.461	215.72
688.651	410.28
688.841	238.25
689.03	305.83
689.22	283.3
689.41	248.49
689.599	307.88
689.789	180.9
689.979	316.07
690.168	185
690.358	285.35
690.547	152.23
690.737	252.58
690.926	287.4
691.116	277.16
691.305	322.21
691.495	316.07
691.684	178.86
691.874	113.32
692.063	260.77
692.252	250.53
692.442	258.73
692.631	158.38
692.82	191.14
693.01	291.49
693.199	219.82
693.388	260.77
693.578	150.18
693.767	348.84
693.956	350.89
694.146	197.29
694.335	340.65
694.524	195.24
694.713	260.77
694.902	232.1
695.092	211.62
695.281	248.49
695.47	156.33
695.659	162.47
695.848	238.25
696.037	170.66
696.226	236.2
696.415	195.24
696.604	234.15
696.793	307.88
696.982	123.56
697.171	293.54
697.36	180.9
697.549	217.77
697.738	121.51
697.927	144.04
698.116	158.38
698.305	232.1
698.494	279.21
698.683	211.62
698.872	342.69
699.061	191.14
699.25	158.38
699.438	195.24
699.627	193.19
699.816	408.23
700.005	154.28
700.193	115.37
700.382	178.86
700.571	299.69
700.76	283.3
700.948	207.53
701.137	176.81
701.326	281.25
701.514	129.7
701.703	166.57
701.892	318.12
702.08	389.8
702.269	201.38
702.457	191.14
702.646	199.34
702.834	125.61
703.023	254.63
703.212	228.01
703.4	209.58
703.589	248.49
703.777	223.91
703.965	185
704.154	103.08
704.342	193.19
704.531	158.38
704.719	115.37
704.907	279.21
705.096	172.71
705.284	168.62
705.472	240.3
705.661	232.1
705.849	363.17
706.037	303.78
706.226	223.91
706.414	275.11
706.602	178.86
706.79	219.82
706.979	127.66
707.167	168.62
707.355	92.84
707.543	215.72
707.731	234.15
707.919	156.33
708.107	156.33
708.296	166.57
708.484	158.38
708.672	258.73
708.86	191.14
709.048	223.91
709.236	199.34
709.424	246.44
709.612	176.81
709.8	70.31
709.988	178.86
710.176	354.98
710.364	283.3
710.551	271.01
710.739	203.43
710.927	258.73
711.115	180.9
711.303	221.86
711.491	314.02
711.679	158.38
711.866	297.64
712.054	230.06
712.242	230.06
712.43	322.21
712.617	135.85
712.805	271.01
712.993	137.9
713.181	125.61
713.368	250.53
713.556	209.58
713.744	137.9
713.931	367.27
714.119	254.63
714.306	170.66
714.494	158.38
714.682	238.25
714.869	137.9
715.057	148.14
715.244	148.14
715.432	234.15
715.619	154.28
715.807	156.33
715.994	164.52
716.182	285.35
716.369	266.92
716.556	258.73
716.744	70.31
716.931	168.62
717.119	258.73
717.306	182.95
717.493	254.63
717.681	225.96
717.868	213.67
718.055	252.58
718.242	172.71
718.43	238.25
718.617	336.55
718.804	264.87
718.991	354.98
719.179	293.54
719.366	225.96
719.553	287.4
719.74	228.01
719.927	168.62
720.114	176.81
720.301	94.89
720.488	189.1
720.676	131.75
720.863	322.21
721.05	363.17
721.237	295.59
721.424	277.16
721.611	314.02
721.798	166.57
721.985	197.29
722.172	238.25
722.358	207.53
722.545	340.65
722.732	262.82
722.919	311.97
723.106	316.07
723.293	297.64
723.48	250.53
723.667	201.38
723.853	279.21
724.04	283.3
724.227	314.02
724.414	264.87
724.6	342.69
724.787	348.84
724.974	342.69
725.161	248.49
725.347	164.52
725.534	244.39
725.72	244.39
725.907	330.41
726.094	271.01
726.28	148.14
726.467	250.53
726.653	191.14
726.84	326.31
727.027	354.98
727.213	264.87
727.4	271.01
727.586	281.25
727.773	293.54
727.959	320.17
728.145	275.11
728.332	311.97
728.518	211.62
728.705	260.77
728.891	260.77
729.077	322.21
729.264	174.76
729.45	295.59
729.636	295.59
729.823	301.73
730.009	266.92
730.195	303.78
730.382	293.54
730.568	264.87
730.754	240.3
730.94	160.42
731.126	301.73
731.313	242.34
731.499	275.11
731.685	297.64
731.871	289.45
732.057	279.21
732.243	275.11
732.429	260.77
732.615	340.65
732.801	279.21
732.987	336.55
733.173	256.68
733.359	246.44
733.545	283.3
733.731	287.4
733.917	281.25
734.103	221.86
734.289	385.7
734.475	178.86
734.661	494.24
734.847	301.73
735.033	305.83
735.219	373.41
735.404	279.21
735.59	225.96
735.776	219.82
735.962	289.45
736.148	266.92
736.333	326.31
736.519	307.88
736.705	318.12
736.89	324.26
737.076	264.87
737.262	195.24
737.447	264.87
737.633	268.97
737.819	328.36
738.004	273.06
738.19	273.06
738.375	256.68
738.561	330.41
738.747	203.43
738.932	221.86
739.118	492.2
739.303	346.79
739.489	314.02
739.674	223.91
739.859	228.01
740.045	271.01
740.23	301.73
740.416	101.03
740.601	248.49
740.786	332.45
740.972	209.58
741.157	297.64
741.342	191.14
741.528	187.05
741.713	363.17
741.898	221.86
742.084	363.17
742.269	230.06
742.454	328.36
742.639	361.13
742.824	256.68
743.01	441
743.195	391.84
743.38	258.73
743.565	309.93
743.75	271.01
743.935	408.23
744.12	309.93
744.305	185
744.49	254.63
744.675	246.44
744.86	223.91
745.045	340.65
745.23	223.91
745.415	273.06
745.6	357.03
745.785	277.16
745.97	371.37
746.155	330.41
746.34	342.69
746.525	271.01
746.71	326.31
746.895	221.86
747.079	225.96
747.264	291.49
747.449	416.42
747.634	318.12
747.819	320.17
748.003	111.27
748.188	109.23
748.373	311.97
748.557	240.3
748.742	332.45
748.927	281.25
749.111	293.54
749.296	285.35
749.481	209.58
749.665	268.97
749.85	219.82
750.034	236.2
750.219	271.01
750.404	277.16
750.588	293.54
750.773	189.1
750.957	252.58
751.141	189.1
751.326	250.53
751.51	115.37
751.695	185
751.879	178.86
752.064	305.83
752.248	189.1
752.432	246.44
752.617	285.35
752.801	281.25
752.985	172.71
753.17	271.01
753.354	297.64
753.538	256.68
753.722	201.38
753.907	160.42
754.091	156.33
754.275	256.68
754.459	182.95
754.643	148.14
754.828	203.43
755.012	113.32
755.196	123.56
755.38	236.2
755.564	152.23
755.748	207.53
755.932	324.26
756.116	207.53
756.3	223.91
756.484	178.86
756.668	207.53
756.852	127.66
757.036	150.18
757.22	211.62
757.404	76.46
757.588	146.09
757.772	234.15
757.956	219.82
758.14	336.55
758.323	115.37
758.507	168.62
758.691	139.94
758.875	152.23
759.059	285.35
759.242	139.94
759.426	217.77
759.61	176.81
759.794	62.12
759.977	193.19
760.161	432.8
760.345	273.06
760.528	191.14
760.712	125.61
760.895	185
761.079	129.7
761.263	88.75
761.446	123.56
761.63	72.36
761.813	187.05
761.997	62.12
762.18	92.84
762.364	154.28
762.547	39.59
762.731	78.51
762.914	129.7
763.098	146.09
763.281	23.21
763.464	90.79
763.648	4.78
763.831	92.84
764.015	131.75
764.198	203.43
764.381	15.02
764.564	90.79
764.748	135.85
764.931	150.18
765.114	49.83
765.297	35.5
765.481	2.73
765.664	80.55
765.847	17.07
766.03	127.66
766.213	21.16
766.397	150.18
766.58	31.4
766.763	82.6
766.946	129.7
767.129	158.38
767.312	0.68
767.495	121.51
767.678	39.59
767.861	70.31
768.044	62.12
768.227	68.27
768.41	107.18
768.593	127.66
768.776	98.99
768.959	4.78
769.142	264.87
769.324	2.73
769.507	107.18
769.69	55.98
769.873	0.68
770.056	397.99
770.239	152.23
770.421	213.67
770.604	170.66
770.787	121.51
770.97	109.23
771.152	33.45
771.335	170.66
771.518	17.07
771.7	127.66
771.883	187.05
772.066	113.32
772.248	195.24
772.431	172.71
772.613	191.14
772.796	70.31
772.978	158.38
773.161	205.48
773.343	82.6
773.526	70.31
773.708	-34.13
773.891	-109.91
774.073	92.84
774.256	33.45
774.438	168.62
774.621	64.17
774.803	25.26
774.985	68.27
775.168	94.89
775.35	35.5
775.532	86.7
775.715	-9.56
775.897	92.84
776.079	-40.28
776.261	25.26
776.444	51.88
776.626	88.75
776.808	80.55
776.99	-60.76
777.173	47.79
777.355	-3.41
777.537	27.31
777.719	115.37
777.901	41.64
778.083	-15.7
778.265	-9.56
778.447	88.75
778.629	-38.23
778.811	113.32
778.993	47.79
779.175	119.46
779.357	6.83
779.539	31.4
779.721	109.23
779.903	76.46
780.085	49.83
780.267	78.51
780.449	25.26
780.631	53.93
780.812	174.76
780.994	84.65
781.176	51.88
781.358	107.18
781.54	96.94
781.721	64.17
781.903	90.79
782.085	-7.51
782.267	64.17
782.448	-38.23
782.63	51.88
782.812	41.64
782.993	92.84
783.175	27.31
783.357	29.35
783.538	72.36
783.72	-34.13
783.901	47.79
784.083	37.55
784.264	51.88
784.446	-17.75
784.627	-56.66
784.809	35.5
784.99	-27.99
785.172	80.55
785.353	107.18
785.535	51.88
785.716	-9.56
785.897	-30.04
786.079	43.69
786.26	25.26
786.441	105.13
786.623	-89.43
786.804	-44.37
786.985	19.11
787.167	39.59
787.348	47.79
787.529	49.83
787.71	176.81
787.891	49.83
788.073	-30.04
788.254	-75.09
788.435	119.46
788.616	31.4
788.797	-50.52
788.978	-3.41
789.159	10.92
789.34	72.36
789.522	60.07
789.703	-17.75
789.884	146.09
790.065	2.73
790.246	195.24
790.427	-1.37
790.607	156.33
790.788	88.75
790.969	4.78
791.15	133.8
791.331	4.78
791.512	-56.66
791.693	-13.65
791.874	-27.99
792.054	201.38
792.235	76.46
792.416	17.07
792.597	6.83
792.778	23.21
792.958	72.36
793.139	64.17
793.32	-1.37
793.5	-3.41
793.681	148.14
793.862	-17.75
794.042	33.45
794.223	-50.52
794.404	6.83
794.584	-81.24
794.765	12.97
794.945	47.79
795.126	82.6
795.306	55.98
795.487	-64.85
795.667	-85.33
795.848	70.31
796.028	-58.71
796.209	70.31
796.389	148.14
796.57	51.88
796.75	-1.37
796.93	-9.56
797.111	29.35
797.291	60.07
797.471	21.16
797.652	17.07
797.832	-3.41
798.012	111.27
798.192	-7.51
798.373	-87.38
798.553	-40.28
798.733	47.79
798.913	31.4
799.093	19.11
799.274	70.31
799.454	58.03
799.634	41.64
799.814	92.84
799.994	51.88
800.174	17.07
800.354	15.02
800.534	-105.81
800.714	80.55
800.894	-19.8
801.074	-7.51
801.254	-83.28
801.434	37.55
801.614	10.92
801.794	-157.01
801.974	1972.88
802.154	-81.24
802.334	37.55
802.514	-77.14
802.693	43.69
802.873	-87.38
803.053	72.36
803.233	84.65
803.413	-75.09
803.592	-17.75
803.772	-19.8
803.952	8.87
804.131	-77.14
804.311	84.65
804.491	135.85
804.67	-3.41
804.85	-114
805.03	51.88
805.209	135.85
805.389	41.64
805.568	-75.09
805.748	-21.84
805.928	53.93
806.107	80.55
806.287	64.17
806.466	31.4
806.646	25.26
806.825	60.07
807.004	-36.18
807.184	-23.89
807.363	135.85
807.543	21.16
807.722	-50.52
807.901	119.46
808.081	55.98
808.26	-109.91
808.439	53.93
808.619	90.79
808.798	29.35
808.977	6.83
809.156	123.56
809.336	39.59
809.515	82.6
809.694	-38.23
809.873	15.02
810.052	119.46
810.231	115.37
810.411	-44.37
810.59	178.86
810.769	17.07
810.948	123.56
811.127	-107.86
811.306	-3.41
811.485	4.78
811.664	166.57
811.843	58.03
812.022	17.07
812.201	-40.28
812.38	43.69
812.559	-36.18
812.737	86.7
812.916	-85.33
813.095	-21.84
813.274	-13.65
813.453	-9.56
813.632	19.11
813.811	127.66
813.989	-99.67
814.168	23.21
814.347	-68.95
814.526	-9.56
814.704	127.66
814.883	94.89
815.062	-56.66
815.24	86.7
815.419	-136.53
815.598	-1.37
815.776	-48.47
815.955	-13.65
816.133	-66.9
816.312	62.12
816.49	-103.76
816.669	-25.94
816.847	-1.37
817.026	-44.37
817.204	-60.76
817.383	-46.42
817.561	-91.48
817.74	27.31
817.918	60.07
818.097	-95.57
818.275	-68.95
818.453	-7.51
818.632	51.88
818.81	-23.89
818.988	-23.89
819.167	-11.61
819.345	19.11
819.523	-116.05
819.701	29.35
819.879	27.31
820.058	45.74
820.236	-11.61
820.414	4.78
820.592	2.73
820.77	-9.56
820.948	-52.56
821.127	-56.66
821.305	51.88
821.483	-23.89
821.661	43.69
821.839	37.55
822.017	-62.8
822.195	-38.23
822.373	156.33
822.551	6.83
822.729	92.84
822.907	-19.8
823.085	25.26
823.262	-42.32
823.44	-40.28
823.618	-9.56
823.796	-13.65
823.974	-9.56
824.152	-5.46
824.329	-25.94
824.507	68.27
824.685	47.79
824.863	-25.94
825.04	33.45
825.218	72.36
825.396	-3.41
825.574	94.89
825.751	27.31
825.929	35.5
826.107	-7.51
826.284	33.45
826.462	31.4
826.639	-87.38
826.817	-118.1
826.994	-17.75
827.172	-19.8
827.349	64.17
827.527	58.03
827.704	-48.47
827.882	51.88
828.059	51.88
828.237	-54.61
828.414	105.13
828.591	-148.82
828.769	0.68
828.946	-56.66
829.124	51.88
829.301	47.79
829.478	-15.7
829.655	39.59
829.833	45.74
830.01	-120.15
830.187	33.45
830.364	-44.37
830.542	-38.23
830.719	123.56
830.896	29.35
831.073	-56.66
831.25	29.35
831.427	62.12
831.604	-50.52
831.782	-54.61
831.959	74.41
832.136	-64.85
832.313	58.03
832.49	-44.37
832.667	37.55
832.844	31.4
833.021	107.18
833.198	74.41
833.374	-27.99
833.551	-11.61
833.728	-17.75
833.905	29.35
834.082	-73.04
834.259	-17.75
834.436	88.75
834.612	-79.19
834.789	0.68
834.966	-25.94
835.143	31.4
835.319	-81.24
835.496	101.03
835.673	43.69
835.85	105.13
836.026	35.5
836.203	76.46
836.38	-58.71
836.556	66.22
836.733	-34.13
836.909	86.7
837.086	-64.85
837.262	-197.97
837.439	37.55
837.616	-23.89
837.792	60.07
837.968	15.02
838.145	-114
838.321	-1.37
838.498	23.21
838.674	35.5
838.851	17.07
839.027	-36.18
839.203	-3.41
839.38	94.89
839.556	-1.37
839.732	15.02
839.909	4.78
840.085	51.88
840.261	17.07
840.437	27.31
840.614	8.87
840.79	29.35
840.966	47.79
841.142	43.69
841.318	-19.8
841.494	86.7
841.671	39.59
841.847	-111.96
842.023	-62.8
842.199	51.88
842.375	135.85
842.551	-124.24
842.727	-101.72
842.903	115.37
843.079	-64.85
843.255	109.23
843.431	6.83
843.607	-36.18
843.783	-228.69
843.959	70.31
844.134	-77.14
844.31	111.27
844.486	-95.57
844.662	-81.24
844.838	-17.75
845.013	-9.56
845.189	35.5
845.365	-3.41
845.541	-60.76
845.716	10.92
845.892	137.9
846.068	-25.94
846.244	-32.08
846.419	-3.41
846.595	-58.71
846.77	-68.95
846.946	25.26
847.122	-68.95
847.297	-60.76
847.473	86.7
847.648	-40.28
847.824	-99.67
847.999	-87.38
848.175	-71
848.35	2.73
848.526	131.75
848.701	15.02
848.876	53.93
849.052	90.79
849.227	-36.18
849.403	-19.8
849.578	-38.23
849.753	96.94
849.929	64.17
850.104	-30.04
850.279	19.11
850.454	-5.46
850.63	76.46
850.805	-17.75
850.98	66.22
851.155	-50.52
851.33	-64.85
851.505	-75.09
851.681	55.98
851.856	-71
852.031	74.41
852.206	53.93
852.381	-30.04
852.556	10.92
852.731	-34.13
852.906	29.35
853.081	72.36
853.256	187.05
853.431	-89.43
853.606	-32.08
853.781	-50.52
853.956	-210.26
854.131	-5.46
854.305	25.26
854.48	2.73
854.655	-40.28
854.83	-111.96
855.005	45.74
855.18	-48.47
855.354	-83.28
855.529	-7.51
855.704	-50.52
855.879	72.36
856.053	-107.86
856.228	66.22
856.403	-89.43
856.577	41.64
856.752	-114
856.926	-1.37
857.101	98.99
857.276	-21.84
857.45	-5.46
857.625	62.12
857.799	21.16
857.974	-15.7
858.148	-21.84
858.323	-1.37
858.497	29.35
858.672	-19.8
858.846	-89.43
859.02	15.02
859.195	-44.37
859.369	-64.85
859.543	2.73
859.718	-46.42
859.892	68.27
860.066	-17.75
860.241	-58.71
860.415	-124.24
860.589	31.4
860.763	-42.32
860.938	39.59
861.112	-13.65
861.286	-87.38
861.46	31.4
861.634	19.11
861.808	94.89
861.982	12.97
862.157	-62.8
862.331	-42.32
862.505	-122.2
862.679	-46.42
862.853	-116.05
863.027	-44.37
863.201	152.23
863.375	-7.51
863.549	25.26
863.722	-1.37
863.896	84.65
864.07	-50.52
864.244	8.87
864.418	19.11
864.592	-44.37
864.766	-40.28
864.939	55.98
865.113	-109.91
865.287	62.12
865.461	-79.19
865.634	25.26
865.808	15.02
865.982	-62.8
866.156	-62.8
866.329	-23.89
866.503	33.45
866.676	31.4
866.85	-5.46
867.024	4.78
867.197	53.93
867.371	51.88
867.544	76.46
867.718	-75.09
867.891	60.07
868.065	-95.57
868.238	-58.71
868.412	58.03
868.585	60.07
868.759	-101.72
868.932	-38.23
869.105	-165.2
869.279	10.92
869.452	-87.38
869.625	25.26
869.799	-3.41
869.972	-58.71
870.145	-83.28
870.319	-15.7
870.492	-44.37
870.665	-23.89
870.838	-93.52
871.011	-128.34
871.185	-27.99
871.358	-111.96
871.531	37.55
871.704	-5.46
871.877	37.55
872.05	-40.28
872.223	-118.1
872.396	74.41
872.569	58.03
872.742	-66.9
872.915	88.75
873.088	-60.76
873.261	-27.99
873.434	6.83
873.607	10.92
873.78	92.84
873.953	-99.67
874.126	-56.66
874.299	-58.71
874.471	-56.66
874.644	-13.65
874.817	80.55
874.99	107.18
875.163	-27.99
875.335	-19.8
875.508	0.68
875.681	113.32
875.853	-77.14
876.026	53.93
876.199	29.35
876.371	58.03
876.544	-97.62
876.717	-42.32
876.889	-30.04
877.062	-5.46
877.234	-122.2
877.407	-142.68
877.579	-19.8
877.752	43.69
877.924	8.87
878.097	55.98
878.269	0.68
878.442	17.07
878.614	-3.41
878.786	-11.61
878.959	25.26
879.131	12.97
879.303	-130.39
879.476	-50.52
879.648	25.26
879.82	-32.08
879.993	-44.37
880.165	-95.57
880.337	-77.14
880.509	-54.61
880.681	-95.57
880.854	-9.56
881.026	80.55
881.198	252.58
881.37	10.92
881.542	-114
881.714	-7.51
881.886	-38.23
882.058	-17.75
882.23	29.35
882.402	-87.38
882.574	-52.56
882.746	31.4
882.918	82.6
883.09	15.02
883.262	-50.52
883.434	-7.51
883.606	-38.23
883.778	-9.56
883.95	141.99
884.122	-36.18
884.293	51.88
884.465	68.27
884.637	82.6
884.809	-66.9
884.98	15.02
885.152	15.02
885.324	60.07
885.496	-38.23
885.667	-34.13
885.839	-3.41
886.011	86.7
886.182	58.03
886.354	4.78
886.525	-54.61
886.697	-3.41
886.869	-64.85
887.04	-11.61
887.212	88.75
887.383	103.08
887.555	-17.75
887.726	-54.61
887.897	-42.32
888.069	-23.89
888.24	98.99
888.412	-44.37
888.583	27.31
888.754	39.59
888.926	-118.1
889.097	31.4
889.268	-124.24
889.44	15.02
889.611	-91.48
889.782	-73.04
889.953	-50.52
890.125	66.22
890.296	-107.86
890.467	-89.43
890.638	-122.2
890.809	-54.61
890.98	-134.48
891.151	72.36
891.323	117.42
891.494	-32.08
891.665	10.92
891.836	-64.85
892.007	-11.61
892.178	49.83
892.349	4.78
892.52	0.68
892.691	-1.37
892.862	-3.41
893.032	-105.81
893.203	-48.47
893.374	86.7
893.545	84.65
893.716	-56.66
893.887	74.41
894.057	-62.8
894.228	31.4
894.399	-40.28
894.57	82.6
894.74	-44.37
894.911	41.64
895.082	-114
895.253	-118.1
895.423	53.93
895.594	82.6
895.764	21.16
895.935	-68.95
896.106	-7.51
896.276	-58.71
896.447	21.16
896.617	-103.76
896.788	-81.24
896.958	-101.72
897.129	-60.76
897.299	-60.76
897.47	64.17
897.64	68.27
897.81	-25.94
897.981	-1.37
898.151	-56.66
898.322	135.85
898.492	17.07
898.662	-116.05
898.832	37.55
899.003	-38.23
899.173	43.69
899.343	-95.57
899.513	6.83
