Data from USB4F104151__174__11-04-59-135.txt Node

Date: Wed Feb 26 11:04:59 EST 2025
User: louis
Spectrometer: USB4F10415
Trigger mode: 4
Integration Time (sec): 1.000000E-1
Scans to average: 1
Electric dark correction enabled: true
Nonlinearity correction enabled: false
Boxcar width: 0
XAxis mode: Wavelengths
Number of Pixels in Spectrum: 3648
>>>>>Begin Spectral Data<<<<<
178.204	-388.94
178.424	-388.94
178.644	-388.94
178.864	-384.85
179.084	-329.55
179.304	16.55
179.524	-69.46
179.744	-8.02
179.964	18.6
180.184	45.23
180.404	84.14
180.624	-69.46
180.844	14.51
181.064	-71.51
181.283	18.6
181.503	-38.74
181.723	59.56
181.943	6.31
182.163	266.41
182.383	8.36
182.602	73.9
182.822	121
183.042	69.8
183.262	-3.93
183.482	37.03
183.701	53.42
183.921	71.85
184.141	-1.88
184.361	77.99
184.58	59.56
184.8	67.75
185.02	2.22
185.239	168.1
185.459	157.86
185.679	92.33
185.898	-30.55
186.118	94.38
186.338	34.99
186.557	139.43
186.777	-30.55
186.997	-30.55
187.216	47.27
187.436	180.39
187.655	143.53
187.875	114.86
188.095	63.66
188.314	102.57
188.534	121
188.753	-51.03
188.973	204.97
189.192	96.43
189.412	-5.97
189.631	-18.26
189.851	123.05
190.07	194.73
190.29	-5.97
190.509	-57.17
190.729	16.55
190.948	184.49
191.168	194.73
191.387	102.57
191.607	59.56
191.826	166.06
192.045	53.42
192.265	4.27
192.484	151.72
192.704	57.51
192.923	-100.18
193.142	231.59
193.362	24.75
193.581	178.34
193.8	73.9
194.02	67.75
194.239	102.57
194.458	155.82
194.678	67.75
194.897	26.79
195.116	39.08
195.335	59.56
195.555	77.99
195.774	39.08
195.993	80.04
196.212	-10.07
196.432	41.13
196.651	12.46
196.87	118.95
197.089	215.21
197.308	34.99
197.528	98.47
197.747	-16.21
197.966	71.85
198.185	129.19
198.404	-3.93
198.623	114.86
198.842	186.54
199.062	94.38
199.281	190.63
199.5	26.79
199.719	121
199.938	100.52
200.157	123.05
200.376	133.29
200.595	180.39
200.814	82.09
201.033	-10.07
201.252	174.25
201.471	139.43
201.69	129.19
201.909	145.58
202.128	92.33
202.347	67.75
202.566	67.75
202.785	10.41
203.004	30.89
203.223	274.6
203.442	104.62
203.661	26.79
203.879	92.33
204.098	180.39
204.317	37.03
204.536	143.53
204.755	141.48
204.974	182.44
205.193	49.32
205.411	254.12
205.63	161.96
205.849	114.86
206.068	-1.88
206.287	39.08
206.505	147.62
206.724	-32.6
206.943	51.37
207.162	32.94
207.381	88.23
207.599	123.05
207.818	-20.31
208.037	16.55
208.255	0.17
208.474	28.84
208.693	73.9
208.911	-28.5
209.13	39.08
209.349	65.71
209.567	155.82
209.786	61.61
210.005	59.56
210.223	82.09
210.442	-77.65
210.661	30.89
210.879	94.38
211.098	80.04
211.316	94.38
211.535	71.85
211.753	123.05
211.972	69.8
212.191	49.32
212.409	28.84
212.628	41.13
212.846	51.37
213.065	-38.74
213.283	86.19
213.502	71.85
213.72	112.81
213.938	104.62
214.157	28.84
214.375	98.47
214.594	45.23
214.812	96.43
215.031	61.61
215.249	67.75
215.467	108.71
215.686	94.38
215.904	108.71
216.122	55.47
216.341	112.81
216.559	110.76
216.778	102.57
216.996	178.34
217.214	116.9
217.432	65.71
217.651	-48.98
217.869	82.09
218.087	88.23
218.306	51.37
218.524	100.52
218.742	32.94
218.96	61.61
219.179	32.94
219.397	14.51
219.615	264.36
219.833	98.47
220.051	34.99
220.27	127.14
220.488	73.9
220.706	75.95
220.924	47.27
221.142	102.57
221.36	147.62
221.578	110.76
221.796	73.9
222.015	18.6
222.233	84.14
222.451	233.64
222.669	-24.4
222.887	135.34
223.105	51.37
223.323	10.41
223.541	-8.02
223.759	96.43
223.977	28.84
224.195	174.25
224.413	139.43
224.631	77.99
224.849	73.9
225.067	227.5
225.285	-53.08
225.503	-22.36
225.721	-73.56
225.939	84.14
226.157	67.75
226.375	178.34
226.592	41.13
226.81	75.95
227.028	121
227.246	161.96
227.464	37.03
227.682	143.53
227.9	73.9
228.117	67.75
228.335	135.34
228.553	24.75
228.771	30.89
228.989	43.18
229.206	141.48
229.424	16.55
229.642	88.23
229.86	24.75
230.077	180.39
230.295	65.71
230.513	110.76
230.731	37.03
230.948	207.02
231.166	166.06
231.384	39.08
231.601	-10.07
231.819	153.77
232.037	-46.93
232.254	-22.36
232.472	47.27
232.689	67.75
232.907	114.86
233.125	73.9
233.342	20.65
233.56	-1.88
233.777	-16.21
233.995	10.41
234.213	202.92
234.43	92.33
234.648	80.04
234.865	28.84
235.083	98.47
235.3	49.32
235.518	209.06
235.735	84.14
235.953	92.33
236.17	100.52
236.388	22.7
236.605	45.23
236.822	106.67
237.04	131.24
237.257	53.42
237.475	28.84
237.692	98.47
237.909	94.38
238.127	108.71
238.344	151.72
238.562	172.2
238.779	8.36
238.996	-65.36
239.214	34.99
239.431	153.77
239.648	118.95
239.865	67.75
240.083	75.95
240.3	-71.51
240.517	43.18
240.735	24.75
240.952	149.67
241.169	82.09
241.386	32.94
241.603	57.51
241.821	86.19
242.038	65.71
242.255	90.28
242.472	32.94
242.689	49.32
242.907	112.81
243.124	71.85
243.341	73.9
243.558	73.9
243.775	-46.93
243.992	-40.79
244.209	116.9
244.426	250.02
244.643	63.66
244.86	123.05
245.078	98.47
245.295	100.52
245.512	94.38
245.729	4.27
245.946	63.66
246.163	45.23
246.38	90.28
246.597	65.71
246.814	-36.69
247.031	100.52
247.248	-53.08
247.464	59.56
247.681	114.86
247.898	112.81
248.115	26.79
248.332	-1.88
248.549	92.33
248.766	172.2
248.983	108.71
249.2	98.47
249.417	125.1
249.633	39.08
249.85	73.9
250.067	114.86
250.284	100.52
250.501	155.82
250.717	221.35
250.934	-12.12
251.151	73.9
251.368	131.24
251.585	112.81
251.801	73.9
252.018	-42.84
252.235	108.71
252.451	-36.69
252.668	32.94
252.885	209.06
253.102	51.37
253.318	14.51
253.535	41.13
253.752	-26.45
253.968	32.94
254.185	-40.79
254.401	73.9
254.618	80.04
254.835	39.08
255.051	211.11
255.268	34.99
255.484	159.91
255.701	-1.88
255.917	71.85
256.134	-36.69
256.351	63.66
256.567	-14.17
256.784	65.71
257	-51.03
257.217	98.47
257.433	129.19
257.65	94.38
257.866	131.24
258.082	-26.45
258.299	51.37
258.515	108.71
258.732	-14.17
258.948	-42.84
259.165	2.22
259.381	-10.07
259.597	151.72
259.814	2.22
260.03	30.89
260.246	10.41
260.463	88.23
260.679	125.1
260.895	-5.97
261.112	90.28
261.328	10.41
261.544	84.14
261.761	202.92
261.977	37.03
262.193	-96.08
262.409	118.95
262.626	71.85
262.842	96.43
263.058	53.42
263.274	151.72
263.49	2.22
263.707	131.24
263.923	139.43
264.139	2.22
264.355	96.43
264.571	168.1
264.787	110.76
265.004	172.2
265.22	94.38
265.436	18.6
265.652	-20.31
265.868	73.9
266.084	-12.12
266.3	28.84
266.516	6.31
266.732	151.72
266.948	80.04
267.164	-36.69
267.38	178.34
267.596	77.99
267.812	180.39
268.028	67.75
268.244	37.03
268.46	55.47
268.676	-10.07
268.892	47.27
269.108	2.22
269.324	30.89
269.54	-30.55
269.756	118.95
269.972	-12.12
270.188	45.23
270.403	-14.17
270.619	41.13
270.835	43.18
271.051	69.8
271.267	47.27
271.483	-34.64
271.698	98.47
271.914	104.62
272.13	61.61
272.346	12.46
272.562	98.47
272.777	135.34
272.993	118.95
273.209	14.51
273.425	143.53
273.64	-3.93
273.856	104.62
274.072	39.08
274.287	86.19
274.503	43.18
274.719	63.66
274.934	-28.5
275.15	-16.21
275.366	75.95
275.581	-98.13
275.797	32.94
276.012	92.33
276.228	12.46
276.444	71.85
276.659	207.02
276.875	0.17
277.09	14.51
277.306	8.36
277.521	71.85
277.737	47.27
277.952	106.67
278.168	-8.02
278.383	49.32
278.599	116.9
278.814	94.38
279.03	51.37
279.245	147.62
279.461	45.23
279.676	129.19
279.892	-67.41
280.107	-8.02
280.322	43.18
280.538	151.72
280.753	0.17
280.969	53.42
281.184	28.84
281.399	245.93
281.615	69.8
281.83	90.28
282.045	-48.98
282.26	10.41
282.476	-16.21
282.691	147.62
282.906	75.95
283.122	71.85
283.337	-38.74
283.552	102.57
283.767	129.19
283.983	157.86
284.198	16.55
284.413	108.71
284.628	2.22
284.843	-10.07
285.058	77.99
285.274	53.42
285.489	41.13
285.704	98.47
285.919	51.37
286.134	59.56
286.349	20.65
286.564	32.94
286.779	155.82
286.995	28.84
287.21	2.22
287.425	49.32
287.64	-16.21
287.855	127.14
288.07	-10.07
288.285	143.53
288.5	94.38
288.715	59.56
288.93	100.52
289.145	10.41
289.36	131.24
289.575	-32.6
289.79	192.68
290.004	-63.32
290.219	153.77
290.434	77.99
290.649	-12.12
290.864	34.99
291.079	73.9
291.294	53.42
291.509	84.14
291.724	51.37
291.938	41.13
292.153	141.48
292.368	10.41
292.583	94.38
292.798	90.28
293.012	88.23
293.227	69.8
293.442	-8.02
293.657	211.11
293.871	178.34
294.086	26.79
294.301	266.41
294.516	145.58
294.73	118.95
294.945	-16.21
295.16	63.66
295.374	147.62
295.589	200.87
295.804	28.84
296.018	26.79
296.233	168.1
296.447	65.71
296.662	-10.07
296.877	47.27
297.091	69.8
297.306	147.62
297.52	45.23
297.735	39.08
297.949	88.23
298.164	131.24
298.378	49.32
298.593	86.19
298.807	55.47
299.022	75.95
299.236	131.24
299.451	16.55
299.665	24.75
299.88	53.42
300.094	102.57
300.309	26.79
300.523	71.85
300.737	-28.5
300.952	73.9
301.166	129.19
301.381	63.66
301.595	16.55
301.809	157.86
302.024	69.8
302.238	-61.27
302.452	106.67
302.667	73.9
302.881	26.79
303.095	135.34
303.309	53.42
303.524	30.89
303.738	86.19
303.952	86.19
304.166	57.51
304.381	-46.93
304.595	207.02
304.809	26.79
305.023	166.06
305.237	28.84
305.452	131.24
305.666	86.19
305.88	104.62
306.094	186.54
306.308	77.99
306.522	61.61
306.736	129.19
306.95	102.57
307.164	32.94
307.379	-44.88
307.593	157.86
307.807	149.67
308.021	161.96
308.235	106.67
308.449	-44.88
308.663	71.85
308.877	262.31
309.091	12.46
309.305	110.76
309.519	-1.88
309.733	157.86
309.947	45.23
310.161	82.09
310.374	49.32
310.588	161.96
310.802	16.55
311.016	34.99
311.23	116.9
311.444	18.6
311.658	37.03
311.872	77.99
312.085	159.91
312.299	123.05
312.513	188.58
312.727	30.89
312.941	-20.31
313.154	43.18
313.368	114.86
313.582	67.75
313.796	63.66
314.009	73.9
314.223	108.71
314.437	45.23
314.651	161.96
314.864	53.42
315.078	63.66
315.292	-51.03
315.505	34.99
315.719	-18.26
315.933	75.95
316.146	24.75
316.36	-8.02
316.573	133.29
316.787	90.28
317.001	118.95
317.214	16.55
317.428	121
317.641	-51.03
317.855	-16.21
318.068	98.47
318.282	49.32
318.495	168.1
318.709	143.53
318.922	47.27
319.136	127.14
319.349	98.47
319.563	86.19
319.776	133.29
319.99	6.31
320.203	168.1
320.417	102.57
320.63	151.72
320.843	221.35
321.057	41.13
321.27	8.36
321.483	49.32
321.697	67.75
321.91	-38.74
322.124	6.31
322.337	137.38
322.55	-14.17
322.763	112.81
322.977	77.99
323.19	6.31
323.403	75.95
323.617	164.01
323.83	49.32
324.043	49.32
324.256	37.03
324.469	14.51
324.683	108.71
324.896	65.71
325.109	65.71
325.322	-57.17
325.535	159.91
325.748	157.86
325.962	71.85
326.175	61.61
326.388	43.18
326.601	106.67
326.814	77.99
327.027	127.14
327.24	225.45
327.453	-5.97
327.666	90.28
327.879	77.99
328.092	98.47
328.305	90.28
328.518	84.14
328.731	69.8
328.944	69.8
329.157	116.9
329.37	-14.17
329.583	135.34
329.796	204.97
330.009	-10.07
330.222	57.51
330.435	139.43
330.648	102.57
330.861	65.71
331.073	65.71
331.286	108.71
331.499	114.86
331.712	16.55
331.925	88.23
332.138	63.66
332.35	92.33
332.563	6.31
332.776	102.57
332.989	59.56
333.202	69.8
333.414	55.47
333.627	71.85
333.84	75.95
334.053	127.14
334.265	127.14
334.478	65.71
334.691	12.46
334.903	80.04
335.116	-12.12
335.329	71.85
335.541	155.82
335.754	290.98
335.966	57.51
336.179	98.47
336.392	20.65
336.604	51.37
336.817	116.9
337.029	137.38
337.242	41.13
337.454	133.29
337.667	82.09
337.88	198.82
338.092	59.56
338.305	92.33
338.517	-1.88
338.729	198.82
338.942	143.53
339.154	69.8
339.367	6.31
339.579	75.95
339.792	63.66
340.004	75.95
340.217	-32.6
340.429	59.56
340.641	24.75
340.854	55.47
341.066	94.38
341.278	184.49
341.491	178.34
341.703	55.47
341.915	-46.93
342.128	112.81
342.34	82.09
342.552	12.46
342.764	65.71
342.977	80.04
343.189	121
343.401	73.9
343.613	-40.79
343.826	84.14
344.038	34.99
344.25	-1.88
344.462	32.94
344.674	49.32
344.886	39.08
345.099	24.75
345.311	102.57
345.523	6.31
345.735	-12.12
345.947	135.34
346.159	57.51
346.371	-1.88
346.583	26.79
346.795	225.45
347.007	-3.93
347.219	114.86
347.431	57.51
347.643	133.29
347.855	-55.12
348.067	151.72
348.279	8.36
348.491	2.22
348.703	127.14
348.915	14.51
349.127	4.27
349.339	102.57
349.551	-20.31
349.763	166.06
349.975	80.04
350.187	149.67
350.399	184.49
350.61	112.81
350.822	61.61
351.034	98.47
351.246	127.14
351.458	129.19
351.669	139.43
351.881	118.95
352.093	125.1
352.305	131.24
352.517	108.71
352.728	63.66
352.94	86.19
353.152	63.66
353.363	20.65
353.575	114.86
353.787	155.82
353.999	71.85
354.21	145.58
354.422	-28.5
354.633	0.17
354.845	32.94
355.057	139.43
355.268	84.14
355.48	24.75
355.692	-12.12
355.903	22.7
356.115	-3.93
356.326	-44.88
356.538	110.76
356.749	149.67
356.961	233.64
357.172	114.86
357.384	-46.93
357.595	229.54
357.807	2.22
358.018	16.55
358.23	55.47
358.441	213.16
358.653	24.75
358.864	106.67
359.075	63.66
359.287	94.38
359.498	135.34
359.709	149.67
359.921	26.79
360.132	73.9
360.344	34.99
360.555	47.27
360.766	80.04
360.977	104.62
361.189	149.67
361.4	-32.6
361.611	143.53
361.823	170.15
362.034	34.99
362.245	-87.89
362.456	75.95
362.667	69.8
362.879	-75.6
363.09	139.43
363.301	20.65
363.512	82.09
363.723	-1.88
363.935	28.84
364.146	82.09
364.357	131.24
364.568	80.04
364.779	61.61
364.99	166.06
365.201	28.84
365.412	96.43
365.623	-128.85
365.834	141.48
366.045	118.95
366.256	110.76
366.467	139.43
366.678	4.27
366.889	32.94
367.1	-40.79
367.311	116.9
367.522	-51.03
367.733	102.57
367.944	59.56
368.155	65.71
368.366	41.13
368.577	184.49
368.788	69.8
368.999	41.13
369.209	22.7
369.42	229.54
369.631	209.06
369.842	80.04
370.053	84.14
370.264	166.06
370.474	112.81
370.685	108.71
370.896	24.75
371.107	172.2
371.317	30.89
371.528	110.76
371.739	182.44
371.95	102.57
372.16	129.19
372.371	53.42
372.582	45.23
372.792	129.19
373.003	129.19
373.214	121
373.424	77.99
373.635	16.55
373.846	176.3
374.056	43.18
374.267	75.95
374.477	69.8
374.688	92.33
374.898	129.19
375.109	73.9
375.319	75.95
375.53	178.34
375.74	94.38
375.951	65.71
376.161	108.71
376.372	192.68
376.582	6.31
376.793	100.52
377.003	39.08
377.214	8.36
377.424	49.32
377.635	0.17
377.845	67.75
378.055	151.72
378.266	-63.32
378.476	45.23
378.686	108.71
378.897	155.82
379.107	151.72
379.317	104.62
379.528	-1.88
379.738	196.78
379.948	-24.4
380.158	96.43
380.369	92.33
380.579	75.95
380.789	92.33
380.999	149.67
381.21	80.04
381.42	241.83
381.63	98.47
381.84	108.71
382.05	110.76
382.261	159.91
382.471	131.24
382.681	-73.56
382.891	223.4
383.101	86.19
383.311	53.42
383.521	-3.93
383.731	61.61
383.941	145.58
384.151	133.29
384.361	14.51
384.571	84.14
384.781	159.91
384.991	176.3
385.201	225.45
385.411	137.38
385.621	131.24
385.831	80.04
386.041	96.43
386.251	80.04
386.461	225.45
386.671	32.94
386.881	106.67
387.091	6.31
387.301	114.86
387.511	80.04
387.72	131.24
387.93	86.19
388.14	-48.98
388.35	178.34
388.56	190.63
388.769	161.96
388.979	55.47
389.189	14.51
389.399	10.41
389.609	12.46
389.818	141.48
390.028	125.1
390.238	116.9
390.447	8.36
390.657	39.08
390.867	63.66
391.076	20.65
391.286	75.95
391.496	39.08
391.705	63.66
391.915	125.1
392.125	84.14
392.334	2.22
392.544	190.63
392.753	90.28
392.963	-36.69
393.172	-5.97
393.382	12.46
393.591	176.3
393.801	49.32
394.01	221.35
394.22	102.57
394.429	69.8
394.639	94.38
394.848	174.25
395.058	45.23
395.267	108.71
395.477	129.19
395.686	55.47
395.895	213.16
396.105	164.01
396.314	108.71
396.524	16.55
396.733	80.04
396.942	176.3
397.152	143.53
397.361	145.58
397.57	125.1
397.78	43.18
397.989	57.51
398.198	227.5
398.407	215.21
398.617	75.95
398.826	88.23
399.035	47.27
399.244	88.23
399.453	84.14
399.663	51.37
399.872	65.71
400.081	24.75
400.29	159.91
400.499	4.27
400.708	135.34
400.917	84.14
401.127	112.81
401.336	4.27
401.545	229.54
401.754	200.87
401.963	94.38
402.172	0.17
402.381	-26.45
402.59	55.47
402.799	57.51
403.008	67.75
403.217	90.28
403.426	32.94
403.635	-61.27
403.844	129.19
404.053	10.41
404.262	39.08
404.471	229.54
404.68	86.19
404.888	47.27
405.097	86.19
405.306	118.95
405.515	135.34
405.724	-20.31
405.933	73.9
406.142	43.18
406.35	229.54
406.559	67.75
406.768	118.95
406.977	172.2
407.185	94.38
407.394	53.42
407.603	-65.36
407.812	75.95
408.02	180.39
408.229	67.75
408.438	121
408.646	53.42
408.855	86.19
409.064	143.53
409.272	51.37
409.481	127.14
409.69	47.27
409.898	-16.21
410.107	121
410.315	190.63
410.524	43.18
410.733	88.23
410.941	43.18
411.15	229.54
411.358	123.05
411.567	116.9
411.775	14.51
411.984	18.6
412.192	198.82
412.401	45.23
412.609	139.43
412.818	108.71
413.026	69.8
413.234	104.62
413.443	106.67
413.651	0.17
413.86	18.6
414.068	207.02
414.276	188.58
414.485	57.51
414.693	123.05
414.901	241.83
415.11	61.61
415.318	65.71
415.526	129.19
415.734	84.14
415.943	147.62
416.151	108.71
416.359	-36.69
416.567	82.09
416.776	116.9
416.984	190.63
417.192	174.25
417.4	51.37
417.608	45.23
417.817	4.27
418.025	49.32
418.233	231.59
418.441	-63.32
418.649	41.13
418.857	133.29
419.065	200.87
419.273	45.23
419.481	114.86
419.689	12.46
419.897	69.8
420.105	20.65
420.313	94.38
420.521	190.63
420.729	221.35
420.937	-75.6
421.145	49.32
421.353	125.1
421.561	204.97
421.769	84.14
421.977	102.57
422.185	196.78
422.393	63.66
422.601	139.43
422.809	43.18
423.017	133.29
423.224	53.42
423.432	96.43
423.64	75.95
423.848	178.34
424.056	-22.36
424.263	137.38
424.471	73.9
424.679	221.35
424.887	69.8
425.094	170.15
425.302	100.52
425.51	59.56
425.718	157.86
425.925	155.82
426.133	80.04
426.341	215.21
426.548	106.67
426.756	73.9
426.964	135.34
427.171	61.61
427.379	114.86
427.586	96.43
427.794	123.05
428.001	223.4
428.209	129.19
428.417	233.64
428.624	157.86
428.832	184.49
429.039	180.39
429.247	39.08
429.454	143.53
429.662	264.36
429.869	129.19
430.076	198.82
430.284	215.21
430.491	190.63
430.699	186.54
430.906	186.54
431.114	84.14
431.321	157.86
431.528	116.9
431.736	194.73
431.943	237.74
432.15	227.5
432.358	229.54
432.565	243.88
432.772	71.85
432.979	270.5
433.187	159.91
433.394	223.4
433.601	200.87
433.808	284.84
434.016	204.97
434.223	233.64
434.43	282.79
434.637	348.33
434.844	364.71
435.052	274.6
435.259	286.89
435.466	297.13
435.673	270.5
435.88	313.51
436.087	387.24
436.294	309.41
436.501	311.46
436.708	299.17
436.915	317.61
437.122	385.19
437.329	319.65
437.537	307.37
437.743	356.52
437.95	460.96
438.157	299.17
438.364	329.89
438.571	379.04
438.778	409.76
438.985	448.68
439.192	542.88
439.399	508.07
439.606	465.06
439.813	567.46
440.02	708.77
440.227	708.77
440.433	600.23
440.64	598.18
440.847	571.55
441.054	657.57
441.261	819.36
441.467	594.08
441.674	647.33
441.881	780.45
442.088	661.66
442.294	835.74
442.501	837.79
442.708	800.93
442.914	886.94
443.121	948.38
443.328	913.56
443.534	999.58
443.741	964.76
443.948	913.56
444.154	966.81
444.361	1222.81
444.568	1085.59
444.774	1142.94
444.981	1063.07
445.187	1394.84
445.394	1220.76
445.6	1171.61
445.807	1413.27
446.013	1276.06
446.22	1360.02
446.426	1556.63
446.633	1505.43
446.839	1702.03
447.046	1532.05
447.252	1771.66
447.459	1732.75
447.665	1716.37
447.871	1966.22
448.078	2035.85
448.284	1949.84
448.491	2019.47
448.697	2236.55
448.903	2242.7
449.11	2343.05
449.316	2386.05
449.522	2482.31
449.728	2556.04
449.935	2723.97
450.141	2558.08
450.347	2824.32
450.553	2769.02
450.76	2887.81
450.966	3102.84
451.172	3170.43
451.378	3307.64
451.584	3299.45
451.791	3618.93
451.997	3641.46
452.203	3721.33
452.409	3997.81
452.615	3995.76
452.821	4044.91
453.027	4018.29
453.233	4577.38
453.44	4305
453.646	4618.34
453.852	4939.87
454.058	5128.28
454.264	5066.85
454.47	5554.26
454.676	5660.76
454.882	6074.45
455.088	6010.96
455.294	6117.45
455.5	6467.66
455.705	6752.32
455.911	7004.22
456.117	7028.8
456.323	7385.15
456.529	7061.57
456.735	7890.99
456.941	8335.4
457.147	8638.5
457.352	8755.24
457.558	9041.95
457.764	9502.75
457.97	9900.05
458.176	10240.01
458.381	10727.43
458.587	10950.66
458.793	11583.48
458.999	11526.14
459.204	12875.75
459.41	13588.44
459.616	13098.98
459.821	14022.61
460.027	14663.63
460.233	15165.38
460.438	15273.92
460.644	16101.3
460.85	16201.65
461.055	16967.59
461.261	17801.12
461.466	17450.91
461.672	18067.35
461.878	19718.01
462.083	19781.5
462.289	19865.47
462.494	21102.44
462.7	21041
462.905	21301.09
463.111	22882.13
463.316	24115
463.522	24557.36
463.727	25251.63
463.932	26539.8
464.138	27098.89
464.343	28167.93
464.549	28432.12
464.754	30469.85
464.959	31512.27
465.165	31987.39
465.37	31674.06
465.575	31606.47
465.781	33572.52
465.986	35006.1
466.191	34195.1
466.397	34492.06
466.602	33971.88
466.807	35796.62
467.012	35915.4
467.218	36869.75
467.423	36544.13
467.628	37946.98
467.833	40107.59
468.038	39052.89
468.244	38389.34
468.449	40166.98
468.654	39261.78
468.859	39630.41
469.064	39843.4
469.269	38446.69
469.474	39171.67
469.679	40060.49
469.885	38895.19
470.09	39548.5
470.295	39544.4
470.5	38721.12
470.705	38942.3
470.91	37650.03
471.115	37361.26
471.32	38231.65
471.525	37607.02
471.73	36826.74
471.935	36648.57
472.139	35149.46
472.344	35270.29
472.549	35137.17
472.754	34113.19
472.959	33275.57
473.164	32229.05
473.369	31786.69
473.574	32765.62
473.778	32067.27
473.983	31456.97
474.188	30672.6
474.393	29505.26
474.598	29927.14
474.802	28745.46
475.007	28159.74
475.212	28075.77
475.417	27252.49
475.621	26750.74
475.826	26674.96
476.031	26074.91
476.235	25474.85
476.44	25165.61
476.645	24645.43
476.849	24403.77
477.054	23648.07
477.259	23332.68
477.463	23461.7
477.668	22798.16
477.872	22802.25
478.077	22419.28
478.282	21626.72
478.486	21219.17
478.691	21348.2
478.895	21071.72
479.1	21075.82
479.304	20717.42
479.509	19951.48
479.713	20461.43
479.918	19697.53
480.122	19376
480.326	19801.98
480.531	19419.01
480.735	19371.91
480.94	18857.87
481.144	19515.26
481.348	18388.88
481.553	18556.82
481.757	17903.51
481.961	18732.94
482.166	18239.38
482.37	18063.26
482.574	17727.39
482.778	17887.13
482.983	17942.42
483.187	17641.37
483.391	17500.06
483.595	17405.86
483.8	16893.86
484.004	16801.71
484.208	17223.59
484.412	16639.92
484.616	16603.05
484.821	16551.85
485.025	15843.26
485.229	15933.37
485.433	15732.67
485.637	16015.29
485.841	15142.85
486.045	14942.15
486.249	15169.48
486.453	14749.64
486.657	14454.73
486.861	14219.22
487.065	14000.09
487.269	13748.18
487.473	13641.69
487.677	13809.62
487.881	13293.54
488.085	13131.75
488.289	13021.16
488.493	12652.52
488.697	12556.27
488.901	12242.93
489.105	11790.33
489.309	11847.67
489.512	11591.67
489.716	11474.94
489.92	11081.73
490.124	10946.56
490.328	10971.14
490.531	10514.44
490.735	10637.32
490.939	10244.11
491.143	9883.67
491.346	9840.66
491.55	9916.44
491.754	9553.94
491.958	9252.89
492.161	9287.71
492.365	9363.48
492.569	9013.28
492.772	8828.96
492.976	8798.24
493.18	8587.3
493.383	8710.18
493.587	8394.79
493.79	8425.51
493.994	8136.75
494.197	8237.1
494.401	8118.32
494.605	8054.83
494.808	8040.5
495.012	7856.18
495.215	7761.97
495.419	7813.17
495.622	7700.53
495.825	7516.22
496.029	7569.46
496.232	7819.32
496.436	7434.3
496.639	7641.14
496.843	7557.18
497.046	7448.63
497.249	7622.71
497.453	7555.13
497.656	7682.1
497.859	7544.89
498.063	7419.96
498.266	7675.96
498.469	7401.53
498.673	7635
498.876	7604.28
499.079	7659.57
499.282	7530.55
499.485	7987.25
499.689	7747.64
499.892	7852.08
500.095	7612.47
500.298	7958.58
500.501	7897.14
500.705	7901.23
500.908	8013.87
501.111	7983.15
501.314	8153.13
501.517	8470.57
501.72	8441.9
501.923	8388.65
502.126	8554.54
502.329	8671.27
502.532	8886.31
502.735	8667.17
502.938	8966.18
503.141	8917.03
503.344	9121.82
503.547	9244.7
503.75	9189.41
503.953	9254.94
504.156	9715.73
504.359	9635.86
504.562	9789.46
504.765	9871.38
504.968	10313.74
505.17	10334.22
505.373	10438.67
505.576	10565.64
505.779	10725.38
505.982	10782.73
506.185	11233.28
506.387	11323.39
506.59	11538.43
506.793	11810.81
506.996	11825.14
507.198	12267.5
507.401	12228.59
507.604	12726.25
507.807	12795.88
508.009	13228
508.212	13377.5
508.415	13527
508.617	13766.62
508.82	13955.03
509.022	14264.27
509.225	14966.73
509.428	14923.72
509.63	15081.41
509.833	15390.66
510.035	16246.71
510.238	15974.33
510.44	16605.1
510.643	17078.18
510.845	17268.64
511.048	17604.51
511.25	17766.3
511.453	18522
511.655	19154.82
511.858	19171.21
512.06	19709.82
512.262	20143.99
512.465	20412.28
512.667	20866.92
512.87	21491.55
513.072	21782.37
513.274	22447.96
513.477	23131.98
513.679	23504.71
513.881	24307.51
514.084	24624.95
514.286	24897.33
514.488	25462.57
514.69	26455.83
514.893	26844.95
515.095	27006.73
515.297	27909.89
515.499	28323.58
515.701	28999.41
515.904	29665
516.106	29988.58
516.308	30811.86
516.51	31456.97
516.712	31610.57
516.914	32562.87
517.116	33351.34
517.318	33459.88
517.52	34225.82
517.722	34946.71
517.925	35534.48
518.127	36374.14
518.329	36763.26
518.531	37340.78
518.733	38196.84
518.935	38846.04
519.136	39298.64
519.338	40150.6
519.54	40695.36
519.742	41399.86
519.944	41956.91
520.146	42749.47
520.348	42911.26
520.55	43619.86
520.752	43898.38
520.954	44697.09
521.155	44824.06
521.357	45499.89
521.559	46142.95
521.761	46712.29
521.963	46951.9
522.164	47400.41
522.366	47465.94
522.568	48256.46
522.77	48522.69
522.971	48907.71
523.173	48784.83
523.375	49817.01
523.576	49235.39
523.778	49919.41
523.98	50677.16
524.181	50453.93
524.383	50566.57
524.584	51152.29
524.786	51127.71
524.988	50462.12
525.189	51279.26
525.391	51307.93
525.592	51336.6
525.794	51916.18
525.995	51070.37
526.197	50927.01
526.398	51088.8
526.6	50879.91
526.801	50906.53
527.003	50789.8
527.204	50769.32
527.406	50851.23
527.607	50447.78
527.808	50265.52
528.01	49552.82
528.211	49368.51
528.412	49692.08
528.614	49026.49
528.815	49083.84
529.016	48813.51
529.218	48020.94
529.419	47941.07
529.62	47482.33
529.822	46904.8
530.023	46591.46
530.224	46450.15
530.425	45858.29
530.626	44969.47
530.828	44201.48
531.029	45125.11
531.23	44449.28
531.431	43449.88
531.632	42950.17
531.833	42595.87
532.035	41778.73
532.236	41731.63
532.437	41252.41
532.638	40949.31
532.839	40183.37
533.04	39861.83
533.241	38942.3
533.442	39151.19
533.643	38327.91
533.844	37772.91
534.045	37496.43
534.246	36394.62
534.447	36365.95
534.648	35917.45
534.849	35348.11
535.05	34991.76
535.251	34440.86
535.451	33703.59
535.652	33552.04
535.853	33040.05
536.054	32480.96
536.255	32042.69
536.456	31416.01
536.657	31815.37
536.857	31033.04
537.058	30598.87
537.259	30437.08
537.46	29617.89
537.66	29349.61
537.861	29054.7
538.062	28540.66
538.263	28245.76
538.463	27733.76
538.664	27375.37
538.865	27100.94
539.065	26935.06
539.266	26074.91
539.466	26232.6
539.667	25612.07
539.868	25753.38
540.068	25095.98
540.269	24825.65
540.469	24653.62
540.67	24235.83
540.87	24164.15
541.071	23607.11
541.271	23263.05
541.472	23168.84
541.672	23086.92
541.873	22669.14
542.073	22239.06
542.274	22411.09
542.474	22191.96
542.675	21694.3
542.875	21698.4
543.075	21274.47
543.276	20897.64
543.476	20975.47
543.676	20375.41
543.877	20311.92
544.077	19908.47
544.277	19812.22
544.478	19595.14
544.678	19873.66
544.878	19077
545.078	18939.79
545.279	18671.5
545.479	18550.67
545.679	18462.61
545.879	18192.28
546.079	17880.99
546.28	17538.98
546.48	17711
546.68	17545.12
546.88	17024.93
547.08	17254.31
547.28	16680.88
547.48	16373.68
547.68	16281.52
547.88	15959.99
548.081	16302
548.281	15585.21
548.481	15421.38
548.681	15302.59
548.881	15204.29
549.081	14925.77
549.28	14608.33
549.48	14753.74
549.68	14675.91
549.88	14301.14
550.08	13979.61
550.28	13690.84
550.48	13637.59
550.68	13678.55
550.88	13258.72
551.08	13004.77
551.279	13049.83
551.479	12511.21
551.679	12566.51
551.879	12177.39
552.079	12191.73
552.278	11923.44
552.478	11972.6
552.678	11583.48
552.878	11651.06
553.077	11313.15
553.277	11094.02
553.477	10979.33
553.676	10795.01
553.876	10706.95
554.076	10385.42
554.275	10330.13
554.475	9975.83
554.674	10106.9
554.874	9861.14
555.074	9426.97
555.273	9467.93
555.473	9334.81
555.672	9146.4
555.872	9140.26
556.071	8962.08
556.271	8962.08
556.47	8529.96
556.67	8552.49
556.869	8509.48
557.068	8159.28
557.268	8126.51
557.467	7985.2
557.667	8060.98
557.866	7835.7
558.065	7708.73
558.265	7458.87
558.464	7196.73
558.663	7215.16
558.863	7063.61
559.062	6998.08
559.261	6740.04
559.461	7053.38
559.66	6598.73
559.859	6467.66
560.058	6359.11
560.258	6279.24
560.457	6213.71
560.656	6307.91
560.855	5847.12
561.054	6111.31
561.253	5861.46
561.453	5752.91
561.652	5722.2
561.851	5611.61
562.05	5574.74
562.249	5351.51
562.448	5482.58
562.647	5214.3
562.846	5130.33
563.045	5240.92
563.244	4946.02
563.443	5146.72
563.642	4962.4
563.841	4741.22
564.04	4735.07
564.239	4710.5
564.438	4604
564.637	4528.23
564.836	4718.69
565.035	4526.18
565.234	4264.04
565.432	4259.95
565.631	4296.81
565.83	4149.36
566.029	4120.68
566.228	3979.37
566.427	4081.77
566.625	3928.17
566.824	3915.89
567.023	3854.45
567.222	3762.29
567.42	3719.28
567.619	3745.91
567.818	3686.51
568.016	3719.28
568.215	3631.22
568.414	3602.55
568.612	3491.96
568.811	3446.9
569.01	3287.16
569.208	3270.78
569.407	3289.21
569.605	3227.77
569.804	3108.99
570.002	3096.7
570.201	2963.58
570.4	2969.73
570.598	3016.83
570.797	2932.86
570.995	2957.44
571.193	2826.37
571.392	2803.84
571.59	2631.81
571.789	2721.92
571.987	2680.96
572.186	2594.95
572.384	2607.23
572.582	2474.12
572.781	2652.29
572.979	2326.66
573.177	2463.88
573.376	2287.75
573.574	2451.59
573.772	2328.71
573.971	2316.42
574.169	2263.18
574.367	2396.29
574.565	2240.65
574.763	2181.26
574.962	2171.02
575.16	2128.01
575.358	1982.6
575.556	2042
575.754	2181.26
575.952	2003.08
576.151	1910.93
576.349	1982.6
576.547	1892.49
576.745	1810.58
576.943	1874.06
577.141	1824.91
577.339	1671.31
577.537	1765.52
577.735	1826.96
577.933	1695.89
578.131	1624.21
578.329	1716.37
578.527	1603.73
578.725	1644.69
578.923	1478.8
579.121	1593.49
579.319	1427.6
579.516	1552.53
579.714	1607.83
579.912	1542.29
580.11	1269.91
580.308	1446.04
580.506	1306.77
580.704	1255.58
580.901	1282.2
581.099	1396.89
581.297	1280.15
581.495	1360.02
581.692	1341.59
581.89	1417.37
582.088	1138.84
582.285	1259.67
582.483	1212.57
582.681	1183.9
582.878	1192.09
583.076	1147.03
583.274	1245.34
583.471	1161.37
583.669	1095.83
583.866	995.48
584.064	1015.96
584.262	993.44
584.459	938.14
584.657	958.62
584.854	1118.36
585.052	1038.49
585.249	1079.45
585.447	1030.3
585.644	866.46
585.841	1048.73
586.039	964.76
586.236	925.85
586.434	798.88
586.631	831.65
586.828	946.33
587.026	956.57
587.223	774.3
587.42	829.6
587.618	852.13
587.815	868.51
588.012	925.85
588.21	762.02
588.407	829.6
588.604	882.85
588.801	696.48
588.999	813.21
589.196	827.55
589.393	780.45
589.59	825.5
589.787	766.11
589.984	782.49
590.182	802.97
590.379	727.2
590.576	645.28
590.773	739.49
590.97	690.34
591.167	774.3
591.364	796.83
591.561	735.39
591.758	796.83
591.955	759.97
592.152	723.1
592.349	690.34
592.546	719.01
592.743	604.32
592.94	653.47
593.137	694.43
593.334	802.97
593.531	792.73
593.727	706.72
593.924	721.06
594.121	733.34
594.318	669.86
594.515	759.97
594.712	848.03
594.908	893.09
595.105	673.95
595.302	837.79
595.499	745.63
595.696	837.79
595.892	747.68
596.089	934.04
596.286	708.77
596.482	940.19
596.679	1022.11
596.876	886.94
597.072	1005.72
597.269	878.75
597.466	876.7
597.662	960.67
597.859	979.1
598.055	1042.59
598.252	1040.54
598.448	1204.38
598.645	1163.42
598.841	1228.95
599.038	1216.66
599.234	1376.41
599.431	1362.07
599.627	1394.84
599.824	1349.78
600.02	1466.52
600.217	1427.6
600.413	1532.05
600.609	1636.5
600.806	1853.58
601.002	1736.85
601.198	1722.51
601.395	2015.37
601.591	2044.04
601.787	2074.76
601.984	2138.25
602.18	2158.73
602.376	2156.68
602.572	2363.53
602.769	2437.25
602.965	2459.78
603.161	2568.32
603.357	2703.49
603.553	2910.33
603.75	2885.76
603.946	2945.15
604.142	3139.71
604.338	3270.78
604.534	3201.15
604.73	3344.5
604.926	3383.42
605.122	3539.06
605.318	3592.31
605.514	3754.1
605.71	3782.77
605.906	3965.04
606.102	3965.04
606.298	4296.81
606.494	4296.81
606.69	4501.61
606.886	4563.05
607.082	4513.89
607.278	4765.79
607.474	4972.64
607.67	5218.4
607.866	5070.94
608.062	5392.47
608.257	5574.74
608.453	5613.65
608.649	6068.3
608.845	5945.42
609.041	6058.06
609.236	6361.16
609.432	6436.94
609.628	6799.43
609.824	6862.91
610.019	6725.7
610.215	7211.07
610.411	7614.52
610.606	7690.29
610.802	7669.81
610.998	7974.96
611.193	8112.17
611.389	8439.85
611.584	8718.37
611.78	8753.19
611.976	8996.9
612.171	9326.62
612.367	9498.65
612.562	9766.93
612.758	10024.98
612.953	10260.49
613.149	10668.04
613.344	10704.9
613.539	11177.98
613.735	11429.88
613.93	11563
614.126	11866.1
614.321	12328.94
614.517	12840.93
614.712	12939.24
614.907	13332.45
615.103	13506.52
615.298	13809.62
615.493	14225.36
615.688	14532.56
615.884	14954.44
616.079	15075.27
616.274	15912.89
616.47	16060.34
616.665	16381.87
616.86	16973.74
617.055	17280.93
617.25	17371.04
617.445	18259.86
617.641	18585.49
617.836	19068.81
618.031	18917.26
618.226	20342.64
618.421	20236.15
618.616	20967.27
618.811	21145.45
619.006	21808.99
619.201	22224.73
619.396	22918.99
619.591	23093.07
619.786	23813.95
619.981	23996.22
620.176	24819.5
620.371	25126.7
620.566	25706.27
620.761	26439.45
620.956	27189
621.151	26992.4
621.346	28096.25
621.541	28124.93
621.735	29271.79
621.93	29150.96
622.125	30078.69
622.32	30252.77
622.515	31219.41
622.709	31149.78
622.904	32036.55
623.099	32630.46
623.294	33502.89
623.488	33679.02
623.683	34557.6
623.878	34498.2
624.072	35362.45
624.267	36155.01
624.462	36394.62
624.656	36789.88
624.851	37703.28
625.046	37828.2
625.24	38514.27
625.435	38868.57
625.629	39433.81
625.824	40224.32
626.018	40472.13
626.213	40658.49
626.407	41543.22
626.602	41340.47
626.796	41772.59
626.991	42546.72
627.185	42751.52
627.38	42845.72
627.574	42927.64
627.768	43247.13
627.963	43433.49
628.157	43615.76
628.352	43986.44
628.546	43343.38
628.74	43998.73
628.935	43738.64
629.129	43730.45
629.323	43197.98
629.517	42747.42
629.712	42532.39
629.906	42389.03
630.1	41535.02
630.294	41801.26
630.489	41213.49
630.683	40494.66
630.877	39568.97
631.071	38829.66
631.265	38471.26
631.459	37631.6
631.653	36638.33
631.848	35819.14
632.042	34924.18
632.236	34377.37
632.43	33316.53
632.624	32546.49
632.818	31239.89
633.012	30566.1
633.206	29198.06
633.4	28894.96
633.594	27516.68
633.788	26621.72
633.982	25851.68
634.176	25024.3
634.369	23859.01
634.563	22781.78
634.757	21958.49
634.951	21268.33
635.145	20643.7
635.339	19916.67
635.533	18831.24
635.726	18161.56
635.92	17362.85
636.114	16730.03
636.308	15738.81
636.501	15095.75
636.695	14661.58
636.889	13981.65
637.083	13527
637.276	13019.11
637.47	12271.6
637.664	11833.33
637.857	11347.97
638.051	10934.28
638.244	10551.31
638.438	9951.25
638.632	9674.78
638.825	9340.96
639.019	8994.85
639.212	8433.71
639.406	8398.89
639.599	8095.79
639.793	7649.33
639.986	7192.64
640.18	7241.79
640.373	6721.6
640.567	6418.5
640.76	6215.76
640.954	6125.65
641.147	5732.44
641.34	5529.69
641.534	5419.1
641.727	5193.82
641.92	5210.2
642.114	4966.49
642.307	4546.66
642.5	4548.71
642.694	4253.8
642.887	4198.51
643.08	4008.05
643.273	3840.11
643.467	3680.37
643.66	3491.96
643.853	3373.18
644.046	3319.93
644.239	3125.37
644.432	2963.58
644.626	2832.51
644.819	2848.9
645.012	2658.43
645.205	2732.16
645.398	2619.52
645.591	2443.4
645.784	2189.45
645.977	2244.74
646.17	2185.35
646.363	2123.91
646.556	1927.31
646.749	1773.71
646.942	1853.58
647.135	1835.15
647.328	1663.12
647.521	1607.83
647.714	1659.03
647.907	1534.1
648.099	1360.02
648.292	1525.91
648.485	1429.65
648.678	1292.44
648.871	1183.9
649.064	1214.62
649.256	1097.88
649.449	1083.55
649.642	1046.68
649.835	1054.87
650.027	925.85
650.22	1034.39
650.413	944.28
650.605	956.57
650.798	901.28
650.991	798.88
651.183	815.26
651.376	805.02
651.568	833.69
651.761	637.09
651.954	716.96
652.146	716.96
652.339	762.02
652.531	737.44
652.724	653.47
652.916	598.18
653.109	571.55
653.301	630.95
653.494	700.58
653.686	622.75
653.879	653.47
654.071	651.42
654.263	473.25
654.456	460.96
654.648	581.79
654.84	487.59
655.033	460.96
655.225	524.45
655.417	389.28
655.61	589.99
655.802	569.51
655.994	542.88
656.186	305.32
656.379	483.49
656.571	258.21
656.763	286.89
656.955	342.18
657.148	354.47
657.34	389.28
657.532	317.61
657.724	350.37
657.916	389.28
658.108	440.48
658.3	329.89
658.492	370.85
658.684	233.64
658.876	340.13
659.068	270.5
659.26	219.3
659.452	278.69
659.644	305.32
659.836	397.48
660.028	356.52
660.22	237.74
660.412	200.87
660.604	254.12
660.796	237.74
660.988	333.99
661.18	299.17
661.372	307.37
661.563	272.55
661.755	274.6
661.947	137.38
662.139	178.34
662.331	254.12
662.522	192.68
662.714	80.04
662.906	143.53
663.097	342.18
663.289	118.95
663.481	104.62
663.673	266.41
663.864	198.82
664.056	243.88
664.247	157.86
664.439	254.12
664.631	182.44
664.822	331.94
665.014	233.64
665.205	100.52
665.397	108.71
665.588	184.49
665.78	133.29
665.971	207.02
666.163	155.82
666.354	211.11
666.546	127.14
666.737	129.19
666.929	153.77
667.12	73.9
667.311	180.39
667.503	161.96
667.694	200.87
667.885	211.11
668.077	151.72
668.268	39.08
668.459	147.62
668.651	184.49
668.842	209.06
669.033	47.27
669.224	43.18
669.416	348.33
669.607	153.77
669.798	114.86
669.989	284.84
670.18	118.95
670.371	125.1
670.563	139.43
670.754	225.45
670.945	168.1
671.136	188.58
671.327	32.94
671.518	319.65
671.709	307.37
671.9	198.82
672.091	250.02
672.282	172.2
672.473	131.24
672.664	102.57
672.855	92.33
673.046	211.11
673.237	194.73
673.428	137.38
673.619	217.26
673.809	92.33
674	243.88
674.191	196.78
674.382	133.29
674.573	229.54
674.764	133.29
674.954	227.5
675.145	94.38
675.336	219.3
675.527	157.86
675.717	73.9
675.908	114.86
676.099	151.72
676.289	133.29
676.48	30.89
676.671	188.58
676.861	80.04
677.052	110.76
677.243	100.52
677.433	88.23
677.624	168.1
677.814	159.91
678.005	92.33
678.195	301.22
678.386	147.62
678.576	202.92
678.767	-16.21
678.957	102.57
679.148	235.69
679.338	317.61
679.529	131.24
679.719	190.63
679.909	207.02
680.1	301.22
680.29	215.21
680.481	55.47
680.671	215.21
680.861	223.4
681.052	168.1
681.242	116.9
681.432	211.11
681.622	209.06
681.813	127.14
682.003	170.15
682.193	137.38
682.383	254.12
682.573	164.01
682.764	100.52
682.954	207.02
683.144	211.11
683.334	254.12
683.524	239.78
683.714	256.17
683.904	176.3
684.094	168.1
684.284	131.24
684.474	264.36
684.664	288.93
684.854	229.54
685.044	192.68
685.234	219.3
685.424	200.87
685.614	121
685.804	327.85
685.994	174.25
686.184	153.77
686.374	213.16
686.564	231.59
686.753	290.98
686.943	129.19
687.133	211.11
687.323	196.78
687.513	237.74
687.702	182.44
687.892	198.82
688.082	147.62
688.272	264.36
688.461	250.02
688.651	333.99
688.841	225.45
689.03	153.77
689.22	174.25
689.41	245.93
689.599	280.74
689.789	139.43
689.979	383.14
690.168	137.38
690.358	243.88
690.547	155.82
690.737	258.21
690.926	200.87
691.116	262.31
691.305	293.03
691.495	182.44
691.684	116.9
691.874	209.06
692.063	215.21
692.252	274.6
692.442	270.5
692.631	149.67
692.82	159.91
693.01	200.87
693.199	151.72
693.388	159.91
693.578	149.67
693.767	276.65
693.956	225.45
694.146	114.86
694.335	239.78
694.524	39.08
694.713	190.63
694.902	176.3
695.092	49.32
695.281	239.78
695.47	252.07
695.659	153.77
695.848	198.82
696.037	182.44
696.226	186.54
696.415	215.21
696.604	319.65
696.793	264.36
696.982	194.73
697.171	315.56
697.36	186.54
697.549	190.63
697.738	106.67
697.927	155.82
698.116	114.86
698.305	266.41
698.494	221.35
698.683	192.68
698.872	354.47
699.061	172.2
699.25	153.77
699.438	176.3
699.627	243.88
699.816	358.57
700.005	32.94
700.193	137.38
700.382	270.5
700.571	196.78
700.76	243.88
700.948	213.16
701.137	215.21
701.326	297.13
701.514	135.34
701.703	202.92
701.892	221.35
702.08	391.33
702.269	276.65
702.457	233.64
702.646	209.06
702.834	196.78
703.023	258.21
703.212	297.13
703.4	190.63
703.589	151.72
703.777	172.2
703.965	86.19
704.154	155.82
704.342	114.86
704.531	110.76
704.719	88.23
704.907	276.65
705.096	129.19
705.284	149.67
705.472	170.15
705.661	213.16
705.849	329.89
706.037	233.64
706.226	266.41
706.414	219.3
706.602	125.1
706.79	241.83
706.979	127.14
707.167	229.54
707.355	75.95
707.543	151.72
707.731	227.5
707.919	141.48
708.107	174.25
708.296	145.58
708.484	108.71
708.672	180.39
708.86	188.58
709.048	104.62
709.236	114.86
709.424	282.79
709.612	254.12
709.8	77.99
709.988	166.06
710.176	217.26
710.364	284.84
710.551	209.06
710.739	166.06
710.927	161.96
711.115	157.86
711.303	229.54
711.491	256.17
711.679	125.1
711.866	241.83
712.054	247.97
712.242	245.93
712.43	250.02
712.617	104.62
712.805	204.97
712.993	225.45
713.181	147.62
713.368	217.26
713.556	180.39
713.744	90.28
713.931	397.48
714.119	235.69
714.306	153.77
714.494	118.95
714.682	237.74
714.869	45.23
715.057	164.01
715.244	141.48
715.432	225.45
715.619	71.85
715.807	155.82
715.994	245.93
716.182	237.74
716.369	243.88
716.556	284.84
716.744	116.9
716.931	164.01
717.119	229.54
717.306	223.4
717.493	141.48
717.681	215.21
717.868	198.82
718.055	227.5
718.242	180.39
718.43	231.59
718.617	245.93
718.804	182.44
718.991	233.64
719.179	284.84
719.366	280.74
719.553	159.91
719.74	164.01
719.927	200.87
720.114	258.21
720.301	112.81
720.488	127.14
720.676	137.38
720.863	268.45
721.05	307.37
721.237	223.4
721.424	352.42
721.611	252.07
721.798	200.87
721.985	192.68
722.172	110.76
722.358	168.1
722.545	325.8
722.732	151.72
722.919	243.88
723.106	229.54
723.293	241.83
723.48	260.26
723.667	198.82
723.853	315.56
724.04	262.31
724.227	295.08
724.414	147.62
724.6	211.11
724.787	293.03
724.974	336.04
725.161	280.74
725.347	147.62
725.534	299.17
725.72	282.79
725.907	262.31
726.094	284.84
726.28	172.2
726.467	176.3
726.653	178.34
726.84	364.71
727.027	415.91
727.213	166.06
727.4	237.74
727.586	276.65
727.773	166.06
727.959	217.26
728.145	225.45
728.332	247.97
728.518	145.58
728.705	247.97
728.891	342.18
729.077	268.45
729.264	129.19
729.45	180.39
729.636	282.79
729.823	247.97
730.009	377
730.195	233.64
730.382	250.02
730.568	231.59
730.754	217.26
730.94	178.34
731.126	194.73
731.313	221.35
731.499	159.91
731.685	290.98
731.871	256.17
732.057	174.25
732.243	254.12
732.429	276.65
732.615	284.84
732.801	256.17
732.987	258.21
733.173	164.01
733.359	217.26
733.545	280.74
733.731	229.54
733.917	342.18
734.103	303.27
734.289	256.17
734.475	219.3
734.661	364.71
734.847	270.5
735.033	293.03
735.219	282.79
735.404	280.74
735.59	151.72
735.776	239.78
735.962	227.5
736.148	252.07
736.333	344.23
736.519	247.97
736.705	264.36
736.89	278.69
737.076	250.02
737.262	159.91
737.447	258.21
737.633	190.63
737.819	272.55
738.004	243.88
738.19	247.97
738.375	233.64
738.561	321.7
738.747	381.09
738.932	280.74
739.118	428.2
739.303	219.3
739.489	346.28
739.674	174.25
739.859	250.02
740.045	256.17
740.23	336.04
740.416	45.23
740.601	247.97
740.786	241.83
740.972	190.63
741.157	196.78
741.342	127.14
741.528	209.06
741.713	389.28
741.898	211.11
742.084	260.26
742.269	270.5
742.454	274.6
742.639	290.98
742.824	221.35
743.01	301.22
743.195	293.03
743.38	235.69
743.565	188.58
743.75	297.13
743.935	235.69
744.12	288.93
744.305	143.53
744.49	258.21
744.675	198.82
744.86	274.6
745.045	266.41
745.23	200.87
745.415	268.45
745.6	221.35
745.785	239.78
745.97	295.08
746.155	245.93
746.34	356.52
746.525	209.06
746.71	282.79
746.895	213.16
747.079	61.61
747.264	178.34
747.449	268.45
747.634	331.94
747.819	241.83
748.003	168.1
748.188	118.95
748.373	278.69
748.557	221.35
748.742	192.68
748.927	254.12
749.111	190.63
749.296	166.06
749.481	301.22
749.665	215.21
749.85	221.35
750.034	243.88
750.219	110.76
750.404	137.38
750.588	245.93
750.773	147.62
750.957	233.64
751.141	131.24
751.326	272.55
751.51	47.27
751.695	161.96
751.879	194.73
752.064	272.55
752.248	172.2
752.432	352.42
752.617	245.93
752.801	207.02
752.985	164.01
753.17	245.93
753.354	211.11
753.538	213.16
753.722	157.86
753.907	172.2
754.091	141.48
754.275	229.54
754.459	55.47
754.643	137.38
754.828	256.17
755.012	227.5
755.196	139.43
755.38	157.86
755.564	121
755.748	180.39
755.932	182.44
756.116	180.39
756.3	149.67
756.484	71.85
756.668	231.59
756.852	57.51
757.036	157.86
757.22	133.29
757.404	67.75
757.588	90.28
757.772	250.02
757.956	166.06
758.14	254.12
758.323	116.9
758.507	192.68
758.691	80.04
758.875	190.63
759.059	202.92
759.242	159.91
759.426	192.68
759.61	211.11
759.794	118.95
759.977	164.01
760.161	360.61
760.345	217.26
760.528	223.4
760.712	114.86
760.895	188.58
761.079	55.47
761.263	49.32
761.446	112.81
761.63	196.78
761.813	276.65
761.997	47.27
762.18	129.19
762.364	118.95
762.547	12.46
762.731	164.01
762.914	127.14
763.098	67.75
763.281	92.33
763.464	143.53
763.648	168.1
763.831	86.19
764.015	84.14
764.198	151.72
764.381	55.47
764.564	94.38
764.748	129.19
764.931	153.77
765.114	30.89
765.297	176.3
765.481	20.65
765.664	41.13
765.847	41.13
766.03	198.82
766.213	121
766.397	151.72
766.58	-67.41
766.763	190.63
766.946	110.76
767.129	59.56
767.312	84.14
767.495	96.43
767.678	18.6
767.861	116.9
768.044	151.72
768.227	55.47
768.41	102.57
768.593	147.62
768.776	166.06
768.959	26.79
769.142	250.02
769.324	155.82
769.507	86.19
769.69	67.75
769.873	98.47
770.056	223.4
770.239	194.73
770.421	112.81
770.604	102.57
770.787	110.76
770.97	116.9
771.152	61.61
771.335	235.69
771.518	43.18
771.7	170.15
771.883	239.78
772.066	45.23
772.248	118.95
772.431	157.86
772.613	63.66
772.796	108.71
772.978	182.44
773.161	223.4
773.343	32.94
773.526	88.23
773.708	-40.79
773.891	-36.69
774.073	80.04
774.256	57.51
774.438	190.63
774.621	47.27
774.803	94.38
774.985	53.42
775.168	161.96
775.35	96.43
775.532	143.53
775.715	39.08
775.897	176.3
776.079	82.09
776.261	92.33
776.444	41.13
776.626	86.19
776.808	47.27
776.99	45.23
777.173	59.56
777.355	114.86
777.537	131.24
777.719	80.04
777.901	32.94
778.083	77.99
778.265	49.32
778.447	131.24
778.629	32.94
778.811	84.14
778.993	77.99
779.175	121
779.357	100.52
779.539	55.47
779.721	98.47
779.903	118.95
780.085	24.75
780.267	121
780.449	118.95
780.631	92.33
780.812	172.2
780.994	114.86
781.176	92.33
781.358	73.9
781.54	61.61
781.721	233.64
781.903	100.52
782.085	41.13
782.267	69.8
782.448	26.79
782.63	47.27
782.812	100.52
782.993	49.32
783.175	51.37
783.357	67.75
783.538	55.47
783.72	16.55
783.901	104.62
784.083	102.57
784.264	143.53
784.446	61.61
784.627	-1.88
784.809	121
784.99	75.95
785.172	118.95
785.353	37.03
785.535	28.84
785.716	16.55
785.897	-26.45
786.079	41.13
786.26	61.61
786.441	86.19
786.623	-16.21
786.804	16.55
786.985	43.18
787.167	102.57
787.348	16.55
787.529	53.42
787.71	159.91
787.891	45.23
788.073	-1.88
788.254	-34.64
788.435	194.73
788.616	55.47
788.797	37.03
788.978	-8.02
789.159	10.41
789.34	84.14
789.522	-14.17
789.703	57.51
789.884	80.04
790.065	86.19
790.246	215.21
790.427	28.84
790.607	98.47
790.788	196.78
790.969	-26.45
791.15	41.13
791.331	32.94
791.512	4.27
791.693	-51.03
791.874	-1.88
792.054	131.24
792.235	98.47
792.416	-94.04
792.597	-87.89
792.778	176.3
792.958	98.47
793.139	41.13
793.32	49.32
793.5	-44.88
793.681	80.04
793.862	118.95
794.042	-28.5
794.223	-26.45
794.404	61.61
794.584	-65.36
794.765	41.13
794.945	2.22
795.126	53.42
795.306	96.43
795.487	94.38
795.667	-38.74
795.848	114.86
796.028	49.32
796.209	69.8
796.389	135.34
796.57	51.37
796.75	-32.6
796.93	43.18
797.111	-10.07
797.291	16.55
797.471	127.14
797.652	8.36
797.832	6.31
798.012	75.95
798.192	51.37
798.373	-83.8
798.553	20.65
798.733	174.25
798.913	55.47
799.093	20.65
799.274	49.32
799.454	114.86
799.634	96.43
799.814	67.75
799.994	164.01
800.174	-10.07
800.354	-48.98
800.534	-79.7
800.714	82.09
800.894	-26.45
801.074	45.23
801.254	-46.93
801.434	121
801.614	32.94
801.794	-36.69
801.974	2003.08
802.154	-34.64
802.334	110.76
802.514	-16.21
802.693	80.04
802.873	59.56
803.053	139.43
803.233	0.17
803.413	-61.27
803.592	-42.84
803.772	10.41
803.952	28.84
804.131	-46.93
804.311	86.19
804.491	100.52
804.67	-5.97
804.85	-32.6
805.03	82.09
805.209	20.65
805.389	-16.21
805.568	32.94
805.748	32.94
805.928	12.46
806.107	75.95
806.287	77.99
806.466	45.23
806.646	53.42
806.825	73.9
807.004	73.9
807.184	65.71
807.363	86.19
807.543	59.56
807.722	8.36
807.901	116.9
808.081	57.51
808.26	-130.9
808.439	10.41
808.619	82.09
808.798	-61.27
808.977	45.23
809.156	159.91
809.336	53.42
809.515	100.52
809.694	-18.26
809.873	24.75
810.052	98.47
810.231	127.14
810.411	90.28
810.59	88.23
810.769	77.99
810.948	92.33
811.127	-102.23
811.306	12.46
811.485	-61.27
811.664	153.77
811.843	73.9
812.022	84.14
812.201	41.13
812.38	49.32
812.559	34.99
812.737	51.37
812.916	-79.7
813.095	6.31
813.274	49.32
813.453	28.84
813.632	47.27
813.811	125.1
813.989	18.6
814.168	28.84
814.347	-28.5
814.526	49.32
814.704	127.14
814.883	92.33
815.062	-8.02
815.24	100.52
815.419	8.36
815.598	24.75
815.776	-61.27
815.955	-1.88
816.133	-85.84
816.312	18.6
816.49	-44.88
816.669	59.56
816.847	8.36
817.026	28.84
817.204	-14.17
817.383	26.79
817.561	-59.22
817.74	10.41
817.918	51.37
818.097	-3.93
818.275	-5.97
818.453	55.47
818.632	86.19
818.81	-3.93
818.988	-8.02
819.167	-81.75
819.345	92.33
819.523	14.51
819.701	75.95
819.879	41.13
820.058	41.13
820.236	90.28
820.414	55.47
820.592	-24.4
820.77	8.36
820.948	-38.74
821.127	32.94
821.305	-61.27
821.483	-106.32
821.661	104.62
821.839	24.75
822.017	-40.79
822.195	-20.31
822.373	53.42
822.551	8.36
822.729	127.14
822.907	32.94
823.085	43.18
823.262	37.03
823.44	32.94
823.618	24.75
823.796	12.46
823.974	-40.79
824.152	32.94
824.329	20.65
824.507	16.55
824.685	100.52
824.863	-5.97
825.04	47.27
825.218	28.84
825.396	51.37
825.574	69.8
825.751	6.31
825.929	98.47
826.107	-85.84
826.284	4.27
826.462	121
826.639	10.41
826.817	14.51
826.994	24.75
827.172	-61.27
827.349	151.72
827.527	57.51
827.704	8.36
827.882	137.38
828.059	-22.36
828.237	-44.88
828.414	37.03
828.591	-51.03
828.769	20.65
828.946	-55.12
829.124	112.81
829.301	157.86
829.478	26.79
829.655	67.75
829.833	65.71
830.01	-85.84
830.187	55.47
830.364	55.47
830.542	22.7
830.719	73.9
830.896	63.66
831.073	102.57
831.25	6.31
831.427	49.32
831.604	8.36
831.782	-48.98
831.959	159.91
832.136	24.75
832.313	39.08
832.49	-10.07
832.667	86.19
832.844	-40.79
833.021	84.14
833.198	14.51
833.374	30.89
833.551	8.36
833.728	53.42
833.905	61.61
834.082	-91.99
834.259	125.1
834.436	176.3
834.612	-30.55
834.789	88.23
834.966	53.42
835.143	116.9
835.319	-28.5
835.496	-63.32
835.673	94.38
835.85	86.19
836.026	80.04
836.203	94.38
836.38	-42.84
836.556	63.66
836.733	-102.23
836.909	69.8
837.086	20.65
837.262	-3.93
837.439	14.51
837.616	-100.18
837.792	86.19
837.968	53.42
838.145	-61.27
838.321	2.22
838.498	51.37
838.674	12.46
838.851	-26.45
839.027	14.51
839.203	53.42
839.38	125.1
839.556	-18.26
839.732	108.71
839.909	-12.12
840.085	73.9
840.261	-59.22
840.437	-12.12
840.614	-22.36
840.79	39.08
840.966	108.71
841.142	-10.07
841.318	-42.84
841.494	26.79
841.671	106.67
841.847	-26.45
842.023	-120.66
842.199	61.61
842.375	108.71
842.551	-71.51
842.727	-22.36
842.903	102.57
843.079	-83.8
843.255	114.86
843.431	14.51
843.607	16.55
843.783	-79.7
843.959	108.71
844.134	-69.46
844.31	123.05
844.486	-5.97
844.662	-5.97
844.838	-14.17
845.013	98.47
845.189	80.04
845.365	-40.79
845.541	-16.21
845.716	14.51
845.892	75.95
846.068	32.94
846.244	-42.84
846.419	43.18
846.595	-51.03
846.77	-53.08
846.946	63.66
847.122	51.37
847.297	14.51
847.473	114.86
847.648	-85.84
847.824	39.08
847.999	-153.43
848.175	41.13
848.35	-22.36
848.526	92.33
848.701	96.43
848.876	75.95
849.052	133.29
849.227	10.41
849.403	12.46
849.578	51.37
849.753	-12.12
849.929	34.99
850.104	-24.4
850.279	20.65
850.454	-8.02
850.63	-14.17
850.805	28.84
850.98	69.8
851.155	12.46
851.33	34.99
851.505	18.6
851.681	69.8
851.856	-48.98
852.031	0.17
852.206	49.32
852.381	-55.12
852.556	75.95
852.731	-1.88
852.906	94.38
853.081	2.22
853.256	94.38
853.431	8.36
853.606	96.43
853.781	32.94
853.956	-141.14
854.131	45.23
854.305	-48.98
854.48	-12.12
854.655	-46.93
854.83	-51.03
855.005	-14.17
855.18	-20.31
855.354	-63.32
855.529	8.36
855.704	18.6
855.879	18.6
856.053	-36.69
856.228	53.42
856.403	-71.51
856.577	-3.93
856.752	-57.17
856.926	49.32
857.101	77.99
857.276	-53.08
857.45	-24.4
857.625	92.33
857.799	20.65
857.974	12.46
858.148	-102.23
858.323	104.62
858.497	2.22
858.672	-32.6
858.846	-20.31
859.02	71.85
859.195	45.23
859.369	-36.69
859.543	-8.02
859.718	28.84
859.892	-38.74
860.066	92.33
860.241	4.27
860.415	-5.97
860.589	-48.98
860.763	4.27
860.938	-8.02
861.112	20.65
861.286	-46.93
861.46	20.65
861.634	20.65
861.808	90.28
861.982	-73.56
862.157	-51.03
862.331	20.65
862.505	-44.88
862.679	-44.88
862.853	-67.41
863.027	-8.02
863.201	114.86
863.375	18.6
863.549	114.86
863.722	125.1
863.896	141.48
864.07	-48.98
864.244	-8.02
864.418	51.37
864.592	-55.12
864.766	4.27
864.939	-30.55
865.113	-67.41
865.287	114.86
865.461	-42.84
865.634	22.7
865.808	30.89
865.982	4.27
866.156	-75.6
866.329	-61.27
866.503	34.99
866.676	39.08
866.85	12.46
867.024	-3.93
867.197	118.95
867.371	61.61
867.544	75.95
867.718	-1.88
867.891	112.81
868.065	-77.65
868.238	24.75
868.412	106.67
868.585	8.36
868.759	24.75
868.932	-40.79
869.105	-32.6
869.279	12.46
869.452	-67.41
869.625	88.23
869.799	49.32
869.972	-48.98
870.145	14.51
870.319	114.86
870.492	18.6
870.665	28.84
870.838	-1.88
871.011	-186.19
871.185	6.31
871.358	-28.5
871.531	14.51
871.704	-32.6
871.877	14.51
872.05	28.84
872.223	-32.6
872.396	118.95
872.569	118.95
872.742	-135
872.915	4.27
873.088	-16.21
873.261	-5.97
873.434	26.79
873.607	2.22
873.78	80.04
873.953	-46.93
874.126	-53.08
874.299	-20.31
874.471	51.37
874.644	-3.93
874.817	65.71
874.99	159.91
875.163	2.22
875.335	10.41
875.508	65.71
875.681	61.61
875.853	24.75
876.026	-44.88
876.199	8.36
876.371	32.94
876.544	94.38
876.717	37.03
876.889	53.42
877.062	26.79
877.234	-53.08
877.407	-26.45
877.579	34.99
877.752	-12.12
877.924	84.14
878.097	73.9
878.269	24.75
878.442	37.03
878.614	24.75
878.786	51.37
878.959	80.04
879.131	69.8
879.303	-53.08
879.476	-75.6
879.648	86.19
879.82	43.18
879.993	0.17
880.165	-34.64
880.337	-94.04
880.509	75.95
880.681	-32.6
880.854	-67.41
881.026	37.03
881.198	118.95
881.37	-5.97
881.542	2.22
881.714	-24.4
881.886	-14.17
882.058	-12.12
882.23	14.51
882.402	14.51
882.574	20.65
882.746	41.13
882.918	65.71
883.09	55.47
883.262	2.22
883.434	20.65
883.606	-165.71
883.778	-89.94
883.95	172.2
884.122	-44.88
884.293	86.19
884.465	-85.84
884.637	63.66
884.809	-28.5
884.98	28.84
885.152	73.9
885.324	30.89
885.496	-22.36
885.667	10.41
885.839	14.51
886.011	123.05
886.182	86.19
886.354	131.24
886.525	45.23
886.697	14.51
886.869	-75.6
887.04	37.03
887.212	161.96
887.383	198.82
887.555	8.36
887.726	-36.69
887.897	20.65
888.069	43.18
888.24	47.27
888.412	2.22
888.583	61.61
888.754	2.22
888.926	-100.18
889.097	-24.4
889.268	-110.42
889.44	8.36
889.611	-106.32
889.782	-63.32
889.953	-53.08
890.125	114.86
890.296	-44.88
890.467	2.22
890.638	-16.21
890.809	53.42
890.98	-48.98
891.151	24.75
891.323	133.29
891.494	-14.17
891.665	75.95
891.836	51.37
892.007	-40.79
892.178	49.32
892.349	45.23
892.52	-5.97
892.691	65.71
892.862	16.55
893.032	-61.27
893.203	-28.5
893.374	45.23
893.545	98.47
893.716	30.89
893.887	141.48
894.057	-38.74
894.228	-38.74
894.399	-55.12
894.57	110.76
894.74	-26.45
894.911	18.6
895.082	-22.36
895.253	-83.8
895.423	-1.88
895.594	94.38
895.764	0.17
895.935	-85.84
896.106	86.19
896.276	-14.17
896.447	39.08
896.617	-63.32
896.788	-32.6
896.958	-16.21
897.129	-32.6
897.299	-34.64
897.47	139.43
897.64	51.37
897.81	73.9
897.981	86.19
898.151	-104.28
898.322	47.27
898.492	139.43
898.662	-32.6
898.832	43.18
899.003	-57.17
899.173	108.71
899.343	24.75
899.513	-65.36
