Data from USB4F104151__193__11-05-23-432.txt Node

Date: Wed Feb 26 11:05:23 EST 2025
User: louis
Spectrometer: USB4F10415
Trigger mode: 4
Integration Time (sec): 1.000000E-1
Scans to average: 1
Electric dark correction enabled: true
Nonlinearity correction enabled: false
Boxcar width: 0
XAxis mode: Wavelengths
Number of Pixels in Spectrum: 3648
>>>>>Begin Spectral Data<<<<<
178.204	-410.28
178.424	-410.28
178.644	-410.28
178.864	-426.66
179.084	-406.18
179.304	-64.17
179.524	5.46
179.744	9.56
179.964	79.19
180.184	-21.16
180.404	13.65
180.624	-12.97
180.844	9.56
181.064	-86.7
181.283	77.14
181.503	-17.07
181.723	7.51
181.943	11.61
182.163	144.72
182.383	-37.55
182.602	103.76
182.822	126.29
183.042	101.72
183.262	11.61
183.482	-10.92
183.701	15.7
183.921	-25.26
184.141	-17.07
184.361	50.52
184.58	120.15
184.8	23.89
185.02	11.61
185.239	95.57
185.459	91.48
185.679	124.24
185.898	-51.88
186.118	56.66
186.338	83.28
186.557	157.01
186.777	19.8
186.997	32.08
187.216	105.81
187.436	251.22
187.655	130.39
187.875	52.56
188.095	32.08
188.314	116.05
188.534	64.85
188.753	-10.92
188.973	105.81
189.192	200.02
189.412	52.56
189.631	111.96
189.851	83.28
190.07	157.01
190.29	17.75
190.509	-74.41
190.729	48.47
190.948	206.16
191.168	255.31
191.387	95.57
191.607	17.75
191.826	87.38
192.045	25.94
192.265	-33.45
192.484	52.56
192.704	134.48
192.923	3.41
193.142	189.78
193.362	126.29
193.581	116.05
193.8	68.95
194.02	83.28
194.239	19.8
194.458	128.34
194.678	7.51
194.897	-43.69
195.116	46.42
195.335	77.14
195.555	83.28
195.774	23.89
195.993	56.66
196.212	19.8
196.432	-4.78
196.651	-6.83
196.87	95.57
197.089	177.49
197.308	107.86
197.528	56.66
197.747	-17.07
197.966	40.28
198.185	107.86
198.404	-29.35
198.623	99.67
198.842	120.15
199.062	81.24
199.281	136.53
199.5	30.04
199.719	154.96
199.938	48.47
200.157	89.43
200.376	15.7
200.595	114
200.814	89.43
201.033	-21.16
201.252	142.68
201.471	62.8
201.69	150.87
201.909	77.14
202.128	148.82
202.347	3.41
202.566	58.71
202.785	-113.32
203.004	-8.87
203.223	195.92
203.442	40.28
203.661	-17.07
203.879	132.44
204.098	271.7
204.317	-80.55
204.536	87.38
204.755	34.13
204.974	154.96
205.193	-29.35
205.411	109.91
205.63	105.81
205.849	71
206.068	-31.4
206.287	-27.31
206.505	136.53
206.724	79.19
206.943	19.8
207.162	-43.69
207.381	32.08
207.599	111.96
207.818	21.85
208.037	-49.83
208.255	30.04
208.474	44.37
208.693	66.9
208.911	21.85
209.13	99.67
209.349	116.05
209.567	136.53
209.786	77.14
210.005	68.95
210.223	71
210.442	-60.07
210.661	34.13
210.879	-10.92
211.098	46.42
211.316	50.52
211.535	32.08
211.753	62.8
211.972	120.15
212.191	7.51
212.409	-8.87
212.628	120.15
212.846	-8.87
213.065	93.52
213.283	75.09
213.502	128.34
213.72	56.66
213.938	19.8
214.157	7.51
214.375	228.69
214.594	19.8
214.812	171.35
215.031	13.65
215.249	5.46
215.467	46.42
215.686	50.52
215.904	89.43
216.122	21.85
216.341	197.97
216.559	-8.87
216.778	185.68
216.996	138.58
217.214	36.18
217.432	34.13
217.651	-55.98
217.869	109.91
218.087	46.42
218.306	-35.5
218.524	-8.87
218.742	66.9
218.96	111.96
219.179	30.04
219.397	-47.79
219.615	163.15
219.833	118.1
220.051	25.94
220.27	134.48
220.488	165.2
220.706	52.56
220.924	54.61
221.142	-88.75
221.36	30.04
221.578	79.19
221.796	52.56
222.015	42.32
222.233	128.34
222.451	120.15
222.669	-8.87
222.887	91.48
223.105	34.13
223.323	95.57
223.541	-37.55
223.759	64.85
223.977	25.94
224.195	243.03
224.413	-35.5
224.631	73.04
224.849	179.54
225.067	261.46
225.285	101.72
225.503	60.76
225.721	-107.18
225.939	71
226.157	68.95
226.375	167.25
226.592	-88.75
226.81	79.19
227.028	195.92
227.246	189.78
227.464	122.2
227.682	71
227.9	30.04
228.117	56.66
228.335	17.75
228.553	9.56
228.771	62.8
228.989	130.39
229.206	142.68
229.424	27.99
229.642	54.61
229.86	7.51
230.077	165.2
230.295	62.8
230.513	111.96
230.731	81.24
230.948	167.25
231.166	216.4
231.384	9.56
231.601	-4.78
231.819	138.58
232.037	-12.97
232.254	-43.69
232.472	75.09
232.689	3.41
232.907	189.78
233.125	-6.83
233.342	-58.03
233.56	99.67
233.777	36.18
233.995	1.37
234.213	136.53
234.43	79.19
234.648	52.56
234.865	-70.31
235.083	116.05
235.3	87.38
235.518	161.11
235.735	175.44
235.953	75.09
236.17	9.56
236.388	21.85
236.605	-10.92
236.822	99.67
237.04	68.95
237.257	44.37
237.475	40.28
237.692	130.39
237.909	71
238.127	15.7
238.344	50.52
238.562	79.19
238.779	-29.35
238.996	-25.26
239.214	34.13
239.431	50.52
239.648	15.7
239.865	132.44
240.083	138.58
240.3	32.08
240.517	58.71
240.735	116.05
240.952	138.58
241.169	71
241.386	83.28
241.603	60.76
241.821	-51.88
242.038	146.77
242.255	146.77
242.472	-4.78
242.689	120.15
242.907	159.06
243.124	81.24
243.341	-15.02
243.558	58.71
243.775	-62.12
243.992	-2.73
244.209	62.8
244.426	232.79
244.643	77.14
244.86	40.28
245.078	87.38
245.295	34.13
245.512	54.61
245.729	34.13
245.946	68.95
246.163	21.85
246.38	-10.92
246.597	42.32
246.814	79.19
247.031	46.42
247.248	-8.87
247.464	150.87
247.681	81.24
247.898	111.96
248.115	120.15
248.332	-76.46
248.549	165.2
248.766	142.68
248.983	95.57
249.2	97.62
249.417	105.81
249.633	-12.97
249.85	23.89
250.067	38.23
250.284	32.08
250.501	99.67
250.717	120.15
250.934	-23.21
251.151	15.7
251.368	-15.02
251.585	15.7
251.801	77.14
252.018	-8.87
252.235	163.15
252.451	-27.31
252.668	54.61
252.885	64.85
253.102	136.53
253.318	25.94
253.535	75.09
253.752	44.37
253.968	-60.07
254.185	3.41
254.401	44.37
254.618	85.33
254.835	5.46
255.051	107.86
255.268	36.18
255.484	5.46
255.701	32.08
255.917	111.96
256.134	-58.03
256.351	79.19
256.567	-31.4
256.784	21.85
257	-74.41
257.217	91.48
257.433	79.19
257.65	116.05
257.866	148.82
258.082	-0.68
258.299	13.65
258.515	44.37
258.732	52.56
258.948	-8.87
259.165	89.43
259.381	-6.83
259.597	56.66
259.814	95.57
260.03	34.13
260.246	15.7
260.463	142.68
260.679	81.24
260.895	83.28
261.112	52.56
261.328	36.18
261.544	1.37
261.761	183.63
261.977	-47.79
262.193	95.57
262.409	216.4
262.626	27.99
262.842	15.7
263.058	3.41
263.274	152.91
263.49	40.28
263.707	64.85
263.923	73.04
264.139	-80.55
264.355	89.43
264.571	210.26
264.787	99.67
265.004	206.16
265.22	81.24
265.436	-25.26
265.652	17.75
265.868	40.28
266.084	-17.07
266.3	11.61
266.516	-0.68
266.732	114
266.948	64.85
267.164	19.8
267.38	122.2
267.596	107.86
267.812	144.72
268.028	62.8
268.244	75.09
268.46	83.28
268.676	-17.07
268.892	30.04
269.108	-29.35
269.324	75.09
269.54	79.19
269.756	87.38
269.972	27.99
270.188	46.42
270.403	36.18
270.619	38.23
270.835	77.14
271.051	7.51
271.267	73.04
271.483	48.47
271.698	173.39
271.914	60.76
272.13	60.76
272.346	-4.78
272.562	-2.73
272.777	89.43
272.993	30.04
273.209	64.85
273.425	34.13
273.64	-39.59
273.856	95.57
274.072	60.76
274.287	-70.31
274.503	89.43
274.719	36.18
274.934	-8.87
275.15	-41.64
275.366	64.85
275.581	-23.21
275.797	111.96
276.012	58.71
276.228	19.8
276.444	58.71
276.659	118.1
276.875	-41.64
277.09	23.89
277.306	34.13
277.521	30.04
277.737	15.7
277.952	122.2
278.168	79.19
278.383	77.14
278.599	93.52
278.814	62.8
279.03	54.61
279.245	132.44
279.461	36.18
279.676	95.57
279.892	-66.22
280.107	9.56
280.322	58.71
280.538	60.76
280.753	-27.31
280.969	75.09
281.184	40.28
281.399	130.39
281.615	9.56
281.83	120.15
282.045	-21.16
282.26	-2.73
282.476	64.85
282.691	85.33
282.906	25.94
283.122	-31.4
283.337	7.51
283.552	36.18
283.767	75.09
283.983	134.48
284.198	-51.88
284.413	97.62
284.628	-31.4
284.843	111.96
285.058	77.14
285.274	68.95
285.489	-10.92
285.704	97.62
285.919	42.32
286.134	-0.68
286.349	68.95
286.564	13.65
286.779	142.68
286.995	25.94
287.21	-45.74
287.425	89.43
287.64	-0.68
287.855	66.9
288.07	-72.36
288.285	93.52
288.5	154.96
288.715	83.28
288.93	73.04
289.145	-23.21
289.36	126.29
289.575	21.85
289.79	118.1
290.004	-15.02
290.219	116.05
290.434	13.65
290.649	3.41
290.864	42.32
291.079	-15.02
291.294	23.89
291.509	36.18
291.724	75.09
291.938	30.04
292.153	21.85
292.368	50.52
292.583	68.95
292.798	79.19
293.012	42.32
293.227	140.63
293.442	50.52
293.657	189.78
293.871	181.59
294.086	36.18
294.301	171.35
294.516	89.43
294.73	56.66
294.945	-70.31
295.16	5.46
295.374	154.96
295.589	54.61
295.804	42.32
296.018	89.43
296.233	169.3
296.447	116.05
296.662	-72.36
296.877	109.91
297.091	128.34
297.306	75.09
297.52	-17.07
297.735	40.28
297.949	17.75
298.164	77.14
298.378	142.68
298.593	40.28
298.807	-10.92
299.022	27.99
299.236	105.81
299.451	-2.73
299.665	-10.92
299.88	-0.68
300.094	101.72
300.309	97.62
300.523	64.85
300.737	32.08
300.952	116.05
301.166	116.05
301.381	58.71
301.595	7.51
301.809	120.15
302.024	52.56
302.238	5.46
302.452	161.11
302.667	-8.87
302.881	142.68
303.095	68.95
303.309	64.85
303.524	73.04
303.738	62.8
303.952	9.56
304.166	99.67
304.381	-156.33
304.595	152.91
304.809	-31.4
305.023	62.8
305.237	79.19
305.452	91.48
305.666	56.66
305.88	109.91
306.094	150.87
306.308	128.34
306.522	40.28
306.736	44.37
306.95	183.63
307.164	21.85
307.379	97.62
307.593	171.35
307.807	126.29
308.021	25.94
308.235	71
308.449	-141.99
308.663	93.52
308.877	269.65
309.091	68.95
309.305	79.19
309.519	-43.69
309.733	130.39
309.947	-76.46
310.161	128.34
310.374	183.63
310.588	134.48
310.802	-8.87
311.016	1.37
311.23	56.66
311.444	-25.26
311.658	52.56
311.872	111.96
312.085	120.15
312.299	173.39
312.513	152.91
312.727	64.85
312.941	56.66
313.154	85.33
313.368	54.61
313.582	75.09
313.796	97.62
314.009	46.42
314.223	19.8
314.437	5.46
314.651	71
314.864	-8.87
315.078	15.7
315.292	-131.75
315.505	68.95
315.719	77.14
315.933	46.42
316.146	40.28
316.36	-84.65
316.573	161.11
316.787	171.35
317.001	32.08
317.214	15.7
317.428	48.47
317.641	-10.92
317.855	109.91
318.068	60.76
318.282	50.52
318.495	163.15
318.709	5.46
318.922	99.67
319.136	200.02
319.349	32.08
319.563	73.04
319.776	140.63
319.99	-29.35
320.203	101.72
320.417	30.04
320.63	132.44
320.843	177.49
321.057	52.56
321.27	111.96
321.483	128.34
321.697	173.39
321.91	40.28
322.124	30.04
322.337	126.29
322.55	3.41
322.763	3.41
322.977	-19.11
323.19	54.61
323.403	77.14
323.617	71
323.83	77.14
324.043	-29.35
324.256	85.33
324.469	27.99
324.683	150.87
324.896	38.23
325.109	7.51
325.322	-8.87
325.535	204.11
325.748	138.58
325.962	99.67
326.175	9.56
326.388	56.66
326.601	150.87
326.814	21.85
327.027	-29.35
327.24	167.25
327.453	-70.31
327.666	54.61
327.879	210.26
328.092	42.32
328.305	-2.73
328.518	15.7
328.731	13.65
328.944	-55.98
329.157	11.61
329.37	40.28
329.583	161.11
329.796	142.68
330.009	-66.22
330.222	83.28
330.435	85.33
330.648	81.24
330.861	107.86
331.073	109.91
331.286	114
331.499	-49.83
331.712	-21.16
331.925	46.42
332.138	58.71
332.35	85.33
332.563	23.89
332.776	165.2
332.989	-29.35
333.202	38.23
333.414	89.43
333.627	-4.78
333.84	-0.68
334.053	111.96
334.265	21.85
334.478	7.51
334.691	120.15
334.903	62.8
335.116	-10.92
335.329	46.42
335.541	25.94
335.754	161.11
335.966	-31.4
336.179	79.19
336.392	75.09
336.604	44.37
336.817	56.66
337.029	116.05
337.242	-27.31
337.454	171.35
337.667	116.05
337.88	140.63
338.092	101.72
338.305	138.58
338.517	62.8
338.729	83.28
338.942	97.62
339.154	-62.12
339.367	42.32
339.579	79.19
339.792	46.42
340.004	109.91
340.217	27.99
340.429	36.18
340.641	42.32
340.854	-144.04
341.066	50.52
341.278	105.81
341.491	128.34
341.703	52.56
341.915	-8.87
342.128	128.34
342.34	87.38
342.552	-12.97
342.764	-10.92
342.977	-51.88
343.189	85.33
343.401	5.46
343.613	-4.78
343.826	-4.78
344.038	-62.12
344.25	64.85
344.462	56.66
344.674	46.42
344.886	23.89
345.099	62.8
345.311	97.62
345.523	46.42
345.735	-25.26
345.947	15.7
346.159	161.11
346.371	44.37
346.583	11.61
346.795	165.2
347.007	-4.78
347.219	175.44
347.431	1.37
347.643	163.15
347.855	38.23
348.067	136.53
348.279	-51.88
348.491	40.28
348.703	101.72
348.915	73.04
349.127	-86.7
349.339	56.66
349.551	-21.16
349.763	81.24
349.975	38.23
350.187	144.72
350.399	177.49
350.61	134.48
350.822	3.41
351.034	122.2
351.246	89.43
351.458	99.67
351.669	134.48
351.881	134.48
352.093	21.85
352.305	114
352.517	60.76
352.728	109.91
352.94	58.71
353.152	142.68
353.363	13.65
353.575	23.89
353.787	202.07
353.999	56.66
354.21	157.01
354.422	11.61
354.633	-33.45
354.845	54.61
355.057	93.52
355.268	116.05
355.48	64.85
355.692	23.89
355.903	13.65
356.115	-4.78
356.326	-12.97
356.538	103.76
356.749	154.96
356.961	126.29
357.172	66.9
357.384	-4.78
357.595	185.68
357.807	23.89
358.018	148.82
358.23	42.32
358.441	138.58
358.653	118.1
358.864	62.8
359.075	-51.88
359.287	163.15
359.498	71
359.709	89.43
359.921	11.61
360.132	66.9
360.344	46.42
360.555	-37.55
360.766	48.47
360.977	-4.78
361.189	130.39
361.4	9.56
361.611	138.58
361.823	95.57
362.034	58.71
362.245	-84.65
362.456	48.47
362.667	101.72
362.879	-23.21
363.09	56.66
363.301	40.28
363.512	77.14
363.723	-0.68
363.935	122.2
364.146	54.61
364.357	75.09
364.568	89.43
364.779	7.51
364.99	154.96
365.201	-68.27
365.412	75.09
365.623	7.51
365.834	95.57
366.045	77.14
366.256	89.43
366.467	103.76
366.678	21.85
366.889	60.76
367.1	107.86
367.311	157.01
367.522	-86.7
367.733	150.87
367.944	68.95
368.155	68.95
368.366	120.15
368.577	85.33
368.788	85.33
368.999	19.8
369.209	60.76
369.42	273.75
369.631	304.46
369.842	54.61
370.053	36.18
370.264	124.24
370.474	38.23
370.685	107.86
370.896	-43.69
371.107	159.06
371.317	27.99
371.528	107.86
371.739	71
371.95	32.08
372.16	171.35
372.371	-78.51
372.582	34.13
372.792	34.13
373.003	50.52
373.214	83.28
373.424	103.76
373.635	-51.88
373.846	177.49
374.056	99.67
374.267	75.09
374.477	91.48
374.688	97.62
374.898	64.85
375.109	-15.02
375.319	107.86
375.53	146.77
375.74	54.61
375.951	17.75
376.161	130.39
376.372	150.87
376.582	-15.02
376.793	99.67
377.003	-4.78
377.214	-70.31
377.424	161.11
377.635	40.28
377.845	-41.64
378.055	25.94
378.266	-6.83
378.476	81.24
378.686	68.95
378.897	99.67
379.107	150.87
379.317	175.44
379.528	-6.83
379.738	134.48
379.948	23.89
380.158	87.38
380.369	-4.78
380.579	138.58
380.789	32.08
380.999	71
381.21	124.24
381.42	204.11
381.63	9.56
381.84	105.81
382.05	120.15
382.261	200.02
382.471	120.15
382.681	73.04
382.891	165.2
383.101	124.24
383.311	-0.68
383.521	48.47
383.731	103.76
383.941	105.81
384.151	126.29
384.361	23.89
384.571	1.37
384.781	87.38
384.991	191.83
385.201	183.63
385.411	111.96
385.621	97.62
385.831	64.85
386.041	105.81
386.251	32.08
386.461	136.53
386.671	85.33
386.881	46.42
387.091	85.33
387.301	142.68
387.511	23.89
387.72	73.04
387.93	44.37
388.14	-8.87
388.35	68.95
388.56	159.06
388.769	99.67
388.979	38.23
389.189	-4.78
389.399	95.57
389.609	138.58
389.818	120.15
390.028	21.85
390.238	187.73
390.447	-19.11
390.657	77.14
390.867	5.46
391.076	11.61
391.286	85.33
391.496	7.51
391.705	103.76
391.915	146.77
392.125	163.15
392.334	-31.4
392.544	187.73
392.753	105.81
392.963	13.65
393.172	109.91
393.382	-2.73
393.591	204.11
393.801	54.61
394.01	163.15
394.22	118.1
394.429	-4.78
394.639	7.51
394.848	75.09
395.058	54.61
395.267	30.04
395.477	111.96
395.686	60.76
395.895	224.59
396.105	247.12
396.314	79.19
396.524	32.08
396.733	56.66
396.942	197.97
397.152	105.81
397.361	114
397.57	99.67
397.78	-29.35
397.989	191.83
398.198	238.93
398.407	44.37
398.617	38.23
398.826	66.9
399.035	-0.68
399.244	171.35
399.453	-2.73
399.663	107.86
399.872	97.62
400.081	77.14
400.29	200.02
400.499	-21.16
400.708	122.2
400.917	103.76
401.127	77.14
401.336	-35.5
401.545	193.87
401.754	87.38
401.963	97.62
402.172	-33.45
402.381	25.94
402.59	30.04
402.799	48.47
403.008	134.48
403.217	52.56
403.426	91.48
403.635	-37.55
403.844	21.85
404.053	36.18
404.262	-10.92
404.471	159.06
404.68	48.47
404.888	64.85
405.097	83.28
405.306	75.09
405.515	122.2
405.724	-10.92
405.933	175.44
406.142	60.76
406.35	132.44
406.559	56.66
406.768	130.39
406.977	179.54
407.185	44.37
407.394	136.53
407.603	3.41
407.812	66.9
408.02	200.02
408.229	44.37
408.438	85.33
408.646	36.18
408.855	50.52
409.064	85.33
409.272	111.96
409.481	73.04
409.69	46.42
409.898	17.75
410.107	44.37
410.315	95.57
410.524	-25.26
410.733	60.76
410.941	60.76
411.15	52.56
411.358	50.52
411.567	138.58
411.775	64.85
411.984	38.23
412.192	122.2
412.401	101.72
412.609	189.78
412.818	81.24
413.026	193.87
413.234	48.47
413.443	30.04
413.651	42.32
413.86	95.57
414.068	64.85
414.276	191.83
414.485	5.46
414.693	181.59
414.901	126.29
415.11	87.38
415.318	56.66
415.526	97.62
415.734	140.63
415.943	79.19
416.151	167.25
416.359	62.8
416.567	50.52
416.776	134.48
416.984	136.53
417.192	167.25
417.4	73.04
417.608	40.28
417.817	68.95
418.025	101.72
418.233	140.63
418.441	-0.68
418.649	-4.78
418.857	17.75
419.065	148.82
419.273	11.61
419.481	87.38
419.689	21.85
419.897	15.7
420.105	-33.45
420.313	81.24
420.521	179.54
420.729	101.72
420.937	17.75
421.145	-41.64
421.353	171.35
421.561	148.82
421.769	99.67
421.977	75.09
422.185	173.39
422.393	38.23
422.601	144.72
422.809	142.68
423.017	27.99
423.224	169.3
423.432	103.76
423.64	21.85
423.848	50.52
424.056	-82.6
424.263	208.21
424.471	87.38
424.679	111.96
424.887	-10.92
425.094	130.39
425.302	144.72
425.51	40.28
425.718	118.1
425.925	40.28
426.133	-0.68
426.341	286.03
426.548	52.56
426.756	101.72
426.964	134.48
427.171	13.65
427.379	120.15
427.586	136.53
427.794	167.25
428.001	144.72
428.209	132.44
428.417	175.44
428.624	58.71
428.832	161.11
429.039	220.5
429.247	97.62
429.454	134.48
429.662	236.88
429.869	181.59
430.076	214.35
430.284	220.5
430.491	185.68
430.699	179.54
430.906	265.55
431.114	148.82
431.321	163.15
431.528	62.8
431.736	142.68
431.943	138.58
432.15	165.2
432.358	216.4
432.565	271.7
432.772	71
432.979	173.39
433.187	146.77
433.394	216.4
433.601	220.5
433.808	302.42
434.016	267.6
434.223	277.84
434.43	189.78
434.637	236.88
434.844	230.74
435.052	240.98
435.259	281.94
435.466	308.56
435.673	322.9
435.88	386.38
436.087	320.85
436.294	378.19
436.501	324.94
436.708	316.75
436.915	365.9
437.122	357.71
437.329	302.42
437.537	353.62
437.743	410.96
437.95	488.78
438.157	429.39
438.364	380.24
438.571	468.3
438.778	421.2
438.985	490.83
439.192	566.6
439.399	539.98
439.606	548.17
439.813	626
440.02	699.72
440.227	705.87
440.433	634.19
440.64	689.48
440.847	539.98
441.054	597.32
441.261	851.27
441.467	619.85
441.674	654.67
441.881	826.7
442.088	669
442.294	820.55
442.501	820.55
442.708	898.38
442.914	808.27
443.121	1043.78
443.328	1037.64
443.534	1115.46
443.741	1072.45
443.948	859.46
444.154	1054.02
444.361	1295.68
444.568	1068.36
444.774	1205.57
444.981	1107.27
445.187	1344.83
445.394	1322.31
445.6	1332.54
445.807	1449.28
446.013	1451.33
446.22	1418.56
446.426	1613.12
446.633	1658.17
446.839	1781.05
447.046	1600.83
447.252	1918.26
447.459	1940.79
447.665	1940.79
447.871	1940.79
448.078	2190.64
448.284	2174.26
448.491	2247.99
448.697	2223.41
448.903	2561.33
449.11	2594.09
449.316	2424.11
449.522	2657.58
449.728	2731.31
449.935	2915.62
450.141	2753.84
450.347	3130.66
450.553	3046.69
450.76	3177.76
450.966	3142.95
451.172	3329.31
451.378	3503.39
451.584	3568.93
451.791	3845.4
451.997	3806.49
452.203	3994.9
452.409	4125.97
452.615	4386.07
452.821	4222.23
453.027	4523.28
453.233	4924.68
453.44	4746.51
453.646	5018.89
453.852	5375.24
454.058	5303.56
454.264	5741.82
454.47	5795.07
454.676	5856.51
454.882	6499.57
455.088	6223.09
455.294	6575.34
455.5	7062.76
455.705	7466.21
455.911	7353.57
456.117	7496.93
456.323	7734.5
456.529	7976.16
456.735	8641.75
456.941	8627.41
457.147	9084.11
457.352	9370.82
457.558	9542.85
457.764	10177.72
457.97	10529.97
458.176	10906.8
458.381	11402.41
458.587	11781.28
458.793	12270.75
458.999	12135.58
459.204	13718.66
459.41	14394.49
459.616	14075.01
459.821	14812.28
460.027	15342.7
460.233	16233.57
460.438	16297.05
460.644	16999.51
460.85	17402.96
461.055	17980.48
461.261	18715.7
461.466	18408.51
461.672	18912.31
461.878	20941.85
462.083	20722.71
462.289	21148.69
462.494	22125.57
462.7	21945.35
462.905	22502.4
463.111	24298.47
463.316	25566.16
463.522	26287.04
463.727	26778.56
463.932	27943.85
464.138	28777.37
464.343	29834.13
464.549	30120.84
464.754	32072.56
464.959	32897.89
465.165	33567.57
465.37	33213.27
465.575	33590.1
465.781	35681.08
465.986	36541.22
466.191	35947.31
466.397	36518.7
466.602	35580.73
466.807	37473.05
467.012	38308.62
467.218	38793.99
467.423	38994.69
467.628	39912.18
467.833	41433.82
468.038	41177.82
468.244	40327.92
468.449	42767.05
468.654	41802.46
468.859	41554.65
469.064	41573.08
469.269	40413.93
469.474	41056.99
469.679	42259.15
469.885	41013.99
470.09	41374.43
470.295	41779.93
470.5	40499.95
470.705	40907.49
470.91	39969.52
471.115	39731.96
471.32	40030.96
471.525	39602.94
471.73	38136.59
471.935	38402.83
472.139	36795.17
472.344	36944.67
472.549	36557.61
472.754	35826.48
472.959	35236.67
473.164	34149.2
473.369	33090.4
473.574	34370.38
473.778	33712.98
473.983	33164.12
474.188	33020.77
474.393	30878.59
474.598	30778.24
474.802	30401.41
475.007	29823.89
475.212	29780.88
475.417	28244.9
475.621	28367.78
475.826	27743.15
476.031	26936.25
476.235	26534.85
476.44	26557.38
476.645	25525.2
476.849	25572.3
477.054	24830.94
477.259	24531.94
477.463	24466.4
477.668	23917.54
477.872	23931.88
478.077	23391.22
478.282	22230.02
478.486	22567.93
478.691	22107.14
478.895	22051.84
479.1	21650.44
479.304	21724.17
479.509	20884.5
479.713	21124.12
479.918	20841.5
480.122	20337.69
480.326	20284.45
480.531	20470.81
480.735	20235.3
480.94	19766.31
481.144	20333.6
481.348	19276.85
481.553	19702.82
481.757	19207.22
481.961	19471.4
482.166	19344.43
482.37	18809.91
482.574	18490.43
482.778	18482.24
482.983	18650.17
483.187	18359.36
483.391	18543.67
483.595	18029.63
483.8	17617.99
484.004	17810.5
484.208	17773.64
484.412	17341.52
484.616	17267.79
484.821	17280.08
485.025	16858.2
485.229	16735.32
485.433	16364.64
485.637	16335.96
485.841	16188.51
486.045	15760.48
486.249	15701.09
486.453	15342.7
486.657	15424.62
486.861	14965.87
487.065	14396.54
487.269	14582.9
487.473	14128.25
487.677	14312.57
487.881	14079.1
488.085	13595.78
488.289	13565.06
488.493	13114.51
488.697	13208.72
488.901	12786.83
489.105	12565.65
489.309	12367
489.512	12217.5
489.716	12037.28
489.92	11713.7
490.124	11373.74
490.328	11439.27
490.531	11041.96
490.735	10962.09
490.939	10699.95
491.143	10810.54
491.346	10503.35
491.55	10384.57
491.754	9870.53
491.958	10226.87
492.161	9536.71
492.365	9581.76
492.569	9426.12
492.772	9286.86
492.976	9159.88
493.18	9043.15
493.383	8963.28
493.587	8914.13
493.79	8858.83
493.994	8518.87
494.197	8387.8
494.401	8451.28
494.605	8269.02
494.808	8244.44
495.012	8361.17
495.215	8070.36
495.419	8348.89
495.622	7890.14
495.825	7961.82
496.029	7904.48
496.232	8072.41
496.436	7714.02
496.639	8006.88
496.843	7924.96
497.046	7896.28
497.249	7963.87
497.453	7845.09
497.656	8008.92
497.859	7820.51
498.063	7931.1
498.266	7906.52
498.469	7744.74
498.673	7912.67
498.876	7994.59
499.079	7955.68
499.282	7992.54
499.485	8271.06
499.689	8084.7
499.892	8121.56
500.095	8236.25
500.298	8318.17
500.501	8109.27
500.705	8451.28
500.908	8608.98
501.111	8500.44
501.314	8639.7
501.517	8711.38
501.72	8860.88
501.923	8819.92
502.126	9041.1
502.329	8965.32
502.532	9192.65
502.735	9249.99
502.938	9249.99
503.141	9340.1
503.344	9307.34
503.547	9749.7
503.75	9739.46
503.953	9948.35
504.156	10015.93
504.359	10116.28
504.562	10233.02
504.765	10374.33
504.968	10704.05
505.17	10839.22
505.373	10917.04
505.576	11230.38
505.779	11441.32
505.982	11240.62
506.185	11779.23
506.387	11750.56
506.59	11879.58
506.793	12342.42
506.996	12358.81
507.198	12743.83
507.401	12878.99
507.604	13147.28
507.807	13489.29
508.009	13550.73
508.212	13851.78
508.415	13962.37
508.617	14503.03
508.82	14466.17
509.022	14910.58
509.225	15408.23
509.428	15471.72
509.63	16012.39
509.833	16278.62
510.035	17089.62
510.238	16913.49
510.44	17185.87
510.643	18003.01
510.845	18281.53
511.048	18318.4
511.25	18619.45
511.453	19573.8
511.655	20126.75
511.858	20016.16
512.06	20696.09
512.262	21013.52
512.465	21222.42
512.667	21912.58
512.87	22230.02
513.072	22932.47
513.274	23565.29
513.477	23884.78
513.679	24255.46
513.881	24927.19
514.084	25805.77
514.286	25924.55
514.488	26448.83
514.69	27270.07
514.893	27923.37
515.095	28171.18
515.297	29066.14
515.499	29148.06
515.701	30008.2
515.904	31058.81
516.106	31335.29
516.308	32068.46
516.51	33028.96
516.712	32944.99
516.914	33856.34
517.116	34798.4
517.318	35038.01
517.52	35836.72
517.722	36117.29
517.925	37227.29
518.127	37950.23
518.329	38707.97
518.531	38720.26
518.733	39590.65
518.935	40547.05
519.136	40739.56
519.338	41493.21
519.54	41997.01
519.742	42480.33
519.944	43293.38
520.146	44298.93
520.348	44407.47
520.55	45130.4
520.752	45433.5
520.954	46359.19
521.155	46447.25
521.357	47186.57
521.559	48018.04
521.761	48755.31
521.963	48874.09
522.164	49142.38
522.366	49267.3
522.568	49814.11
522.77	50657.87
522.971	51122.76
523.173	50956.88
523.375	51098.19
523.576	51282.5
523.778	51671.62
523.98	52451.89
524.181	52533.81
524.383	52406.84
524.584	52812.34
524.786	52752.94
524.988	52927.02
525.189	52951.6
525.391	53336.62
525.592	53477.93
525.794	53135.91
525.995	53260.84
526.197	53185.07
526.398	53080.62
526.6	52843.06
526.801	52984.36
527.003	53017.13
527.204	52671.03
527.406	52460.08
527.607	52021.82
527.808	52425.27
528.01	50831.95
528.211	51057.23
528.412	52226.62
528.614	50668.11
528.815	50842.19
529.016	50975.31
529.218	49500.77
529.419	49787.49
529.62	49082.98
529.822	48487.03
530.023	48274.04
530.224	48147.06
530.425	47014.54
530.626	46359.19
530.828	46232.21
531.029	46742.16
531.23	44935.85
531.431	45105.83
531.632	44901.03
531.833	44163.76
532.035	43958.97
532.236	42818.25
532.437	42734.28
532.638	41667.29
532.839	41597.66
533.04	41374.43
533.241	40299.25
533.442	40387.31
533.643	39627.51
533.844	38968.07
534.045	38771.46
534.246	37821.2
534.447	37382.94
534.648	36688.68
534.849	36907.81
535.05	35648.31
535.251	35500.86
535.451	35234.62
535.652	34798.4
535.853	34059.09
536.054	33600.34
536.255	33354.58
536.456	32752.48
536.657	32441.19
536.857	31871.86
537.058	31396.73
537.259	31388.53
537.46	30899.07
537.66	30221.19
537.861	29981.58
538.062	29162.39
538.263	28976.03
538.463	28521.38
538.664	28246.95
538.865	27818.92
539.065	27788.21
539.266	27173.81
539.466	27005.88
539.667	26426.31
539.868	26100.68
540.068	25899.98
540.269	25791.44
540.469	25297.88
540.67	25312.21
540.87	24974.3
541.071	24185.83
541.271	24357.86
541.472	24124.39
541.672	23843.82
541.873	23305.2
542.073	22637.56
542.274	23153.65
542.474	22719.48
542.675	22156.29
542.875	22232.07
543.075	21697.55
543.276	21548.04
543.476	21541.9
543.676	20896.79
543.877	20945.94
544.077	20536.35
544.277	20319.26
544.478	20028.45
544.678	20204.58
544.878	19569.71
545.078	19641.39
545.279	19113.01
545.479	18832.44
545.679	18691.13
545.879	18629.69
546.079	18682.94
546.28	18203.71
546.48	17978.44
546.68	17898.56
546.88	17542.22
547.08	17548.36
547.28	16931.92
547.48	16680.02
547.68	16985.17
547.88	16456.79
548.081	16510.04
548.281	15815.78
548.481	15856.74
548.681	15817.83
548.881	15475.82
549.081	15279.21
549.28	14988.4
549.48	14961.78
549.68	14822.52
549.88	14642.29
550.08	14201.98
550.28	14081.15
550.48	14044.29
550.68	13884.55
550.88	13601.93
551.08	13255.82
551.279	13212.81
551.479	12883.09
551.679	12803.22
551.879	12371.1
552.079	12477.59
552.278	12291.23
552.478	12262.55
552.678	11996.32
552.878	11836.58
553.077	11502.76
553.277	11306.15
553.477	11265.19
553.676	11170.99
553.876	10820.78
554.076	10560.69
554.275	10640.56
554.475	10194.11
554.674	10249.4
554.874	9835.71
555.074	9768.13
555.273	9829.57
555.473	9614.53
555.672	9311.43
555.872	9180.36
556.071	8977.61
556.271	9112.78
556.47	8776.91
556.67	8525.01
556.869	8502.48
557.068	8443.09
557.268	8170.71
557.467	8068.31
557.667	8031.45
557.866	7884
558.065	7666.91
558.265	7554.27
558.464	7447.78
558.663	7228.65
558.863	7132.39
559.062	7130.34
559.261	7138.54
559.461	6982.89
559.66	6743.28
559.859	6606.06
560.058	6479.09
560.258	6546.67
560.457	6219
560.656	6405.36
560.855	6030.59
561.054	6102.26
561.253	5930.23
561.453	5895.42
561.652	5860.6
561.851	5721.34
562.05	5549.31
562.249	5532.93
562.448	5494.02
562.647	5340.42
562.846	5403.91
563.045	5299.46
563.244	5215.49
563.443	5233.93
563.642	4961.55
563.841	5065.99
564.04	4820.24
564.239	4836.62
564.438	4769.04
564.637	4736.27
564.836	4615.44
565.035	4537.62
565.234	4269.33
565.432	4341.01
565.631	4273.43
565.83	4320.53
566.029	4156.69
566.228	4123.93
566.427	4168.98
566.625	3861.79
566.824	3900.7
567.023	3980.57
567.222	3781.92
567.42	3890.46
567.619	3722.52
567.818	3618.08
568.016	3826.97
568.215	3650.85
568.414	3579.17
568.612	3523.87
568.811	3366.18
569.01	3464.48
569.208	3259.68
569.407	3210.53
569.605	3204.39
569.804	3169.57
570.002	3110.18
570.201	3101.99
570.4	3079.46
570.598	2983.21
570.797	2997.54
570.995	2952.49
571.193	2989.35
571.392	2825.51
571.59	2637.1
571.789	2839.85
571.987	2727.21
572.186	2778.41
572.384	2530.61
572.582	2596.14
572.781	2567.47
572.979	2385.2
573.177	2354.48
573.376	2514.22
573.574	2401.58
573.772	2239.8
573.971	2235.7
574.169	2252.08
574.367	2276.66
574.565	2170.16
574.763	2184.5
574.962	2186.55
575.16	2180.4
575.358	2159.92
575.556	1942.84
575.754	2057.53
575.952	2014.52
576.151	1946.94
576.349	2002.23
576.547	1858.87
576.745	1834.3
576.943	1918.26
577.141	1813.82
577.339	1707.32
577.537	1893.69
577.735	1772.86
577.933	1652.03
578.131	1666.36
578.329	1793.34
578.527	1590.59
578.725	1637.69
578.923	1543.49
579.121	1551.68
579.319	1398.08
579.516	1473.85
579.714	1668.41
579.912	1582.4
580.11	1426.75
580.308	1406.27
580.506	1455.42
580.704	1314.11
580.901	1353.02
581.099	1326.4
581.297	1287.49
581.495	1359.17
581.692	1236.29
581.89	1416.51
582.088	1254.72
582.285	1209.67
582.483	1224
582.681	1168.71
582.878	1078.6
583.076	1101.12
583.274	1160.52
583.471	1211.71
583.669	1191.24
583.866	1025.35
584.064	972.1
584.262	1082.69
584.459	994.63
584.657	1002.82
584.854	1015.11
585.052	1051.97
585.249	970.05
585.447	1006.92
585.644	908.62
585.841	1039.69
586.039	1000.77
586.236	970.05
586.434	857.42
586.631	748.87
586.828	838.98
587.026	935.24
587.223	685.39
587.42	816.46
587.618	929.1
587.815	929.1
588.012	859.46
588.21	767.31
588.407	863.56
588.604	820.55
588.801	722.25
588.999	759.11
589.196	877.9
589.393	740.68
589.59	789.83
589.787	812.36
589.984	783.69
590.182	769.35
590.379	699.72
590.576	748.87
590.773	789.83
590.97	593.23
591.167	793.93
591.364	759.11
591.561	718.15
591.758	838.98
591.955	722.25
592.152	675.15
592.349	707.91
592.546	550.22
592.743	681.29
592.94	677.19
593.137	716.11
593.334	769.35
593.531	746.83
593.727	771.4
593.924	742.73
594.121	675.15
594.318	646.48
594.515	777.55
594.712	853.32
594.908	881.99
595.105	566.6
595.302	732.49
595.499	744.78
595.696	922.95
595.892	701.77
596.089	851.27
596.286	761.16
596.482	873.8
596.679	898.38
596.876	812.36
597.072	943.43
597.269	867.66
597.466	929.1
597.662	949.57
597.859	990.53
598.055	965.96
598.252	992.58
598.448	978.25
598.645	1080.64
598.841	1123.65
599.038	1357.12
599.234	1248.58
599.431	1262.91
599.627	1373.5
599.824	1312.07
600.02	1441.09
600.217	1398.08
600.413	1439.04
600.609	1592.64
600.806	1951.03
601.002	1733.95
601.198	1729.85
601.395	1940.79
601.591	1948.98
601.787	1926.46
601.984	2092.34
602.18	2204.98
602.376	2161.97
602.572	2276.66
602.769	2348.34
602.965	2340.15
603.161	2604.33
603.357	2727.21
603.553	2653.48
603.75	2596.14
603.946	2753.84
604.142	2964.78
604.338	3175.72
604.534	3231.01
604.73	3274.02
604.926	3312.93
605.122	3577.12
605.318	3511.58
605.514	3822.88
605.71	3704.09
605.906	3962.14
606.102	3937.56
606.298	4244.76
606.494	4189.46
606.69	4353.3
606.886	4388.11
607.082	4609.29
607.278	4615.44
607.474	4920.59
607.67	5063.94
607.866	5012.74
608.062	5258.5
608.257	5444.87
608.453	5422.34
608.649	5731.58
608.845	5729.53
609.041	5934.33
609.236	6198.52
609.432	6364.4
609.628	6466.8
609.824	6622.45
610.019	6780.14
610.215	6898.92
610.411	7116.01
610.606	7468.26
610.802	7501.03
610.998	7775.45
611.193	7986.4
611.389	7984.35
611.584	8256.73
611.78	8502.48
611.976	8670.42
612.171	9190.6
612.367	9186.51
612.562	9438.41
612.758	9729.22
612.953	9778.37
613.149	10058.94
613.344	10403
613.539	10935.47
613.735	11070.64
613.93	11326.63
614.126	11398.31
614.321	11861.15
614.517	12213.4
614.712	12424.34
614.907	12604.56
615.103	13433.99
615.298	13495.43
615.493	13816.96
615.688	13952.13
615.884	14937.2
616.079	14711.92
616.274	15277.16
616.47	15209.58
616.665	16090.21
616.86	16520.28
617.055	16665.69
617.25	16942.16
617.445	17552.46
617.641	18013.25
617.836	18488.38
618.031	18648.12
618.226	19536.94
618.421	19479.6
618.616	20536.35
618.811	20526.11
619.006	21304.34
619.201	21386.26
619.396	21980.17
619.591	22402.05
619.786	23311.35
619.981	23282.67
620.176	24292.32
620.371	24013.8
620.566	24869.85
620.761	25529.3
620.956	26002.38
621.151	26559.42
621.346	26917.82
621.541	27186.1
621.735	27876.27
621.93	28169.13
622.125	29117.34
622.32	29062.04
622.515	30094.22
622.709	30507.91
622.904	31122.3
623.099	31306.62
623.294	32291.69
623.488	32592.74
623.683	33106.78
623.878	33071.96
624.072	33954.64
624.267	34564.93
624.462	34923.33
624.656	35420.98
624.851	36117.29
625.046	36416.3
625.24	36926.24
625.435	37528.34
625.629	38116.11
625.824	38449.93
626.018	39004.93
626.213	38787.85
626.407	39772.92
626.602	40168.18
626.796	40385.26
626.991	40757.99
627.185	40917.73
627.38	41478.88
627.574	41310.94
627.768	41300.7
627.963	41925.33
628.157	42191.57
628.352	42156.75
628.546	41677.53
628.74	42646.22
628.935	41650.91
629.129	42113.75
629.323	41818.84
629.517	41407.2
629.712	41071.33
629.906	40882.92
630.1	39949.04
630.294	40342.25
630.489	39330.56
630.683	39033.6
630.877	37776.15
631.071	37622.55
631.265	37270.3
631.459	36404.01
631.653	35277.63
631.848	34857.79
632.042	33690.45
632.236	33284.95
632.43	31937.39
632.624	31071.1
632.818	30278.54
633.012	29410.2
633.206	28464.03
633.4	27818.92
633.594	26514.37
633.788	25820.11
633.982	24904.67
634.176	24083.43
634.369	22713.34
634.563	22219.78
634.757	21038.1
634.951	20720.67
635.145	20036.64
635.339	19180.59
635.533	18134.08
635.726	17658.95
635.92	16489.56
636.114	15936.61
636.308	15365.23
636.501	14820.47
636.695	14111.87
636.889	13454.47
637.083	12934.29
637.276	12508.31
637.47	11895.97
637.664	11476.13
637.857	10994.86
638.051	10693.81
638.244	10128.57
638.438	9776.32
638.632	9489.6
638.825	8727.76
639.019	8699.09
639.212	8201.43
639.406	8074.46
639.599	7677.15
639.793	7255.27
639.986	6954.22
640.18	6839.53
640.373	6595.82
640.567	6225.14
640.76	5924.09
640.954	5995.77
641.147	5588.22
641.34	5299.46
641.534	5227.78
641.727	5000.46
641.92	4869.39
642.114	4594.96
642.307	4416.79
642.5	4488.46
642.694	3966.23
642.887	4001.05
643.08	3974.42
643.273	3734.81
643.467	3636.51
643.66	3345.7
643.853	3261.73
644.046	3097.89
644.239	2954.54
644.432	2852.14
644.626	2723.12
644.819	2596.14
645.012	2643.24
645.205	2399.54
645.398	2417.97
645.591	2194.74
645.784	2243.89
645.977	2012.47
646.17	2032.95
646.363	1887.54
646.556	1807.67
646.749	1803.58
646.942	1703.23
647.135	1711.42
647.328	1547.58
647.521	1662.27
647.714	1500.48
647.907	1467.71
648.099	1350.98
648.292	1412.42
648.485	1342.78
648.678	1219.91
648.871	1164.61
649.064	1203.52
649.256	1056.07
649.449	1015.11
649.642	939.33
649.835	1006.92
650.027	888.14
650.22	984.39
650.413	931.14
650.605	881.99
650.798	890.18
650.991	804.17
651.183	816.46
651.376	707.91
651.568	808.27
651.761	714.06
651.954	759.11
652.146	636.24
652.339	771.4
652.531	664.91
652.724	554.32
652.916	505.17
653.109	482.64
653.301	613.71
653.494	652.62
653.686	482.64
653.879	623.95
654.071	574.8
654.263	460.11
654.456	470.35
654.648	529.74
654.84	548.17
655.033	390.48
655.225	511.31
655.417	326.99
655.61	480.59
655.802	496.97
655.994	488.78
656.186	312.66
656.379	460.11
656.571	310.61
656.763	361.81
656.955	339.28
657.148	300.37
657.34	415.06
657.532	318.8
657.724	351.57
657.916	310.61
658.108	499.02
658.3	372.05
658.492	359.76
658.684	277.84
658.876	345.42
659.068	216.4
659.26	114
659.452	247.12
659.644	204.11
659.836	347.47
660.028	316.75
660.22	159.06
660.412	249.17
660.604	255.31
660.796	300.37
660.988	292.18
661.18	216.4
661.372	353.62
661.563	142.68
661.755	185.68
661.947	148.82
662.139	187.73
662.331	267.6
662.522	220.5
662.714	154.96
662.906	169.3
663.097	218.45
663.289	175.44
663.481	81.24
663.673	234.83
663.864	234.83
664.056	204.11
664.247	130.39
664.439	322.9
664.631	286.03
664.822	185.68
665.014	214.35
665.205	159.06
665.397	183.63
665.588	175.44
665.78	183.63
665.971	216.4
666.163	105.81
666.354	240.98
666.546	118.1
666.737	183.63
666.929	169.3
667.12	169.3
667.311	234.83
667.503	159.06
667.694	187.73
667.885	157.01
668.077	181.59
668.268	-35.5
668.459	154.96
668.651	150.87
668.842	236.88
669.033	109.91
669.224	95.57
669.416	351.57
669.607	142.68
669.798	85.33
669.989	243.03
670.18	60.76
670.371	171.35
670.563	48.47
670.754	228.69
670.945	195.92
671.136	240.98
671.327	107.86
671.518	234.83
671.709	220.5
671.9	85.33
672.091	251.22
672.282	165.2
672.473	130.39
672.664	89.43
672.855	73.04
673.046	228.69
673.237	279.89
673.428	142.68
673.619	212.31
673.809	91.48
674	177.49
674.191	118.1
674.382	175.44
674.573	152.91
674.764	93.52
674.954	206.16
675.145	116.05
675.336	105.81
675.527	116.05
675.717	152.91
675.908	77.14
676.099	171.35
676.289	165.2
676.48	93.52
676.671	146.77
676.861	89.43
677.052	224.59
677.243	101.72
677.433	138.58
677.624	193.87
677.814	210.26
678.005	150.87
678.195	294.22
678.386	101.72
678.576	134.48
678.767	42.32
678.957	193.87
679.148	283.98
679.338	269.65
679.529	167.25
679.719	179.54
679.909	304.46
680.1	212.31
680.29	294.22
680.481	40.28
680.671	222.55
680.861	202.07
681.052	261.46
681.242	142.68
681.432	245.07
681.622	169.3
681.813	157.01
682.003	189.78
682.193	165.2
682.383	159.06
682.573	228.69
682.764	257.36
682.954	195.92
683.144	326.99
683.334	259.41
683.524	216.4
683.714	236.88
683.904	279.89
684.094	177.49
684.284	200.02
684.474	410.96
684.664	259.41
684.854	292.18
685.044	251.22
685.234	247.12
685.424	208.21
685.614	197.97
685.804	306.51
685.994	224.59
686.184	181.59
686.374	298.32
686.564	245.07
686.753	238.93
686.943	193.87
687.133	267.6
687.323	161.11
687.513	275.79
687.702	245.07
687.892	173.39
688.082	243.03
688.272	288.08
688.461	206.16
688.651	296.27
688.841	259.41
689.03	159.06
689.22	230.74
689.41	222.55
689.599	288.08
689.789	175.44
689.979	318.8
690.168	214.35
690.358	253.27
690.547	165.2
690.737	214.35
690.926	208.21
691.116	238.93
691.305	210.26
691.495	226.64
691.684	234.83
691.874	259.41
692.063	236.88
692.252	247.12
692.442	320.85
692.631	183.63
692.82	212.31
693.01	197.97
693.199	216.4
693.388	204.11
693.578	275.79
693.767	335.18
693.956	249.17
694.146	177.49
694.335	259.41
694.524	245.07
694.713	333.14
694.902	179.54
695.092	202.07
695.281	306.51
695.47	191.83
695.659	212.31
695.848	283.98
696.037	240.98
696.226	331.09
696.415	222.55
696.604	228.69
696.793	228.69
696.982	191.83
697.171	300.37
697.36	202.07
697.549	240.98
697.738	89.43
697.927	173.39
698.116	157.01
698.305	220.5
698.494	263.51
698.683	204.11
698.872	400.72
699.061	167.25
699.25	204.11
699.438	197.97
699.627	159.06
699.816	329.04
700.005	118.1
700.193	175.44
700.382	226.64
700.571	251.22
700.76	179.54
700.948	267.6
701.137	236.88
701.326	253.27
701.514	167.25
701.703	275.79
701.892	189.78
702.08	382.29
702.269	210.26
702.457	134.48
702.646	159.06
702.834	159.06
703.023	210.26
703.212	253.27
703.4	212.31
703.589	214.35
703.777	185.68
703.965	150.87
704.154	226.64
704.342	206.16
704.531	177.49
704.719	189.78
704.907	232.79
705.096	103.76
705.284	185.68
705.472	206.16
705.661	251.22
705.849	273.75
706.037	314.7
706.226	220.5
706.414	263.51
706.602	232.79
706.79	232.79
706.979	152.91
707.167	197.97
707.355	54.61
707.543	245.07
707.731	236.88
707.919	206.16
708.107	173.39
708.296	214.35
708.484	134.48
708.672	243.03
708.86	296.27
709.048	167.25
709.236	202.07
709.424	220.5
709.612	232.79
709.8	97.62
709.988	234.83
710.176	236.88
710.364	275.79
710.551	163.15
710.739	202.07
710.927	150.87
711.115	230.74
711.303	187.73
711.491	390.48
711.679	187.73
711.866	292.18
712.054	208.21
712.242	269.65
712.43	333.14
712.617	105.81
712.805	277.84
712.993	226.64
713.181	42.32
713.368	208.21
713.556	265.55
713.744	144.72
713.931	400.72
714.119	296.27
714.306	132.44
714.494	247.12
714.682	240.98
714.869	159.06
715.057	240.98
715.244	159.06
715.432	220.5
715.619	124.24
715.807	202.07
715.994	173.39
716.182	173.39
716.369	267.6
716.556	324.94
716.744	202.07
716.931	140.63
717.119	200.02
717.306	181.59
717.493	292.18
717.681	161.11
717.868	167.25
718.055	304.46
718.242	275.79
718.43	279.89
718.617	290.13
718.804	236.88
718.991	322.9
719.179	275.79
719.366	269.65
719.553	251.22
719.74	263.51
719.927	259.41
720.114	279.89
720.301	157.01
720.488	169.3
720.676	183.63
720.863	302.42
721.05	421.2
721.237	322.9
721.424	292.18
721.611	257.36
721.798	183.63
721.985	187.73
722.172	181.59
722.358	224.59
722.545	290.13
722.732	253.27
722.919	341.33
723.106	300.37
723.293	259.41
723.48	195.92
723.667	236.88
723.853	370
724.04	294.22
724.227	337.23
724.414	232.79
724.6	308.56
724.787	376.14
724.974	421.2
725.161	320.85
725.347	179.54
725.534	200.02
725.72	255.31
725.907	259.41
726.094	329.04
726.28	187.73
726.467	306.51
726.653	245.07
726.84	302.42
727.027	398.67
727.213	273.75
727.4	288.08
727.586	245.07
727.773	290.13
727.959	249.17
728.145	308.56
728.332	238.93
728.518	197.97
728.705	292.18
728.891	290.13
729.077	308.56
729.264	197.97
729.45	286.03
729.636	337.23
729.823	251.22
730.009	298.32
730.195	361.81
730.382	290.13
730.568	245.07
730.754	329.04
730.94	175.44
731.126	290.13
731.313	247.12
731.499	200.02
731.685	347.47
731.871	380.24
732.057	304.46
732.243	294.22
732.429	296.27
732.615	374.1
732.801	384.34
732.987	320.85
733.173	310.61
733.359	222.55
733.545	245.07
733.731	306.51
733.917	384.34
734.103	380.24
734.289	349.52
734.475	204.11
734.661	326.99
734.847	306.51
735.033	333.14
735.219	376.14
735.404	257.36
735.59	259.41
735.776	286.03
735.962	347.47
736.148	415.06
736.333	333.14
736.519	351.57
736.705	206.16
736.89	294.22
737.076	261.46
737.262	271.7
737.447	236.88
737.633	232.79
737.819	361.81
738.004	275.79
738.19	314.7
738.375	277.84
738.561	294.22
738.747	298.32
738.932	265.55
739.118	490.83
739.303	390.48
739.489	410.96
739.674	300.37
739.859	269.65
740.045	335.18
740.23	243.03
740.416	228.69
740.601	267.6
740.786	261.46
740.972	204.11
741.157	247.12
741.342	191.83
741.528	304.46
741.713	413.01
741.898	187.73
742.084	257.36
742.269	281.94
742.454	318.8
742.639	349.52
742.824	322.9
743.01	378.19
743.195	370
743.38	300.37
743.565	257.36
743.75	267.6
743.935	245.07
744.12	361.81
744.305	161.11
744.49	232.79
744.675	224.59
744.86	236.88
745.045	355.66
745.23	263.51
745.415	214.35
745.6	400.72
745.785	296.27
745.97	367.95
746.155	349.52
746.34	310.61
746.525	193.87
746.71	382.29
746.895	146.77
747.079	128.34
747.264	169.3
747.449	378.19
747.634	324.94
747.819	322.9
748.003	243.03
748.188	132.44
748.373	251.22
748.557	220.5
748.742	187.73
748.927	236.88
749.111	234.83
749.296	173.39
749.481	275.79
749.665	236.88
749.85	157.01
750.034	257.36
750.219	236.88
750.404	197.97
750.588	249.17
750.773	214.35
750.957	243.03
751.141	183.63
751.326	312.66
751.51	167.25
751.695	181.59
751.879	175.44
752.064	427.34
752.248	167.25
752.432	316.75
752.617	238.93
752.801	288.08
752.985	257.36
753.17	273.75
753.354	308.56
753.538	159.06
753.722	165.2
753.907	202.07
754.091	62.8
754.275	251.22
754.459	134.48
754.643	181.59
754.828	228.69
755.012	189.78
755.196	87.38
755.38	159.06
755.564	138.58
755.748	245.07
755.932	251.22
756.116	195.92
756.3	275.79
756.484	73.04
756.668	210.26
756.852	95.57
757.036	179.54
757.22	189.78
757.404	120.15
757.588	140.63
757.772	226.64
757.956	152.91
758.14	247.12
758.323	179.54
758.507	271.7
758.691	34.13
758.875	212.31
759.059	253.27
759.242	116.05
759.426	177.49
759.61	230.74
759.794	138.58
759.977	263.51
760.161	281.94
760.345	304.46
760.528	157.01
760.712	138.58
760.895	253.27
761.079	142.68
761.263	87.38
761.446	97.62
761.63	118.1
761.813	257.36
761.997	111.96
762.18	38.23
762.364	214.35
762.547	-64.17
762.731	120.15
762.914	109.91
763.098	95.57
763.281	136.53
763.464	118.1
763.648	161.11
763.831	154.96
764.015	103.76
764.198	161.11
764.381	42.32
764.564	142.68
764.748	144.72
764.931	103.76
765.114	163.15
765.297	206.16
765.481	68.95
765.664	122.2
765.847	111.96
766.03	290.13
766.213	81.24
766.397	79.19
766.58	48.47
766.763	204.11
766.946	77.14
767.129	89.43
767.312	48.47
767.495	154.96
767.678	62.8
767.861	146.77
768.044	187.73
768.227	38.23
768.41	105.81
768.593	132.44
768.776	142.68
768.959	87.38
769.142	251.22
769.324	91.48
769.507	169.3
769.69	56.66
769.873	126.29
770.056	257.36
770.239	83.28
770.421	161.11
770.604	50.52
770.787	126.29
770.97	132.44
771.152	11.61
771.335	163.15
771.518	48.47
771.7	159.06
771.883	193.87
772.066	52.56
772.248	118.1
772.431	181.59
772.613	105.81
772.796	60.76
772.978	120.15
773.161	193.87
773.343	101.72
773.526	25.94
773.708	15.7
773.891	40.28
774.073	136.53
774.256	109.91
774.438	234.83
774.621	183.63
774.803	109.91
774.985	-23.21
775.168	179.54
775.35	54.61
775.532	52.56
775.715	13.65
775.897	142.68
776.079	23.89
776.261	93.52
776.444	105.81
776.626	134.48
776.808	111.96
776.99	32.08
777.173	32.08
777.355	83.28
777.537	128.34
777.719	105.81
777.901	83.28
778.083	42.32
778.265	91.48
778.447	161.11
778.629	48.47
778.811	52.56
778.993	60.76
779.175	183.63
779.357	85.33
779.539	40.28
779.721	103.76
779.903	150.87
780.085	42.32
780.267	85.33
780.449	52.56
780.631	138.58
780.812	122.2
780.994	64.85
781.176	136.53
781.358	11.61
781.54	27.99
781.721	138.58
781.903	44.37
782.085	71
782.267	101.72
782.448	5.46
782.63	83.28
782.812	118.1
782.993	36.18
783.175	122.2
783.357	81.24
783.538	101.72
783.72	25.94
783.901	44.37
784.083	216.4
784.264	64.85
784.446	5.46
784.627	-31.4
784.809	124.24
784.99	5.46
785.172	44.37
785.353	54.61
785.535	27.99
785.716	7.51
785.897	-4.78
786.079	66.9
786.26	11.61
786.441	81.24
786.623	-33.45
786.804	32.08
786.985	81.24
787.167	89.43
787.348	19.8
787.529	-15.02
787.71	134.48
787.891	58.71
788.073	-37.55
788.254	-68.27
788.435	142.68
788.616	54.61
788.797	-33.45
788.978	5.46
789.159	-4.78
789.34	32.08
789.522	19.8
789.703	-8.87
789.884	36.18
790.065	46.42
790.246	179.54
790.427	19.8
790.607	103.76
790.788	126.29
790.969	1.37
791.15	15.7
791.331	-12.97
791.512	9.56
791.693	-29.35
791.874	-35.5
792.054	277.84
792.235	152.91
792.416	-94.89
792.597	1.37
792.778	122.2
792.958	93.52
793.139	60.76
793.32	15.7
793.5	15.7
793.681	134.48
793.862	126.29
794.042	13.65
794.223	-78.51
794.404	42.32
794.584	-82.6
794.765	27.99
794.945	62.8
795.126	46.42
795.306	93.52
795.487	44.37
795.667	-8.87
795.848	32.08
796.028	27.99
796.209	56.66
796.389	73.04
796.57	34.13
796.75	-88.75
796.93	54.61
797.111	-58.03
797.291	-17.07
797.471	130.39
797.652	-45.74
797.832	36.18
798.012	79.19
798.192	21.85
798.373	-58.03
798.553	3.41
798.733	85.33
798.913	-72.36
799.093	5.46
799.274	17.75
799.454	101.72
799.634	64.85
799.814	38.23
799.994	105.81
800.174	79.19
800.354	15.7
800.534	-90.79
800.714	62.8
800.894	-25.26
801.074	-60.07
801.254	-68.27
801.434	93.52
801.614	21.85
801.794	-2.73
801.974	2047.29
802.154	5.46
802.334	134.48
802.514	-70.31
802.693	52.56
802.873	-47.79
803.053	120.15
803.233	64.85
803.413	15.7
803.592	7.51
803.772	-19.11
803.952	42.32
804.131	-101.03
804.311	85.33
804.491	68.95
804.67	-45.74
804.85	-60.07
805.03	52.56
805.209	146.77
805.389	11.61
805.568	-113.32
805.748	64.85
805.928	-23.21
806.107	46.42
806.287	13.65
806.466	40.28
806.646	30.04
806.825	11.61
807.004	21.85
807.184	23.89
807.363	81.24
807.543	105.81
807.722	-37.55
807.901	116.05
808.081	93.52
808.26	-86.7
808.439	85.33
808.619	52.56
808.798	-29.35
808.977	50.52
809.156	75.09
809.336	27.99
809.515	34.13
809.694	-58.03
809.873	15.7
810.052	126.29
810.231	171.35
810.411	44.37
810.59	77.14
810.769	60.76
810.948	105.81
811.127	-137.9
811.306	-15.02
811.485	7.51
811.664	146.77
811.843	83.28
812.022	-10.92
812.201	-2.73
812.38	-4.78
812.559	-25.26
812.737	46.42
812.916	-33.45
813.095	-0.68
813.274	13.65
813.453	-76.46
813.632	122.2
813.811	128.34
813.989	-66.22
814.168	17.75
814.347	-82.6
814.526	7.51
814.704	197.97
814.883	23.89
815.062	1.37
815.24	150.87
815.419	-53.93
815.598	11.61
815.776	-80.55
815.955	-2.73
816.133	-144.04
816.312	40.28
816.49	-33.45
816.669	-23.21
816.847	-8.87
817.026	-0.68
817.204	19.8
817.383	-12.97
817.561	-15.02
817.74	68.95
817.918	54.61
818.097	34.13
818.275	7.51
818.453	15.7
818.632	3.41
818.81	19.8
818.988	11.61
819.167	-62.12
819.345	11.61
819.523	1.37
819.701	-0.68
819.879	60.76
820.058	9.56
820.236	77.14
820.414	68.95
820.592	-0.68
820.77	-10.92
820.948	-33.45
821.127	19.8
821.305	9.56
821.483	-43.69
821.661	111.96
821.839	44.37
822.017	-62.12
822.195	-37.55
822.373	36.18
822.551	13.65
822.729	97.62
822.907	-17.07
823.085	60.76
823.262	79.19
823.44	-62.12
823.618	-15.02
823.796	-25.26
823.974	11.61
824.152	25.94
824.329	-25.26
824.507	13.65
824.685	27.99
824.863	36.18
825.04	-21.16
825.218	73.04
825.396	-6.83
825.574	25.94
825.751	60.76
825.929	60.76
826.107	5.46
826.284	40.28
826.462	101.72
826.639	-33.45
826.817	-21.16
826.994	-35.5
827.172	-84.65
827.349	87.38
827.527	25.94
827.704	32.08
827.882	99.67
828.059	46.42
828.237	89.43
828.414	58.71
828.591	-113.32
828.769	-23.21
828.946	-70.31
829.124	-4.78
829.301	157.01
829.478	36.18
829.655	13.65
829.833	68.95
830.01	-129.7
830.187	52.56
830.364	-62.12
830.542	7.51
830.719	95.57
830.896	48.47
831.073	-10.92
831.25	89.43
831.427	5.46
831.604	-29.35
831.782	3.41
831.959	54.61
832.136	-15.02
832.313	46.42
832.49	50.52
832.667	15.7
832.844	-15.02
833.021	40.28
833.198	-12.97
833.374	54.61
833.551	15.7
833.728	-4.78
833.905	109.91
834.082	-125.61
834.259	11.61
834.436	48.47
834.612	-62.12
834.789	71
834.966	54.61
835.143	64.85
835.319	-53.93
835.496	46.42
835.673	77.14
835.85	62.8
836.026	-2.73
836.203	-23.21
836.38	-49.83
836.556	-8.87
836.733	1.37
836.909	83.28
837.086	-86.7
837.262	-94.89
837.439	-4.78
837.616	-62.12
837.792	40.28
837.968	-68.27
838.145	-21.16
838.321	30.04
838.498	83.28
838.674	27.99
838.851	23.89
839.027	-39.59
839.203	32.08
839.38	27.99
839.556	-0.68
839.732	89.43
839.909	-15.02
840.085	75.09
840.261	-21.16
840.437	91.48
840.614	13.65
840.79	154.96
840.966	109.91
841.142	-19.11
841.318	-51.88
841.494	50.52
841.671	-33.45
841.847	-53.93
842.023	-72.36
842.199	44.37
842.375	89.43
842.551	-8.87
842.727	-53.93
842.903	83.28
843.079	11.61
843.255	87.38
843.431	5.46
843.607	93.52
843.783	-131.75
843.959	101.72
844.134	-21.16
844.31	71
844.486	-58.03
844.662	40.28
844.838	30.04
845.013	66.9
845.189	75.09
845.365	25.94
845.541	-29.35
845.716	-29.35
845.892	146.77
846.068	-76.46
846.244	-29.35
846.419	50.52
846.595	-15.02
846.77	-27.31
846.946	134.48
847.122	-2.73
847.297	5.46
847.473	103.76
847.648	-96.94
847.824	15.7
847.999	-170.66
848.175	-35.5
848.35	19.8
848.526	87.38
848.701	91.48
848.876	40.28
849.052	99.67
849.227	-21.16
849.403	36.18
849.578	7.51
849.753	44.37
849.929	-49.83
850.104	-160.42
850.279	-10.92
850.454	23.89
850.63	-2.73
850.805	34.13
850.98	-12.97
851.155	-39.59
851.33	3.41
851.505	-51.88
851.681	154.96
851.856	-2.73
852.031	17.75
852.206	9.56
852.381	-86.7
852.556	23.89
852.731	11.61
852.906	46.42
853.081	-47.79
853.256	99.67
853.431	-8.87
853.606	-82.6
853.781	7.51
853.956	-123.56
854.131	36.18
854.305	-0.68
854.48	-76.46
854.655	-88.75
854.83	-109.22
855.005	-53.93
855.18	23.89
855.354	-84.65
855.529	58.71
855.704	-2.73
855.879	89.43
856.053	-49.83
856.228	50.52
856.403	27.99
856.577	13.65
856.752	-41.64
856.926	75.09
857.101	48.47
857.276	-96.94
857.45	5.46
857.625	58.71
857.799	15.7
857.974	-45.74
858.148	-156.33
858.323	-60.07
858.497	1.37
858.672	-47.79
858.846	-51.88
859.02	75.09
859.195	-51.88
859.369	50.52
859.543	32.08
859.718	-31.4
859.892	34.13
860.066	40.28
860.241	19.8
860.415	48.47
860.589	17.75
860.763	17.75
860.938	58.71
861.112	34.13
861.286	-8.87
861.46	34.13
861.634	-17.07
861.808	13.65
861.982	-25.26
862.157	-125.61
862.331	25.94
862.505	-131.75
862.679	-139.94
862.853	21.85
863.027	34.13
863.201	171.35
863.375	7.51
863.549	-15.02
863.722	62.8
863.896	122.2
864.07	-6.83
864.244	25.94
864.418	89.43
864.592	38.23
864.766	36.18
864.939	-12.97
865.113	-86.7
865.287	87.38
865.461	-68.27
865.634	-4.78
865.808	27.99
865.982	13.65
866.156	-19.11
866.329	-133.8
866.503	-92.84
866.676	17.75
866.85	42.32
867.024	-2.73
867.197	54.61
867.371	34.13
867.544	81.24
867.718	-47.79
867.891	68.95
868.065	-37.55
868.238	9.56
868.412	60.76
868.585	44.37
868.759	-74.41
868.932	-35.5
869.105	-96.94
869.279	34.13
869.452	-41.64
869.625	95.57
869.799	-23.21
869.972	-23.21
870.145	-45.74
870.319	114
870.492	-45.74
870.665	23.89
870.838	7.51
871.011	-158.38
871.185	-27.31
871.358	-29.35
871.531	91.48
871.704	34.13
871.877	27.99
872.05	-60.07
872.223	-60.07
872.396	5.46
872.569	81.24
872.742	-109.22
872.915	3.41
873.088	-62.12
873.261	-92.84
873.434	62.8
873.607	13.65
873.78	62.8
873.953	-80.55
874.126	73.04
874.299	71
874.471	-43.69
874.644	-21.16
874.817	17.75
874.99	157.01
875.163	-10.92
875.335	23.89
875.508	15.7
875.681	128.34
875.853	-8.87
876.026	-8.87
876.199	95.57
876.371	34.13
876.544	23.89
876.717	32.08
876.889	-12.97
877.062	21.85
877.234	-15.02
877.407	-103.08
877.579	77.14
877.752	-6.83
877.924	54.61
878.097	46.42
878.269	38.23
878.442	-25.26
878.614	15.7
878.786	40.28
878.959	13.65
879.131	-78.51
879.303	-53.93
879.476	-70.31
879.648	27.99
879.82	40.28
879.993	-4.78
880.165	-86.7
880.337	-119.46
880.509	58.71
880.681	-164.52
880.854	-92.84
881.026	62.8
881.198	154.96
881.37	9.56
881.542	-12.97
881.714	32.08
881.886	-27.31
882.058	56.66
882.23	46.42
882.402	21.85
882.574	-35.5
882.746	42.32
882.918	171.35
883.09	38.23
883.262	-0.68
883.434	11.61
883.606	-139.94
883.778	21.85
883.95	95.57
884.122	-94.89
884.293	50.52
884.465	23.89
884.637	7.51
884.809	13.65
884.98	50.52
885.152	36.18
885.324	58.71
885.496	-35.5
885.667	25.94
885.839	-45.74
886.011	148.82
886.182	126.29
886.354	60.76
886.525	101.72
886.697	11.61
886.869	-80.55
887.04	-33.45
887.212	114
887.383	130.39
887.555	36.18
887.726	-64.17
887.897	54.61
888.069	23.89
888.24	48.47
888.412	-41.64
888.583	-23.21
888.754	-15.02
888.926	-8.87
889.097	-12.97
889.268	-107.18
889.44	-12.97
889.611	-43.69
889.782	-80.55
889.953	-70.31
890.125	87.38
890.296	-70.31
890.467	-82.6
890.638	25.94
890.809	-19.11
890.98	-86.7
891.151	48.47
891.323	40.28
891.494	17.75
891.665	30.04
891.836	13.65
892.007	25.94
892.178	46.42
892.349	-27.31
892.52	-58.03
892.691	15.7
892.862	-82.6
893.032	-103.08
893.203	-35.5
893.374	34.13
893.545	64.85
893.716	-39.59
893.887	146.77
894.057	56.66
894.228	40.28
894.399	-53.93
894.57	73.04
894.74	13.65
894.911	120.15
895.082	-23.21
895.253	-6.83
895.423	-6.83
895.594	60.76
895.764	60.76
895.935	-51.88
896.106	62.8
896.276	-51.88
896.447	42.32
896.617	-74.41
896.788	-107.18
896.958	-15.02
897.129	-19.11
897.299	-49.83
897.47	118.1
897.64	-6.83
897.81	-8.87
897.981	79.19
898.151	-12.97
898.322	85.33
898.492	7.51
898.662	-29.35
898.832	-35.5
899.003	-92.84
899.173	144.72
899.343	-94.89
899.513	-41.64
