Data from USB4F104151__67__10-43-57-773.txt Node

Date: Wed Feb 26 10:43:57 EST 2025
User: louis
Spectrometer: USB4F10415
Trigger mode: 4
Integration Time (sec): 1.000000E-1
Scans to average: 1
Electric dark correction enabled: true
Nonlinearity correction enabled: false
Boxcar width: 0
XAxis mode: Wavelengths
Number of Pixels in Spectrum: 3648
>>>>>Begin Spectral Data<<<<<
178.204	-454.31
178.424	-454.31
178.644	-454.31
178.864	-429.73
179.084	-401.06
179.304	-9.9
179.524	-73.39
179.744	16.73
179.964	80.21
180.184	-77.48
180.404	-7.85
180.624	-16.04
180.844	-3.75
181.064	-46.76
181.283	80.21
181.503	-9.9
181.723	67.92
181.943	-110.25
182.163	139.6
182.383	-18.09
182.602	51.54
182.822	137.56
183.042	45.4
183.262	-34.47
183.482	4.44
183.701	-20.14
183.921	22.87
184.141	-75.43
184.361	133.46
184.58	53.59
184.8	63.83
185.02	8.53
185.239	59.73
185.459	98.64
185.679	151.89
185.898	-73.39
186.118	104.79
186.338	-3.75
186.557	61.78
186.777	-100.01
186.997	-5.8
187.216	51.54
187.436	129.36
187.655	121.17
187.875	74.07
188.095	-26.28
188.314	184.66
188.534	119.12
188.753	-13.99
188.973	141.65
189.192	186.71
189.412	33.11
189.631	108.88
189.851	8.53
190.07	117.08
190.29	14.68
190.509	31.06
190.729	63.83
190.948	131.41
191.168	254.29
191.387	57.68
191.607	-57
191.826	112.98
192.045	-7.85
192.265	53.59
192.484	117.08
192.704	35.16
192.923	-63.15
193.142	205.14
193.362	160.08
193.581	166.23
193.8	74.07
194.02	55.64
194.239	45.4
194.458	98.64
194.678	-5.8
194.897	31.06
195.116	80.21
195.335	119.12
195.555	53.59
195.774	8.53
195.993	92.5
196.212	-30.38
196.432	29.01
196.651	57.68
196.87	80.21
197.089	235.86
197.308	80.21
197.528	131.41
197.747	-16.04
197.966	139.6
198.185	115.03
198.404	-32.43
198.623	110.93
198.842	110.93
199.062	119.12
199.281	266.58
199.5	108.88
199.719	69.97
199.938	43.35
200.157	12.63
200.376	78.16
200.595	98.64
200.814	57.68
201.033	31.06
201.252	211.28
201.471	59.73
201.69	33.11
201.909	22.87
202.128	145.75
202.347	14.68
202.566	57.68
202.785	-54.95
203.004	18.77
203.223	250.19
203.442	78.16
203.661	20.82
203.879	-13.99
204.098	141.65
204.317	-57
204.536	51.54
204.755	24.92
204.974	92.5
205.193	29.01
205.411	182.61
205.63	123.22
205.849	2.39
206.068	-18.09
206.287	-73.39
206.505	207.19
206.724	43.35
206.943	2.39
207.162	2.39
207.381	-18.09
207.599	106.84
207.818	39.25
208.037	31.06
208.255	-110.25
208.474	18.77
208.693	78.16
208.911	57.68
209.13	102.74
209.349	49.49
209.567	100.69
209.786	-20.14
210.005	84.31
210.223	43.35
210.442	-24.23
210.661	74.07
210.879	88.4
211.098	55.64
211.316	49.49
211.535	96.6
211.753	72.02
211.972	29.01
212.191	-26.28
212.409	102.74
212.628	82.26
212.846	-106.15
213.065	-44.71
213.283	108.88
213.502	26.96
213.72	33.11
213.938	69.97
214.157	26.96
214.375	90.45
214.594	2.39
214.812	65.88
215.031	-61.1
215.249	35.16
215.467	117.08
215.686	18.77
215.904	57.68
216.122	51.54
216.341	117.08
216.559	43.35
216.778	90.45
216.996	117.08
217.214	33.11
217.432	49.49
217.651	-93.87
217.869	18.77
218.087	53.59
218.306	29.01
218.524	6.49
218.742	2.39
218.96	78.16
219.179	65.88
219.397	4.44
219.615	272.72
219.833	55.64
220.051	-22.19
220.27	92.5
220.488	106.84
220.706	55.64
220.924	12.63
221.142	2.39
221.36	37.2
221.578	78.16
221.796	26.96
222.015	-40.62
222.233	86.36
222.451	119.12
222.669	-40.62
222.887	37.2
223.105	-46.76
223.323	4.44
223.541	-97.96
223.759	57.68
223.977	37.2
224.195	256.34
224.413	115.03
224.631	33.11
224.849	14.68
225.067	174.42
225.285	41.3
225.503	-67.24
225.721	-73.39
225.939	61.78
226.157	6.49
226.375	229.71
226.592	26.96
226.81	104.79
227.028	106.84
227.246	139.6
227.464	106.84
227.682	104.79
227.9	63.83
228.117	125.27
228.335	110.93
228.553	31.06
228.771	29.01
228.989	43.35
229.206	65.88
229.424	-11.95
229.642	-38.57
229.86	2.39
230.077	117.08
230.295	-26.28
230.513	96.6
230.731	12.63
230.948	184.66
231.166	119.12
231.384	8.53
231.601	-61.1
231.819	217.43
232.037	6.49
232.254	-69.29
232.472	41.3
232.689	-30.38
232.907	149.84
233.125	53.59
233.342	24.92
233.56	-52.91
233.777	0.34
233.995	31.06
234.213	135.51
234.43	82.26
234.648	78.16
234.865	-34.47
235.083	63.83
235.3	33.11
235.518	59.73
235.735	135.51
235.953	61.78
236.17	51.54
236.388	33.11
236.605	26.96
236.822	160.08
237.04	145.75
237.257	-13.99
237.475	-30.38
237.692	100.69
237.909	74.07
238.127	39.25
238.344	26.96
238.562	6.49
238.779	86.36
238.996	55.64
239.214	69.97
239.431	98.64
239.648	37.2
239.865	59.73
240.083	78.16
240.3	-11.95
240.517	0.34
240.735	22.87
240.952	223.57
241.169	29.01
241.386	80.21
241.603	80.21
241.821	16.73
242.038	22.87
242.255	90.45
242.472	-38.57
242.689	65.88
242.907	104.79
243.124	164.18
243.341	14.68
243.558	29.01
243.775	-30.38
243.992	-73.39
244.209	80.21
244.426	153.94
244.643	137.56
244.86	55.64
245.078	59.73
245.295	90.45
245.512	49.49
245.729	6.49
245.946	108.88
246.163	67.92
246.38	47.44
246.597	39.25
246.814	90.45
247.031	53.59
247.248	53.59
247.464	94.55
247.681	53.59
247.898	69.97
248.115	29.01
248.332	20.82
248.549	172.37
248.766	291.15
248.983	53.59
249.2	80.21
249.417	170.32
249.633	10.58
249.85	88.4
250.067	24.92
250.284	72.02
250.501	0.34
250.717	-7.85
250.934	-52.91
251.151	102.74
251.368	-1.71
251.585	162.13
251.801	20.82
252.018	-34.47
252.235	125.27
252.451	-26.28
252.668	-28.33
252.885	139.6
253.102	69.97
253.318	-42.67
253.535	49.49
253.752	8.53
253.968	-71.34
254.185	-9.9
254.401	94.55
254.618	110.93
254.835	20.82
255.051	92.5
255.268	106.84
255.484	14.68
255.701	22.87
255.917	74.07
256.134	-7.85
256.351	24.92
256.567	63.83
256.784	100.69
257	2.39
257.217	61.78
257.433	127.32
257.65	-5.8
257.866	139.6
258.082	-36.52
258.299	-7.85
258.515	-9.9
258.732	-16.04
258.948	8.53
259.165	55.64
259.381	-16.04
259.597	41.3
259.814	55.64
260.03	10.58
260.246	-11.95
260.463	82.26
260.679	149.84
260.895	100.69
261.112	88.4
261.328	-36.52
261.544	16.73
261.761	233.81
261.977	26.96
262.193	-42.67
262.409	129.36
262.626	41.3
262.842	20.82
263.058	12.63
263.274	49.49
263.49	127.32
263.707	12.63
263.923	43.35
264.139	-38.57
264.355	29.01
264.571	43.35
264.787	41.3
265.004	135.51
265.22	6.49
265.436	0.34
265.652	-30.38
265.868	31.06
266.084	-30.38
266.3	41.3
266.516	-22.19
266.732	24.92
266.948	45.4
267.164	-24.23
267.38	78.16
267.596	-20.14
267.812	184.66
268.028	59.73
268.244	4.44
268.46	61.78
268.676	78.16
268.892	45.4
269.108	18.77
269.324	-9.9
269.54	-77.48
269.756	80.21
269.972	10.58
270.188	-9.9
270.403	26.96
270.619	90.45
270.835	115.03
271.051	51.54
271.267	37.2
271.483	-44.71
271.698	84.31
271.914	74.07
272.13	47.44
272.346	35.16
272.562	78.16
272.777	115.03
272.993	-1.71
273.209	47.44
273.425	49.49
273.64	-100.01
273.856	139.6
274.072	10.58
274.287	86.36
274.503	35.16
274.719	88.4
274.934	-13.99
275.15	-18.09
275.366	6.49
275.581	18.77
275.797	4.44
276.012	135.51
276.228	72.02
276.444	49.49
276.659	147.8
276.875	-5.8
277.09	8.53
277.306	12.63
277.521	41.3
277.737	0.34
277.952	47.44
278.168	14.68
278.383	63.83
278.599	43.35
278.814	98.64
279.03	72.02
279.245	139.6
279.461	29.01
279.676	215.38
279.892	-36.52
280.107	-30.38
280.322	-69.29
280.538	90.45
280.753	-83.63
280.969	57.68
281.184	-13.99
281.399	160.08
281.615	47.44
281.83	12.63
282.045	2.39
282.26	8.53
282.476	67.92
282.691	33.11
282.906	-13.99
283.122	69.97
283.337	-32.43
283.552	-7.85
283.767	72.02
283.983	96.6
284.198	86.36
284.413	35.16
284.628	-81.58
284.843	18.77
285.058	49.49
285.274	55.64
285.489	-26.28
285.704	59.73
285.919	-5.8
286.134	69.97
286.349	33.11
286.564	-11.95
286.779	184.66
286.995	14.68
287.21	-81.58
287.425	106.84
287.64	86.36
287.855	47.44
288.07	-102.06
288.285	69.97
288.5	164.18
288.715	86.36
288.93	-3.75
289.145	-9.9
289.36	98.64
289.575	2.39
289.79	135.51
290.004	16.73
290.219	102.74
290.434	14.68
290.649	-46.76
290.864	-28.33
291.079	22.87
291.294	162.13
291.509	92.5
291.724	33.11
291.938	20.82
292.153	63.83
292.368	29.01
292.583	43.35
292.798	57.68
293.012	39.25
293.227	74.07
293.442	-7.85
293.657	94.55
293.871	115.03
294.086	100.69
294.301	176.47
294.516	145.75
294.73	49.49
294.945	-32.43
295.16	63.83
295.374	137.56
295.589	141.65
295.804	49.49
296.018	26.96
296.233	129.36
296.447	90.45
296.662	18.77
296.877	104.79
297.091	100.69
297.306	59.73
297.52	24.92
297.735	86.36
297.949	57.68
298.164	14.68
298.378	78.16
298.593	-28.33
298.807	12.63
299.022	12.63
299.236	131.41
299.451	33.11
299.665	41.3
299.88	80.21
300.094	8.53
300.309	4.44
300.523	37.2
300.737	112.98
300.952	96.6
301.166	63.83
301.381	-71.34
301.595	26.96
301.809	20.82
302.024	57.68
302.238	-38.57
302.452	139.6
302.667	49.49
302.881	76.12
303.095	209.23
303.309	86.36
303.524	-52.91
303.738	8.53
303.952	-28.33
304.166	57.68
304.381	0.34
304.595	123.22
304.809	20.82
305.023	43.35
305.237	6.49
305.452	10.58
305.666	106.84
305.88	86.36
306.094	61.78
306.308	-7.85
306.522	110.93
306.736	86.36
306.95	117.08
307.164	4.44
307.379	-59.05
307.593	192.85
307.807	88.4
308.021	88.4
308.235	168.27
308.449	-26.28
308.663	76.12
308.877	201.04
309.091	72.02
309.305	31.06
309.519	-65.19
309.733	117.08
309.947	-69.29
310.161	18.77
310.374	145.75
310.588	106.84
310.802	6.49
311.016	-38.57
311.23	20.82
311.444	24.92
311.658	74.07
311.872	172.37
312.085	94.55
312.299	115.03
312.513	203.09
312.727	37.2
312.941	-95.91
313.154	51.54
313.368	72.02
313.582	86.36
313.796	24.92
314.009	22.87
314.223	155.99
314.437	143.7
314.651	82.26
314.864	-16.04
315.078	-1.71
315.292	-34.47
315.505	-13.99
315.719	24.92
315.933	78.16
316.146	18.77
316.36	-20.14
316.573	110.93
316.787	47.44
317.001	94.55
317.214	-95.91
317.428	65.88
317.641	-18.09
317.855	-42.67
318.068	37.2
318.282	55.64
318.495	135.51
318.709	20.82
318.922	61.78
319.136	162.13
319.349	90.45
319.563	-7.85
319.776	139.6
319.99	22.87
320.203	117.08
320.417	-36.52
320.63	186.71
320.843	115.03
321.057	92.5
321.27	26.96
321.483	45.4
321.697	119.12
321.91	69.97
322.124	92.5
322.337	80.21
322.55	69.97
322.763	47.44
322.977	37.2
323.19	-18.09
323.403	37.2
323.617	65.88
323.83	29.01
324.043	-1.71
324.256	63.83
324.469	-34.47
324.683	90.45
324.896	0.34
325.109	-18.09
325.322	-89.77
325.535	160.08
325.748	104.79
325.962	82.26
326.175	69.97
326.388	98.64
326.601	141.65
326.814	61.78
327.027	37.2
327.24	225.62
327.453	-83.63
327.666	86.36
327.879	100.69
328.092	55.64
328.305	26.96
328.518	-42.67
328.731	-3.75
328.944	4.44
329.157	139.6
329.37	-22.19
329.583	260.43
329.796	131.41
330.009	-26.28
330.222	102.74
330.435	106.84
330.648	31.06
330.861	47.44
331.073	49.49
331.286	100.69
331.499	69.97
331.712	-1.71
331.925	108.88
332.138	47.44
332.35	63.83
332.563	-34.47
332.776	258.39
332.989	-44.71
333.202	78.16
333.414	100.69
333.627	-38.57
333.84	41.3
334.053	63.83
334.265	-30.38
334.478	20.82
334.691	-11.95
334.903	69.97
335.116	-61.1
335.329	37.2
335.541	65.88
335.754	215.38
335.966	-30.38
336.179	14.68
336.392	-83.63
336.604	47.44
336.817	162.13
337.029	35.16
337.242	41.3
337.454	63.83
337.667	-9.9
337.88	147.8
338.092	90.45
338.305	90.45
338.517	-5.8
338.729	92.5
338.942	166.23
339.154	-42.67
339.367	-71.34
339.579	43.35
339.792	-32.43
340.004	98.64
340.217	26.96
340.429	117.08
340.641	22.87
340.854	-36.52
341.066	74.07
341.278	74.07
341.491	108.88
341.703	53.59
341.915	106.84
342.128	131.41
342.34	47.44
342.552	-22.19
342.764	57.68
342.977	35.16
343.189	78.16
343.401	22.87
343.613	-73.39
343.826	82.26
344.038	-30.38
344.25	80.21
344.462	-7.85
344.674	117.08
344.886	-16.04
345.099	45.4
345.311	96.6
345.523	-28.33
345.735	-81.58
345.947	26.96
346.159	67.92
346.371	65.88
346.583	45.4
346.795	182.61
347.007	53.59
347.219	131.41
347.431	74.07
347.643	20.82
347.855	53.59
348.067	164.18
348.279	-11.95
348.491	-9.9
348.703	53.59
348.915	39.25
349.127	39.25
349.339	24.92
349.551	12.63
349.763	123.22
349.975	39.25
350.187	112.98
350.399	76.12
350.61	86.36
350.822	6.49
351.034	6.49
351.246	82.26
351.458	35.16
351.669	90.45
351.881	80.21
352.093	151.89
352.305	84.31
352.517	-7.85
352.728	98.64
352.94	63.83
353.152	125.27
353.363	-3.75
353.575	112.98
353.787	127.32
353.999	47.44
354.21	149.84
354.422	33.11
354.633	-32.43
354.845	0.34
355.057	33.11
355.268	82.26
355.48	141.65
355.692	37.2
355.903	78.16
356.115	37.2
356.326	-65.19
356.538	72.02
356.749	106.84
356.961	168.27
357.172	90.45
357.384	-3.75
357.595	221.52
357.807	4.44
358.018	-11.95
358.23	22.87
358.441	133.46
358.653	47.44
358.864	39.25
359.075	-63.15
359.287	63.83
359.498	78.16
359.709	61.78
359.921	37.2
360.132	102.74
360.344	55.64
360.555	39.25
360.766	61.78
360.977	69.97
361.189	139.6
361.4	51.54
361.611	67.92
361.823	82.26
362.034	74.07
362.245	-59.05
362.456	16.73
362.667	86.36
362.879	-16.04
363.09	49.49
363.301	2.39
363.512	0.34
363.723	-30.38
363.935	55.64
364.146	78.16
364.357	-3.75
364.568	104.79
364.779	-97.96
364.99	186.71
365.201	-30.38
365.412	151.89
365.623	-44.71
365.834	72.02
366.045	84.31
366.256	96.6
366.467	119.12
366.678	41.3
366.889	-67.24
367.1	-69.29
367.311	135.51
367.522	6.49
367.733	141.65
367.944	108.88
368.155	51.54
368.366	106.84
368.577	117.08
368.788	84.31
368.999	31.06
369.209	53.59
369.42	219.47
369.631	149.84
369.842	96.6
370.053	22.87
370.264	74.07
370.474	-69.29
370.685	90.45
370.896	10.58
371.107	115.03
371.317	143.7
371.528	0.34
371.739	88.4
371.95	37.2
372.16	82.26
372.371	-11.95
372.582	0.34
372.792	74.07
373.003	125.27
373.214	115.03
373.424	96.6
373.635	24.92
373.846	133.46
374.056	-20.14
374.267	20.82
374.477	65.88
374.688	-36.52
374.898	67.92
375.109	96.6
375.319	94.55
375.53	125.27
375.74	61.78
375.951	63.83
376.161	57.68
376.372	131.41
376.582	-28.33
376.793	18.77
377.003	-22.19
377.214	45.4
377.424	121.17
377.635	141.65
377.845	-48.81
378.055	151.89
378.266	-85.67
378.476	16.73
378.686	18.77
378.897	49.49
379.107	184.66
379.317	90.45
379.528	-5.8
379.738	119.12
379.948	-79.53
380.158	112.98
380.369	47.44
380.579	78.16
380.789	78.16
380.999	88.4
381.21	86.36
381.42	278.87
381.63	37.2
381.84	137.56
382.05	80.21
382.261	110.93
382.471	180.56
382.681	12.63
382.891	166.23
383.101	80.21
383.311	35.16
383.521	20.82
383.731	74.07
383.941	41.3
384.151	22.87
384.361	74.07
384.571	115.03
384.781	57.68
384.991	215.38
385.201	80.21
385.411	-7.85
385.621	125.27
385.831	49.49
386.041	59.73
386.251	47.44
386.461	149.84
386.671	-3.75
386.881	69.97
387.091	45.4
387.301	74.07
387.511	10.58
387.72	43.35
387.93	88.4
388.14	-52.91
388.35	37.2
388.56	102.74
388.769	106.84
388.979	63.83
389.189	-30.38
389.399	53.59
389.609	145.75
389.818	76.12
390.028	41.3
390.238	119.12
390.447	6.49
390.657	106.84
390.867	96.6
391.076	-50.86
391.286	86.36
391.496	51.54
391.705	26.96
391.915	69.97
392.125	158.03
392.334	-42.67
392.544	196.95
392.753	117.08
392.963	10.58
393.172	39.25
393.382	26.96
393.591	194.9
393.801	74.07
394.01	170.32
394.22	47.44
394.429	41.3
394.639	49.49
394.848	33.11
395.058	39.25
395.267	18.77
395.477	86.36
395.686	67.92
395.895	248.15
396.105	194.9
396.314	-20.14
396.524	112.98
396.733	43.35
396.942	205.14
397.152	47.44
397.361	90.45
397.57	8.53
397.78	18.77
397.989	172.37
398.198	166.23
398.407	-7.85
398.617	29.01
398.826	104.79
399.035	92.5
399.244	155.99
399.453	37.2
399.663	26.96
399.872	31.06
400.081	-48.81
400.29	61.78
400.499	86.36
400.708	0.34
400.917	47.44
401.127	10.58
401.336	-44.71
401.545	194.9
401.754	153.94
401.963	188.75
402.172	72.02
402.381	-44.71
402.59	67.92
402.799	100.69
403.008	84.31
403.217	37.2
403.426	-20.14
403.635	-63.15
403.844	59.73
404.053	84.31
404.262	37.2
404.471	227.67
404.68	129.36
404.888	37.2
405.097	102.74
405.306	37.2
405.515	133.46
405.724	47.44
405.933	61.78
406.142	115.03
406.35	125.27
406.559	41.3
406.768	49.49
406.977	198.99
407.185	92.5
407.394	133.46
407.603	-52.91
407.812	-1.71
408.02	158.03
408.229	45.4
408.438	45.4
408.646	-1.71
408.855	59.73
409.064	143.7
409.272	37.2
409.481	35.16
409.69	-69.29
409.898	10.58
410.107	141.65
410.315	102.74
410.524	47.44
410.733	-18.09
410.941	33.11
411.15	153.94
411.358	168.27
411.567	188.75
411.775	57.68
411.984	82.26
412.192	35.16
412.401	-9.9
412.609	164.18
412.818	158.03
413.026	80.21
413.234	47.44
413.443	-3.75
413.651	16.73
413.86	2.39
414.068	125.27
414.276	149.84
414.485	115.03
414.693	170.32
414.901	160.08
415.11	115.03
415.318	20.82
415.526	100.69
415.734	229.71
415.943	37.2
416.151	117.08
416.359	0.34
416.567	115.03
416.776	106.84
416.984	86.36
417.192	174.42
417.4	-48.81
417.608	29.01
417.817	33.11
418.025	61.78
418.233	188.75
418.441	-16.04
418.649	18.77
418.857	88.4
419.065	172.37
419.273	49.49
419.481	47.44
419.689	31.06
419.897	4.44
420.105	8.53
420.313	168.27
420.521	149.84
420.729	198.99
420.937	-11.95
421.145	0.34
421.353	158.03
421.561	170.32
421.769	153.94
421.977	45.4
422.185	198.99
422.393	37.2
422.601	145.75
422.809	72.02
423.017	76.12
423.224	98.64
423.432	86.36
423.64	112.98
423.848	92.5
424.056	22.87
424.263	141.65
424.471	24.92
424.679	143.7
424.887	47.44
425.094	119.12
425.302	106.84
425.51	29.01
425.718	133.46
425.925	151.89
426.133	59.73
426.341	205.14
426.548	57.68
426.756	26.96
426.964	57.68
427.171	-9.9
427.379	188.75
427.586	63.83
427.794	86.36
428.001	86.36
428.209	80.21
428.417	108.88
428.624	227.67
428.832	127.32
429.039	141.65
429.247	145.75
429.454	137.56
429.662	143.7
429.869	53.59
430.076	205.14
430.284	110.93
430.491	244.05
430.699	172.37
430.906	215.38
431.114	100.69
431.321	168.27
431.528	115.03
431.736	158.03
431.943	242
432.15	282.96
432.358	188.75
432.565	268.63
432.772	104.79
432.979	285.01
433.187	37.2
433.394	203.09
433.601	155.99
433.808	264.53
434.016	217.43
434.223	262.48
434.43	207.19
434.637	242
434.844	268.63
435.052	250.19
435.259	164.18
435.466	225.62
435.673	297.3
435.88	313.68
436.087	362.83
436.294	387.41
436.501	328.02
436.708	340.3
436.915	203.09
437.122	336.21
437.329	303.44
437.537	387.41
437.743	409.94
437.95	448.85
438.157	319.82
438.364	424.27
438.571	342.35
438.778	379.22
438.985	424.27
439.192	405.84
439.399	364.88
439.606	422.22
439.813	526.67
440.02	731.47
440.227	659.79
440.433	618.83
440.64	479.57
440.847	495.95
441.054	573.77
441.261	672.08
441.467	614.73
441.674	567.63
441.881	672.08
442.088	606.54
442.294	737.61
442.501	751.95
442.708	749.9
442.914	811.34
443.121	809.29
443.328	901.45
443.534	880.97
443.741	917.83
443.948	848.2
444.154	844.1
444.361	1139.01
444.568	948.55
444.774	966.98
444.981	891.21
445.187	1247.55
445.394	1214.79
445.6	1167.68
445.807	1278.27
446.013	1239.36
446.22	1089.86
446.426	1329.47
446.633	1507.65
446.839	1528.13
447.046	1397.06
447.252	1515.84
447.459	1550.65
447.665	1663.29
447.871	1714.49
448.078	1808.7
448.284	1851.71
448.491	1894.71
448.697	1890.62
448.903	2148.66
449.11	2097.46
449.316	1997.11
449.522	2230.58
449.728	2326.83
449.935	2421.04
450.141	2478.38
450.347	2580.78
450.553	2664.75
450.76	2756.91
450.966	2906.41
451.172	2793.77
451.378	3043.62
451.584	3014.95
451.791	3252.52
451.997	3432.74
452.203	3348.77
452.409	3639.58
452.615	3784.99
452.821	3662.11
453.027	3617.05
453.233	4096.28
453.44	4155.67
453.646	4131.09
453.852	4436.24
454.058	4698.38
454.264	4620.56
454.47	5120.26
454.676	5196.04
454.882	5361.92
455.088	5286.15
455.294	5490.95
455.5	5892.35
455.705	6273.27
455.911	6383.86
456.117	6396.15
456.323	6904.04
456.529	6846.7
456.735	7323.88
456.941	7370.98
457.147	7827.68
457.352	7919.84
457.558	7999.71
457.764	8650.96
457.97	9013.45
458.176	9269.45
458.381	9801.92
458.587	9922.75
458.793	10436.79
458.999	10492.09
459.204	11460.77
459.41	12150.94
459.616	11974.81
459.821	12476.57
460.027	13047.95
460.233	13691.01
460.438	13705.35
460.644	14487.67
460.85	14753.91
461.055	15224.94
461.261	15978.59
461.466	15433.83
461.672	15943.78
461.878	18194.5
462.083	17766.47
462.289	18233.41
462.494	18892.85
462.7	19251.25
462.905	19206.19
463.111	20529.18
463.316	22237.19
463.522	22173.7
463.727	22775.8
463.932	23934.95
464.138	24238.05
464.343	25579.47
464.549	25651.15
464.754	27594.67
464.959	28358.56
465.165	28770.21
465.37	28579.75
465.575	28592.03
465.781	30640
465.986	31442.81
466.191	31244.15
466.397	31100.79
466.602	30564.23
466.807	31993.71
467.012	32493.41
467.218	33496.92
467.423	33179.48
467.628	34563.91
467.833	36271.92
468.038	35628.85
468.244	35008.32
468.449	36648.74
468.654	36159.28
468.859	35899.19
469.064	35845.94
469.269	34848.58
469.474	35389.24
469.679	36489
469.885	35419.96
470.09	35485.5
470.295	36341.55
470.5	35104.57
470.705	35417.91
470.91	34402.12
471.115	34281.29
471.32	34731.84
471.525	34582.34
471.73	33296.22
471.935	33367.9
472.139	32122.73
472.344	32235.37
472.549	31883.12
472.754	31547.25
472.959	30662.53
473.164	29753.23
473.369	29521.81
473.574	29996.94
473.778	29493.14
473.983	28841.89
474.188	28368.8
474.393	27172.79
474.598	27310
474.802	26243.01
475.007	26175.43
475.212	25880.52
475.417	24999.9
475.621	24733.66
475.826	24459.23
476.031	23674.86
476.235	23250.93
476.44	23269.36
476.645	22716.41
476.849	22654.97
477.054	22171.65
477.259	21684.23
477.463	21422.09
477.668	20912.15
477.872	21221.39
478.077	20426.78
478.282	19775.53
478.486	19839.01
478.691	19241.01
478.895	19333.17
479.1	19142.71
479.304	19032.11
479.509	18294.85
479.713	18434.11
479.918	18372.67
480.122	17616.97
480.326	18190.4
480.531	18034.75
480.735	17776.71
480.94	17326.16
481.144	17883.2
481.348	16771.16
481.553	17037.39
481.757	16740.44
481.961	16711.77
482.166	16867.41
482.37	16412.76
482.574	16083.04
482.778	16222.3
482.983	16564.31
483.187	16171.1
483.391	16115.81
483.595	15796.32
483.8	15478.89
484.004	15493.22
484.208	15390.83
484.412	15296.62
484.616	15394.92
484.821	15089.78
485.025	14610.55
485.229	14606.45
485.433	14293.12
485.637	14469.24
485.841	13922.43
486.045	13774.98
486.249	13953.15
486.453	13566.09
486.657	13467.78
486.861	13152.4
487.065	12785.81
487.269	13041.81
487.473	12378.26
487.677	12529.81
487.881	12384.41
488.085	12103.84
488.289	11882.66
488.493	11667.62
488.697	11544.74
488.901	11436.2
489.105	10827.95
489.309	11020.46
489.512	10877.1
489.716	10680.5
489.92	10326.2
490.124	10248.38
490.328	10219.71
490.531	9806.02
490.735	9803.97
490.939	9496.77
491.143	9406.66
491.346	9380.04
491.55	9064.65
491.754	9060.56
491.958	8820.94
492.161	8599.76
492.365	8435.92
492.569	8425.68
492.772	8450.26
492.976	8317.14
493.18	8044.76
493.383	8079.58
493.587	7942.36
493.79	7968.99
493.994	7543.01
494.197	7637.22
494.401	7495.91
494.605	7321.83
494.808	7459.04
495.012	7577.83
495.215	7538.91
495.419	7350.5
495.622	7254.25
495.825	7266.53
496.029	7110.89
496.232	7241.96
496.436	7037.16
496.639	7401.7
496.843	7051.5
497.046	7082.22
497.249	7258.34
497.453	7133.42
497.656	7037.16
497.859	7090.41
498.063	7090.41
498.266	7358.69
498.469	7031.02
498.673	7276.77
498.876	7289.06
499.079	7276.77
499.282	7276.77
499.485	7674.08
499.689	7526.63
499.892	7522.53
500.095	7573.73
500.298	7465.19
500.501	7446.76
500.705	7549.15
500.908	7846.11
501.111	7702.75
501.314	7829.73
501.517	7862.49
501.72	8065.24
501.923	7944.41
502.126	8130.78
502.329	8259.8
502.532	8435.92
502.735	8620.24
502.938	8546.51
503.141	8585.43
503.344	8669.39
503.547	8726.74
503.75	9076.94
503.953	9021.64
504.156	9427.14
504.359	9267.4
504.562	9296.07
504.765	9642.18
504.968	9732.29
505.17	10000.57
505.373	10275
505.576	10299.58
505.779	10328.25
505.982	10471.61
506.185	10784.94
506.387	10723.51
506.59	11131.05
506.793	11532.45
506.996	11462.82
507.198	11841.7
507.401	11913.38
507.604	12415.13
507.807	12560.53
508.009	12617.88
508.212	12877.97
508.415	13437.06
508.617	13402.25
508.82	13754.5
509.022	13832.32
509.225	14401.66
509.428	14442.62
509.63	14956.66
509.833	15028.34
510.035	15835.24
510.238	15734.89
510.44	16173.15
510.643	16662.62
510.845	17037.39
511.048	17125.46
511.25	17647.69
511.453	18020.42
511.655	18653.24
511.858	19079.22
512.06	19327.02
512.262	19777.58
512.465	20348.96
512.667	20654.11
512.87	20989.97
513.072	21401.61
513.274	22179.84
513.477	22626.3
513.679	22833.14
513.881	23664.62
514.084	23906.28
514.286	24330.21
514.488	24780.76
514.69	26023.88
514.893	26206.15
515.095	26953.66
515.297	27285.43
515.499	27566
515.701	28092.33
515.904	29073.31
516.106	29951.88
516.308	30130.06
516.51	30676.87
516.712	31180.67
516.914	31942.51
517.116	32749.41
517.318	32843.62
517.52	33572.69
517.722	34445.13
517.925	34983.74
518.127	35882.8
518.329	36427.56
518.531	36278.06
518.733	37107.49
518.935	38162.19
519.136	38237.97
519.338	39286.53
519.54	39741.17
519.742	40556.27
519.944	40734.44
520.146	41832.15
520.348	42215.12
520.55	42391.25
520.752	43128.52
520.954	43560.64
521.155	43648.7
521.357	44826.28
521.559	45412
521.761	46071.45
521.963	45997.72
522.164	46524.05
522.366	46851.72
522.568	47781.5
522.77	47154.82
522.971	48227.96
523.173	48264.82
523.375	48830.06
523.576	48518.77
523.778	49002.09
523.98	49667.68
524.181	48977.51
524.383	49706.59
524.584	50153.05
524.786	50298.45
524.988	49903.2
525.189	50431.57
525.391	50493.01
525.592	50859.6
525.794	50353.75
525.995	50320.98
526.197	50335.32
526.398	50665.04
526.6	50130.52
526.801	49948.25
527.003	50400.85
527.204	50294.36
527.406	50366.04
527.607	49720.93
527.808	49538.66
528.01	48932.46
528.211	49030.76
528.412	49116.78
528.614	48817.77
528.815	48072.31
529.016	48352.88
529.218	47214.21
529.419	47308.42
529.62	46429.84
529.822	46167.7
530.023	45891.23
530.224	45989.53
530.425	45301.41
530.626	44265.14
530.828	44179.12
531.029	44676.78
531.23	43376.32
531.431	42714.83
531.632	42860.23
531.833	42419.92
532.035	41746.14
532.236	41141.99
532.437	40900.33
532.638	40142.58
532.839	39892.72
533.04	39354.11
533.241	38434.57
533.442	39022.34
533.643	37822.23
533.844	37512.98
534.045	36859.68
534.246	36312.88
534.447	35772.21
534.648	35475.26
534.849	35041.09
535.05	34471.75
535.251	34232.14
535.451	33644.37
535.652	33273.69
535.853	32741.22
536.054	32137.07
536.255	31823.73
536.456	31356.79
536.657	31702.9
536.857	30867.33
537.058	29943.69
537.259	30037.9
537.46	29480.85
537.66	29171.61
537.861	28833.69
538.062	28458.92
538.263	27942.83
538.463	27590.58
538.664	27363.25
538.865	26789.82
539.065	26771.39
539.266	26298.31
539.466	25915.34
539.667	25638.86
539.868	25608.14
540.068	24926.17
540.269	24715.23
540.469	24838.11
540.67	24160.23
540.87	23951.34
541.071	23382
541.271	23379.95
541.472	23160.82
541.672	22571
541.873	22302.72
542.073	22102.02
542.274	22231.04
542.474	21692.43
542.675	21370.9
542.875	21426.19
543.075	20873.24
543.276	20637.72
543.476	20840.47
543.676	20201.51
543.877	20011.04
544.077	19955.75
544.277	19611.69
544.478	19056.69
544.678	19468.33
544.878	19118.13
545.078	18855.99
545.279	18620.47
545.479	18044.99
545.679	18044.99
545.879	17903.68
546.079	17793.09
546.28	17455.18
546.48	17236.05
546.68	17301.58
546.88	17174.61
547.08	16617.56
547.28	16611.42
547.48	16300.12
547.68	16220.25
547.88	16087.14
548.081	15734.89
548.281	15380.59
548.481	15390.83
548.681	15321.2
548.881	14905.46
549.081	14899.31
549.28	14528.63
549.48	14313.59
549.68	14321.79
549.88	14078.08
550.08	13643.91
550.28	13777.03
550.48	13533.32
550.68	13273.23
550.88	13224.08
551.08	13029.52
551.279	12959.89
551.479	12558.49
551.679	12581.01
551.879	12181.66
552.079	12460.18
552.278	11915.42
552.478	11815.07
552.678	11559.08
552.878	11544.74
553.077	11260.07
553.277	11147.44
553.477	10952.88
553.676	10694.83
553.876	10674.35
554.076	10223.8
554.275	10109.12
554.475	9963.71
554.674	9865.41
554.874	9720
555.074	9570.5
555.273	9523.4
555.473	9343.17
555.672	8933.58
555.872	8962.25
556.071	8988.88
556.271	8863.95
556.47	8534.23
556.67	8255.7
556.869	8235.22
557.068	8194.26
557.268	7878.88
557.467	8001.76
557.667	7989.47
557.866	7751.9
558.065	7334.12
558.265	7483.62
558.464	7051.5
558.663	7379.17
558.863	7024.87
559.062	6940.91
559.261	6510.83
559.461	6762.73
559.66	6576.37
559.859	6465.78
560.058	6400.24
560.258	6211.83
560.457	6052.09
560.656	6207.73
560.855	5845.24
561.054	6068.47
561.253	5906.68
561.453	5777.66
561.652	5576.96
561.851	5730.56
562.05	5499.14
562.249	5300.48
562.448	5452.03
562.647	5126.41
562.846	5101.83
563.045	5210.37
563.244	5005.58
563.443	5083.4
563.642	4976.91
563.841	4894.99
564.04	4673.81
564.239	4839.69
564.438	4579.6
564.637	4288.79
564.836	4532.5
565.035	4251.92
565.234	4241.68
565.432	4327.7
565.631	4184.34
565.83	4237.59
566.029	4049.18
566.228	4010.26
566.427	3971.35
566.625	3860.76
566.824	3916.06
567.023	3836.19
567.222	3635.49
567.42	3770.65
567.619	3606.81
567.818	3522.85
568.016	3660.06
568.215	3606.81
568.414	3518.75
568.612	3348.77
568.811	3285.28
569.01	3234.08
569.208	3172.64
569.407	3201.32
569.605	3139.88
569.804	3068.2
570.002	3166.5
570.201	3023.14
570.4	2857.26
570.598	2900.27
570.797	2883.88
570.995	2814.25
571.193	2933.03
571.392	2822.44
571.59	2697.52
571.789	2681.13
571.987	2636.08
572.186	2734.38
572.384	2435.38
572.582	2562.35
572.781	2627.89
572.979	2390.32
573.177	2433.33
573.376	2365.75
573.574	2320.69
573.772	2351.41
573.971	2251.06
574.169	2203.96
574.367	2318.64
574.565	2246.96
574.763	2132.28
574.962	2158.9
575.16	1966.39
575.358	2009.4
575.556	2036.02
575.754	2007.35
575.952	1911.1
576.151	1880.38
576.349	1952.06
576.547	1739.07
576.745	1808.7
576.943	1773.88
577.141	1696.06
577.339	1646.91
577.537	1745.21
577.735	1706.3
577.933	1714.49
578.131	1560.89
578.329	1679.68
578.527	1577.28
578.725	1685.82
578.923	1397.06
579.121	1558.85
579.319	1352
579.516	1454.4
579.714	1571.13
579.912	1456.45
580.11	1341.76
580.308	1505.6
580.506	1343.81
580.704	1257.79
580.901	1239.36
581.099	1450.3
581.297	1278.27
581.495	1280.32
581.692	1280.32
581.89	1403.2
582.088	1288.51
582.285	1100.1
582.483	1161.54
582.681	1194.31
582.878	1093.96
583.076	1171.78
583.274	1179.97
583.471	1233.22
583.669	1083.72
583.866	991.56
584.064	995.65
584.262	966.98
584.459	991.56
584.657	1018.18
584.854	1018.18
585.052	1005.89
585.249	1048.9
585.447	995.65
585.644	917.83
585.841	989.51
586.039	981.32
586.236	938.31
586.434	844.1
586.631	866.63
586.828	782.67
587.026	952.65
587.223	891.21
587.42	723.27
587.618	831.82
587.815	936.26
588.012	743.75
588.21	713.03
588.407	751.95
588.604	760.14
588.801	790.86
588.999	737.61
589.196	780.62
589.393	753.99
589.59	696.65
589.787	659.79
589.984	764.23
590.182	741.71
590.379	692.55
590.576	682.31
590.773	672.08
590.97	698.7
591.167	751.95
591.364	729.42
591.561	674.12
591.758	844.1
591.955	756.04
592.152	692.55
592.349	600.4
592.546	688.46
592.743	577.87
592.94	706.89
593.137	688.46
593.334	694.6
593.531	715.08
593.727	774.47
593.924	663.88
594.121	655.69
594.318	682.31
594.515	690.51
594.712	823.62
594.908	778.57
595.105	541.01
595.302	807.24
595.499	739.66
595.696	887.11
595.892	774.47
596.089	829.77
596.286	766.28
596.482	926.02
596.679	878.92
596.876	788.81
597.072	831.82
597.269	889.16
597.466	966.98
597.662	823.62
597.859	901.45
598.055	952.65
598.252	946.5
598.448	1063.24
598.645	1024.33
598.841	1171.78
599.038	1165.64
599.234	1159.49
599.431	1202.5
599.627	1327.43
599.824	1403.2
600.02	1337.66
600.217	1354.05
600.413	1380.67
600.609	1446.21
600.806	1737.02
601.002	1562.94
601.198	1630.52
601.395	1620.28
601.591	1687.87
601.787	1784.12
601.984	1882.42
602.18	1902.9
602.376	2048.31
602.572	2244.92
602.769	2216.24
602.965	2398.51
603.161	2431.28
603.357	2400.56
603.553	2617.65
603.75	2584.88
603.946	2668.84
604.142	2660.65
604.338	3049.77
604.534	3012.9
604.73	3123.49
604.926	3100.97
605.122	3473.7
605.318	3318.05
605.514	3643.68
605.71	3483.94
605.906	3709.21
606.102	3825.95
606.298	4028.7
606.494	4106.52
606.69	4299.03
606.886	4282.64
607.082	4239.64
607.278	4571.41
607.474	4610.32
607.67	4651.28
607.866	4675.85
608.062	5130.5
608.257	5241.09
608.453	5107.98
608.649	5341.44
608.845	5542.14
609.041	5660.93
609.236	5976.31
609.432	6007.03
609.628	6303.99
609.824	6357.24
610.019	6504.69
610.215	6740.21
610.411	6977.77
610.606	7211.24
610.802	7241.96
610.998	7354.6
611.193	7774.43
611.389	7801.05
611.584	8181.98
611.78	8106.2
611.976	8497.36
612.171	8786.13
612.367	8945.87
612.562	9107.66
612.758	9367.75
612.953	9326.79
613.149	9867.45
613.344	10068.16
613.539	10379.45
613.735	10805.42
613.93	11022.51
614.126	11114.67
614.321	11493.54
614.517	11948.19
614.712	12249.24
614.907	12411.03
615.103	12617.88
615.298	12939.41
615.493	13609.09
615.688	13553.8
615.884	14360.7
616.079	14411.9
616.274	15087.73
616.47	15145.07
616.665	15274.09
616.86	15804.52
617.055	16136.29
617.25	16525.4
617.445	17322.06
617.641	17410.12
617.836	18114.62
618.031	18122.82
618.226	19177.52
618.421	19451.95
618.616	19730.47
618.811	19796.01
619.006	20629.53
619.201	20918.29
619.396	21694.47
619.591	21493.77
619.786	22628.35
619.981	22755.32
620.176	23328.75
620.371	23642.09
620.566	24641.5
620.761	24860.63
620.956	25133.01
621.151	25790.41
621.346	26449.86
621.541	26482.63
621.735	27625.39
621.93	27635.63
622.125	28491.68
622.32	28432.29
622.515	29433.75
622.709	29882.25
622.904	30601.09
623.099	30840.7
623.294	31680.37
623.488	31793.01
623.683	32743.27
623.878	32589.67
624.072	33877.84
624.267	34226
624.462	34629.44
624.656	35270.46
624.851	36202.28
625.046	35997.49
625.24	36880.16
625.435	36978.47
625.629	37549.85
625.824	38344.46
626.018	38594.31
626.213	38399.76
626.407	39769.85
626.602	39581.43
626.796	40507.12
626.991	40806.12
627.185	40752.87
627.38	40916.71
627.574	41232.1
627.768	41631.45
627.963	41639.64
628.157	41570.01
628.352	42548.94
628.546	41940.69
628.74	42385.1
628.935	42151.63
629.129	42211.03
629.323	41617.11
629.517	41877.21
629.712	41451.23
629.906	41551.58
630.1	40335.09
630.294	40926.95
630.489	39845.62
630.683	39620.34
630.877	38680.33
631.071	38237.97
631.265	38067.98
631.459	37087.01
631.653	36290.35
631.848	35641.14
632.042	34686.79
632.236	34223.95
632.43	33191.77
632.624	32403.3
632.818	30998.4
633.012	30023.56
633.206	29357.97
633.4	28596.13
633.594	27383.73
633.788	26804.16
633.982	25866.19
634.176	25262.04
634.369	23998.44
634.563	23115.76
634.757	21950.47
634.951	21686.28
635.145	20918.29
635.339	19662.89
635.533	18899
635.726	18391.1
635.92	17403.98
636.114	16826.45
636.308	16207.97
636.501	15575.14
636.695	14792.82
636.889	14098.56
637.083	13758.6
637.276	13058.19
637.47	12552.34
637.664	11950.24
637.857	11704.48
638.051	11075.76
638.244	10817.71
638.438	10285.24
638.632	9926.85
638.825	9369.8
639.019	9072.84
639.212	8794.32
639.406	8528.08
639.599	7839.97
639.793	7684.32
639.986	7442.66
640.18	7213.29
640.373	6973.67
640.567	6674.67
640.76	6349.04
640.954	6125.82
641.147	5935.35
641.34	5476.61
641.534	5304.58
641.727	5327.11
641.92	5105.93
642.114	4940.04
642.307	4747.53
642.5	4811.02
642.694	4204.82
642.887	4086.04
643.08	4020.5
643.273	3928.35
643.467	3770.65
643.66	3553.57
643.853	3436.83
644.046	3365.15
644.239	3324.19
644.432	3031.34
644.626	2885.93
644.819	2767.15
645.012	2804.01
645.205	2681.13
645.398	2640.17
645.591	2281.78
645.784	2259.25
645.977	2240.82
646.17	2226.48
646.363	2163
646.556	1894.71
646.749	1894.71
646.942	1964.34
647.135	1878.33
647.328	1724.73
647.521	1610.04
647.714	1444.16
647.907	1519.93
648.099	1372.48
648.292	1517.89
648.485	1376.58
648.678	1364.29
648.871	1270.08
649.064	1327.43
649.256	1202.5
649.449	1042.76
649.642	952.65
649.835	1007.94
650.027	952.65
650.22	1067.33
650.413	995.65
650.605	981.32
650.798	911.69
650.991	889.16
651.183	848.2
651.376	790.86
651.568	825.67
651.761	768.33
651.954	780.62
652.146	688.46
652.339	772.43
652.531	710.99
652.724	639.31
652.916	532.81
653.109	459.09
653.301	629.07
653.494	563.53
653.686	541.01
653.879	680.27
654.071	557.39
654.263	459.09
654.456	536.91
654.648	541.01
654.84	514.38
655.033	389.46
655.225	481.61
655.417	258.39
655.61	438.61
655.802	526.67
655.994	547.15
656.186	319.82
656.379	467.28
656.571	321.87
656.763	289.1
656.955	375.12
657.148	266.58
657.34	457.04
657.532	321.87
657.724	299.34
657.916	346.45
658.108	471.37
658.3	387.41
658.492	301.39
658.684	227.67
658.876	424.27
659.068	276.82
659.26	168.27
659.452	182.61
659.644	266.58
659.836	364.88
660.028	256.34
660.22	225.62
660.412	254.29
660.604	182.61
660.796	264.53
660.988	325.97
661.18	172.37
661.372	309.58
661.563	207.19
661.755	260.43
661.947	137.56
662.139	239.95
662.331	244.05
662.522	309.58
662.714	72.02
662.906	147.8
663.097	231.76
663.289	160.08
663.481	45.4
663.673	307.54
663.864	155.99
664.056	235.86
664.247	117.08
664.439	311.63
664.631	248.15
664.822	117.08
665.014	100.69
665.205	115.03
665.397	133.46
665.588	162.13
665.78	207.19
665.971	168.27
666.163	194.9
666.354	184.66
666.546	153.94
666.737	158.03
666.929	174.42
667.12	108.88
667.311	211.28
667.503	65.88
667.694	131.41
667.885	174.42
668.077	231.76
668.268	61.78
668.459	153.94
668.651	127.32
668.842	149.84
669.033	94.55
669.224	61.78
669.416	293.2
669.607	55.64
669.798	137.56
669.989	246.1
670.18	155.99
670.371	164.18
670.563	57.68
670.754	186.71
670.945	213.33
671.136	209.23
671.327	55.64
671.518	160.08
671.709	219.47
671.9	231.76
672.091	219.47
672.282	162.13
672.473	131.41
672.664	55.64
672.855	98.64
673.046	143.7
673.237	143.7
673.428	221.52
673.619	155.99
673.809	88.4
674	252.24
674.191	209.23
674.382	217.43
674.573	127.32
674.764	153.94
674.954	270.67
675.145	147.8
675.336	100.69
675.527	186.71
675.717	192.85
675.908	137.56
676.099	141.65
676.289	133.46
676.48	49.49
676.671	196.95
676.861	125.27
677.052	188.75
677.243	231.76
677.433	141.65
677.624	196.95
677.814	147.8
678.005	98.64
678.195	295.25
678.386	153.94
678.576	198.99
678.767	121.17
678.957	176.47
679.148	301.39
679.338	307.54
679.529	170.32
679.719	110.93
679.909	250.19
680.1	254.29
680.29	182.61
680.481	162.13
680.671	168.27
680.861	270.67
681.052	178.51
681.242	133.46
681.432	237.91
681.622	225.62
681.813	100.69
682.003	194.9
682.193	178.51
682.383	176.47
682.573	151.89
682.764	178.51
682.954	190.8
683.144	235.86
683.334	180.56
683.524	237.91
683.714	252.24
683.904	239.95
684.094	258.39
684.284	145.75
684.474	295.25
684.664	246.1
684.854	123.22
685.044	145.75
685.234	207.19
685.424	94.55
685.614	170.32
685.804	360.78
685.994	254.29
686.184	219.47
686.374	201.04
686.564	235.86
686.753	112.98
686.943	119.12
687.133	188.75
687.323	209.23
687.513	227.67
687.702	291.15
687.892	190.8
688.082	254.29
688.272	340.3
688.461	262.48
688.651	381.26
688.841	285.01
689.03	211.28
689.22	141.65
689.41	274.77
689.599	231.76
689.789	117.08
689.979	242
690.168	246.1
690.358	268.63
690.547	180.56
690.737	274.77
690.926	289.1
691.116	254.29
691.305	342.35
691.495	211.28
691.684	151.89
691.874	217.43
692.063	164.18
692.252	172.37
692.442	237.91
692.631	190.8
692.82	194.9
693.01	231.76
693.199	110.93
693.388	233.81
693.578	231.76
693.767	242
693.956	260.43
694.146	131.41
694.335	213.33
694.524	172.37
694.713	192.85
694.902	229.71
695.092	209.23
695.281	246.1
695.47	155.99
695.659	207.19
695.848	201.04
696.037	203.09
696.226	248.15
696.415	203.09
696.604	303.44
696.793	278.87
696.982	155.99
697.171	270.67
697.36	231.76
697.549	221.52
697.738	141.65
697.927	207.19
698.116	119.12
698.305	270.67
698.494	203.09
698.683	119.12
698.872	350.54
699.061	143.7
699.25	106.84
699.438	192.85
699.627	168.27
699.816	299.34
700.005	61.78
700.193	145.75
700.382	248.15
700.571	270.67
700.76	246.1
700.948	282.96
701.137	203.09
701.326	239.95
701.514	37.2
701.703	215.38
701.892	133.46
702.08	414.03
702.269	242
702.457	164.18
702.646	235.86
702.834	184.66
703.023	237.91
703.212	231.76
703.4	201.04
703.589	209.23
703.777	96.6
703.965	127.32
704.154	166.23
704.342	196.95
704.531	125.27
704.719	203.09
704.907	301.39
705.096	203.09
705.284	127.32
705.472	219.47
705.661	196.95
705.849	176.47
706.037	237.91
706.226	170.32
706.414	233.81
706.602	174.42
706.79	248.15
706.979	125.27
707.167	145.75
707.355	112.98
707.543	231.76
707.731	203.09
707.919	153.94
708.107	141.65
708.296	112.98
708.484	117.08
708.672	233.81
708.86	278.87
709.048	246.1
709.236	137.56
709.424	209.23
709.612	229.71
709.8	53.59
709.988	162.13
710.176	280.91
710.364	198.99
710.551	190.8
710.739	164.18
710.927	127.32
711.115	196.95
711.303	229.71
711.491	258.39
711.679	164.18
711.866	221.52
712.054	121.17
712.242	266.58
712.43	178.51
712.617	139.6
712.805	237.91
712.993	170.32
713.181	121.17
713.368	194.9
713.556	196.95
713.744	178.51
713.931	422.22
714.119	180.56
714.306	123.22
714.494	104.79
714.682	217.43
714.869	174.42
715.057	139.6
715.244	184.66
715.432	188.75
715.619	166.23
715.807	127.32
715.994	168.27
716.182	244.05
716.369	278.87
716.556	219.47
716.744	98.64
716.931	84.31
717.119	282.96
717.306	176.47
717.493	260.43
717.681	106.84
717.868	178.51
718.055	252.24
718.242	158.03
718.43	221.52
718.617	256.34
718.804	188.75
718.991	246.1
719.179	219.47
719.366	198.99
719.553	188.75
719.74	158.03
719.927	260.43
720.114	201.04
720.301	213.33
720.488	147.8
720.676	180.56
720.863	303.44
721.05	285.01
721.237	194.9
721.424	254.29
721.611	213.33
721.798	57.68
721.985	149.84
722.172	239.95
722.358	244.05
722.545	266.58
722.732	276.82
722.919	207.19
723.106	262.48
723.293	233.81
723.48	291.15
723.667	125.27
723.853	311.63
724.04	229.71
724.227	287.06
724.414	209.23
724.6	227.67
724.787	309.58
724.974	391.5
725.161	246.1
725.347	121.17
725.534	221.52
725.72	264.53
725.907	340.3
726.094	272.72
726.28	242
726.467	219.47
726.653	121.17
726.84	278.87
727.027	385.36
727.213	186.71
727.4	268.63
727.586	252.24
727.773	229.71
727.959	258.39
728.145	252.24
728.332	262.48
728.518	119.12
728.705	282.96
728.891	307.54
729.077	242
729.264	106.84
729.45	198.99
729.636	411.98
729.823	274.77
730.009	319.82
730.195	293.2
730.382	260.43
730.568	115.03
730.754	217.43
730.94	248.15
731.126	184.66
731.313	319.82
731.499	223.57
731.685	235.86
731.871	250.19
732.057	264.53
732.243	301.39
732.429	219.47
732.615	332.11
732.801	176.47
732.987	225.62
733.173	233.81
733.359	188.75
733.545	250.19
733.731	213.33
733.917	377.17
734.103	246.1
734.289	260.43
734.475	162.13
734.661	405.84
734.847	258.39
735.033	162.13
735.219	352.59
735.404	260.43
735.59	319.82
735.776	227.67
735.962	217.43
736.148	285.01
736.333	297.3
736.519	227.67
736.705	229.71
736.89	221.52
737.076	301.39
737.262	203.09
737.447	172.37
737.633	215.38
737.819	325.97
738.004	285.01
738.19	211.28
738.375	270.67
738.561	291.15
738.747	330.06
738.932	239.95
739.118	373.07
739.303	264.53
739.489	211.28
739.674	213.33
739.859	227.67
740.045	293.2
740.23	262.48
740.416	96.6
740.601	242
740.786	280.91
740.972	115.03
741.157	186.71
741.342	106.84
741.528	112.98
741.713	274.77
741.898	182.61
742.084	260.43
742.269	213.33
742.454	190.8
742.639	242
742.824	252.24
743.01	354.64
743.195	338.26
743.38	233.81
743.565	258.39
743.75	225.62
743.935	356.69
744.12	280.91
744.305	213.33
744.49	203.09
744.675	254.29
744.86	192.85
745.045	256.34
745.23	280.91
745.415	211.28
745.6	319.82
745.785	180.56
745.97	256.34
746.155	196.95
746.34	274.77
746.525	282.96
746.71	235.86
746.895	209.23
747.079	170.32
747.264	186.71
747.449	330.06
747.634	276.82
747.819	225.62
748.003	252.24
748.188	211.28
748.373	256.34
748.557	239.95
748.742	270.67
748.927	231.76
749.111	231.76
749.296	172.37
749.481	278.87
749.665	184.66
749.85	153.94
750.034	274.77
750.219	239.95
750.404	149.84
750.588	262.48
750.773	106.84
750.957	192.85
751.141	239.95
751.326	229.71
751.51	90.45
751.695	215.38
751.879	178.51
752.064	323.92
752.248	141.65
752.432	260.43
752.617	170.32
752.801	227.67
752.985	235.86
753.17	219.47
753.354	233.81
753.538	209.23
753.722	133.46
753.907	162.13
754.091	102.74
754.275	198.99
754.459	84.31
754.643	92.5
754.828	166.23
755.012	223.57
755.196	72.02
755.38	180.56
755.564	145.75
755.748	162.13
755.932	215.38
756.116	213.33
756.3	196.95
756.484	145.75
756.668	203.09
756.852	12.63
757.036	61.78
757.22	131.41
757.404	26.96
757.588	104.79
757.772	219.47
757.956	84.31
758.14	219.47
758.323	123.22
758.507	219.47
758.691	137.56
758.875	258.39
759.059	242
759.242	117.08
759.426	141.65
759.61	151.89
759.794	176.47
759.977	248.15
760.161	348.5
760.345	262.48
760.528	268.63
760.712	78.16
760.895	147.8
761.079	94.55
761.263	67.92
761.446	49.49
761.63	80.21
761.813	217.43
761.997	16.73
762.18	129.36
762.364	217.43
762.547	-32.43
762.731	76.12
762.914	80.21
763.098	41.3
763.281	29.01
763.464	49.49
763.648	112.98
763.831	94.55
764.015	59.73
764.198	164.18
764.381	59.73
764.564	72.02
764.748	90.45
764.931	186.71
765.114	170.32
765.297	121.17
765.481	80.21
765.664	74.07
765.847	139.6
766.03	233.81
766.213	125.27
766.397	129.36
766.58	63.83
766.763	149.84
766.946	131.41
767.129	57.68
767.312	63.83
767.495	127.32
767.678	37.2
767.861	129.36
768.044	55.64
768.227	43.35
768.41	67.92
768.593	115.03
768.776	108.88
768.959	63.83
769.142	221.52
769.324	104.79
769.507	117.08
769.69	96.6
769.873	121.17
770.056	266.58
770.239	86.36
770.421	147.8
770.604	88.4
770.787	82.26
770.97	72.02
771.152	43.35
771.335	151.89
771.518	-32.43
771.7	201.04
771.883	207.19
772.066	69.97
772.248	139.6
772.431	180.56
772.613	37.2
772.796	78.16
772.978	137.56
773.161	176.47
773.343	35.16
773.526	45.4
773.708	-30.38
773.891	-83.63
774.073	69.97
774.256	61.78
774.438	192.85
774.621	-9.9
774.803	123.22
774.985	26.96
775.168	74.07
775.35	84.31
775.532	33.11
775.715	-1.71
775.897	143.7
776.079	10.58
776.261	84.31
776.444	55.64
776.626	72.02
776.808	67.92
776.99	-28.33
777.173	76.12
777.355	59.73
777.537	16.73
777.719	51.54
777.901	-9.9
778.083	47.44
778.265	43.35
778.447	188.75
778.629	-34.47
778.811	162.13
778.993	72.02
779.175	127.32
779.357	-48.81
779.539	-28.33
779.721	63.83
779.903	115.03
780.085	43.35
780.267	76.12
780.449	67.92
780.631	69.97
780.812	211.28
780.994	65.88
781.176	45.4
781.358	-7.85
781.54	121.17
781.721	45.4
781.903	170.32
782.085	18.77
782.267	129.36
782.448	14.68
782.63	31.06
782.812	98.64
782.993	20.82
783.175	80.21
783.357	2.39
783.538	82.26
783.72	-40.62
783.901	72.02
784.083	98.64
784.264	117.08
784.446	-71.34
784.627	35.16
784.809	61.78
784.99	8.53
785.172	141.65
785.353	33.11
785.535	96.6
785.716	-52.91
785.897	-75.43
786.079	78.16
786.26	76.12
786.441	41.3
786.623	-63.15
786.804	-40.62
786.985	59.73
787.167	145.75
787.348	41.3
787.529	-9.9
787.71	147.8
787.891	51.54
788.073	-28.33
788.254	-44.71
788.435	110.93
788.616	78.16
788.797	-38.57
788.978	-48.81
789.159	41.3
789.34	98.64
789.522	14.68
789.703	14.68
789.884	88.4
790.065	10.58
790.246	184.66
790.427	-9.9
790.607	110.93
790.788	112.98
790.969	-81.58
791.15	4.44
791.331	-52.91
791.512	39.25
791.693	-61.1
791.874	39.25
792.054	194.9
792.235	67.92
792.416	-67.24
792.597	-13.99
792.778	88.4
792.958	82.26
793.139	43.35
793.32	-3.75
793.5	-112.3
793.681	49.49
793.862	6.49
794.042	92.5
794.223	-81.58
794.404	-50.86
794.584	-81.58
794.765	22.87
794.945	49.49
795.126	82.26
795.306	61.78
795.487	80.21
795.667	-11.95
795.848	92.5
796.028	10.58
796.209	69.97
796.389	2.39
796.57	39.25
796.75	2.39
796.93	24.92
797.111	-34.47
797.291	8.53
797.471	65.88
797.652	-36.52
797.832	-13.99
798.012	102.74
798.192	20.82
798.373	-34.47
798.553	2.39
798.733	86.36
798.913	-130.73
799.093	49.49
799.274	37.2
799.454	55.64
799.634	92.5
799.814	78.16
799.994	4.44
800.174	24.92
800.354	76.12
800.534	-52.91
800.714	119.12
800.894	35.16
801.074	-75.43
801.254	-40.62
801.434	117.08
801.614	55.64
801.794	-100.01
801.974	1679.68
802.154	-11.95
802.334	112.98
802.514	-32.43
802.693	8.53
802.873	55.64
803.053	192.85
803.233	41.3
803.413	-73.39
803.592	-22.19
803.772	12.63
803.952	-1.71
804.131	-16.04
804.311	59.73
804.491	39.25
804.67	-52.91
804.85	-83.63
805.03	78.16
805.209	67.92
805.389	45.4
805.568	-91.82
805.748	8.53
805.928	-30.38
806.107	14.68
806.287	108.88
806.466	100.69
806.646	57.68
806.825	-67.24
807.004	-18.09
807.184	125.27
807.363	10.58
807.543	35.16
807.722	-26.28
807.901	41.3
808.081	-1.71
808.26	-167.59
808.439	22.87
808.619	45.4
808.798	20.82
808.977	45.4
809.156	14.68
809.336	-16.04
809.515	63.83
809.694	-114.34
809.873	33.11
810.052	45.4
810.231	106.84
810.411	14.68
810.59	61.78
810.769	-100.01
810.948	51.54
811.127	-157.35
811.306	-26.28
811.485	47.44
811.664	123.22
811.843	-1.71
812.022	22.87
812.201	35.16
812.38	-28.33
812.559	-59.05
812.737	63.83
812.916	-104.11
813.095	-67.24
813.274	33.11
813.453	18.77
813.632	43.35
813.811	20.82
813.989	-85.67
814.168	55.64
814.347	-52.91
814.526	-32.43
814.704	151.89
814.883	115.03
815.062	-48.81
815.24	47.44
815.419	-57
815.598	10.58
815.776	-46.76
815.955	22.87
816.133	-36.52
816.312	57.68
816.49	-69.29
816.669	-24.23
816.847	78.16
817.026	2.39
817.204	-3.75
817.383	-65.19
817.561	-52.91
817.74	0.34
817.918	37.2
818.097	-36.52
818.275	4.44
818.453	72.02
818.632	100.69
818.81	-24.23
818.988	47.44
819.167	-40.62
819.345	-7.85
819.523	-32.43
819.701	-3.75
819.879	26.96
820.058	14.68
820.236	90.45
820.414	20.82
820.592	-40.62
820.77	22.87
820.948	-83.63
821.127	-32.43
821.305	18.77
821.483	-36.52
821.661	51.54
821.839	-34.47
822.017	-5.8
822.195	-48.81
822.373	102.74
822.551	2.39
822.729	67.92
822.907	-73.39
823.085	39.25
823.262	31.06
823.44	-30.38
823.618	2.39
823.796	59.73
823.974	22.87
824.152	4.44
824.329	-7.85
824.507	31.06
824.685	74.07
824.863	-5.8
825.04	-61.1
825.218	100.69
825.396	-42.67
825.574	53.59
825.751	0.34
825.929	63.83
826.107	-30.38
826.284	-22.19
826.462	-5.8
826.639	-40.62
826.817	-100.01
826.994	-28.33
827.172	-1.71
827.349	141.65
827.527	67.92
827.704	29.01
827.882	49.49
828.059	-34.47
828.237	18.77
828.414	45.4
828.591	-65.19
828.769	16.73
828.946	-57
829.124	123.22
829.301	72.02
829.478	-34.47
829.655	88.4
829.833	61.78
830.01	-65.19
830.187	39.25
830.364	31.06
830.542	6.49
830.719	82.26
830.896	102.74
831.073	63.83
831.25	-1.71
831.427	49.49
831.604	0.34
831.782	-44.71
831.959	96.6
832.136	6.49
832.313	29.01
832.49	-83.63
832.667	39.25
832.844	-67.24
833.021	55.64
833.198	35.16
833.374	86.36
833.551	-42.67
833.728	4.44
833.905	45.4
834.082	-69.29
834.259	59.73
834.436	104.79
834.612	-57
834.789	129.36
834.966	86.36
835.143	-95.91
835.319	-52.91
835.496	59.73
835.673	2.39
835.85	31.06
836.026	18.77
836.203	98.64
836.38	-77.48
836.556	-50.86
836.733	-50.86
836.909	106.84
837.086	12.63
837.262	-52.91
837.439	-52.91
837.616	-73.39
837.792	43.35
837.968	39.25
838.145	-155.3
838.321	88.4
838.498	-28.33
838.674	90.45
838.851	26.96
839.027	-20.14
839.203	35.16
839.38	-22.19
839.556	-112.3
839.732	170.32
839.909	86.36
840.085	69.97
840.261	-57
840.437	-22.19
840.614	-3.75
840.79	145.75
840.966	80.21
841.142	20.82
841.318	-20.14
841.494	10.58
841.671	104.79
841.847	-32.43
842.023	-69.29
842.199	110.93
842.375	80.21
842.551	-114.34
842.727	-46.76
842.903	115.03
843.079	-63.15
843.255	51.54
843.431	-30.38
843.607	41.3
843.783	-87.72
843.959	35.16
844.134	4.44
844.31	57.68
844.486	2.39
844.662	-22.19
844.838	-89.77
845.013	12.63
845.189	121.17
845.365	26.96
845.541	-40.62
845.716	104.79
845.892	45.4
846.068	-46.76
846.244	-83.63
846.419	133.46
846.595	-46.76
846.77	-67.24
846.946	39.25
847.122	-16.04
847.297	-16.04
847.473	108.88
847.648	-34.47
847.824	-13.99
847.999	-118.44
848.175	41.3
848.35	92.5
848.526	78.16
848.701	80.21
848.876	98.64
849.052	16.73
849.227	-79.53
849.403	37.2
849.578	-22.19
849.753	33.11
849.929	16.73
850.104	-91.82
850.279	16.73
850.454	-18.09
850.63	0.34
850.805	4.44
850.98	-61.1
851.155	-69.29
851.33	55.64
851.505	-85.67
851.681	106.84
851.856	-46.76
852.031	43.35
852.206	45.4
852.381	-77.48
852.556	-44.71
852.731	39.25
852.906	94.55
853.081	39.25
853.256	69.97
853.431	24.92
853.606	-32.43
853.781	-52.91
853.956	-100.01
854.131	8.53
854.305	-3.75
854.48	-26.28
854.655	-57
854.83	-63.15
855.005	0.34
855.18	-1.71
855.354	35.16
855.529	96.6
855.704	26.96
855.879	76.12
856.053	-36.52
856.228	-7.85
856.403	-9.9
856.577	53.59
856.752	-75.43
856.926	-61.1
857.101	106.84
857.276	-57
857.45	2.39
857.625	22.87
857.799	67.92
857.974	-42.67
858.148	-128.68
858.323	-38.57
858.497	24.92
858.672	-89.77
858.846	-63.15
859.02	82.26
859.195	-63.15
859.369	-9.9
859.543	-38.57
859.718	69.97
859.892	-18.09
860.066	35.16
860.241	-57
860.415	-87.72
860.589	-71.34
860.763	-16.04
860.938	-11.95
861.112	-5.8
861.286	-24.23
861.46	47.44
861.634	-52.91
861.808	104.79
861.982	-85.67
862.157	-63.15
862.331	-134.82
862.505	-208.55
862.679	-48.81
862.853	-67.24
863.027	-13.99
863.201	160.08
863.375	-54.95
863.549	22.87
863.722	6.49
863.896	90.45
864.07	-18.09
864.244	-69.29
864.418	57.68
864.592	22.87
864.766	-95.91
864.939	8.53
865.113	43.35
865.287	110.93
865.461	-120.49
865.634	-9.9
865.808	-61.1
865.982	-138.92
866.156	-79.53
866.329	-63.15
866.503	41.3
866.676	149.84
866.85	10.58
867.024	-38.57
867.197	2.39
867.371	133.46
867.544	0.34
867.718	-91.82
867.891	108.88
868.065	-147.11
868.238	2.39
868.412	80.21
868.585	-36.52
868.759	-75.43
868.932	-38.57
869.105	-59.05
869.279	-7.85
869.452	-63.15
869.625	119.12
869.799	-42.67
869.972	-102.06
870.145	-24.23
870.319	84.31
870.492	-38.57
870.665	-79.53
870.838	14.68
871.011	-120.49
871.185	-81.58
871.358	-28.33
871.531	14.68
871.704	18.77
871.877	-30.38
872.05	-79.53
872.223	-112.3
872.396	31.06
872.569	-36.52
872.742	-128.68
872.915	80.21
873.088	2.39
873.261	-79.53
873.434	72.02
873.607	41.3
873.78	102.74
873.953	-108.2
874.126	-3.75
874.299	59.73
874.471	-75.43
874.644	8.53
874.817	-59.05
874.99	86.36
875.163	-57
875.335	47.44
875.508	2.39
875.681	53.59
875.853	-71.34
876.026	-54.95
876.199	67.92
876.371	-18.09
876.544	-50.86
876.717	31.06
876.889	-7.85
877.062	61.78
877.234	-106.15
877.407	-52.91
877.579	-18.09
877.752	33.11
877.924	65.88
878.097	82.26
878.269	16.73
878.442	12.63
878.614	12.63
878.786	14.68
878.959	4.44
879.131	-54.95
879.303	-75.43
879.476	24.92
879.648	16.73
879.82	-7.85
879.993	-3.75
880.165	6.49
880.337	-69.29
880.509	26.96
880.681	-93.87
880.854	-63.15
881.026	49.49
881.198	153.94
881.37	-3.75
881.542	-30.38
881.714	-65.19
881.886	-16.04
882.058	37.2
882.23	-30.38
882.402	-13.99
882.574	20.82
882.746	8.53
882.918	8.53
883.09	63.83
883.262	-5.8
883.434	65.88
883.606	-147.11
883.778	-9.9
883.95	112.98
884.122	-61.1
884.293	90.45
884.465	45.4
884.637	96.6
884.809	6.49
884.98	39.25
885.152	12.63
885.324	35.16
885.496	-18.09
885.667	-32.43
885.839	-11.95
886.011	63.83
886.182	-26.28
886.354	0.34
886.525	0.34
886.697	-16.04
886.869	-120.49
887.04	0.34
887.212	55.64
887.383	47.44
887.555	-1.71
887.726	-34.47
887.897	-24.23
888.069	-3.75
888.24	20.82
888.412	-34.47
888.583	18.77
888.754	-48.81
888.926	-71.34
889.097	-20.14
889.268	-93.87
889.44	29.01
889.611	-73.39
889.782	-85.67
889.953	-24.23
890.125	61.78
890.296	-48.81
890.467	-24.23
890.638	-20.14
890.809	-69.29
890.98	-87.72
891.151	-32.43
891.323	63.83
891.494	-11.95
891.665	10.58
891.836	-5.8
892.007	22.87
892.178	8.53
892.349	-28.33
892.52	-18.09
892.691	8.53
892.862	-5.8
893.032	-143.02
893.203	-7.85
893.374	-9.9
893.545	125.27
893.716	8.53
893.887	6.49
894.057	47.44
894.228	-28.33
894.399	-122.54
894.57	78.16
894.74	-22.19
894.911	-57
895.082	-95.91
895.253	-73.39
895.423	-13.99
895.594	65.88
895.764	18.77
895.935	-85.67
896.106	16.73
896.276	-42.67
896.447	-57
896.617	-63.15
896.788	-36.52
896.958	-20.14
897.129	-26.28
897.299	14.68
897.47	47.44
897.64	18.77
897.81	-40.62
897.981	4.44
898.151	-75.43
898.322	-40.62
898.492	-20.14
898.662	-22.19
898.832	-46.76
899.003	-91.82
899.173	-9.9
899.343	-91.82
899.513	-93.87
