Data from USB4F104151__2__10-41-03-791.txt Node

Date: Wed Feb 26 10:41:03 EST 2025
User: louis
Spectrometer: USB4F10415
Trigger mode: 4
Integration Time (sec): 1.000000E-1
Scans to average: 1
Electric dark correction enabled: true
Nonlinearity correction enabled: false
Boxcar width: 0
XAxis mode: Wavelengths
Number of Pixels in Spectrum: 3648
>>>>>Begin Spectral Data<<<<<
178.204	-385.02
178.424	-385.02
178.644	-385.02
178.864	-425.98
179.084	-385.02
179.304	32.77
179.524	2.05
179.744	20.48
179.964	-18.43
180.184	-2.05
180.404	47.1
180.624	14.34
180.844	-20.48
181.064	-83.97
181.283	34.82
181.503	-75.77
181.723	49.15
181.943	-53.25
182.163	163.84
182.383	-14.34
182.602	96.25
182.822	106.49
183.042	57.34
183.262	28.67
183.482	38.91
183.701	77.82
183.921	88.06
184.141	-8.19
184.361	124.93
184.58	71.68
184.8	20.48
185.02	-30.72
185.239	86.01
185.459	151.55
185.679	126.97
185.898	-131.07
186.118	43.01
186.338	45.06
186.557	114.69
186.777	-65.53
186.997	10.24
187.216	40.96
187.436	169.98
187.655	75.77
187.875	133.12
188.095	131.07
188.314	157.69
188.534	112.64
188.753	-57.34
188.973	139.26
189.192	245.76
189.412	-6.14
189.631	49.15
189.851	75.77
190.07	212.99
190.29	38.91
190.509	26.62
190.729	129.02
190.948	145.41
191.168	319.48
191.387	73.73
191.607	86.01
191.826	86.01
192.045	149.5
192.265	47.1
192.484	90.11
192.704	32.77
192.923	8.19
193.142	227.32
193.362	98.3
193.581	182.27
193.8	131.07
194.02	135.17
194.239	22.53
194.458	36.86
194.678	26.62
194.897	73.73
195.116	20.48
195.335	57.34
195.555	83.97
195.774	55.3
195.993	147.45
196.212	28.67
196.432	-28.67
196.651	65.54
196.87	47.1
197.089	210.94
197.308	59.39
197.528	59.39
197.747	-38.91
197.966	61.44
198.185	139.26
198.404	-6.14
198.623	141.31
198.842	178.17
199.062	83.97
199.281	184.32
199.5	86.01
199.719	180.22
199.938	59.39
200.157	77.82
200.376	53.25
200.595	167.93
200.814	71.68
201.033	-14.34
201.252	143.36
201.471	51.2
201.69	147.45
201.909	65.54
202.128	106.49
202.347	114.69
202.566	43.01
202.785	-4.1
203.004	-24.58
203.223	305.15
203.442	6.14
203.661	6.14
203.879	81.92
204.098	133.12
204.317	-36.86
204.536	14.34
204.755	118.78
204.974	100.35
205.193	-16.38
205.411	147.45
205.63	73.73
205.849	-12.29
206.068	6.14
206.287	-112.64
206.505	153.6
206.724	38.91
206.943	75.77
207.162	-12.29
207.381	122.88
207.599	116.73
207.818	106.49
208.037	-32.77
208.255	-6.14
208.474	96.25
208.693	69.63
208.911	61.44
209.13	71.68
209.349	83.97
209.567	69.63
209.786	67.58
210.005	61.44
210.223	83.97
210.442	-139.26
210.661	28.67
210.879	88.06
211.098	86.01
211.316	0
211.535	90.11
211.753	137.21
211.972	90.11
212.191	-4.1
212.409	-4.1
212.628	83.97
212.846	28.67
213.065	92.16
213.283	73.73
213.502	32.77
213.72	59.39
213.938	43.01
214.157	45.06
214.375	122.88
214.594	2.05
214.812	49.15
215.031	81.92
215.249	43.01
215.467	57.34
215.686	71.68
215.904	81.92
216.122	92.16
216.341	147.45
216.559	106.49
216.778	124.93
216.996	122.88
217.214	51.2
217.432	57.34
217.651	-2.05
217.869	36.86
218.087	65.54
218.306	-10.24
218.524	10.24
218.742	83.97
218.96	26.62
219.179	45.06
219.397	47.1
219.615	264.19
219.833	110.59
220.051	-16.38
220.27	110.59
220.488	159.74
220.706	145.41
220.924	20.48
221.142	16.38
221.36	96.25
221.578	155.65
221.796	-6.14
222.015	30.72
222.233	67.58
222.451	204.8
222.669	-57.34
222.887	139.26
223.105	-26.62
223.323	24.58
223.541	12.29
223.759	129.02
223.977	79.87
224.195	210.94
224.413	67.58
224.631	57.34
224.849	6.14
225.067	200.7
225.285	18.43
225.503	-32.77
225.721	-65.53
225.939	10.24
226.157	59.39
226.375	299
226.592	-16.38
226.81	57.34
227.028	67.58
227.246	149.5
227.464	30.72
227.682	135.17
227.9	100.35
228.117	61.44
228.335	122.88
228.553	6.14
228.771	53.25
228.989	4.1
229.206	108.54
229.424	98.3
229.642	8.19
229.86	-6.14
230.077	88.06
230.295	75.77
230.513	124.93
230.731	59.39
230.948	227.32
231.166	147.45
231.384	106.49
231.601	-30.72
231.819	223.23
232.037	-24.58
232.254	-110.59
232.472	-12.29
232.689	-6.14
232.907	55.3
233.125	-26.62
233.342	34.82
233.56	8.19
233.777	73.73
233.995	88.06
234.213	110.59
234.43	122.88
234.648	18.43
234.865	18.43
235.083	14.34
235.3	28.67
235.518	63.49
235.735	157.69
235.953	108.54
236.17	98.3
236.388	137.21
236.605	126.97
236.822	169.98
237.04	210.94
237.257	53.25
237.475	-57.34
237.692	118.78
237.909	161.79
238.127	-24.58
238.344	28.67
238.562	139.26
238.779	-26.62
238.996	69.63
239.214	100.35
239.431	104.45
239.648	43.01
239.865	112.64
240.083	137.21
240.3	36.86
240.517	63.49
240.735	34.82
240.952	188.41
241.169	20.48
241.386	157.69
241.603	90.11
241.821	-53.25
242.038	34.82
242.255	79.87
242.472	10.24
242.689	94.21
242.907	108.54
243.124	75.77
243.341	-96.25
243.558	18.43
243.775	14.34
243.992	-47.1
244.209	63.49
244.426	143.36
244.643	221.18
244.86	12.29
245.078	110.59
245.295	100.35
245.512	96.25
245.729	-22.53
245.946	65.54
246.163	12.29
246.38	-12.29
246.597	38.91
246.814	59.39
247.031	38.91
247.248	133.12
247.464	169.98
247.681	129.02
247.898	43.01
248.115	65.54
248.332	59.39
248.549	120.83
248.766	202.75
248.983	81.92
249.2	167.93
249.417	81.92
249.633	10.24
249.85	88.06
250.067	8.19
250.284	34.82
250.501	67.58
250.717	118.78
250.934	-71.68
251.151	18.43
251.368	22.53
251.585	92.16
251.801	92.16
252.018	-51.2
252.235	163.84
252.451	-8.19
252.668	26.62
252.885	153.6
253.102	49.15
253.318	14.34
253.535	36.86
253.752	-14.34
253.968	20.48
254.185	51.2
254.401	77.82
254.618	147.45
254.835	65.54
255.051	53.25
255.268	165.89
255.484	18.43
255.701	53.25
255.917	129.02
256.134	38.91
256.351	100.35
256.567	-16.38
256.784	32.77
257	-96.25
257.217	124.93
257.433	149.5
257.65	79.87
257.866	215.04
258.082	16.38
258.299	16.38
258.515	12.29
258.732	45.06
258.948	8.19
259.165	104.45
259.381	-12.29
259.597	77.82
259.814	43.01
260.03	30.72
260.246	-16.38
260.463	159.74
260.679	73.73
260.895	71.68
261.112	43.01
261.328	34.82
261.544	32.77
261.761	133.12
261.977	-53.25
262.193	-8.19
262.409	57.34
262.626	77.82
262.842	51.2
263.058	-26.62
263.274	133.12
263.49	55.3
263.707	77.82
263.923	49.15
264.139	-63.49
264.355	73.73
264.571	163.84
264.787	83.97
265.004	92.16
265.22	88.06
265.436	-38.91
265.652	30.72
265.868	-10.24
266.084	24.58
266.3	6.14
266.516	24.58
266.732	71.68
266.948	139.26
267.164	57.34
267.38	126.97
267.596	94.21
267.812	198.65
268.028	75.77
268.244	45.06
268.46	47.1
268.676	30.72
268.892	108.54
269.108	-73.73
269.324	-38.91
269.54	34.82
269.756	141.31
269.972	-86.01
270.188	43.01
270.403	16.38
270.619	24.58
270.835	65.54
271.051	77.82
271.267	12.29
271.483	-8.19
271.698	129.02
271.914	102.4
272.13	83.97
272.346	61.44
272.562	30.72
272.777	155.65
272.993	36.86
273.209	4.1
273.425	100.35
273.64	-81.92
273.856	28.67
274.072	-77.82
274.287	-2.05
274.503	65.54
274.719	139.26
274.934	26.62
275.15	-61.44
275.366	14.34
275.581	18.43
275.797	108.54
276.012	40.96
276.228	22.53
276.444	79.87
276.659	106.49
276.875	-14.34
277.09	55.3
277.306	18.43
277.521	90.11
277.737	92.16
277.952	129.02
278.168	32.77
278.383	47.1
278.599	81.92
278.814	157.69
279.03	6.14
279.245	180.22
279.461	88.06
279.676	94.21
279.892	-18.43
280.107	-57.34
280.322	-14.34
280.538	94.21
280.753	45.06
280.969	40.96
281.184	69.63
281.399	108.54
281.615	26.62
281.83	59.39
282.045	-20.48
282.26	-47.1
282.476	63.49
282.691	92.16
282.906	86.01
283.122	14.34
283.337	26.62
283.552	77.82
283.767	-14.34
283.983	75.77
284.198	79.87
284.413	98.3
284.628	-49.15
284.843	71.68
285.058	118.78
285.274	16.38
285.489	30.72
285.704	133.12
285.919	92.16
286.134	28.67
286.349	59.39
286.564	-73.73
286.779	180.22
286.995	98.3
287.21	-2.05
287.425	167.93
287.64	22.53
287.855	30.72
288.07	16.38
288.285	143.36
288.5	139.26
288.715	114.69
288.93	47.1
289.145	18.43
289.36	104.45
289.575	59.39
289.79	108.54
290.004	-40.96
290.219	75.77
290.434	-6.14
290.649	24.58
290.864	24.58
291.079	43.01
291.294	-6.14
291.509	26.62
291.724	116.73
291.938	43.01
292.153	10.24
292.368	24.58
292.583	69.63
292.798	71.68
293.012	65.54
293.227	88.06
293.442	24.58
293.657	135.17
293.871	116.73
294.086	-24.58
294.301	212.99
294.516	126.97
294.73	45.06
294.945	0
295.16	12.29
295.374	112.64
295.589	47.1
295.804	-55.3
296.018	102.4
296.233	235.52
296.447	63.49
296.662	-63.49
296.877	131.07
297.091	77.82
297.306	49.15
297.52	67.58
297.735	65.54
297.949	81.92
298.164	96.25
298.378	96.25
298.593	12.29
298.807	-4.1
299.022	32.77
299.236	129.02
299.451	-34.82
299.665	79.87
299.88	2.05
300.094	137.21
300.309	75.77
300.523	71.68
300.737	24.58
300.952	116.73
301.166	81.92
301.381	-45.06
301.595	34.82
301.809	98.3
302.024	63.49
302.238	-61.44
302.452	92.16
302.667	34.82
302.881	108.54
303.095	118.78
303.309	92.16
303.524	22.53
303.738	-14.34
303.952	-14.34
304.166	122.88
304.381	-55.3
304.595	139.26
304.809	34.82
305.023	75.77
305.237	24.58
305.452	-34.82
305.666	92.16
305.88	61.44
306.094	71.68
306.308	38.91
306.522	51.2
306.736	133.12
306.95	71.68
307.164	43.01
307.379	45.06
307.593	206.84
307.807	208.89
308.021	79.87
308.235	126.97
308.449	38.91
308.663	55.3
308.877	276.48
309.091	75.77
309.305	83.97
309.519	-96.25
309.733	100.35
309.947	-69.63
310.161	53.25
310.374	16.38
310.588	184.32
310.802	57.34
311.016	-45.06
311.23	98.3
311.444	49.15
311.658	-18.43
311.872	40.96
312.085	86.01
312.299	153.6
312.513	139.26
312.727	116.73
312.941	75.77
313.154	81.92
313.368	47.1
313.582	36.86
313.796	108.54
314.009	92.16
314.223	124.93
314.437	47.1
314.651	155.65
314.864	96.25
315.078	83.97
315.292	-6.14
315.505	-6.14
315.719	110.59
315.933	126.97
316.146	51.2
316.36	30.72
316.573	163.84
316.787	102.4
317.001	67.58
317.214	-61.44
317.428	40.96
317.641	-106.49
317.855	12.29
318.068	47.1
318.282	65.54
318.495	186.37
318.709	104.45
318.922	49.15
319.136	167.93
319.349	81.92
319.563	-2.05
319.776	90.11
319.99	-43.01
320.203	98.3
320.417	51.2
320.63	77.82
320.843	188.41
321.057	129.02
321.27	73.73
321.483	169.98
321.697	141.31
321.91	83.97
322.124	2.05
322.337	16.38
322.55	34.82
322.763	51.2
322.977	8.19
323.19	14.34
323.403	69.63
323.617	24.58
323.83	167.93
324.043	43.01
324.256	81.92
324.469	-38.91
324.683	129.02
324.896	30.72
325.109	14.34
325.322	-55.3
325.535	165.89
325.748	135.17
325.962	8.19
326.175	122.88
326.388	116.73
326.601	90.11
326.814	32.77
327.027	43.01
327.24	190.46
327.453	-77.82
327.666	124.93
327.879	161.79
328.092	145.41
328.305	57.34
328.518	-59.39
328.731	8.19
328.944	92.16
329.157	145.41
329.37	12.29
329.583	169.98
329.796	112.64
330.009	-38.91
330.222	49.15
330.435	51.2
330.648	100.35
330.861	75.77
331.073	79.87
331.286	110.59
331.499	65.54
331.712	38.91
331.925	24.58
332.138	55.3
332.35	202.75
332.563	57.34
332.776	69.63
332.989	-18.43
333.202	22.53
333.414	20.48
333.627	67.58
333.84	63.49
334.053	110.59
334.265	-16.38
334.478	51.2
334.691	55.3
334.903	14.34
335.116	55.3
335.329	63.49
335.541	86.01
335.754	239.61
335.966	36.86
336.179	116.73
336.392	55.3
336.604	24.58
336.817	40.96
337.029	34.82
337.242	157.69
337.454	133.12
337.667	55.3
337.88	139.26
338.092	79.87
338.305	81.92
338.517	22.53
338.729	65.54
338.942	120.83
339.154	0
339.367	36.86
339.579	47.1
339.792	-28.67
340.004	100.35
340.217	28.67
340.429	61.44
340.641	47.1
340.854	47.1
341.066	59.39
341.278	161.79
341.491	204.8
341.703	53.25
341.915	47.1
342.128	161.79
342.34	122.88
342.552	2.05
342.764	61.44
342.977	2.05
343.189	143.36
343.401	112.64
343.613	-18.43
343.826	81.92
344.038	-4.1
344.25	-24.58
344.462	-14.34
344.674	61.44
344.886	-28.67
345.099	63.49
345.311	131.07
345.523	26.62
345.735	-20.48
345.947	81.92
346.159	49.15
346.371	77.82
346.583	47.1
346.795	182.27
347.007	6.14
347.219	116.73
347.431	-26.62
347.643	141.31
347.855	18.43
348.067	184.32
348.279	4.1
348.491	112.64
348.703	67.58
348.915	36.86
349.127	38.91
349.339	94.21
349.551	-24.58
349.763	182.27
349.975	49.15
350.187	79.87
350.399	114.69
350.61	188.41
350.822	104.45
351.034	67.58
351.246	106.49
351.458	18.43
351.669	67.58
351.881	165.89
352.093	77.82
352.305	110.59
352.517	120.83
352.728	124.93
352.94	-2.05
353.152	116.73
353.363	4.1
353.575	131.07
353.787	200.7
353.999	77.82
354.21	147.45
354.422	-32.77
354.633	90.11
354.845	112.64
355.057	102.4
355.268	65.54
355.48	92.16
355.692	-30.72
355.903	90.11
356.115	-34.82
356.326	-4.1
356.538	116.73
356.749	110.59
356.961	124.93
357.172	110.59
357.384	0
357.595	241.66
357.807	-30.72
358.018	28.67
358.23	49.15
358.441	184.32
358.653	51.2
358.864	106.49
359.075	47.1
359.287	26.62
359.498	108.54
359.709	129.02
359.921	20.48
360.132	178.17
360.344	114.69
360.555	-20.48
360.766	32.77
360.977	47.1
361.189	153.6
361.4	26.62
361.611	165.89
361.823	161.79
362.034	104.45
362.245	-59.39
362.456	59.39
362.667	126.97
362.879	-34.82
363.09	75.77
363.301	67.58
363.512	22.53
363.723	8.19
363.935	-2.05
364.146	49.15
364.357	2.05
364.568	34.82
364.779	-16.38
364.99	180.22
365.201	-47.1
365.412	188.41
365.623	26.62
365.834	126.97
366.045	104.45
366.256	112.64
366.467	129.02
366.678	-22.53
366.889	34.82
367.1	88.06
367.311	159.74
367.522	49.15
367.733	81.92
367.944	147.45
368.155	79.87
368.366	122.88
368.577	145.41
368.788	190.46
368.999	20.48
369.209	120.83
369.42	243.71
369.631	251.9
369.842	165.89
370.053	-20.48
370.264	96.25
370.474	-65.53
370.685	40.96
370.896	51.2
371.107	141.31
371.317	118.78
371.528	67.58
371.739	174.08
371.95	104.45
372.16	139.26
372.371	34.82
372.582	102.4
372.792	106.49
373.003	38.91
373.214	131.07
373.424	69.63
373.635	75.77
373.846	227.32
374.056	14.34
374.267	22.53
374.477	18.43
374.688	6.14
374.898	30.72
375.109	75.77
375.319	133.12
375.53	104.45
375.74	157.69
375.951	-30.72
376.161	96.25
376.372	176.13
376.582	110.59
376.793	208.89
377.003	47.1
377.214	-55.3
377.424	112.64
377.635	49.15
377.845	96.25
378.055	100.35
378.266	-2.05
378.476	28.67
378.686	124.93
378.897	69.63
379.107	145.41
379.317	8.19
379.528	96.25
379.738	102.4
379.948	-57.34
380.158	143.36
380.369	96.25
380.579	51.2
380.789	38.91
380.999	145.41
381.21	145.41
381.42	215.04
381.63	108.54
381.84	79.87
382.05	120.83
382.261	147.45
382.471	161.79
382.681	32.77
382.891	100.35
383.101	53.25
383.311	-20.48
383.521	8.19
383.731	149.5
383.941	172.03
384.151	10.24
384.361	69.63
384.571	100.35
384.781	36.86
384.991	186.37
385.201	135.17
385.411	151.55
385.621	81.92
385.831	73.73
386.041	122.88
386.251	75.77
386.461	88.06
386.671	106.49
386.881	22.53
387.091	24.58
387.301	92.16
387.511	30.72
387.72	102.4
387.93	126.97
388.14	-34.82
388.35	55.3
388.56	133.12
388.769	165.89
388.979	32.77
389.189	8.19
389.399	96.25
389.609	96.25
389.818	96.25
390.028	92.16
390.238	75.77
390.447	-49.15
390.657	81.92
390.867	-26.62
391.076	28.67
391.286	63.49
391.496	51.2
391.705	135.17
391.915	159.74
392.125	79.87
392.334	67.58
392.544	147.45
392.753	108.54
392.963	47.1
393.172	16.38
393.382	83.97
393.591	118.78
393.801	49.15
394.01	126.97
394.22	135.17
394.429	-4.1
394.639	79.87
394.848	126.97
395.058	73.73
395.267	63.49
395.477	51.2
395.686	124.93
395.895	200.7
396.105	172.03
396.314	100.35
396.524	8.19
396.733	-47.1
396.942	118.78
397.152	120.83
397.361	151.55
397.57	30.72
397.78	-12.29
397.989	59.39
398.198	167.93
398.407	131.07
398.617	100.35
398.826	88.06
399.035	26.62
399.244	114.69
399.453	100.35
399.663	69.63
399.872	59.39
400.081	30.72
400.29	135.17
400.499	-16.38
400.708	122.88
400.917	20.48
401.127	63.49
401.336	-28.67
401.545	239.61
401.754	186.37
401.963	22.53
402.172	83.97
402.381	-65.53
402.59	4.1
402.799	-14.34
403.008	34.82
403.217	49.15
403.426	137.21
403.635	-63.49
403.844	79.87
404.053	67.58
404.262	47.1
404.471	174.08
404.68	53.25
404.888	-16.38
405.097	55.3
405.306	100.35
405.515	106.49
405.724	77.82
405.933	137.21
406.142	90.11
406.35	145.41
406.559	57.34
406.768	59.39
406.977	204.8
407.185	102.4
407.394	135.17
407.603	-28.67
407.812	79.87
408.02	202.75
408.229	32.77
408.438	100.35
408.646	26.62
408.855	32.77
409.064	110.59
409.272	79.87
409.481	65.54
409.69	20.48
409.898	40.96
410.107	81.92
410.315	131.07
410.524	79.87
410.733	-12.29
410.941	-34.82
411.15	137.21
411.358	192.51
411.567	210.94
411.775	92.16
411.984	145.41
412.192	55.3
412.401	30.72
412.609	167.93
412.818	198.65
413.026	126.97
413.234	90.11
413.443	38.91
413.651	32.77
413.86	100.35
414.068	104.45
414.276	151.55
414.485	0
414.693	208.89
414.901	169.98
415.11	98.3
415.318	30.72
415.526	49.15
415.734	81.92
415.943	26.62
416.151	208.89
416.359	86.01
416.567	79.87
416.776	98.3
416.984	163.84
417.192	210.94
417.4	16.38
417.608	43.01
417.817	4.1
418.025	131.07
418.233	219.13
418.441	22.53
418.649	40.96
418.857	71.68
419.065	190.46
419.273	-61.44
419.481	10.24
419.689	133.12
419.897	24.58
420.105	14.34
420.313	102.4
420.521	178.17
420.729	137.21
420.937	124.93
421.145	14.34
421.353	116.73
421.561	190.46
421.769	102.4
421.977	4.1
422.185	180.22
422.393	92.16
422.601	163.84
422.809	86.01
423.017	34.82
423.224	114.69
423.432	169.98
423.64	77.82
423.848	208.89
424.056	-36.86
424.263	194.56
424.471	106.49
424.679	219.13
424.887	53.25
425.094	182.27
425.302	159.74
425.51	135.17
425.718	145.41
425.925	49.15
426.133	2.05
426.341	317.44
426.548	167.93
426.756	79.87
426.964	137.21
427.171	24.58
427.379	124.93
427.586	49.15
427.794	126.97
428.001	239.61
428.209	69.63
428.417	161.79
428.624	126.97
428.832	178.17
429.039	155.65
429.247	141.31
429.454	149.5
429.662	264.19
429.869	139.26
430.076	88.06
430.284	225.28
430.491	292.86
430.699	200.7
430.906	296.96
431.114	63.49
431.321	280.57
431.528	153.6
431.736	186.37
431.943	184.32
432.15	135.17
432.358	159.74
432.565	315.39
432.772	-36.86
432.979	288.76
433.187	137.21
433.394	274.43
433.601	77.82
433.808	235.52
434.016	251.9
434.223	210.94
434.43	165.89
434.637	270.33
434.844	354.3
435.052	296.96
435.259	378.87
435.466	335.87
435.673	258.04
435.88	311.29
436.087	313.34
436.294	387.07
436.501	368.63
436.708	362.49
436.915	366.59
437.122	374.78
437.329	323.58
437.537	342.01
437.743	350.2
437.95	376.83
438.157	419.83
438.364	411.64
438.571	466.94
438.778	516.09
438.985	436.22
439.192	520.18
439.399	524.28
439.606	524.28
439.813	649.21
440.02	606.2
440.227	757.75
440.433	636.92
440.64	634.87
440.847	593.91
441.054	626.68
441.261	837.62
441.467	792.56
441.674	739.32
441.881	835.57
442.088	620.53
442.294	833.52
442.501	808.95
442.708	944.11
442.914	870.39
443.121	925.68
443.328	985.07
443.534	1071.09
443.741	1032.18
443.948	901.11
444.154	1083.38
444.361	1267.69
444.568	1230.83
444.774	1204.21
444.981	1085.42
445.187	1376.23
445.394	1306.6
445.6	1257.45
445.807	1384.43
446.013	1411.05
446.22	1400.81
446.426	1662.95
446.633	1628.14
446.839	1873.89
447.046	1624.04
447.252	1806.31
447.459	1820.64
447.665	1681.38
447.871	2119.65
448.078	2148.32
448.284	2093.02
448.491	2215.9
448.697	2334.68
448.903	2529.24
449.11	2482.14
449.316	2447.32
449.522	2715.61
449.728	2758.61
449.935	2830.29
450.141	2719.7
450.347	3112.91
450.553	2957.27
450.76	3221.45
450.966	3282.89
451.172	3428.3
451.378	3471.31
451.584	3577.8
451.791	3776.45
451.997	4014.02
452.203	3979.2
452.409	4218.82
452.615	4468.67
452.821	4313.02
453.027	4366.27
453.233	4806.58
453.44	4681.66
453.646	4978.61
453.852	5189.55
454.058	5410.73
454.264	5453.74
454.47	5908.39
454.676	5724.07
454.882	6408.09
455.088	6191.01
455.294	6526.88
455.5	7020.44
455.705	7323.54
455.911	7325.58
456.117	7626.64
456.323	7720.84
456.529	7935.88
456.735	8572.8
456.941	8804.22
457.147	9115.51
457.352	9365.36
457.558	9420.66
457.764	10166.12
457.97	10579.81
458.176	10766.17
458.381	11298.64
458.587	11546.45
458.793	11988.81
458.999	12238.66
459.204	13618.99
459.41	13961
459.616	13801.26
459.821	14579.49
460.027	15451.92
460.233	16129.8
460.438	16131.85
460.644	17039.1
460.85	17155.83
461.055	17796.85
461.261	18657
461.466	18337.51
461.672	18779.87
461.878	20858.56
462.083	20807.36
462.289	21245.63
462.494	22159.02
462.7	22052.53
462.905	22697.64
463.111	24329.87
463.316	25450.11
463.522	25804.41
463.727	26629.74
463.932	27915.86
464.138	28573.26
464.343	29568.57
464.549	29636.16
464.754	31950.36
464.959	32783.88
465.165	33469.95
465.37	33156.61
465.575	33179.14
465.781	35450.34
465.986	36349.4
466.191	35821.02
466.397	36130.26
466.602	35280.36
466.807	37316.04
467.012	37944.76
467.218	39028.14
467.423	38645.17
467.628	39951.77
467.833	41688.45
468.038	40615.32
468.244	40031.65
468.449	42032.51
468.654	41446.79
468.859	41344.39
469.064	41448.84
469.269	40297.88
469.474	40697.24
469.679	42001.79
469.885	41180.56
470.09	41518.47
470.295	41637.25
470.5	40723.86
470.705	40914.32
470.91	40058.27
471.115	39540.13
471.32	40048.03
471.525	39622.05
471.73	39011.76
471.935	38620.59
472.139	37207.5
472.344	37023.18
472.549	37021.13
472.754	36429.27
472.959	35565.03
473.164	33996.28
473.369	33750.53
473.574	34649.58
473.778	33996.28
473.983	33238.53
474.188	32710.16
474.393	31327.78
474.598	31397.41
474.802	30367.28
475.007	30240.31
475.212	29982.26
475.417	28610.12
475.621	28606.03
475.826	28077.65
476.031	27522.65
476.235	26775.14
476.44	26891.88
476.645	26082.93
476.849	26189.42
477.054	25769.59
477.259	25106.05
477.463	24860.29
477.668	24213.13
477.872	24354.44
478.077	23449.24
478.282	23002.78
478.486	22599.34
478.691	22654.63
478.895	22501.03
479.1	22099.63
479.304	21919.41
479.509	21120.7
479.713	21728.95
479.918	20932.29
480.122	20616.9
480.326	21114.56
480.531	20711.11
480.735	20506.31
480.94	20215.5
481.144	20747.97
481.348	19578.58
481.553	19609.3
481.757	19338.97
481.961	19758.8
482.166	19400.41
482.37	19480.28
482.574	19056.35
482.778	18857.7
482.983	19115.74
483.187	18790.11
483.391	18654.95
483.595	18689.76
483.8	18040.56
484.004	18046.7
484.208	18278.12
484.412	17633.01
484.616	17618.68
484.821	17475.32
485.025	16865.02
485.229	16948.99
485.433	16578.31
485.637	16576.26
485.841	16459.52
486.045	16146.19
486.249	15927.05
486.453	15525.65
486.657	15433.49
486.861	15355.67
487.065	14823.2
487.269	14888.73
487.473	14311.21
487.677	14526.24
487.881	14210.86
488.085	13770.54
488.289	13893.42
488.493	13518.64
488.697	13606.7
488.901	12871.48
489.105	12721.98
489.309	12562.24
489.512	12414.79
489.716	12255.05
489.92	12052.3
490.124	11796.3
490.328	11886.41
490.531	11380.56
490.735	11181.91
490.939	11038.55
491.143	10993.5
491.346	10424.16
491.55	10555.23
491.754	10295.14
491.958	10159.97
492.161	10108.77
492.365	9748.33
492.569	9600.88
492.772	9707.37
492.976	9412.46
493.18	9336.69
493.383	9322.35
493.587	9125.75
493.79	9189.24
493.994	8845.18
494.197	8996.73
494.401	8836.99
494.605	8583.04
494.808	8482.69
495.012	8535.93
495.215	8728.44
495.419	8546.17
495.622	8318.85
495.825	8265.6
496.029	8171.4
496.232	8234.88
496.436	8114.05
496.639	8560.51
496.843	8210.31
497.046	8175.49
497.249	8316.8
497.453	8187.78
497.656	8112
497.859	8222.59
498.063	8089.48
498.266	8277.89
498.469	8290.18
498.673	8296.32
498.876	8345.47
499.079	8253.31
499.282	8226.69
499.485	8578.94
499.689	8370.05
499.892	8703.87
500.095	8513.41
500.298	8658.81
500.501	8724.35
500.705	8796.03
500.908	8988.53
501.111	8939.38
501.314	8892.28
501.517	9193.33
501.72	8931.19
501.923	9125.75
502.126	9441.14
502.329	9652.08
502.532	9492.34
502.735	9721.71
502.938	9889.64
503.141	9787.24
503.344	9731.95
503.547	10313.57
503.75	10174.31
503.953	10393.44
504.156	10532.7
504.359	10665.82
504.562	10735.45
504.765	11167.57
504.968	11145.05
505.17	11335.51
505.373	11351.89
505.576	11749.2
505.779	11861.83
505.982	11704.14
506.185	12197.7
506.387	12324.68
506.59	12633.92
506.793	12756.8
506.996	12687.17
507.198	13463.35
507.401	13580.08
507.604	13809.45
507.807	13999.91
508.009	14245.67
508.212	14554.91
508.415	14667.55
508.617	15261.46
508.82	15413.01
509.022	15730.45
509.225	16357.13
509.428	16480
509.63	16887.55
509.833	17026.81
510.035	17741.55
510.238	17821.42
510.44	18095.85
510.643	18466.53
510.845	19226.33
511.048	19171.04
511.25	19713.75
511.453	20135.63
511.655	21167.8
511.858	21208.76
512.06	21706.42
512.262	22097.58
512.465	22394.54
512.667	23045.79
512.87	23707.29
513.072	23862.93
513.274	24669.83
513.477	24872.58
513.679	25951.86
513.881	26332.78
514.084	26558.06
514.286	27209.31
514.488	28100.18
514.69	28900.93
514.893	29191.75
515.095	29666.88
515.297	30303.79
515.499	31161.89
515.701	31639.07
515.904	32609.81
516.106	32935.43
516.308	33637.89
516.51	34545.14
516.712	35122.66
516.914	35728.86
517.116	36523.47
517.318	37254.6
517.52	37529.03
517.722	38165.95
517.925	38798.77
518.127	39796.13
518.329	40635.8
518.531	40740.24
518.733	41909.63
518.935	42308.99
519.136	42595.7
519.338	43865.44
519.54	44234.08
519.742	44721.49
519.944	45661.51
520.146	46185.79
520.348	46736.69
520.55	47394.09
520.752	47879.46
520.954	48712.98
521.155	48504.09
521.357	49216.78
521.559	49759.5
521.761	50887.93
521.963	50906.36
522.164	51358.96
522.366	51936.49
522.568	52344.03
522.77	52694.24
522.971	53236.95
523.173	53644.49
523.375	53998.79
523.576	53630.16
523.778	53794
523.98	54451.39
524.181	54686.91
524.383	54910.14
524.584	55438.51
524.786	55456.95
524.988	55143.61
525.189	55329.97
525.391	55577.78
525.592	55690.41
525.794	55536.82
525.995	55450.8
526.197	55655.6
526.398	55514.29
526.6	55614.64
526.801	55303.35
527.003	55432.37
527.204	54846.65
527.406	55475.38
527.607	54379.71
527.808	54346.95
528.01	53466.32
528.211	53927.11
528.412	54281.41
528.614	53615.82
528.815	52894.94
529.016	53134.55
529.218	52038.89
529.419	52020.45
529.62	51571.95
529.822	51145.97
530.023	50459.9
530.224	50523.39
530.425	49480.97
530.626	48833.81
530.828	48250.14
531.029	48696.6
531.23	47772.97
531.431	46753.08
531.632	47234.35
531.833	46304.57
532.035	45894.98
532.236	45360.46
532.437	45170
532.638	44168.54
532.839	43728.23
533.04	43666.79
533.241	42145.15
533.442	42646.9
533.643	41641.35
533.844	40719.76
534.045	40666.52
534.246	39826.85
534.447	39409.06
534.648	38886.83
534.849	38309.3
535.05	37725.63
535.251	37662.15
535.451	36804.05
535.652	36609.49
535.853	35894.75
536.054	35569.12
536.255	35112.42
536.456	34164.21
536.657	34475.51
536.857	33203.72
537.058	33455.62
537.259	33248.77
537.46	32394.77
537.66	31837.72
537.861	31608.35
538.062	30938.66
538.263	30744.11
538.463	30236.21
538.664	29834.81
538.865	29857.34
539.065	29318.72
539.266	28728.91
539.466	28649.03
539.667	28028.5
539.868	28130.9
540.068	27258.46
540.269	27172.45
540.469	26844.77
540.67	26363.5
540.87	26191.47
541.071	25902.71
541.271	25730.68
541.472	25542.27
541.672	25130.62
541.873	24686.22
542.073	24403.6
542.274	24256.14
542.474	23953.04
542.675	23355.04
542.875	23361.18
543.075	23105.18
543.276	22589.1
543.476	22687.4
543.676	22308.52
543.877	22001.33
544.077	22025.9
544.277	21577.4
544.478	21198.52
544.678	21186.24
544.878	20790.98
545.078	20772.55
545.279	20383.43
545.479	20168.4
545.679	20201.16
545.879	19781.33
546.079	19355.35
546.28	19263.19
546.48	19033.82
546.68	19164.89
546.88	18605.8
547.08	18482.92
547.28	17825.52
547.48	17952.49
547.68	17946.35
547.88	17497.84
548.081	17393.4
548.281	16832.26
548.481	16862.97
548.681	16731.9
548.881	16625.41
549.081	16303.88
549.28	16322.31
549.48	15912.72
549.68	15732.5
549.88	15632.15
550.08	14933.79
550.28	15183.64
550.48	15154.97
550.68	14438.18
550.88	14247.72
551.08	14120.74
551.279	14087.98
551.479	13682.48
551.679	13633.33
551.879	13053.75
552.079	13272.89
552.278	13086.52
552.478	13070.14
552.678	12906.3
552.878	12748.61
553.077	12087.11
553.277	12355.4
553.477	11890.51
553.676	11745.1
553.876	11501.39
554.076	11306.84
554.275	11171.67
554.475	10852.19
554.674	11011.93
554.874	10749.79
555.074	10477.41
555.273	10557.28
555.473	10104.68
555.672	10119.01
555.872	9795.43
556.071	9805.67
556.271	9682.8
556.47	9312.11
556.67	9086.84
556.869	9076.6
557.068	8990.58
557.268	8777.59
557.467	8710.01
557.667	8529.79
557.866	8226.69
558.065	8243.07
558.265	8193.92
558.464	8073.09
558.663	7866.25
558.863	7661.45
559.062	7798.67
559.261	7366.54
559.461	7522.19
559.66	7219.09
559.859	7118.74
560.058	6938.52
560.258	6928.28
560.457	6825.88
560.656	6741.91
560.855	6582.17
561.054	6512.54
561.253	6436.77
561.453	6215.59
561.652	6363.04
561.851	6289.31
562.05	6070.18
562.249	5902.25
562.448	5908.39
562.647	5736.36
562.846	5740.46
563.045	5660.59
563.244	5406.64
563.443	5701.55
563.642	5318.57
563.841	5316.53
564.04	5158.83
564.239	5035.96
564.438	5044.15
564.637	4751.29
564.836	4970.42
565.035	4841.4
565.234	4736.95
565.432	4630.46
565.631	4609.98
565.83	4607.93
566.029	4528.06
566.228	4407.23
566.427	4425.66
566.625	4161.47
566.824	4200.38
567.023	4261.82
567.222	4073.41
567.42	4151.23
567.619	4022.21
567.818	4046.79
568.016	4220.86
568.215	3950.53
568.414	3792.84
568.612	3835.85
568.811	3696.58
569.01	3788.74
569.208	3403.72
569.407	3641.29
569.605	3467.21
569.804	3450.83
570.002	3362.76
570.201	3344.33
570.4	3438.54
570.598	3194.83
570.797	3211.22
570.995	3002.32
571.193	3131.34
571.392	3092.43
571.59	2979.79
571.789	3020.75
571.987	2914.26
572.186	3006.42
572.384	2940.88
572.582	2752.47
572.781	2834.39
572.979	2693.08
573.177	2623.45
573.376	2652.12
573.574	2699.22
573.772	2492.38
573.971	2525.15
574.169	2394.08
574.367	2492.38
574.565	2416.6
574.763	2263.01
574.962	2285.53
575.16	2260.96
575.358	2271.2
575.556	2213.85
575.754	2193.37
575.952	2150.37
576.151	2248.67
576.349	2101.22
576.547	1970.15
576.745	1943.52
576.943	2088.93
577.141	1937.38
577.339	1812.45
577.537	1955.81
577.735	1822.69
577.933	1787.88
578.131	1861.6
578.329	1882.08
578.527	1773.54
578.725	1800.16
578.923	1656.81
579.121	1689.57
579.319	1578.98
579.516	1736.68
579.714	1761.25
579.912	1640.42
580.11	1482.73
580.308	1554.41
580.506	1538.02
580.704	1337.32
580.901	1363.95
581.099	1443.82
581.297	1474.54
581.495	1413.1
581.692	1449.96
581.89	1529.83
582.088	1361.9
582.285	1300.46
582.483	1452.01
582.681	1253.36
582.878	1273.84
583.076	1263.6
583.274	1271.79
583.471	1298.41
583.669	1138.67
583.866	1193.97
584.064	1202.16
584.262	1062.9
584.459	1165.29
584.657	1171.44
584.854	1183.73
585.052	1128.43
585.249	1091.57
585.447	1005.55
585.644	921.59
585.841	1083.38
586.039	1089.52
586.236	1091.57
586.434	1044.46
586.631	919.54
586.828	956.4
587.026	1069.04
587.223	856.05
587.42	974.83
587.618	985.07
587.815	1048.56
588.012	874.48
588.21	821.24
588.407	870.39
588.604	946.16
588.801	837.62
588.999	831.48
589.196	913.39
589.393	735.22
589.59	882.67
589.787	868.34
589.984	870.39
590.182	837.62
590.379	755.7
590.576	800.76
590.773	819.19
590.97	714.74
591.167	847.86
591.364	747.51
591.561	784.37
591.758	847.86
591.955	874.48
592.152	718.84
592.349	786.42
592.546	815.09
592.743	661.49
592.94	811
593.137	897.01
593.334	782.32
593.531	808.95
593.727	851.96
593.924	806.9
594.121	767.99
594.318	800.76
594.515	874.48
594.712	940.02
594.908	884.72
595.105	614.39
595.302	866.29
595.499	862.19
595.696	956.4
595.892	782.32
596.089	901.11
596.286	858.1
596.482	1034.22
596.679	958.45
596.876	909.3
597.072	1054.7
597.269	1044.46
597.466	1028.08
597.662	1009.65
597.859	1058.8
598.055	1112.05
598.252	1175.53
598.448	1163.25
598.645	1210.35
598.841	1341.42
599.038	1433.58
599.234	1384.43
599.431	1366
599.627	1433.58
599.824	1478.63
600.02	1548.26
600.217	1648.61
600.413	1634.28
600.609	1701.86
600.806	1986.53
601.002	2015.2
601.198	1931.23
601.395	2052.06
601.591	2093.02
601.787	2234.33
601.984	2263.01
602.18	2295.77
602.376	2404.32
602.572	2531.29
602.769	2641.88
602.965	2701.27
603.161	2750.42
603.357	2957.27
603.553	3061.71
603.75	2994.13
603.946	3108.82
604.142	3270.61
604.338	3432.4
604.534	3450.83
604.73	3459.02
604.926	3637.19
605.122	3971.01
605.318	3977.16
605.514	4022.21
605.71	4042.69
605.906	4214.72
606.102	4442.04
606.298	4716.47
606.494	4695.99
606.69	5031.86
606.886	4925.36
607.082	5203.89
607.278	5240.75
607.474	5384.11
607.67	5468.08
607.866	5666.73
608.062	5914.53
608.257	6002.6
608.453	5969.83
608.649	6238.11
608.845	6526.88
609.041	6643.61
609.236	6793.11
609.432	6965.14
609.628	7309.2
609.824	7409.55
610.019	7602.06
610.215	7778.19
610.411	8120.2
610.606	8404.86
610.802	8542.08
610.998	8724.35
611.193	8929.14
611.389	9019.25
611.584	9428.85
611.78	9521.01
611.976	9897.83
612.171	10329.95
612.367	10303.33
612.562	10815.32
612.758	10989.4
612.953	11093.85
613.149	11419.47
613.344	11759.44
613.539	12228.42
613.735	12488.51
613.93	12877.63
614.126	13029.18
614.321	13369.14
614.517	14024.49
614.712	14303.01
614.907	14341.93
615.103	14858.01
615.298	15255.32
615.493	15531.8
615.688	15871.76
615.884	16645.89
616.079	16725.76
616.274	17581.81
616.47	17334.01
616.665	18280.17
616.86	18706.15
617.055	18869.98
617.25	19717.84
617.445	19934.93
617.641	20170.44
617.836	21206.72
618.031	21257.92
618.226	22310.57
618.421	22378.15
618.616	23191.2
618.811	23150.24
619.006	24532.62
619.201	24391.31
619.396	25230.97
619.591	25468.54
619.786	26175.09
619.981	26365.55
620.176	27438.69
620.371	27616.86
620.566	28302.93
620.761	28620.36
620.956	29535.81
621.151	29900.34
621.346	30694.96
621.541	30801.45
621.735	32376.34
621.93	32362
622.125	33039.88
622.32	33144.33
622.515	34117.11
622.709	34698.73
622.904	35687.9
623.099	35495.39
623.294	36736.46
623.488	37141.96
623.683	37860.8
623.878	38208.95
624.072	39060.91
624.267	39562.66
624.462	40215.96
624.656	40279.45
624.851	41471.37
625.046	41850.24
625.24	42876.27
625.435	42626.42
625.629	43650.41
625.824	44182.88
626.018	44848.47
626.213	44879.19
626.407	45960.51
626.602	45530.44
626.796	46730.55
626.991	47277.36
627.185	47279.41
627.38	47422.76
627.574	48086.31
627.768	48137.51
627.963	48303.39
628.157	48045.35
628.352	48743.7
628.546	48360.73
628.74	48876.82
628.935	48825.62
629.129	48946.45
629.323	48274.72
629.517	48315.68
629.712	48119.07
629.906	47822.12
630.1	47043.89
630.294	46910.77
630.489	45886.79
630.683	46138.69
630.877	44795.22
631.071	44156.25
631.265	43777.38
631.459	42360.19
631.653	41837.95
631.848	41119.12
632.042	39927.2
632.236	39044.52
632.43	37754.3
632.624	37313.99
632.818	35960.28
633.012	34465.27
633.206	33889.79
633.4	33091.08
633.594	31446.56
633.788	30701.1
633.982	29681.21
634.176	28771.91
634.369	27534.94
634.563	26623.59
634.757	25308.8
634.951	24815.24
635.145	23645.85
635.339	22924.96
635.533	21825.2
635.726	21202.62
635.92	19990.22
636.114	19103.45
636.308	18370.28
636.501	17991.41
636.695	17071.87
636.889	16406.28
637.083	15587.09
637.276	15236.89
637.47	14382.88
637.664	13805.36
637.857	13233.97
638.051	12818.24
638.244	12302.15
638.438	11988.81
638.632	11267.92
638.825	10712.92
639.019	10473.31
639.212	9938.79
639.406	9701.23
639.599	9279.35
639.793	8841.08
639.986	8341.38
640.18	8445.82
640.373	7993.22
640.567	7759.75
640.76	7483.28
640.954	7014.29
641.147	6719.39
641.34	6502.3
641.534	6326.18
641.727	5955.49
641.92	5814.18
642.114	5664.68
642.307	5353.39
642.5	5300.14
642.694	4884.41
642.887	4716.47
643.08	4743.1
643.273	4440
643.467	4339.65
643.66	4147.14
643.853	3870.66
644.046	3786.69
644.239	3592.14
644.432	3516.36
644.626	3299.28
644.819	3346.38
645.012	3123.15
645.205	3086.29
645.398	3082.19
645.591	2719.7
645.784	2699.22
645.977	2584.54
646.17	2537.43
646.363	2461.66
646.556	2181.09
646.749	2082.78
646.942	2146.27
647.135	2162.65
647.328	1894.37
647.521	1992.67
647.714	1837.03
647.907	1769.44
648.099	1718.25
648.292	1640.42
648.485	1654.76
648.678	1570.79
648.871	1454.06
649.064	1454.06
649.256	1302.51
649.449	1333.23
649.642	1173.49
649.835	1228.78
650.027	1132.53
650.22	1222.64
650.413	1138.67
650.605	1044.46
650.798	962.55
650.991	1048.56
651.183	1021.94
651.376	976.88
651.568	1019.89
651.761	796.66
651.954	823.28
652.146	733.17
652.339	868.34
652.531	894.96
652.724	649.21
652.916	690.17
653.109	552.95
653.301	698.36
653.494	702.45
653.686	704.5
653.879	765.94
654.071	673.78
654.263	612.34
654.456	534.52
654.648	610.29
654.84	612.34
655.033	555
655.225	638.97
655.417	370.68
655.61	612.34
655.802	501.75
655.994	577.53
656.186	419.83
656.379	526.33
656.571	344.06
656.763	413.69
656.955	350.2
657.148	471.03
657.34	569.34
657.532	354.3
657.724	335.87
657.916	432.12
658.108	423.93
658.3	444.41
658.492	487.42
658.684	337.91
658.876	421.88
659.068	258.04
659.26	210.94
659.452	280.57
659.644	354.3
659.836	452.6
660.028	284.67
660.22	284.67
660.412	319.48
660.604	303.1
660.796	362.49
660.988	368.63
661.18	288.76
661.372	323.58
661.563	321.53
661.755	299
661.947	206.84
662.139	247.8
662.331	270.33
662.522	329.72
662.714	276.48
662.906	184.32
663.097	245.76
663.289	208.89
663.481	194.56
663.673	270.33
663.864	161.79
664.056	292.86
664.247	180.22
664.439	337.91
664.631	258.04
664.822	329.72
665.014	325.63
665.205	167.93
665.397	184.32
665.588	264.19
665.78	251.9
665.971	270.33
666.163	137.21
666.354	266.24
666.546	161.79
666.737	231.42
666.929	149.5
667.12	184.32
667.311	247.8
667.503	184.32
667.694	178.17
667.885	253.95
668.077	143.36
668.268	114.69
668.459	264.19
668.651	182.27
668.842	235.52
669.033	174.08
669.224	208.89
669.416	409.59
669.607	188.41
669.798	159.74
669.989	251.9
670.18	200.7
670.371	229.37
670.563	71.68
670.754	301.05
670.945	274.43
671.136	210.94
671.327	235.52
671.518	266.24
671.709	342.01
671.9	256
672.091	253.95
672.282	227.32
672.473	231.42
672.664	169.98
672.855	272.38
673.046	325.63
673.237	262.14
673.428	276.48
673.619	313.34
673.809	278.52
674	264.19
674.191	333.82
674.382	196.61
674.573	294.91
674.764	264.19
674.954	315.39
675.145	157.69
675.336	311.29
675.527	237.56
675.717	262.14
675.908	243.71
676.099	180.22
676.289	307.2
676.48	116.73
676.671	219.13
676.861	266.24
677.052	284.67
677.243	292.86
677.433	323.58
677.624	247.8
677.814	284.67
678.005	247.8
678.195	421.88
678.386	186.37
678.576	296.96
678.767	217.08
678.957	266.24
679.148	299
679.338	409.59
679.529	346.11
679.719	358.39
679.909	401.4
680.1	335.87
680.29	296.96
680.481	247.8
680.671	407.55
680.861	360.44
681.052	327.67
681.242	307.2
681.432	434.17
681.622	407.55
681.813	311.29
682.003	319.48
682.193	253.95
682.383	409.59
682.573	401.4
682.764	335.87
682.954	374.78
683.144	407.55
683.334	276.48
683.524	342.01
683.714	399.35
683.904	428.03
684.094	356.35
684.284	370.68
684.474	436.22
684.664	526.33
684.854	428.03
685.044	409.59
685.234	421.88
685.424	401.4
685.614	405.5
685.804	520.18
685.994	417.79
686.184	401.4
686.374	440.31
686.564	428.03
686.753	342.01
686.943	415.74
687.133	436.22
687.323	417.79
687.513	468.98
687.702	385.02
687.892	329.72
688.082	436.22
688.272	507.9
688.461	348.15
688.651	528.38
688.841	380.92
689.03	440.31
689.22	405.5
689.41	458.75
689.599	399.35
689.789	352.25
689.979	471.03
690.168	372.73
690.358	495.61
690.547	331.77
690.737	438.27
690.926	374.78
691.116	425.98
691.305	493.56
691.495	440.31
691.684	256
691.874	286.72
692.063	385.02
692.252	432.12
692.442	370.68
692.631	288.76
692.82	288.76
693.01	356.35
693.199	321.53
693.388	387.07
693.578	303.1
693.767	428.03
693.956	370.68
694.146	376.83
694.335	350.2
694.524	331.77
694.713	423.93
694.902	307.2
695.092	368.63
695.281	356.35
695.47	358.39
695.659	301.05
695.848	342.01
696.037	247.8
696.226	423.93
696.415	372.73
696.604	403.45
696.793	299
696.982	288.76
697.171	514.04
697.36	319.48
697.549	356.35
697.738	235.52
697.927	505.85
698.116	329.72
698.305	348.15
698.494	309.24
698.683	292.86
698.872	434.17
699.061	339.96
699.25	315.39
699.438	346.11
699.627	290.81
699.816	509.94
700.005	296.96
700.193	264.19
700.382	395.26
700.571	346.11
700.76	368.63
700.948	471.03
701.137	346.11
701.326	397.31
701.514	280.57
701.703	401.4
701.892	249.85
702.08	518.14
702.269	235.52
702.457	335.87
702.646	321.53
702.834	292.86
703.023	382.97
703.212	368.63
703.4	309.24
703.589	243.71
703.777	374.78
703.965	274.43
704.154	202.75
704.342	260.09
704.531	235.52
704.719	358.39
704.907	477.18
705.096	249.85
705.284	323.58
705.472	294.91
705.661	358.39
705.849	393.21
706.037	473.08
706.226	399.35
706.414	251.9
706.602	288.76
706.79	350.2
706.979	264.19
707.167	339.96
707.355	292.86
707.543	325.63
707.731	366.59
707.919	339.96
708.107	337.91
708.296	276.48
708.484	350.2
708.672	325.63
708.86	346.11
709.048	321.53
709.236	296.96
709.424	471.03
709.612	339.96
709.8	225.28
709.988	319.48
710.176	405.5
710.364	444.41
710.551	333.82
710.739	370.68
710.927	260.09
711.115	299
711.303	466.94
711.491	497.66
711.679	313.34
711.866	411.64
712.054	274.43
712.242	335.87
712.43	368.63
712.617	292.86
712.805	423.93
712.993	466.94
713.181	243.71
713.368	442.36
713.556	313.34
713.744	272.38
713.931	565.24
714.119	389.11
714.306	292.86
714.494	323.58
714.682	321.53
714.869	217.08
715.057	319.48
715.244	292.86
715.432	374.78
715.619	280.57
715.807	313.34
715.994	231.42
716.182	385.02
716.369	382.97
716.556	411.64
716.744	241.66
716.931	249.85
717.119	425.98
717.306	307.2
717.493	358.39
717.681	288.76
717.868	303.1
718.055	425.98
718.242	376.83
718.43	378.87
718.617	401.4
718.804	299
718.991	493.56
719.179	368.63
719.366	360.44
719.553	438.27
719.74	352.25
719.927	372.73
720.114	446.46
720.301	409.59
720.488	331.77
720.676	321.53
720.863	499.7
721.05	481.27
721.237	356.35
721.424	413.69
721.611	378.87
721.798	380.92
721.985	239.61
722.172	378.87
722.358	378.87
722.545	464.89
722.732	423.93
722.919	509.94
723.106	401.4
723.293	307.2
723.48	354.3
723.667	323.58
723.853	462.84
724.04	372.73
724.227	503.8
724.414	401.4
724.6	440.31
724.787	542.71
724.974	477.18
725.161	413.69
725.347	299
725.534	452.6
725.72	407.55
725.907	534.52
726.094	460.79
726.28	352.25
726.467	385.02
726.653	415.74
726.84	534.52
727.027	514.04
727.213	456.7
727.4	409.59
727.586	389.11
727.773	479.22
727.959	425.98
728.145	507.9
728.332	407.55
728.518	389.11
728.705	434.17
728.891	444.41
729.077	405.5
729.264	407.55
729.45	391.16
729.636	468.98
729.823	428.03
730.009	438.27
730.195	409.59
730.382	501.75
730.568	337.91
730.754	397.31
730.94	464.89
731.126	462.84
731.313	450.55
731.499	399.35
731.685	520.18
731.871	516.09
732.057	405.5
732.243	421.88
732.429	493.56
732.615	595.96
732.801	487.42
732.987	452.6
733.173	460.79
733.359	378.87
733.545	403.45
733.731	462.84
733.917	542.71
734.103	507.9
734.289	448.51
734.475	415.74
734.661	589.82
734.847	479.22
735.033	385.02
735.219	548.86
735.404	514.04
735.59	348.15
735.776	440.31
735.962	497.66
736.148	536.57
736.333	489.46
736.519	460.79
736.705	456.7
736.89	499.7
737.076	471.03
737.262	294.91
737.447	419.83
737.633	327.67
737.819	413.69
738.004	446.46
738.19	403.45
738.375	417.79
738.561	559.1
738.747	421.88
738.932	423.93
739.118	671.73
739.303	481.27
739.489	378.87
739.674	358.39
739.859	380.92
740.045	436.22
740.23	487.42
740.416	309.24
740.601	561.14
740.786	399.35
740.972	393.21
741.157	462.84
741.342	440.31
741.528	372.73
741.713	458.75
741.898	458.75
742.084	378.87
742.269	454.65
742.454	546.81
742.639	493.56
742.824	415.74
743.01	540.66
743.195	501.75
743.38	434.17
743.565	360.44
743.75	468.98
743.935	489.46
744.12	493.56
744.305	395.26
744.49	407.55
744.675	397.31
744.86	311.29
745.045	503.8
745.23	391.16
745.415	362.49
745.6	493.56
745.785	376.83
745.97	495.61
746.155	419.83
746.34	438.27
746.525	540.66
746.71	530.42
746.895	364.54
747.079	313.34
747.264	395.26
747.449	534.52
747.634	411.64
747.819	483.32
748.003	350.2
748.188	313.34
748.373	473.08
748.557	460.79
748.742	468.98
748.927	370.68
749.111	360.44
749.296	321.53
749.481	479.22
749.665	307.2
749.85	335.87
750.034	415.74
750.219	348.15
750.404	370.68
750.588	354.3
750.773	258.04
750.957	309.24
751.141	382.97
751.326	401.4
751.51	237.56
751.695	362.49
751.879	376.83
752.064	432.12
752.248	264.19
752.432	403.45
752.617	354.3
752.801	344.06
752.985	311.29
753.17	403.45
753.354	385.02
753.538	356.35
753.722	274.43
753.907	335.87
754.091	231.42
754.275	276.48
754.459	231.42
754.643	313.34
754.828	393.21
755.012	372.73
755.196	219.13
755.38	280.57
755.564	315.39
755.748	325.63
755.932	262.14
756.116	339.96
756.3	432.12
756.484	280.57
756.668	282.62
756.852	133.12
757.036	169.98
757.22	292.86
757.404	135.17
757.588	235.52
757.772	296.96
757.956	243.71
758.14	346.11
758.323	237.56
758.507	299
758.691	206.84
758.875	290.81
759.059	262.14
759.242	190.46
759.426	202.75
759.61	219.13
759.794	215.04
759.977	317.44
760.161	415.74
760.345	299
760.528	380.92
760.712	290.81
760.895	307.2
761.079	227.32
761.263	163.84
761.446	182.27
761.63	204.8
761.813	282.62
761.997	129.02
762.18	155.65
762.364	212.99
762.547	151.55
762.731	147.45
762.914	184.32
763.098	163.84
763.281	169.98
763.464	165.89
763.648	147.45
763.831	176.13
764.015	86.01
764.198	212.99
764.381	120.83
764.564	194.56
764.748	108.54
764.931	237.56
765.114	157.69
765.297	292.86
765.481	108.54
765.664	219.13
765.847	147.45
766.03	311.29
766.213	98.3
766.397	198.65
766.58	45.06
766.763	270.33
766.946	157.69
767.129	135.17
767.312	198.65
767.495	149.5
767.678	210.94
767.861	196.61
768.044	102.4
768.227	126.97
768.41	202.75
768.593	180.22
768.776	161.79
768.959	157.69
769.142	268.28
769.324	210.94
769.507	159.74
769.69	153.6
769.873	116.73
770.056	372.73
770.239	106.49
770.421	333.82
770.604	272.38
770.787	88.06
770.97	174.08
771.152	139.26
771.335	161.79
771.518	100.35
771.7	251.9
771.883	245.76
772.066	137.21
772.248	196.61
772.431	223.23
772.613	210.94
772.796	77.82
772.978	169.98
773.161	303.1
773.343	96.25
773.526	94.21
773.708	2.05
773.891	36.86
774.073	96.25
774.256	92.16
774.438	229.37
774.621	114.69
774.803	51.2
774.985	178.17
775.168	212.99
775.35	51.2
775.532	206.84
775.715	63.49
775.897	196.61
776.079	67.58
776.261	182.27
776.444	143.36
776.626	104.45
776.808	149.5
776.99	96.25
777.173	153.6
777.355	92.16
777.537	135.17
777.719	110.59
777.901	126.97
778.083	38.91
778.265	-47.1
778.447	155.65
778.629	47.1
778.811	122.88
778.993	126.97
779.175	169.98
779.357	104.45
779.539	6.14
779.721	116.73
779.903	83.97
780.085	69.63
780.267	143.36
780.449	104.45
780.631	131.07
780.812	186.37
780.994	116.73
781.176	92.16
781.358	133.12
781.54	16.38
781.721	129.02
781.903	165.89
782.085	108.54
782.267	180.22
782.448	0
782.63	8.19
782.812	104.45
782.993	108.54
783.175	133.12
783.357	83.97
783.538	10.24
783.72	10.24
783.901	67.58
784.083	133.12
784.264	73.73
784.446	-36.86
784.627	43.01
784.809	63.49
784.99	81.92
785.172	169.98
785.353	73.73
785.535	63.49
785.716	155.65
785.897	-22.53
786.079	61.44
786.26	79.87
786.441	94.21
786.623	-77.82
786.804	30.72
786.985	67.58
787.167	30.72
787.348	18.43
787.529	49.15
787.71	182.27
787.891	73.73
788.073	-57.34
788.254	-20.48
788.435	204.8
788.616	118.78
788.797	-77.82
788.978	149.5
789.159	-10.24
789.34	98.3
789.522	-12.29
789.703	-4.1
789.884	40.96
790.065	106.49
790.246	225.28
790.427	16.38
790.607	159.74
790.788	182.27
790.969	59.39
791.15	51.2
791.331	24.58
791.512	30.72
791.693	43.01
791.874	14.34
792.054	192.51
792.235	96.25
792.416	-34.82
792.597	14.34
792.778	110.59
792.958	92.16
793.139	102.4
793.32	75.77
793.5	-2.05
793.681	204.8
793.862	114.69
794.042	73.73
794.223	12.29
794.404	-14.34
794.584	-167.93
794.765	73.73
794.945	-10.24
795.126	126.97
795.306	157.69
795.487	-28.67
795.667	-6.14
795.848	75.77
796.028	81.92
796.209	122.88
796.389	75.77
796.57	83.97
796.75	-51.2
796.93	-16.38
797.111	-26.62
797.291	32.77
797.471	104.45
797.652	34.82
797.832	10.24
798.012	47.1
798.192	55.3
798.373	-83.97
798.553	104.45
798.733	94.21
798.913	20.48
799.093	43.01
799.274	86.01
799.454	77.82
799.634	83.97
799.814	75.77
799.994	73.73
800.174	73.73
800.354	57.34
800.534	6.14
800.714	102.4
800.894	-16.38
801.074	-22.53
801.254	0
801.434	178.17
801.614	63.49
801.794	-77.82
801.974	1763.3
802.154	28.67
802.334	94.21
802.514	16.38
802.693	32.77
802.873	47.1
803.053	284.67
803.233	73.73
803.413	77.82
803.592	-16.38
803.772	4.1
803.952	40.96
804.131	10.24
804.311	116.73
804.491	131.07
804.67	-47.1
804.85	-22.53
805.03	32.77
805.209	153.6
805.389	30.72
805.568	14.34
805.748	67.58
805.928	43.01
806.107	65.54
806.287	73.73
806.466	157.69
806.646	30.72
806.825	28.67
807.004	57.34
807.184	77.82
807.363	100.35
807.543	112.64
807.722	-100.35
807.901	120.83
808.081	131.07
808.26	-116.73
808.439	65.54
808.619	98.3
808.798	-38.91
808.977	69.63
809.156	98.3
809.336	55.3
809.515	116.73
809.694	24.58
809.873	8.19
810.052	86.01
810.231	-2.05
810.411	90.11
810.59	73.73
810.769	-83.97
810.948	22.53
811.127	-79.87
811.306	14.34
811.485	28.67
811.664	133.12
811.843	24.58
812.022	40.96
812.201	63.49
812.38	57.34
812.559	47.1
812.737	12.29
812.916	4.1
813.095	-61.44
813.274	55.3
813.453	67.58
813.632	83.97
813.811	108.54
813.989	-20.48
814.168	40.96
814.347	-14.34
814.526	57.34
814.704	118.78
814.883	155.65
815.062	0
815.24	100.35
815.419	-98.3
815.598	49.15
815.776	-137.21
815.955	-10.24
816.133	-90.11
816.312	-16.38
816.49	55.3
816.669	2.05
816.847	-4.1
817.026	59.39
817.204	47.1
817.383	18.43
817.561	-67.58
817.74	73.73
817.918	65.54
818.097	-36.86
818.275	-6.14
818.453	141.31
818.632	32.77
818.81	-6.14
818.988	0
819.167	-40.96
819.345	86.01
819.523	-6.14
819.701	143.36
819.879	106.49
820.058	57.34
820.236	-6.14
820.414	-4.1
820.592	-2.05
820.77	47.1
820.948	14.34
821.127	-16.38
821.305	34.82
821.483	-63.49
821.661	67.58
821.839	12.29
822.017	12.29
822.195	10.24
822.373	100.35
822.551	61.44
822.729	114.69
822.907	-88.06
823.085	69.63
823.262	-2.05
823.44	-36.86
823.618	55.3
823.796	36.86
823.974	-40.96
824.152	16.38
824.329	112.64
824.507	43.01
824.685	20.48
824.863	43.01
825.04	6.14
825.218	36.86
825.396	32.77
825.574	73.73
825.751	18.43
825.929	0
826.107	-53.25
826.284	14.34
826.462	77.82
826.639	-100.35
826.817	-36.86
826.994	69.63
827.172	-51.2
827.349	106.49
827.527	129.02
827.704	30.72
827.882	112.64
828.059	75.77
828.237	75.77
828.414	98.3
828.591	-126.97
828.769	73.73
828.946	-8.19
829.124	102.4
829.301	96.25
829.478	20.48
829.655	38.91
829.833	-18.43
830.01	-20.48
830.187	20.48
830.364	49.15
830.542	24.58
830.719	129.02
830.896	45.06
831.073	24.58
831.25	14.34
831.427	88.06
831.604	22.53
831.782	53.25
831.959	53.25
832.136	-20.48
832.313	51.2
832.49	-34.82
832.667	16.38
832.844	26.62
833.021	77.82
833.198	4.1
833.374	77.82
833.551	51.2
833.728	69.63
833.905	104.45
834.082	-96.25
834.259	51.2
834.436	122.88
834.612	-43.01
834.789	12.29
834.966	65.54
835.143	51.2
835.319	38.91
835.496	92.16
835.673	47.1
835.85	100.35
836.026	20.48
836.203	94.21
836.38	-51.2
836.556	-47.1
836.733	-38.91
836.909	137.21
837.086	-20.48
837.262	-53.25
837.439	53.25
837.616	14.34
837.792	24.58
837.968	-8.19
838.145	-122.88
838.321	-8.19
838.498	-18.43
838.674	51.2
838.851	63.49
839.027	-14.34
839.203	59.39
839.38	92.16
839.556	34.82
839.732	6.14
839.909	-40.96
840.085	69.63
840.261	10.24
840.437	-57.34
840.614	38.91
840.79	83.97
840.966	116.73
841.142	32.77
841.318	-63.49
841.494	77.82
841.671	71.68
841.847	-10.24
842.023	-51.2
842.199	75.77
842.375	98.3
842.551	-88.06
842.727	-55.3
842.903	77.82
843.079	-55.3
843.255	67.58
843.431	32.77
843.607	18.43
843.783	-196.6
843.959	45.06
844.134	10.24
844.31	98.3
844.486	-61.44
844.662	-30.72
844.838	45.06
845.013	110.59
845.189	118.78
845.365	16.38
845.541	-26.62
845.716	67.58
845.892	0
846.068	-18.43
846.244	-90.11
846.419	-24.58
846.595	-6.14
846.77	20.48
846.946	0
847.122	18.43
847.297	-43.01
847.473	133.12
847.648	-47.1
847.824	-8.19
847.999	-86.01
848.175	16.38
848.35	53.25
848.526	131.07
848.701	100.35
848.876	45.06
849.052	61.44
849.227	-12.29
849.403	-20.48
849.578	-12.29
849.753	92.16
849.929	88.06
850.104	-20.48
850.279	12.29
850.454	43.01
850.63	32.77
850.805	102.4
850.98	16.38
851.155	57.34
851.33	57.34
851.505	-40.96
851.681	86.01
851.856	-32.77
852.031	12.29
852.206	-10.24
852.381	-75.77
852.556	-6.14
852.731	55.3
852.906	26.62
853.081	73.73
853.256	83.97
853.431	26.62
853.606	24.58
853.781	-38.91
853.956	-67.58
854.131	43.01
854.305	-22.53
854.48	-20.48
854.655	-104.45
854.83	-32.77
855.005	4.1
855.18	28.67
855.354	34.82
855.529	34.82
855.704	20.48
855.879	40.96
856.053	-49.15
856.228	47.1
856.403	-55.3
856.577	73.73
856.752	-153.6
856.926	59.39
857.101	-20.48
857.276	-88.06
857.45	-10.24
857.625	73.73
857.799	-10.24
857.974	-16.38
858.148	-98.3
858.323	86.01
858.497	20.48
858.672	12.29
858.846	-51.2
859.02	49.15
859.195	-112.64
859.369	-79.87
859.543	32.77
859.718	-61.44
859.892	53.25
860.066	16.38
860.241	57.34
860.415	30.72
860.589	34.82
860.763	-2.05
860.938	-4.1
861.112	49.15
861.286	8.19
861.46	92.16
861.634	-14.34
861.808	141.31
861.982	-32.77
862.157	-67.58
862.331	-38.91
862.505	-83.97
862.679	-96.25
862.853	-34.82
863.027	-38.91
863.201	169.98
863.375	22.53
863.549	20.48
863.722	34.82
863.896	40.96
864.07	-10.24
864.244	-28.67
864.418	63.49
864.592	28.67
864.766	-10.24
864.939	-6.14
865.113	-96.25
865.287	36.86
865.461	-49.15
865.634	28.67
865.808	2.05
865.982	-45.06
866.156	-73.73
866.329	6.14
866.503	36.86
866.676	59.39
866.85	86.01
867.024	-67.58
867.197	129.02
867.371	79.87
867.544	51.2
867.718	-65.53
867.891	114.69
868.065	-77.82
868.238	-30.72
868.412	38.91
868.585	57.34
868.759	22.53
868.932	-81.92
869.105	-6.14
869.279	-69.63
869.452	-20.48
869.625	79.87
869.799	-38.91
869.972	-88.06
870.145	-53.25
870.319	38.91
870.492	-71.68
870.665	-20.48
870.838	-40.96
871.011	-124.93
871.185	-102.4
871.358	-24.58
871.531	77.82
871.704	-24.58
871.877	51.2
872.05	-110.59
872.223	-8.19
872.396	22.53
872.569	28.67
872.742	-24.58
872.915	12.29
873.088	-28.67
873.261	-18.43
873.434	75.77
873.607	12.29
873.78	90.11
873.953	-102.4
874.126	0
874.299	16.38
874.471	75.77
874.644	22.53
874.817	24.58
874.99	108.54
875.163	-38.91
875.335	43.01
875.508	-36.86
875.681	147.45
875.853	-49.15
876.026	49.15
876.199	71.68
876.371	-2.05
876.544	14.34
876.717	59.39
876.889	-38.91
877.062	73.73
877.234	-65.53
877.407	59.39
877.579	-40.96
877.752	16.38
877.924	77.82
878.097	26.62
878.269	-18.43
878.442	47.1
878.614	22.53
878.786	-8.19
878.959	61.44
879.131	57.34
879.303	-51.2
879.476	-28.67
879.648	129.02
879.82	24.58
879.993	-28.67
880.165	18.43
880.337	-75.77
880.509	100.35
880.681	-55.3
880.854	22.53
881.026	114.69
881.198	124.93
881.37	38.91
881.542	59.39
881.714	-28.67
881.886	18.43
882.058	24.58
882.23	-10.24
882.402	-47.1
882.574	71.68
882.746	98.3
882.918	100.35
883.09	18.43
883.262	-24.58
883.434	47.1
883.606	-47.1
883.778	14.34
883.95	198.65
884.122	49.15
884.293	49.15
884.465	-20.48
884.637	47.1
884.809	-6.14
884.98	96.25
885.152	45.06
885.324	77.82
885.496	-38.91
885.667	-73.73
885.839	-47.1
886.011	219.13
886.182	-14.34
886.354	133.12
886.525	24.58
886.697	-38.91
886.869	-92.16
887.04	-24.58
887.212	0
887.383	129.02
887.555	30.72
887.726	18.43
887.897	-14.34
888.069	61.44
888.24	18.43
888.412	-57.34
888.583	4.1
888.754	-4.1
888.926	-55.3
889.097	-55.3
889.268	-26.62
889.44	-12.29
889.611	-32.77
889.782	-57.34
889.953	-53.25
890.125	40.96
890.296	-28.67
890.467	8.19
890.638	2.05
890.809	12.29
890.98	-34.82
891.151	61.44
891.323	65.54
891.494	59.39
891.665	-38.91
891.836	-79.87
892.007	-47.1
892.178	34.82
892.349	55.3
892.52	-69.63
892.691	12.29
892.862	-26.62
893.032	-38.91
893.203	10.24
893.374	30.72
893.545	90.11
893.716	6.14
893.887	51.2
894.057	12.29
894.228	-10.24
894.399	-126.97
894.57	112.64
894.74	-14.34
894.911	6.14
895.082	-32.77
895.253	-61.44
895.423	14.34
895.594	63.49
895.764	49.15
895.935	-55.3
896.106	16.38
896.276	-22.53
896.447	49.15
896.617	-2.05
896.788	-108.54
896.958	-77.82
897.129	-49.15
897.299	-77.82
897.47	110.59
897.64	-4.1
897.81	-75.77
897.981	14.34
898.151	-47.1
898.322	12.29
898.492	98.3
898.662	-49.15
898.832	-49.15
899.003	14.34
899.173	43.01
899.343	-102.4
899.513	-28.67
