Data from USB4F104151__90__10-44-40-368.txt Node

Date: Wed Feb 26 10:44:40 EST 2025
User: louis
Spectrometer: USB4F10415
Trigger mode: 4
Integration Time (sec): 1.000000E-1
Scans to average: 1
Electric dark correction enabled: true
Nonlinearity correction enabled: false
Boxcar width: 0
XAxis mode: Wavelengths
Number of Pixels in Spectrum: 3648
>>>>>Begin Spectral Data<<<<<
178.204	-401.91
178.424	-401.91
178.644	-401.91
178.864	-393.72
179.084	-358.91
179.304	9.73
179.524	-47.62
179.744	-12.8
179.964	128.51
180.184	11.78
180.404	97.79
180.624	-88.57
180.844	46.59
181.064	-66.05
181.283	-47.62
181.503	-104.96
181.723	73.21
181.943	-57.86
182.163	200.19
182.383	19.97
182.602	19.97
182.822	124.41
183.042	99.84
183.262	-41.47
183.482	-49.66
183.701	40.45
183.921	62.98
184.141	28.16
184.361	54.78
184.58	81.41
184.8	71.17
185.02	-29.18
185.239	148.99
185.459	-2.56
185.679	89.6
185.898	-111.1
186.118	36.35
186.338	71.17
186.557	89.6
186.777	-53.76
186.997	11.78
187.216	34.3
187.436	187.9
187.655	15.87
187.875	65.02
188.095	81.41
188.314	214.52
188.534	167.42
188.753	24.06
188.973	144.89
189.192	237.05
189.412	28.16
189.631	-16.9
189.851	95.74
190.07	97.79
190.29	-33.28
190.509	-41.47
190.729	40.45
190.948	116.22
191.168	288.25
191.387	110.08
191.607	-4.61
191.826	136.7
192.045	44.54
192.265	15.87
192.484	116.22
192.704	36.35
192.923	-4.61
193.142	189.95
193.362	50.69
193.581	169.47
193.8	79.36
194.02	52.74
194.239	24.06
194.458	132.61
194.678	3.58
194.897	-23.04
195.116	73.21
195.335	60.93
195.555	65.02
195.774	38.4
195.993	75.26
196.212	48.64
196.432	42.5
196.651	40.45
196.87	-41.47
197.089	140.8
197.308	44.54
197.528	50.69
197.747	-70.14
197.966	103.93
198.185	157.18
198.404	-37.38
198.623	112.13
198.842	105.98
199.062	140.8
199.281	69.12
199.5	3.58
199.719	65.02
199.938	118.27
200.157	62.98
200.376	126.46
200.595	142.85
200.814	103.93
201.033	-49.66
201.252	212.48
201.471	85.5
201.69	89.6
201.909	38.4
202.128	146.94
202.347	108.03
202.566	-23.04
202.785	-25.09
203.004	-4.61
203.223	218.62
203.442	26.11
203.661	-4.61
203.879	75.26
204.098	58.88
204.317	-66.05
204.536	60.93
204.755	79.36
204.974	110.08
205.193	-27.14
205.411	228.86
205.63	112.13
205.849	34.3
206.068	54.78
206.287	-33.28
206.505	81.41
206.724	97.79
206.943	30.21
207.162	-31.23
207.381	120.32
207.599	13.82
207.818	36.35
208.037	32.26
208.255	130.56
208.474	83.45
208.693	3.58
208.911	30.21
209.13	99.84
209.349	69.12
209.567	89.6
209.786	122.37
210.005	140.8
210.223	46.59
210.442	-94.72
210.661	52.74
210.879	83.45
211.098	50.69
211.316	11.78
211.535	73.21
211.753	75.26
211.972	89.6
212.191	3.58
212.409	81.41
212.628	101.89
212.846	-102.91
213.065	46.59
213.283	73.21
213.502	132.61
213.72	120.32
213.938	22.02
214.157	-27.14
214.375	151.04
214.594	-49.66
214.812	54.78
215.031	54.78
215.249	60.93
215.467	26.11
215.686	79.36
215.904	36.35
216.122	120.32
216.341	169.47
216.559	89.6
216.778	15.87
216.996	122.37
217.214	54.78
217.432	-4.61
217.651	-16.9
217.869	79.36
218.087	69.12
218.306	-37.38
218.524	28.16
218.742	56.83
218.96	67.07
219.179	-2.56
219.397	62.98
219.615	243.2
219.833	122.37
220.051	-2.56
220.27	89.6
220.488	105.98
220.706	89.6
220.924	28.16
221.142	1.54
221.36	112.13
221.578	54.78
221.796	38.4
222.015	19.97
222.233	19.97
222.451	103.93
222.669	5.63
222.887	7.68
223.105	11.78
223.323	56.83
223.541	1.54
223.759	87.55
223.977	-20.99
224.195	222.72
224.413	134.65
224.631	40.45
224.849	148.99
225.067	146.94
225.285	56.83
225.503	112.13
225.721	-129.53
225.939	54.78
226.157	89.6
226.375	220.67
226.592	-10.75
226.81	-43.52
227.028	122.37
227.246	112.13
227.464	65.02
227.682	120.32
227.9	24.06
228.117	65.02
228.335	67.07
228.553	97.79
228.771	40.45
228.989	62.98
229.206	56.83
229.424	-43.52
229.642	52.74
229.86	-0.51
230.077	103.93
230.295	87.55
230.513	93.69
230.731	136.7
230.948	134.65
231.166	157.18
231.384	26.11
231.601	-29.18
231.819	210.43
232.037	52.74
232.254	36.35
232.472	75.26
232.689	19.97
232.907	120.32
233.125	-12.8
233.342	-18.94
233.56	-14.85
233.777	34.3
233.995	5.63
234.213	140.8
234.43	89.6
234.648	85.5
234.865	-6.66
235.083	167.42
235.3	77.31
235.518	85.5
235.735	173.57
235.953	73.21
236.17	93.69
236.388	28.16
236.605	54.78
236.822	-43.52
237.04	95.74
237.257	67.07
237.475	-16.9
237.692	85.5
237.909	89.6
238.127	11.78
238.344	56.83
238.562	65.02
238.779	-37.38
238.996	-39.42
239.214	110.08
239.431	83.45
239.648	54.78
239.865	81.41
240.083	185.85
240.3	105.98
240.517	19.97
240.735	24.06
240.952	89.6
241.169	-6.66
241.386	77.31
241.603	54.78
241.821	-61.95
242.038	136.7
242.255	138.75
242.472	-76.29
242.689	171.52
242.907	67.07
243.124	95.74
243.341	101.89
243.558	-59.9
243.775	-82.43
243.992	5.63
244.209	48.64
244.426	214.52
244.643	118.27
244.86	105.98
245.078	48.64
245.295	91.65
245.512	13.82
245.729	32.26
245.946	97.79
246.163	3.58
246.38	-12.8
246.597	60.93
246.814	89.6
247.031	48.64
247.248	58.88
247.464	101.89
247.681	50.69
247.898	142.85
248.115	69.12
248.332	-35.33
248.549	99.84
248.766	144.89
248.983	97.79
249.2	114.17
249.417	110.08
249.633	-29.18
249.85	93.69
250.067	110.08
250.284	26.11
250.501	46.59
250.717	105.98
250.934	-10.75
251.151	11.78
251.368	50.69
251.585	56.83
251.801	165.37
252.018	-29.18
252.235	132.61
252.451	-47.62
252.668	9.73
252.885	128.51
253.102	101.89
253.318	30.21
253.535	-59.9
253.752	-23.04
253.968	42.5
254.185	-49.66
254.401	42.5
254.618	171.52
254.835	7.68
255.051	216.57
255.268	28.16
255.484	85.5
255.701	-16.9
255.917	75.26
256.134	-16.9
256.351	42.5
256.567	-25.09
256.784	17.92
257	-49.66
257.217	48.64
257.433	85.5
257.65	46.59
257.866	136.7
258.082	-23.04
258.299	34.3
258.515	65.02
258.732	17.92
258.948	56.83
259.165	83.45
259.381	-55.81
259.597	95.74
259.814	-37.38
260.03	32.26
260.246	-27.14
260.463	120.32
260.679	155.13
260.895	105.98
261.112	36.35
261.328	-12.8
261.544	36.35
261.761	136.7
261.977	58.88
262.193	5.63
262.409	128.51
262.626	89.6
262.842	103.93
263.058	42.5
263.274	77.31
263.49	62.98
263.707	130.56
263.923	167.42
264.139	-86.53
264.355	69.12
264.571	189.95
264.787	50.69
265.004	91.65
265.22	75.26
265.436	3.58
265.652	54.78
265.868	112.13
266.084	-55.81
266.3	13.82
266.516	-27.14
266.732	93.69
266.948	91.65
267.164	-4.61
267.38	183.81
267.596	60.93
267.812	134.65
268.028	177.66
268.244	7.68
268.46	75.26
268.676	38.4
268.892	7.68
269.108	22.02
269.324	75.26
269.54	-84.48
269.756	144.89
269.972	-29.18
270.188	85.5
270.403	-8.7
270.619	19.97
270.835	81.41
271.051	22.02
271.267	-10.75
271.483	36.35
271.698	99.84
271.914	101.89
272.13	71.17
272.346	30.21
272.562	28.16
272.777	95.74
272.993	73.21
273.209	71.17
273.425	136.7
273.64	-10.75
273.856	122.37
274.072	60.93
274.287	5.63
274.503	69.12
274.719	62.98
274.934	56.83
275.15	-64
275.366	13.82
275.581	7.68
275.797	87.55
276.012	-4.61
276.228	38.4
276.444	101.89
276.659	192
276.875	-6.66
277.09	3.58
277.306	50.69
277.521	103.93
277.737	15.87
277.952	71.17
278.168	36.35
278.383	-2.56
278.599	65.02
278.814	26.11
279.03	54.78
279.245	142.85
279.461	81.41
279.676	71.17
279.892	19.97
280.107	-80.38
280.322	-53.76
280.538	79.36
280.753	5.63
280.969	-33.28
281.184	163.33
281.399	196.09
281.615	91.65
281.83	15.87
282.045	-4.61
282.26	11.78
282.476	50.69
282.691	105.98
282.906	44.54
283.122	-0.51
283.337	-2.56
283.552	132.61
283.767	-12.8
283.983	157.18
284.198	26.11
284.413	93.69
284.628	44.54
284.843	-10.75
285.058	122.37
285.274	-4.61
285.489	44.54
285.704	110.08
285.919	13.82
286.134	3.58
286.349	103.93
286.564	24.06
286.779	155.13
286.995	17.92
287.21	-90.62
287.425	75.26
287.64	-12.8
287.855	103.93
288.07	-66.05
288.285	245.24
288.5	161.28
288.715	15.87
288.93	122.37
289.145	-14.85
289.36	241.15
289.575	42.5
289.79	67.07
290.004	-25.09
290.219	167.42
290.434	13.82
290.649	30.21
290.864	65.02
291.079	44.54
291.294	114.17
291.509	71.17
291.724	140.8
291.938	44.54
292.153	34.3
292.368	24.06
292.583	116.22
292.798	24.06
293.012	50.69
293.227	77.31
293.442	-20.99
293.657	97.79
293.871	146.94
294.086	103.93
294.301	144.89
294.516	128.51
294.73	50.69
294.945	7.68
295.16	19.97
295.374	138.75
295.589	132.61
295.804	-4.61
296.018	40.45
296.233	93.69
296.447	62.98
296.662	79.36
296.877	144.89
297.091	138.75
297.306	30.21
297.52	5.63
297.735	91.65
297.949	24.06
298.164	128.51
298.378	93.69
298.593	1.54
298.807	-45.57
299.022	42.5
299.236	79.36
299.451	32.26
299.665	-39.42
299.88	-4.61
300.094	36.35
300.309	52.74
300.523	108.03
300.737	-43.52
300.952	99.84
301.166	24.06
301.381	-88.57
301.595	26.11
301.809	52.74
302.024	22.02
302.238	54.78
302.452	140.8
302.667	36.35
302.881	142.85
303.095	157.18
303.309	99.84
303.524	11.78
303.738	38.4
303.952	48.64
304.166	34.3
304.381	-86.53
304.595	87.55
304.809	-25.09
305.023	38.4
305.237	-20.99
305.452	9.73
305.666	22.02
305.88	56.83
306.094	124.41
306.308	124.41
306.522	179.71
306.736	-16.9
306.95	83.45
307.164	-49.66
307.379	13.82
307.593	124.41
307.807	148.99
308.021	34.3
308.235	73.21
308.449	-43.52
308.663	77.31
308.877	247.29
309.091	-20.99
309.305	95.74
309.519	-57.86
309.733	255.48
309.947	-139.77
310.161	130.56
310.374	19.97
310.588	85.5
310.802	-23.04
311.016	28.16
311.23	85.5
311.444	-45.57
311.658	26.11
311.872	120.32
312.085	132.61
312.299	140.8
312.513	148.99
312.727	24.06
312.941	-49.66
313.154	89.6
313.368	-8.7
313.582	36.35
313.796	42.5
314.009	17.92
314.223	124.41
314.437	71.17
314.651	114.17
314.864	46.59
315.078	19.97
315.292	-61.95
315.505	17.92
315.719	89.6
315.933	62.98
316.146	-61.95
316.36	-35.33
316.573	93.69
316.787	71.17
317.001	116.22
317.214	-2.56
317.428	48.64
317.641	-53.76
317.855	30.21
318.068	83.45
318.282	34.3
318.495	245.24
318.709	95.74
318.922	93.69
319.136	183.81
319.349	122.37
319.563	-25.09
319.776	87.55
319.99	9.73
320.203	60.93
320.417	134.65
320.63	165.37
320.843	179.71
321.057	120.32
321.27	11.78
321.483	87.55
321.697	136.7
321.91	52.74
322.124	97.79
322.337	108.03
322.55	-0.51
322.763	87.55
322.977	52.74
323.19	-70.14
323.403	48.64
323.617	48.64
323.83	153.09
324.043	9.73
324.256	126.46
324.469	-72.19
324.683	34.3
324.896	-35.33
325.109	93.69
325.322	-4.61
325.535	89.6
325.748	122.37
325.962	40.45
326.175	32.26
326.388	71.17
326.601	44.54
326.814	34.3
327.027	38.4
327.24	177.66
327.453	-80.38
327.666	69.12
327.879	146.94
328.092	54.78
328.305	22.02
328.518	87.55
328.731	-27.14
328.944	7.68
329.157	3.58
329.37	44.54
329.583	175.61
329.796	126.46
330.009	-66.05
330.222	151.04
330.435	85.5
330.648	32.26
330.861	93.69
331.073	52.74
331.286	95.74
331.499	81.41
331.712	71.17
331.925	17.92
332.138	26.11
332.35	93.69
332.563	-0.51
332.776	60.93
332.989	-31.23
333.202	50.69
333.414	148.99
333.627	62.98
333.84	36.35
334.053	75.26
334.265	79.36
334.478	24.06
334.691	83.45
334.903	69.12
335.116	-2.56
335.329	22.02
335.541	52.74
335.754	126.46
335.966	-53.76
336.179	95.74
336.392	89.6
336.604	148.99
336.817	114.17
337.029	79.36
337.242	65.02
337.454	105.98
337.667	38.4
337.88	62.98
338.092	58.88
338.305	81.41
338.517	-55.81
338.729	60.93
338.942	89.6
339.154	-68.09
339.367	36.35
339.579	110.08
339.792	75.26
340.004	54.78
340.217	30.21
340.429	83.45
340.641	15.87
340.854	-39.42
341.066	1.54
341.278	151.04
341.491	126.46
341.703	79.36
341.915	-37.38
342.128	22.02
342.34	85.5
342.552	3.58
342.764	105.98
342.977	54.78
343.189	151.04
343.401	99.84
343.613	-102.91
343.826	89.6
344.038	15.87
344.25	75.26
344.462	-72.19
344.674	34.3
344.886	81.41
345.099	77.31
345.311	77.31
345.523	40.45
345.735	-102.91
345.947	65.02
346.159	116.22
346.371	36.35
346.583	7.68
346.795	157.18
347.007	42.5
347.219	26.11
347.431	83.45
347.643	73.21
347.855	79.36
348.067	140.8
348.279	-74.24
348.491	48.64
348.703	148.99
348.915	22.02
349.127	26.11
349.339	83.45
349.551	26.11
349.763	83.45
349.975	101.89
350.187	95.74
350.399	126.46
350.61	71.17
350.822	110.08
351.034	32.26
351.246	110.08
351.458	105.98
351.669	134.65
351.881	146.94
352.093	140.8
352.305	112.13
352.517	116.22
352.728	89.6
352.94	69.12
353.152	99.84
353.363	-49.66
353.575	140.8
353.787	128.51
353.999	101.89
354.21	222.72
354.422	5.63
354.633	-37.38
354.845	85.5
355.057	85.5
355.268	124.41
355.48	124.41
355.692	-76.29
355.903	36.35
356.115	-47.62
356.326	-33.28
356.538	173.57
356.749	165.37
356.961	79.36
357.172	46.59
357.384	9.73
357.595	241.15
357.807	-33.28
358.018	-4.61
358.23	-6.66
358.441	167.42
358.653	75.26
358.864	69.12
359.075	15.87
359.287	110.08
359.498	62.98
359.709	110.08
359.921	52.74
360.132	148.99
360.344	9.73
360.555	-27.14
360.766	105.98
360.977	97.79
361.189	48.64
361.4	-0.51
361.611	173.57
361.823	134.65
362.034	42.5
362.245	-27.14
362.456	69.12
362.667	17.92
362.879	-20.99
363.09	26.11
363.301	79.36
363.512	19.97
363.723	19.97
363.935	-8.7
364.146	73.21
364.357	26.11
364.568	15.87
364.779	-43.52
364.99	97.79
365.201	13.82
365.412	159.23
365.623	-23.04
365.834	114.17
366.045	69.12
366.256	95.74
366.467	105.98
366.678	5.63
366.889	42.5
367.1	52.74
367.311	65.02
367.522	15.87
367.733	124.41
367.944	91.65
368.155	30.21
368.366	144.89
368.577	112.13
368.788	50.69
368.999	1.54
369.209	-4.61
369.42	196.09
369.631	185.85
369.842	140.8
370.053	42.5
370.264	101.89
370.474	32.26
370.685	83.45
370.896	73.21
371.107	97.79
371.317	62.98
371.528	-31.23
371.739	69.12
371.95	173.57
372.16	95.74
372.371	-29.18
372.582	-68.09
372.792	48.64
373.003	130.56
373.214	79.36
373.424	81.41
373.635	67.07
373.846	101.89
374.056	-45.57
374.267	67.07
374.477	42.5
374.688	-61.95
374.898	95.74
375.109	65.02
375.319	122.37
375.53	126.46
375.74	103.93
375.951	114.17
376.161	67.07
376.372	114.17
376.582	91.65
376.793	155.13
377.003	-61.95
377.214	48.64
377.424	101.89
377.635	13.82
377.845	1.54
378.055	122.37
378.266	28.16
378.476	60.93
378.686	200.19
378.897	87.55
379.107	105.98
379.317	126.46
379.528	71.17
379.738	132.61
379.948	1.54
380.158	179.71
380.369	40.45
380.579	177.66
380.789	54.78
380.999	42.5
381.21	171.52
381.42	175.61
381.63	50.69
381.84	179.71
382.05	83.45
382.261	112.13
382.471	140.8
382.681	11.78
382.891	200.19
383.101	81.41
383.311	-10.75
383.521	26.11
383.731	146.94
383.941	71.17
384.151	83.45
384.361	-23.04
384.571	114.17
384.781	34.3
384.991	122.37
385.201	142.85
385.411	151.04
385.621	40.45
385.831	75.26
386.041	60.93
386.251	-43.52
386.461	77.31
386.671	38.4
386.881	105.98
387.091	24.06
387.301	112.13
387.511	11.78
387.72	128.51
387.93	146.94
388.14	-43.52
388.35	79.36
388.56	146.94
388.769	75.26
388.979	38.4
389.189	11.78
389.399	79.36
389.609	140.8
389.818	116.22
390.028	65.02
390.238	89.6
390.447	62.98
390.657	79.36
390.867	-57.86
391.076	-31.23
391.286	17.92
391.496	-8.7
391.705	132.61
391.915	138.75
392.125	132.61
392.334	44.54
392.544	153.09
392.753	54.78
392.963	-49.66
393.172	-12.8
393.382	11.78
393.591	204.28
393.801	3.58
394.01	187.9
394.22	85.5
394.429	48.64
394.639	15.87
394.848	77.31
395.058	60.93
395.267	-18.94
395.477	118.27
395.686	95.74
395.895	220.67
396.105	138.75
396.314	126.46
396.524	85.5
396.733	83.45
396.942	155.13
397.152	140.8
397.361	132.61
397.57	40.45
397.78	46.59
397.989	103.93
398.198	202.24
398.407	46.59
398.617	3.58
398.826	32.26
399.035	38.4
399.244	44.54
399.453	85.5
399.663	3.58
399.872	81.41
400.081	69.12
400.29	118.27
400.499	-6.66
400.708	105.98
400.917	48.64
401.127	46.59
401.336	-10.75
401.545	228.86
401.754	155.13
401.963	126.46
402.172	19.97
402.381	-27.14
402.59	15.87
402.799	87.55
403.008	60.93
403.217	22.02
403.426	101.89
403.635	-37.38
403.844	89.6
404.053	44.54
404.262	60.93
404.471	122.37
404.68	69.12
404.888	38.4
405.097	62.98
405.306	46.59
405.515	126.46
405.724	75.26
405.933	124.41
406.142	187.9
406.35	151.04
406.559	38.4
406.768	87.55
406.977	118.27
407.185	40.45
407.394	32.26
407.603	11.78
407.812	151.04
408.02	124.41
408.229	114.17
408.438	56.83
408.646	-59.9
408.855	1.54
409.064	42.5
409.272	38.4
409.481	95.74
409.69	26.11
409.898	40.45
410.107	69.12
410.315	153.09
410.524	34.3
410.733	17.92
410.941	108.03
411.15	91.65
411.358	161.28
411.567	73.21
411.775	87.55
411.984	24.06
412.192	26.11
412.401	97.79
412.609	128.51
412.818	87.55
413.026	103.93
413.234	48.64
413.443	46.59
413.651	46.59
413.86	91.65
414.068	153.09
414.276	124.41
414.485	28.16
414.693	239.1
414.901	177.66
415.11	44.54
415.318	75.26
415.526	122.37
415.734	120.32
415.943	179.71
416.151	173.57
416.359	101.89
416.567	83.45
416.776	114.17
416.984	253.44
417.192	71.17
417.4	-31.23
417.608	50.69
417.817	-2.56
418.025	93.69
418.233	249.34
418.441	-25.09
418.649	75.26
418.857	187.9
419.065	177.66
419.273	-14.85
419.481	56.83
419.689	48.64
419.897	-10.75
420.105	-33.28
420.313	99.84
420.521	151.04
420.729	165.37
420.937	79.36
421.145	44.54
421.353	124.41
421.561	179.71
421.769	134.65
421.977	30.21
422.185	169.47
422.393	81.41
422.601	126.46
422.809	95.74
423.017	87.55
423.224	60.93
423.432	216.57
423.64	105.98
423.848	196.09
424.056	24.06
424.263	67.07
424.471	56.83
424.679	128.51
424.887	-16.9
425.094	83.45
425.302	126.46
425.51	30.21
425.718	118.27
425.925	58.88
426.133	71.17
426.341	189.95
426.548	19.97
426.756	30.21
426.964	169.47
427.171	38.4
427.379	112.13
427.586	105.98
427.794	112.13
428.001	167.42
428.209	169.47
428.417	146.94
428.624	87.55
428.832	214.52
429.039	108.03
429.247	52.74
429.454	165.37
429.662	239.1
429.869	208.38
430.076	192
430.284	169.47
430.491	138.75
430.699	165.37
430.906	228.86
431.114	177.66
431.321	202.24
431.528	142.85
431.736	171.52
431.943	177.66
432.15	155.13
432.358	194.05
432.565	265.72
432.772	73.21
432.979	187.9
433.187	194.05
433.394	265.72
433.601	116.22
433.808	181.76
434.016	194.05
434.223	208.38
434.43	288.25
434.637	265.72
434.844	177.66
435.052	232.96
435.259	312.83
435.466	290.3
435.673	253.44
435.88	314.88
436.087	327.16
436.294	312.83
436.501	329.21
436.708	202.24
436.915	359.93
437.122	361.98
437.329	257.53
437.537	345.59
437.743	331.26
437.95	404.99
438.157	429.56
438.364	404.99
438.571	433.66
438.778	433.66
438.985	366.07
439.192	531.96
439.399	482.81
439.606	464.38
439.813	396.79
440.02	599.54
440.227	701.94
440.433	587.26
440.64	454.14
440.847	466.42
441.054	597.49
441.261	759.28
441.467	583.16
441.674	603.64
441.881	716.28
442.088	624.12
442.294	734.71
442.501	845.3
442.708	841.2
442.914	724.47
443.121	878.07
443.328	851.44
443.534	978.42
443.741	988.66
443.948	773.62
444.154	1002.99
444.361	1177.07
444.568	1095.15
444.774	1089.01
444.981	1050.1
445.187	1242.61
445.394	1187.31
445.6	1250.8
445.807	1304.04
446.013	1191.41
446.22	1234.41
446.426	1400.3
446.633	1578.47
446.839	1621.48
447.046	1471.98
447.252	1627.62
447.459	1664.49
447.665	1717.73
447.871	1773.03
448.078	1842.66
448.284	1846.76
448.491	1969.63
448.697	2051.55
448.903	2223.58
449.11	2268.64
449.316	2291.17
449.522	2354.65
449.728	2436.57
449.935	2541.02
450.141	2559.45
450.347	2792.92
450.553	2780.63
450.76	2930.13
450.966	3059.15
451.172	3050.96
451.378	3057.11
451.584	3188.18
451.791	3497.42
451.997	3534.28
452.203	3761.61
452.409	3759.56
452.615	3884.48
452.821	3888.58
453.027	3794.37
453.233	4304.32
453.44	4218.3
453.646	4576.7
453.852	4677.05
454.058	4732.34
454.264	4931
454.47	5365.17
454.676	5408.17
454.882	5615.02
455.088	5531.05
455.294	5754.28
455.5	6350.24
455.705	6610.33
455.911	6671.77
456.117	6686.11
456.323	7009.69
456.529	7120.28
456.735	7857.54
456.941	8031.62
457.147	8058.25
457.352	8557.95
457.558	8512.89
457.764	9229.68
457.97	9153.91
458.176	9790.83
458.381	10106.21
458.587	10378.59
458.793	10954.07
458.999	11003.22
459.204	12236.1
459.41	12901.69
459.616	12444.99
459.821	13305.14
460.027	13663.54
460.233	14255.4
460.438	14771.49
460.644	15248.66
460.85	15396.12
461.055	16243.98
461.261	16909.57
461.466	16592.13
461.672	16971.01
461.878	18896.1
462.083	18631.91
462.289	19070.17
462.494	19832.02
462.7	20020.43
462.905	20266.19
463.111	22133.93
463.316	22883.49
463.522	23563.42
463.727	24095.89
463.932	25029.76
464.138	25685.11
464.343	26829.93
464.549	26868.84
464.754	28847.18
464.959	29619.26
465.165	30088.24
465.37	29848.63
465.575	29996.09
465.781	32343.06
465.986	32838.67
466.191	32480.27
466.397	33018.89
466.602	32109.59
466.807	33958.91
467.012	34917.36
467.218	35136.49
467.423	35169.26
467.628	36058.07
467.833	37753.79
468.038	37549
468.244	36836.3
468.449	38652.85
468.654	37293
468.859	37585.86
469.064	37921.73
469.269	37012.43
469.474	37432.26
469.679	38282.17
469.885	37325.77
470.09	37653.44
470.295	37639.11
470.5	36541.39
470.705	37714.88
470.91	36461.52
471.115	35701.73
471.32	36795.34
471.525	36164.57
471.73	35392.48
471.935	34817
472.139	33510.4
472.344	33958.91
472.549	33649.66
472.754	33149.96
472.959	32664.59
473.164	31085.61
473.369	30694.44
473.574	31687.71
473.778	30860.33
473.983	30546.99
474.188	29699.13
474.393	28552.27
474.598	28476.49
474.802	27952.21
475.007	27620.44
475.212	26956.9
475.417	26135.67
475.621	25857.14
475.826	25758.84
476.031	24968.32
476.235	24509.58
476.44	24370.32
476.645	23551.13
476.849	23622.81
477.054	23301.28
477.259	22619.3
477.463	22725.8
477.668	22060.21
477.872	21966
478.077	21470.39
478.282	20968.64
478.486	20659.4
478.691	20540.61
478.895	20487.37
479.1	20462.79
479.304	20233.42
479.509	19444.95
479.713	19438.81
479.918	19229.91
480.122	18545.89
480.326	19117.28
480.531	18838.75
480.735	18414.82
480.94	18425.06
481.144	18953.44
481.348	17861.87
481.553	17829.1
481.757	17487.09
481.961	17597.68
482.166	17841.39
482.37	17790.19
482.574	17130.75
482.778	17157.37
482.983	17532.15
483.187	17022.2
483.391	17087.74
483.595	16571.65
483.8	16315.66
484.004	16422.15
484.208	16624.9
484.412	16192.78
484.616	16117
484.821	16186.63
485.025	15213.85
485.229	15559.95
485.433	15353.11
485.637	14939.42
485.841	14890.27
486.045	14839.07
486.249	14673.18
486.453	14331.17
486.657	14251.3
486.861	14021.93
487.065	13430.07
487.269	13790.51
487.473	13159.74
487.677	13241.65
487.881	13438.26
488.085	12676.41
488.289	12600.64
488.493	12301.64
488.697	12318.02
488.901	12105.03
489.105	11547.98
489.309	11429.2
489.512	11441.49
489.716	11234.64
489.92	11029.85
490.124	10866.01
490.328	10853.72
490.531	10538.34
490.735	10294.63
490.939	10171.75
491.143	9999.72
491.346	9776.49
491.55	9545.07
491.754	9450.86
491.958	9180.53
492.161	9016.69
492.365	8981.88
492.569	8803.71
492.772	8803.71
492.976	8652.16
493.18	8547.71
493.383	8523.13
493.587	8361.34
493.79	8383.87
493.994	8127.88
494.197	8019.33
494.401	7959.94
494.605	8017.29
494.808	7759.24
495.012	7687.56
495.215	7693.71
495.419	7822.73
495.622	7388.56
495.825	7611.79
496.029	7546.25
496.232	7597.45
496.436	7411.09
496.639	7507.34
496.843	7402.9
497.046	7406.99
497.249	7503.25
497.453	7486.86
497.656	7316.88
497.859	7474.57
498.063	7597.45
498.266	7544.2
498.469	7441.81
498.673	7421.33
498.876	7533.97
499.079	7470.48
499.282	7662.99
499.485	7736.71
499.689	7693.71
499.892	7835.02
500.095	7853.45
500.298	7902.6
500.501	7830.92
500.705	7867.78
500.908	7966.09
501.111	8005
501.314	8330.62
501.517	8312.19
501.72	8377.73
501.923	8273.28
502.126	8467.84
502.329	8732.03
502.532	8689.02
502.735	8686.97
502.938	9004.41
503.141	9024.89
503.344	8891.77
503.547	9170.29
503.75	9450.86
503.953	9309.55
504.156	9561.45
504.359	9563.5
504.562	9688.43
504.765	10118.5
504.968	10237.28
505.17	10233.19
505.373	10386.79
505.576	10693.98
505.779	10532.19
505.982	10954.07
506.185	11189.59
506.387	11267.41
506.59	11705.68
506.793	11933
506.996	11728.21
507.198	12401.99
507.401	12430.66
507.604	12514.63
507.807	12834.11
508.009	13061.43
508.212	13188.41
508.415	13681.97
508.617	14071.08
508.82	14103.85
509.022	14212.39
509.225	14691.62
509.428	14986.52
509.63	15119.64
509.833	15410.45
510.035	16379.14
510.238	16053.52
510.44	16387.33
510.643	16876.8
510.845	17341.69
511.048	17345.78
511.25	17753.33
511.453	18459.88
511.655	19242.2
511.858	19666.13
512.06	19797.2
512.262	20032.72
512.465	20243.66
512.667	21150.91
512.87	21206.2
513.072	21757.11
513.274	22457.51
513.477	22760.61
513.679	23127.2
513.881	24050.83
514.084	24573.07
514.286	24941.7
514.488	25228.42
514.69	26260.59
514.893	26567.79
515.095	27020.39
515.297	27575.39
515.499	28243.03
515.701	28791.88
515.904	29760.57
516.106	29996.09
516.308	30614.57
516.51	31134.76
516.712	31638.56
516.914	32009.24
517.116	33002.5
517.318	33360.9
517.52	34139.13
517.722	34636.78
517.925	35288.04
518.127	36400.08
518.329	36864.97
518.531	37110.73
518.733	38114.23
518.935	38192.06
519.136	39105.45
519.338	40190.87
519.54	40420.25
519.742	41067.41
519.944	41438.09
520.146	42314.62
520.348	42658.68
520.55	43305.84
520.752	43594.6
520.954	44714.84
521.155	44596.06
521.357	45257.55
521.559	45695.81
521.761	46701.37
521.963	46691.13
522.164	46926.64
522.366	47190.83
522.568	47784.74
522.77	48233.25
522.971	49144.59
523.173	48511.77
523.375	49242.9
523.576	48821.02
523.778	49609.48
523.98	50004.74
524.181	50203.39
524.383	50463.49
524.584	51002.1
524.786	50850.55
524.988	50156.29
525.189	50955
525.391	50934.52
525.592	50709.24
525.794	51245.81
525.995	50746.11
526.197	50768.63
526.398	50746.11
526.6	50836.22
526.801	51174.13
527.003	50510.59
527.204	50404.09
527.406	50578.17
527.607	49898.25
527.808	50254.59
528.01	49201.94
528.211	49218.32
528.412	49756.94
528.614	48968.47
528.815	48718.62
529.016	48917.27
529.218	48016.16
529.419	47696.68
529.62	47313.71
529.822	46758.71
530.023	46740.28
530.224	46011.2
530.425	45298.51
530.626	44716.89
530.828	44616.54
531.029	44903.25
531.23	43787.11
531.431	43096.94
531.632	42648.44
531.833	42308.47
532.035	41962.37
532.236	41321.35
532.437	40971.15
532.638	40285.08
532.839	39971.74
533.04	39625.64
533.241	38785.97
533.442	38720.43
533.643	37989.31
533.844	37522.37
534.045	37086.15
534.246	36207.58
534.447	36150.23
534.648	35294.18
534.849	35351.52
535.05	34507.76
535.251	33989.63
535.451	33623.04
535.652	33262.6
535.853	32574.48
536.054	32566.29
536.255	31755.29
536.456	31118.37
536.657	31525.92
536.857	30823.47
537.058	30540.85
537.259	30041.14
537.46	29701.18
537.66	28886.09
537.861	28830.79
538.062	28529.74
538.263	28101.72
538.463	27688.03
538.664	26983.52
538.865	27145.31
539.065	27016.29
539.266	26164.34
539.466	25986.16
539.667	25582.71
539.868	25341.05
540.068	25318.53
540.269	24601.74
540.469	24353.93
540.67	24169.62
540.87	23819.41
541.071	23532.7
541.271	23481.5
541.472	23155.87
541.672	22772.9
541.873	22391.98
542.073	22099.12
542.274	22365.35
542.474	22009.01
542.675	21521.59
542.875	21370.04
543.075	20974.78
543.276	20700.36
543.476	20837.57
543.676	20632.77
543.877	20108.49
544.077	20010.19
544.277	19754.19
544.478	19264.73
544.678	19207.39
544.878	19225.82
545.078	18875.62
545.279	18511.08
545.479	18167.02
545.679	18341.1
545.879	18136.3
546.079	17765.62
546.28	17480.95
546.48	17364.22
546.68	17294.58
546.88	17143.03
547.08	16653.57
547.28	16592.13
547.48	16217.35
547.68	15963.4
547.88	15795.47
548.081	15957.26
548.281	15678.74
548.481	15320.34
548.681	15353.11
548.881	14994.72
549.081	15045.91
549.28	14492.96
549.48	14316.84
549.68	14193.96
549.88	14071.08
550.08	13831.47
550.28	13468.98
550.48	13366.58
550.68	13309.24
550.88	13114.68
551.08	13155.64
551.279	12657.98
551.479	12365.12
551.679	12442.95
551.879	12152.13
552.079	12219.72
552.278	11765.07
552.478	11713.87
552.678	11523.41
552.878	11461.97
553.077	11253.08
553.277	10765.66
553.477	11107.67
553.676	10763.61
553.876	10593.63
554.076	10429.79
554.275	10286.44
554.475	9960.81
554.674	9882.99
554.874	9893.23
555.074	9573.74
555.273	9442.67
555.473	9473.39
555.672	8955.26
555.872	9043.32
556.071	8975.74
556.271	8826.23
556.47	8535.42
556.67	8457.6
556.869	8363.39
557.068	8304
557.268	8181.12
557.467	7904.65
557.667	7894.41
557.866	7609.74
558.065	7605.64
558.265	7390.61
558.464	7226.77
558.663	7075.22
558.863	7044.5
559.062	6929.81
559.261	6727.07
559.461	6643.1
559.66	6583.71
559.859	6491.55
560.058	6196.64
560.258	6161.83
560.457	6299.04
560.656	6274.46
560.855	5871.01
561.054	5916.07
561.253	5748.14
561.453	5760.42
561.652	5592.49
561.851	5594.54
562.05	5270.96
562.249	5356.97
562.448	5428.65
562.647	5203.38
562.846	5172.66
563.045	5070.26
563.244	5031.35
563.443	5002.68
563.642	4898.23
563.841	4943.28
564.04	4773.3
564.239	4709.82
564.438	4554.17
564.637	4562.36
564.836	4484.54
565.035	4412.86
565.234	4226.5
565.432	4238.78
565.631	4355.52
565.83	4201.92
566.029	4144.58
566.228	4044.23
566.427	4087.23
566.625	3825.09
566.824	3870.15
567.023	3931.59
567.222	3691.98
567.42	3663.3
567.619	3716.55
567.818	3599.82
568.016	3747.27
568.215	3384.78
568.414	3521.99
568.612	3489.23
568.811	3364.3
569.01	3378.64
569.208	3182.03
569.407	3356.11
569.605	3167.7
569.804	3077.59
570.002	3222.99
570.201	3124.69
570.4	2962.9
570.598	3016.15
570.797	2854.36
570.995	2835.92
571.193	2829.78
571.392	2788.82
571.59	2526.68
571.789	2711
571.987	2721.24
572.186	2657.75
572.384	2575.83
572.582	2618.84
572.781	2686.42
572.979	2385.37
573.177	2473.43
573.376	2346.46
573.574	2393.56
573.772	2397.66
573.971	2323.93
574.169	2082.27
574.367	2170.33
574.565	2264.54
574.763	2186.72
574.962	2174.43
575.16	1988.07
575.358	2026.98
575.556	2110.94
575.754	1900
575.952	1955.3
576.151	2029.03
576.349	1965.54
576.547	1770.98
576.745	1871.33
576.943	1842.66
577.141	1813.99
577.339	1676.77
577.537	1775.08
577.735	1746.41
577.933	1762.79
578.131	1596.9
578.329	1783.27
578.527	1582.57
578.725	1646.05
578.923	1371.63
579.121	1555.94
579.319	1408.49
579.516	1385.96
579.714	1719.78
579.912	1506.79
580.11	1312.24
580.308	1457.64
580.506	1414.63
580.704	1160.69
580.901	1238.51
581.099	1449.45
581.297	1410.54
581.495	1304.04
581.692	1156.59
581.89	1406.44
582.088	1320.43
582.285	1236.46
582.483	1168.88
582.681	1172.97
582.878	1109.49
583.076	1089.01
583.274	1123.82
583.471	1320.43
583.669	1058.29
583.866	1013.23
584.064	953.84
584.262	933.36
584.459	962.03
584.657	1041.9
584.854	1027.57
585.052	1056.24
585.249	1084.91
585.447	970.23
585.644	841.2
585.841	998.9
586.039	1103.34
586.236	949.75
586.434	835.06
586.631	826.87
586.828	912.88
587.026	851.44
587.223	785.91
587.42	818.68
587.618	898.55
587.815	863.73
588.012	826.87
588.21	830.96
588.407	814.58
588.604	843.25
588.801	708.09
588.999	673.27
589.196	853.49
589.393	765.43
589.59	794.1
589.787	740.85
589.984	785.91
590.182	701.94
590.379	654.84
590.576	792.05
590.773	675.32
590.97	714.23
591.167	703.99
591.364	736.76
591.561	679.41
591.758	837.11
591.955	765.43
592.152	726.52
592.349	738.8
592.546	658.93
592.743	648.69
592.94	644.6
593.137	765.43
593.334	753.14
593.531	796.15
593.727	812.53
593.924	677.37
594.121	710.13
594.318	695.8
594.515	685.56
594.712	785.91
594.908	833.01
595.105	669.17
595.302	796.15
595.499	757.24
595.696	894.45
595.892	663.03
596.089	910.83
596.286	814.58
596.482	953.84
596.679	824.82
596.876	773.62
597.072	882.16
597.269	857.59
597.466	878.07
597.662	890.35
597.859	900.59
598.055	947.7
598.252	1058.29
598.448	1121.77
598.645	1127.92
598.841	1031.66
599.038	1203.69
599.234	1267.18
599.431	1240.56
599.627	1347.05
599.824	1324.52
600.02	1390.06
600.217	1426.92
600.413	1474.03
600.609	1611.24
600.806	1781.22
601.002	1631.72
601.198	1682.92
601.395	1809.89
601.591	1850.85
601.787	1932.77
601.984	2098.66
602.18	2106.85
602.376	2266.59
602.572	2344.41
602.769	2465.24
602.965	2405.85
603.161	2455
603.357	2551.26
603.553	2756.05
603.75	2686.42
603.946	2780.63
604.142	2915.8
604.338	2991.57
604.534	3132.88
604.73	3270.09
604.926	3421.64
605.122	3634.63
605.318	3456.46
605.514	3726.79
605.71	3704.26
605.906	3984.84
606.102	3968.45
606.298	4242.88
606.494	4244.93
606.69	4521.4
606.886	4511.16
607.082	4545.98
607.278	4781.5
607.474	4769.21
607.67	5082.55
607.866	4978.1
608.062	5338.54
608.257	5453.23
608.453	5572.01
608.649	5782.95
608.845	5848.49
609.041	5905.83
609.236	6344.1
609.432	6340
609.628	6704.54
609.824	6751.64
610.019	6786.46
610.215	7107.99
610.411	7351.7
610.606	7703.95
610.802	7785.87
610.998	7939.46
611.193	8166.79
611.389	8375.68
611.584	8514.94
611.78	8846.71
611.976	9002.36
612.171	9397.62
612.367	9354.61
612.562	9751.92
612.758	9803.11
612.953	10079.59
613.149	10497.38
613.344	10667.36
613.539	11052.38
613.735	11437.39
613.93	11593.04
614.126	12137.8
614.321	12404.03
614.517	12797.24
614.712	12830.01
614.907	13098.3
615.103	13571.38
615.298	13878.57
615.493	14210.34
615.688	14290.21
615.884	15131.93
616.079	15226.14
616.274	16057.61
616.47	15987.98
616.665	16377.09
616.86	16694.53
617.055	17132.79
617.25	17591.54
617.445	18259.18
617.641	18423.01
617.836	19094.75
618.031	19240.15
618.226	20108.49
618.421	20376.78
618.616	21126.33
618.811	20894.91
619.006	22076.59
619.201	22080.69
619.396	22822.05
619.591	23041.18
619.786	23944.34
619.981	24183.95
620.176	25054.34
620.371	25064.58
620.566	25789.56
620.761	26471.53
620.956	26815.59
621.151	27389.02
621.346	27728.98
621.541	28374.1
621.735	29348.93
621.93	29205.57
622.125	29957.17
622.32	30268.47
622.515	31437.86
622.709	31552.54
622.904	32359.44
623.099	32531.47
623.294	33309.7
623.488	33694.72
623.683	34616.3
623.878	34569.2
624.072	35433.44
624.267	36189.14
624.462	36439
624.656	36850.64
624.851	37764.03
625.046	37974.97
625.24	38869.93
625.435	39058.35
625.629	39807.9
625.824	40479.64
626.018	41059.21
626.213	40833.94
626.407	41792.39
626.602	41640.84
626.796	42791.8
626.991	42668.92
627.185	43160.43
627.38	43467.62
627.574	43944.8
627.768	44002.14
627.963	44030.82
628.157	44053.34
628.352	44608.34
628.546	44137.31
628.74	44645.21
628.935	44241.76
629.129	44893.01
629.323	44331.87
629.517	43639.65
629.712	43688.81
629.906	44020.58
630.1	42857.33
630.294	42795.89
630.489	42144.64
630.683	41960.32
630.877	40612.76
631.071	40303.51
631.265	40104.86
631.459	39058.35
631.653	38093.75
631.848	37573.57
632.042	36660.18
632.236	35951.58
632.43	34724.85
632.624	34257.91
632.818	32853
633.012	31749.15
633.206	31132.71
633.4	30209.08
633.594	28875.85
633.788	27673.69
633.982	27366.49
634.176	26197.1
634.369	25142.4
634.563	24161.42
634.757	23366.81
634.951	22582.44
635.145	21914.8
635.339	20944.06
635.533	20198.6
635.726	19109.08
635.92	18429.16
636.114	17607.92
636.308	17091.84
636.501	16567.56
636.695	15762.7
636.889	14763.29
637.083	14664.99
637.276	13595.95
637.47	13086.01
637.664	12662.08
637.857	12358.98
638.051	11842.89
638.244	11404.63
638.438	10624.35
638.632	10399.07
638.825	9915.75
639.019	9561.45
639.212	9037.17
639.406	8854.9
639.599	8603
639.793	8115.59
639.986	7830.92
640.18	7613.84
640.373	7185.81
640.567	6993.3
640.76	6765.98
640.954	6596
641.147	6278.56
641.34	5889.45
641.534	5696.94
641.727	5633.45
641.92	5375.41
642.114	5174.71
642.307	4851.13
642.5	4842.93
642.694	4683.19
642.887	4500.92
643.08	4531.64
643.273	4183.49
643.467	3927.49
643.66	3657.16
643.853	3642.82
644.046	3470.8
644.239	3304.91
644.432	3087.82
644.626	3020.24
644.819	2950.61
645.012	2866.64
645.205	2977.23
645.398	2776.53
645.591	2579.93
645.784	2338.27
645.977	2315.74
646.17	2295.26
646.363	2270.69
646.556	2174.43
646.749	2004.45
646.942	1971.68
647.135	1867.24
647.328	1793.51
647.521	1789.41
647.714	1721.83
647.907	1582.57
648.099	1457.64
648.292	1715.69
648.485	1398.25
648.678	1424.87
648.871	1326.57
649.064	1271.28
649.256	1181.17
649.449	1226.22
649.642	968.18
649.835	1150.45
650.027	998.9
650.22	1134.06
650.413	984.56
650.605	996.85
650.798	912.88
650.991	951.79
651.183	927.22
651.376	896.5
651.568	876.02
651.761	783.86
651.954	798.2
652.146	677.37
652.339	716.28
652.531	802.29
652.724	579.06
652.916	622.07
653.109	570.87
653.301	665.08
653.494	665.08
653.686	613.88
653.879	669.17
654.071	683.51
654.263	515.58
654.456	480.76
654.648	638.45
654.84	404.99
655.033	415.23
655.225	609.78
655.417	380.41
655.61	622.07
655.802	540.15
655.994	437.75
656.186	368.12
656.379	480.76
656.571	333.31
656.763	394.75
656.955	288.25
657.148	390.65
657.34	458.23
657.532	355.83
657.724	288.25
657.916	390.65
658.108	480.76
658.3	415.23
658.492	364.03
658.684	235
658.876	355.83
659.068	263.68
659.26	167.42
659.452	200.19
659.644	347.64
659.836	421.37
660.028	286.2
660.22	151.04
660.412	269.82
660.604	232.96
660.796	232.96
660.988	325.12
661.18	318.97
661.372	265.72
661.563	241.15
661.755	284.16
661.947	169.47
662.139	187.9
662.331	249.34
662.522	241.15
662.714	173.57
662.906	136.7
663.097	237.05
663.289	134.65
663.481	95.74
663.673	155.13
663.864	261.63
664.056	245.24
664.247	161.28
664.439	298.49
664.631	378.36
664.822	187.9
665.014	198.14
665.205	85.5
665.397	153.09
665.588	228.86
665.78	169.47
665.971	241.15
666.163	130.56
666.354	148.99
666.546	85.5
666.737	292.35
666.929	163.33
667.12	120.32
667.311	212.48
667.503	126.46
667.694	187.9
667.885	198.14
668.077	263.68
668.268	34.3
668.459	118.27
668.651	200.19
668.842	243.2
669.033	112.13
669.224	89.6
669.416	349.69
669.607	161.28
669.798	179.71
669.989	306.68
670.18	128.51
670.371	218.62
670.563	97.79
670.754	259.58
670.945	171.52
671.136	210.43
671.327	71.17
671.518	204.28
671.709	257.53
671.9	245.24
672.091	314.88
672.282	138.75
672.473	208.38
672.664	15.87
672.855	169.47
673.046	222.72
673.237	251.39
673.428	187.9
673.619	218.62
673.809	73.21
674	257.53
674.191	112.13
674.382	148.99
674.573	210.43
674.764	146.94
674.954	280.06
675.145	48.64
675.336	169.47
675.527	95.74
675.717	142.85
675.908	120.32
676.099	83.45
676.289	161.28
676.48	40.45
676.671	198.14
676.861	153.09
677.052	179.71
677.243	202.24
677.433	114.17
677.624	253.44
677.814	222.72
678.005	128.51
678.195	282.11
678.386	183.81
678.576	124.41
678.767	120.32
678.957	206.33
679.148	212.48
679.338	441.85
679.529	232.96
679.719	220.67
679.909	323.07
680.1	208.38
680.29	263.68
680.481	87.55
680.671	230.91
680.861	185.85
681.052	226.81
681.242	153.09
681.432	275.96
681.622	216.57
681.813	118.27
682.003	235
682.193	91.65
682.383	325.12
682.573	220.67
682.764	142.85
682.954	269.82
683.144	187.9
683.334	247.29
683.524	206.33
683.714	237.05
683.904	261.63
684.094	239.1
684.284	294.4
684.474	298.49
684.664	314.88
684.854	280.06
685.044	181.76
685.234	304.64
685.424	284.16
685.614	173.57
685.804	368.12
685.994	237.05
686.184	148.99
686.374	271.87
686.564	312.83
686.753	179.71
686.943	171.52
687.133	192
687.323	167.42
687.513	312.83
687.702	181.76
687.892	226.81
688.082	261.63
688.272	298.49
688.461	208.38
688.651	396.79
688.841	253.44
689.03	218.62
689.22	247.29
689.41	239.1
689.599	298.49
689.789	97.79
689.979	325.12
690.168	194.05
690.358	237.05
690.547	196.09
690.737	269.82
690.926	216.57
691.116	249.34
691.305	253.44
691.495	400.89
691.684	159.23
691.874	148.99
692.063	245.24
692.252	333.31
692.442	249.34
692.631	232.96
692.82	202.24
693.01	212.48
693.199	255.48
693.388	280.06
693.578	280.06
693.767	278.01
693.956	245.24
694.146	179.71
694.335	261.63
694.524	198.14
694.713	290.3
694.902	253.44
695.092	214.52
695.281	181.76
695.47	130.56
695.659	165.37
695.848	140.8
696.037	214.52
696.226	196.09
696.415	255.48
696.604	329.21
696.793	177.66
696.982	161.28
697.171	386.55
697.36	271.87
697.549	273.92
697.738	101.89
697.927	136.7
698.116	206.33
698.305	235
698.494	235
698.683	255.48
698.872	310.78
699.061	192
699.25	114.17
699.438	167.42
699.627	175.61
699.816	368.12
700.005	99.84
700.193	85.5
700.382	273.92
700.571	163.33
700.76	284.16
700.948	251.39
701.137	278.01
701.326	245.24
701.514	110.08
701.703	196.09
701.892	267.77
702.08	329.21
702.269	151.04
702.457	171.52
702.646	214.52
702.834	95.74
703.023	206.33
703.212	286.2
703.4	251.39
703.589	208.38
703.777	251.39
703.965	110.08
704.154	189.95
704.342	126.46
704.531	196.09
704.719	173.57
704.907	294.4
705.096	171.52
705.284	138.75
705.472	138.75
705.661	257.53
705.849	286.2
706.037	273.92
706.226	267.77
706.414	179.71
706.602	159.23
706.79	187.9
706.979	122.37
707.167	237.05
707.355	114.17
707.543	230.91
707.731	224.76
707.919	148.99
708.107	130.56
708.296	171.52
708.484	138.75
708.672	237.05
708.86	249.34
709.048	153.09
709.236	198.14
709.424	271.87
709.612	220.67
709.8	58.88
709.988	101.89
710.176	216.57
710.364	286.2
710.551	263.68
710.739	218.62
710.927	196.09
711.115	189.95
711.303	306.68
711.491	347.64
711.679	206.33
711.866	259.58
712.054	118.27
712.242	163.33
712.43	206.33
712.617	239.1
712.805	304.64
712.993	144.89
713.181	122.37
713.368	243.2
713.556	167.42
713.744	136.7
713.931	400.89
714.119	255.48
714.306	220.67
714.494	134.65
714.682	216.57
714.869	222.72
715.057	232.96
715.244	142.85
715.432	214.52
715.619	169.47
715.807	155.13
715.994	185.85
716.182	185.85
716.369	321.02
716.556	235
716.744	71.17
716.931	81.41
717.119	265.72
717.306	183.81
717.493	261.63
717.681	200.19
717.868	95.74
718.055	206.33
718.242	218.62
718.43	232.96
718.617	329.21
718.804	247.29
718.991	220.67
719.179	183.81
719.366	235
719.553	247.29
719.74	239.1
719.927	189.95
720.114	222.72
720.301	155.13
720.488	153.09
720.676	171.52
720.863	351.74
721.05	376.31
721.237	273.92
721.424	224.76
721.611	181.76
721.798	103.93
721.985	181.76
722.172	196.09
722.358	118.27
722.545	269.82
722.732	194.05
722.919	292.35
723.106	187.9
723.293	132.61
723.48	81.41
723.667	105.98
723.853	265.72
724.04	349.69
724.227	251.39
724.414	159.23
724.6	251.39
724.787	339.45
724.974	419.32
725.161	284.16
725.347	153.09
725.534	357.88
725.72	310.78
725.907	366.07
726.094	290.3
726.28	247.29
726.467	302.59
726.653	60.93
726.84	372.22
727.027	407.03
727.213	185.85
727.4	122.37
727.586	259.58
727.773	140.8
727.959	257.53
728.145	175.61
728.332	114.17
728.518	194.05
728.705	273.92
728.891	179.71
729.077	198.14
729.264	192
729.45	187.9
729.636	216.57
729.823	239.1
730.009	400.89
730.195	267.77
730.382	245.24
730.568	192
730.754	210.43
730.94	255.48
731.126	235
731.313	331.26
731.499	245.24
731.685	323.07
731.871	261.63
732.057	247.29
732.243	331.26
732.429	163.33
732.615	415.23
732.801	314.88
732.987	296.44
733.173	185.85
733.359	220.67
733.545	269.82
733.731	241.15
733.917	327.16
734.103	263.68
734.289	280.06
734.475	218.62
734.661	343.55
734.847	290.3
735.033	185.85
735.219	329.21
735.404	218.62
735.59	243.2
735.776	251.39
735.962	255.48
736.148	304.64
736.333	273.92
736.519	331.26
736.705	235
736.89	265.72
737.076	214.52
737.262	185.85
737.447	192
737.633	253.44
737.819	267.77
738.004	224.76
738.19	255.48
738.375	306.68
738.561	255.48
738.747	284.16
738.932	183.81
739.118	407.03
739.303	286.2
739.489	294.4
739.674	292.35
739.859	210.43
740.045	292.35
740.23	247.29
740.416	118.27
740.601	259.58
740.786	226.81
740.972	220.67
741.157	271.87
741.342	179.71
741.528	181.76
741.713	273.92
741.898	171.52
742.084	218.62
742.269	300.54
742.454	318.97
742.639	323.07
742.824	187.9
743.01	329.21
743.195	378.36
743.38	298.49
743.565	206.33
743.75	284.16
743.935	249.34
744.12	308.73
744.305	239.1
744.49	175.61
744.675	216.57
744.86	261.63
745.045	296.44
745.23	302.59
745.415	232.96
745.6	298.49
745.785	257.53
745.97	325.12
746.155	220.67
746.34	284.16
746.525	235
746.71	331.26
746.895	148.99
747.079	173.57
747.264	222.72
747.449	273.92
747.634	265.72
747.819	251.39
748.003	175.61
748.188	142.85
748.373	245.24
748.557	282.11
748.742	173.57
748.927	235
749.111	261.63
749.296	218.62
749.481	316.92
749.665	202.24
749.85	157.18
750.034	232.96
750.219	175.61
750.404	331.26
750.588	251.39
750.773	163.33
750.957	204.28
751.141	151.04
751.326	228.86
751.51	124.41
751.695	165.37
751.879	179.71
752.064	310.78
752.248	101.89
752.432	282.11
752.617	251.39
752.801	198.14
752.985	108.03
753.17	280.06
753.354	271.87
753.538	214.52
753.722	151.04
753.907	187.9
754.091	120.32
754.275	216.57
754.459	97.79
754.643	189.95
754.828	153.09
755.012	257.53
755.196	118.27
755.38	202.24
755.564	183.81
755.748	130.56
755.932	208.38
756.116	226.81
756.3	265.72
756.484	130.56
756.668	198.14
756.852	54.78
757.036	30.21
757.22	136.7
757.404	118.27
757.588	97.79
757.772	202.24
757.956	89.6
758.14	220.67
758.323	77.31
758.507	185.85
758.691	165.37
758.875	169.47
759.059	251.39
759.242	118.27
759.426	144.89
759.61	241.15
759.794	126.46
759.977	153.09
760.161	433.66
760.345	232.96
760.528	220.67
760.712	196.09
760.895	214.52
761.079	144.89
761.263	126.46
761.446	114.17
761.63	71.17
761.813	232.96
761.997	81.41
762.18	79.36
762.364	165.37
762.547	28.16
762.731	83.45
762.914	89.6
763.098	77.31
763.281	110.08
763.464	-20.99
763.648	204.28
763.831	11.78
764.015	38.4
764.198	122.37
764.381	40.45
764.564	124.41
764.748	85.5
764.931	87.55
765.114	75.26
765.297	202.24
765.481	38.4
765.664	62.98
765.847	77.31
766.03	155.13
766.213	114.17
766.397	56.83
766.58	-29.18
766.763	120.32
766.946	77.31
767.129	60.93
767.312	77.31
767.495	144.89
767.678	46.59
767.861	105.98
768.044	95.74
768.227	93.69
768.41	105.98
768.593	110.08
768.776	144.89
768.959	36.35
769.142	183.81
769.324	126.46
769.507	97.79
769.69	58.88
769.873	-12.8
770.056	261.63
770.239	120.32
770.421	161.28
770.604	99.84
770.787	65.02
770.97	93.69
771.152	-31.23
771.335	153.09
771.518	36.35
771.7	175.61
771.883	222.72
772.066	11.78
772.248	165.37
772.431	148.99
772.613	128.51
772.796	97.79
772.978	71.17
773.161	218.62
773.343	110.08
773.526	101.89
773.708	-6.66
773.891	-100.86
774.073	128.51
774.256	46.59
774.438	212.48
774.621	93.69
774.803	157.18
774.985	-23.04
775.168	97.79
775.35	122.37
775.532	93.69
775.715	22.02
775.897	95.74
776.079	32.26
776.261	124.41
776.444	124.41
776.626	130.56
776.808	97.79
776.99	34.3
777.173	34.3
777.355	60.93
777.537	38.4
777.719	87.55
777.901	56.83
778.083	32.26
778.265	1.54
778.447	44.54
778.629	38.4
778.811	95.74
778.993	85.5
779.175	120.32
779.357	79.36
779.539	-20.99
779.721	101.89
779.903	73.21
780.085	114.17
780.267	-12.8
780.449	101.89
780.631	91.65
780.812	116.22
780.994	36.35
781.176	77.31
781.358	58.88
781.54	36.35
781.721	130.56
781.903	42.5
782.085	54.78
782.267	122.37
782.448	7.68
782.63	87.55
782.812	56.83
782.993	181.76
783.175	144.89
783.357	15.87
783.538	5.63
783.72	-33.28
783.901	7.68
784.083	65.02
784.264	42.5
784.446	-10.75
784.627	-0.51
784.809	110.08
784.99	58.88
785.172	161.28
785.353	-12.8
785.535	58.88
785.716	-4.61
785.897	-39.42
786.079	116.22
786.26	97.79
786.441	5.63
786.623	-57.86
786.804	-27.14
786.985	83.45
787.167	81.41
787.348	28.16
787.529	-29.18
787.71	161.28
787.891	50.69
788.073	34.3
788.254	-57.86
788.435	140.8
788.616	-4.61
788.797	-53.76
788.978	15.87
789.159	91.65
789.34	108.03
789.522	-12.8
789.703	-10.75
789.884	38.4
790.065	73.21
790.246	118.27
790.427	65.02
790.607	142.85
790.788	87.55
790.969	42.5
791.15	17.92
791.331	69.12
791.512	60.93
791.693	-25.09
791.874	7.68
792.054	261.63
792.235	32.26
792.416	-16.9
792.597	11.78
792.778	163.33
792.958	81.41
793.139	146.94
793.32	24.06
793.5	-92.67
793.681	161.28
793.862	11.78
794.042	75.26
794.223	-53.76
794.404	7.68
794.584	-74.24
794.765	46.59
794.945	11.78
795.126	77.31
795.306	81.41
795.487	44.54
795.667	5.63
795.848	110.08
796.028	-16.9
796.209	52.74
796.389	77.31
796.57	-2.56
796.75	-35.33
796.93	5.63
797.111	-10.75
797.291	32.26
797.471	136.7
797.652	24.06
797.832	-33.28
798.012	54.78
798.192	-45.57
798.373	-72.19
798.553	-16.9
798.733	-4.61
798.913	-41.47
799.093	-29.18
799.274	65.02
799.454	17.92
799.634	48.64
799.814	118.27
799.994	75.26
800.174	62.98
800.354	32.26
800.534	-174.59
800.714	48.64
800.894	-61.95
801.074	-55.81
801.254	46.59
801.434	87.55
801.614	-2.56
801.794	-57.86
801.974	1480.17
802.154	22.02
802.334	83.45
802.514	-53.76
802.693	-8.7
802.873	-18.94
803.053	114.17
803.233	7.68
803.413	79.36
803.592	-53.76
803.772	-4.61
803.952	42.5
804.131	-86.53
804.311	116.22
804.491	50.69
804.67	-43.52
804.85	-47.62
805.03	48.64
805.209	161.28
805.389	40.45
805.568	-6.66
805.748	5.63
805.928	22.02
806.107	93.69
806.287	95.74
806.466	40.45
806.646	-6.66
806.825	46.59
807.004	-33.28
807.184	-47.62
807.363	60.93
807.543	50.69
807.722	26.11
807.901	108.03
808.081	69.12
808.26	-203.26
808.439	44.54
808.619	-16.9
808.798	40.45
808.977	3.58
809.156	83.45
809.336	62.98
809.515	13.82
809.694	-41.47
809.873	-20.99
810.052	97.79
810.231	105.98
810.411	75.26
810.59	13.82
810.769	-10.75
810.948	58.88
811.127	-64
811.306	19.97
811.485	3.58
811.664	151.04
811.843	-66.05
812.022	52.74
812.201	7.68
812.38	26.11
812.559	-31.23
812.737	22.02
812.916	-49.66
813.095	-27.14
813.274	52.74
813.453	-18.94
813.632	87.55
813.811	54.78
813.989	-72.19
814.168	52.74
814.347	-27.14
814.526	13.82
814.704	138.75
814.883	77.31
815.062	-31.23
815.24	44.54
815.419	-16.9
815.598	65.02
815.776	-90.62
815.955	-55.81
816.133	-37.38
816.312	34.3
816.49	-23.04
816.669	28.16
816.847	-35.33
817.026	54.78
817.204	-4.61
817.383	38.4
817.561	-68.09
817.74	77.31
817.918	95.74
818.097	-10.75
818.275	15.87
818.453	97.79
818.632	114.17
818.81	73.21
818.988	-33.28
819.167	44.54
819.345	38.4
819.523	1.54
819.701	1.54
819.879	95.74
820.058	26.11
820.236	-39.42
820.414	26.11
820.592	-115.2
820.77	-27.14
820.948	-6.66
821.127	-29.18
821.305	48.64
821.483	-45.57
821.661	71.17
821.839	34.3
822.017	-6.66
822.195	-74.24
822.373	118.27
822.551	40.45
822.729	50.69
822.907	38.4
823.085	54.78
823.262	17.92
823.44	-27.14
823.618	-55.81
823.796	44.54
823.974	62.98
824.152	-14.85
824.329	1.54
824.507	40.45
824.685	30.21
824.863	-59.9
825.04	99.84
825.218	114.17
825.396	19.97
825.574	-43.52
825.751	26.11
825.929	103.93
826.107	36.35
826.284	42.5
826.462	15.87
826.639	-51.71
826.817	-70.14
826.994	-64
827.172	-119.29
827.349	95.74
827.527	46.59
827.704	-10.75
827.882	56.83
828.059	-25.09
828.237	-49.66
828.414	108.03
828.591	-107.01
828.769	-23.04
828.946	3.58
829.124	62.98
829.301	24.06
829.478	15.87
829.655	15.87
829.833	-25.09
830.01	-121.34
830.187	52.74
830.364	28.16
830.542	130.56
830.719	101.89
830.896	3.58
831.073	-33.28
831.25	112.13
831.427	30.21
831.604	97.79
831.782	-70.14
831.959	89.6
832.136	17.92
832.313	-2.56
832.49	-20.99
832.667	56.83
832.844	-61.95
833.021	118.27
833.198	-14.85
833.374	50.69
833.551	32.26
833.728	-70.14
833.905	79.36
834.082	-152.06
834.259	54.78
834.436	87.55
834.612	-88.57
834.789	146.94
834.966	-64
835.143	1.54
835.319	-84.48
835.496	83.45
835.673	-25.09
835.85	77.31
836.026	-6.66
836.203	99.84
836.38	22.02
836.556	-35.33
836.733	-80.38
836.909	87.55
837.086	36.35
837.262	-6.66
837.439	-0.51
837.616	-33.28
837.792	9.73
837.968	-2.56
838.145	-182.78
838.321	-31.23
838.498	93.69
838.674	73.21
838.851	-6.66
839.027	77.31
839.203	81.41
839.38	-20.99
839.556	-53.76
839.732	69.12
839.909	5.63
840.085	7.68
840.261	-35.33
840.437	9.73
840.614	22.02
840.79	5.63
840.966	-59.9
841.142	-4.61
841.318	46.59
841.494	11.78
841.671	93.69
841.847	-88.57
842.023	-86.53
842.199	89.6
842.375	108.03
842.551	-100.86
842.727	-76.29
842.903	110.08
843.079	-113.15
843.255	75.26
843.431	9.73
843.607	3.58
843.783	-131.58
843.959	60.93
844.134	-88.57
844.31	142.85
844.486	-49.66
844.662	-37.38
844.838	81.41
845.013	1.54
845.189	151.04
845.365	46.59
845.541	73.21
845.716	-23.04
845.892	81.41
846.068	69.12
846.244	-66.05
846.419	-18.94
846.595	-70.14
846.77	15.87
846.946	79.36
847.122	-47.62
847.297	-39.42
847.473	114.17
847.648	-4.61
847.824	11.78
847.999	-68.09
848.175	-0.51
848.35	105.98
848.526	75.26
848.701	48.64
848.876	-2.56
849.052	17.92
849.227	54.78
849.403	15.87
849.578	-35.33
849.753	-16.9
849.929	26.11
850.104	-39.42
850.279	-37.38
850.454	60.93
850.63	69.12
850.805	1.54
850.98	-39.42
851.155	19.97
851.33	15.87
851.505	-49.66
851.681	71.17
851.856	-90.62
852.031	65.02
852.206	-41.47
852.381	-39.42
852.556	-55.81
852.731	-16.9
852.906	114.17
853.081	56.83
853.256	73.21
853.431	-31.23
853.606	-51.71
853.781	30.21
853.956	-66.05
854.131	-8.7
854.305	-0.51
854.48	-39.42
854.655	-66.05
854.83	-10.75
855.005	1.54
855.18	54.78
855.354	-25.09
855.529	28.16
855.704	40.45
855.879	7.68
856.053	-41.47
856.228	5.63
856.403	-23.04
856.577	15.87
856.752	-53.76
856.926	-76.29
857.101	62.98
857.276	-82.43
857.45	-16.9
857.625	75.26
857.799	7.68
857.974	17.92
858.148	-80.38
858.323	52.74
858.497	5.63
858.672	7.68
858.846	-20.99
859.02	112.13
859.195	-66.05
859.369	22.02
859.543	54.78
859.718	3.58
859.892	50.69
860.066	65.02
860.241	-39.42
860.415	-35.33
860.589	15.87
860.763	26.11
860.938	-27.14
861.112	58.88
861.286	-80.38
861.46	5.63
861.634	-10.75
861.808	38.4
861.982	-35.33
862.157	-37.38
862.331	-66.05
862.505	-10.75
862.679	-37.38
862.853	-59.9
863.027	-84.48
863.201	157.18
863.375	-90.62
863.549	-49.66
863.722	-27.14
863.896	89.6
864.07	-41.47
864.244	-4.61
864.418	28.16
864.592	36.35
864.766	22.02
864.939	-25.09
865.113	-37.38
865.287	67.07
865.461	-111.1
865.634	5.63
865.808	17.92
865.982	36.35
866.156	24.06
866.329	-45.57
866.503	75.26
866.676	5.63
866.85	-41.47
867.024	-27.14
867.197	67.07
867.371	50.69
867.544	-16.9
867.718	-125.44
867.891	126.46
868.065	-14.85
868.238	44.54
868.412	69.12
868.585	44.54
868.759	-10.75
868.932	-66.05
869.105	-66.05
869.279	-2.56
869.452	-10.75
869.625	-37.38
869.799	-33.28
869.972	-59.9
870.145	-12.8
870.319	73.21
870.492	17.92
870.665	28.16
870.838	-37.38
871.011	-102.91
871.185	-10.75
871.358	17.92
871.531	19.97
871.704	-53.76
871.877	11.78
872.05	3.58
872.223	-176.64
872.396	93.69
872.569	11.78
872.742	-109.05
872.915	15.87
873.088	40.45
873.261	-27.14
873.434	93.69
873.607	7.68
873.78	130.56
873.953	-61.95
874.126	52.74
874.299	52.74
874.471	-37.38
874.644	3.58
874.817	163.33
874.99	118.27
875.163	-55.81
875.335	9.73
875.508	-33.28
875.681	146.94
875.853	-25.09
876.026	7.68
876.199	-29.18
876.371	-33.28
876.544	-68.09
876.717	87.55
876.889	-35.33
877.062	-2.56
877.234	-86.53
877.407	-8.7
877.579	54.78
877.752	-14.85
877.924	83.45
878.097	7.68
878.269	19.97
878.442	89.6
878.614	9.73
878.786	28.16
878.959	40.45
879.131	-68.09
879.303	-115.2
879.476	-29.18
879.648	42.5
879.82	42.5
879.993	-41.47
880.165	-66.05
880.337	-45.57
880.509	36.35
880.681	-94.72
880.854	-27.14
881.026	97.79
881.198	171.52
881.37	-29.18
881.542	-12.8
881.714	19.97
881.886	42.5
882.058	54.78
882.23	32.26
882.402	-25.09
882.574	-41.47
882.746	42.5
882.918	153.09
883.09	36.35
883.262	-10.75
883.434	24.06
883.606	-80.38
883.778	-2.56
883.95	136.7
884.122	-43.52
884.293	85.5
884.465	3.58
884.637	60.93
884.809	-78.33
884.98	93.69
885.152	50.69
885.324	36.35
885.496	-51.71
885.667	36.35
885.839	5.63
886.011	85.5
886.182	32.26
886.354	95.74
886.525	-66.05
886.697	-8.7
886.869	-123.39
887.04	-43.52
887.212	110.08
887.383	134.65
887.555	34.3
887.726	-0.51
887.897	24.06
888.069	32.26
888.24	-33.28
888.412	-23.04
888.583	54.78
888.754	-29.18
888.926	-16.9
889.097	9.73
889.268	-84.48
889.44	-47.62
889.611	-84.48
889.782	-61.95
889.953	-82.43
890.125	120.32
890.296	-49.66
890.467	-45.57
890.638	50.69
890.809	-37.38
890.98	-61.95
891.151	-39.42
891.323	85.5
891.494	-72.19
891.665	26.11
891.836	-18.94
892.007	38.4
892.178	65.02
892.349	-0.51
892.52	17.92
892.691	54.78
892.862	1.54
893.032	-66.05
893.203	-61.95
893.374	26.11
893.545	79.36
893.716	1.54
893.887	-29.18
894.057	24.06
894.228	22.02
894.399	-53.76
894.57	128.51
894.74	22.02
894.911	77.31
895.082	56.83
895.253	-49.66
895.423	48.64
895.594	77.31
895.764	48.64
895.935	-78.33
896.106	34.3
896.276	73.21
896.447	36.35
896.617	-115.2
896.788	-53.76
896.958	40.45
897.129	22.02
897.299	-31.23
897.47	132.61
897.64	140.8
897.81	22.02
897.981	19.97
898.151	-57.86
898.322	65.02
898.492	34.3
898.662	-88.57
898.832	-70.14
899.003	38.4
899.173	44.54
899.343	-72.19
899.513	-4.61
