Data from USB4F104151__128__10-46-24-257.txt Node

Date: Wed Feb 26 10:46:24 EST 2025
User: louis
Spectrometer: USB4F10415
Trigger mode: 4
Integration Time (sec): 1.000000E-1
Scans to average: 1
Electric dark correction enabled: true
Nonlinearity correction enabled: false
Boxcar width: 0
XAxis mode: Wavelengths
Number of Pixels in Spectrum: 3648
>>>>>Begin Spectral Data<<<<<
178.204	-342.18
178.424	-342.18
178.644	-342.18
178.864	-362.66
179.084	-372.9
179.304	-100.52
179.524	-20.65
179.744	69.46
179.964	-12.46
180.184	16.21
180.404	120.66
180.624	-45.23
180.844	-61.61
181.064	-147.62
181.283	36.69
181.503	83.8
181.723	61.27
181.943	-34.99
182.163	194.39
182.383	-24.75
182.602	77.65
182.822	171.86
183.042	53.08
183.262	8.02
183.482	20.31
183.701	87.89
183.921	38.74
184.141	-12.46
184.361	61.27
184.58	77.65
184.8	36.69
185.02	-63.66
185.239	110.42
185.459	32.6
185.679	75.6
185.898	-92.33
186.118	44.88
186.338	75.6
186.557	161.62
186.777	-39.08
186.997	61.27
187.216	3.93
187.436	159.57
187.655	124.76
187.875	-12.46
188.095	67.41
188.314	100.18
188.534	214.87
188.753	-24.75
188.973	116.56
189.192	196.43
189.412	77.65
189.631	83.8
189.851	112.47
190.07	206.67
190.29	-100.52
190.509	16.21
190.729	5.97
190.948	210.77
191.168	251.73
191.387	59.22
191.607	-10.41
191.826	32.6
192.045	-14.51
192.265	24.4
192.484	69.46
192.704	57.17
192.923	-98.47
193.142	128.85
193.362	147.28
193.581	137.04
193.8	36.69
194.02	98.13
194.239	69.46
194.458	28.5
194.678	34.64
194.897	53.08
195.116	42.84
195.335	94.04
195.555	116.56
195.774	-28.84
195.993	182.1
196.212	-8.36
196.432	-6.31
196.651	-24.75
196.87	5.97
197.089	208.72
197.308	63.32
197.528	96.08
197.747	-32.94
197.966	36.69
198.185	132.95
198.404	-61.61
198.623	124.76
198.842	169.81
199.062	128.85
199.281	169.81
199.5	73.56
199.719	145.24
199.938	38.74
200.157	110.42
200.376	116.56
200.595	116.56
200.814	94.04
201.033	-26.79
201.252	161.62
201.471	38.74
201.69	87.89
201.909	3.93
202.128	126.8
202.347	69.46
202.566	-4.27
202.785	-80.04
203.004	10.07
203.223	208.72
203.442	71.51
203.661	3.93
203.879	3.93
204.098	67.41
204.317	-84.14
204.536	108.37
204.755	114.52
204.974	212.82
205.193	24.4
205.411	147.28
205.63	42.84
205.849	81.75
206.068	16.21
206.287	-47.27
206.505	186.19
206.724	-4.27
206.943	-18.6
207.162	-39.08
207.381	-6.31
207.599	12.12
207.818	75.6
208.037	28.5
208.255	59.22
208.474	30.55
208.693	22.36
208.911	44.88
209.13	48.98
209.349	87.89
209.567	59.22
209.786	106.32
210.005	153.43
210.223	44.88
210.442	-186.54
210.661	-18.6
210.879	104.28
211.098	-18.6
211.316	71.51
211.535	135
211.753	77.65
211.972	98.13
212.191	20.31
212.409	-34.99
212.628	44.88
212.846	14.17
213.065	8.02
213.283	132.95
213.502	61.27
213.72	22.36
213.938	-16.55
214.157	96.08
214.375	91.99
214.594	-32.94
214.812	34.64
215.031	40.79
215.249	55.12
215.467	91.99
215.686	-28.84
215.904	89.94
216.122	91.99
216.341	87.89
216.559	36.69
216.778	108.37
216.996	89.94
217.214	24.4
217.432	-18.6
217.651	-71.85
217.869	53.08
218.087	-18.6
218.306	55.12
218.524	20.31
218.742	-4.27
218.96	67.41
219.179	-4.27
219.397	-61.61
219.615	130.9
219.833	87.89
220.051	-24.75
220.27	126.8
220.488	94.04
220.706	44.88
220.924	-65.71
221.142	-12.46
221.36	100.18
221.578	98.13
221.796	34.64
222.015	-47.27
222.233	98.13
222.451	173.91
222.669	-28.84
222.887	-0.17
223.105	-69.8
223.323	44.88
223.541	-6.31
223.759	124.76
223.977	98.13
224.195	104.28
224.413	26.45
224.631	18.26
224.849	53.08
225.067	239.44
225.285	-28.84
225.503	-71.85
225.721	-141.48
225.939	48.98
226.157	98.13
226.375	194.39
226.592	48.98
226.81	55.12
227.028	130.9
227.246	122.71
227.464	-32.94
227.682	106.32
227.9	69.46
228.117	40.79
228.335	91.99
228.553	40.79
228.771	40.79
228.989	151.38
229.206	91.99
229.424	46.93
229.642	-6.31
229.86	-59.56
230.077	163.67
230.295	12.12
230.513	108.37
230.731	59.22
230.948	143.19
231.166	194.39
231.384	63.32
231.601	18.26
231.819	173.91
232.037	48.98
232.254	-18.6
232.472	3.93
232.689	-2.22
232.907	143.19
233.125	18.26
233.342	-63.66
233.56	8.02
233.777	5.97
233.995	42.84
234.213	69.46
234.43	12.12
234.648	44.88
234.865	-45.23
235.083	44.88
235.3	-37.03
235.518	59.22
235.735	139.09
235.953	73.56
236.17	77.65
236.388	73.56
236.605	94.04
236.822	48.98
237.04	73.56
237.257	87.89
237.475	26.45
237.692	112.47
237.909	153.43
238.127	48.98
238.344	77.65
238.562	38.74
238.779	-108.71
238.996	14.17
239.214	18.26
239.431	89.94
239.648	-18.6
239.865	130.9
240.083	135
240.3	-28.84
240.517	12.12
240.735	44.88
240.952	130.9
241.169	73.56
241.386	69.46
241.603	14.17
241.821	42.84
242.038	94.04
242.255	149.33
242.472	-28.84
242.689	89.94
242.907	67.41
243.124	16.21
243.341	-26.79
243.558	16.21
243.775	-59.56
243.992	-22.7
244.209	53.08
244.426	126.8
244.643	71.51
244.86	-20.65
245.078	137.04
245.295	106.32
245.512	34.64
245.729	-61.61
245.946	63.32
246.163	40.79
246.38	40.79
246.597	81.75
246.814	114.52
247.031	55.12
247.248	55.12
247.464	77.65
247.681	-6.31
247.898	53.08
248.115	73.56
248.332	-0.17
248.549	143.19
248.766	159.57
248.983	100.18
249.2	34.64
249.417	106.32
249.633	-30.89
249.85	124.76
250.067	-22.7
250.284	-18.6
250.501	40.79
250.717	8.02
250.934	-34.99
251.151	-32.94
251.368	44.88
251.585	75.6
251.801	53.08
252.018	-34.99
252.235	108.37
252.451	-22.7
252.668	8.02
252.885	63.32
253.102	98.13
253.318	46.93
253.535	-22.7
253.752	24.4
253.968	-28.84
254.185	-16.55
254.401	44.88
254.618	28.5
254.835	-16.55
255.051	130.9
255.268	51.03
255.484	71.51
255.701	-28.84
255.917	3.93
256.134	36.69
256.351	-49.32
256.567	-55.47
256.784	87.89
257	-86.19
257.217	-2.22
257.433	42.84
257.65	71.51
257.866	151.38
258.082	14.17
258.299	30.55
258.515	73.56
258.732	48.98
258.948	53.08
259.165	63.32
259.381	51.03
259.597	79.7
259.814	-6.31
260.03	14.17
260.246	44.88
260.463	155.47
260.679	104.28
260.895	79.7
261.112	81.75
261.328	-26.79
261.544	32.6
261.761	182.1
261.977	-51.37
262.193	-125.1
262.409	91.99
262.626	18.26
262.842	61.27
263.058	-43.18
263.274	159.57
263.49	73.56
263.707	1.88
263.923	65.36
264.139	36.69
264.355	85.84
264.571	87.89
264.787	53.08
265.004	94.04
265.22	22.36
265.436	-10.41
265.652	-12.46
265.868	34.64
266.084	-24.75
266.3	28.5
266.516	-88.23
266.732	91.99
266.948	51.03
267.164	63.32
267.38	147.28
267.596	53.08
267.812	194.39
268.028	3.93
268.244	1.88
268.46	22.36
268.676	-2.22
268.892	44.88
269.108	-6.31
269.324	26.45
269.54	-8.36
269.756	184.15
269.972	-24.75
270.188	38.74
270.403	-45.23
270.619	34.64
270.835	55.12
271.051	67.41
271.267	102.23
271.483	16.21
271.698	108.37
271.914	85.84
272.13	-24.75
272.346	71.51
272.562	51.03
272.777	159.57
272.993	44.88
273.209	-102.57
273.425	59.22
273.64	-20.65
273.856	137.04
274.072	14.17
274.287	-10.41
274.503	-4.27
274.719	55.12
274.934	-51.37
275.15	-69.8
275.366	73.56
275.581	-2.22
275.797	61.27
276.012	55.12
276.228	-0.17
276.444	42.84
276.659	122.71
276.875	-20.65
277.09	28.5
277.306	-8.36
277.521	87.89
277.737	89.94
277.952	83.8
278.168	14.17
278.383	61.27
278.599	10.07
278.814	96.08
279.03	-18.6
279.245	118.61
279.461	55.12
279.676	98.13
279.892	-30.89
280.107	38.74
280.322	40.79
280.538	96.08
280.753	32.6
280.969	16.21
281.184	-30.89
281.399	184.15
281.615	20.31
281.83	53.08
282.045	-18.6
282.26	-102.57
282.476	3.93
282.691	126.8
282.906	100.18
283.122	10.07
283.337	-34.99
283.552	157.52
283.767	30.55
283.983	32.6
284.198	-24.75
284.413	116.56
284.628	10.07
284.843	98.13
285.058	87.89
285.274	20.31
285.489	-53.42
285.704	48.98
285.919	-65.71
286.134	-6.31
286.349	-32.94
286.564	12.12
286.779	225.11
286.995	46.93
287.21	-53.42
287.425	38.74
287.64	-20.65
287.855	-4.27
288.07	-8.36
288.285	114.52
288.5	120.66
288.715	46.93
288.93	26.45
289.145	-51.37
289.36	65.36
289.575	53.08
289.79	114.52
290.004	3.93
290.219	44.88
290.434	-12.46
290.649	32.6
290.864	-30.89
291.079	34.64
291.294	53.08
291.509	85.84
291.724	24.4
291.938	30.55
292.153	34.64
292.368	-22.7
292.583	110.42
292.798	55.12
293.012	69.46
293.227	44.88
293.442	-26.79
293.657	65.36
293.871	65.36
294.086	65.36
294.301	98.13
294.516	132.95
294.73	12.12
294.945	-6.31
295.16	46.93
295.374	161.62
295.589	48.98
295.804	-39.08
296.018	-4.27
296.233	83.8
296.447	81.75
296.662	-100.52
296.877	73.56
297.091	139.09
297.306	-47.27
297.52	81.75
297.735	120.66
297.949	38.74
298.164	55.12
298.378	135
298.593	12.12
298.807	-39.08
299.022	-20.65
299.236	116.56
299.451	1.88
299.665	-26.79
299.88	22.36
300.094	34.64
300.309	-2.22
300.523	77.65
300.737	28.5
300.952	81.75
301.166	46.93
301.381	-55.47
301.595	44.88
301.809	65.36
302.024	18.26
302.238	-0.17
302.452	137.04
302.667	48.98
302.881	175.95
303.095	108.37
303.309	100.18
303.524	-73.9
303.738	44.88
303.952	48.98
304.166	77.65
304.381	-53.42
304.595	130.9
304.809	-57.51
305.023	24.4
305.237	34.64
305.452	-18.6
305.666	91.99
305.88	79.7
306.094	59.22
306.308	165.71
306.522	30.55
306.736	61.27
306.95	53.08
307.164	-24.75
307.379	44.88
307.593	128.85
307.807	182.1
308.021	130.9
308.235	118.61
308.449	-67.75
308.663	48.98
308.877	225.11
309.091	71.51
309.305	42.84
309.519	-67.75
309.733	67.41
309.947	-67.75
310.161	128.85
310.374	112.47
310.588	157.52
310.802	-98.47
311.016	-39.08
311.23	38.74
311.444	-59.56
311.658	46.93
311.872	98.13
312.085	130.9
312.299	163.67
312.513	-18.6
312.727	94.04
312.941	30.55
313.154	112.47
313.368	28.5
313.582	51.03
313.796	48.98
314.009	89.94
314.223	59.22
314.437	94.04
314.651	63.32
314.864	10.07
315.078	38.74
315.292	-116.9
315.505	-26.79
315.719	-2.22
315.933	71.51
316.146	32.6
316.36	-98.47
316.573	165.71
316.787	65.36
317.001	91.99
317.214	-32.94
317.428	48.98
317.641	-45.23
317.855	71.51
318.068	100.18
318.282	44.88
318.495	190.29
318.709	120.66
318.922	75.6
319.136	102.23
319.349	83.8
319.563	-22.7
319.776	110.42
319.99	8.02
320.203	190.29
320.417	-41.13
320.63	141.14
320.843	94.04
321.057	175.95
321.27	-12.46
321.483	12.12
321.697	57.17
321.91	67.41
322.124	28.5
322.337	42.84
322.55	-55.47
322.763	40.79
322.977	10.07
323.19	-22.7
323.403	71.51
323.617	-4.27
323.83	102.23
324.043	-4.27
324.256	12.12
324.469	-71.85
324.683	139.09
324.896	-6.31
325.109	81.75
325.322	-77.99
325.535	118.61
325.748	46.93
325.962	10.07
326.175	57.17
326.388	-30.89
326.601	124.76
326.814	112.47
327.027	24.4
327.24	85.84
327.453	-14.51
327.666	61.27
327.879	108.37
328.092	94.04
328.305	104.28
328.518	20.31
328.731	22.36
328.944	-37.03
329.157	116.56
329.37	1.88
329.583	153.43
329.796	153.43
330.009	-32.94
330.222	143.19
330.435	112.47
330.648	77.65
330.861	71.51
331.073	18.26
331.286	126.8
331.499	-8.36
331.712	16.21
331.925	30.55
332.138	73.56
332.35	65.36
332.563	48.98
332.776	132.95
332.989	8.02
333.202	36.69
333.414	102.23
333.627	-32.94
333.84	-14.51
334.053	75.6
334.265	5.97
334.478	-4.27
334.691	36.69
334.903	59.22
335.116	12.12
335.329	51.03
335.541	61.27
335.754	184.15
335.966	-4.27
336.179	-67.75
336.392	32.6
336.604	1.88
336.817	126.8
337.029	98.13
337.242	100.18
337.454	83.8
337.667	55.12
337.88	112.47
338.092	65.36
338.305	124.76
338.517	34.64
338.729	38.74
338.942	169.81
339.154	-14.51
339.367	-10.41
339.579	126.8
339.792	-12.46
340.004	81.75
340.217	65.36
340.429	26.45
340.641	-34.99
340.854	-8.36
341.066	30.55
341.278	155.47
341.491	198.48
341.703	40.79
341.915	-30.89
342.128	48.98
342.34	120.66
342.552	-8.36
342.764	-4.27
342.977	18.26
343.189	87.89
343.401	55.12
343.613	-43.18
343.826	96.08
344.038	5.97
344.25	20.31
344.462	28.5
344.674	44.88
344.886	32.6
345.099	130.9
345.311	96.08
345.523	-49.32
345.735	-110.76
345.947	12.12
346.159	36.69
346.371	96.08
346.583	51.03
346.795	118.61
347.007	26.45
347.219	40.79
347.431	8.02
347.643	83.8
347.855	10.07
348.067	55.12
348.279	-53.42
348.491	83.8
348.703	87.89
348.915	-43.18
349.127	-16.55
349.339	137.04
349.551	-16.55
349.763	75.6
349.975	67.41
350.187	55.12
350.399	139.09
350.61	57.17
350.822	12.12
351.034	44.88
351.246	36.69
351.458	85.84
351.669	1.88
351.881	91.99
352.093	128.85
352.305	44.88
352.517	-2.22
352.728	137.04
352.94	85.84
353.152	32.6
353.363	3.93
353.575	126.8
353.787	106.32
353.999	102.23
354.21	188.24
354.422	-45.23
354.633	61.27
354.845	69.46
355.057	85.84
355.268	1.88
355.48	124.76
355.692	-28.84
355.903	57.17
356.115	3.93
356.326	-69.8
356.538	155.47
356.749	116.56
356.961	94.04
357.172	-14.51
357.384	-26.79
357.595	241.49
357.807	59.22
358.018	22.36
358.23	30.55
358.441	153.43
358.653	126.8
358.864	-10.41
359.075	-12.46
359.287	59.22
359.498	145.24
359.709	130.9
359.921	57.17
360.132	91.99
360.344	73.56
360.555	-6.31
360.766	-18.6
360.977	53.08
361.189	108.37
361.4	-2.22
361.611	89.94
361.823	112.47
362.034	18.26
362.245	-61.61
362.456	51.03
362.667	143.19
362.879	-57.51
363.09	98.13
363.301	67.41
363.512	32.6
363.723	-30.89
363.935	-0.17
364.146	141.14
364.357	44.88
364.568	46.93
364.779	-26.79
364.99	96.08
365.201	22.36
365.412	135
365.623	38.74
365.834	132.95
366.045	67.41
366.256	104.28
366.467	55.12
366.678	30.55
366.889	44.88
367.1	-16.55
367.311	83.8
367.522	-2.22
367.733	85.84
367.944	63.32
368.155	34.64
368.366	145.24
368.577	149.33
368.788	73.56
368.999	32.6
369.209	28.5
369.42	196.43
369.631	169.81
369.842	100.18
370.053	-8.36
370.264	130.9
370.474	-57.51
370.685	14.17
370.896	28.5
371.107	141.14
371.317	61.27
371.528	-10.41
371.739	42.84
371.95	69.46
372.16	83.8
372.371	-55.47
372.582	-43.18
372.792	118.61
373.003	126.8
373.214	91.99
373.424	89.94
373.635	38.74
373.846	188.24
374.056	-2.22
374.267	65.36
374.477	32.6
374.688	-30.89
374.898	18.26
375.109	22.36
375.319	81.75
375.53	135
375.74	184.15
375.951	48.98
376.161	46.93
376.372	145.24
376.582	40.79
376.793	53.08
377.003	57.17
377.214	10.07
377.424	63.32
377.635	18.26
377.845	71.51
378.055	163.67
378.266	-75.95
378.476	18.26
378.686	75.6
378.897	71.51
379.107	153.43
379.317	85.84
379.528	-73.9
379.738	-8.36
379.948	-43.18
380.158	161.62
380.369	53.08
380.579	108.37
380.789	73.56
380.999	48.98
381.21	59.22
381.42	206.67
381.63	30.55
381.84	151.38
382.05	141.14
382.261	171.86
382.471	120.66
382.681	1.88
382.891	182.1
383.101	83.8
383.311	-6.31
383.521	-67.75
383.731	155.47
383.941	198.48
384.151	48.98
384.361	44.88
384.571	34.64
384.781	51.03
384.991	210.77
385.201	161.62
385.411	89.94
385.621	132.95
385.831	124.76
386.041	5.97
386.251	71.51
386.461	194.39
386.671	34.64
386.881	73.56
387.091	18.26
387.301	55.12
387.511	67.41
387.72	67.41
387.93	59.22
388.14	-96.43
388.35	61.27
388.56	161.62
388.769	161.62
388.979	55.12
389.189	-65.71
389.399	120.66
389.609	16.21
389.818	124.76
390.028	16.21
390.238	114.52
390.447	3.93
390.657	34.64
390.867	18.26
391.076	-18.6
391.286	67.41
391.496	71.51
391.705	110.42
391.915	104.28
392.125	65.36
392.334	-18.6
392.544	192.34
392.753	165.71
392.963	-28.84
393.172	53.08
393.382	10.07
393.591	198.48
393.801	22.36
394.01	175.95
394.22	65.36
394.429	130.9
394.639	18.26
394.848	112.47
395.058	73.56
395.267	-4.27
395.477	141.14
395.686	100.18
395.895	171.86
396.105	282.45
396.314	71.51
396.524	63.32
396.733	57.17
396.942	87.89
397.152	96.08
397.361	110.42
397.57	61.27
397.78	77.65
397.989	67.41
398.198	135
398.407	34.64
398.617	98.13
398.826	110.42
399.035	36.69
399.244	135
399.453	40.79
399.663	28.5
399.872	69.46
400.081	10.07
400.29	104.28
400.499	63.32
400.708	104.28
400.917	10.07
401.127	120.66
401.336	8.02
401.545	237.39
401.754	171.86
401.963	81.75
402.172	-22.7
402.381	-18.6
402.59	16.21
402.799	73.56
403.008	120.66
403.217	63.32
403.426	153.43
403.635	-45.23
403.844	22.36
404.053	36.69
404.262	48.98
404.471	159.57
404.68	-4.27
404.888	83.8
405.097	-6.31
405.306	46.93
405.515	159.57
405.724	65.36
405.933	83.8
406.142	24.4
406.35	130.9
406.559	40.79
406.768	3.93
406.977	98.13
407.185	110.42
407.394	81.75
407.603	-12.46
407.812	16.21
408.02	128.85
408.229	-20.65
408.438	67.41
408.646	-59.56
408.855	67.41
409.064	161.62
409.272	38.74
409.481	61.27
409.69	-34.99
409.898	34.64
410.107	108.37
410.315	165.71
410.524	12.12
410.733	98.13
410.941	3.93
411.15	167.76
411.358	30.55
411.567	159.57
411.775	65.36
411.984	44.88
412.192	149.33
412.401	65.36
412.609	128.85
412.818	159.57
413.026	12.12
413.234	26.45
413.443	34.64
413.651	-2.22
413.86	116.56
414.068	218.96
414.276	202.58
414.485	73.56
414.693	165.71
414.901	221.01
415.11	32.6
415.318	22.36
415.526	16.21
415.734	145.24
415.943	104.28
416.151	104.28
416.359	83.8
416.567	114.52
416.776	61.27
416.984	165.71
417.192	153.43
417.4	55.12
417.608	14.17
417.817	22.36
418.025	94.04
418.233	171.86
418.441	5.97
418.649	14.17
418.857	75.6
419.065	132.95
419.273	46.93
419.481	59.22
419.689	51.03
419.897	18.26
420.105	18.26
420.313	59.22
420.521	98.13
420.729	169.81
420.937	14.17
421.145	10.07
421.353	141.14
421.561	167.76
421.769	81.75
421.977	18.26
422.185	67.41
422.393	55.12
422.601	87.89
422.809	57.17
423.017	16.21
423.224	118.61
423.432	153.43
423.64	155.47
423.848	200.53
424.056	38.74
424.263	126.8
424.471	20.31
424.679	165.71
424.887	108.37
425.094	61.27
425.302	145.24
425.51	44.88
425.718	161.62
425.925	91.99
426.133	22.36
426.341	182.1
426.548	46.93
426.756	75.6
426.964	63.32
427.171	44.88
427.379	81.75
427.586	110.42
427.794	180.05
428.001	122.71
428.209	116.56
428.417	124.76
428.624	216.91
428.832	126.8
429.039	106.32
429.247	81.75
429.454	180.05
429.662	196.43
429.869	110.42
430.076	210.77
430.284	143.19
430.491	212.82
430.699	149.33
430.906	302.93
431.114	120.66
431.321	153.43
431.528	104.28
431.736	126.8
431.943	194.39
432.15	206.67
432.358	167.76
432.565	257.87
432.772	-32.94
432.979	169.81
433.187	106.32
433.394	139.09
433.601	98.13
433.808	208.72
434.016	239.44
434.223	173.91
434.43	132.95
434.637	208.72
434.844	288.59
435.052	243.54
435.259	249.68
435.466	241.49
435.673	327.5
435.88	366.42
436.087	347.98
436.294	325.46
436.501	292.69
436.708	300.88
436.915	413.52
437.122	319.31
437.329	249.68
437.537	388.94
437.743	317.26
437.95	511.82
438.157	388.94
438.364	321.36
438.571	401.23
438.778	384.85
438.985	354.13
439.192	450.38
439.399	563.02
439.606	382.8
439.813	560.97
440.02	597.84
440.227	714.57
440.433	579.4
440.64	511.82
440.847	575.31
441.054	470.86
441.261	730.95
441.467	634.7
441.674	587.6
441.881	722.76
442.088	636.75
442.294	743.24
442.501	843.59
442.708	749.39
442.914	796.49
443.121	743.24
443.328	798.54
443.534	849.74
443.741	827.21
443.948	819.02
444.154	1070.92
444.361	1195.84
444.568	1113.92
444.774	1077.06
444.981	968.52
445.187	1240.9
445.394	1197.89
445.6	1210.18
445.807	1339.2
446.013	1253.19
446.22	1357.63
446.426	1445.7
446.633	1384.26
446.839	1699.64
447.046	1455.94
447.252	1636.16
447.459	1609.53
447.665	1660.73
447.871	1769.27
448.078	2017.08
448.284	1935.16
448.491	1933.11
448.697	2058.04
448.903	2293.55
449.11	2268.98
449.316	2135.86
449.522	2449.2
449.728	2434.86
449.935	2641.71
450.141	2443.06
450.347	2764.59
450.553	2707.24
450.76	2869.03
450.966	2918.18
451.172	3036.97
451.378	3082.02
451.584	3254.05
451.791	3477.28
451.997	3524.38
452.203	3571.49
452.409	3710.75
452.615	4011.8
452.821	3835.67
453.027	3827.48
453.233	4503.31
453.44	4265.75
453.646	4384.53
453.852	4650.77
454.058	4755.21
454.264	4960.01
454.47	5443.33
454.676	5252.87
454.882	5662.46
455.088	5639.94
455.294	5926.65
455.5	6309.62
455.705	6551.28
455.911	6649.58
456.117	6708.97
456.323	7091.95
456.529	7036.65
456.735	7601.89
456.941	7802.59
457.147	8089.31
457.352	8363.73
457.558	8662.74
457.764	9121.48
457.97	9418.44
458.176	9844.42
458.381	10186.43
458.587	10313.4
458.793	10778.29
458.999	10800.82
459.204	12209.82
459.41	12551.83
459.616	12547.73
459.821	13147.79
460.027	13803.14
460.233	14325.37
460.438	14284.41
460.644	15160.94
460.85	15392.36
461.055	16100.96
461.261	16963.15
461.466	16436.83
461.672	16789.08
461.878	18585.15
462.083	18376.25
462.289	18845.24
462.494	19822.12
462.7	19783.21
462.905	19672.62
463.111	21763.59
463.316	22584.83
463.522	23225.84
463.727	23809.51
463.932	24903.13
464.138	25652.69
464.343	26691.01
464.549	26865.08
464.754	28634.53
464.959	29496.72
465.165	30066.06
465.37	29703.57
465.575	29445.52
465.781	31413.62
465.986	32863.58
466.191	31964.53
466.397	32613.73
466.602	31829.36
466.807	33607
467.012	34002.25
467.218	34749.76
467.423	34667.84
467.628	35812.66
467.833	37506.33
468.038	36885.79
468.244	36244.78
468.449	38014.23
468.654	37182.75
468.859	36965.67
469.064	37166.37
469.269	36646.18
469.474	36773.16
469.679	37612.82
469.885	36668.71
470.09	37279
470.295	37180.7
470.5	36334.89
470.705	36459.82
470.91	36021.55
471.115	35470.65
471.32	36011.31
471.525	36001.07
471.73	34788.67
471.935	34329.93
472.139	33334.62
472.344	33463.64
472.549	33320.28
472.754	32453.99
472.959	31784.3
473.164	31026.56
473.369	30289.29
473.574	30995.84
473.778	30428.55
473.983	29932.94
474.188	29296.02
474.393	27708.85
474.598	27837.87
474.802	27260.34
475.007	26891.71
475.212	26787.26
475.417	25656.78
475.621	25431.51
475.826	25185.75
476.031	24659.42
476.235	23948.78
476.44	24104.42
476.645	23580.14
476.849	23209.46
477.054	22676.99
477.259	22281.73
477.463	22271.49
477.668	21380.62
477.872	21804.55
478.077	21005.84
478.282	20334.11
478.486	20239.9
478.691	19961.38
478.895	19772.97
479.1	19535.4
479.304	19611.18
479.509	18927.16
479.713	19095.09
479.918	18568.76
480.122	18519.61
480.326	18613.82
480.531	18427.45
480.735	18329.15
480.94	17745.48
481.144	18554.43
481.348	17563.21
481.553	17608.26
481.757	17094.22
481.961	17120.85
482.166	17538.63
482.37	17108.56
482.574	16651.86
482.778	16795.22
482.983	16952.91
483.187	16807.51
483.391	16725.59
483.595	16182.88
483.8	16117.34
484.004	16076.38
484.208	16281.18
484.412	15826.53
484.616	15683.17
484.821	15717.99
485.025	14919.28
485.229	15029.87
485.433	14823.03
485.637	14710.39
485.841	14644.85
486.045	14444.15
486.249	14407.29
486.453	13975.17
486.657	13670.02
486.861	13592.2
487.065	13422.22
487.269	13104.78
487.473	12893.84
487.677	12846.74
487.881	12854.93
488.085	12455.58
488.289	12396.18
488.493	11855.52
488.697	11906.72
488.901	11685.54
489.105	11302.57
489.309	11329.19
489.512	11071.15
489.716	10837.68
489.92	10477.24
490.124	10471.09
490.328	10647.22
490.531	9942.72
490.735	9959.1
490.939	9666.24
491.143	9486.02
491.346	9428.68
491.55	9428.68
491.754	9080.52
491.958	9029.32
492.161	8666.83
492.365	8617.68
492.569	8572.63
492.772	8425.17
492.976	8505.04
493.18	8220.38
493.383	8189.66
493.587	7988.96
493.79	7929.56
493.994	7835.36
494.197	7821.02
494.401	7755.49
494.605	7608.03
494.808	7411.43
495.012	7427.81
495.215	7522.02
495.419	7452.39
495.622	7263.97
495.825	7171.82
496.029	7106.28
496.232	7294.69
496.436	7104.23
496.639	7296.74
496.843	7171.82
497.046	7190.25
497.249	7360.23
497.453	7079.66
497.656	7089.9
497.859	7061.23
498.063	7188.2
498.266	7276.26
498.469	6932.2
498.673	7386.85
498.876	7173.86
499.079	7296.74
499.282	7139.05
499.485	7569.12
499.689	7362.28
499.892	7388.9
500.095	7458.53
500.298	7528.16
500.501	7554.79
500.705	7821.02
500.908	7767.77
501.111	7915.23
501.314	8148.7
501.517	8052.44
501.72	8079.07
501.923	8013.53
502.126	8253.14
502.329	8550.1
502.532	8087.26
502.735	8328.92
502.938	8552.15
503.141	8597.2
503.344	8675.02
503.547	8916.69
503.75	8933.07
503.953	8814.29
504.156	9125.58
504.359	9443.01
504.562	9438.92
504.765	9717.44
504.968	9809.6
505.17	9756.35
505.373	9858.75
505.576	10299.06
505.779	10288.82
505.982	10276.54
506.185	10784.43
506.387	10710.71
506.59	11003.57
506.793	11171.5
506.996	11499.17
507.198	11863.71
507.401	11955.87
507.604	12048.03
507.807	12234.39
508.009	12519.06
508.212	12887.7
508.415	13026.96
508.617	13297.29
508.82	13604.49
509.022	13801.09
509.225	14179.96
509.428	14548.6
509.63	14886.51
509.833	14853.75
510.035	15472.23
510.238	15726.18
510.44	15849.06
510.643	16643.67
510.845	16680.53
511.048	17106.51
511.25	17620.55
511.453	17886.79
511.655	18325.05
511.858	18603.58
512.06	19093.04
512.262	19725.86
512.465	19856.93
512.667	20221.47
512.87	20721.18
513.072	21079.57
513.274	21968.39
513.477	22472.19
513.679	22840.82
513.881	23463.41
514.084	23803.37
514.286	24090.09
514.488	24464.86
514.69	25832.91
514.893	26013.13
515.095	26791.36
515.297	27159.99
515.499	27395.51
515.701	28319.14
515.904	28632.48
516.106	29554.07
516.308	29994.38
516.51	30750.08
516.712	30850.43
516.914	31946.09
517.116	32589.16
517.318	32996.7
517.52	33430.87
517.722	34135.37
517.925	34923.84
518.127	35788.08
518.329	36320.56
518.531	36310.32
518.733	37279
518.935	38165.77
519.136	38198.54
519.338	39277.82
519.54	39787.77
519.742	40422.64
519.944	40805.61
520.146	41422.05
520.348	42120.4
520.55	42527.95
520.752	42998.98
520.954	43660.48
521.155	43783.35
521.357	45087.91
521.559	45413.54
521.761	46339.22
521.963	46324.88
522.164	46861.45
522.366	47221.89
522.568	47586.43
522.77	47654.01
522.971	48755.82
523.173	48350.32
523.375	48702.57
523.576	49122.41
523.778	49347.68
523.98	49603.68
524.181	50138.2
524.383	50179.16
524.584	50355.28
524.786	50832.46
524.988	50230.36
525.189	50844.75
525.391	50707.54
525.592	50476.12
525.794	51014.73
525.995	51027.02
526.197	50918.48
526.398	50725.97
526.6	50842.7
526.801	51006.54
527.003	50783.31
527.204	50404.44
527.406	50865.23
527.607	50469.97
527.808	50066.52
528.01	49290.34
528.211	49210.47
528.412	49589.34
528.614	48893.04
528.815	48931.95
529.016	48938.09
529.218	48018.55
529.419	47852.67
529.62	47602.81
529.822	46931.08
530.023	46804.11
530.224	45866.14
530.425	45630.62
530.626	44694.7
530.828	44643.5
531.029	44717.23
531.23	43785.4
531.431	43150.53
531.632	43635.9
531.833	42728.65
532.035	42013.91
532.236	41368.8
532.437	41229.54
532.638	40541.42
532.839	40367.34
533.04	40393.96
533.241	38759.69
533.442	39054.59
533.643	38176.01
533.844	37594.39
534.045	37268.76
534.246	36142.38
534.447	36607.27
534.648	35466.55
534.849	35376.44
535.05	34811.2
535.251	34456.9
535.451	33916.24
535.652	33475.93
535.853	32925.02
536.054	32640.36
536.255	32324.97
536.456	31767.92
536.657	31843.7
536.857	31040.89
537.058	30387.59
537.259	30115.21
537.46	29926.8
537.66	29392.28
537.861	28663.2
538.062	28437.92
538.263	27995.56
538.463	27714.99
538.664	27622.83
538.865	27231.67
539.065	27000.25
539.266	26566.08
539.466	26234.31
539.667	25621.97
539.868	25851.34
540.068	25146.84
540.269	25077.21
540.469	24389.09
540.67	24503.78
540.87	23989.74
541.071	23690.73
541.271	23506.41
541.472	23170.55
541.672	22851.06
541.873	22713.85
542.073	22066.69
542.274	22412.8
542.474	22281.73
542.675	21831.18
542.875	21595.66
543.075	21163.54
543.276	20643.35
543.476	20731.42
543.676	20305.44
543.877	19990.05
544.077	19934.76
544.277	19760.68
544.478	19512.88
544.678	19492.4
544.878	19177.01
545.078	19209.78
545.279	18617.91
545.479	18468.41
545.679	18255.42
545.879	18056.77
546.079	17958.47
546.28	17661.51
546.48	17284.69
546.68	17221.2
546.88	17221.2
547.08	17079.89
547.28	16698.97
547.48	16297.56
547.68	16258.65
547.88	15924.83
548.081	15953.51
548.281	15511.14
548.481	15138.41
548.681	15197.81
548.881	14976.62
549.081	14843.51
549.28	14515.83
549.48	14528.12
549.68	14222.97
549.88	14493.3
550.08	13981.31
550.28	13727.36
550.48	13377.16
550.68	13538.95
550.88	12969.62
551.08	12930.7
551.279	12949.14
551.479	12506.77
551.679	12592.79
551.879	12209.82
552.079	12050.08
552.278	12033.69
552.478	11966.11
552.678	11642.53
552.878	11550.37
553.077	11093.68
553.277	10962.61
553.477	10901.17
553.676	10915.5
553.876	10792.62
554.076	10405.56
554.275	10051.26
554.475	9914.05
554.674	10036.92
554.874	9852.61
555.074	9504.45
555.273	9264.84
555.473	9297.61
555.672	9060.04
555.872	8896.21
556.071	9058
556.271	8828.62
556.47	8601.3
556.67	8427.22
556.869	8224.47
557.068	8167.13
557.268	7941.85
557.467	7939.8
557.667	8023.77
557.866	7587.55
558.065	7562.98
558.265	7399.14
558.464	7145.19
558.663	7120.62
558.863	7022.31
559.062	6930.16
559.261	6784.75
559.461	6860.52
559.66	6473.46
559.859	6264.57
560.058	6342.39
560.258	6315.76
560.457	6237.94
560.656	6375.16
560.855	5930.75
561.054	5867.26
561.253	5865.21
561.453	5918.46
561.652	5672.7
561.851	5619.46
562.05	5433.09
562.249	5187.33
562.448	5338.88
562.647	5244.68
562.846	5089.03
563.045	5203.72
563.244	4947.72
563.443	4968.2
563.642	4810.51
563.841	4888.33
564.04	4771.6
564.239	4630.29
564.438	4458.26
564.637	4423.44
564.836	4529.94
565.035	4298.52
565.234	4308.76
565.432	4249.36
565.631	4292.37
565.83	4151.06
566.029	4157.21
566.228	4019.99
566.427	4052.76
566.625	3718.94
566.824	3755.8
567.023	3768.09
567.222	3604.25
567.42	3653.41
567.619	3577.63
567.818	3589.92
568.016	3589.92
568.215	3458.85
568.414	3475.23
568.612	3419.94
568.811	3186.47
569.01	3288.87
569.208	3221.28
569.407	3241.76
569.605	3170.08
569.804	2926.38
570.002	3104.55
570.201	2969.38
570.4	3061.54
570.598	3053.35
570.797	2914.09
570.995	2746.16
571.193	2678.57
571.392	2787.11
571.59	2688.81
571.789	2641.71
571.987	2656.04
572.186	2588.46
572.384	2469.68
572.582	2602.8
572.781	2592.56
572.979	2281.27
573.177	2441.01
573.376	2344.75
573.574	2299.7
573.772	2289.46
573.971	2154.29
574.169	1992.5
574.367	2166.58
574.565	2109.24
574.763	1976.12
574.962	2029.37
575.16	1961.78
575.358	1851.19
575.556	2099
575.754	1947.45
575.952	1861.43
576.151	1875.77
576.349	1896.25
576.547	1793.85
576.745	1736.51
576.943	1900.34
577.141	1738.55
577.339	1550.14
577.537	1693.5
577.735	1611.58
577.933	1695.55
578.131	1533.76
578.329	1685.31
578.527	1476.41
578.725	1484.61
578.923	1453.89
579.121	1535.81
579.319	1341.25
579.516	1326.91
579.714	1527.61
579.912	1347.39
580.11	1292.1
580.308	1318.72
580.506	1374.02
580.704	1173.32
580.901	1257.28
581.099	1347.39
581.297	1124.16
581.495	1292.1
581.692	1201.99
581.89	1249.09
582.088	1290.05
582.285	1244.99
582.483	1118.02
582.681	1093.44
582.878	1009.48
583.076	1072.96
583.274	1142.6
583.471	1134.4
583.669	1115.97
583.866	927.56
584.064	935.75
584.262	819.02
584.459	939.85
584.657	976.71
584.854	1044.29
585.052	966.47
585.249	1019.72
585.447	966.47
585.644	874.31
585.841	913.22
586.039	921.42
586.236	900.94
586.434	847.69
586.631	835.4
586.828	790.35
587.026	905.03
587.223	714.57
587.42	847.69
587.618	829.26
587.815	925.51
588.012	745.29
588.21	716.62
588.407	812.87
588.604	778.06
588.801	710.47
588.999	749.39
589.196	739.15
589.393	689.99
589.59	778.06
589.787	765.77
589.984	741.19
590.182	855.88
590.379	679.75
590.576	735.05
590.773	692.04
590.97	616.27
591.167	720.71
591.364	683.85
591.561	722.76
591.758	778.06
591.955	720.71
592.152	579.4
592.349	638.8
592.546	603.98
592.743	620.36
592.94	653.13
593.137	677.71
593.334	655.18
593.531	593.74
593.727	653.13
593.924	651.08
594.121	677.71
594.318	636.75
594.515	651.08
594.712	741.19
594.908	718.67
595.105	552.78
595.302	706.38
595.499	692.04
595.696	782.15
595.892	651.08
596.089	833.35
596.286	747.34
596.482	837.45
596.679	831.3
596.876	829.26
597.072	843.59
597.269	808.78
597.466	884.55
597.662	884.55
597.859	872.26
598.055	853.83
598.252	982.85
598.448	1163.08
598.645	1097.54
598.841	1132.36
599.038	1331.01
599.234	1138.5
599.431	1212.23
599.627	1341.25
599.824	1281.86
600.02	1234.75
600.217	1304.39
600.413	1431.36
600.609	1494.85
600.806	1722.17
601.002	1552.19
601.198	1498.94
601.395	1767.23
601.591	1754.94
601.787	1847.1
601.984	1902.39
602.18	1914.68
602.376	2035.51
602.572	2088.76
602.769	2232.12
602.965	2191.16
603.161	2357.04
603.357	2357.04
603.553	2602.8
603.75	2576.17
603.946	2613.04
604.142	2567.98
604.338	2838.31
604.534	2793.26
604.73	2830.12
604.926	3045.16
605.122	3252
605.318	3233.57
605.514	3350.31
605.71	3409.7
605.906	3522.34
606.102	3512.1
606.298	3708.7
606.494	4017.94
606.69	4077.34
606.886	4067.1
607.082	4222.74
607.278	4294.42
607.474	4374.29
607.67	4525.84
607.866	4460.31
608.062	5025.54
608.257	4826.89
608.453	4951.82
608.649	5482.24
608.845	5205.77
609.041	5316.36
609.236	5549.82
609.432	5801.72
609.628	6045.43
609.824	6108.92
610.019	6205.17
610.215	6477.55
610.411	6538.99
610.606	6776.56
610.802	7028.46
610.998	7214.82
611.193	7288.55
611.389	7309.03
611.584	7802.59
611.78	7665.38
611.976	7943.9
612.171	8552.15
612.367	8451.8
612.562	8795.86
612.758	8910.54
612.953	9119.43
613.149	9443.01
613.344	9367.24
613.539	9969.34
613.735	10294.97
613.93	10503.86
614.126	10690.23
614.321	10989.23
614.517	11361.96
614.712	11417.26
614.907	11818.66
615.103	11808.42
615.298	12299.93
615.493	12713.62
615.688	12873.36
615.884	13627.01
616.079	13592.2
616.274	13962.88
616.47	14110.33
616.665	14741.11
616.86	14900.85
617.055	15392.36
617.25	15625.83
617.445	16209.5
617.641	16402.01
617.836	16842.32
618.031	16883.28
618.226	17677.9
618.421	18114.11
618.616	18769.46
618.811	18941.49
619.006	19572.27
619.201	19621.42
619.396	20192.8
619.591	20459.04
619.786	21272.08
619.981	21419.53
620.176	22253.06
620.371	22394.37
620.566	22988.28
620.761	22992.37
620.956	23860.71
621.151	24102.37
621.346	24544.73
621.541	24974.81
621.735	26138.05
621.93	25970.12
622.125	26621.38
622.32	26844.6
622.515	27545.01
622.709	27880.88
622.904	28562.85
623.099	28962.2
623.294	29408.66
623.488	29750.67
623.683	30510.47
623.878	30756.22
624.072	31550.84
624.267	32220.52
624.462	32451.94
624.656	32560.48
624.851	33664.34
625.046	33625.43
625.24	34352.46
625.435	34592.07
625.629	35345.72
625.824	35476.79
626.018	36455.72
626.213	36132.14
626.407	36963.62
626.602	37059.87
626.796	37459.23
626.991	37907.73
627.185	38335.76
627.38	38485.26
627.574	38558.98
627.768	38636.81
627.963	38972.67
628.157	38989.06
628.352	39623.93
628.546	39251.2
628.74	39640.31
628.935	39300.35
629.129	39574.78
629.323	38556.94
629.517	38950.15
629.712	38866.18
629.906	38827.27
630.1	37954.83
630.294	38018.32
630.489	37412.12
630.683	37336.35
630.877	35892.53
631.071	35710.26
631.265	35441.98
631.459	34604.36
631.653	33828.18
631.848	33197.4
632.042	32277.86
632.236	31898.99
632.43	30821.76
632.624	30158.22
632.818	29250.97
633.012	28052.91
633.206	27461.04
633.4	26734.01
633.594	25437.65
633.788	24714.72
633.982	23920.1
634.176	23287.28
634.369	22296.07
634.563	21341.71
634.757	20588.06
634.951	20022.82
635.145	19228.21
635.339	18435.64
635.533	17735.24
635.726	16932.43
635.92	16053.86
636.114	15611.5
636.308	14927.47
636.501	14470.78
636.695	13741.7
636.889	13115.02
637.083	12693.14
637.276	11882.14
637.47	11712.16
637.664	11007.66
637.857	10737.33
638.051	10223.29
638.244	9907.9
638.438	9541.32
638.632	9215.69
638.825	8650.45
639.019	8384.21
639.212	7964.38
639.406	7786.21
639.599	7476.96
639.793	7083.75
639.986	6784.75
640.18	6668.02
640.373	6239.99
640.567	6233.85
640.76	5986.04
640.954	5570.3
641.147	5459.71
641.34	5089.03
641.534	5054.22
641.727	4941.58
641.92	4718.35
642.114	4482.83
642.307	4165.4
642.5	4337.43
642.694	3897.11
642.887	3813.15
643.08	3764
643.273	3540.77
643.467	3452.7
643.66	3358.5
643.853	3155.75
644.046	3141.41
644.239	3010.34
644.432	2758.44
644.626	2617.13
644.819	2594.61
645.012	2524.97
645.205	2449.2
645.398	2436.91
645.591	2232.12
645.784	2107.19
645.977	2031.41
646.17	1955.64
646.363	1879.86
646.556	1742.65
646.749	1668.92
646.942	1611.58
647.135	1623.87
647.328	1525.57
647.521	1578.81
647.714	1441.6
647.907	1398.59
648.099	1240.9
648.292	1318.72
648.485	1201.99
648.678	1109.83
648.871	1150.79
649.064	1118.02
649.256	997.19
649.449	913.22
649.642	900.94
649.835	962.37
650.027	862.02
650.22	1021.77
650.413	827.21
650.605	986.95
650.798	786.25
650.991	747.34
651.183	843.59
651.376	790.35
651.568	810.82
651.761	667.47
651.954	593.74
652.146	624.46
652.339	632.65
652.531	671.56
652.724	552.78
652.916	540.49
653.109	446.29
653.301	573.26
653.494	644.94
653.686	483.15
653.879	560.97
654.071	585.55
654.263	427.85
654.456	481.1
654.648	616.27
654.84	468.81
655.033	368.46
655.225	544.59
655.417	243.54
655.61	511.82
655.802	431.95
655.994	454.48
656.186	288.59
656.379	505.68
656.571	251.73
656.763	249.68
656.955	354.13
657.148	237.39
657.34	431.95
657.532	300.88
657.724	261.97
657.916	350.03
658.108	339.79
658.3	364.37
658.492	270.16
658.684	261.97
658.876	345.94
659.068	198.48
659.26	173.91
659.452	155.47
659.644	206.67
659.836	411.47
660.028	180.05
660.22	225.11
660.412	251.73
660.604	309.07
660.796	231.25
660.988	268.11
661.18	178
661.372	243.54
661.563	323.41
661.755	245.59
661.947	114.52
662.139	122.71
662.331	225.11
662.522	155.47
662.714	149.33
662.906	135
663.097	173.91
663.289	141.14
663.481	79.7
663.673	163.67
663.864	221.01
664.056	233.3
664.247	137.04
664.439	245.59
664.631	104.28
664.822	241.49
665.014	139.09
665.205	118.61
665.397	161.62
665.588	202.58
665.78	75.6
665.971	208.72
666.163	135
666.354	175.95
666.546	98.13
666.737	188.24
666.929	128.85
667.12	120.66
667.311	147.28
667.503	59.22
667.694	94.04
667.885	149.33
668.077	184.15
668.268	91.99
668.459	139.09
668.651	110.42
668.842	159.57
669.033	118.61
669.224	83.8
669.416	313.17
669.607	116.56
669.798	18.26
669.989	231.25
670.18	137.04
670.371	128.85
670.563	63.32
670.754	145.24
670.945	137.04
671.136	85.84
671.327	55.12
671.518	145.24
671.709	302.93
671.9	186.19
672.091	286.54
672.282	210.77
672.473	89.94
672.664	36.69
672.855	132.95
673.046	178
673.237	159.57
673.428	132.95
673.619	139.09
673.809	124.76
674	173.91
674.191	173.91
674.382	73.56
674.573	126.8
674.764	163.67
674.954	186.19
675.145	59.22
675.336	57.17
675.527	135
675.717	141.14
675.908	48.98
676.099	155.47
676.289	71.51
676.48	-12.46
676.671	143.19
676.861	112.47
677.052	157.52
677.243	167.76
677.433	63.32
677.624	313.17
677.814	139.09
678.005	143.19
678.195	223.06
678.386	122.71
678.576	204.63
678.767	63.32
678.957	124.76
679.148	280.4
679.338	206.67
679.529	161.62
679.719	94.04
679.909	153.43
680.1	233.3
680.29	208.72
680.481	-28.84
680.671	223.06
680.861	184.15
681.052	149.33
681.242	114.52
681.432	235.35
681.622	139.09
681.813	106.32
682.003	120.66
682.193	87.89
682.383	167.76
682.573	38.74
682.764	53.08
682.954	130.9
683.144	292.69
683.334	124.76
683.524	171.86
683.714	231.25
683.904	196.43
684.094	178
684.284	128.85
684.474	319.31
684.664	239.44
684.854	274.26
685.044	178
685.234	216.91
685.424	218.96
685.614	126.8
685.804	335.7
685.994	253.78
686.184	167.76
686.374	173.91
686.564	231.25
686.753	186.19
686.943	114.52
687.133	110.42
687.323	118.61
687.513	235.35
687.702	182.1
687.892	225.11
688.082	198.48
688.272	214.87
688.461	257.87
688.651	337.74
688.841	216.91
689.03	186.19
689.22	190.29
689.41	278.35
689.599	280.4
689.789	104.28
689.979	311.12
690.168	132.95
690.358	221.01
690.547	317.26
690.737	130.9
690.926	114.52
691.116	243.54
691.305	276.31
691.495	221.01
691.684	65.36
691.874	192.34
692.063	143.19
692.252	296.78
692.442	286.54
692.631	132.95
692.82	38.74
693.01	159.57
693.199	284.5
693.388	229.2
693.578	153.43
693.767	186.19
693.956	278.35
694.146	188.24
694.335	192.34
694.524	126.8
694.713	194.39
694.902	178
695.092	139.09
695.281	194.39
695.47	186.19
695.659	128.85
695.848	137.04
696.037	128.85
696.226	229.2
696.415	139.09
696.604	245.59
696.793	247.63
696.982	147.28
697.171	315.22
697.36	159.57
697.549	149.33
697.738	63.32
697.927	110.42
698.116	112.47
698.305	192.34
698.494	200.53
698.683	130.9
698.872	261.97
699.061	165.71
699.25	151.38
699.438	173.91
699.627	65.36
699.816	286.54
700.005	28.5
700.193	126.8
700.382	268.11
700.571	184.15
700.76	137.04
700.948	202.58
701.137	223.06
701.326	186.19
701.514	71.51
701.703	241.49
701.892	175.95
702.08	321.36
702.269	212.82
702.457	106.32
702.646	120.66
702.834	118.61
703.023	216.91
703.212	235.35
703.4	139.09
703.589	143.19
703.777	116.56
703.965	122.71
704.154	130.9
704.342	89.94
704.531	184.15
704.719	126.8
704.907	214.87
705.096	137.04
705.284	94.04
705.472	261.97
705.661	233.3
705.849	243.54
706.037	237.39
706.226	165.71
706.414	132.95
706.602	71.51
706.79	186.19
706.979	36.69
707.167	243.54
707.355	65.36
707.543	216.91
707.731	237.39
707.919	257.87
708.107	245.59
708.296	108.37
708.484	40.79
708.672	173.91
708.86	194.39
709.048	149.33
709.236	67.41
709.424	249.68
709.612	196.43
709.8	98.13
709.988	145.24
710.176	214.87
710.364	239.44
710.551	118.61
710.739	212.82
710.927	139.09
711.115	218.96
711.303	284.5
711.491	229.2
711.679	128.85
711.866	175.95
712.054	40.79
712.242	225.11
712.43	223.06
712.617	155.47
712.805	216.91
712.993	159.57
713.181	-12.46
713.368	204.63
713.556	204.63
713.744	192.34
713.931	272.21
714.119	247.63
714.306	173.91
714.494	143.19
714.682	233.3
714.869	147.28
715.057	225.11
715.244	46.93
715.432	231.25
715.619	8.02
715.807	171.86
715.994	196.43
716.182	192.34
716.369	175.95
716.556	239.44
716.744	120.66
716.931	108.37
717.119	241.49
717.306	227.15
717.493	198.48
717.681	120.66
717.868	182.1
718.055	204.63
718.242	159.57
718.43	206.67
718.617	229.2
718.804	165.71
718.991	221.01
719.179	108.37
719.366	167.76
719.553	200.53
719.74	237.39
719.927	116.56
720.114	137.04
720.301	81.75
720.488	112.47
720.676	85.84
720.863	255.83
721.05	290.64
721.237	194.39
721.424	198.48
721.611	153.43
721.798	36.69
721.985	65.36
722.172	208.72
722.358	100.18
722.545	274.26
722.732	210.77
722.919	333.65
723.106	143.19
723.293	188.24
723.48	227.15
723.667	167.76
723.853	231.25
724.04	190.29
724.227	270.16
724.414	153.43
724.6	202.58
724.787	245.59
724.974	333.65
725.161	210.77
725.347	102.23
725.534	167.76
725.72	225.11
725.907	304.98
726.094	319.31
726.28	98.13
726.467	243.54
726.653	132.95
726.84	350.03
727.027	333.65
727.213	186.19
727.4	249.68
727.586	229.2
727.773	249.68
727.959	184.15
728.145	202.58
728.332	206.67
728.518	143.19
728.705	296.78
728.891	276.31
729.077	214.87
729.264	98.13
729.45	225.11
729.636	264.02
729.823	141.14
730.009	223.06
730.195	231.25
730.382	231.25
730.568	169.81
730.754	266.07
730.94	186.19
731.126	233.3
731.313	261.97
731.499	243.54
731.685	235.35
731.871	302.93
732.057	178
732.243	315.22
732.429	278.35
732.615	345.94
732.801	175.95
732.987	223.06
733.173	218.96
733.359	73.56
733.545	239.44
733.731	112.47
733.917	274.26
734.103	188.24
734.289	194.39
734.475	165.71
734.661	354.13
734.847	243.54
735.033	196.43
735.219	307.02
735.404	186.19
735.59	214.87
735.776	282.45
735.962	274.26
736.148	274.26
736.333	243.54
736.519	225.11
736.705	218.96
736.89	194.39
737.076	208.72
737.262	198.48
737.447	124.76
737.633	110.42
737.819	247.63
738.004	274.26
738.19	182.1
738.375	233.3
738.561	290.64
738.747	255.83
738.932	173.91
739.118	362.32
739.303	288.59
739.489	257.87
739.674	132.95
739.859	135
740.045	270.16
740.23	251.73
740.416	141.14
740.601	247.63
740.786	178
740.972	216.91
741.157	188.24
741.342	89.94
741.528	139.09
741.713	247.63
741.898	194.39
742.084	175.95
742.269	153.43
742.454	198.48
742.639	239.44
742.824	206.67
743.01	247.63
743.195	395.09
743.38	165.71
743.565	286.54
743.75	253.78
743.935	317.26
744.12	284.5
744.305	122.71
744.49	216.91
744.675	184.15
744.86	194.39
745.045	233.3
745.23	221.01
745.415	190.29
745.6	296.78
745.785	180.05
745.97	231.25
746.155	243.54
746.34	266.07
746.525	261.97
746.71	253.78
746.895	26.45
747.079	112.47
747.264	169.81
747.449	198.48
747.634	247.63
747.819	186.19
748.003	225.11
748.188	108.37
748.373	171.86
748.557	110.42
748.742	223.06
748.927	130.9
749.111	75.6
749.296	175.95
749.481	266.07
749.665	116.56
749.85	186.19
750.034	243.54
750.219	128.85
750.404	137.04
750.588	239.44
750.773	65.36
750.957	208.72
751.141	165.71
751.326	206.67
751.51	79.7
751.695	261.97
751.879	169.81
752.064	290.64
752.248	100.18
752.432	235.35
752.617	192.34
752.801	278.35
752.985	63.32
753.17	290.64
753.354	190.29
753.538	126.8
753.722	149.33
753.907	157.52
754.091	87.89
754.275	243.54
754.459	44.88
754.643	143.19
754.828	130.9
755.012	178
755.196	120.66
755.38	130.9
755.564	132.95
755.748	118.61
755.932	169.81
756.116	163.67
756.3	243.54
756.484	165.71
756.668	159.57
756.852	34.64
757.036	30.55
757.22	32.6
757.404	116.56
757.588	16.21
757.772	198.48
757.956	130.9
758.14	208.72
758.323	46.93
758.507	153.43
758.691	130.9
758.875	173.91
759.059	247.63
759.242	36.69
759.426	108.37
759.61	135
759.794	61.27
759.977	204.63
760.161	352.08
760.345	257.87
760.528	42.84
760.712	120.66
760.895	155.47
761.079	79.7
761.263	30.55
761.446	65.36
761.63	83.8
761.813	212.82
761.997	59.22
762.18	77.65
762.364	104.28
762.547	14.17
762.731	38.74
762.914	42.84
763.098	100.18
763.281	34.64
763.464	110.42
763.648	44.88
763.831	112.47
764.015	61.27
764.198	194.39
764.381	112.47
764.564	155.47
764.748	63.32
764.931	40.79
765.114	116.56
765.297	75.6
765.481	32.6
765.664	149.33
765.847	85.84
766.03	180.05
766.213	36.69
766.397	83.8
766.58	51.03
766.763	81.75
766.946	5.97
767.129	83.8
767.312	34.64
767.495	38.74
767.678	30.55
767.861	71.51
768.044	116.56
768.227	91.99
768.41	96.08
768.593	61.27
768.776	73.56
768.959	-12.46
769.142	91.99
769.324	36.69
769.507	-14.51
769.69	28.5
769.873	3.93
770.056	266.07
770.239	73.56
770.421	186.19
770.604	120.66
770.787	30.55
770.97	94.04
771.152	61.27
771.335	53.08
771.518	34.64
771.7	132.95
771.883	126.8
772.066	28.5
772.248	153.43
772.431	53.08
772.613	159.57
772.796	69.46
772.978	128.85
773.161	208.72
773.343	77.65
773.526	38.74
773.708	-34.99
773.891	-30.89
774.073	34.64
774.256	20.31
774.438	212.82
774.621	81.75
774.803	81.75
774.985	-24.75
775.168	87.89
775.35	59.22
775.532	38.74
775.715	-24.75
775.897	40.79
776.079	16.21
776.261	61.27
776.444	48.98
776.626	118.61
776.808	20.31
776.99	-90.28
777.173	10.07
777.355	73.56
777.537	73.56
777.719	69.46
777.901	-24.75
778.083	-67.75
778.265	-10.41
778.447	130.9
778.629	34.64
778.811	87.89
778.993	73.56
779.175	98.13
779.357	-22.7
779.539	-12.46
779.721	83.8
779.903	169.81
780.085	42.84
780.267	10.07
780.449	59.22
780.631	89.94
780.812	116.56
780.994	79.7
781.176	79.7
781.358	48.98
781.54	94.04
781.721	141.14
781.903	51.03
782.085	120.66
782.267	53.08
782.448	-16.55
782.63	18.26
782.812	46.93
782.993	120.66
783.175	110.42
783.357	-28.84
783.538	141.14
783.72	16.21
783.901	12.12
784.083	73.56
784.264	36.69
784.446	-30.89
784.627	8.02
784.809	102.23
784.99	-16.55
785.172	61.27
785.353	24.4
785.535	69.46
785.716	-12.46
785.897	87.89
786.079	-53.42
786.26	48.98
786.441	141.14
786.623	-55.47
786.804	-16.55
786.985	46.93
787.167	55.12
787.348	24.4
787.529	126.8
787.71	180.05
787.891	75.6
788.073	12.12
788.254	-57.51
788.435	165.71
788.616	-45.23
788.797	46.93
788.978	51.03
789.159	89.94
789.34	114.52
789.522	22.36
789.703	63.32
789.884	51.03
790.065	34.64
790.246	126.8
790.427	-47.27
790.607	89.94
790.788	28.5
790.969	-65.71
791.15	-6.31
791.331	8.02
791.512	-47.27
791.693	-114.86
791.874	20.31
792.054	235.35
792.235	102.23
792.416	-49.32
792.597	-41.13
792.778	67.41
792.958	22.36
793.139	61.27
793.32	57.17
793.5	-14.51
793.681	161.62
793.862	75.6
794.042	53.08
794.223	-49.32
794.404	34.64
794.584	-129.19
794.765	38.74
794.945	-12.46
795.126	96.08
795.306	83.8
795.487	14.17
795.667	-22.7
795.848	130.9
796.028	-10.41
796.209	20.31
796.389	126.8
796.57	71.51
796.75	-65.71
796.93	-10.41
797.111	-59.56
797.291	-67.75
797.471	30.55
797.652	-2.22
797.832	-18.6
798.012	26.45
798.192	55.12
798.373	-49.32
798.553	24.4
798.733	112.47
798.913	-110.76
799.093	-49.32
799.274	79.7
799.454	26.45
799.634	46.93
799.814	102.23
799.994	42.84
800.174	61.27
800.354	-6.31
800.534	-108.71
800.714	71.51
800.894	1.88
801.074	-30.89
801.254	-59.56
801.434	167.76
801.614	-63.66
801.794	-8.36
801.974	1529.66
802.154	34.64
802.334	40.79
802.514	-43.18
802.693	-32.94
802.873	38.74
803.053	122.71
803.233	116.56
803.413	-10.41
803.592	-39.08
803.772	-59.56
803.952	55.12
804.131	-114.86
804.311	44.88
804.491	124.76
804.67	-57.51
804.85	-118.95
805.03	40.79
805.209	108.37
805.389	-32.94
805.568	65.36
805.748	-80.04
805.928	96.08
806.107	94.04
806.287	3.93
806.466	40.79
806.646	-49.32
806.825	-47.27
807.004	-28.84
807.184	34.64
807.363	120.66
807.543	57.17
807.722	-12.46
807.901	112.47
808.081	77.65
808.26	-104.62
808.439	91.99
808.619	100.18
808.798	-47.27
808.977	73.56
809.156	75.6
809.336	20.31
809.515	-0.17
809.694	-12.46
809.873	-47.27
810.052	128.85
810.231	34.64
810.411	-43.18
810.59	122.71
810.769	20.31
810.948	48.98
811.127	-69.8
811.306	5.97
811.485	-16.55
811.664	96.08
811.843	-10.41
812.022	36.69
812.201	32.6
812.38	-65.71
812.559	-77.99
812.737	59.22
812.916	-61.61
813.095	-28.84
813.274	18.26
813.453	3.93
813.632	40.79
813.811	87.89
813.989	-92.33
814.168	28.5
814.347	10.07
814.526	57.17
814.704	165.71
814.883	87.89
815.062	-41.13
815.24	104.28
815.419	-14.51
815.598	-10.41
815.776	-55.47
815.955	22.36
816.133	-153.77
816.312	61.27
816.49	26.45
816.669	5.97
816.847	1.88
817.026	63.32
817.204	22.36
817.383	-28.84
817.561	-67.75
817.74	-18.6
817.918	65.36
818.097	-55.47
818.275	10.07
818.453	51.03
818.632	10.07
818.81	-61.61
818.988	-8.36
819.167	-63.66
819.345	5.97
819.523	53.08
819.701	36.69
819.879	32.6
820.058	63.32
820.236	-26.79
820.414	18.26
820.592	-4.27
820.77	5.97
820.948	-77.99
821.127	-12.46
821.305	-41.13
821.483	-71.85
821.661	132.95
821.839	42.84
822.017	-12.46
822.195	-18.6
822.373	71.51
822.551	-43.18
822.729	102.23
822.907	-69.8
823.085	71.51
823.262	-51.37
823.44	-88.23
823.618	-49.32
823.796	36.69
823.974	-24.75
824.152	38.74
824.329	-14.51
824.507	-20.65
824.685	104.28
824.863	-59.56
825.04	53.08
825.218	30.55
825.396	40.79
825.574	8.02
825.751	57.17
825.929	85.84
826.107	-4.27
826.284	-102.57
826.462	30.55
826.639	-59.56
826.817	-14.51
826.994	-59.56
827.172	-100.52
827.349	98.13
827.527	38.74
827.704	-28.84
827.882	87.89
828.059	8.02
828.237	10.07
828.414	44.88
828.591	-104.62
828.769	77.65
828.946	-137.38
829.124	48.98
829.301	126.8
829.478	-2.22
829.655	51.03
829.833	-34.99
830.01	-94.38
830.187	104.28
830.364	57.17
830.542	-45.23
830.719	104.28
830.896	12.12
831.073	26.45
831.25	-12.46
831.427	87.89
831.604	-69.8
831.782	-4.27
831.959	67.41
832.136	42.84
832.313	40.79
832.49	-28.84
832.667	-14.51
832.844	-86.19
833.021	57.17
833.198	44.88
833.374	57.17
833.551	55.12
833.728	-20.65
833.905	102.23
834.082	-75.95
834.259	34.64
834.436	53.08
834.612	-4.27
834.789	77.65
834.966	-20.65
835.143	77.65
835.319	-96.43
835.496	104.28
835.673	-14.51
835.85	149.33
836.026	112.47
836.203	36.69
836.38	-71.85
836.556	10.07
836.733	-125.1
836.909	118.61
837.086	-45.23
837.262	-69.8
837.439	32.6
837.616	-116.9
837.792	42.84
837.968	-4.27
838.145	-69.8
838.321	18.26
838.498	61.27
838.674	32.6
838.851	22.36
839.027	10.07
839.203	38.74
839.38	1.88
839.556	-39.08
839.732	67.41
839.909	-2.22
840.085	73.56
840.261	-86.19
840.437	-6.31
840.614	-53.42
840.79	28.5
840.966	18.26
841.142	30.55
841.318	-118.95
841.494	65.36
841.671	46.93
841.847	-32.94
842.023	-51.37
842.199	24.4
842.375	118.61
842.551	-145.58
842.727	-47.27
842.903	126.8
843.079	-143.53
843.255	139.09
843.431	-14.51
843.607	14.17
843.783	-90.28
843.959	14.17
844.134	-63.66
844.31	20.31
844.486	-61.61
844.662	-112.81
844.838	5.97
845.013	20.31
845.189	-32.94
845.365	87.89
845.541	-20.65
845.716	16.21
845.892	69.46
846.068	-53.42
846.244	-71.85
846.419	-12.46
846.595	-61.61
846.77	-53.42
846.946	77.65
847.122	10.07
847.297	-30.89
847.473	141.14
847.648	-30.89
847.824	-24.75
847.999	-131.24
848.175	-125.1
848.35	71.51
848.526	5.97
848.701	16.21
848.876	79.7
849.052	71.51
849.227	-53.42
849.403	77.65
849.578	42.84
849.753	44.88
849.929	65.36
850.104	-112.81
850.279	48.98
850.454	51.03
850.63	100.18
850.805	-24.75
850.98	51.03
851.155	8.02
851.33	-0.17
851.505	-43.18
851.681	159.57
851.856	-59.56
852.031	-8.36
852.206	-16.55
852.381	-73.9
852.556	34.64
852.731	22.36
852.906	5.97
853.081	26.45
853.256	59.22
853.431	3.93
853.606	-57.51
853.781	-104.62
853.956	-123.05
854.131	48.98
854.305	-65.71
854.48	-67.75
854.655	10.07
854.83	-8.36
855.005	-8.36
855.18	46.93
855.354	-30.89
855.529	-12.46
855.704	-22.7
855.879	24.4
856.053	-34.99
856.228	18.26
856.403	-57.51
856.577	-47.27
856.752	-149.67
856.926	-75.95
857.101	46.93
857.276	-32.94
857.45	44.88
857.625	61.27
857.799	38.74
857.974	3.93
858.148	-110.76
858.323	-49.32
858.497	10.07
858.672	-59.56
858.846	-63.66
859.02	-0.17
859.195	-90.28
859.369	-2.22
859.543	32.6
859.718	18.26
859.892	61.27
860.066	85.84
860.241	-73.9
860.415	-69.8
860.589	-57.51
860.763	-12.46
860.938	-92.33
861.112	16.21
861.286	-12.46
861.46	22.36
861.634	-8.36
861.808	96.08
861.982	-84.14
862.157	-106.67
862.331	-10.41
862.505	-26.79
862.679	-77.99
862.853	-32.94
863.027	-18.6
863.201	65.36
863.375	-22.7
863.549	-20.65
863.722	-18.6
863.896	108.37
864.07	32.6
864.244	36.69
864.418	42.84
864.592	5.97
864.766	48.98
864.939	18.26
865.113	-30.89
865.287	114.52
865.461	-16.55
865.634	71.51
865.808	-22.7
865.982	-92.33
866.156	-71.85
866.329	-63.66
866.503	10.07
866.676	65.36
866.85	-12.46
867.024	-26.79
867.197	28.5
867.371	-26.79
867.544	-0.17
867.718	-125.1
867.891	-0.17
868.065	-84.14
868.238	44.88
868.412	100.18
868.585	-47.27
868.759	-71.85
868.932	-53.42
869.105	-94.38
869.279	-12.46
869.452	-16.55
869.625	-24.75
869.799	26.45
869.972	-129.19
870.145	-6.31
870.319	44.88
870.492	-39.08
870.665	-6.31
870.838	-45.23
871.011	-114.86
871.185	-61.61
871.358	24.4
871.531	24.4
871.704	-47.27
871.877	-14.51
872.05	-18.6
872.223	-88.23
872.396	112.47
872.569	143.19
872.742	-104.62
872.915	34.64
873.088	-22.7
873.261	-63.66
873.434	59.22
873.607	14.17
873.78	96.08
873.953	-84.14
874.126	-45.23
874.299	65.36
874.471	-45.23
874.644	-18.6
874.817	1.88
874.99	169.81
875.163	-43.18
875.335	14.17
875.508	-49.32
875.681	159.57
875.853	-90.28
876.026	-24.75
876.199	65.36
876.371	8.02
876.544	-4.27
876.717	71.51
876.889	-67.75
877.062	36.69
877.234	-18.6
877.407	-22.7
877.579	8.02
877.752	32.6
877.924	75.6
878.097	14.17
878.269	5.97
878.442	-37.03
878.614	106.32
878.786	-24.75
878.959	16.21
879.131	-10.41
879.303	-65.71
879.476	-16.55
879.648	67.41
879.82	-30.89
879.993	-37.03
880.165	-57.51
880.337	-102.57
880.509	-57.51
880.681	-131.24
880.854	10.07
881.026	71.51
881.198	149.33
881.37	-22.7
881.542	-24.75
881.714	-0.17
881.886	48.98
882.058	12.12
882.23	-12.46
882.402	-59.56
882.574	32.6
882.746	57.17
882.918	122.71
883.09	40.79
883.262	-10.41
883.434	-30.89
883.606	-26.79
883.778	34.64
883.95	165.71
884.122	-65.71
884.293	-37.03
884.465	71.51
884.637	71.51
884.809	-84.14
884.98	-12.46
885.152	34.64
885.324	63.32
885.496	-129.19
885.667	38.74
885.839	-26.79
886.011	61.27
886.182	55.12
886.354	53.08
886.525	-16.55
886.697	-8.36
886.869	-71.85
887.04	-24.75
887.212	184.15
887.383	89.94
887.555	16.21
887.726	-53.42
887.897	-61.61
888.069	5.97
888.24	94.04
888.412	30.55
888.583	40.79
888.754	26.45
888.926	-121
889.097	-98.47
889.268	-94.38
889.44	42.84
889.611	-92.33
889.782	-104.62
889.953	-94.38
890.125	149.33
890.296	-112.81
890.467	-22.7
890.638	-65.71
890.809	-16.55
890.98	-57.51
891.151	5.97
891.323	67.41
891.494	-14.51
891.665	59.22
891.836	-4.27
892.007	12.12
892.178	20.31
892.349	-6.31
892.52	-84.14
892.691	59.22
892.862	-104.62
893.032	-98.47
893.203	22.36
893.374	-37.03
893.545	59.22
893.716	5.97
893.887	79.7
894.057	-4.27
894.228	-10.41
894.399	-4.27
894.57	71.51
894.74	-6.31
894.911	69.46
895.082	-20.65
895.253	-80.04
895.423	-12.46
895.594	16.21
895.764	-10.41
895.935	-100.52
896.106	3.93
896.276	-88.23
896.447	-75.95
896.617	-80.04
896.788	-108.71
896.958	-14.51
897.129	-30.89
897.299	-37.03
897.47	130.9
897.64	65.36
897.81	-30.89
897.981	28.5
898.151	-24.75
898.322	-53.42
898.492	-22.7
898.662	-59.56
898.832	-96.43
899.003	-37.03
899.173	98.13
899.343	-41.13
899.513	-102.57
