Data from USB4F104151__182__11-05-08-234.txt Node

Date: Wed Feb 26 11:05:08 EST 2025
User: louis
Spectrometer: USB4F10415
Trigger mode: 4
Integration Time (sec): 1.000000E-1
Scans to average: 1
Electric dark correction enabled: true
Nonlinearity correction enabled: false
Boxcar width: 0
XAxis mode: Wavelengths
Number of Pixels in Spectrum: 3648
>>>>>Begin Spectral Data<<<<<
178.204	-416.42
178.424	-416.42
178.644	-416.42
178.864	-367.27
179.084	-393.89
179.304	52.56
179.524	-76.46
179.744	27.99
179.964	87.38
180.184	68.95
180.404	83.28
180.624	-55.98
180.844	58.71
181.064	-101.03
181.283	-31.4
181.503	-82.6
181.723	-31.4
181.943	-146.09
182.163	89.43
182.383	-68.27
182.602	81.24
182.822	204.11
183.042	128.34
183.262	-10.92
183.482	36.18
183.701	52.56
183.921	56.66
184.141	-21.16
184.361	163.15
184.58	25.94
184.8	44.37
185.02	5.46
185.239	68.95
185.459	48.47
185.679	152.92
185.898	-66.22
186.118	56.66
186.338	81.24
186.557	150.87
186.777	-37.55
186.997	27.99
187.216	52.56
187.436	154.96
187.655	75.09
187.875	124.24
188.095	25.94
188.314	107.86
188.534	124.24
188.753	27.99
188.973	89.43
189.192	154.96
189.412	15.7
189.631	46.42
189.851	56.66
190.07	167.25
190.29	15.7
190.509	-0.68
190.729	73.04
190.948	130.39
191.168	228.69
191.387	56.66
191.607	7.51
191.826	120.15
192.045	-19.11
192.265	83.28
192.484	95.57
192.704	15.7
192.923	-105.13
193.142	120.15
193.362	140.63
193.581	62.8
193.8	142.68
194.02	25.94
194.239	93.52
194.458	120.15
194.678	-49.83
194.897	15.7
195.116	87.38
195.335	120.15
195.555	38.23
195.774	17.75
195.993	81.24
196.212	7.51
196.432	58.71
196.651	-0.68
196.87	89.43
197.089	283.99
197.308	66.9
197.528	124.24
197.747	-31.4
197.966	83.28
198.185	144.72
198.404	-21.16
198.623	71
198.842	71
199.062	111.96
199.281	73.04
199.5	89.43
199.719	75.09
199.938	89.43
200.157	60.76
200.376	132.44
200.595	107.86
200.814	138.58
201.033	54.61
201.252	120.15
201.471	83.28
201.69	130.39
201.909	95.57
202.128	136.53
202.347	122.2
202.566	52.56
202.785	-64.17
203.004	-51.88
203.223	218.45
203.442	62.8
203.661	-68.27
203.879	103.76
204.098	200.02
204.317	-19.11
204.536	118.1
204.755	148.82
204.974	159.06
205.193	62.8
205.411	111.96
205.63	7.51
205.849	40.28
206.068	36.18
206.287	21.85
206.505	111.96
206.724	21.85
206.943	34.13
207.162	25.94
207.381	120.15
207.599	36.18
207.818	40.28
208.037	-19.11
208.255	81.24
208.474	68.95
208.693	62.8
208.911	56.66
209.13	81.24
209.349	73.04
209.567	83.28
209.786	68.95
210.005	83.28
210.223	73.04
210.442	-123.56
210.661	60.76
210.879	66.9
211.098	68.95
211.316	81.24
211.535	77.14
211.753	64.85
211.972	64.85
212.191	-45.74
212.409	17.75
212.628	179.54
212.846	60.76
213.065	60.76
213.283	150.87
213.502	38.23
213.72	79.19
213.938	48.47
214.157	25.94
214.375	97.62
214.594	71
214.812	107.86
215.031	50.52
215.249	23.89
215.467	48.47
215.686	-8.87
215.904	138.58
216.122	56.66
216.341	42.32
216.559	169.3
216.778	40.28
216.996	97.62
217.214	-25.26
217.432	64.85
217.651	3.41
217.869	77.14
218.087	44.37
218.306	54.61
218.524	1.37
218.742	52.56
218.96	120.15
219.179	89.43
219.397	30.04
219.615	247.12
219.833	118.1
220.051	-68.27
220.27	132.44
220.488	173.39
220.706	111.96
220.924	56.66
221.142	-19.11
221.36	54.61
221.578	99.67
221.796	36.18
222.015	91.48
222.233	15.7
222.451	175.44
222.669	-41.64
222.887	116.05
223.105	13.65
223.323	68.95
223.541	-60.07
223.759	46.42
223.977	-12.97
224.195	163.15
224.413	114
224.631	27.99
224.849	97.62
225.067	191.83
225.285	3.41
225.503	9.56
225.721	-115.37
225.939	48.47
226.157	68.95
226.375	269.65
226.592	64.85
226.81	50.52
227.028	91.48
227.246	197.97
227.464	-19.11
227.682	173.39
227.9	126.29
228.117	48.47
228.335	34.13
228.553	34.13
228.771	62.8
228.989	11.61
229.206	81.24
229.424	13.65
229.642	62.8
229.86	-21.16
230.077	105.81
230.295	42.32
230.513	128.34
230.731	105.81
230.948	122.2
231.166	171.35
231.384	-45.74
231.601	-21.16
231.819	193.87
232.037	15.7
232.254	-17.07
232.472	52.56
232.689	-10.92
232.907	128.34
233.125	-0.68
233.342	-17.07
233.56	-6.83
233.777	21.85
233.995	-45.74
234.213	118.1
234.43	122.2
234.648	75.09
234.865	-29.35
235.083	-2.73
235.3	58.71
235.518	38.23
235.735	87.38
235.953	83.28
236.17	21.85
236.388	30.04
236.605	1.37
236.822	38.23
237.04	146.77
237.257	95.57
237.475	13.65
237.692	7.51
237.909	-25.26
238.127	75.09
238.344	105.81
238.562	109.91
238.779	30.04
238.996	-64.17
239.214	89.43
239.431	58.71
239.648	-8.87
239.865	126.29
240.083	97.62
240.3	-2.73
240.517	7.51
240.735	9.56
240.952	122.2
241.169	91.48
241.386	116.05
241.603	9.56
241.821	-94.89
242.038	140.63
242.255	171.35
242.472	-49.83
242.689	134.48
242.907	71
243.124	19.8
243.341	42.32
243.558	107.86
243.775	-0.68
243.992	-29.35
244.209	99.67
244.426	208.21
244.643	60.76
244.86	19.8
245.078	71
245.295	114
245.512	40.28
245.729	-53.93
245.946	50.52
246.163	126.29
246.38	-2.73
246.597	89.43
246.814	118.1
247.031	75.09
247.248	38.23
247.464	150.87
247.681	44.37
247.898	21.85
248.115	83.28
248.332	-10.92
248.549	85.33
248.766	122.2
248.983	101.72
249.2	23.89
249.417	128.34
249.633	-2.73
249.85	52.56
250.067	9.56
250.284	56.66
250.501	71
250.717	91.48
250.934	15.7
251.151	-17.07
251.368	46.42
251.585	87.38
251.801	30.04
252.018	-23.21
252.235	134.48
252.451	48.47
252.668	-15.02
252.885	126.29
253.102	93.52
253.318	23.89
253.535	3.41
253.752	-4.78
253.968	-10.92
254.185	36.18
254.401	36.18
254.618	77.14
254.835	-15.02
255.051	111.96
255.268	62.8
255.484	48.47
255.701	85.33
255.917	73.04
256.134	-60.07
256.351	87.38
256.567	-68.27
256.784	68.95
257	13.65
257.217	56.66
257.433	144.72
257.65	60.76
257.866	148.82
258.082	-111.27
258.299	-41.64
258.515	36.18
258.732	56.66
258.948	-12.97
259.165	101.72
259.381	-21.16
259.597	134.48
259.814	79.19
260.03	-25.26
260.246	124.24
260.463	91.48
260.679	83.28
260.895	38.23
261.112	52.56
261.328	3.41
261.544	-21.16
261.761	85.33
261.977	17.75
262.193	-4.78
262.409	148.82
262.626	68.95
262.842	56.66
263.058	46.42
263.274	99.67
263.49	25.94
263.707	32.08
263.923	60.76
264.139	-15.02
264.355	66.9
264.571	148.82
264.787	91.48
265.004	214.35
265.22	73.04
265.436	-29.35
265.652	48.47
265.868	71
266.084	-12.97
266.3	66.9
266.516	-45.74
266.732	124.24
266.948	38.23
267.164	-6.83
267.38	81.24
267.596	15.7
267.812	171.35
268.028	152.92
268.244	73.04
268.46	42.32
268.676	19.8
268.892	77.14
269.108	-68.27
269.324	-55.98
269.54	-35.5
269.756	85.33
269.972	17.75
270.188	148.82
270.403	-49.83
270.619	50.52
270.835	9.56
271.051	107.86
271.267	-2.73
271.483	85.33
271.698	66.9
271.914	64.85
272.13	66.9
272.346	-15.02
272.562	15.7
272.777	134.48
272.993	60.76
273.209	-37.55
273.425	157.01
273.64	-64.17
273.856	120.15
274.072	-60.07
274.287	-27.31
274.503	77.14
274.719	34.13
274.934	17.75
275.15	-66.22
275.366	21.85
275.581	17.75
275.797	99.67
276.012	85.33
276.228	23.89
276.444	62.8
276.659	85.33
276.875	-33.45
277.09	1.37
277.306	-4.78
277.521	66.9
277.737	32.08
277.952	81.24
278.168	56.66
278.383	3.41
278.599	1.37
278.814	75.09
279.03	66.9
279.245	157.01
279.461	15.7
279.676	116.05
279.892	-53.93
280.107	-4.78
280.322	-19.11
280.538	54.61
280.753	-8.87
280.969	93.52
281.184	-12.97
281.399	126.29
281.615	17.75
281.83	38.23
282.045	-74.41
282.26	34.13
282.476	-47.79
282.691	75.09
282.906	68.95
283.122	27.99
283.337	-31.4
283.552	64.85
283.767	11.61
283.983	7.51
284.198	1.37
284.413	159.06
284.628	101.72
284.843	116.05
285.058	60.76
285.274	-70.31
285.489	13.65
285.704	46.42
285.919	-6.83
286.134	11.61
286.349	7.51
286.564	36.18
286.779	38.23
286.995	-53.93
287.21	-41.64
287.425	163.15
287.64	-8.87
287.855	154.96
288.07	-37.55
288.285	163.15
288.5	97.62
288.715	95.57
288.93	-115.37
289.145	42.32
289.36	85.33
289.575	36.18
289.79	154.96
290.004	34.13
290.219	99.67
290.434	-121.51
290.649	-35.5
290.864	-10.92
291.079	-6.83
291.294	66.9
291.509	111.96
291.724	36.18
291.938	46.42
292.153	114
292.368	75.09
292.583	32.08
292.798	103.76
293.012	103.76
293.227	95.57
293.442	54.61
293.657	171.35
293.871	120.15
294.086	40.28
294.301	177.49
294.516	144.72
294.73	159.06
294.945	7.51
295.16	38.23
295.374	79.19
295.589	130.39
295.804	-8.87
296.018	21.85
296.233	130.39
296.447	56.66
296.662	-51.88
296.877	163.15
297.091	79.19
297.306	-19.11
297.52	17.75
297.735	62.8
297.949	93.52
298.164	75.09
298.378	71
298.593	-131.75
298.807	-27.31
299.022	152.92
299.236	154.96
299.451	5.46
299.665	107.86
299.88	23.89
300.094	11.61
300.309	60.76
300.523	3.41
300.737	19.8
300.952	11.61
301.166	17.75
301.381	5.46
301.595	15.7
301.809	27.99
302.024	1.37
302.238	-35.5
302.452	138.58
302.667	36.18
302.881	114
303.095	60.76
303.309	97.62
303.524	34.13
303.738	17.75
303.952	44.37
304.166	48.47
304.381	-117.42
304.595	126.29
304.809	-45.74
305.023	32.08
305.237	17.75
305.452	44.37
305.666	154.96
305.88	140.63
306.094	101.72
306.308	103.76
306.522	58.71
306.736	77.14
306.95	79.19
307.164	48.47
307.379	62.8
307.593	122.2
307.807	146.77
308.021	124.24
308.235	89.43
308.449	-62.12
308.663	79.19
308.877	247.12
309.091	77.14
309.305	95.57
309.519	-37.55
309.733	83.28
309.947	-60.07
310.161	9.56
310.374	89.43
310.588	95.57
310.802	21.85
311.016	60.76
311.23	97.62
311.444	-25.26
311.658	116.05
311.872	128.34
312.085	128.34
312.299	169.3
312.513	99.67
312.727	130.39
312.941	-27.31
313.154	91.48
313.368	-4.78
313.582	42.32
313.796	62.8
314.009	64.85
314.223	132.44
314.437	54.61
314.651	89.43
314.864	-31.4
315.078	3.41
315.292	19.8
315.505	-27.31
315.719	52.56
315.933	77.14
316.146	50.52
316.36	-72.36
316.573	30.04
316.787	103.76
317.001	38.23
317.214	-6.83
317.428	1.37
317.641	-27.31
317.855	50.52
318.068	50.52
318.282	81.24
318.495	167.25
318.709	101.72
318.922	97.62
319.136	148.82
319.349	169.3
319.563	-0.68
319.776	40.28
319.99	-41.64
320.203	56.66
320.417	46.42
320.63	101.72
320.843	189.78
321.057	163.15
321.27	40.28
321.483	97.62
321.697	138.58
321.91	75.09
322.124	60.76
322.337	73.04
322.55	-29.35
322.763	56.66
322.977	21.85
323.19	19.8
323.403	73.04
323.617	75.09
323.83	175.44
324.043	40.28
324.256	36.18
324.469	-10.92
324.683	75.09
324.896	-31.4
325.109	40.28
325.322	-29.35
325.535	32.08
325.748	95.57
325.962	-17.07
326.175	7.51
326.388	42.32
326.601	165.2
326.814	34.13
327.027	25.94
327.24	202.07
327.453	-82.6
327.666	126.29
327.879	146.77
328.092	146.77
328.305	99.67
328.518	17.75
328.731	-23.21
328.944	68.95
329.157	62.8
329.37	7.51
329.583	157.01
329.796	173.39
330.009	-27.31
330.222	116.05
330.435	93.52
330.648	17.75
330.861	107.86
331.073	13.65
331.286	138.58
331.499	77.14
331.712	-49.83
331.925	25.94
332.138	77.14
332.35	87.38
332.563	95.57
332.776	159.06
332.989	-0.68
333.202	9.56
333.414	68.95
333.627	-0.68
333.84	77.14
334.053	68.95
334.265	23.89
334.478	-60.07
334.691	27.99
334.903	5.46
335.116	21.85
335.329	-23.21
335.541	19.8
335.754	208.21
335.966	7.51
336.179	62.8
336.392	30.04
336.604	40.28
336.817	62.8
337.029	13.65
337.242	17.75
337.454	167.25
337.667	46.42
337.88	146.77
338.092	81.24
338.305	66.9
338.517	-19.11
338.729	148.82
338.942	148.82
339.154	-47.79
339.367	-8.87
339.579	95.57
339.792	-8.87
340.004	93.52
340.217	-6.83
340.429	73.04
340.641	30.04
340.854	-45.74
341.066	64.85
341.278	187.73
341.491	189.78
341.703	-21.16
341.915	-29.35
342.128	75.09
342.34	42.32
342.552	-23.21
342.764	144.72
342.977	13.65
343.189	19.8
343.401	93.52
343.613	-33.45
343.826	116.05
344.038	-12.97
344.25	25.94
344.462	3.41
344.674	165.2
344.886	101.72
345.099	34.13
345.311	173.39
345.523	15.7
345.735	-58.03
345.947	114
346.159	1.37
346.371	64.85
346.583	81.24
346.795	214.35
347.007	15.7
347.219	124.24
347.431	-35.5
347.643	152.92
347.855	42.32
348.067	124.24
348.279	-62.12
348.491	3.41
348.703	183.63
348.915	52.56
349.127	7.51
349.339	122.2
349.551	93.52
349.763	107.86
349.975	-19.11
350.187	103.76
350.399	114
350.61	122.2
350.822	-21.16
351.034	128.34
351.246	64.85
351.458	34.13
351.669	44.37
351.881	138.58
352.093	60.76
352.305	142.68
352.517	103.76
352.728	152.92
352.94	34.13
353.152	107.86
353.363	46.42
353.575	116.05
353.787	159.06
353.999	46.42
354.21	165.2
354.422	-31.4
354.633	73.04
354.845	73.04
355.057	73.04
355.268	54.61
355.48	126.29
355.692	34.13
355.903	30.04
356.115	25.94
356.326	-80.55
356.538	89.43
356.749	124.24
356.961	179.54
357.172	-6.83
357.384	40.28
357.595	218.45
357.807	-31.4
358.018	-68.27
358.23	32.08
358.441	81.24
358.653	56.66
358.864	-10.92
359.075	-78.51
359.287	75.09
359.498	91.48
359.709	50.52
359.921	19.8
360.132	58.71
360.344	85.33
360.555	58.71
360.766	77.14
360.977	27.99
361.189	132.44
361.4	25.94
361.611	89.43
361.823	140.63
362.034	150.87
362.245	-6.83
362.456	3.41
362.667	38.23
362.879	-33.45
363.09	79.19
363.301	150.87
363.512	9.56
363.723	44.37
363.935	30.04
364.146	85.33
364.357	-35.5
364.568	38.23
364.779	-45.74
364.99	116.05
365.201	7.51
365.412	81.24
365.623	-2.73
365.834	99.67
366.045	-8.87
366.256	109.91
366.467	68.95
366.678	44.37
366.889	-70.31
367.1	42.32
367.311	79.19
367.522	54.61
367.733	97.62
367.944	122.2
368.155	30.04
368.366	138.58
368.577	99.67
368.788	140.63
368.999	36.18
369.209	21.85
369.42	183.63
369.631	122.2
369.842	77.14
370.053	-12.97
370.264	77.14
370.474	-47.79
370.685	150.87
370.896	36.18
371.107	128.34
371.317	64.85
371.528	93.52
371.739	60.76
371.95	142.68
372.16	71
372.371	30.04
372.582	-8.87
372.792	54.61
373.003	32.08
373.214	89.43
373.424	52.56
373.635	-23.21
373.846	77.14
374.056	142.68
374.267	99.67
374.477	89.43
374.688	-43.69
374.898	95.57
375.109	40.28
375.319	36.18
375.53	99.67
375.74	95.57
375.951	114
376.161	138.58
376.372	95.57
376.582	60.76
376.793	124.24
377.003	-0.68
377.214	-15.02
377.424	32.08
377.635	21.85
377.845	36.18
378.055	154.96
378.266	-53.93
378.476	-17.07
378.686	77.14
378.897	73.04
379.107	99.67
379.317	62.8
379.528	-35.5
379.738	171.35
379.948	-62.12
380.158	142.68
380.369	118.1
380.579	89.43
380.789	58.71
380.999	126.29
381.21	132.44
381.42	214.35
381.63	62.8
381.84	116.05
382.05	68.95
382.261	109.91
382.471	111.96
382.681	9.56
382.891	154.96
383.101	83.28
383.311	-4.78
383.521	21.85
383.731	97.62
383.941	71
384.151	85.33
384.361	44.37
384.571	62.8
384.781	87.38
384.991	193.87
385.201	165.2
385.411	118.1
385.621	93.52
385.831	136.53
386.041	118.1
386.251	27.99
386.461	146.77
386.671	23.89
386.881	-8.87
387.091	91.48
387.301	25.94
387.511	-4.78
387.72	60.76
387.93	66.9
388.14	-58.03
388.35	71
388.56	154.96
388.769	146.77
388.979	118.1
389.189	-43.69
389.399	3.41
389.609	111.96
389.818	144.72
390.028	7.51
390.238	11.61
390.447	-25.26
390.657	85.33
390.867	27.99
391.076	-113.32
391.286	107.86
391.496	40.28
391.705	66.9
391.915	165.2
392.125	87.38
392.334	21.85
392.544	111.96
392.753	122.2
392.963	-105.13
393.172	30.04
393.382	-41.64
393.591	212.31
393.801	-49.83
394.01	157.01
394.22	200.02
394.429	19.8
394.639	40.28
394.848	17.75
395.058	120.15
395.267	52.56
395.477	56.66
395.686	83.28
395.895	206.16
396.105	238.93
396.314	132.44
396.524	25.94
396.733	42.32
396.942	204.11
397.152	50.52
397.361	177.49
397.57	30.04
397.78	42.32
397.989	54.61
398.198	161.11
398.407	97.62
398.617	56.66
398.826	-29.35
399.035	42.32
399.244	66.9
399.453	9.56
399.663	103.76
399.872	103.76
400.081	-43.69
400.29	107.86
400.499	19.8
400.708	122.2
400.917	73.04
401.127	21.85
401.336	-35.5
401.545	173.39
401.754	89.43
401.963	126.29
402.172	-90.79
402.381	-8.87
402.59	42.32
402.799	79.19
403.008	187.73
403.217	40.28
403.426	38.23
403.635	-74.41
403.844	38.23
404.053	34.13
404.262	-12.97
404.471	206.16
404.68	56.66
404.888	17.75
405.097	23.89
405.306	48.47
405.515	128.34
405.724	50.52
405.933	116.05
406.142	-21.16
406.35	126.29
406.559	27.99
406.768	60.76
406.977	152.92
407.185	81.24
407.394	89.43
407.603	-4.78
407.812	-6.83
408.02	111.96
408.229	95.57
408.438	30.04
408.646	-72.36
408.855	95.57
409.064	58.71
409.272	21.85
409.481	66.9
409.69	-53.93
409.898	3.41
410.107	144.72
410.315	130.39
410.524	-10.92
410.733	-12.97
410.941	48.47
411.15	116.05
411.358	89.43
411.567	179.54
411.775	93.52
411.984	5.46
412.192	142.68
412.401	15.7
412.609	54.61
412.818	157.01
413.026	101.72
413.234	-12.97
413.443	122.2
413.651	17.75
413.86	75.09
414.068	187.73
414.276	193.87
414.485	-21.16
414.693	204.11
414.901	202.07
415.11	50.52
415.318	36.18
415.526	52.56
415.734	152.92
415.943	64.85
416.151	142.68
416.359	75.09
416.567	97.62
416.776	154.96
416.984	126.29
417.192	177.49
417.4	7.51
417.608	68.95
417.817	-39.59
418.025	136.53
418.233	163.15
418.441	-8.87
418.649	30.04
418.857	107.86
419.065	138.58
419.273	-19.11
419.481	95.57
419.689	17.75
419.897	17.75
420.105	-6.83
420.313	159.06
420.521	212.31
420.729	169.3
420.937	68.95
421.145	-35.5
421.353	226.64
421.561	99.67
421.769	154.96
421.977	27.99
422.185	122.2
422.393	11.61
422.601	99.67
422.809	25.94
423.017	150.87
423.224	23.89
423.432	148.82
423.64	48.47
423.848	126.29
424.056	30.04
424.263	206.16
424.471	-17.07
424.679	185.68
424.887	44.37
425.094	118.1
425.302	58.71
425.51	44.37
425.718	136.53
425.925	71
426.133	1.37
426.341	228.69
426.548	-2.73
426.756	66.9
426.964	146.77
427.171	62.8
427.379	150.87
427.586	146.77
427.794	105.81
428.001	142.68
428.209	175.44
428.417	163.15
428.624	175.44
428.832	42.32
429.039	109.91
429.247	183.63
429.454	161.11
429.662	200.02
429.869	140.63
430.076	138.58
430.284	89.43
430.491	189.78
430.699	23.89
430.906	275.79
431.114	75.09
431.321	93.52
431.528	157.01
431.736	140.63
431.943	152.92
432.15	253.27
432.358	245.07
432.565	191.83
432.772	150.87
432.979	126.29
433.187	181.59
433.394	236.88
433.601	187.73
433.808	243.03
434.016	236.88
434.223	240.98
434.43	195.92
434.637	212.31
434.844	320.85
435.052	232.79
435.259	265.55
435.466	292.18
435.673	228.69
435.88	255.31
436.087	353.62
436.294	316.75
436.501	347.47
436.708	247.12
436.915	320.85
437.122	386.38
437.329	261.46
437.537	326.99
437.743	333.14
437.95	458.06
438.157	433.49
438.364	396.62
438.571	314.7
438.778	408.91
438.985	501.07
439.192	406.86
439.399	462.16
439.606	523.6
439.813	544.08
440.02	634.19
440.227	675.15
440.433	562.51
440.64	587.08
440.847	478.54
441.054	595.28
441.261	716.11
441.467	644.43
441.674	601.42
441.881	757.07
442.088	658.76
442.294	826.7
442.501	806.22
442.708	861.51
442.914	732.49
443.121	804.17
443.328	959.81
443.534	941.38
443.741	871.75
443.948	847.18
444.154	1094.98
444.361	1201.48
444.568	1080.64
444.774	974.15
444.981	982.34
445.187	1299.78
445.394	1209.67
445.6	1166.66
445.807	1242.43
446.013	1224
446.22	1305.92
446.426	1396.03
446.633	1555.77
446.839	1834.3
447.046	1486.14
447.252	1690.94
447.459	1754.43
447.665	1664.32
447.871	1895.74
448.078	2004.28
448.284	2104.63
448.491	2080.05
448.697	2168.12
448.903	2227.51
449.11	2219.32
449.316	2266.42
449.522	2512.18
449.728	2567.47
449.935	2667.82
450.141	2653.48
450.347	2977.06
450.553	2815.27
450.76	2874.67
450.966	3046.69
451.172	3142.95
451.378	3351.84
451.584	3364.13
451.791	3577.12
451.997	3663.13
452.203	3749.15
452.409	3839.26
452.615	4164.89
452.821	3919.13
453.027	3968.28
453.233	4500.75
453.44	4490.51
453.646	4652.3
453.852	4994.31
454.058	5035.27
454.264	5197.06
454.47	5575.94
454.676	5618.94
454.882	6175.99
455.088	5934.33
455.294	6102.26
455.5	6606.06
455.705	6999.27
455.911	6890.73
456.117	7128.3
456.323	7300.33
456.529	7288.04
456.735	8078.55
456.941	8150.23
457.147	8506.58
457.352	8916.17
457.558	9223.37
457.764	9706.69
457.97	9833.66
458.176	10284.22
458.381	10734.77
458.587	11029.68
458.793	11586.72
458.999	11330.73
459.204	12958.86
459.41	13331.59
459.616	13157.52
459.821	14003.33
460.027	14447.74
460.233	15268.97
460.438	15182.96
460.644	16432.22
460.85	16440.41
461.055	16979.03
461.261	17812.55
461.466	17669.19
461.672	18039.87
461.878	19950.63
462.083	19893.29
462.289	20169.76
462.494	20978.71
462.7	21079.06
462.905	21476.37
463.111	22914.04
463.316	24138.72
463.522	24726.49
463.727	25422.8
463.932	26561.47
464.138	27159.48
464.343	28371.88
464.549	28650.4
464.754	30540.68
464.959	31316.86
465.165	32129.9
465.37	32035.69
465.575	31796.08
465.781	34167.63
465.986	35058.49
466.191	34300.75
466.397	34599.75
466.602	34118.48
466.807	35545.91
467.012	36592.42
467.218	36920.1
467.423	36872.99
467.628	38517.51
467.833	40217.33
468.038	39310.08
468.244	38105.87
468.449	40829.67
468.654	39879.41
468.859	39543.55
469.064	40133.36
469.269	38552.33
469.474	39064.32
469.679	40471.28
469.885	38923.01
470.09	39856.89
470.295	39899.89
470.5	38734.6
470.705	39219.97
470.91	38146.83
471.115	37665.56
471.32	38368.01
471.525	38007.57
471.73	37241.63
471.935	37077.79
472.139	35582.77
472.344	35470.14
472.549	35443.51
472.754	34571.08
472.959	34054.99
473.164	32498.53
473.369	32289.64
473.574	33336.15
473.778	32445.29
473.983	31697.78
474.188	31501.17
474.393	29643.66
474.598	30034.83
474.802	29524.88
475.007	28636.06
475.212	28361.64
475.417	27208.63
475.621	26962.87
475.826	26817.47
476.031	26192.84
476.235	25738.19
476.44	25752.52
476.645	24841.18
476.849	24677.34
477.054	24255.46
477.259	23780.33
477.463	23553.01
477.668	22987.77
477.872	23059.45
478.077	22428.67
478.282	21885.96
478.486	21677.07
478.691	21488.65
478.895	21169.17
479.1	21244.95
479.304	20876.31
479.509	20454.43
479.713	20392.99
479.918	19895.33
480.122	19545.13
480.326	19739.69
480.531	19706.92
480.735	19293.23
480.94	19207.22
481.144	19680.3
481.348	18496.57
481.553	18842.68
481.757	18402.36
481.961	18654.26
482.166	18574.39
482.37	18490.43
482.574	17886.28
482.778	18138.18
482.983	18553.91
483.187	17853.51
483.391	17667.14
483.595	17556.55
483.8	17284.17
484.004	17226.83
484.208	17228.88
484.412	16862.29
484.616	16761.94
484.821	16329.82
485.025	16114.78
485.229	16299.1
485.433	16090.21
485.637	15742.05
485.841	15637.61
486.045	15221.87
486.249	15406.19
486.453	15033.46
486.657	14890.1
486.861	14572.66
487.065	14038.14
487.269	14099.58
487.473	13487.24
487.677	13970.56
487.881	13714.56
488.085	13372.55
488.289	12905.62
488.493	12846.23
488.697	12678.29
488.901	12137.63
489.105	12002.46
489.309	12004.51
489.512	11832.48
489.716	11340.97
489.92	11357.35
490.124	11003.05
490.328	11031.72
490.531	10892.46
490.735	10587.32
490.939	10482.87
491.143	10118.33
491.346	10075.32
491.55	9972.93
491.754	9643.2
491.958	9538.76
492.161	9329.86
492.365	9239.75
492.569	9028.81
492.772	8752.34
492.976	8836.3
493.18	8613.07
493.383	8522.96
493.587	8582.35
493.79	8639.7
493.994	8244.44
494.197	8166.62
494.401	8053.98
494.605	7884
494.808	8086.75
495.012	8049.88
495.215	7937.24
495.419	7769.31
495.622	7679.2
495.825	7703.78
496.029	7494.88
496.232	7699.68
496.436	7818.46
496.639	7658.72
496.843	7503.07
497.046	7333.09
497.249	7738.59
497.453	7611.62
497.656	7517.41
497.859	7609.57
498.063	7546.08
498.266	7462.12
498.469	7541.99
498.673	7474.4
498.876	7550.18
499.079	7664.86
499.282	7552.23
499.485	8060.12
499.689	7611.62
499.892	7859.42
500.095	7554.27
500.298	7797.98
500.501	7838.94
500.705	8107.23
500.908	7974.11
501.111	8146.14
501.314	8187.1
501.517	8424.66
501.72	8090.84
501.923	8162.52
502.126	8309.97
502.329	8781.01
502.532	8645.84
502.735	8576.21
502.938	9041.1
503.141	8862.93
503.344	8867.02
503.547	9225.42
503.75	9264.33
503.953	9278.66
504.156	9616.58
504.359	9495.75
504.562	9702.59
504.765	9911.49
504.968	9923.77
505.17	9985.21
505.373	10161.34
505.576	10521.78
505.779	10869.94
505.982	10585.27
506.185	10927.28
506.387	10937.52
506.59	11343.02
506.793	11572.39
506.996	11781.28
507.198	12102.81
507.401	12205.21
507.604	12319.9
507.807	12772.5
508.009	12905.62
508.212	12840.08
508.415	13390.98
508.617	13601.93
508.82	13925.5
509.022	13878.4
509.225	14578.81
509.428	14574.71
509.63	15107.18
509.833	15244.4
510.035	15985.76
510.238	15817.83
510.44	16006.24
510.643	16686.17
510.845	17034.32
511.048	16997.46
511.25	17683.53
511.453	18127.94
511.655	18836.53
511.858	19053.62
512.06	19414.06
512.262	19713.06
512.465	19989.54
512.667	20778.01
512.87	21132.31
513.072	21330.96
513.274	22123.52
513.477	22602.75
513.679	22873.08
513.881	23364.59
514.084	23981.03
514.286	24265.7
514.488	24949.72
514.69	26133.45
514.893	26309.57
515.095	26770.36
515.297	27143.1
515.499	27712.43
515.701	28244.9
515.904	29379.48
516.106	29479.83
516.308	30456.71
516.51	31183.74
516.712	31120.25
516.914	32021.36
517.116	32793.44
517.318	33413.98
517.52	33543
517.722	34300.75
517.925	35140.41
518.127	36064.05
518.329	36389.67
518.531	36021.04
518.733	37690.13
518.935	38023.95
519.136	38599.43
519.338	39557.88
519.54	40014.58
519.742	40506.09
519.944	40850.15
520.146	41536.22
520.348	42492.62
520.55	42775.24
520.752	42898.12
520.954	43956.92
521.155	44010.17
521.357	44925.61
521.559	45374.11
521.761	45875.87
521.963	46011.03
522.164	46563.98
522.366	46967.43
522.568	47231.62
522.77	47811.2
522.971	48476.79
523.173	48226.93
523.375	48726.64
523.576	48632.43
523.778	48702.06
523.98	49762.91
524.181	49693.28
524.383	49699.42
524.584	49791.58
524.786	50029.15
524.988	50063.96
525.189	50682.45
525.391	50340.44
525.592	50524.75
525.794	51069.51
525.995	50727.5
526.197	50309.72
526.398	50430.55
526.6	50340.44
526.801	49967.71
527.003	50389.59
527.204	50154.07
527.406	50111.06
527.607	49713.76
527.808	49838.68
528.01	48401.01
528.211	48763.5
528.412	48915.05
528.614	48710.25
528.815	48124.53
529.016	47972.99
529.218	47149.7
529.419	47131.27
529.62	46455.44
529.822	46138.01
530.023	46031.51
530.224	45374.11
530.425	44978.85
530.626	44386.99
530.828	43651.77
531.029	44137.14
531.23	42928.84
531.431	42250.96
531.632	42259.15
531.833	41741.02
532.035	41530.08
532.236	40909.54
532.437	40721.13
532.638	40043.25
532.839	39461.63
533.04	39328.51
533.241	37823.25
533.442	38152.98
533.643	37851.92
533.844	36799.27
534.045	36887.33
534.246	35904.31
534.447	35595.06
534.648	35238.72
534.849	34587.46
535.05	34073.42
535.251	33870.67
535.451	33536.85
535.652	33059.68
535.853	32377.7
536.054	32029.55
536.255	31957.87
536.456	31331.19
536.657	31443.83
536.857	30292.87
537.058	30139.27
537.259	29791.12
537.46	29408.15
537.66	28369.83
537.861	28660.64
538.062	28150.7
538.263	27915.18
538.463	27229.11
538.664	26803.13
538.865	26731.45
539.065	26706.88
539.266	25942.99
539.466	25693.13
539.667	25058.26
539.868	25416.66
540.068	24955.86
540.269	24699.87
540.469	24214.5
540.67	23825.39
540.87	23999.46
541.071	23376.88
541.271	23294.96
541.472	22774.78
541.672	22297.6
541.873	22584.32
542.073	21910.53
542.274	21888.01
542.474	21521.42
542.675	21218.32
542.875	21337.1
543.075	20616.22
543.276	20364.32
543.476	20687.9
543.676	20155.43
543.877	19905.57
544.077	19792.94
544.277	19776.55
544.478	19485.74
544.678	19299.37
544.878	18838.58
545.078	18893.88
545.279	18467.9
545.479	18191.42
545.679	18136.13
545.879	17787.97
546.079	17980.48
546.28	17302.61
546.48	17214.54
546.68	17306.7
546.88	16905.3
547.08	16755.8
547.28	16622.68
547.48	16233.57
547.68	16016.48
547.88	15856.74
548.081	15776.87
548.281	15463.53
548.481	15058.03
548.681	15225.97
548.881	15105.13
549.081	14902.39
549.28	14242.94
549.48	14318.71
549.68	14091.39
549.88	14161.02
550.08	13681.8
550.28	13610.12
550.48	13603.97
550.68	13356.17
550.88	13081.74
551.08	12727.44
551.279	12702.87
551.479	12364.95
551.679	12477.59
551.879	12125.34
552.079	12104.86
552.278	11687.07
552.478	11650.21
552.678	11682.98
552.878	11410.6
553.077	11287.72
553.277	10892.46
553.477	11054.25
553.676	10599.6
553.876	10572.98
554.076	10372.28
554.275	10224.83
554.475	9968.83
554.674	9852.09
554.874	10032.32
555.074	9432.26
555.273	9315.53
555.473	9237.7
555.672	9022.67
555.872	8869.07
556.071	8754.38
556.271	8922.32
556.47	8537.3
556.67	8430.8
556.869	8482
557.068	8056.03
557.268	7898.33
557.467	7881.95
557.667	7797.98
557.866	7736.54
558.065	7359.72
558.265	7429.35
558.464	7261.41
558.663	7202.02
558.863	7017.71
559.062	6950.12
559.261	6733.04
559.461	6864.11
559.66	6483.19
559.859	6384.88
560.058	6391.03
560.258	6202.61
560.457	6247.67
560.656	6264.05
560.855	5950.71
561.054	5881.08
561.253	5831.93
561.453	5733.63
561.652	5772.54
561.851	5784.83
562.05	5461.25
562.249	5276.93
562.448	5303.56
562.647	5121.29
562.846	5141.77
563.045	5049.61
563.244	4965.64
563.443	4930.83
563.642	4777.23
563.841	4789.52
564.04	4707.6
564.239	4648.21
564.438	4545.81
564.637	4525.33
564.836	4510.99
565.035	4289.81
565.234	4277.52
565.432	4250.9
565.631	4097.3
565.83	4304.15
566.029	4121.88
566.228	3904.79
566.427	4291.86
566.625	3792.16
566.824	3861.79
567.023	3976.47
567.222	3689.76
567.42	3786.01
567.619	3687.71
567.818	3456.29
568.016	3783.96
568.215	3489.06
568.414	3517.73
568.612	3409.19
568.811	3300.64
569.01	3372.32
569.208	3202.34
569.407	3206.44
569.605	3210.53
569.804	3108.13
570.002	3075.37
570.201	2991.4
570.4	3147.05
570.598	2768.17
570.797	2907.43
570.995	2766.12
571.193	2714.92
571.392	2889
571.59	2614.57
571.789	2587.95
571.987	2557.23
572.186	2727.21
572.384	2573.61
572.582	2487.6
572.781	2585.9
572.979	2346.29
573.177	2405.68
573.376	2374.96
573.574	2475.31
573.772	2270.51
573.971	2278.71
574.169	2022.71
574.367	2258.23
574.565	2155.83
574.763	2135.35
574.962	2057.53
575.16	1983.8
575.358	1989.94
575.556	2043.19
575.754	1918.26
575.952	1991.99
576.151	1865.02
576.349	1963.32
576.547	1721.66
576.745	1865.02
576.943	1891.64
577.141	1654.08
577.339	1684.8
577.537	1899.83
577.735	1754.43
577.933	1697.08
578.131	1568.06
578.329	1647.93
578.527	1461.57
578.725	1688.89
578.923	1434.94
579.121	1621.31
579.319	1295.68
579.516	1387.84
579.714	1686.84
579.912	1387.84
580.11	1410.37
580.308	1361.22
580.506	1221.95
580.704	1205.57
580.901	1256.77
581.099	1379.65
581.297	1295.68
581.495	1240.39
581.692	1338.69
581.89	1414.46
582.088	1305.92
582.285	1156.42
582.483	1234.24
582.681	1187.14
582.878	1158.47
583.076	1174.85
583.274	1115.46
583.471	1150.28
583.669	1080.64
583.866	1025.35
584.064	941.38
584.262	965.96
584.459	1049.93
584.657	980.29
584.854	1039.69
585.052	1123.65
585.249	945.48
585.447	1051.97
585.644	902.47
585.841	904.52
586.039	965.96
586.236	963.91
586.434	845.13
586.631	884.04
586.828	750.92
587.026	838.98
587.223	671.05
587.42	818.5
587.618	898.38
587.815	871.75
588.012	884.04
588.21	798.03
588.407	877.9
588.604	775.5
588.801	783.69
588.999	740.68
589.196	812.36
589.393	652.62
589.59	752.97
589.787	767.31
589.984	744.78
590.182	742.73
590.379	630.09
590.576	701.77
590.773	761.16
590.97	695.63
591.167	714.06
591.364	750.92
591.561	564.56
591.758	779.59
591.955	705.87
592.152	709.96
592.349	673.1
592.546	759.11
592.743	736.59
592.94	617.8
593.137	773.45
593.334	722.25
593.531	755.02
593.727	761.16
593.924	748.87
594.121	650.57
594.318	654.67
594.515	814.41
594.712	800.07
594.908	832.84
595.105	654.67
595.302	746.83
595.499	744.78
595.696	947.53
595.892	750.92
596.089	847.18
596.286	669
596.482	875.85
596.679	947.53
596.876	724.3
597.072	925
597.269	886.09
597.466	959.81
597.662	875.85
597.859	908.62
598.055	1039.69
598.252	1043.78
598.448	1013.06
598.645	1119.56
598.841	1078.6
599.038	1248.58
599.234	1338.69
599.431	1367.36
599.627	1363.26
599.824	1506.62
600.02	1400.13
600.217	1477.95
600.413	1486.14
600.609	1559.87
600.806	1819.96
601.002	1752.38
601.198	1658.17
601.395	1803.58
601.591	1944.89
601.787	1965.37
601.984	2055.48
602.18	2209.08
602.376	2172.21
602.572	2364.72
602.769	2458.93
602.965	2325.81
603.161	2569.52
603.357	2608.43
603.553	2739.5
603.75	2792.75
603.946	2831.66
604.142	2962.73
604.338	3231.01
604.534	3151.14
604.73	3282.21
604.926	3302.69
605.122	3632.41
605.318	3689.76
605.514	3796.25
605.71	3775.77
605.906	4052.25
606.102	3943.71
606.298	4277.52
606.494	4365.59
606.69	4627.73
606.886	4654.35
607.082	4551.95
607.278	4994.31
607.474	5000.46
607.67	5217.54
607.866	5070.09
608.062	5397.76
608.257	5618.94
608.453	5625.09
608.649	5885.18
608.845	5893.37
609.041	5930.23
609.236	6200.57
609.432	6593.78
609.628	6814.96
609.824	6722.8
610.019	6868.2
610.215	7134.44
610.411	7451.88
610.606	7548.13
610.802	7572.71
610.998	7810.27
611.193	8203.48
611.389	8187.1
611.584	8637.65
611.78	8516.82
611.976	9071.82
612.171	9260.23
612.367	9542.85
612.562	9659.59
612.758	9852.09
612.953	9708.74
613.149	10222.78
613.344	10613.94
613.539	10888.37
613.735	11109.55
613.93	11777.19
614.126	11725.99
614.321	12190.88
614.517	12536.98
614.712	12872.85
614.907	13063.31
615.103	13548.68
615.298	13567.11
615.493	14013.57
615.688	14296.19
615.884	14886
616.079	14974.06
616.274	15565.93
616.47	15674.47
616.665	16450.65
616.86	16632.92
617.055	16931.92
617.25	17224.78
617.445	17998.91
617.641	18338.88
617.836	18775.09
618.031	19268.66
618.226	19960.87
618.421	20124.71
618.616	20859.93
618.811	21031.96
619.006	21851.14
619.201	21890.06
619.396	22588.41
619.591	22670.33
619.786	23618.54
619.981	23704.56
620.176	24370.15
620.371	24900.57
620.566	25517.01
620.761	25732.04
620.956	26686.4
621.151	26624.96
621.346	27478.96
621.541	27489.2
621.735	28697.5
621.93	28869.53
622.125	29873.04
622.32	29664.14
622.515	30616.45
622.709	31150.97
622.904	31834.99
623.099	32203.63
623.294	32781.15
623.488	32971.61
623.683	33719.12
623.878	33899.34
624.072	34857.79
624.267	35291.96
624.462	35963.7
624.656	36250.41
624.851	37384.99
625.046	37065.5
625.24	37446.43
625.435	38345.48
625.629	38875.91
625.824	39187.2
626.018	39951.09
626.213	39660.28
626.407	40569.58
626.602	40702.7
626.796	41337.57
626.991	41491.16
627.185	41929.43
627.38	41894.61
627.574	42126.03
627.768	42341.07
627.963	42136.27
628.157	42576.59
628.352	43213.51
628.546	42189.52
628.74	43008.71
628.935	42812.1
629.129	42894.02
629.323	42291.92
629.517	42306.26
629.712	41964.24
629.906	41632.47
630.1	40831.72
630.294	40977.12
630.489	40192.75
630.683	39906.04
630.877	38992.64
631.071	38292.24
631.265	38290.19
631.459	37012.26
631.653	36070.19
631.848	35418.94
632.042	34638.66
632.236	33760.08
632.43	32433
632.624	32193.39
632.818	31058.81
633.012	29942.67
633.206	29103
633.4	28343.2
633.594	26985.4
633.788	26381.25
633.982	25234.39
634.176	24507.36
634.369	23344.11
634.563	22647.8
634.757	21380.11
634.951	20956.18
635.145	20061.22
635.339	19541.04
635.533	18490.43
635.726	17982.53
635.92	17093.71
636.114	16100.45
636.308	15653.99
636.501	14767.22
636.695	14408.83
636.889	13855.87
637.083	13587.59
637.276	12811.41
637.47	12141.72
637.664	11631.78
637.857	11320.49
638.051	10745.01
638.244	10513.59
638.438	10046.65
638.632	9637.06
638.825	9000.14
639.019	8869.07
639.212	8559.83
639.406	8320.21
639.599	7910.62
639.793	7507.17
639.986	7177.45
640.18	7089.39
640.373	6673.65
640.567	6444.28
640.76	6251.77
640.954	6114.55
641.147	5604.61
641.34	5367.04
641.534	5252.36
641.727	5211.4
641.92	4801.8
642.114	4699.41
642.307	4478.23
642.5	4482.32
642.694	4113.69
642.887	4072.73
643.08	3986.71
643.273	3902.75
643.467	3570.97
643.66	3480.86
643.853	3314.98
644.046	3302.69
644.239	3065.13
644.432	2862.38
644.626	2723.12
644.819	2811.18
645.012	2637.1
645.205	2612.53
645.398	2499.89
645.591	2344.24
645.784	2192.69
645.977	2139.44
646.17	2143.54
646.363	1901.88
646.556	1846.59
646.749	1826.11
646.942	1776.95
647.135	1738.04
647.328	1602.88
647.521	1674.56
647.714	1537.34
647.907	1451.33
648.099	1420.61
648.292	1350.98
648.485	1350.98
648.678	1256.77
648.871	1256.77
649.064	1174.85
649.256	1168.71
649.449	1097.03
649.642	1023.3
649.835	957.77
650.027	976.2
650.22	1017.16
650.413	853.32
650.605	898.38
650.798	824.65
650.991	777.55
651.183	806.22
651.376	855.37
651.568	779.59
651.761	789.83
651.954	699.72
652.146	703.82
652.339	695.63
652.531	615.76
652.724	654.67
652.916	568.65
653.109	501.07
653.301	560.46
653.494	630.09
653.686	511.31
653.879	576.84
654.071	628.04
654.263	470.35
654.456	406.86
654.648	568.65
654.84	456.01
655.033	329.04
655.225	578.89
655.417	359.76
655.61	525.65
655.802	488.78
655.994	503.12
656.186	324.94
656.379	359.76
656.571	320.85
656.763	329.04
656.955	310.61
657.148	271.7
657.34	314.7
657.532	296.27
657.724	302.42
657.916	290.13
658.108	374.1
658.3	361.81
658.492	283.99
658.684	271.7
658.876	355.66
659.068	179.54
659.26	161.11
659.452	159.06
659.644	261.46
659.836	329.04
660.028	273.75
660.22	234.83
660.412	216.4
660.604	290.13
660.796	308.56
660.988	312.66
661.18	249.17
661.372	277.84
661.563	136.53
661.755	226.64
661.947	146.77
662.139	134.48
662.331	140.63
662.522	271.7
662.714	91.48
662.906	216.4
663.097	171.35
663.289	146.77
663.481	91.48
663.673	279.89
663.864	165.2
664.056	214.35
664.247	116.05
664.439	210.26
664.631	150.87
664.822	181.59
665.014	169.3
665.205	140.63
665.397	157.01
665.588	257.36
665.78	226.64
665.971	220.5
666.163	116.05
666.354	228.69
666.546	83.28
666.737	163.15
666.929	91.48
667.12	118.1
667.311	191.83
667.503	95.57
667.694	161.11
667.885	173.39
668.077	181.59
668.268	27.99
668.459	169.3
668.651	138.58
668.842	195.92
669.033	50.52
669.224	54.61
669.416	318.8
669.607	93.52
669.798	68.95
669.989	222.55
670.18	99.67
670.371	175.44
670.563	50.52
670.754	230.74
670.945	247.12
671.136	126.29
671.327	71
671.518	232.79
671.709	290.13
671.9	161.11
672.091	189.78
672.282	66.9
672.473	111.96
672.664	81.24
672.855	81.24
673.046	128.34
673.237	157.01
673.428	62.8
673.619	210.26
673.809	157.01
674	263.51
674.191	177.49
674.382	75.09
674.573	124.24
674.764	167.25
674.954	189.78
675.145	56.66
675.336	58.71
675.527	144.72
675.717	116.05
675.908	71
676.099	56.66
676.289	167.25
676.48	46.42
676.671	116.05
676.861	120.15
677.052	140.63
677.243	114
677.433	128.34
677.624	146.77
677.814	144.72
678.005	152.92
678.195	279.89
678.386	64.85
678.576	148.82
678.767	148.82
678.957	165.2
679.148	208.21
679.338	230.74
679.529	185.68
679.719	136.53
679.909	126.29
680.1	191.83
680.29	220.5
680.481	60.76
680.671	245.07
680.861	183.63
681.052	136.53
681.242	132.44
681.432	253.27
681.622	208.21
681.813	134.48
682.003	150.87
682.193	157.01
682.383	195.92
682.573	200.02
682.764	185.68
682.954	171.35
683.144	277.84
683.334	27.99
683.524	167.25
683.714	208.21
683.904	232.79
684.094	142.68
684.284	222.55
684.474	292.18
684.664	208.21
684.854	185.68
685.044	87.38
685.234	136.53
685.424	152.92
685.614	183.63
685.804	267.6
685.994	232.79
686.184	138.58
686.374	195.92
686.564	83.28
686.753	122.2
686.943	77.14
687.133	177.49
687.323	193.87
687.513	179.54
687.702	97.62
687.892	159.06
688.082	187.73
688.272	197.97
688.461	124.24
688.651	261.46
688.841	195.92
689.03	114
689.22	144.72
689.41	167.25
689.599	234.83
689.789	150.87
689.979	296.27
690.168	230.74
690.358	261.46
690.547	159.06
690.737	249.17
690.926	193.87
691.116	249.17
691.305	171.35
691.495	230.74
691.684	161.11
691.874	140.63
692.063	197.97
692.252	263.51
692.442	187.73
692.631	101.72
692.82	157.01
693.01	173.39
693.199	208.21
693.388	255.31
693.578	136.53
693.767	195.92
693.956	204.11
694.146	120.15
694.335	187.73
694.524	150.87
694.713	183.63
694.902	159.06
695.092	116.05
695.281	148.82
695.47	126.29
695.659	124.24
695.848	171.35
696.037	154.96
696.226	228.69
696.415	144.72
696.604	232.79
696.793	259.41
696.982	202.07
697.171	298.32
697.36	177.49
697.549	177.49
697.738	89.43
697.927	107.86
698.116	114
698.305	210.26
698.494	157.01
698.683	189.78
698.872	329.04
699.061	150.87
699.25	118.1
699.438	154.96
699.627	101.72
699.816	277.84
700.005	62.8
700.193	157.01
700.382	224.59
700.571	83.28
700.76	165.2
700.948	240.98
701.137	232.79
701.326	265.55
701.514	91.48
701.703	177.49
701.892	118.1
702.08	312.66
702.269	167.25
702.457	144.72
702.646	185.68
702.834	114
703.023	226.64
703.212	206.16
703.4	216.4
703.589	81.24
703.777	150.87
703.965	202.07
704.154	183.63
704.342	71
704.531	173.39
704.719	236.88
704.907	273.75
705.096	154.96
705.284	173.39
705.472	216.4
705.661	228.69
705.849	212.31
706.037	286.03
706.226	204.11
706.414	212.31
706.602	111.96
706.79	228.69
706.979	161.11
707.167	152.92
707.355	85.33
707.543	200.02
707.731	224.59
707.919	218.45
708.107	140.63
708.296	163.15
708.484	109.91
708.672	181.59
708.86	157.01
709.048	111.96
709.236	118.1
709.424	218.45
709.612	175.44
709.8	140.63
709.988	134.48
710.176	245.07
710.364	253.27
710.551	146.77
710.739	144.72
710.927	105.81
711.115	232.79
711.303	202.07
711.491	255.31
711.679	193.87
711.866	341.33
712.054	191.83
712.242	126.29
712.43	128.34
712.617	159.06
712.805	238.93
712.993	179.54
713.181	107.86
713.368	208.21
713.556	136.53
713.744	101.72
713.931	339.28
714.119	200.02
714.306	175.44
714.494	175.44
714.682	169.3
714.869	52.56
715.057	165.2
715.244	58.71
715.432	187.73
715.619	126.29
715.807	171.35
715.994	179.54
716.182	232.79
716.369	224.59
716.556	265.55
716.744	79.19
716.931	64.85
717.119	240.98
717.306	142.68
717.493	191.83
717.681	118.1
717.868	60.76
718.055	283.99
718.242	157.01
718.43	224.59
718.617	265.55
718.804	154.96
718.991	331.09
719.179	218.45
719.366	206.16
719.553	171.35
719.74	171.35
719.927	159.06
720.114	218.45
720.301	134.48
720.488	152.92
720.676	161.11
720.863	275.79
721.05	314.7
721.237	224.59
721.424	259.41
721.611	249.17
721.798	152.92
721.985	197.97
722.172	228.69
722.358	159.06
722.545	240.98
722.732	286.03
722.919	298.32
723.106	187.73
723.293	200.02
723.48	238.93
723.667	81.24
723.853	259.41
724.04	183.63
724.227	363.86
724.414	206.16
724.6	292.18
724.787	365.9
724.974	408.91
725.161	189.78
725.347	216.4
725.534	218.45
725.72	269.65
725.907	222.55
726.094	300.37
726.28	118.1
726.467	134.48
726.653	116.05
726.84	236.88
727.027	316.75
727.213	157.01
727.4	220.5
727.586	163.15
727.773	236.88
727.959	214.35
728.145	208.21
728.332	232.79
728.518	195.92
728.705	294.22
728.891	181.59
729.077	214.35
729.264	171.35
729.45	185.68
729.636	191.83
729.823	263.51
730.009	193.87
730.195	167.25
730.382	302.42
730.568	238.93
730.754	288.08
730.94	163.15
731.126	214.35
731.313	191.83
731.499	220.5
731.685	197.97
731.871	249.17
732.057	230.74
732.243	249.17
732.429	322.9
732.615	351.57
732.801	179.54
732.987	216.4
733.173	193.87
733.359	107.86
733.545	294.22
733.731	140.63
733.917	273.75
734.103	298.32
734.289	220.5
734.475	204.11
734.661	439.63
734.847	247.12
735.033	251.22
735.219	253.27
735.404	189.78
735.59	167.25
735.776	236.88
735.962	271.7
736.148	226.64
736.333	306.51
736.519	202.07
736.705	238.93
736.89	247.12
737.076	169.3
737.262	216.4
737.447	179.54
737.633	234.83
737.819	333.14
738.004	253.27
738.19	230.74
738.375	290.13
738.561	306.51
738.747	302.42
738.932	167.25
739.118	361.81
739.303	247.12
739.489	302.42
739.674	193.87
739.859	163.15
740.045	247.12
740.23	308.56
740.416	105.81
740.601	255.31
740.786	281.94
740.972	124.24
741.157	243.03
741.342	181.59
741.528	208.21
741.713	251.22
741.898	290.13
742.084	193.87
742.269	269.65
742.454	273.75
742.639	290.13
742.824	171.35
743.01	355.66
743.195	304.46
743.38	173.39
743.565	167.25
743.75	193.87
743.935	169.3
744.12	271.7
744.305	124.24
744.49	197.97
744.675	177.49
744.86	204.11
745.045	232.79
745.23	157.01
745.415	193.87
745.6	257.36
745.785	152.92
745.97	253.27
746.155	234.83
746.34	400.72
746.525	208.21
746.71	326.99
746.895	161.11
747.079	138.58
747.264	181.59
747.449	216.4
747.634	206.16
747.819	245.07
748.003	140.63
748.188	50.52
748.373	200.02
748.557	195.92
748.742	134.48
748.927	277.84
749.111	212.31
749.296	187.73
749.481	220.5
749.665	189.78
749.85	71
750.034	281.94
750.219	189.78
750.404	73.04
750.588	218.45
750.773	193.87
750.957	163.15
751.141	128.34
751.326	257.36
751.51	103.76
751.695	81.24
751.879	154.96
752.064	290.13
752.248	120.15
752.432	224.59
752.617	191.83
752.801	212.31
752.985	77.14
753.17	261.46
753.354	163.15
753.538	165.2
753.722	214.35
753.907	195.92
754.091	73.04
754.275	150.87
754.459	60.76
754.643	136.53
754.828	128.34
755.012	228.69
755.196	87.38
755.38	195.92
755.564	146.77
755.748	105.81
755.932	216.4
756.116	175.44
756.3	136.53
756.484	152.92
756.668	195.92
756.852	42.32
757.036	144.72
757.22	120.15
757.404	89.43
757.588	148.82
757.772	154.96
757.956	216.4
758.14	195.92
758.323	77.14
758.507	216.4
758.691	124.24
758.875	224.59
759.059	247.12
759.242	161.11
759.426	159.06
759.61	77.14
759.794	23.89
759.977	197.97
760.161	363.86
760.345	232.79
760.528	253.27
760.712	120.15
760.895	126.29
761.079	97.62
761.263	56.66
761.446	17.75
761.63	157.01
761.813	210.26
761.997	44.37
762.18	105.81
762.364	99.67
762.547	71
762.731	52.56
762.914	95.57
763.098	64.85
763.281	95.57
763.464	34.13
763.648	79.19
763.831	107.86
764.015	19.8
764.198	85.33
764.381	97.62
764.564	34.13
764.748	66.9
764.931	124.24
765.114	130.39
765.297	99.67
765.481	17.75
765.664	38.23
765.847	66.9
766.03	167.25
766.213	27.99
766.397	68.95
766.58	44.37
766.763	118.1
766.946	68.95
767.129	58.71
767.312	120.15
767.495	40.28
767.678	46.42
767.861	75.09
768.044	163.15
768.227	152.92
768.41	56.66
768.593	71
768.776	114
768.959	27.99
769.142	161.11
769.324	85.33
769.507	56.66
769.69	-15.02
769.873	71
770.056	179.54
770.239	34.13
770.421	128.34
770.604	89.43
770.787	101.72
770.97	118.1
771.152	9.56
771.335	181.59
771.518	107.86
771.7	38.23
771.883	165.2
772.066	54.61
772.248	116.05
772.431	89.43
772.613	107.86
772.796	32.08
772.978	118.1
773.161	140.63
773.343	52.56
773.526	30.04
773.708	-25.26
773.891	30.04
774.073	107.86
774.256	50.52
774.438	210.26
774.621	54.61
774.803	128.34
774.985	-8.87
775.168	97.62
775.35	13.65
775.532	99.67
775.715	-4.78
775.897	105.81
776.079	-29.35
776.261	93.52
776.444	11.61
776.626	97.62
776.808	103.76
776.99	44.37
777.173	136.53
777.355	36.18
777.537	97.62
777.719	85.33
777.901	-27.31
778.083	42.32
778.265	-2.73
778.447	107.86
778.629	19.8
778.811	50.52
778.993	142.68
779.175	181.59
779.357	93.52
779.539	-96.94
779.721	25.94
779.903	118.1
780.085	71
780.267	44.37
780.449	54.61
780.631	105.81
780.812	187.73
780.994	7.51
781.176	56.66
781.358	46.42
781.54	7.51
781.721	83.28
781.903	68.95
782.085	11.61
782.267	126.29
782.448	-31.4
782.63	-55.98
782.812	42.32
782.993	122.2
783.175	85.33
783.357	56.66
783.538	95.57
783.72	-0.68
783.901	177.49
784.083	62.8
784.264	101.72
784.446	3.41
784.627	-49.83
784.809	58.71
784.99	27.99
785.172	77.14
785.353	27.99
785.535	85.33
785.716	-43.69
785.897	-47.79
786.079	17.75
786.26	32.08
786.441	85.33
786.623	-23.21
786.804	7.51
786.985	42.32
787.167	77.14
787.348	60.76
787.529	30.04
787.71	165.2
787.891	146.77
788.073	11.61
788.254	-78.51
788.435	144.72
788.616	21.85
788.797	-84.65
788.978	58.71
789.159	-4.78
789.34	46.42
789.522	19.8
789.703	32.08
789.884	93.52
790.065	73.04
790.246	144.72
790.427	30.04
790.607	212.31
790.788	97.62
790.969	-113.32
791.15	40.28
791.331	-43.69
791.512	32.08
791.693	-74.41
791.874	9.56
792.054	154.96
792.235	114
792.416	-62.12
792.597	7.51
792.778	46.42
792.958	27.99
793.139	75.09
793.32	68.95
793.5	-78.51
793.681	9.56
793.862	77.14
794.042	71
794.223	-96.94
794.404	58.71
794.584	-109.22
794.765	46.42
794.945	40.28
795.126	50.52
795.306	79.19
795.487	42.32
795.667	27.99
795.848	97.62
796.028	5.46
796.209	25.94
796.389	95.57
796.57	-10.92
796.75	-33.45
796.93	99.67
797.111	34.13
797.291	46.42
797.471	97.62
797.652	15.7
797.832	5.46
798.012	109.91
798.192	-43.69
798.373	-76.46
798.553	23.89
798.733	25.94
798.913	-25.26
799.093	-49.83
799.274	54.61
799.454	91.48
799.634	124.24
799.814	36.18
799.994	54.61
800.174	32.08
800.354	50.52
800.534	-109.22
800.714	71
800.894	-21.16
801.074	-33.45
801.254	-0.68
801.434	81.24
801.614	-12.97
801.794	-62.12
801.974	1910.07
802.154	111.96
802.334	40.28
802.514	-23.21
802.693	62.8
802.873	19.8
803.053	173.39
803.233	77.14
803.413	-86.7
803.592	23.89
803.772	-31.4
803.952	32.08
804.131	11.61
804.311	95.57
804.491	136.53
804.67	-94.89
804.85	-121.51
805.03	34.13
805.209	73.04
805.389	-103.08
805.568	-53.93
805.748	-2.73
805.928	-4.78
806.107	52.56
806.287	48.47
806.466	40.28
806.646	5.46
806.825	5.46
807.004	50.52
807.184	1.37
807.363	62.8
807.543	40.28
807.722	-101.03
807.901	142.68
808.081	32.08
808.26	-107.18
808.439	-6.83
808.619	56.66
808.798	48.47
808.977	148.82
809.156	109.91
809.336	68.95
809.515	95.57
809.694	-45.74
809.873	-70.31
810.052	75.09
810.231	103.76
810.411	21.85
810.59	56.66
810.769	40.28
810.948	13.65
811.127	-43.69
811.306	27.99
811.485	52.56
811.664	81.24
811.843	-25.26
812.022	50.52
812.201	42.32
812.38	19.8
812.559	1.37
812.737	-2.73
812.916	-86.7
813.095	-33.45
813.274	3.41
813.453	64.85
813.632	103.76
813.811	30.04
813.989	-90.79
814.168	68.95
814.347	-53.93
814.526	-66.22
814.704	132.44
814.883	103.76
815.062	-49.83
815.24	42.32
815.419	-45.74
815.598	101.72
815.776	-72.36
815.955	11.61
816.133	-182.95
816.312	27.99
816.49	-12.97
816.669	-15.02
816.847	-15.02
817.026	-15.02
817.204	-53.93
817.383	-12.97
817.561	-58.03
817.74	-39.59
817.918	66.9
818.097	-72.36
818.275	-23.21
818.453	42.32
818.632	19.8
818.81	3.41
818.988	42.32
819.167	-33.45
819.345	58.71
819.523	-15.02
819.701	40.28
819.879	34.13
820.058	-47.79
820.236	13.65
820.414	36.18
820.592	7.51
820.77	-35.5
820.948	-45.74
821.127	-37.55
821.305	-2.73
821.483	-31.4
821.661	134.48
821.839	13.65
822.017	-41.64
822.195	-17.07
822.373	154.96
822.551	32.08
822.729	68.95
822.907	-31.4
823.085	48.47
823.262	17.75
823.44	1.37
823.618	-33.45
823.796	81.24
823.974	-60.07
824.152	-4.78
824.329	-90.79
824.507	27.99
824.685	111.96
824.863	-35.5
825.04	62.8
825.218	101.72
825.396	-2.73
825.574	-6.83
825.751	-17.07
825.929	66.9
826.107	-68.27
826.284	-6.83
826.462	64.85
826.639	-47.79
826.817	-64.17
826.994	-21.16
827.172	9.56
827.349	105.81
827.527	44.37
827.704	-51.88
827.882	62.8
828.059	9.56
828.237	-12.97
828.414	19.8
828.591	-111.27
828.769	30.04
828.946	-105.13
829.124	66.9
829.301	118.1
829.478	-49.83
829.655	56.66
829.833	27.99
830.01	-62.12
830.187	52.56
830.364	11.61
830.542	-45.74
830.719	142.68
830.896	79.19
831.073	15.7
831.25	81.24
831.427	32.08
831.604	9.56
831.782	-68.27
831.959	15.7
832.136	-74.41
832.313	-4.78
832.49	-2.73
832.667	-12.97
832.844	17.75
833.021	17.75
833.198	9.56
833.374	9.56
833.551	101.72
833.728	-31.4
833.905	13.65
834.082	-160.42
834.259	42.32
834.436	17.75
834.612	-117.42
834.789	27.99
834.966	3.41
835.143	77.14
835.319	-94.89
835.496	7.51
835.673	64.85
835.85	25.94
836.026	34.13
836.203	58.71
836.38	7.51
836.556	-4.78
836.733	-0.68
836.909	93.52
837.086	-0.68
837.262	-58.03
837.439	-35.5
837.616	-29.35
837.792	42.32
837.968	42.32
838.145	-154.28
838.321	-33.45
838.498	-53.93
838.674	52.56
838.851	107.86
839.027	-51.88
839.203	-0.68
839.38	7.51
839.556	-74.41
839.732	68.95
839.909	79.19
840.085	34.13
840.261	-33.45
840.437	7.51
840.614	-15.02
840.79	81.24
840.966	5.46
841.142	56.66
841.318	-47.79
841.494	46.42
841.671	60.76
841.847	-66.22
842.023	5.46
842.199	-43.69
842.375	91.48
842.551	-103.08
842.727	1.37
842.903	124.24
843.079	-4.78
843.255	109.91
843.431	17.75
843.607	32.08
843.783	-219.82
843.959	-10.92
844.134	-29.35
844.31	62.8
844.486	30.04
844.662	-4.78
844.838	-29.35
845.013	1.37
845.189	54.61
845.365	19.8
845.541	-23.21
845.716	64.85
845.892	89.43
846.068	-35.5
846.244	-41.64
846.419	11.61
846.595	-35.5
846.77	-70.31
846.946	1.37
847.122	36.18
847.297	-19.11
847.473	48.47
847.648	-43.69
847.824	34.13
847.999	-117.42
848.175	13.65
848.35	56.66
848.526	54.61
848.701	56.66
848.876	95.57
849.052	30.04
849.227	-2.73
849.403	-51.88
849.578	42.32
849.753	46.42
849.929	38.23
850.104	-58.03
850.279	1.37
850.454	54.61
850.63	64.85
850.805	-19.11
850.98	-29.35
851.155	-15.02
851.33	93.52
851.505	-76.46
851.681	11.61
851.856	-27.31
852.031	114
852.206	50.52
852.381	-39.59
852.556	3.41
852.731	5.46
852.906	93.52
853.081	48.47
853.256	40.28
853.431	-2.73
853.606	19.8
853.781	-94.89
853.956	-88.75
854.131	48.47
854.305	-62.12
854.48	19.8
854.655	-47.79
854.83	25.94
855.005	-76.46
855.18	-25.26
855.354	3.41
855.529	30.04
855.704	25.94
855.879	89.43
856.053	-123.56
856.228	32.08
856.403	-101.03
856.577	32.08
856.752	-62.12
856.926	-31.4
857.101	58.71
857.276	-119.46
857.45	38.23
857.625	52.56
857.799	13.65
857.974	19.8
858.148	-74.41
858.323	32.08
858.497	-88.75
858.672	-47.79
858.846	-66.22
859.02	97.62
859.195	-131.75
859.369	-68.27
859.543	21.85
859.718	-86.7
859.892	83.28
860.066	11.61
860.241	-43.69
860.415	-39.59
860.589	-103.08
860.763	-58.03
860.938	-29.35
861.112	25.94
861.286	-8.87
861.46	71
861.634	19.8
861.808	54.61
861.982	-45.74
862.157	-58.03
862.331	-49.83
862.505	-70.31
862.679	-62.12
862.853	-10.92
863.027	1.37
863.201	163.15
863.375	36.18
863.549	68.95
863.722	3.41
863.896	44.37
864.07	-55.98
864.244	-37.55
864.418	-4.78
864.592	-8.87
864.766	46.42
864.939	27.99
865.113	25.94
865.287	73.04
865.461	-12.97
865.634	1.37
865.808	-49.83
865.982	-51.88
866.156	-15.02
866.329	-92.84
866.503	-27.31
866.676	58.71
866.85	-4.78
867.024	-53.93
867.197	83.28
867.371	126.29
867.544	120.15
867.718	-74.41
867.891	109.91
868.065	-21.16
868.238	-17.07
868.412	111.96
868.585	9.56
868.759	-23.21
868.932	-21.16
869.105	-127.66
869.279	48.47
869.452	-43.69
869.625	52.56
869.799	44.37
869.972	-88.75
870.145	-35.5
870.319	11.61
870.492	-41.64
870.665	-0.68
870.838	-64.17
871.011	-105.13
871.185	-29.35
871.358	-41.64
871.531	46.42
871.704	-33.45
871.877	38.23
872.05	-31.4
872.223	-37.55
872.396	25.94
872.569	87.38
872.742	-111.27
872.915	42.32
873.088	15.7
873.261	-60.07
873.434	19.8
873.607	-45.74
873.78	54.61
873.953	-31.4
874.126	56.66
874.299	40.28
874.471	-58.03
874.644	-47.79
874.817	25.94
874.99	68.95
875.163	32.08
875.335	7.51
875.508	-17.07
875.681	46.42
875.853	30.04
876.026	68.95
876.199	36.18
876.371	5.46
876.544	-0.68
876.717	23.89
876.889	-25.26
877.062	-19.11
877.234	-156.33
877.407	-127.66
877.579	-41.64
877.752	48.47
877.924	-55.98
878.097	-0.68
878.269	-49.83
878.442	56.66
878.614	9.56
878.786	3.41
878.959	87.38
879.131	1.37
879.303	-139.94
879.476	-45.74
879.648	140.63
879.82	-35.5
879.993	-31.4
880.165	-0.68
880.337	-66.22
880.509	34.13
880.681	-86.7
880.854	13.65
881.026	23.89
881.198	208.21
881.37	79.19
881.542	-31.4
881.714	-41.64
881.886	1.37
882.058	-47.79
882.23	-31.4
882.402	17.75
882.574	-23.21
882.746	3.41
882.918	73.04
883.09	56.66
883.262	-25.26
883.434	-19.11
883.606	-19.11
883.778	15.7
883.95	89.43
884.122	-76.46
884.293	136.53
884.465	-6.83
884.637	75.09
884.809	-117.42
884.98	9.56
885.152	-10.92
885.324	23.89
885.496	-45.74
885.667	32.08
885.839	-62.12
886.011	93.52
886.182	7.51
886.354	73.04
886.525	38.23
886.697	-27.31
886.869	-139.94
887.04	-94.89
887.212	136.53
887.383	109.91
887.555	-49.83
887.726	-37.55
887.897	1.37
888.069	7.51
888.24	101.72
888.412	3.41
888.583	-45.74
888.754	21.85
888.926	-135.85
889.097	-47.79
889.268	-35.5
889.44	-62.12
889.611	-90.79
889.782	-162.47
889.953	-29.35
890.125	105.81
890.296	-31.4
890.467	-49.83
890.638	-33.45
890.809	-17.07
890.98	-66.22
891.151	-47.79
891.323	187.73
891.494	-21.16
891.665	-27.31
891.836	-111.27
892.007	27.99
892.178	38.23
892.349	-19.11
892.52	-41.64
892.691	44.37
892.862	13.65
893.032	-70.31
893.203	-109.22
893.374	3.41
893.545	40.28
893.716	-76.46
893.887	46.42
894.057	-51.88
894.228	19.8
894.399	3.41
894.57	60.76
894.74	23.89
894.911	-21.16
895.082	-37.55
895.253	-51.88
895.423	-6.83
895.594	107.86
895.764	-0.68
895.935	-70.31
896.106	52.56
896.276	-49.83
896.447	71
896.617	32.08
896.788	-84.65
896.958	30.04
897.129	-12.97
897.299	-70.31
897.47	81.24
897.64	83.28
897.81	-12.97
897.981	-2.73
898.151	-39.59
898.322	13.65
898.492	11.61
898.662	-103.08
898.832	-55.98
899.003	17.75
899.173	54.61
899.343	-37.55
899.513	-105.13
