Data from USB4F104151__236__11-06-29-513.txt Node

Date: Wed Feb 26 11:06:29 EST 2025
User: louis
Spectrometer: USB4F10415
Trigger mode: 4
Integration Time (sec): 1.000000E-1
Scans to average: 1
Electric dark correction enabled: true
Nonlinearity correction enabled: false
Boxcar width: 0
XAxis mode: Wavelengths
Number of Pixels in Spectrum: 3648
>>>>>Begin Spectral Data<<<<<
178.204	-445.77
178.424	-445.77
178.644	-445.77
178.864	-382.29
179.084	-441.68
179.304	6.83
179.524	-66.9
179.744	43.69
179.964	-32.08
180.184	37.55
180.404	49.83
180.624	-9.56
180.844	-13.65
181.064	-30.04
181.283	10.92
181.503	-3.41
181.723	6.83
181.943	-54.61
182.163	211.62
182.383	-64.85
182.602	96.94
182.822	109.23
183.042	66.22
183.262	-13.65
183.482	-32.08
183.701	-11.61
183.921	15.02
184.141	-87.38
184.361	74.41
184.58	53.93
184.8	47.79
185.02	-25.94
185.239	148.14
185.459	154.28
185.679	115.37
185.898	-83.28
186.118	74.41
186.338	-19.8
186.557	135.85
186.777	-85.33
186.997	-30.04
187.216	8.87
187.436	191.14
187.655	27.31
187.875	96.94
188.095	-23.89
188.314	141.99
188.534	160.42
188.753	2.73
188.973	117.42
189.192	109.23
189.412	37.55
189.631	-17.75
189.851	156.33
190.07	131.75
190.29	-52.56
190.509	-34.13
190.729	58.03
190.948	160.42
191.168	271.01
191.387	33.45
191.607	27.31
191.826	84.65
192.045	53.93
192.265	2.73
192.484	90.79
192.704	74.41
192.923	-97.62
193.142	174.76
193.362	70.31
193.581	119.46
193.8	82.6
194.02	35.5
194.239	96.94
194.458	6.83
194.678	-17.75
194.897	-38.23
195.116	39.59
195.335	55.98
195.555	29.35
195.774	10.92
195.993	162.47
196.212	19.11
196.432	-62.8
196.651	-40.28
196.87	82.6
197.089	289.45
197.308	51.88
197.528	94.89
197.747	45.74
197.966	39.59
198.185	201.38
198.404	-36.18
198.623	115.37
198.842	113.32
199.062	80.55
199.281	49.83
199.5	109.23
199.719	49.83
199.938	53.93
200.157	82.6
200.376	49.83
200.595	72.36
200.814	12.97
201.033	29.35
201.252	107.18
201.471	35.5
201.69	58.03
201.909	62.12
202.128	94.89
202.347	27.31
202.566	-9.56
202.785	-85.33
203.004	-13.65
203.223	281.25
203.442	55.98
203.661	-62.8
203.879	111.27
204.098	189.1
204.317	-19.8
204.536	101.03
204.755	109.23
204.974	160.42
205.193	29.35
205.411	154.28
205.63	127.66
205.849	64.17
206.068	-13.65
206.287	-44.37
206.505	185
206.724	35.5
206.943	41.64
207.162	23.21
207.381	72.36
207.599	29.35
207.818	-5.46
208.037	-38.23
208.255	-21.85
208.474	37.55
208.693	21.16
208.911	15.02
209.13	96.94
209.349	105.13
209.567	84.65
209.786	29.35
210.005	76.46
210.223	49.83
210.442	-27.99
210.661	113.32
210.879	113.32
211.098	12.97
211.316	29.35
211.535	90.79
211.753	76.46
211.972	35.5
212.191	-30.04
212.409	-42.32
212.628	94.89
212.846	-13.65
213.065	66.22
213.283	60.07
213.502	21.16
213.72	41.64
213.938	90.79
214.157	-38.23
214.375	141.99
214.594	43.69
214.812	70.31
215.031	-13.65
215.249	23.21
215.467	49.83
215.686	10.92
215.904	58.03
216.122	66.22
216.341	154.28
216.559	58.03
216.778	146.09
216.996	141.99
217.214	-23.89
217.432	-17.75
217.651	-23.89
217.869	19.11
218.087	33.45
218.306	-38.23
218.524	96.94
218.742	-1.37
218.96	94.89
219.179	-9.56
219.397	-7.51
219.615	189.1
219.833	94.89
220.051	-58.71
220.27	82.6
220.488	152.23
220.706	43.69
220.924	76.46
221.142	-66.9
221.36	31.4
221.578	19.11
221.796	68.27
222.015	53.93
222.233	68.27
222.451	148.14
222.669	-11.61
222.887	17.07
223.105	-54.61
223.323	6.83
223.541	-15.7
223.759	27.31
223.977	23.21
224.195	115.37
224.413	88.75
224.631	84.65
224.849	47.79
225.067	152.23
225.285	-30.04
225.503	-9.56
225.721	-66.9
225.939	49.83
226.157	64.17
226.375	244.39
226.592	-44.37
226.81	47.79
227.028	111.27
227.246	105.13
227.464	64.17
227.682	115.37
227.9	101.03
228.117	53.93
228.335	37.55
228.553	94.89
228.771	23.21
228.989	82.6
229.206	33.45
229.424	-46.42
229.642	-48.47
229.86	-68.95
230.077	43.69
230.295	74.41
230.513	96.94
230.731	82.6
230.948	178.86
231.166	101.03
231.384	17.07
231.601	19.11
231.819	133.8
232.037	2.73
232.254	62.12
232.472	10.92
232.689	27.31
232.907	133.8
233.125	37.55
233.342	17.07
233.56	-50.52
233.777	-15.7
233.995	43.69
234.213	152.23
234.43	37.55
234.648	2.73
234.865	43.69
235.083	88.75
235.3	15.02
235.518	135.85
235.735	129.7
235.953	115.37
236.17	64.17
236.388	21.16
236.605	72.36
236.822	37.55
237.04	141.99
237.257	70.31
237.475	-95.57
237.692	51.88
237.909	121.51
238.127	12.97
238.344	64.17
238.562	15.02
238.779	-25.94
238.996	-81.24
239.214	43.69
239.431	60.07
239.648	8.87
239.865	64.17
240.083	82.6
240.3	55.98
240.517	-48.47
240.735	17.07
240.952	58.03
241.169	152.23
241.386	94.89
241.603	-23.89
241.821	-30.04
242.038	0.68
242.255	146.09
242.472	-107.86
242.689	53.93
242.907	121.51
243.124	31.4
243.341	55.98
243.558	-27.99
243.775	-5.46
243.992	-66.9
244.209	82.6
244.426	127.66
244.643	101.03
244.86	53.93
245.078	58.03
245.295	62.12
245.512	33.45
245.729	12.97
245.946	107.18
246.163	72.36
246.38	49.83
246.597	-1.37
246.814	-5.46
247.031	45.74
247.248	6.83
247.464	86.7
247.681	84.65
247.898	119.46
248.115	27.31
248.332	-54.61
248.549	80.55
248.766	55.98
248.983	160.42
249.2	12.97
249.417	156.33
249.633	76.46
249.85	37.55
250.067	29.35
250.284	41.64
250.501	121.51
250.717	160.42
250.934	2.73
251.151	-17.75
251.368	88.75
251.585	19.11
251.801	41.64
252.018	-64.85
252.235	150.18
252.451	-30.04
252.668	-5.46
252.885	154.28
253.102	47.79
253.318	-3.41
253.535	-68.95
253.752	27.31
253.968	-17.75
254.185	-87.38
254.401	10.92
254.618	51.88
254.835	-11.61
255.051	133.8
255.268	80.55
255.484	25.26
255.701	58.03
255.917	107.18
256.134	-21.85
256.351	-9.56
256.567	-23.89
256.784	33.45
257	6.83
257.217	172.71
257.433	94.89
257.65	23.21
257.866	150.18
258.082	-19.8
258.299	-58.71
258.515	33.45
258.732	-1.37
258.948	12.97
259.165	150.18
259.381	-30.04
259.597	133.8
259.814	47.79
260.03	41.64
260.246	60.07
260.463	123.56
260.679	156.33
260.895	86.7
261.112	29.35
261.328	-3.41
261.544	2.73
261.761	201.38
261.977	-62.8
262.193	-30.04
262.409	121.51
262.626	37.55
262.842	35.5
263.058	31.4
263.274	55.98
263.49	10.92
263.707	60.07
263.923	133.8
264.139	-54.61
264.355	0.68
264.571	98.99
264.787	49.83
265.004	133.8
265.22	68.27
265.436	37.55
265.652	4.78
265.868	96.94
266.084	-27.99
266.3	-19.8
266.516	27.31
266.732	62.12
266.948	-7.51
267.164	58.03
267.38	88.75
267.596	66.22
267.812	213.67
268.028	49.83
268.244	19.11
268.46	27.31
268.676	53.93
268.892	53.93
269.108	25.26
269.324	-42.32
269.54	-30.04
269.756	55.98
269.972	-105.81
270.188	-19.8
270.403	23.21
270.619	21.16
270.835	141.99
271.051	39.59
271.267	-62.8
271.483	-23.89
271.698	68.27
271.914	47.79
272.13	68.27
272.346	53.93
272.562	98.99
272.777	135.85
272.993	-32.08
273.209	31.4
273.425	115.37
273.64	-52.56
273.856	80.55
274.072	-85.33
274.287	43.69
274.503	68.27
274.719	92.84
274.934	-5.46
275.15	-95.57
275.366	88.75
275.581	-93.52
275.797	10.92
276.012	88.75
276.228	58.03
276.444	78.51
276.659	115.37
276.875	21.16
277.09	-21.85
277.306	-27.99
277.521	76.46
277.737	111.27
277.952	68.27
278.168	4.78
278.383	45.74
278.599	-5.46
278.814	58.03
279.03	-1.37
279.245	76.46
279.461	35.5
279.676	101.03
279.892	-21.85
280.107	31.4
280.322	41.64
280.538	111.27
280.753	21.16
280.969	-17.75
281.184	53.93
281.399	119.46
281.615	31.4
281.83	43.69
282.045	-101.72
282.26	-52.56
282.476	33.45
282.691	33.45
282.906	35.5
283.122	60.07
283.337	-15.7
283.552	53.93
283.767	92.84
283.983	90.79
284.198	51.88
284.413	137.9
284.628	-44.37
284.843	45.74
285.058	78.51
285.274	-3.41
285.489	0.68
285.704	123.56
285.919	2.73
286.134	37.55
286.349	37.55
286.564	-19.8
286.779	68.27
286.995	35.5
287.21	2.73
287.425	49.83
287.64	-5.46
287.855	-3.41
288.07	-99.67
288.285	90.79
288.5	96.94
288.715	68.27
288.93	60.07
289.145	-38.23
289.36	156.33
289.575	123.56
289.79	60.07
290.004	47.79
290.219	113.32
290.434	19.11
290.649	25.26
290.864	43.69
291.079	-13.65
291.294	39.59
291.509	55.98
291.724	27.31
291.938	-42.32
292.153	-7.51
292.368	-23.89
292.583	94.89
292.798	72.36
293.012	-3.41
293.227	103.08
293.442	-42.32
293.657	90.79
293.871	150.18
294.086	162.47
294.301	111.27
294.516	133.8
294.73	72.36
294.945	-66.9
295.16	12.97
295.374	119.46
295.589	88.75
295.804	-3.41
296.018	98.99
296.233	64.17
296.447	53.93
296.662	-25.94
296.877	115.37
297.091	90.79
297.306	92.84
297.52	35.5
297.735	74.41
297.949	68.27
298.164	43.69
298.378	64.17
298.593	43.69
298.807	25.26
299.022	55.98
299.236	125.61
299.451	53.93
299.665	37.55
299.88	-5.46
300.094	35.5
300.309	60.07
300.523	68.27
300.737	2.73
300.952	111.27
301.166	8.87
301.381	-9.56
301.595	21.16
301.809	68.27
302.024	-42.32
302.238	47.79
302.452	68.27
302.667	-7.51
302.881	53.93
303.095	90.79
303.309	0.68
303.524	43.69
303.738	41.64
303.952	4.78
304.166	23.21
304.381	-150.87
304.595	105.13
304.809	19.11
305.023	35.5
305.237	4.78
305.452	-58.71
305.666	21.16
305.88	144.04
306.094	98.99
306.308	109.23
306.522	111.27
306.736	131.75
306.95	135.85
307.164	27.31
307.379	107.18
307.593	187.05
307.807	76.46
308.021	72.36
308.235	141.99
308.449	-7.51
308.663	62.12
308.877	258.73
309.091	6.83
309.305	82.6
309.519	-91.48
309.733	168.62
309.947	-36.18
310.161	96.94
310.374	105.13
310.588	133.8
310.802	-32.08
311.016	12.97
311.23	53.93
311.444	-7.51
311.658	51.88
311.872	45.74
312.085	141.99
312.299	121.51
312.513	193.19
312.727	86.7
312.941	-19.8
313.154	76.46
313.368	17.07
313.582	84.65
313.796	103.08
314.009	4.78
314.223	144.04
314.437	37.55
314.651	86.7
314.864	53.93
315.078	60.07
315.292	-34.13
315.505	41.64
315.719	82.6
315.933	47.79
316.146	45.74
316.36	10.92
316.573	170.66
316.787	86.7
317.001	74.41
317.214	-25.94
317.428	21.16
317.641	-11.61
317.855	-17.75
318.068	33.45
318.282	74.41
318.495	219.82
318.709	121.51
318.922	-23.89
319.136	111.27
319.349	129.7
319.563	49.83
319.776	35.5
319.99	-54.61
320.203	64.17
320.417	25.26
320.63	49.83
320.843	135.85
321.057	49.83
321.27	12.97
321.483	86.7
321.697	154.28
321.91	86.7
322.124	-25.94
322.337	76.46
322.55	35.5
322.763	-25.94
322.977	6.83
323.19	-25.94
323.403	66.22
323.617	19.11
323.83	127.66
324.043	58.03
324.256	82.6
324.469	-3.41
324.683	60.07
324.896	49.83
325.109	10.92
325.322	-87.38
325.535	90.79
325.748	101.03
325.962	17.07
326.175	19.11
326.388	55.98
326.601	160.42
326.814	74.41
327.027	64.17
327.24	150.18
327.453	-40.28
327.666	78.51
327.879	152.23
328.092	94.89
328.305	131.75
328.518	-50.52
328.731	-77.14
328.944	27.31
329.157	45.74
329.37	2.73
329.583	223.91
329.796	203.43
330.009	-60.76
330.222	82.6
330.435	88.75
330.648	25.26
330.861	49.83
331.073	27.31
331.286	121.51
331.499	31.4
331.712	-5.46
331.925	2.73
332.138	-15.7
332.35	129.7
332.563	23.21
332.776	105.13
332.989	35.5
333.202	15.02
333.414	115.37
333.627	17.07
333.84	43.69
334.053	31.4
334.265	-42.32
334.478	-5.46
334.691	-13.65
334.903	82.6
335.116	27.31
335.329	6.83
335.541	139.94
335.754	195.24
335.966	-3.41
336.179	43.69
336.392	-27.99
336.604	80.55
336.817	72.36
337.029	60.07
337.242	45.74
337.454	125.61
337.667	51.88
337.88	164.52
338.092	2.73
338.305	33.45
338.517	-83.28
338.729	64.17
338.942	148.14
339.154	29.35
339.367	8.87
339.579	53.93
339.792	-32.08
340.004	109.23
340.217	31.4
340.429	33.45
340.641	-1.37
340.854	4.78
341.066	-11.61
341.278	115.37
341.491	182.95
341.703	39.59
341.915	21.16
342.128	-13.65
342.34	-13.65
342.552	10.92
342.764	27.31
342.977	41.64
343.189	90.79
343.401	51.88
343.613	-91.48
343.826	98.99
344.038	-7.51
344.25	2.73
344.462	29.35
344.674	86.7
344.886	25.26
345.099	60.07
345.311	70.31
345.523	23.21
345.735	-30.04
345.947	76.46
346.159	107.18
346.371	47.79
346.583	2.73
346.795	162.47
347.007	-17.75
347.219	-5.46
347.431	10.92
347.643	127.66
347.855	21.16
348.067	78.51
348.279	-62.8
348.491	64.17
348.703	51.88
348.915	66.22
349.127	-5.46
349.339	94.89
349.551	17.07
349.763	60.07
349.975	23.21
350.187	66.22
350.399	180.9
350.61	90.79
350.822	64.17
351.034	115.37
351.246	21.16
351.458	39.59
351.669	6.83
351.881	53.93
352.093	129.7
352.305	72.36
352.517	115.37
352.728	150.18
352.94	90.79
353.152	66.22
353.363	23.21
353.575	15.02
353.787	170.66
353.999	-42.32
354.21	105.13
354.422	19.11
354.633	53.93
354.845	33.45
355.057	86.7
355.268	10.92
355.48	160.42
355.692	-21.85
355.903	64.17
356.115	0.68
356.326	-87.38
356.538	170.66
356.749	98.99
356.961	160.42
357.172	53.93
357.384	-46.42
357.595	252.58
357.807	-3.41
358.018	15.02
358.23	21.16
358.441	139.94
358.653	94.89
358.864	27.31
359.075	-7.51
359.287	94.89
359.498	39.59
359.709	96.94
359.921	0.68
360.132	125.61
360.344	74.41
360.555	23.21
360.766	33.45
360.977	76.46
361.189	113.32
361.4	62.12
361.611	68.27
361.823	82.6
362.034	49.83
362.245	-52.56
362.456	53.93
362.667	-7.51
362.879	-42.32
363.09	113.32
363.301	82.6
363.512	35.5
363.723	51.88
363.935	-3.41
364.146	113.32
364.357	-1.37
364.568	10.92
364.779	-40.28
364.99	33.45
365.201	45.74
365.412	60.07
365.623	-48.47
365.834	90.79
366.045	-5.46
366.256	113.32
366.467	88.75
366.678	64.17
366.889	117.42
367.1	10.92
367.311	82.6
367.522	-5.46
367.733	35.5
367.944	88.75
368.155	84.65
368.366	117.42
368.577	88.75
368.788	88.75
368.999	2.73
369.209	74.41
369.42	191.14
369.631	252.58
369.842	152.23
370.053	27.31
370.264	141.99
370.474	-27.99
370.685	121.51
370.896	12.97
371.107	72.36
371.317	76.46
371.528	105.13
371.739	148.14
371.95	4.78
372.16	94.89
372.371	33.45
372.582	55.98
372.792	70.31
373.003	-19.8
373.214	60.07
373.424	80.55
373.635	-9.56
373.846	207.53
374.056	53.93
374.267	92.84
374.477	-5.46
374.688	21.16
374.898	160.42
375.109	70.31
375.319	113.32
375.53	33.45
375.74	45.74
375.951	64.17
376.161	115.37
376.372	129.7
376.582	-1.37
376.793	96.94
377.003	6.83
377.214	8.87
377.424	-17.75
377.635	39.59
377.845	29.35
378.055	121.51
378.266	-25.94
378.476	29.35
378.686	51.88
378.897	25.26
379.107	98.99
379.317	51.88
379.528	31.4
379.738	178.86
379.948	-79.19
380.158	96.94
380.369	53.93
380.579	49.83
380.789	37.55
380.999	88.75
381.21	152.23
381.42	199.34
381.63	49.83
381.84	51.88
382.05	92.84
382.261	154.28
382.471	170.66
382.681	35.5
382.891	162.47
383.101	94.89
383.311	12.97
383.521	-9.56
383.731	51.88
383.941	193.19
384.151	80.55
384.361	12.97
384.571	78.51
384.781	96.94
384.991	199.34
385.201	164.52
385.411	64.17
385.621	49.83
385.831	55.98
386.041	98.99
386.251	25.26
386.461	78.51
386.671	-36.18
386.881	92.84
387.091	-64.85
387.301	150.18
387.511	10.92
387.72	47.79
387.93	17.07
388.14	-34.13
388.35	53.93
388.56	82.6
388.769	74.41
388.979	47.79
389.189	15.02
389.399	12.97
389.609	84.65
389.818	25.26
390.028	148.14
390.238	98.99
390.447	4.78
390.657	8.87
390.867	15.02
391.076	-116.05
391.286	101.03
391.496	21.16
391.705	53.93
391.915	109.23
392.125	137.9
392.334	-1.37
392.544	78.51
392.753	23.21
392.963	31.4
393.172	45.74
393.382	-3.41
393.591	148.14
393.801	12.97
394.01	43.69
394.22	195.24
394.429	141.99
394.639	51.88
394.848	-36.18
395.058	66.22
395.267	-13.65
395.477	82.6
395.686	51.88
395.895	191.14
396.105	180.9
396.314	-7.51
396.524	-17.75
396.733	0.68
396.942	80.55
397.152	60.07
397.361	121.51
397.57	25.26
397.78	117.42
397.989	82.6
398.198	174.76
398.407	66.22
398.617	82.6
398.826	39.59
399.035	66.22
399.244	94.89
399.453	19.11
399.663	74.41
399.872	148.14
400.081	-13.65
400.29	96.94
400.499	19.11
400.708	101.03
400.917	-38.23
401.127	78.51
401.336	39.59
401.545	187.05
401.754	187.05
401.963	160.42
402.172	58.03
402.381	-30.04
402.59	148.14
402.799	8.87
403.008	94.89
403.217	39.59
403.426	35.5
403.635	-11.61
403.844	33.45
404.053	49.83
404.262	23.21
404.471	156.33
404.68	107.18
404.888	4.78
405.097	25.26
405.306	103.08
405.515	131.75
405.724	39.59
405.933	121.51
406.142	78.51
406.35	31.4
406.559	25.26
406.768	80.55
406.977	144.04
407.185	135.85
407.394	119.46
407.603	-3.41
407.812	133.8
408.02	172.71
408.229	17.07
408.438	119.46
408.646	-44.37
408.855	-25.94
409.064	66.22
409.272	-7.51
409.481	70.31
409.69	-23.89
409.898	-46.42
410.107	66.22
410.315	139.94
410.524	-54.61
410.733	72.36
410.941	19.11
411.15	133.8
411.358	103.08
411.567	90.79
411.775	49.83
411.984	82.6
412.192	68.27
412.401	-40.28
412.609	176.81
412.818	103.08
413.026	160.42
413.234	76.46
413.443	98.99
413.651	-7.51
413.86	37.55
414.068	180.9
414.276	189.1
414.485	115.37
414.693	209.58
414.901	256.68
415.11	98.99
415.318	29.35
415.526	51.88
415.734	82.6
415.943	80.55
416.151	162.47
416.359	23.21
416.567	137.9
416.776	125.61
416.984	98.99
417.192	193.19
417.4	66.22
417.608	33.45
417.817	15.02
418.025	88.75
418.233	115.37
418.441	58.03
418.649	-32.08
418.857	72.36
419.065	207.53
419.273	60.07
419.481	2.73
419.689	51.88
419.897	-40.28
420.105	15.02
420.313	96.94
420.521	117.42
420.729	174.76
420.937	8.87
421.145	35.5
421.353	47.79
421.561	117.42
421.769	55.98
421.977	-11.61
422.185	109.23
422.393	8.87
422.601	70.31
422.809	141.99
423.017	74.41
423.224	70.31
423.432	113.32
423.64	37.55
423.848	135.85
424.056	33.45
424.263	166.57
424.471	45.74
424.679	123.56
424.887	-60.76
425.094	113.32
425.302	111.27
425.51	76.46
425.718	117.42
425.925	72.36
426.133	47.79
426.341	189.1
426.548	101.03
426.756	-25.94
426.964	98.99
427.171	92.84
427.379	109.23
427.586	137.9
427.794	60.07
428.001	201.38
428.209	121.51
428.417	156.33
428.624	125.61
428.832	187.05
429.039	156.33
429.247	29.35
429.454	156.33
429.662	182.95
429.869	86.7
430.076	45.74
430.284	107.18
430.491	240.3
430.699	152.23
430.906	314.02
431.114	115.37
431.321	119.46
431.528	121.51
431.736	201.38
431.943	191.14
432.15	246.44
432.358	217.77
432.565	242.34
432.772	127.66
432.979	207.53
433.187	195.24
433.394	309.93
433.601	170.66
433.808	336.55
434.016	359.08
434.223	178.86
434.43	283.3
434.637	350.89
434.844	279.21
435.052	266.92
435.259	350.89
435.466	332.45
435.673	301.73
435.88	291.49
436.087	365.22
436.294	420.52
436.501	350.89
436.708	283.3
436.915	264.87
437.122	369.32
437.329	295.59
437.537	336.55
437.743	402.08
437.95	451.24
438.157	465.57
438.364	467.62
438.571	465.57
438.778	488.1
438.985	518.82
439.192	570.02
439.399	531.11
439.606	524.96
439.813	608.93
440.02	740
440.227	694.94
440.433	723.62
440.64	649.89
440.847	602.79
441.054	676.51
441.261	914.08
441.467	682.66
441.674	606.88
441.881	832.16
442.088	758.43
442.294	918.17
442.501	936.6
442.708	938.65
442.914	914.08
443.121	998.04
443.328	969.37
443.534	1127.07
443.741	1120.92
443.948	944.8
444.154	1223.32
444.361	1295
444.568	1237.66
444.774	1274.52
444.981	1137.31
445.187	1477.27
445.394	1417.88
445.6	1325.72
445.807	1563.28
446.013	1573.52
446.22	1518.23
446.426	1573.52
446.633	1706.64
446.839	1976.97
447.046	1749.65
447.252	1972.88
447.459	2091.66
447.665	1991.31
447.871	2022.03
448.078	2339.46
448.284	2278.02
448.491	2368.13
448.697	2636.42
448.903	2445.96
449.11	2562.69
449.316	2534.02
449.522	2853.5
449.728	2968.19
449.935	3103.36
450.141	2937.47
450.347	3273.34
450.553	3254.9
450.76	3265.14
450.966	3500.66
451.172	3414.65
451.378	3703.41
451.584	3797.62
451.791	4119.15
451.997	4301.42
452.203	4211.31
452.409	4446.82
452.615	4645.48
452.821	4432.49
453.027	4725.35
453.233	5220.95
453.44	4911.71
453.646	5345.88
453.852	5565.01
454.058	5786.19
454.264	5958.22
454.47	6509.13
454.676	6154.83
454.882	7010.88
455.088	6574.66
455.294	7082.56
455.5	7563.83
455.705	7858.74
455.911	7805.49
456.117	8198.7
456.323	8368.68
456.529	8387.11
456.735	9161.25
456.941	9153.06
457.147	9849.36
457.352	9837.08
457.558	10390.03
457.764	10994.18
457.97	11239.94
458.176	11659.77
458.381	12179.95
458.587	12364.27
458.793	13038.05
458.999	12925.41
459.204	14975.43
459.41	15159.75
459.616	14967.24
459.821	15933.88
460.027	16439.73
460.233	17271.2
460.438	17162.66
460.644	18321.81
460.85	18696.59
461.055	19310.98
461.261	20351.35
461.466	19712.38
461.672	20197.75
461.878	22593.87
462.083	22427.99
462.289	22796.62
462.494	23775.55
462.7	23918.91
462.905	24357.17
463.111	26218.78
463.316	27289.87
463.522	27818.24
463.727	28799.22
463.932	30089.44
464.138	31127.76
464.343	32196.8
464.549	32352.44
464.754	34539.68
464.959	35643.53
465.165	36079.75
465.37	35956.87
465.575	35745.93
465.781	38373.47
465.986	39514.19
466.191	38903.9
466.397	39219.28
466.602	38604.89
466.807	40558.66
467.012	41371.7
467.218	41920.55
467.423	42068.01
467.628	43122.71
467.833	45240.31
468.038	44584.96
468.244	43601.94
468.449	45660.15
468.654	45139.96
468.859	44779.52
469.064	45250.55
469.269	44027.91
469.474	44453.89
469.679	45742.06
469.885	44347.4
470.09	45101.05
470.295	44863.49
470.5	43630.61
470.705	44271.62
470.91	43204.63
471.115	42805.28
471.32	43810.83
471.525	43003.93
471.73	41984.04
471.935	41740.33
472.139	40288.32
472.344	40079.43
472.549	40069.19
472.754	39123.03
472.959	38608.99
473.164	37044.34
473.369	36638.84
473.574	37726.32
473.778	36614.27
473.983	36401.28
474.188	35713.16
474.393	33689.77
474.598	33691.82
474.802	33284.27
475.007	32784.57
475.212	32317.63
475.417	31264.97
475.621	30925.01
475.826	30793.94
476.031	29573.35
476.235	29075.69
476.44	29290.73
476.645	28373.24
476.849	28016.9
477.054	27611.4
477.259	26960.14
477.463	26734.87
477.668	26216.73
477.872	26439.96
478.077	25405.73
478.282	24850.74
478.486	24641.84
478.691	24330.55
478.895	24332.6
479.1	23959.87
479.304	23800.13
479.509	23255.37
479.713	23376.2
479.918	22991.18
480.122	22397.27
480.326	22468.95
480.531	22483.28
480.735	22331.73
480.94	21633.38
481.144	22430.04
481.348	21191.02
481.553	21317.99
481.757	20824.43
481.961	21043.56
482.166	21455.2
482.37	20873.58
482.574	20396.4
482.778	20697.45
482.983	20724.08
483.187	20146.55
483.391	20201.85
483.595	19648.89
483.8	19425.67
484.004	19755.39
484.208	19480.96
484.412	18940.3
484.616	19095.94
484.821	18774.41
485.025	18387.35
485.229	18354.58
485.433	18145.69
485.637	18067.86
485.841	17545.63
486.045	17678.75
486.249	17160.61
486.453	16996.78
486.657	16806.31
486.861	16826.79
487.065	15964.6
487.269	15968.69
487.473	15450.56
487.677	15530.43
487.881	15567.29
488.085	15237.57
488.289	15034.82
488.493	14408.14
488.697	14424.53
488.901	14209.49
489.105	13734.36
489.309	13717.98
489.512	13457.89
489.716	13027.81
489.92	12986.85
490.124	12857.83
490.328	12687.85
490.531	12382.7
490.735	12147.19
490.939	12020.21
491.143	11688.44
491.346	11596.28
491.55	11637.24
491.754	11104.77
491.958	10910.21
492.161	10701.32
492.365	10781.19
492.569	10404.36
492.772	10201.61
492.976	10246.67
493.18	9929.24
493.383	10072.59
493.587	9900.56
493.79	9845.27
493.994	9413.15
494.197	9529.88
494.401	9394.72
494.605	9325.08
494.808	9271.84
495.012	9089.57
495.215	9181.73
495.419	9220.64
495.622	8835.62
495.825	8811.04
496.029	8786.47
496.232	8796.71
496.436	8768.04
496.639	8880.68
496.843	8524.33
497.046	8743.46
497.249	8847.91
497.453	8710.69
497.656	8548.9
497.859	8673.83
498.063	8729.13
498.266	8962.59
498.469	8708.65
498.673	8796.71
498.876	8886.82
499.079	8856.1
499.282	8747.56
499.485	9142.82
499.689	8966.69
499.892	9116.19
500.095	8987.17
500.298	9218.59
500.501	8942.11
500.705	9183.77
500.908	9415.19
501.111	9359.9
501.314	9497.11
501.517	9728.53
501.72	9990.67
501.923	9822.74
502.126	9931.28
502.329	10138.13
502.532	10181.14
502.735	9925.14
502.938	10248.72
503.141	10236.43
503.344	10486.28
503.547	10748.42
503.75	10727.94
503.953	10971.65
504.156	11112.96
504.359	11024.9
504.562	11170.3
504.765	11565.56
504.968	11809.27
505.17	11866.61
505.373	11792.89
505.576	12001.78
505.779	12450.28
505.982	12614.12
506.185	13011.43
506.387	12810.73
506.59	13214.18
506.793	13646.3
506.996	13593.05
507.198	13969.88
507.401	14383.57
507.604	14506.45
507.807	14764.49
508.009	15010.25
508.212	15483.33
508.415	15704.51
508.617	16148.92
508.82	16320.95
509.022	16302.51
509.225	17070.5
509.428	17054.12
509.63	17295.78
509.833	17930.65
510.035	18489.74
510.238	18712.97
510.44	18880.91
510.643	19700.09
510.845	20087.16
511.048	20191.61
511.25	20734.32
511.453	21152.1
511.655	22100.31
511.858	22067.55
512.06	22692.18
512.262	23042.38
512.465	23570.75
512.667	24224.06
512.87	24453.43
513.072	25030.96
513.274	25848.1
513.477	26298.65
513.679	27087.12
513.881	27627.78
514.084	28061.95
514.286	28811.51
514.488	29444.33
514.69	30019.81
514.893	30798.04
515.095	31404.24
515.297	32067.78
515.499	32104.64
515.701	33202.35
515.904	34218.14
516.106	34412.7
516.308	35031.19
516.51	35877
516.712	36237.44
516.914	37531.76
517.116	38289.51
517.318	38295.65
517.52	39546.96
517.722	39575.63
517.925	40609.85
518.127	41510.96
518.329	42100.78
518.531	42389.54
518.733	43464.72
518.935	44103.69
519.136	44437.51
519.338	45342.71
519.54	45797.36
519.742	46690.27
519.944	47378.39
520.146	48138.19
520.348	48940.99
520.55	49027.01
520.752	49575.86
520.954	50646.95
521.155	50747.3
521.357	51613.59
521.559	52182.93
521.761	53288.83
521.963	52879.24
522.164	53741.43
522.366	53976.95
522.568	54767.46
522.77	54771.56
522.971	55508.83
523.173	55183.2
523.375	56004.44
523.576	56102.74
523.778	56272.72
523.98	56934.21
524.181	56889.16
524.383	56831.82
524.584	57450.3
524.786	57263.94
524.988	57468.73
525.189	57591.61
525.391	57589.56
525.592	57900.86
525.794	57757.5
525.995	57861.94
526.197	57417.53
526.398	57491.26
526.6	58163
526.801	57343.81
527.003	57157.44
527.204	56682.31
527.406	56934.21
527.607	56387.41
527.808	56635.21
528.01	55797.59
528.211	55533.4
528.412	56196.95
528.614	55181.15
528.815	54984.55
529.016	54636.39
529.218	53983.09
529.419	53444.48
529.62	53196.67
529.822	53034.88
530.023	52266.89
530.224	51767.19
530.425	51414.94
530.626	50409.39
530.828	50061.23
531.029	50651.05
531.23	49192.89
531.431	48566.21
531.632	48351.18
531.833	47878.1
532.035	47200.22
532.236	46784.48
532.437	46442.47
532.638	45350.9
532.839	45418.49
533.04	44875.77
533.241	43948.04
533.442	43747.34
533.643	42897.44
533.844	42395.68
534.045	41844.78
534.246	40785.98
534.447	40742.97
534.648	40300.61
534.849	39794.76
535.05	38768.73
535.251	38479.97
535.451	38072.42
535.652	37955.69
535.853	36642.94
536.054	36642.94
536.255	36642.94
536.456	35147.92
536.657	35238.03
536.857	34730.14
537.058	34205.86
537.259	33900.71
537.46	33554.6
537.66	32960.69
537.861	32178.37
538.062	32008.39
538.263	31693
538.463	30843.09
538.664	30908.63
538.865	30265.56
539.065	30419.16
539.266	29530.34
539.466	29397.23
539.667	28571.89
539.868	29165.81
540.068	28264.7
540.269	28018.94
540.469	27709.7
540.67	27046.16
540.87	27072.78
541.071	26466.58
541.271	26507.54
541.472	26069.28
541.672	25985.31
541.873	25383.21
542.073	25020.72
542.274	25221.42
542.474	24566.07
542.675	24148.28
542.875	24312.12
543.075	23695.68
543.276	23091.53
543.476	23138.63
543.676	23034.19
543.877	22624.59
544.077	22514
544.277	22118.75
544.478	21793.12
544.678	21877.08
544.878	21254.5
545.078	21123.43
545.279	20937.07
545.479	20408.69
545.679	20619.63
545.879	20205.94
546.079	20324.72
546.28	19904.89
546.48	19521.92
546.68	19712.38
546.88	19214.73
547.08	18930.06
547.28	18792.84
547.48	18260.37
547.68	18121.11
547.88	17914.27
548.081	17789.34
548.281	17365.41
548.481	17316.26
548.681	17385.89
548.881	17076.65
549.081	16814.51
549.28	16374.19
549.48	16200.12
549.68	16134.58
549.88	16138.68
550.08	15456.7
550.28	15432.13
550.48	15065.54
550.68	15022.53
550.88	14584.27
551.08	14115.28
551.279	14457.29
551.479	13910.49
551.679	14191.06
551.879	13771.22
552.079	13330.91
552.278	13248.99
552.478	13210.08
552.678	13007.33
552.878	12829.16
553.077	12370.41
553.277	12200.43
553.477	12243.44
553.676	11897.33
553.876	11962.87
554.076	11428.35
554.275	11608.57
554.475	11121.15
554.674	11215.36
554.874	10859.01
555.074	10781.19
555.273	10523.15
555.473	10584.59
555.672	10095.12
555.872	10056.21
556.071	9986.58
556.271	9992.72
556.47	9425.43
556.67	9527.83
556.869	9296.41
557.068	9200.16
557.268	8954.4
557.467	8800.8
557.667	8825.38
557.866	8679.97
558.065	8469.03
558.265	8391.21
558.464	8014.38
558.663	8145.45
558.863	7862.83
559.062	7909.94
559.261	7531.06
559.461	7725.62
559.66	7457.34
559.859	7205.44
560.058	7266.88
560.258	6883.91
560.457	7086.65
560.656	7029.31
560.855	6595.14
561.054	6738.5
561.253	6658.63
561.453	6519.37
561.652	6474.31
561.851	6224.46
562.05	6167.12
562.249	5923.41
562.448	6087.25
562.647	5868.11
562.846	5915.22
563.045	5902.93
563.244	5581.4
563.443	5671.51
563.642	5384.79
563.841	5380.7
564.04	5409.37
564.239	5335.64
564.438	5175.9
564.637	4956.77
564.836	4915.81
565.035	4883.04
565.234	4848.22
565.432	4799.07
565.631	4729.44
565.83	4743.78
566.029	4538.98
566.228	4450.92
566.427	4577.89
566.625	4311.66
566.824	4350.57
567.023	4336.23
567.222	4192.87
567.42	4162.16
567.619	4260.46
567.818	4153.96
568.016	4076.14
568.215	3998.32
568.414	3867.25
568.612	3766.9
568.811	3799.66
569.01	3580.53
569.208	3738.23
569.407	3621.49
569.605	3664.5
569.804	3498.61
570.002	3566.2
570.201	3273.34
570.4	3334.78
570.598	3267.19
570.797	3275.38
570.995	3177.08
571.193	3168.89
571.392	3123.84
571.59	2937.47
571.789	3068.54
571.987	2949.76
572.186	2994.81
572.384	2888.32
572.582	2962.05
572.781	2914.94
572.979	2650.75
573.177	2722.43
573.376	2775.68
573.574	2800.26
573.772	2491.01
573.971	2493.06
574.169	2423.43
574.367	2548.36
574.565	2622.08
574.763	2456.2
574.962	2474.63
575.16	2294.41
575.358	2298.5
575.556	2323.08
575.754	2310.79
575.952	2284.17
576.151	2267.78
576.349	2108.04
576.547	1954.44
576.745	1976.97
576.943	2081.42
577.141	2048.65
577.339	1921.68
577.537	1936.01
577.735	2040.46
577.933	1886.86
578.131	1811.09
578.329	1995.4
578.527	1831.57
578.725	1804.94
578.923	1718.93
579.121	1745.55
579.319	1622.67
579.516	1528.47
579.714	1831.57
579.912	1686.16
580.11	1538.71
580.308	1530.52
580.506	1450.64
580.704	1395.35
580.901	1405.59
581.099	1600.15
581.297	1428.12
581.495	1438.36
581.692	1469.08
581.89	1579.67
582.088	1409.69
582.285	1299.09
582.483	1274.52
582.681	1301.14
582.878	1264.28
583.076	1327.77
583.274	1272.47
583.471	1313.43
583.669	1215.13
583.866	1184.41
584.064	1188.5
584.262	1008.28
584.459	1024.67
584.657	1100.44
584.854	1192.6
585.052	1114.78
585.249	1141.4
585.447	1112.73
585.644	1067.67
585.841	1143.45
586.039	1071.77
586.236	1170.07
586.434	1016.48
586.631	916.12
586.828	1028.76
587.026	961.18
587.223	907.93
587.42	877.21
587.618	871.07
587.815	1010.33
588.012	936.6
588.21	930.46
588.407	957.08
588.604	973.47
588.801	852.64
588.999	858.78
589.196	973.47
589.393	834.21
589.59	821.92
589.787	893.6
589.984	883.36
590.182	922.27
590.379	764.57
590.576	778.91
590.773	850.59
590.97	785.05
591.167	805.53
591.364	780.96
591.561	750.24
591.758	903.84
591.955	871.07
592.152	692.9
592.349	717.47
592.546	717.47
592.743	709.28
592.94	750.24
593.137	803.49
593.334	826.01
593.531	877.21
593.727	903.84
593.924	791.2
594.121	803.49
594.318	744.1
594.515	807.58
594.712	932.51
594.908	928.41
595.105	746.14
595.302	819.87
595.499	893.6
595.696	916.12
595.892	780.96
596.089	975.52
596.286	991.9
596.482	1012.38
596.679	1020.57
596.876	963.23
597.072	1067.67
597.269	1063.58
597.466	1043.1
597.662	1012.38
597.859	1102.49
598.055	1174.17
598.252	1194.65
598.448	1290.9
598.645	1329.81
598.841	1338.01
599.038	1497.75
599.234	1499.8
599.431	1501.84
599.627	1575.57
599.824	1569.43
600.02	1604.24
600.217	1596.05
600.413	1720.98
600.609	1899.15
600.806	2077.32
601.002	1890.96
601.198	1847.95
601.395	2099.85
601.591	2187.91
601.787	2138.76
601.984	2306.7
602.18	2540.16
602.376	2517.64
602.572	2742.91
602.769	2699.91
602.965	2876.03
603.161	3021.44
603.357	3062.4
603.553	3299.96
603.75	3224.19
603.946	3402.36
604.142	3535.48
604.338	3572.34
604.534	3666.55
604.73	3713.65
604.926	3926.64
605.122	4082.28
605.318	4194.92
605.514	4373.1
605.71	4375.14
605.906	4733.54
606.102	4520.55
606.298	4958.81
606.494	4977.25
606.69	5417.56
606.886	5356.12
607.082	5235.29
607.278	5632.6
607.474	5810.77
607.67	5980.75
607.866	5835.35
608.062	6347.34
608.257	6373.96
608.453	6576.71
608.649	6836.8
608.845	6791.75
609.041	7094.85
609.236	7350.84
609.432	7625.27
609.628	7785.01
609.824	8018.48
610.019	8024.62
610.215	8411.69
610.411	8792.61
610.606	8888.87
610.802	8976.93
610.998	9275.93
611.193	9660.95
611.389	9638.42
611.584	10066.45
611.78	10140.18
611.976	10506.76
612.171	10856.97
612.367	11149.82
612.562	11717.11
612.758	11717.11
612.953	11813.37
613.149	12263.92
613.344	12718.57
613.539	13269.47
613.735	13605.34
613.93	13885.91
614.126	14221.78
614.321	14739.91
614.517	15098.31
614.712	15135.17
614.907	15737.27
615.103	16179.64
615.298	16476.59
615.493	17058.21
615.688	17312.16
615.884	18203.03
616.079	18125.21
616.274	18938.25
616.47	19069.32
616.665	19661.18
616.86	20046.2
617.055	20474.23
617.25	21117.29
617.445	21834.08
617.641	21936.48
617.836	22673.74
618.031	23069
618.226	24236.34
618.421	24330.55
618.616	25141.55
618.811	25239.85
619.006	26667.28
619.201	26456.34
619.396	27220.24
619.591	27769.09
619.786	28575.99
619.981	28735.73
620.176	29724.9
620.371	29913.31
620.566	30777.56
620.761	31424.72
620.956	32473.28
621.151	32311.49
621.346	33652.91
621.541	33407.15
621.735	34689.18
621.93	34920.6
622.125	35684.49
622.32	35940.49
622.515	37144.69
622.709	37691.5
622.904	38473.82
623.099	39356.5
623.294	40030.28
623.488	39983.18
623.683	41416.75
623.878	41447.47
624.072	42401.83
624.267	42786.85
624.462	43673.62
624.656	43911.18
624.851	45246.46
625.046	45774.83
625.24	46186.47
625.435	46428.13
625.629	47140.83
625.824	48089.04
626.018	48685
626.213	48560.07
626.407	49803.19
626.602	49627.06
626.796	50802.6
626.991	50651.05
627.185	51597.21
627.38	51517.34
627.574	51898.26
627.768	51908.5
627.963	52293.52
628.157	52246.41
628.352	52742.02
628.546	52510.6
628.74	53399.42
628.935	52397.96
629.129	53038.98
629.323	52307.85
629.517	51951.51
629.712	51732.37
629.906	51511.19
630.1	50405.29
630.294	50808.74
630.489	49749.94
630.683	49745.84
630.877	48717.76
631.071	47628.24
631.265	47134.68
631.459	46108.65
631.653	45090.81
631.848	44417.03
632.042	43264.02
632.236	41992.23
632.43	41257.01
632.624	40360
632.818	38656.09
633.012	37763.18
633.206	36733.05
633.4	35750.03
633.594	34087.07
633.788	33317.04
633.982	32299.2
634.176	31086.8
634.369	29575.4
634.563	28565.75
634.757	27539.72
634.951	26628.37
635.145	25549.09
635.339	24539.44
635.533	23703.87
635.726	22675.79
635.92	21711.2
636.114	21074.28
636.308	19861.88
636.501	19450.24
636.695	18504.08
636.889	17623.45
637.083	17000.87
637.276	16198.07
637.47	15378.88
637.664	14793.16
637.857	14422.48
638.051	13996.5
638.244	12966.37
638.438	12743.14
638.632	12147.19
638.825	11760.12
639.019	11389.44
639.212	10816.01
639.406	10496.52
639.599	9968.15
639.793	9673.24
639.986	9173.53
640.18	8981.03
640.373	8462.89
640.567	8344.11
640.76	7918.13
640.954	7621.17
641.147	7223.87
641.34	6912.58
641.534	6888
641.727	6693.44
641.92	6265.42
642.114	6177.36
642.307	5720.66
642.5	5706.32
642.694	5286.49
642.887	5100.12
643.08	5155.42
643.273	4983.39
643.467	4670.05
643.66	4391.53
643.853	4178.54
644.046	4067.95
644.239	4080.24
644.432	3707.51
644.626	3658.35
644.819	3568.24
645.012	3412.6
645.205	3338.87
645.398	3259
645.591	2988.67
645.784	2939.52
645.977	2722.43
646.17	2650.75
646.363	2503.3
646.556	2437.77
646.749	2337.41
646.942	2400.9
647.135	2103.95
647.328	2149
647.521	2091.66
647.714	2046.6
647.907	2028.17
648.099	1714.83
648.292	1741.46
648.485	1708.69
648.678	1507.99
648.871	1497.75
649.064	1458.84
649.256	1534.61
649.449	1464.98
649.642	1340.05
649.835	1286.81
650.027	1204.89
650.22	1325.72
650.413	1219.22
650.605	1151.64
650.798	1059.48
650.991	1106.59
651.183	1067.67
651.376	1055.39
651.568	1020.57
651.761	893.6
651.954	918.17
652.146	895.64
652.339	885.41
652.531	897.69
652.724	821.92
652.916	711.33
653.109	572.07
653.301	717.47
653.494	727.71
653.686	797.34
653.879	666.27
654.071	713.38
654.263	621.22
654.456	506.53
654.648	731.81
654.84	731.81
655.033	518.82
655.225	594.59
655.417	412.32
655.61	588.45
655.802	551.59
655.994	627.36
656.186	354.98
656.379	547.49
656.571	418.47
656.763	475.81
656.955	477.86
657.148	389.8
657.34	565.92
657.532	369.32
657.724	397.99
657.916	412.32
658.108	471.72
658.3	438.95
658.492	400.04
658.684	340.65
658.876	475.81
659.068	342.69
659.26	215.72
659.452	260.77
659.644	338.6
659.836	490.15
660.028	424.61
660.22	305.83
660.412	350.89
660.604	264.87
660.796	309.93
660.988	455.33
661.18	273.06
661.372	342.69
661.563	293.54
661.755	285.35
661.947	180.9
662.139	182.95
662.331	311.97
662.522	273.06
662.714	39.59
662.906	219.82
663.097	217.77
663.289	191.14
663.481	144.04
663.673	271.01
663.864	236.2
664.056	182.95
664.247	135.85
664.439	217.77
664.631	248.49
664.822	256.68
665.014	115.37
665.205	123.56
665.397	195.24
665.588	162.47
665.78	187.05
665.971	344.74
666.163	164.52
666.354	178.86
666.546	146.09
666.737	219.82
666.929	68.27
667.12	187.05
667.311	275.11
667.503	105.13
667.694	191.14
667.885	201.38
668.077	193.19
668.268	17.07
668.459	150.18
668.651	205.48
668.842	156.33
669.033	113.32
669.224	111.27
669.416	297.64
669.607	135.85
669.798	123.56
669.989	191.14
670.18	88.75
670.371	195.24
670.563	82.6
670.754	273.06
670.945	189.1
671.136	162.47
671.327	158.38
671.518	131.75
671.709	311.97
671.9	193.19
672.091	271.01
672.282	113.32
672.473	162.47
672.664	115.37
672.855	86.7
673.046	311.97
673.237	219.82
673.428	182.95
673.619	260.77
673.809	174.76
674	281.25
674.191	252.58
674.382	180.9
674.573	164.52
674.764	187.05
674.954	307.88
675.145	109.23
675.336	156.33
675.527	144.04
675.717	139.94
675.908	178.86
676.099	146.09
676.289	219.82
676.48	74.41
676.671	242.34
676.861	207.53
677.052	201.38
677.243	170.66
677.433	113.32
677.624	213.67
677.814	250.53
678.005	148.14
678.195	354.98
678.386	125.61
678.576	125.61
678.767	92.84
678.957	168.62
679.148	232.1
679.338	244.39
679.529	217.77
679.719	146.09
679.909	309.93
680.1	305.83
680.29	238.25
680.481	197.29
680.671	293.54
680.861	250.53
681.052	248.49
681.242	94.89
681.432	205.48
681.622	260.77
681.813	195.24
682.003	250.53
682.193	129.7
682.383	228.01
682.573	160.42
682.764	219.82
682.954	221.86
683.144	262.82
683.334	244.39
683.524	238.25
683.714	318.12
683.904	221.86
684.094	291.49
684.284	264.87
684.474	365.22
684.664	242.34
684.854	346.79
685.044	230.06
685.234	236.2
685.424	283.3
685.614	285.35
685.804	375.46
685.994	320.17
686.184	258.73
686.374	326.31
686.564	318.12
686.753	244.39
686.943	205.48
687.133	211.62
687.323	213.67
687.513	287.4
687.702	260.77
687.892	254.63
688.082	285.35
688.272	309.93
688.461	346.79
688.651	369.32
688.841	330.41
689.03	182.95
689.22	215.72
689.41	287.4
689.599	359.08
689.789	211.62
689.979	295.59
690.168	197.29
690.358	301.73
690.547	260.77
690.737	332.45
690.926	285.35
691.116	262.82
691.305	336.55
691.495	334.5
691.684	168.62
691.874	213.67
692.063	223.91
692.252	330.41
692.442	322.21
692.631	260.77
692.82	201.38
693.01	225.96
693.199	207.53
693.388	238.25
693.578	289.45
693.767	346.79
693.956	152.23
694.146	221.86
694.335	213.67
694.524	197.29
694.713	301.73
694.902	238.25
695.092	252.58
695.281	369.32
695.47	172.71
695.659	234.15
695.848	180.9
696.037	262.82
696.226	371.37
696.415	252.58
696.604	301.73
696.793	199.34
696.982	209.58
697.171	322.21
697.36	203.43
697.549	178.86
697.738	92.84
697.927	168.62
698.116	178.86
698.305	252.58
698.494	234.15
698.683	176.81
698.872	371.37
699.061	174.76
699.25	123.56
699.438	291.49
699.627	141.99
699.816	318.12
700.005	76.46
700.193	193.19
700.382	254.63
700.571	234.15
700.76	195.24
700.948	279.21
701.137	268.97
701.326	277.16
701.514	150.18
701.703	232.1
701.892	191.14
702.08	332.45
702.269	187.05
702.457	125.61
702.646	238.25
702.834	197.29
703.023	248.49
703.212	266.92
703.4	234.15
703.589	199.34
703.777	115.37
703.965	189.1
704.154	199.34
704.342	187.05
704.531	260.77
704.719	221.86
704.907	219.82
705.096	119.46
705.284	82.6
705.472	252.58
705.661	219.82
705.849	219.82
706.037	377.51
706.226	242.34
706.414	217.77
706.602	135.85
706.79	242.34
706.979	160.42
707.167	172.71
707.355	84.65
707.543	213.67
707.731	348.84
707.919	170.66
708.107	121.51
708.296	103.08
708.484	160.42
708.672	242.34
708.86	268.97
709.048	209.58
709.236	174.76
709.424	256.68
709.612	244.39
709.8	121.51
709.988	137.9
710.176	213.67
710.364	246.44
710.551	164.52
710.739	223.91
710.927	203.43
711.115	221.86
711.303	281.25
711.491	318.12
711.679	211.62
711.866	240.3
712.054	236.2
712.242	234.15
712.43	279.21
712.617	244.39
712.805	275.11
712.993	240.3
713.181	166.57
713.368	256.68
713.556	250.53
713.744	135.85
713.931	365.22
714.119	271.01
714.306	225.96
714.494	185
714.682	182.95
714.869	156.33
715.057	113.32
715.244	137.9
715.432	258.73
715.619	197.29
715.807	117.42
715.994	189.1
716.182	250.53
716.369	256.68
716.556	273.06
716.744	72.36
716.931	105.13
717.119	207.53
717.306	228.01
717.493	350.89
717.681	170.66
717.868	148.14
718.055	291.49
718.242	262.82
718.43	271.01
718.617	260.77
718.804	189.1
718.991	322.21
719.179	230.06
719.366	252.58
719.553	252.58
719.74	277.16
719.927	162.47
720.114	207.53
720.301	162.47
720.488	174.76
720.676	182.95
720.863	293.54
721.05	430.76
721.237	320.17
721.424	334.5
721.611	225.96
721.798	311.97
721.985	150.18
722.172	207.53
722.358	256.68
722.545	361.13
722.732	289.45
722.919	293.54
723.106	273.06
723.293	156.33
723.48	287.4
723.667	248.49
723.853	311.97
724.04	285.35
724.227	303.78
724.414	225.96
724.6	340.65
724.787	350.89
724.974	379.56
725.161	307.88
725.347	211.62
725.534	187.05
725.72	316.07
725.907	316.07
726.094	268.97
726.28	113.32
726.467	248.49
726.653	201.38
726.84	363.17
727.027	379.56
727.213	248.49
727.4	268.97
727.586	205.48
727.773	215.72
727.959	275.11
728.145	266.92
728.332	273.06
728.518	260.77
728.705	301.73
728.891	215.72
729.077	285.35
729.264	168.62
729.45	260.77
729.636	389.8
729.823	279.21
730.009	334.5
730.195	367.27
730.382	320.17
730.568	174.76
730.754	250.53
730.94	336.55
731.126	316.07
731.313	258.73
731.499	324.26
731.685	266.92
731.871	238.25
732.057	305.83
732.243	322.21
732.429	281.25
732.615	377.51
732.801	271.01
732.987	279.21
733.173	314.02
733.359	174.76
733.545	342.69
733.731	203.43
733.917	342.69
734.103	297.64
734.289	299.69
734.475	228.01
734.661	500.39
734.847	250.53
735.033	330.41
735.219	311.97
735.404	328.36
735.59	305.83
735.776	203.43
735.962	244.39
736.148	330.41
736.333	332.45
736.519	344.74
736.705	281.25
736.89	244.39
737.076	297.64
737.262	199.34
737.447	271.01
737.633	207.53
737.819	285.35
738.004	281.25
738.19	262.82
738.375	240.3
738.561	268.97
738.747	295.59
738.932	211.62
739.118	449.19
739.303	295.59
739.489	297.64
739.674	273.06
739.859	160.42
740.045	393.89
740.23	291.49
740.416	205.48
740.601	260.77
740.786	314.02
740.972	139.94
741.157	279.21
741.342	223.91
741.528	127.66
741.713	402.08
741.898	330.41
742.084	293.54
742.269	172.71
742.454	305.83
742.639	330.41
742.824	287.4
743.01	332.45
743.195	359.08
743.38	336.55
743.565	277.16
743.75	371.37
743.935	303.78
744.12	371.37
744.305	211.62
744.49	205.48
744.675	230.06
744.86	234.15
745.045	311.97
745.23	281.25
745.415	258.73
745.6	383.65
745.785	213.67
745.97	256.68
746.155	332.45
746.34	262.82
746.525	266.92
746.71	361.13
746.895	176.81
747.079	197.29
747.264	197.29
747.449	381.6
747.634	397.99
747.819	279.21
748.003	268.97
748.188	180.9
748.373	232.1
748.557	295.59
748.742	225.96
748.927	185
749.111	201.38
749.296	248.49
749.481	275.11
749.665	307.88
749.85	238.25
750.034	219.82
750.219	228.01
750.404	324.26
750.588	293.54
750.773	176.81
750.957	289.45
751.141	193.19
751.326	289.45
751.51	172.71
751.695	152.23
751.879	141.99
752.064	391.84
752.248	154.28
752.432	299.69
752.617	273.06
752.801	322.21
752.985	182.95
753.17	299.69
753.354	223.91
753.538	285.35
753.722	174.76
753.907	219.82
754.091	62.12
754.275	254.63
754.459	141.99
754.643	111.27
754.828	168.62
755.012	154.28
755.196	113.32
755.38	182.95
755.564	90.79
755.748	98.99
755.932	275.11
756.116	223.91
756.3	236.2
756.484	90.79
756.668	201.38
756.852	131.75
757.036	144.04
757.22	189.1
757.404	146.09
757.588	182.95
757.772	230.06
757.956	131.75
758.14	322.21
758.323	125.61
758.507	281.25
758.691	76.46
758.875	178.86
759.059	281.25
759.242	139.94
759.426	148.14
759.61	178.86
759.794	84.65
759.977	240.3
760.161	363.17
760.345	234.15
760.528	178.86
760.712	156.33
760.895	176.81
761.079	213.67
761.263	37.55
761.446	154.28
761.63	119.46
761.813	268.97
761.997	43.69
762.18	96.94
762.364	182.95
762.547	-77.14
762.731	146.09
762.914	86.7
763.098	146.09
763.281	174.76
763.464	31.4
763.648	178.86
763.831	107.18
764.015	133.8
764.198	221.86
764.381	94.89
764.564	168.62
764.748	98.99
764.931	213.67
765.114	109.23
765.297	221.86
765.481	123.56
765.664	150.18
765.847	88.75
766.03	262.82
766.213	94.89
766.397	47.79
766.58	49.83
766.763	141.99
766.946	121.51
767.129	92.84
767.312	8.87
767.495	125.61
767.678	72.36
767.861	17.07
768.044	133.8
768.227	88.75
768.41	10.92
768.593	152.23
768.776	55.98
768.959	66.22
769.142	94.89
769.324	129.7
769.507	51.88
769.69	103.08
769.873	160.42
770.056	213.67
770.239	150.18
770.421	160.42
770.604	158.38
770.787	72.36
770.97	109.23
771.152	76.46
771.335	137.9
771.518	101.03
771.7	205.48
771.883	191.14
772.066	78.51
772.248	152.23
772.431	166.57
772.613	129.7
772.796	76.46
772.978	43.69
773.161	152.23
773.343	6.83
773.526	72.36
773.708	2.73
773.891	17.07
774.073	49.83
774.256	70.31
774.438	213.67
774.621	47.79
774.803	133.8
774.985	103.08
775.168	133.8
775.35	68.27
775.532	74.41
775.715	55.98
775.897	70.31
776.079	39.59
776.261	53.93
776.444	51.88
776.626	94.89
776.808	15.02
776.99	-30.04
777.173	123.56
777.355	15.02
777.537	47.79
777.719	64.17
777.901	37.55
778.083	15.02
778.265	-30.04
778.447	164.52
778.629	25.26
778.811	62.12
778.993	47.79
779.175	158.38
779.357	107.18
779.539	-81.24
779.721	51.88
779.903	33.45
780.085	66.22
780.267	119.46
780.449	53.93
780.631	62.12
780.812	139.94
780.994	51.88
781.176	15.02
781.358	-21.85
781.54	4.78
781.721	90.79
781.903	25.26
782.085	68.27
782.267	117.42
782.448	8.87
782.63	2.73
782.812	43.69
782.993	92.84
783.175	107.18
783.357	8.87
783.538	27.31
783.72	4.78
783.901	49.83
784.083	21.16
784.264	80.55
784.446	-17.75
784.627	-15.7
784.809	45.74
784.99	-3.41
785.172	10.92
785.353	17.07
785.535	92.84
785.716	47.79
785.897	6.83
786.079	12.97
786.26	78.51
786.441	53.93
786.623	-89.43
786.804	0.68
786.985	49.83
787.167	109.23
787.348	86.7
787.529	35.5
787.71	199.34
787.891	96.94
788.073	84.65
788.254	-77.14
788.435	176.81
788.616	58.03
788.797	-101.72
788.978	27.31
789.159	-66.9
789.34	127.66
789.522	-5.46
789.703	2.73
789.884	125.61
790.065	29.35
790.246	160.42
790.427	92.84
790.607	146.09
790.788	125.61
790.969	-3.41
791.15	45.74
791.331	41.64
791.512	-15.7
791.693	-77.14
791.874	-17.75
792.054	195.24
792.235	78.51
792.416	-30.04
792.597	-68.95
792.778	168.62
792.958	29.35
793.139	15.02
793.32	27.31
793.5	-13.65
793.681	244.39
793.862	10.92
794.042	88.75
794.223	-103.76
794.404	-27.99
794.584	-85.33
794.765	-9.56
794.945	19.11
795.126	119.46
795.306	70.31
795.487	4.78
795.667	55.98
795.848	66.22
796.028	45.74
796.209	-48.47
796.389	58.03
796.57	51.88
796.75	6.83
796.93	68.27
797.111	-66.9
797.291	-13.65
797.471	101.03
797.652	-34.13
797.832	-50.52
798.012	150.18
798.192	-60.76
798.373	-122.2
798.553	-50.52
798.733	86.7
798.913	-66.9
799.093	-9.56
799.274	43.69
799.454	80.55
799.634	25.26
799.814	88.75
799.994	55.98
800.174	37.55
800.354	-42.32
800.534	-46.42
800.714	80.55
800.894	-105.81
801.074	-56.66
801.254	-77.14
801.434	182.95
801.614	-9.56
801.794	-13.65
801.974	1882.77
802.154	-23.89
802.334	-50.52
802.514	-44.37
802.693	12.97
802.873	15.02
803.053	133.8
803.233	88.75
803.413	-30.04
803.592	53.93
803.772	12.97
803.952	37.55
804.131	-32.08
804.311	96.94
804.491	33.45
804.67	-60.76
804.85	53.93
805.03	15.02
805.209	90.79
805.389	-71
805.568	27.31
805.748	-21.85
805.928	-21.85
806.107	-17.75
806.287	66.22
806.466	98.99
806.646	-7.51
806.825	-7.51
807.004	10.92
807.184	70.31
807.363	-46.42
807.543	10.92
807.722	-40.28
807.901	160.42
808.081	121.51
808.26	-157.01
808.439	27.31
808.619	29.35
808.798	-36.18
808.977	74.41
809.156	82.6
809.336	45.74
809.515	152.23
809.694	-79.19
809.873	-109.91
810.052	109.23
810.231	53.93
810.411	29.35
810.59	17.07
810.769	58.03
810.948	37.55
811.127	-122.2
811.306	-77.14
811.485	-25.94
811.664	182.95
811.843	21.16
812.022	-1.37
812.201	-13.65
812.38	37.55
812.559	-79.19
812.737	62.12
812.916	-169.3
813.095	-38.23
813.274	45.74
813.453	72.36
813.632	94.89
813.811	78.51
813.989	-48.47
814.168	-23.89
814.347	-83.28
814.526	96.94
814.704	168.62
814.883	176.81
815.062	-75.09
815.24	33.45
815.419	-83.28
815.598	72.36
815.776	-85.33
815.955	-21.85
816.133	-146.77
816.312	35.5
816.49	10.92
816.669	25.26
816.847	-36.18
817.026	23.21
817.204	-64.85
817.383	25.26
817.561	-71
817.74	49.83
817.918	33.45
818.097	-9.56
818.275	33.45
818.453	64.17
818.632	45.74
818.81	-1.37
818.988	55.98
819.167	45.74
819.345	27.31
819.523	-7.51
819.701	0.68
819.879	2.73
820.058	60.07
820.236	33.45
820.414	-21.85
820.592	-25.94
820.77	8.87
820.948	-7.51
821.127	6.83
821.305	27.31
821.483	-36.18
821.661	55.98
821.839	-64.85
822.017	-71
822.195	-11.61
822.373	49.83
822.551	-5.46
822.729	131.75
822.907	-30.04
823.085	35.5
823.262	68.27
823.44	-71
823.618	39.59
823.796	27.31
823.974	-111.96
824.152	8.87
824.329	33.45
824.507	10.92
824.685	76.46
824.863	-5.46
825.04	90.79
825.218	27.31
825.396	-60.76
825.574	27.31
825.751	66.22
825.929	27.31
826.107	-54.61
826.284	8.87
826.462	-5.46
826.639	-75.09
826.817	-7.51
826.994	43.69
827.172	-32.08
827.349	137.9
827.527	10.92
827.704	8.87
827.882	64.17
828.059	-9.56
828.237	-38.23
828.414	39.59
828.591	-195.92
828.769	4.78
828.946	-54.61
829.124	64.17
829.301	58.03
829.478	-21.85
829.655	12.97
829.833	19.11
830.01	-126.29
830.187	-30.04
830.364	-56.66
830.542	53.93
830.719	105.13
830.896	31.4
831.073	-1.37
831.25	-13.65
831.427	86.7
831.604	21.16
831.782	-40.28
831.959	-11.61
832.136	-5.46
832.313	45.74
832.49	6.83
832.667	-23.89
832.844	-50.52
833.021	62.12
833.198	-7.51
833.374	-23.89
833.551	96.94
833.728	17.07
833.905	66.22
834.082	-25.94
834.259	-15.7
834.436	78.51
834.612	-46.42
834.789	103.08
834.966	51.88
835.143	47.79
835.319	-83.28
835.496	12.97
835.673	-68.95
835.85	35.5
836.026	-68.95
836.203	58.03
836.38	-42.32
836.556	10.92
836.733	-85.33
836.909	8.87
837.086	78.51
837.262	-46.42
837.439	-17.75
837.616	-30.04
837.792	37.55
837.968	4.78
838.145	-122.2
838.321	-7.51
838.498	58.03
838.674	-17.75
838.851	88.75
839.027	-25.94
839.203	-15.7
839.38	-27.99
839.556	-15.7
839.732	-3.41
839.909	37.55
840.085	23.21
840.261	-109.91
840.437	-19.8
840.614	-68.95
840.79	84.65
840.966	23.21
841.142	70.31
841.318	25.26
841.494	35.5
841.671	107.18
841.847	-85.33
842.023	-1.37
842.199	25.26
842.375	68.27
842.551	-93.52
842.727	-89.43
842.903	152.23
843.079	-60.76
843.255	41.64
843.431	-87.38
843.607	-7.51
843.783	-154.96
843.959	60.07
844.134	-142.68
844.31	49.83
844.486	-58.71
844.662	-64.85
844.838	-15.7
845.013	21.16
845.189	105.13
845.365	-36.18
845.541	-50.52
845.716	33.45
845.892	80.55
846.068	-66.9
846.244	-87.38
846.419	131.75
846.595	-114
846.77	-91.48
846.946	62.12
847.122	-48.47
847.297	-62.8
847.473	62.12
847.648	-85.33
847.824	17.07
847.999	-81.24
848.175	-48.47
848.35	-15.7
848.526	70.31
848.701	19.11
848.876	72.36
849.052	101.03
849.227	-15.7
849.403	41.64
849.578	-1.37
849.753	43.69
849.929	92.84
850.104	-58.71
850.279	15.02
850.454	15.02
850.63	8.87
850.805	60.07
850.98	53.93
851.155	-64.85
851.33	47.79
851.505	-142.68
851.681	31.4
851.856	0.68
852.031	33.45
852.206	15.02
852.381	-17.75
852.556	-9.56
852.731	-34.13
852.906	25.26
853.081	-15.7
853.256	86.7
853.431	-11.61
853.606	-27.99
853.781	-42.32
853.956	-165.2
854.131	27.31
854.305	-136.53
854.48	-40.28
854.655	-7.51
854.83	-99.67
855.005	10.92
855.18	12.97
855.354	-56.66
855.529	64.17
855.704	4.78
855.879	109.23
856.053	-71
856.228	-23.89
856.403	-116.05
856.577	76.46
856.752	-60.76
856.926	-75.09
857.101	37.55
857.276	-97.62
857.45	0.68
857.625	10.92
857.799	-1.37
857.974	-36.18
858.148	-30.04
858.323	-27.99
858.497	-105.81
858.672	8.87
858.846	-58.71
859.02	53.93
859.195	-40.28
859.369	19.11
859.543	0.68
859.718	25.26
859.892	39.59
860.066	0.68
860.241	-36.18
860.415	21.16
860.589	-27.99
860.763	4.78
860.938	-23.89
861.112	47.79
861.286	-58.71
861.46	-11.61
861.634	-32.08
861.808	72.36
861.982	-50.52
862.157	-64.85
862.331	-52.56
862.505	-140.63
862.679	-87.38
862.853	4.78
863.027	-130.39
863.201	115.37
863.375	-36.18
863.549	2.73
863.722	43.69
863.896	82.6
864.07	-56.66
864.244	-64.85
864.418	41.64
864.592	-46.42
864.766	-50.52
864.939	6.83
865.113	-34.13
865.287	131.75
865.461	-27.99
865.634	23.21
865.808	0.68
865.982	-50.52
866.156	-99.67
866.329	-21.85
866.503	62.12
866.676	125.61
866.85	-25.94
867.024	-81.24
867.197	49.83
867.371	49.83
867.544	115.37
867.718	-81.24
867.891	90.79
868.065	-101.72
868.238	-3.41
868.412	66.22
868.585	31.4
868.759	-91.48
868.932	27.31
869.105	-5.46
869.279	-89.43
869.452	-7.51
869.625	-13.65
869.799	6.83
869.972	-126.29
870.145	17.07
870.319	-1.37
870.492	-50.52
870.665	-32.08
870.838	-99.67
871.011	-87.38
871.185	-99.67
871.358	-68.95
871.531	-15.7
871.704	-11.61
871.877	35.5
872.05	-83.28
872.223	-146.77
872.396	-50.52
872.569	-19.8
872.742	-79.19
872.915	17.07
873.088	-46.42
873.261	-21.85
873.434	107.18
873.607	19.11
873.78	123.56
873.953	-114
874.126	92.84
874.299	12.97
874.471	58.03
874.644	-56.66
874.817	92.84
874.99	148.14
875.163	-3.41
875.335	-32.08
875.508	-77.14
875.681	131.75
875.853	-38.23
876.026	-38.23
876.199	90.79
876.371	-23.89
876.544	-66.9
876.717	-5.46
876.889	-5.46
877.062	101.03
877.234	-93.52
877.407	-77.14
877.579	-58.71
877.752	-11.61
877.924	49.83
878.097	10.92
878.269	-62.8
878.442	70.31
878.614	17.07
878.786	2.73
878.959	41.64
879.131	43.69
879.303	-118.1
879.476	29.35
879.648	66.22
879.82	47.79
879.993	-62.8
880.165	-13.65
880.337	-144.72
880.509	105.13
880.681	-75.09
880.854	10.92
881.026	31.4
881.198	129.7
881.37	35.5
881.542	33.45
881.714	2.73
881.886	-48.47
882.058	41.64
882.23	84.65
882.402	35.5
882.574	-34.13
882.746	86.7
882.918	164.52
883.09	-58.71
883.262	-97.62
883.434	2.73
883.606	-30.04
883.778	-30.04
883.95	160.42
884.122	12.97
884.293	39.59
884.465	2.73
884.637	35.5
884.809	-5.46
884.98	15.02
885.152	43.69
885.324	4.78
885.496	-140.63
885.667	-38.23
885.839	-48.47
886.011	31.4
886.182	78.51
886.354	51.88
886.525	-40.28
886.697	35.5
886.869	-77.14
887.04	-25.94
887.212	127.66
887.383	70.31
887.555	-11.61
887.726	-44.37
887.897	-60.76
888.069	-5.46
888.24	2.73
888.412	-54.61
888.583	55.98
888.754	-40.28
888.926	-87.38
889.097	-85.33
889.268	-5.46
889.44	-3.41
889.611	-42.32
889.782	-114
889.953	-83.28
890.125	96.94
890.296	-46.42
890.467	-25.94
890.638	6.83
890.809	-109.91
890.98	-46.42
891.151	37.55
891.323	139.94
891.494	-50.52
891.665	23.21
891.836	-1.37
892.007	27.31
892.178	23.21
892.349	41.64
892.52	-138.58
892.691	39.59
892.862	-75.09
893.032	-107.86
893.203	-68.95
893.374	23.21
893.545	113.32
893.716	-132.44
893.887	-7.51
894.057	0.68
894.228	8.87
894.399	-19.8
894.57	109.23
894.74	6.83
894.911	70.31
895.082	-38.23
895.253	-81.24
895.423	12.97
895.594	51.88
895.764	35.5
895.935	-122.2
896.106	25.26
896.276	4.78
896.447	15.02
896.617	-56.66
896.788	-99.67
896.958	-60.76
897.129	-13.65
897.299	-83.28
897.47	47.79
897.64	144.04
897.81	-87.38
897.981	43.69
898.151	-95.57
898.322	33.45
898.492	101.03
898.662	-56.66
898.832	-38.23
899.003	-21.85
899.173	107.18
899.343	-62.8
899.513	-79.19
