Data from USB4F104151__138__11-04-01-041.txt Node

Date: Wed Feb 26 11:04:01 EST 2025
User: louis
Spectrometer: USB4F10415
Trigger mode: 4
Integration Time (sec): 1.000000E-1
Scans to average: 1
Electric dark correction enabled: true
Nonlinearity correction enabled: false
Boxcar width: 0
XAxis mode: Wavelengths
Number of Pixels in Spectrum: 3648
>>>>>Begin Spectral Data<<<<<
178.204	-317.44
178.424	-317.44
178.644	-317.44
178.864	-413.69
179.084	-409.59
179.304	-86.01
179.524	-38.91
179.744	28.67
179.964	77.82
180.184	-6.14
180.404	77.82
180.624	-30.72
180.844	49.15
181.064	-92.16
181.283	22.53
181.503	-24.58
181.723	22.53
181.943	-43.01
182.163	155.65
182.383	34.82
182.602	92.16
182.822	176.13
183.042	104.45
183.262	24.58
183.482	40.96
183.701	75.77
183.921	100.35
184.141	-55.3
184.361	94.21
184.58	-36.86
184.8	22.53
185.02	-34.82
185.239	114.69
185.459	63.49
185.679	102.4
185.898	-151.55
186.118	61.44
186.338	-8.19
186.557	106.49
186.777	-53.25
186.997	106.49
187.216	36.86
187.436	194.56
187.655	57.34
187.875	110.59
188.095	36.86
188.314	92.16
188.534	92.16
188.753	-16.38
188.973	81.92
189.192	141.31
189.412	36.86
189.631	20.48
189.851	69.63
190.07	135.17
190.29	-16.38
190.509	-24.58
190.729	-22.53
190.948	200.7
191.168	258.04
191.387	61.44
191.607	-8.19
191.826	116.73
192.045	47.1
192.265	0
192.484	-22.53
192.704	53.25
192.923	-18.43
193.142	155.65
193.362	98.3
193.581	172.03
193.8	34.82
194.02	94.21
194.239	55.3
194.458	90.11
194.678	-61.44
194.897	32.77
195.116	92.16
195.335	30.72
195.555	0
195.774	8.19
195.993	124.93
196.212	34.82
196.432	-4.1
196.651	-10.24
196.87	28.67
197.089	256
197.308	114.69
197.528	28.67
197.747	-49.15
197.966	22.53
198.185	147.45
198.404	-20.48
198.623	116.73
198.842	153.6
199.062	88.06
199.281	135.17
199.5	114.69
199.719	55.3
199.938	12.29
200.157	112.64
200.376	108.54
200.595	108.54
200.814	102.4
201.033	-40.96
201.252	106.49
201.471	-4.1
201.69	77.82
201.909	4.1
202.128	75.77
202.347	47.1
202.566	69.63
202.785	-55.3
203.004	4.1
203.223	253.95
203.442	20.48
203.661	-61.44
203.879	51.2
204.098	182.27
204.317	-4.1
204.536	118.78
204.755	45.06
204.974	116.73
205.193	34.82
205.411	143.36
205.63	126.97
205.849	92.16
206.068	20.48
206.287	-14.34
206.505	133.12
206.724	-18.43
206.943	2.05
207.162	-34.82
207.381	71.68
207.599	22.53
207.818	43.01
208.037	-45.06
208.255	-12.29
208.474	61.44
208.693	71.68
208.911	36.86
209.13	129.02
209.349	49.15
209.567	79.87
209.786	71.68
210.005	98.3
210.223	26.62
210.442	-75.77
210.661	-14.34
210.879	8.19
211.098	53.25
211.316	77.82
211.535	122.88
211.753	-24.58
211.972	90.11
212.191	-30.72
212.409	-10.24
212.628	83.97
212.846	28.67
213.065	-43.01
213.283	114.69
213.502	110.59
213.72	36.86
213.938	151.55
214.157	10.24
214.375	24.58
214.594	59.39
214.812	94.21
215.031	30.72
215.249	20.48
215.467	73.73
215.686	86.01
215.904	126.97
216.122	79.87
216.341	165.89
216.559	104.45
216.778	71.68
216.996	145.41
217.214	32.77
217.432	36.86
217.651	-94.21
217.869	-12.29
218.087	-4.1
218.306	-24.58
218.524	-4.1
218.742	75.77
218.96	57.34
219.179	12.29
219.397	-30.72
219.615	268.28
219.833	167.93
220.051	-40.96
220.27	102.4
220.488	94.21
220.706	-22.53
220.924	-14.34
221.142	-38.91
221.36	-10.24
221.578	24.58
221.796	14.34
222.015	-32.77
222.233	51.2
222.451	155.65
222.669	-34.82
222.887	67.58
223.105	8.19
223.323	-14.34
223.541	-10.24
223.759	79.87
223.977	-30.72
224.195	141.31
224.413	96.25
224.631	32.77
224.849	55.3
225.067	167.93
225.285	-36.86
225.503	4.1
225.721	-16.38
225.939	0
226.157	45.06
226.375	186.37
226.592	83.97
226.81	28.67
227.028	67.58
227.246	45.06
227.464	-8.19
227.682	69.63
227.9	104.45
228.117	61.44
228.335	94.21
228.553	45.06
228.771	-6.14
228.989	45.06
229.206	122.88
229.424	63.49
229.642	63.49
229.86	-12.29
230.077	57.34
230.295	67.58
230.513	110.59
230.731	108.54
230.948	110.59
231.166	110.59
231.384	67.58
231.601	2.05
231.819	176.13
232.037	22.53
232.254	-4.1
232.472	43.01
232.689	-2.05
232.907	118.78
233.125	-67.58
233.342	-14.34
233.56	59.39
233.777	65.54
233.995	79.87
234.213	157.69
234.43	83.97
234.648	79.87
234.865	-30.72
235.083	143.36
235.3	110.59
235.518	139.26
235.735	157.69
235.953	79.87
236.17	30.72
236.388	61.44
236.605	-10.24
236.822	104.45
237.04	53.25
237.257	34.82
237.475	-38.91
237.692	77.82
237.909	94.21
238.127	2.05
238.344	57.34
238.562	59.39
238.779	-14.34
238.996	4.1
239.214	0
239.431	65.54
239.648	-75.77
239.865	180.22
240.083	22.53
240.3	61.44
240.517	14.34
240.735	30.72
240.952	137.21
241.169	77.82
241.386	32.77
241.603	8.19
241.821	-22.53
242.038	137.21
242.255	75.77
242.472	-36.86
242.689	34.82
242.907	40.96
243.124	45.06
243.341	36.86
243.558	32.77
243.775	-8.19
243.992	-28.67
244.209	86.01
244.426	143.36
244.643	116.73
244.86	22.53
245.078	86.01
245.295	149.5
245.512	22.53
245.729	-36.86
245.946	137.21
246.163	20.48
246.38	20.48
246.597	47.1
246.814	122.88
247.031	43.01
247.248	24.58
247.464	88.06
247.681	-8.19
247.898	16.38
248.115	-6.14
248.332	-57.34
248.549	139.26
248.766	145.41
248.983	106.49
249.2	108.54
249.417	147.45
249.633	-53.25
249.85	32.77
250.067	-22.53
250.284	114.69
250.501	28.67
250.717	90.11
250.934	16.38
251.151	28.67
251.368	8.19
251.585	40.96
251.801	55.3
252.018	-4.1
252.235	114.69
252.451	12.29
252.668	22.53
252.885	114.69
253.102	51.2
253.318	10.24
253.535	26.62
253.752	22.53
253.968	-47.1
254.185	-43.01
254.401	32.77
254.618	67.58
254.835	61.44
255.051	141.31
255.268	63.49
255.484	67.58
255.701	6.14
255.917	34.82
256.134	-63.49
256.351	45.06
256.567	38.91
256.784	49.15
257	-49.15
257.217	59.39
257.433	139.26
257.65	14.34
257.866	182.27
258.082	-71.68
258.299	-43.01
258.515	-4.1
258.732	22.53
258.948	57.34
259.165	45.06
259.381	16.38
259.597	71.68
259.814	26.62
260.03	81.92
260.246	120.83
260.463	120.83
260.679	147.45
260.895	73.73
261.112	51.2
261.328	57.34
261.544	-45.06
261.761	194.56
261.977	-30.72
262.193	-28.67
262.409	59.39
262.626	81.92
262.842	16.38
263.058	16.38
263.274	90.11
263.49	61.44
263.707	59.39
263.923	129.02
264.139	-26.62
264.355	51.2
264.571	98.3
264.787	129.02
265.004	112.64
265.22	-28.67
265.436	-53.25
265.652	67.58
265.868	77.82
266.084	-38.91
266.3	51.2
266.516	-16.38
266.732	77.82
266.948	10.24
267.164	-51.2
267.38	81.92
267.596	12.29
267.812	157.69
268.028	57.34
268.244	43.01
268.46	36.86
268.676	12.29
268.892	22.53
269.108	0
269.324	-34.82
269.54	-88.06
269.756	24.58
269.972	-16.38
270.188	24.58
270.403	22.53
270.619	22.53
270.835	129.02
271.051	28.67
271.267	43.01
271.483	12.29
271.698	124.93
271.914	-12.29
272.13	49.15
272.346	6.14
272.562	67.58
272.777	51.2
272.993	12.29
273.209	20.48
273.425	75.77
273.64	-51.2
273.856	61.44
274.072	2.05
274.287	-2.05
274.503	75.77
274.719	88.06
274.934	-43.01
275.15	-75.77
275.366	118.78
275.581	10.24
275.797	-6.14
276.012	49.15
276.228	-36.86
276.444	22.53
276.659	94.21
276.875	-63.49
277.09	-20.48
277.306	34.82
277.521	59.39
277.737	40.96
277.952	163.84
278.168	22.53
278.383	-4.1
278.599	6.14
278.814	143.36
279.03	45.06
279.245	159.74
279.461	65.54
279.676	40.96
279.892	-57.34
280.107	-45.06
280.322	-6.14
280.538	69.63
280.753	38.91
280.969	57.34
281.184	16.38
281.399	210.94
281.615	43.01
281.83	141.31
282.045	-67.58
282.26	26.62
282.476	-43.01
282.691	135.17
282.906	94.21
283.122	110.59
283.337	-4.1
283.552	102.4
283.767	18.43
283.983	36.86
284.198	36.86
284.413	67.58
284.628	-8.19
284.843	38.91
285.058	108.54
285.274	40.96
285.489	-83.97
285.704	161.79
285.919	-6.14
286.134	40.96
286.349	47.1
286.564	8.19
286.779	100.35
286.995	12.29
287.21	-18.43
287.425	98.3
287.64	-2.05
287.855	6.14
288.07	-40.96
288.285	102.4
288.5	61.44
288.715	69.63
288.93	-32.77
289.145	4.1
289.36	90.11
289.575	-2.05
289.79	100.35
290.004	10.24
290.219	94.21
290.434	-36.86
290.649	-14.34
290.864	8.19
291.079	-18.43
291.294	10.24
291.509	47.1
291.724	47.1
291.938	-24.58
292.153	47.1
292.368	36.86
292.583	69.63
292.798	77.82
293.012	49.15
293.227	126.97
293.442	-53.25
293.657	100.35
293.871	133.12
294.086	106.49
294.301	163.84
294.516	75.77
294.73	28.67
294.945	40.96
295.16	83.97
295.374	169.98
295.589	88.06
295.804	-10.24
296.018	12.29
296.233	81.92
296.447	-16.38
296.662	-51.2
296.877	122.88
297.091	4.1
297.306	-24.58
297.52	32.77
297.735	83.97
297.949	12.29
298.164	28.67
298.378	143.36
298.593	-55.3
298.807	38.91
299.022	90.11
299.236	122.88
299.451	-18.43
299.665	4.1
299.88	26.62
300.094	79.87
300.309	26.62
300.523	24.58
300.737	77.82
300.952	135.17
301.166	55.3
301.381	79.87
301.595	-6.14
301.809	40.96
302.024	32.77
302.238	-73.73
302.452	88.06
302.667	12.29
302.881	96.25
303.095	94.21
303.309	63.49
303.524	6.14
303.738	-22.53
303.952	-81.92
304.166	40.96
304.381	-57.34
304.595	184.32
304.809	-36.86
305.023	-20.48
305.237	12.29
305.452	-47.1
305.666	114.69
305.88	73.73
306.094	135.17
306.308	129.02
306.522	102.4
306.736	83.97
306.95	12.29
307.164	75.77
307.379	2.05
307.593	133.12
307.807	116.73
308.021	73.73
308.235	104.45
308.449	-118.78
308.663	-20.48
308.877	272.38
309.091	143.36
309.305	75.77
309.519	-32.77
309.733	176.13
309.947	-88.06
310.161	69.63
310.374	36.86
310.588	198.65
310.802	-45.06
311.016	-14.34
311.23	90.11
311.444	67.58
311.658	18.43
311.872	83.97
312.085	122.88
312.299	120.83
312.513	135.17
312.727	67.58
312.941	-20.48
313.154	106.49
313.368	61.44
313.582	110.59
313.796	4.1
314.009	79.87
314.223	141.31
314.437	14.34
314.651	118.78
314.864	-10.24
315.078	-45.06
315.292	-69.63
315.505	18.43
315.719	51.2
315.933	98.3
316.146	28.67
316.36	-38.91
316.573	204.8
316.787	100.35
317.001	36.86
317.214	-51.2
317.428	6.14
317.641	-67.58
317.855	-71.68
318.068	36.86
318.282	114.69
318.495	135.17
318.709	38.91
318.922	2.05
319.136	139.26
319.349	141.31
319.563	10.24
319.776	104.45
319.99	-59.39
320.203	22.53
320.417	-10.24
320.63	94.21
320.843	186.37
321.057	118.78
321.27	-24.58
321.483	106.49
321.697	174.08
321.91	172.03
322.124	45.06
322.337	55.3
322.55	-45.06
322.763	22.53
322.977	124.93
323.19	32.77
323.403	20.48
323.617	73.73
323.83	120.83
324.043	69.63
324.256	28.67
324.469	16.38
324.683	106.49
324.896	81.92
325.109	8.19
325.322	-43.01
325.535	77.82
325.748	102.4
325.962	2.05
326.175	-10.24
326.388	14.34
326.601	88.06
326.814	57.34
327.027	53.25
327.24	165.89
327.453	-83.97
327.666	94.21
327.879	106.49
328.092	53.25
328.305	53.25
328.518	51.2
328.731	22.53
328.944	-10.24
329.157	131.07
329.37	20.48
329.583	153.6
329.796	116.73
330.009	-24.58
330.222	75.77
330.435	108.54
330.648	32.77
330.861	32.77
331.073	124.93
331.286	106.49
331.499	43.01
331.712	-20.48
331.925	53.25
332.138	92.16
332.35	34.82
332.563	28.67
332.776	77.82
332.989	-49.15
333.202	53.25
333.414	10.24
333.627	47.1
333.84	43.01
334.053	-12.29
334.265	-26.62
334.478	-20.48
334.691	55.3
334.903	61.44
335.116	-45.06
335.329	-4.1
335.541	53.25
335.754	208.89
335.966	83.97
336.179	-45.06
336.392	12.29
336.604	96.25
336.817	114.69
337.029	126.97
337.242	57.34
337.454	120.83
337.667	4.1
337.88	153.6
338.092	90.11
338.305	-14.34
338.517	22.53
338.729	53.25
338.942	124.93
339.154	38.91
339.367	2.05
339.579	122.88
339.792	-53.25
340.004	133.12
340.217	36.86
340.429	8.19
340.641	34.82
340.854	-20.48
341.066	40.96
341.278	71.68
341.491	172.03
341.703	10.24
341.915	-16.38
342.128	112.64
342.34	47.1
342.552	-45.06
342.764	32.77
342.977	43.01
343.189	40.96
343.401	67.58
343.613	-18.43
343.826	-18.43
344.038	-6.14
344.25	24.58
344.462	-36.86
344.674	0
344.886	4.1
345.099	194.56
345.311	55.3
345.523	20.48
345.735	-22.53
345.947	24.58
346.159	-8.19
346.371	24.58
346.583	-43.01
346.795	157.69
347.007	88.06
347.219	-18.43
347.431	32.77
347.643	124.93
347.855	6.14
348.067	106.49
348.279	-67.58
348.491	32.77
348.703	172.03
348.915	43.01
349.127	47.1
349.339	135.17
349.551	-88.06
349.763	112.64
349.975	24.58
350.187	57.34
350.399	116.73
350.61	104.45
350.822	-8.19
351.034	77.82
351.246	26.62
351.458	18.43
351.669	77.82
351.881	159.74
352.093	90.11
352.305	122.88
352.517	100.35
352.728	153.6
352.94	34.82
353.152	18.43
353.363	-40.96
353.575	96.25
353.787	106.49
353.999	69.63
354.21	174.08
354.422	-18.43
354.633	38.91
354.845	22.53
355.057	24.58
355.268	112.64
355.48	20.48
355.692	-104.45
355.903	12.29
356.115	-40.96
356.326	-79.87
356.538	184.32
356.749	106.49
356.961	231.42
357.172	45.06
357.384	2.05
357.595	200.7
357.807	2.05
358.018	-32.77
358.23	45.06
358.441	124.93
358.653	118.78
358.864	0
359.075	-77.82
359.287	45.06
359.498	57.34
359.709	75.77
359.921	2.05
360.132	51.2
360.344	49.15
360.555	-8.19
360.766	88.06
360.977	8.19
361.189	108.54
361.4	16.38
361.611	143.36
361.823	126.97
362.034	38.91
362.245	20.48
362.456	28.67
362.667	157.69
362.879	-6.14
363.09	57.34
363.301	47.1
363.512	-18.43
363.723	20.48
363.935	90.11
364.146	49.15
364.357	-43.01
364.568	133.12
364.779	-22.53
364.99	165.89
365.201	-12.29
365.412	49.15
365.623	-106.49
365.834	51.2
366.045	12.29
366.256	143.36
366.467	133.12
366.678	45.06
366.889	51.2
367.1	-40.96
367.311	169.98
367.522	-36.86
367.733	28.67
367.944	81.92
368.155	30.72
368.366	38.91
368.577	137.21
368.788	139.26
368.999	-12.29
369.209	53.25
369.42	258.04
369.631	231.42
369.842	55.3
370.053	83.97
370.264	88.06
370.474	-28.67
370.685	57.34
370.896	92.16
371.107	159.74
371.317	38.91
371.528	36.86
371.739	126.97
371.95	106.49
372.16	14.34
372.371	-69.63
372.582	28.67
372.792	83.97
373.003	45.06
373.214	40.96
373.424	61.44
373.635	-4.1
373.846	104.45
374.056	43.01
374.267	18.43
374.477	18.43
374.688	-73.73
374.898	77.82
375.109	-14.34
375.319	81.92
375.53	135.17
375.74	45.06
375.951	-14.34
376.161	67.58
376.372	106.49
376.582	-16.38
376.793	96.25
377.003	24.58
377.214	38.91
377.424	65.54
377.635	100.35
377.845	20.48
378.055	165.89
378.266	-43.01
378.476	6.14
378.686	69.63
378.897	53.25
379.107	106.49
379.317	38.91
379.528	-53.25
379.738	94.21
379.948	-57.34
380.158	188.41
380.369	106.49
380.579	116.73
380.789	32.77
380.999	196.61
381.21	114.69
381.42	151.55
381.63	38.91
381.84	120.83
382.05	73.73
382.261	77.82
382.471	129.02
382.681	-2.05
382.891	90.11
383.101	14.34
383.311	-55.3
383.521	-10.24
383.731	69.63
383.941	145.41
384.151	57.34
384.361	71.68
384.571	94.21
384.781	28.67
384.991	180.22
385.201	169.98
385.411	110.59
385.621	90.11
385.831	34.82
386.041	67.58
386.251	0
386.461	83.97
386.671	34.82
386.881	47.1
387.091	32.77
387.301	139.26
387.511	40.96
387.72	65.54
387.93	36.86
388.14	-71.68
388.35	61.44
388.56	149.5
388.769	145.41
388.979	38.91
389.189	-57.34
389.399	57.34
389.609	69.63
389.818	114.69
390.028	61.44
390.238	92.16
390.447	69.63
390.657	-36.86
390.867	28.67
391.076	-30.72
391.286	55.3
391.496	-4.1
391.705	71.68
391.915	149.5
392.125	106.49
392.334	18.43
392.544	176.13
392.753	100.35
392.963	-92.16
393.172	30.72
393.382	-10.24
393.591	73.73
393.801	59.39
394.01	133.12
394.22	71.68
394.429	14.34
394.639	14.34
394.848	36.86
395.058	55.3
395.267	36.86
395.477	90.11
395.686	20.48
395.895	167.93
396.105	210.94
396.314	135.17
396.524	38.91
396.733	28.67
396.942	79.87
397.152	-4.1
397.361	135.17
397.57	116.73
397.78	20.48
397.989	55.3
398.198	161.79
398.407	-4.1
398.617	-2.05
398.826	83.97
399.035	34.82
399.244	141.31
399.453	59.39
399.663	133.12
399.872	79.87
400.081	63.49
400.29	143.36
400.499	6.14
400.708	100.35
400.917	43.01
401.127	32.77
401.336	10.24
401.545	163.84
401.754	208.89
401.963	94.21
402.172	98.3
402.381	40.96
402.59	-38.91
402.799	20.48
403.008	75.77
403.217	108.54
403.426	28.67
403.635	-40.96
403.844	36.86
404.053	-73.73
404.262	-34.82
404.471	159.74
404.68	28.67
404.888	61.44
405.097	-2.05
405.306	49.15
405.515	120.83
405.724	32.77
405.933	159.74
406.142	108.54
406.35	182.27
406.559	45.06
406.768	53.25
406.977	206.84
407.185	32.77
407.394	20.48
407.603	0
407.812	77.82
408.02	169.98
408.229	69.63
408.438	81.92
408.646	-145.41
408.855	38.91
409.064	83.97
409.272	69.63
409.481	92.16
409.69	40.96
409.898	-4.1
410.107	28.67
410.315	153.6
410.524	30.72
410.733	122.88
410.941	43.01
411.15	110.59
411.358	6.14
411.567	227.32
411.775	40.96
411.984	36.86
412.192	96.25
412.401	83.97
412.609	122.88
412.818	157.69
413.026	104.45
413.234	114.69
413.443	69.63
413.651	28.67
413.86	129.02
414.068	174.08
414.276	198.65
414.485	81.92
414.693	184.32
414.901	110.59
415.11	92.16
415.318	53.25
415.526	34.82
415.734	141.31
415.943	100.35
416.151	122.88
416.359	73.73
416.567	83.97
416.776	77.82
416.984	57.34
417.192	165.89
417.4	24.58
417.608	-22.53
417.817	45.06
418.025	71.68
418.233	169.98
418.441	-43.01
418.649	8.19
418.857	88.06
419.065	210.94
419.273	-30.72
419.481	77.82
419.689	-10.24
419.897	-2.05
420.105	10.24
420.313	143.36
420.521	192.51
420.729	94.21
420.937	34.82
421.145	47.1
421.353	157.69
421.561	167.93
421.769	96.25
421.977	28.67
422.185	110.59
422.393	108.54
422.601	145.41
422.809	108.54
423.017	120.83
423.224	67.58
423.432	98.3
423.64	18.43
423.848	155.65
424.056	18.43
424.263	180.22
424.471	55.3
424.679	137.21
424.887	-43.01
425.094	131.07
425.302	190.46
425.51	-10.24
425.718	157.69
425.925	-67.58
426.133	30.72
426.341	323.58
426.548	71.68
426.756	81.92
426.964	92.16
427.171	51.2
427.379	90.11
427.586	153.6
427.794	139.26
428.001	155.65
428.209	67.58
428.417	133.12
428.624	129.02
428.832	71.68
429.039	137.21
429.247	194.56
429.454	116.73
429.662	206.84
429.869	129.02
430.076	102.4
430.284	163.84
430.491	174.08
430.699	159.74
430.906	194.56
431.114	149.5
431.321	118.78
431.528	98.3
431.736	120.83
431.943	198.65
432.15	182.27
432.358	200.7
432.565	206.84
432.772	53.25
432.979	266.24
433.187	215.04
433.394	208.89
433.601	151.55
433.808	247.8
434.016	229.37
434.223	270.33
434.43	169.98
434.637	372.73
434.844	253.95
435.052	200.7
435.259	260.09
435.466	309.24
435.673	329.72
435.88	325.63
436.087	393.21
436.294	337.91
436.501	325.63
436.708	219.13
436.915	294.91
437.122	311.29
437.329	296.96
437.537	372.73
437.743	389.11
437.95	501.75
438.157	403.45
438.364	380.92
438.571	432.12
438.778	528.38
438.985	462.84
439.192	546.81
439.399	509.94
439.606	503.8
439.813	628.73
440.02	638.97
440.227	772.08
440.433	598.01
440.64	555
440.847	550.9
441.054	669.69
441.261	819.19
441.467	675.83
441.674	612.34
441.881	776.18
442.088	661.49
442.294	751.6
442.501	894.96
442.708	878.58
442.914	851.95
443.121	999.41
443.328	993.26
443.534	1052.66
443.741	1077.23
443.948	860.15
444.154	989.17
444.361	1239.02
444.568	1134.57
444.774	1146.86
444.981	1083.38
445.187	1351.66
445.394	1279.98
445.6	1159.15
445.807	1464.3
446.013	1406.95
446.22	1409
446.426	1585.13
446.633	1720.29
446.839	1892.32
447.046	1671.14
447.252	1767.4
447.459	1841.12
447.665	1855.46
447.871	2025.44
448.078	2197.47
448.284	2072.54
448.491	2234.33
448.697	2121.7
448.903	2453.47
449.11	2435.03
449.316	2414.56
449.522	2564.06
449.728	2631.64
449.935	2781.14
450.141	2836.44
450.347	3135.44
450.553	3145.68
450.76	3069.91
450.966	3383.24
451.172	3389.39
451.378	3538.89
451.584	3526.6
451.791	4032.45
451.997	3909.57
452.203	4036.55
452.409	4179.9
452.615	4333.5
452.821	4231.1
453.027	4337.6
453.233	4941.75
453.44	4851.64
453.646	5025.72
453.852	5187.5
454.058	5461.93
454.264	5449.64
454.47	6018.98
454.676	6096.8
454.882	6578.08
455.088	6174.63
455.294	6522.78
455.5	6920.09
455.705	7208.85
455.911	7223.19
456.117	7503.76
456.323	7788.43
456.529	7876.49
456.735	8554.37
456.941	8763.26
457.147	9303.92
457.352	9400.18
457.558	9652.08
457.764	10497.89
457.97	10479.46
458.176	10846.04
458.381	11442
458.587	11786.06
458.793	12259.14
458.999	12134.21
459.204	13817.65
459.41	14104.36
459.616	14059.31
459.821	14880.54
460.027	15546.13
460.233	16459.52
460.438	16480
460.644	17417.97
460.85	17575.67
461.055	18173.67
461.261	18931.42
461.466	18749.15
461.672	19117.79
461.878	21329.59
462.083	21044.93
462.289	21513.91
462.494	22343.34
462.7	22306.48
462.905	22525.61
463.111	24522.38
463.316	25515.64
463.522	26437.23
463.727	26928.74
463.932	28034.64
464.138	28859.98
464.343	30109.24
464.549	30119.48
464.754	32581.13
464.959	33177.09
465.165	33717.76
465.37	33789.44
465.575	33504.77
465.781	36281.81
465.986	36984.27
466.191	36414.93
466.397	36478.42
466.602	35991
466.807	37731.78
467.012	38215.1
467.218	39114.16
467.423	38987.18
467.628	40623.51
467.833	41840
468.038	41239.95
468.244	40494.49
468.449	42497.4
468.654	42347.9
468.859	42073.47
469.064	41923.97
469.269	40623.51
469.474	41555.33
469.679	42192.25
469.885	41153.93
470.09	41823.62
470.295	42018.17
470.5	40834.45
470.705	40869.26
470.91	39740.83
471.115	39611.81
471.32	40297.88
471.525	39886.24
471.73	38366.65
471.935	38088.12
472.139	36892.11
472.344	36718.03
472.549	36955.6
472.754	35915.23
472.959	34942.44
473.164	34371.06
473.369	33576.45
473.574	34541.04
473.778	33598.98
473.983	33191.43
474.188	32900.62
474.393	30760.49
474.598	30840.36
474.802	30279.22
475.007	29570.62
475.212	29699.64
475.417	28462.67
475.621	27911.77
475.826	28102.23
476.031	27418.21
476.235	26658.41
476.44	26703.46
476.645	25695.86
476.849	25607.8
477.054	25554.55
477.259	24624.78
477.463	24549
477.668	23680.66
477.872	24262.29
478.077	23072.42
478.282	22331.05
478.486	22306.48
478.691	22365.87
478.895	21788.34
479.1	21616.31
479.304	21761.72
479.509	20715.2
479.713	21034.69
479.918	20801.22
480.122	20186.83
480.326	20373.19
480.531	20444.87
480.735	19818.19
480.94	19812.05
481.144	20637.38
481.348	19449.56
481.553	19603.16
481.757	19113.69
481.961	19248.86
482.166	19349.21
482.37	19072.73
482.574	18419.43
482.778	18413.29
482.983	18937.57
483.187	18384.62
483.391	18484.97
483.595	18118.38
483.8	17587.96
484.004	17868.53
484.208	17835.76
484.412	17475.32
484.616	17305.34
484.821	16764.67
485.025	16768.77
485.229	16762.62
485.433	16717.57
485.637	16279.3
485.841	16090.89
486.045	15886.09
486.249	15619.86
486.453	15197.98
486.657	15253.27
486.861	14962.46
487.065	14262.05
487.269	14427.94
487.473	13999.91
487.677	14147.37
487.881	14266.15
488.085	13721.39
488.289	13317.94
488.493	12959.55
488.697	12830.52
488.901	12644.16
489.105	12414.79
489.309	12314.44
489.512	12048.2
489.716	11771.72
489.92	11532.11
490.124	11388.75
490.328	11718.48
490.531	10876.76
490.735	10858.33
490.939	10704.73
491.143	10463.07
491.346	10413.92
491.55	10180.45
491.754	9930.6
491.958	9932.65
492.161	9418.61
492.365	9480.05
492.569	9391.98
492.772	9181.04
492.976	9326.45
493.18	9097.08
493.383	9119.6
493.587	8828.79
493.79	8765.31
493.994	8320.9
494.197	8378.24
494.401	8527.74
494.605	8144.77
494.808	8167.3
495.012	8116.1
495.215	8193.92
495.419	8185.73
495.622	8048.52
495.825	7925.64
496.029	7829.38
496.232	8028.04
496.436	7780.23
496.639	8132.48
496.843	7833.48
497.046	7950.21
497.249	8073.09
497.453	7999.37
497.656	7870.34
497.859	7729.03
498.063	7892.87
498.266	8019.85
498.469	7847.82
498.673	7862.15
498.876	7978.89
499.079	7987.08
499.282	7944.07
499.485	8361.86
499.689	8134.53
499.892	8310.66
500.095	8173.44
500.298	8320.9
500.501	7942.02
500.705	8431.49
500.908	8349.57
501.111	8499.07
501.314	8621.95
501.517	8793.98
501.72	8851.32
501.923	8804.22
502.126	8775.55
502.329	9152.37
502.532	9015.16
502.735	9342.83
502.938	9279.35
503.141	9482.1
503.344	9586.54
503.547	9959.27
503.75	9738.09
503.953	9918.31
504.156	9914.22
504.359	10268.52
504.562	10053.48
504.765	10422.11
504.968	10563.42
505.17	10927.96
505.373	10987.35
505.576	11181.91
505.779	11237.2
505.982	11272.02
506.185	11689.81
506.387	11982.67
506.59	12099.4
506.793	12279.62
506.996	12502.85
507.198	13203.25
507.401	13033.27
507.604	13383.48
507.807	13438.77
508.009	13807.41
508.212	14214.95
508.415	14270.25
508.617	14659.36
508.82	14915.36
509.022	14886.68
509.225	15820.56
509.428	15755.02
509.63	15912.72
509.833	16418.57
510.035	17032.96
510.238	16930.56
510.44	17422.07
510.643	18153.19
510.845	18411.24
511.048	18642.66
511.25	19023.58
511.453	19494.61
511.655	20526.79
511.858	20655.81
512.06	20790.98
512.262	21270.2
512.465	21579.45
512.667	22140.59
512.87	22781.6
513.072	23338.65
513.274	24039.06
513.477	24528.52
513.679	24891.01
513.881	25413.24
514.084	26375.79
514.286	26361.45
514.488	27237.98
514.69	28044.88
514.893	28229.2
515.095	28718.67
515.297	29228.61
515.499	29656.64
515.701	30752.3
515.904	31405.6
516.106	31845.91
516.308	32849.42
516.51	33187.33
516.712	33930.75
516.914	34661.87
517.116	35528.16
517.318	35784.16
517.52	36808.14
517.722	37211.59
517.925	37651.91
518.127	38634.93
518.329	39347.62
518.531	39505.32
518.733	40000.93
518.935	41043.34
519.136	41342.35
519.338	42493.3
519.54	42589.56
519.742	43476.33
519.944	43988.32
520.146	45073.74
520.348	45339.98
520.55	45829.44
520.752	46343.48
520.954	47011.12
521.155	46925.11
521.357	48231.71
521.559	48696.6
521.761	49028.37
521.963	49153.3
522.164	49624.33
522.366	50214.15
522.568	50832.63
522.77	50808.06
522.971	51879.14
523.173	51381.49
523.375	52042.98
523.576	51844.33
523.778	51858.66
523.98	52806.87
524.181	53099.73
524.383	53351.63
524.584	53679.31
524.786	53476.56
524.988	53394.64
525.189	53632.21
525.391	53822.67
525.592	53568.72
525.794	53707.98
525.995	53576.91
526.197	53859.53
526.398	53779.66
526.6	53325.01
526.801	53157.08
527.003	53490.9
527.204	52716.76
527.406	53095.64
527.607	52473.06
527.808	52894.94
528.01	51883.24
528.211	51535.09
528.412	52315.36
528.614	51637.48
528.815	50865.4
529.016	51330.29
529.218	50408.7
529.419	49882.37
529.62	49267.98
529.822	48805.14
530.023	49052.95
530.224	48186.66
530.425	47502.64
530.626	46689.59
530.828	46087.49
531.029	46855.48
531.23	45425.99
531.431	45149.52
531.632	44713.3
531.833	44508.5
532.035	43484.52
532.236	43578.73
532.437	42767.73
532.638	42032.51
532.839	41401.74
533.04	41198.99
533.241	40342.94
533.442	40648.08
533.643	39622.05
533.844	38788.53
534.045	38413.75
534.246	37717.44
534.447	37215.69
534.648	36928.97
534.849	36570.58
535.05	35550.69
535.251	35618.27
535.451	34747.89
535.652	34502.13
535.853	33859.07
536.054	33709.57
536.255	33091.08
536.456	32212.5
536.657	32423.44
536.857	31800.86
537.058	31688.22
537.259	31485.47
537.46	30889.51
537.66	30150.2
537.861	29812.28
538.062	29437.5
538.263	28995.14
538.463	28905.03
538.664	27975.25
538.865	28065.36
539.065	28038.74
539.266	27006.56
539.466	27137.63
539.667	26590.83
539.868	26400.37
540.068	26044.02
540.269	25740.92
540.469	25282.17
540.67	24995.46
540.87	24805
541.071	24540.81
541.271	24213.13
541.472	23942.8
541.672	23492.25
541.873	22963.87
542.073	22562.47
542.274	23074.46
542.474	22281.9
542.675	22230.7
542.875	22062.77
543.075	21536.44
543.276	21513.91
543.476	21427.9
543.676	20893.38
543.877	21141.18
544.077	20414.15
544.277	20233.93
544.478	20160.2
544.678	20143.82
544.878	19830.48
545.078	19353.3
545.279	19099.36
545.479	18935.52
545.679	18810.59
545.879	18781.92
546.079	18286.31
546.28	17985.26
546.48	17762.03
546.68	17856.24
546.88	17401.59
547.08	17438.45
547.28	16996.09
547.48	16809.73
547.68	16848.64
547.88	16678.66
548.081	16330.5
548.281	15965.96
548.481	15607.57
548.681	15834.89
548.881	15562.51
549.081	15073.05
549.28	14921.5
549.48	14888.73
549.68	14862.11
549.88	14663.46
550.08	13999.91
550.28	14135.08
550.48	14004.01
550.68	13713.2
550.88	13326.13
551.08	13258.55
551.279	13016.89
551.479	12842.81
551.679	12570.43
551.879	12797.76
552.079	12496.71
552.278	12046.15
552.478	12316.48
552.678	11779.92
552.878	11724.62
553.077	11458.39
553.277	11327.32
553.477	11054.94
553.676	11046.74
553.876	10848.09
554.076	10751.84
554.275	10485.6
554.475	10186.6
554.674	10114.92
554.874	9971.56
555.074	9801.58
555.273	9717.61
555.473	9451.38
555.672	9150.32
555.872	9131.89
556.071	9211.76
556.271	9039.73
556.47	8650.62
556.67	8525.69
556.869	8615.8
557.068	8361.86
557.268	8265.6
557.467	7942.02
557.667	7972.74
557.866	7896.97
558.065	7595.92
558.265	7688.07
558.464	7315.34
558.663	7245.71
558.863	7147.41
559.062	7067.54
559.261	6946.71
559.461	7061.4
559.66	6821.78
559.859	6541.21
560.058	6596.51
560.258	6283.17
560.457	6191.01
560.656	6367.13
560.855	6240.16
561.054	6211.49
561.253	6041.51
561.453	5881.77
561.652	5676.97
561.851	5734.31
562.05	5570.47
562.249	5357.49
562.448	5439.4
562.647	5269.42
562.846	5240.75
563.045	5302.19
563.244	5107.63
563.443	5156.79
563.642	4962.23
563.841	4865.97
564.04	4880.31
564.239	4562.87
564.438	4655.03
564.637	4628.41
564.836	4562.87
565.035	4276.16
565.234	4464.57
565.432	4270.01
565.631	4267.97
565.83	4333.5
566.029	4206.53
566.228	4001.73
566.427	4140.99
566.625	3712.97
566.824	3934.15
567.023	3913.67
567.222	3686.34
567.42	3817.41
567.619	3778.5
567.818	3571.66
568.016	3755.97
568.215	3653.58
568.414	3532.75
568.612	3434.44
568.811	3506.12
569.01	3364.81
569.208	3190.74
569.407	3342.28
569.605	3209.17
569.804	3168.21
570.002	3141.58
570.201	3157.97
570.4	3088.34
570.598	3110.86
570.797	2877.4
570.995	2715.61
571.193	2793.43
571.392	2854.87
571.59	2645.98
571.789	2715.61
571.987	2629.59
572.186	2711.51
572.384	2592.73
572.582	2588.63
572.781	2574.3
572.979	2490.33
573.177	2408.41
573.376	2490.33
573.574	2396.12
573.772	2367.45
573.971	2283.49
574.169	2021.35
574.367	2205.66
574.565	2232.29
574.763	2201.57
574.962	2088.93
575.16	2056.16
575.358	1900.51
575.556	2027.49
575.754	1957.86
575.952	1888.23
576.151	1886.18
576.349	2058.21
576.547	1730.53
576.745	1828.84
576.943	1953.76
577.141	1974.24
577.339	1722.34
577.537	1732.58
577.735	1785.83
577.933	1701.86
578.131	1619.94
578.329	1738.73
578.527	1638.38
578.725	1634.28
578.923	1458.15
579.121	1581.03
579.319	1325.04
579.516	1439.72
579.714	1667.05
579.912	1533.93
580.11	1292.27
580.308	1337.32
580.506	1452.01
580.704	1271.79
580.901	1273.84
581.099	1382.38
581.297	1269.74
581.495	1300.46
581.692	1302.51
581.89	1353.71
582.088	1198.06
582.285	1239.02
582.483	1136.62
582.681	1175.53
582.878	1118.19
583.076	1179.63
583.274	1212.4
583.471	1210.35
583.669	1107.95
583.866	993.26
584.064	954.35
584.262	940.02
584.459	948.21
584.657	1030.13
584.854	1091.57
585.052	1036.27
585.249	995.31
585.447	1030.13
585.644	862.19
585.841	1038.32
586.039	966.64
586.236	937.97
586.434	856.05
586.631	835.57
586.828	878.58
587.026	856.05
587.223	786.42
587.42	767.99
587.618	884.72
587.815	892.91
588.012	860.15
588.21	751.6
588.407	929.78
588.604	811
588.801	794.61
588.999	759.8
589.196	788.47
589.393	729.08
589.59	753.65
589.787	841.72
589.984	755.7
590.182	712.69
590.379	591.86
590.576	696.31
590.773	741.36
590.97	716.79
591.167	690.17
591.364	712.69
591.561	671.73
591.758	790.52
591.955	710.65
592.152	724.98
592.349	634.87
592.546	684.02
592.743	624.63
592.94	708.6
593.137	671.73
593.334	720.89
593.531	862.19
593.727	724.98
593.924	767.99
594.121	665.59
594.318	659.45
594.515	749.56
594.712	854
594.908	897.01
595.105	641.01
595.302	884.72
595.499	778.23
595.696	837.62
595.892	671.73
596.089	894.96
596.286	864.24
596.482	935.92
596.679	892.91
596.876	837.62
597.072	956.4
597.269	899.06
597.466	972.79
597.662	935.92
597.859	923.63
598.055	1101.81
598.252	1077.23
598.448	1155.05
598.645	1257.45
598.841	1165.29
599.038	1259.5
599.234	1396.71
599.431	1366
599.627	1368.04
599.824	1431.53
600.02	1511.4
600.217	1499.11
600.413	1689.57
600.609	1634.28
600.806	1959.91
601.002	1837.03
601.198	1802.21
601.395	1906.66
601.591	1910.75
601.787	1933.28
601.984	2093.02
602.18	2113.5
602.376	2164.7
602.572	2430.94
602.769	2531.29
602.965	2654.17
603.161	2621.4
603.357	2736.09
603.553	2865.11
603.75	2789.33
603.946	2916.31
604.142	3069.91
604.338	3235.79
604.534	3133.39
604.73	3319.76
604.926	3409.87
605.122	3643.34
605.318	3602.38
605.514	3723.21
605.71	3864.52
605.906	4155.33
606.102	4149.18
606.298	4335.55
606.494	4364.22
606.69	4657.08
606.886	4681.66
607.082	4796.34
607.278	4919.22
607.474	5009.33
607.67	5181.36
607.866	5232.56
608.062	5496.75
608.257	5627.82
608.453	5851.05
608.649	6160.29
608.845	5953.45
609.041	6184.87
609.236	6379.42
609.432	6385.57
609.628	6625.18
609.824	7020.44
610.019	7018.39
610.215	6997.91
610.411	7690.12
610.606	7698.31
610.802	7935.88
610.998	8273.79
611.193	8355.71
611.389	8245.12
611.584	8705.92
611.78	8961.91
611.976	9060.21
612.171	9627.5
612.367	9641.84
612.562	9848.68
612.758	10010.47
612.953	10151.78
613.149	10723.16
613.344	10932.06
613.539	11233.11
613.735	11538.26
613.93	11755.34
614.126	12050.25
614.321	12570.43
614.517	12971.83
614.712	13242.17
614.907	13438.77
615.103	13795.12
615.298	14096.17
615.493	14518.05
615.688	14720.8
615.884	15456.02
616.079	15456.02
616.274	16078.6
616.47	16283.4
616.665	16834.3
616.86	17225.47
617.055	17499.89
617.25	17932.01
617.445	18800.35
617.641	18839.26
617.836	19773.14
618.031	19701.46
618.226	20573.89
618.421	20954.82
618.616	21630.65
618.811	21495.48
619.006	22550.18
619.201	22421.16
619.396	23367.32
619.591	23369.37
619.786	24456.84
619.981	24405.64
620.176	25505.4
620.371	25577.08
620.566	26314.35
620.761	26762.86
620.956	27723.35
621.151	27663.96
621.346	28677.71
621.541	28622.41
621.735	29910.58
621.93	29511.23
622.125	30320.18
622.32	30608.94
622.515	31665.69
622.709	31643.17
622.904	32984.58
623.099	32978.44
623.294	33752.57
623.488	34227.7
623.683	34942.44
623.878	35270.12
624.072	36173.27
624.267	36394.45
624.462	37225.93
624.656	37227.98
624.851	37752.26
625.046	38596.02
625.24	39226.79
625.435	39339.43
625.629	40166.81
625.824	40459.67
626.018	41223.56
626.213	41076.11
626.407	42040.7
626.602	41971.07
626.796	43017.58
626.991	43130.22
627.185	43378.03
627.38	43693.41
627.574	43410.79
627.768	43693.41
627.963	43464.04
628.157	44033.38
628.352	44213.6
628.546	43679.08
628.74	44346.72
628.935	43615.59
629.129	43664.74
629.323	43312.49
629.517	42904.95
629.712	42569.08
629.906	42624.37
630.1	41217.42
630.294	41450.89
630.489	40539.54
630.683	40142.24
630.877	39466.41
631.071	38688.18
631.265	38135.23
631.459	37275.08
631.653	36158.94
631.848	35882.46
632.042	34508.27
632.236	33740.29
632.43	32654.86
632.624	32003.61
632.818	30699.05
633.012	29722.17
633.206	28548.68
633.4	28018.26
633.594	26519.15
633.788	26009.2
633.982	25138.82
634.176	24184.46
634.369	22820.52
634.563	22218.41
634.757	21026.5
634.951	20739.78
635.145	20098.77
635.339	18935.52
635.533	18175.72
635.726	17366.78
635.92	16619.27
636.114	16084.75
636.308	15146.78
636.501	14872.35
636.695	14532.39
636.889	13618.99
637.083	13023.03
637.276	12533.57
637.47	11833.16
637.664	11546.45
637.857	11161.43
638.051	10635.1
638.244	10274.66
638.438	9801.58
638.632	9543.53
638.825	8916.86
639.019	8847.23
639.212	8335.23
639.406	8136.58
639.599	7761.8
639.793	7442.32
639.986	6981.53
640.18	7040.92
640.373	6576.03
640.567	6225.82
640.76	6098.85
640.954	5922.73
641.147	5584.81
641.34	5228.46
641.534	5248.94
641.727	5064.63
641.92	4935.6
642.114	4671.42
642.307	4353.98
642.5	4392.89
642.694	4020.16
642.887	4069.31
643.08	4005.83
643.273	3723.21
643.467	3405.77
643.66	3405.77
643.853	3250.13
644.046	3080.14
644.239	2891.73
644.432	2871.25
644.626	2623.45
644.819	2672.6
645.012	2574.3
645.205	2592.73
645.398	2367.45
645.591	2228.19
645.784	2037.73
645.977	1937.38
646.17	2090.98
646.363	2033.63
646.556	1830.88
646.749	1763.3
646.942	1701.86
647.135	1730.53
647.328	1634.28
647.521	1550.31
647.714	1417.19
647.907	1318.89
648.099	1376.24
648.292	1413.1
648.485	1216.49
648.678	1169.39
648.871	1079.28
649.064	1212.4
649.256	1044.46
649.449	1005.55
649.642	940.02
649.835	929.78
650.027	894.96
650.22	985.07
650.413	884.72
650.605	954.35
650.798	808.95
650.991	731.12
651.183	811
651.376	806.9
651.568	780.28
651.761	657.4
651.954	720.89
652.146	741.36
652.339	735.22
652.531	743.41
652.724	641.01
652.916	491.51
653.109	503.8
653.301	630.77
653.494	612.34
653.686	591.86
653.879	630.77
654.071	528.38
654.263	471.03
654.456	403.45
654.648	522.23
654.84	516.09
655.033	374.78
655.225	563.19
655.417	425.98
655.61	497.66
655.802	464.89
655.994	555
656.186	299
656.379	432.12
656.571	284.67
656.763	428.03
656.955	266.24
657.148	215.04
657.34	372.73
657.532	301.05
657.724	327.68
657.916	327.68
658.108	290.81
658.3	370.68
658.492	344.06
658.684	208.89
658.876	319.48
659.068	198.65
659.26	253.95
659.452	153.6
659.644	233.47
659.836	401.4
660.028	241.66
660.22	180.22
660.412	249.85
660.604	186.37
660.796	339.96
660.988	274.43
661.18	233.47
661.372	184.32
661.563	190.46
661.755	225.28
661.947	172.03
662.139	149.5
662.331	159.74
662.522	200.7
662.714	79.87
662.906	182.27
663.097	153.6
663.289	141.31
663.481	86.01
663.673	221.18
663.864	114.69
664.056	159.74
664.247	100.35
664.439	188.41
664.631	178.17
664.822	176.13
665.014	116.73
665.205	163.84
665.397	124.93
665.588	245.76
665.78	161.79
665.971	231.42
666.163	92.16
666.354	71.68
666.546	116.73
666.737	90.11
666.929	83.97
667.12	116.73
667.311	210.94
667.503	141.31
667.694	149.5
667.885	159.74
668.077	169.98
668.268	34.82
668.459	129.02
668.651	176.13
668.842	212.99
669.033	43.01
669.224	79.87
669.416	219.13
669.607	124.93
669.798	45.06
669.989	157.69
670.18	24.58
670.371	192.51
670.563	24.58
670.754	165.89
670.945	258.04
671.136	153.6
671.327	110.59
671.518	237.56
671.709	280.57
671.9	184.32
672.091	165.89
672.282	157.69
672.473	137.21
672.664	75.77
672.855	24.58
673.046	153.6
673.237	188.41
673.428	190.46
673.619	169.98
673.809	108.54
674	237.56
674.191	153.6
674.382	98.3
674.573	90.11
674.764	122.88
674.954	260.09
675.145	77.82
675.336	73.73
675.527	57.34
675.717	79.87
675.908	98.3
676.099	75.77
676.289	157.69
676.48	86.01
676.671	94.21
676.861	106.49
677.052	176.13
677.243	100.35
677.433	86.01
677.624	190.46
677.814	145.41
678.005	147.45
678.195	190.46
678.386	67.58
678.576	81.92
678.767	90.11
678.957	135.17
679.148	221.18
679.338	258.04
679.529	194.56
679.719	131.07
679.909	219.13
680.1	159.74
680.29	174.08
680.481	176.13
680.671	192.51
680.861	215.04
681.052	182.27
681.242	96.25
681.432	192.51
681.622	196.61
681.813	94.21
682.003	157.69
682.193	126.97
682.383	98.3
682.573	118.78
682.764	108.54
682.954	161.79
683.144	313.34
683.334	223.23
683.524	243.71
683.714	190.46
683.904	143.36
684.094	163.84
684.284	172.03
684.474	313.34
684.664	278.52
684.854	176.13
685.044	116.73
685.234	180.22
685.424	114.69
685.614	36.86
685.804	315.39
685.994	206.84
686.184	210.94
686.374	194.56
686.564	172.03
686.753	163.84
686.943	45.06
687.133	122.88
687.323	114.69
687.513	223.23
687.702	235.52
687.892	165.89
688.082	258.04
688.272	247.8
688.461	194.56
688.651	339.96
688.841	258.04
689.03	145.41
689.22	122.88
689.41	245.76
689.599	233.47
689.789	131.07
689.979	219.13
690.168	200.7
690.358	239.61
690.547	145.41
690.737	118.78
690.926	241.66
691.116	280.57
691.305	217.08
691.495	241.66
691.684	51.2
691.874	153.6
692.063	249.85
692.252	262.14
692.442	208.89
692.631	178.17
692.82	112.64
693.01	192.51
693.199	112.64
693.388	274.43
693.578	149.5
693.767	249.85
693.956	258.04
694.146	135.17
694.335	239.61
694.524	133.12
694.713	184.32
694.902	186.37
695.092	184.32
695.281	233.47
695.47	90.11
695.659	90.11
695.848	208.89
696.037	182.27
696.226	198.65
696.415	165.89
696.604	303.1
696.793	227.32
696.982	155.65
697.171	210.94
697.36	96.25
697.549	112.64
697.738	40.96
697.927	182.27
698.116	106.49
698.305	165.89
698.494	182.27
698.683	184.32
698.872	319.48
699.061	135.17
699.25	243.71
699.438	278.52
699.627	100.35
699.816	323.58
700.005	71.68
700.193	126.97
700.382	243.71
700.571	174.08
700.76	163.84
700.948	196.61
701.137	253.95
701.326	227.32
701.514	114.69
701.703	204.8
701.892	212.99
702.08	358.39
702.269	188.41
702.457	153.6
702.646	151.55
702.834	153.6
703.023	190.46
703.212	176.13
703.4	124.93
703.589	92.16
703.777	118.78
703.965	135.17
704.154	135.17
704.342	69.63
704.531	88.06
704.719	159.74
704.907	223.23
705.096	116.73
705.284	53.25
705.472	212.99
705.661	249.85
705.849	192.51
706.037	272.38
706.226	178.17
706.414	176.13
706.602	45.06
706.79	245.76
706.979	83.97
707.167	151.55
707.355	32.77
707.543	223.23
707.731	212.99
707.919	145.41
708.107	135.17
708.296	79.87
708.484	112.64
708.672	284.67
708.86	231.42
709.048	106.49
709.236	122.88
709.424	215.04
709.612	219.13
709.8	61.44
709.988	186.37
710.176	268.28
710.364	366.59
710.551	182.27
710.739	217.08
710.927	167.93
711.115	223.23
711.303	165.89
711.491	309.24
711.679	161.79
711.866	192.51
712.054	104.45
712.242	178.17
712.43	247.8
712.617	204.8
712.805	303.1
712.993	176.13
713.181	116.73
713.368	225.28
713.556	169.98
713.744	129.02
713.931	313.34
714.119	233.47
714.306	143.36
714.494	129.02
714.682	129.02
714.869	96.25
715.057	182.27
715.244	51.2
715.432	155.65
715.619	139.26
715.807	147.45
715.994	120.83
716.182	219.13
716.369	124.93
716.556	165.89
716.744	77.82
716.931	83.97
717.119	212.99
717.306	178.17
717.493	102.4
717.681	112.64
717.868	210.94
718.055	159.74
718.242	192.51
718.43	208.89
718.617	149.5
718.804	151.55
718.991	245.76
719.179	165.89
719.366	184.32
719.553	217.08
719.74	131.07
719.927	155.65
720.114	184.32
720.301	186.37
720.488	165.89
720.676	104.45
720.863	251.9
721.05	260.09
721.237	221.18
721.424	243.71
721.611	180.22
721.798	51.2
721.985	90.11
722.172	253.95
722.358	143.36
722.545	225.28
722.732	137.21
722.919	251.9
723.106	147.45
723.293	184.32
723.48	243.71
723.667	83.97
723.853	262.14
724.04	260.09
724.227	235.52
724.414	180.22
724.6	190.46
724.787	327.68
724.974	280.57
725.161	196.61
725.347	120.83
725.534	294.91
725.72	217.08
725.907	208.89
726.094	243.71
726.28	167.93
726.467	118.78
726.653	206.84
726.84	215.04
727.027	303.1
727.213	190.46
727.4	178.17
727.586	256
727.773	276.48
727.959	210.94
728.145	233.47
728.332	202.75
728.518	208.89
728.705	239.61
728.891	133.12
729.077	237.56
729.264	77.82
729.45	258.04
729.636	196.61
729.823	282.62
730.009	305.15
730.195	210.94
730.382	278.52
730.568	184.32
730.754	198.65
730.94	161.79
731.126	167.93
731.313	270.33
731.499	212.99
731.685	251.9
731.871	339.96
732.057	251.9
732.243	251.9
732.429	286.72
732.615	344.06
732.801	219.13
732.987	266.24
733.173	239.61
733.359	151.55
733.545	274.43
733.731	118.78
733.917	282.62
734.103	206.84
734.289	188.41
734.475	151.55
734.661	407.55
734.847	200.7
735.033	198.65
735.219	219.13
735.404	110.59
735.59	104.45
735.776	210.94
735.962	163.84
736.148	307.2
736.333	262.14
736.519	159.74
736.705	172.03
736.89	219.13
737.076	219.13
737.262	198.65
737.447	135.17
737.633	231.42
737.819	274.43
738.004	202.75
738.19	253.95
738.375	223.23
738.561	276.48
738.747	223.23
738.932	151.55
739.118	315.39
739.303	243.71
739.489	251.9
739.674	159.74
739.859	90.11
740.045	253.95
740.23	215.04
740.416	90.11
740.601	268.28
740.786	180.22
740.972	120.83
741.157	219.13
741.342	77.82
741.528	69.63
741.713	182.27
741.898	200.7
742.084	221.18
742.269	188.41
742.454	329.72
742.639	247.8
742.824	239.61
743.01	327.68
743.195	339.96
743.38	251.9
743.565	141.31
743.75	268.28
743.935	290.81
744.12	319.48
744.305	69.63
744.49	176.13
744.675	233.47
744.86	210.94
745.045	290.81
745.23	124.93
745.415	165.89
745.6	296.96
745.785	251.9
745.97	260.09
746.155	208.89
746.34	245.76
746.525	165.89
746.71	317.44
746.895	180.22
747.079	167.93
747.264	188.41
747.449	215.04
747.634	229.37
747.819	262.14
748.003	153.6
748.188	114.69
748.373	200.7
748.557	241.66
748.742	251.9
748.927	186.37
749.111	202.75
749.296	135.17
749.481	270.33
749.665	163.84
749.85	135.17
750.034	233.47
750.219	182.27
750.404	151.55
750.588	176.13
750.773	118.78
750.957	200.7
751.141	151.55
751.326	237.56
751.51	83.97
751.695	165.89
751.879	167.93
752.064	241.66
752.248	151.55
752.432	231.42
752.617	192.51
752.801	178.17
752.985	202.75
753.17	227.32
753.354	208.89
753.538	212.99
753.722	135.17
753.907	184.32
754.091	102.4
754.275	237.56
754.459	43.01
754.643	151.55
754.828	212.99
755.012	212.99
755.196	131.07
755.38	126.97
755.564	40.96
755.748	94.21
755.932	208.89
756.116	126.97
756.3	176.13
756.484	51.2
756.668	137.21
756.852	14.34
757.036	186.37
757.22	155.65
757.404	69.63
757.588	116.73
757.772	118.78
757.956	135.17
758.14	253.95
758.323	59.39
758.507	141.31
758.691	65.54
758.875	182.27
759.059	178.17
759.242	131.07
759.426	59.39
759.61	51.2
759.794	-4.1
759.977	190.46
760.161	286.72
760.345	200.7
760.528	169.98
760.712	92.16
760.895	141.31
761.079	77.82
761.263	43.01
761.446	106.49
761.63	110.59
761.813	153.6
761.997	-34.82
762.18	43.01
762.364	106.49
762.547	-18.43
762.731	172.03
762.914	110.59
763.098	-2.05
763.281	55.3
763.464	67.58
763.648	155.65
763.831	90.11
764.015	69.63
764.198	204.8
764.381	88.06
764.564	147.45
764.748	133.12
764.931	184.32
765.114	-14.34
765.297	161.79
765.481	77.82
765.664	2.05
765.847	51.2
766.03	169.98
766.213	69.63
766.397	32.77
766.58	-36.86
766.763	120.83
766.946	71.68
767.129	43.01
767.312	63.49
767.495	40.96
767.678	-10.24
767.861	100.35
768.044	120.83
768.227	43.01
768.41	0
768.593	49.15
768.776	106.49
768.959	30.72
769.142	159.74
769.324	14.34
769.507	75.77
769.69	8.19
769.873	14.34
770.056	260.09
770.239	106.49
770.421	98.3
770.604	67.58
770.787	8.19
770.97	28.67
771.152	73.73
771.335	90.11
771.518	16.38
771.7	83.97
771.883	243.71
772.066	71.68
772.248	86.01
772.431	122.88
772.613	266.24
772.796	18.43
772.978	120.83
773.161	200.7
773.343	-20.48
773.526	-34.82
773.708	-55.3
773.891	-24.58
774.073	-18.43
774.256	26.62
774.438	159.74
774.621	24.58
774.803	92.16
774.985	53.25
775.168	73.73
775.35	77.82
775.532	108.54
775.715	20.48
775.897	104.45
776.079	75.77
776.261	110.59
776.444	73.73
776.626	59.39
776.808	34.82
776.99	18.43
777.173	94.21
777.355	53.25
777.537	-16.38
777.719	36.86
777.901	55.3
778.083	-36.86
778.265	-18.43
778.447	55.3
778.629	-43.01
778.811	149.5
778.993	63.49
779.175	86.01
779.357	-4.1
779.539	-55.3
779.721	145.41
779.903	59.39
780.085	-28.67
780.267	102.4
780.449	16.38
780.631	141.31
780.812	161.79
780.994	12.29
781.176	86.01
781.358	0
781.54	75.77
781.721	112.64
781.903	16.38
782.085	14.34
782.267	155.65
782.448	-45.06
782.63	-12.29
782.812	102.4
782.993	67.58
783.175	65.54
783.357	0
783.538	57.34
783.72	-2.05
783.901	-8.19
784.083	83.97
784.264	73.73
784.446	-2.05
784.627	-26.62
784.809	73.73
784.99	36.86
785.172	47.1
785.353	14.34
785.535	57.34
785.716	-69.63
785.897	0
786.079	0
786.26	55.3
786.441	47.1
786.623	-26.62
786.804	12.29
786.985	-22.53
787.167	90.11
787.348	2.05
787.529	22.53
787.71	188.41
787.891	110.59
788.073	-51.2
788.254	-6.14
788.435	141.31
788.616	34.82
788.797	-36.86
788.978	61.44
789.159	24.58
789.34	-14.34
789.522	-6.14
789.703	-34.82
789.884	38.91
790.065	45.06
790.246	139.26
790.427	30.72
790.607	169.98
790.788	67.58
790.969	-51.2
791.15	45.06
791.331	-30.72
791.512	30.72
791.693	-55.3
791.874	-40.96
792.054	167.93
792.235	75.77
792.416	8.19
792.597	51.2
792.778	38.91
792.958	0
793.139	51.2
793.32	-4.1
793.5	-20.48
793.681	100.35
793.862	-22.53
794.042	24.58
794.223	-28.67
794.404	-51.2
794.584	-135.17
794.765	-8.19
794.945	-34.82
795.126	38.91
795.306	22.53
795.487	47.1
795.667	30.72
795.848	-16.38
796.028	-28.67
796.209	55.3
796.389	126.97
796.57	8.19
796.75	45.06
796.93	-26.62
797.111	-32.77
797.291	69.63
797.471	40.96
797.652	57.34
797.832	-49.15
798.012	112.64
798.192	-92.16
798.373	-57.34
798.553	-26.62
798.733	133.12
798.913	-135.17
799.093	-49.15
799.274	131.07
799.454	118.78
799.634	77.82
799.814	51.2
799.994	77.82
800.174	47.1
800.354	73.73
800.534	-92.16
800.714	36.86
800.894	-40.96
801.074	-69.63
801.254	45.06
801.434	30.72
801.614	4.1
801.794	-4.1
801.974	1916.9
802.154	-108.54
802.334	143.36
802.514	-28.67
802.693	-40.96
802.873	12.29
803.053	188.41
803.233	8.19
803.413	2.05
803.592	30.72
803.772	18.43
803.952	43.01
804.131	-34.82
804.311	135.17
804.491	69.63
804.67	-40.96
804.85	-63.49
805.03	57.34
805.209	86.01
805.389	8.19
805.568	-24.58
805.748	40.96
805.928	69.63
806.107	83.97
806.287	61.44
806.466	32.77
806.646	59.39
806.825	20.48
807.004	-30.72
807.184	57.34
807.363	53.25
807.543	38.91
807.722	-71.68
807.901	63.49
808.081	86.01
808.26	-145.41
808.439	55.3
808.619	-26.62
808.798	-6.14
808.977	69.63
809.156	120.83
809.336	51.2
809.515	135.17
809.694	-47.1
809.873	-43.01
810.052	36.86
810.231	149.5
810.411	2.05
810.59	102.4
810.769	14.34
810.948	141.31
811.127	-75.77
811.306	4.1
811.485	-6.14
811.664	163.84
811.843	-63.49
812.022	0
812.201	30.72
812.38	-8.19
812.559	-77.82
812.737	90.11
812.916	-98.3
813.095	-120.83
813.274	53.25
813.453	-4.1
813.632	43.01
813.811	83.97
813.989	-55.3
814.168	20.48
814.347	24.58
814.526	-69.63
814.704	137.21
814.883	116.73
815.062	-47.1
815.24	32.77
815.419	-90.11
815.598	55.3
815.776	-92.16
815.955	-4.1
816.133	-106.49
816.312	14.34
816.49	-129.02
816.669	-75.77
816.847	-28.67
817.026	-4.1
817.204	-88.06
817.383	-53.25
817.561	-57.34
817.74	20.48
817.918	-49.15
818.097	-36.86
818.275	-51.2
818.453	120.83
818.632	65.54
818.81	-18.43
818.988	4.1
819.167	-71.68
819.345	14.34
819.523	-22.53
819.701	-8.19
819.879	61.44
820.058	26.62
820.236	63.49
820.414	43.01
820.592	34.82
820.77	-100.35
820.948	-34.82
821.127	-20.48
821.305	63.49
821.483	-63.49
821.661	61.44
821.839	61.44
822.017	0
822.195	-86.01
822.373	38.91
822.551	32.77
822.729	32.77
822.907	-36.86
823.085	53.25
823.262	12.29
823.44	-61.44
823.618	-102.4
823.796	-14.34
823.974	8.19
824.152	-63.49
824.329	20.48
824.507	57.34
824.685	-18.43
824.863	-79.87
825.04	-22.53
825.218	43.01
825.396	122.88
825.574	-18.43
825.751	45.06
825.929	12.29
826.107	-73.73
826.284	4.1
826.462	61.44
826.639	-43.01
826.817	-26.62
826.994	-34.82
827.172	22.53
827.349	47.1
827.527	53.25
827.704	12.29
827.882	124.93
828.059	-38.91
828.237	-65.53
828.414	96.25
828.591	-126.97
828.769	-69.63
828.946	-122.88
829.124	81.92
829.301	141.31
829.478	-6.14
829.655	-24.58
829.833	26.62
830.01	-126.97
830.187	51.2
830.364	-2.05
830.542	20.48
830.719	153.6
830.896	77.82
831.073	129.02
831.25	14.34
831.427	63.49
831.604	16.38
831.782	6.14
831.959	57.34
832.136	12.29
832.313	6.14
832.49	-28.67
832.667	71.68
832.844	-32.77
833.021	81.92
833.198	73.73
833.374	-49.15
833.551	34.82
833.728	14.34
833.905	96.25
834.082	-63.49
834.259	65.54
834.436	36.86
834.612	-61.44
834.789	112.64
834.966	8.19
835.143	47.1
835.319	-67.58
835.496	83.97
835.673	-47.1
835.85	26.62
836.026	47.1
836.203	51.2
836.38	-59.39
836.556	-16.38
836.733	-71.68
836.909	141.31
837.086	-63.49
837.262	-81.92
837.439	-14.34
837.616	-40.96
837.792	-36.86
837.968	4.1
838.145	-120.83
838.321	34.82
838.498	61.44
838.674	77.82
838.851	18.43
839.027	57.34
839.203	4.1
839.38	96.25
839.556	4.1
839.732	81.92
839.909	69.63
840.085	63.49
840.261	-61.44
840.437	77.82
840.614	-4.1
840.79	71.68
840.966	94.21
841.142	-8.19
841.318	-6.14
841.494	-20.48
841.671	96.25
841.847	-61.44
842.023	-71.68
842.199	26.62
842.375	14.34
842.551	-69.63
842.727	-102.4
842.903	55.3
843.079	30.72
843.255	104.45
843.431	-12.29
843.607	49.15
843.783	-172.03
843.959	59.39
844.134	-172.03
844.31	131.07
844.486	-16.38
844.662	-131.07
844.838	-34.82
845.013	26.62
845.189	8.19
845.365	45.06
845.541	-30.72
845.716	-6.14
845.892	49.15
846.068	-6.14
846.244	-2.05
846.419	118.78
846.595	-63.49
846.77	-55.3
846.946	155.65
847.122	-6.14
847.297	-6.14
847.473	151.55
847.648	-102.4
847.824	75.77
847.999	-106.49
848.175	26.62
848.35	51.2
848.526	112.64
848.701	118.78
848.876	10.24
849.052	0
849.227	-18.43
849.403	30.72
849.578	22.53
849.753	28.67
849.929	-30.72
850.104	-112.64
850.279	-4.1
850.454	26.62
850.63	104.45
850.805	69.63
850.98	-8.19
851.155	59.39
851.33	40.96
851.505	-81.92
851.681	63.49
851.856	-55.3
852.031	-26.62
852.206	-16.38
852.381	-86.01
852.556	8.19
852.731	63.49
852.906	71.68
853.081	49.15
853.256	155.65
853.431	16.38
853.606	-24.58
853.781	4.1
853.956	-172.03
854.131	8.19
854.305	-6.14
854.48	-16.38
854.655	-137.21
854.83	-69.63
855.005	-43.01
855.18	-36.86
855.354	-38.91
855.529	-36.86
855.704	-28.67
855.879	-38.91
856.053	-38.91
856.228	32.77
856.403	-45.06
856.577	43.01
856.752	-98.3
856.926	-30.72
857.101	18.43
857.276	-10.24
857.45	-34.82
857.625	12.29
857.799	-14.34
857.974	8.19
858.148	-92.16
858.323	90.11
858.497	-6.14
858.672	-120.83
858.846	-36.86
859.02	-22.53
859.195	-98.3
859.369	-30.72
859.543	-45.06
859.718	-16.38
859.892	65.54
860.066	-26.62
860.241	-26.62
860.415	-53.25
860.589	10.24
860.763	0
860.938	-88.06
861.112	-12.29
861.286	-6.14
861.46	36.86
861.634	-51.2
861.808	86.01
861.982	-49.15
862.157	-81.92
862.331	-135.17
862.505	-96.25
862.679	-118.78
862.853	-22.53
863.027	-34.82
863.201	157.69
863.375	-45.06
863.549	-22.53
863.722	-28.67
863.896	28.67
864.07	-114.69
864.244	43.01
864.418	49.15
864.592	22.53
864.766	-20.48
864.939	10.24
865.113	-47.1
865.287	2.05
865.461	-59.39
865.634	2.05
865.808	-51.2
865.982	-49.15
866.156	-55.3
866.329	-47.1
866.503	10.24
866.676	34.82
866.85	-51.2
867.024	-63.49
867.197	88.06
867.371	53.25
867.544	10.24
867.718	-96.25
867.891	53.25
868.065	-129.02
868.238	26.62
868.412	55.3
868.585	-32.77
868.759	-104.45
868.932	34.82
869.105	-81.92
869.279	-53.25
869.452	-69.63
869.625	47.1
869.799	40.96
869.972	-83.97
870.145	-51.2
870.319	77.82
870.492	-16.38
870.665	-61.44
870.838	-51.2
871.011	-110.59
871.185	22.53
871.358	-32.77
871.531	-34.82
871.704	-67.58
871.877	-24.58
872.05	-36.86
872.223	-139.26
872.396	57.34
872.569	47.1
872.742	-26.62
872.915	20.48
873.088	-81.92
873.261	-77.82
873.434	4.1
873.607	-40.96
873.78	116.73
873.953	-77.82
874.126	-16.38
874.299	28.67
874.471	-81.92
874.644	-8.19
874.817	12.29
874.99	75.77
875.163	-28.67
875.335	77.82
875.508	16.38
875.681	67.58
875.853	-112.64
876.026	-22.53
876.199	100.35
876.371	43.01
876.544	55.3
876.717	-20.48
876.889	-36.86
877.062	-20.48
877.234	-124.93
877.407	-65.53
877.579	61.44
877.752	-45.06
877.924	26.62
878.097	-8.19
878.269	49.15
878.442	34.82
878.614	24.58
878.786	20.48
878.959	-4.1
879.131	51.2
879.303	-129.02
879.476	-20.48
879.648	4.1
879.82	-47.1
879.993	-12.29
880.165	-32.77
880.337	-96.25
880.509	-55.3
880.681	-90.11
880.854	-55.3
881.026	14.34
881.198	182.27
881.37	4.1
881.542	-57.34
881.714	-20.48
881.886	-6.14
882.058	-26.62
882.23	-38.91
882.402	28.67
882.574	-43.01
882.746	57.34
882.918	59.39
883.09	34.82
883.262	-26.62
883.434	-43.01
883.606	-90.11
883.778	14.34
883.95	32.77
884.122	-24.58
884.293	90.11
884.465	-55.3
884.637	26.62
884.809	-14.34
884.98	-47.1
885.152	4.1
885.324	61.44
885.496	2.05
885.667	-20.48
885.839	14.34
886.011	108.54
886.182	67.58
886.354	81.92
886.525	0
886.697	0
886.869	24.58
887.04	-26.62
887.212	20.48
887.383	159.74
887.555	49.15
887.726	-34.82
887.897	-86.01
888.069	-4.1
888.24	43.01
888.412	-43.01
888.583	4.1
888.754	-67.58
888.926	-126.97
889.097	-102.4
889.268	-165.89
889.44	0
889.611	-102.4
889.782	-20.48
889.953	-69.63
890.125	16.38
890.296	-122.88
890.467	2.05
890.638	-137.21
890.809	-4.1
890.98	-53.25
891.151	18.43
891.323	57.34
891.494	-47.1
891.665	0
891.836	-81.92
892.007	26.62
892.178	12.29
892.349	51.2
892.52	-24.58
892.691	12.29
892.862	-34.82
893.032	-174.08
893.203	0
893.374	-2.05
893.545	43.01
893.716	-16.38
893.887	38.91
894.057	-22.53
894.228	-98.3
894.399	-6.14
894.57	118.78
894.74	-47.1
894.911	-26.62
895.082	-20.48
895.253	-88.06
895.423	4.1
895.594	73.73
895.764	0
895.935	-28.67
896.106	20.48
896.276	-59.39
896.447	79.87
896.617	-98.3
896.788	-73.73
896.958	-14.34
897.129	-110.59
897.299	-14.34
897.47	75.77
897.64	45.06
897.81	-16.38
897.981	40.96
898.151	-18.43
898.322	12.29
898.492	-20.48
898.662	-172.03
898.832	-30.72
899.003	-38.91
899.173	30.72
899.343	-90.11
899.513	-135.17
