Data from USB4F104151__142__11-04-15-939.txt Node

Date: Wed Feb 26 11:04:15 EST 2025
User: louis
Spectrometer: USB4F10415
Trigger mode: 4
Integration Time (sec): 1.000000E-1
Scans to average: 1
Electric dark correction enabled: true
Nonlinearity correction enabled: false
Boxcar width: 0
XAxis mode: Wavelengths
Number of Pixels in Spectrum: 3648
>>>>>Begin Spectral Data<<<<<
178.204	-423.93
178.424	-423.93
178.644	-423.93
178.864	-362.49
179.084	-407.55
179.304	28.67
179.524	-61.44
179.744	-16.38
179.964	61.44
180.184	-14.34
180.404	36.86
180.624	-69.63
180.844	55.3
181.064	-32.77
181.283	59.39
181.503	-77.82
181.723	30.72
181.943	-69.63
182.163	163.84
182.383	6.14
182.602	53.25
182.822	161.79
183.042	79.87
183.262	-8.19
183.482	57.34
183.701	67.58
183.921	30.72
184.141	24.58
184.361	126.97
184.58	18.43
184.8	94.21
185.02	69.63
185.239	198.65
185.459	86.01
185.679	126.97
185.898	-55.3
186.118	53.25
186.338	143.36
186.557	133.12
186.777	18.43
186.997	-18.43
187.216	75.77
187.436	239.61
187.655	133.12
187.875	2.05
188.095	18.43
188.314	192.51
188.534	120.83
188.753	-45.06
188.973	120.83
189.192	194.56
189.412	67.58
189.631	108.54
189.851	129.02
190.07	184.32
190.29	-63.49
190.509	45.06
190.729	92.16
190.948	184.32
191.168	202.75
191.387	108.54
191.607	-104.45
191.826	98.3
192.045	26.62
192.265	61.44
192.484	118.78
192.704	38.91
192.923	-12.29
193.142	247.8
193.362	106.49
193.581	112.64
193.8	98.3
194.02	59.39
194.239	73.73
194.458	61.44
194.678	38.91
194.897	2.05
195.116	-12.29
195.335	79.87
195.555	120.83
195.774	16.38
195.993	118.78
196.212	86.01
196.432	26.62
196.651	32.77
196.87	145.41
197.089	229.37
197.308	4.1
197.528	81.92
197.747	-20.48
197.966	12.29
198.185	174.08
198.404	-36.86
198.623	114.69
198.842	143.36
199.062	120.83
199.281	149.5
199.5	22.53
199.719	161.79
199.938	14.34
200.157	100.35
200.376	131.07
200.595	172.03
200.814	69.63
201.033	67.58
201.252	157.69
201.471	98.3
201.69	86.01
201.909	12.29
202.128	112.64
202.347	81.92
202.566	122.88
202.785	-88.06
203.004	-28.67
203.223	319.48
203.442	145.41
203.661	-47.1
203.879	141.31
204.098	217.08
204.317	2.05
204.536	100.35
204.755	77.82
204.974	110.59
205.193	12.29
205.411	182.27
205.63	133.12
205.849	63.49
206.068	8.19
206.287	10.24
206.505	157.69
206.724	-14.34
206.943	4.1
207.162	4.1
207.381	69.63
207.599	14.34
207.818	163.84
208.037	4.1
208.255	49.15
208.474	79.87
208.693	-34.82
208.911	83.97
209.13	149.5
209.349	104.45
209.567	94.21
209.786	135.17
210.005	155.65
210.223	65.53
210.442	-71.68
210.661	14.34
210.879	180.22
211.098	79.87
211.316	40.96
211.535	108.54
211.753	114.69
211.972	114.69
212.191	34.82
212.409	55.3
212.628	102.4
212.846	26.62
213.065	77.82
213.283	143.36
213.502	61.44
213.72	73.73
213.938	81.92
214.157	38.91
214.375	73.73
214.594	149.5
214.812	28.67
215.031	83.97
215.249	96.25
215.467	40.96
215.686	-57.34
215.904	131.07
216.122	71.68
216.341	196.6
216.559	98.3
216.778	118.78
216.996	208.89
217.214	61.44
217.432	120.83
217.651	51.2
217.869	94.21
218.087	24.58
218.306	22.53
218.524	79.87
218.742	45.06
218.96	120.83
219.179	-34.82
219.397	8.19
219.615	262.14
219.833	174.08
220.051	67.58
220.27	112.64
220.488	145.41
220.706	61.44
220.924	-45.06
221.142	55.3
221.36	135.17
221.578	86.01
221.796	12.29
222.015	71.68
222.233	88.06
222.451	180.22
222.669	4.1
222.887	73.73
223.105	32.77
223.323	22.53
223.541	-22.53
223.759	69.63
223.977	71.68
224.195	163.84
224.413	135.17
224.631	57.34
224.849	106.49
225.067	282.62
225.285	16.38
225.503	-10.24
225.721	-61.44
225.939	106.49
226.157	51.2
226.375	266.24
226.592	-8.19
226.81	36.86
227.028	141.31
227.246	167.93
227.464	73.73
227.682	100.35
227.9	67.58
228.117	24.58
228.335	34.82
228.553	36.86
228.771	77.82
228.989	86.01
229.206	147.45
229.424	32.77
229.642	38.91
229.86	28.67
230.077	161.79
230.295	20.48
230.513	61.44
230.731	79.87
230.948	258.04
231.166	159.74
231.384	45.06
231.601	57.34
231.819	204.8
232.037	-32.77
232.254	-32.77
232.472	30.72
232.689	34.82
232.907	149.5
233.125	-8.19
233.342	63.49
233.56	28.67
233.777	55.3
233.995	16.38
234.213	75.77
234.43	235.52
234.648	65.53
234.865	71.68
235.083	145.41
235.3	96.25
235.518	63.49
235.735	81.92
235.953	139.26
236.17	-65.54
236.388	131.07
236.605	14.34
236.822	133.12
237.04	176.13
237.257	92.16
237.475	-34.82
237.692	38.91
237.909	69.63
238.127	73.73
238.344	75.77
238.562	59.39
238.779	-4.1
238.996	-38.91
239.214	22.53
239.431	45.06
239.648	-22.53
239.865	73.73
240.083	96.25
240.3	-16.38
240.517	51.2
240.735	96.25
240.952	237.56
241.169	141.31
241.386	135.17
241.603	28.67
241.821	-16.38
242.038	174.08
242.255	155.65
242.472	-2.05
242.689	77.82
242.907	26.62
243.124	94.21
243.341	61.44
243.558	69.63
243.775	-36.86
243.992	-83.97
244.209	137.21
244.426	256
244.643	120.83
244.86	12.29
245.078	118.78
245.295	114.69
245.512	77.82
245.729	-14.34
245.946	114.69
246.163	59.39
246.38	-6.14
246.597	32.77
246.814	26.62
247.031	55.3
247.248	-18.43
247.464	192.51
247.681	106.49
247.898	38.91
248.115	116.73
248.332	-26.62
248.549	94.21
248.766	190.46
248.983	129.02
249.2	114.69
249.417	200.7
249.633	22.53
249.85	63.49
250.067	8.19
250.284	57.34
250.501	20.48
250.717	43.01
250.934	32.77
251.151	129.02
251.368	79.87
251.585	126.97
251.801	73.73
252.018	-10.24
252.235	110.59
252.451	22.53
252.668	116.73
252.885	126.97
253.102	135.17
253.318	18.43
253.535	-40.96
253.752	-32.77
253.968	-22.53
254.185	10.24
254.401	116.73
254.618	96.25
254.835	38.91
255.051	157.69
255.268	100.35
255.484	61.44
255.701	43.01
255.917	104.45
256.134	8.19
256.351	86.01
256.567	43.01
256.784	53.25
257	-32.77
257.217	133.12
257.433	110.59
257.65	71.68
257.866	145.41
258.082	-18.43
258.299	2.05
258.515	88.06
258.732	-14.34
258.948	-110.59
259.165	57.34
259.381	34.82
259.597	81.92
259.814	65.53
260.03	14.34
260.246	26.62
260.463	110.59
260.679	167.93
260.895	55.3
261.112	59.39
261.328	53.25
261.544	38.91
261.761	186.37
261.977	24.58
262.193	-43.01
262.409	159.74
262.626	88.06
262.842	26.62
263.058	47.1
263.274	40.96
263.49	47.1
263.707	126.97
263.923	90.11
264.139	-40.96
264.355	104.45
264.571	172.03
264.787	116.73
265.004	192.51
265.22	100.35
265.436	6.14
265.652	81.92
265.868	145.41
266.084	24.58
266.3	20.48
266.516	69.63
266.732	24.58
266.948	61.44
267.164	38.91
267.38	120.83
267.596	49.15
267.812	147.45
268.028	38.91
268.244	55.3
268.46	69.63
268.676	57.34
268.892	143.36
269.108	40.96
269.324	10.24
269.54	57.34
269.756	96.25
269.972	-16.38
270.188	45.06
270.403	-22.53
270.619	59.39
270.835	53.25
271.051	131.07
271.267	43.01
271.483	-16.38
271.698	26.62
271.914	67.58
272.13	112.64
272.346	36.86
272.562	-75.77
272.777	131.07
272.993	26.62
273.209	92.16
273.425	126.97
273.64	32.77
273.856	71.68
274.072	30.72
274.287	-45.06
274.503	172.03
274.719	184.32
274.934	14.34
275.15	-57.34
275.366	83.97
275.581	4.1
275.797	20.48
276.012	71.68
276.228	-4.1
276.444	34.82
276.659	81.92
276.875	12.29
277.09	-24.58
277.306	20.48
277.521	79.87
277.737	47.1
277.952	118.78
278.168	90.11
278.383	43.01
278.599	26.62
278.814	71.68
279.03	112.64
279.245	204.8
279.461	49.15
279.676	137.21
279.892	16.38
280.107	118.78
280.322	-4.1
280.538	100.35
280.753	-2.05
280.969	16.38
281.184	57.34
281.399	198.65
281.615	92.16
281.83	92.16
282.045	-43.01
282.26	-32.77
282.476	40.96
282.691	110.59
282.906	71.68
283.122	47.1
283.337	30.72
283.552	172.03
283.767	67.58
283.983	133.12
284.198	57.34
284.413	55.3
284.628	-4.1
284.843	38.91
285.058	176.13
285.274	45.06
285.489	-10.24
285.704	69.63
285.919	26.62
286.134	51.2
286.349	77.82
286.564	67.58
286.779	141.31
286.995	92.16
287.21	-43.01
287.425	118.78
287.64	34.82
287.855	90.11
288.07	-28.67
288.285	157.69
288.5	212.99
288.715	57.34
288.93	59.39
289.145	6.14
289.36	112.64
289.575	32.77
289.79	167.93
290.004	49.15
290.219	174.08
290.434	-22.53
290.649	22.53
290.864	-53.25
291.079	143.36
291.294	69.63
291.509	20.48
291.724	14.34
291.938	141.31
292.153	161.79
292.368	94.21
292.583	143.36
292.798	114.69
293.012	108.54
293.227	106.49
293.442	2.05
293.657	88.06
293.871	163.84
294.086	38.91
294.301	94.21
294.516	71.68
294.73	120.83
294.945	-108.54
295.16	65.53
295.374	81.92
295.589	96.25
295.804	69.63
296.018	26.62
296.233	151.55
296.447	77.82
296.662	4.1
296.877	184.32
297.091	26.62
297.306	88.06
297.52	67.58
297.735	49.15
297.949	96.25
298.164	51.2
298.378	100.35
298.593	2.05
298.807	12.29
299.022	69.63
299.236	190.46
299.451	-30.72
299.665	67.58
299.88	32.77
300.094	67.58
300.309	79.87
300.523	126.97
300.737	116.73
300.952	43.01
301.166	59.39
301.381	-32.77
301.595	-8.19
301.809	67.58
302.024	114.69
302.238	-2.05
302.452	86.01
302.667	75.77
302.881	221.18
303.095	135.17
303.309	79.87
303.524	-20.48
303.738	135.17
303.952	63.49
304.166	104.45
304.381	-73.73
304.595	172.03
304.809	-10.24
305.023	100.35
305.237	59.39
305.452	10.24
305.666	155.65
305.88	155.65
306.094	174.08
306.308	147.45
306.522	139.26
306.736	135.17
306.95	57.34
307.164	55.3
307.379	-4.1
307.593	139.26
307.807	169.98
308.021	112.64
308.235	69.63
308.449	-24.58
308.663	47.1
308.877	190.46
309.091	77.82
309.305	63.49
309.519	-65.54
309.733	102.4
309.947	-24.58
310.161	110.59
310.374	96.25
310.588	124.93
310.802	-88.06
311.016	69.63
311.23	102.4
311.444	63.49
311.658	51.2
311.872	92.16
312.085	106.49
312.299	233.47
312.513	167.93
312.727	53.25
312.941	30.72
313.154	61.44
313.368	73.73
313.582	79.87
313.796	86.01
314.009	36.86
314.223	202.75
314.437	71.68
314.651	90.11
314.864	2.05
315.078	53.25
315.292	2.05
315.505	69.63
315.719	53.25
315.933	77.82
316.146	-40.96
316.36	-28.67
316.573	137.21
316.787	59.39
317.001	24.58
317.214	-26.62
317.428	77.82
317.641	-32.77
317.855	108.54
318.068	22.53
318.282	75.77
318.495	299
318.709	90.11
318.922	20.48
319.136	167.93
319.349	133.12
319.563	38.91
319.776	12.29
319.99	-49.15
320.203	88.06
320.417	94.21
320.63	94.21
320.843	184.32
321.057	129.02
321.27	-53.25
321.483	102.4
321.697	98.3
321.91	32.77
322.124	100.35
322.337	49.15
322.55	34.82
322.763	63.49
322.977	10.24
323.19	57.34
323.403	110.59
323.617	51.2
323.83	157.69
324.043	24.58
324.256	86.01
324.469	-40.96
324.683	94.21
324.896	28.67
325.109	45.06
325.322	-6.14
325.535	137.21
325.748	167.93
325.962	53.25
326.175	94.21
326.388	45.06
326.601	161.79
326.814	61.44
327.027	40.96
327.24	155.65
327.453	-92.16
327.666	2.05
327.879	192.51
328.092	96.25
328.305	73.73
328.518	22.53
328.731	79.87
328.944	77.82
329.157	57.34
329.37	-0
329.583	200.7
329.796	145.41
330.009	34.82
330.222	98.3
330.435	124.93
330.648	90.11
330.861	98.3
331.073	92.16
331.286	172.03
331.499	28.67
331.712	36.86
331.925	88.06
332.138	49.15
332.35	106.49
332.563	36.86
332.776	184.32
332.989	53.25
333.202	43.01
333.414	98.3
333.627	124.93
333.84	-8.19
334.053	118.78
334.265	-26.62
334.478	-20.48
334.691	75.77
334.903	92.16
335.116	-10.24
335.329	104.45
335.541	157.69
335.754	135.17
335.966	43.01
336.179	83.97
336.392	47.1
336.604	45.06
336.817	104.45
337.029	88.06
337.242	65.53
337.454	53.25
337.667	38.91
337.88	239.61
338.092	83.97
338.305	124.93
338.517	-24.58
338.729	137.21
338.942	122.88
339.154	-22.53
339.367	10.24
339.579	61.44
339.792	4.1
340.004	110.59
340.217	43.01
340.429	210.94
340.641	51.2
340.854	-38.91
341.066	79.87
341.278	118.78
341.491	180.22
341.703	-14.34
341.915	30.72
342.128	77.82
342.34	98.3
342.552	-67.58
342.764	143.36
342.977	14.34
343.189	59.39
343.401	88.06
343.613	-100.35
343.826	28.67
344.038	-14.34
344.25	-0
344.462	-20.48
344.674	24.58
344.886	79.87
345.099	120.83
345.311	176.13
345.523	67.58
345.735	-49.15
345.947	51.2
346.159	157.69
346.371	49.15
346.583	43.01
346.795	143.36
347.007	20.48
347.219	153.6
347.431	88.06
347.643	217.08
347.855	-10.24
348.067	141.31
348.279	-30.72
348.491	45.06
348.703	71.68
348.915	65.53
349.127	32.77
349.339	24.58
349.551	-22.53
349.763	51.2
349.975	102.4
350.187	155.65
350.399	215.04
350.61	135.17
350.822	49.15
351.034	90.11
351.246	98.3
351.458	67.58
351.669	67.58
351.881	151.55
352.093	98.3
352.305	65.53
352.517	92.16
352.728	124.93
352.94	133.12
353.152	79.87
353.363	40.96
353.575	90.11
353.787	225.28
353.999	100.35
354.21	233.47
354.422	-18.43
354.633	73.73
354.845	55.3
355.057	61.44
355.268	20.48
355.48	167.93
355.692	10.24
355.903	100.35
356.115	24.58
356.326	-20.48
356.538	96.25
356.749	92.16
356.961	176.13
357.172	94.21
357.384	-10.24
357.595	217.08
357.807	-18.43
358.018	34.82
358.23	2.05
358.441	133.12
358.653	88.06
358.864	14.34
359.075	38.91
359.287	79.87
359.498	79.87
359.709	120.83
359.921	147.45
360.132	59.39
360.344	47.1
360.555	53.25
360.766	40.96
360.977	67.58
361.189	200.7
361.4	157.69
361.611	118.78
361.823	108.54
362.034	108.54
362.245	12.29
362.456	-12.29
362.667	182.27
362.879	10.24
363.09	106.49
363.301	88.06
363.512	131.07
363.723	28.67
363.935	47.1
364.146	163.84
364.357	57.34
364.568	8.19
364.779	-16.38
364.99	180.22
365.201	14.34
365.412	169.98
365.623	-55.3
365.834	51.2
366.045	57.34
366.256	139.26
366.467	63.49
366.678	49.15
366.889	71.68
367.1	6.14
367.311	110.59
367.522	14.34
367.733	86.01
367.944	116.73
368.155	30.72
368.366	141.31
368.577	163.84
368.788	98.3
368.999	16.38
369.209	83.97
369.42	282.62
369.631	280.57
369.842	90.11
370.053	20.48
370.264	198.65
370.474	-12.29
370.685	77.82
370.896	14.34
371.107	165.89
371.317	69.63
371.528	55.3
371.739	180.22
371.95	108.54
372.16	75.77
372.371	26.62
372.582	45.06
372.792	137.21
373.003	81.92
373.214	81.92
373.424	102.4
373.635	22.53
373.846	141.31
374.056	96.25
374.267	122.88
374.477	153.6
374.688	-10.24
374.898	86.01
375.109	65.53
375.319	47.1
375.53	161.79
375.74	79.87
375.951	61.44
376.161	151.55
376.372	94.21
376.582	59.39
376.793	51.2
377.003	-2.05
377.214	28.67
377.424	94.21
377.635	67.58
377.845	20.48
378.055	145.41
378.266	4.1
378.476	65.53
378.686	40.96
378.897	67.58
379.107	147.45
379.317	75.77
379.528	-0
379.738	143.36
379.948	34.82
380.158	94.21
380.369	69.63
380.579	10.24
380.789	53.25
380.999	147.45
381.21	92.16
381.42	262.14
381.63	36.86
381.84	184.32
382.05	159.74
382.261	120.83
382.471	184.32
382.681	26.62
382.891	192.51
383.101	65.53
383.311	49.15
383.521	55.3
383.731	135.17
383.941	10.24
384.151	77.82
384.361	104.45
384.571	12.29
384.781	104.45
384.991	237.56
385.201	180.22
385.411	120.83
385.621	65.53
385.831	79.87
386.041	53.25
386.251	4.1
386.461	163.84
386.671	-36.86
386.881	100.35
387.091	116.73
387.301	106.49
387.511	122.88
387.72	120.83
387.93	176.13
388.14	-20.48
388.35	79.87
388.56	159.74
388.769	163.84
388.979	55.3
389.189	-24.58
389.399	75.77
389.609	186.37
389.818	149.5
390.028	104.45
390.238	104.45
390.447	-34.82
390.657	124.93
390.867	55.3
391.076	-6.14
391.286	36.86
391.496	55.3
391.705	90.11
391.915	192.51
392.125	153.6
392.334	94.21
392.544	120.83
392.753	77.82
392.963	-30.72
393.172	47.1
393.382	26.62
393.591	198.65
393.801	-4.1
394.01	233.47
394.22	129.02
394.429	100.35
394.639	200.7
394.848	110.59
395.058	57.34
395.267	2.05
395.477	36.86
395.686	53.25
395.895	258.04
396.105	251.9
396.314	124.93
396.524	112.64
396.733	47.1
396.942	108.54
397.152	61.44
397.361	229.37
397.57	124.93
397.78	57.34
397.989	122.88
398.198	251.9
398.407	120.83
398.617	61.44
398.826	102.4
399.035	47.1
399.244	129.02
399.453	49.15
399.663	149.5
399.872	112.64
400.081	20.48
400.29	184.32
400.499	-4.1
400.708	163.84
400.917	69.63
401.127	-10.24
401.336	108.54
401.545	233.47
401.754	112.64
401.963	155.65
402.172	26.62
402.381	43.01
402.59	12.29
402.799	112.64
403.008	122.88
403.217	61.44
403.426	86.01
403.635	36.86
403.844	71.68
404.053	94.21
404.262	24.58
404.471	208.89
404.68	114.69
404.888	161.79
405.097	34.82
405.306	28.67
405.515	114.69
405.724	47.1
405.933	71.68
406.142	59.39
406.35	108.54
406.559	114.69
406.768	141.31
406.977	73.73
407.185	90.11
407.394	77.82
407.603	16.38
407.812	98.3
408.02	188.41
408.229	75.77
408.438	139.26
408.646	-6.14
408.855	53.25
409.064	180.22
409.272	118.78
409.481	102.4
409.69	16.38
409.898	32.77
410.107	124.93
410.315	149.5
410.524	63.49
410.733	88.06
410.941	147.45
411.15	98.3
411.358	165.89
411.567	108.54
411.775	139.26
411.984	126.97
412.192	12.29
412.401	-6.14
412.609	129.02
412.818	106.49
413.026	137.21
413.234	53.25
413.443	108.54
413.651	40.96
413.86	32.77
414.068	260.09
414.276	186.37
414.485	26.62
414.693	165.89
414.901	225.28
415.11	-38.91
415.318	86.01
415.526	92.16
415.734	153.6
415.943	110.59
416.151	131.07
416.359	133.12
416.567	184.32
416.776	143.36
416.984	182.27
417.192	208.89
417.4	129.02
417.608	79.87
417.817	118.78
418.025	174.08
418.233	231.42
418.441	-32.77
418.649	-24.58
418.857	92.16
419.065	143.36
419.273	8.19
419.481	108.54
419.689	122.88
419.897	63.49
420.105	-32.77
420.313	94.21
420.521	180.22
420.729	112.64
420.937	-4.1
421.145	28.67
421.353	126.97
421.561	210.94
421.769	92.16
421.977	-20.48
422.185	184.32
422.393	86.01
422.601	141.31
422.809	129.02
423.017	49.15
423.224	143.36
423.432	124.93
423.64	86.01
423.848	184.32
424.056	43.01
424.263	133.12
424.471	32.77
424.679	151.55
424.887	49.15
425.094	202.75
425.302	81.92
425.51	14.34
425.718	106.49
425.925	61.44
426.133	90.11
426.341	206.84
426.548	49.15
426.756	20.48
426.964	110.59
427.171	-38.91
427.379	129.02
427.586	141.31
427.794	165.89
428.001	167.93
428.209	155.65
428.417	196.6
428.624	186.37
428.832	194.56
429.039	116.73
429.247	137.21
429.454	120.83
429.662	225.28
429.869	118.78
430.076	143.36
430.284	192.51
430.491	235.52
430.699	178.17
430.906	303.1
431.114	182.27
431.321	172.03
431.528	100.35
431.736	258.04
431.943	120.83
432.15	231.42
432.358	184.32
432.565	239.61
432.772	63.49
432.979	235.52
433.187	159.74
433.394	243.71
433.601	176.13
433.808	282.62
434.016	288.76
434.223	227.32
434.43	256
434.637	235.52
434.844	309.24
435.052	262.14
435.259	217.08
435.466	342.01
435.673	278.52
435.88	374.78
436.087	305.15
436.294	397.31
436.501	290.81
436.708	309.24
436.915	370.68
437.122	423.93
437.329	299
437.537	376.83
437.743	344.06
437.95	440.31
438.157	362.49
438.364	430.07
438.571	339.96
438.778	421.88
438.985	456.7
439.192	544.76
439.399	454.65
439.606	575.48
439.813	632.82
440.02	624.63
440.227	729.08
440.433	624.63
440.64	516.09
440.847	583.67
441.054	610.29
441.261	727.03
441.467	727.03
441.674	573.43
441.881	811
442.088	659.45
442.294	808.95
442.501	921.59
442.708	886.77
442.914	794.61
443.121	921.59
443.328	856.05
443.534	1005.55
443.741	962.55
443.948	905.2
444.154	1177.58
444.361	1251.31
444.568	1062.9
444.774	1126.38
444.981	1023.98
445.187	1300.46
445.394	1300.46
445.6	1179.63
445.807	1482.73
446.013	1329.13
446.22	1339.37
446.426	1417.19
446.633	1611.75
446.839	1658.85
447.046	1474.54
447.252	1734.63
447.459	1765.35
447.665	1802.21
447.871	1863.65
448.078	2007.01
448.284	2015.2
448.491	2203.61
448.697	2336.73
448.903	2346.97
449.11	2392.03
449.316	2293.72
449.522	2574.3
449.728	2600.92
449.935	2658.26
450.141	2721.75
450.347	2775
450.553	2832.34
450.76	2891.73
450.966	3112.91
451.172	3135.44
451.378	3282.89
451.584	3512.27
451.791	3545.03
451.997	3768.26
452.203	3698.63
452.409	3993.54
452.615	4173.76
452.821	4028.35
453.027	4036.55
453.233	4495.29
453.44	4450.24
453.646	4839.35
453.852	5060.53
454.058	5066.67
454.264	5138.35
454.47	5570.47
454.676	5685.16
454.882	6111.14
455.088	5867.43
455.294	6213.54
455.5	6504.35
455.705	6924.18
455.911	6924.18
456.117	7225.23
456.323	7470.99
456.529	7296.91
456.735	8073.09
456.941	8294.27
457.147	8527.74
457.352	8687.48
457.558	9064.31
457.764	9660.27
457.97	9887.59
458.176	10295.14
458.381	10618.72
458.587	10841.95
458.793	11636.56
458.999	11382.61
459.204	12961.59
459.41	13467.44
459.616	13303.6
459.821	13932.33
460.027	14612.26
460.233	15281.94
460.438	15331.09
460.644	16142.09
460.85	16152.33
461.055	17057.53
461.261	18007.79
461.466	17540.85
461.672	17676.02
461.878	20000.46
462.083	19666.64
462.289	20543.17
462.494	20915.9
462.7	21075.65
462.905	21477.05
463.111	22941.35
463.316	24233.61
463.522	24608.39
463.727	25329.28
463.932	26674.79
464.138	27088.48
464.343	28153.43
464.549	28319.31
464.754	30408.24
464.959	31120.93
465.165	31594.01
465.37	31731.23
465.575	31419.94
465.781	33693.18
465.986	34498.03
466.191	33949.18
466.397	34416.11
466.602	33259.01
466.807	35243.49
467.012	35896.8
467.218	36259.29
467.423	36537.81
467.628	37770.69
467.833	39464.36
468.038	38786.48
468.244	38041.02
468.449	39898.53
468.654	39548.32
468.859	39044.52
469.064	39364.01
469.269	38028.73
469.474	38219.19
469.679	39876
469.885	38483.38
470.09	38995.37
470.295	39306.66
470.5	38114.75
470.705	38514.1
470.91	37199.3
471.115	37131.72
471.32	37696.96
471.525	36769.23
471.73	35991
471.935	36070.87
472.139	34352.63
472.344	34784.75
472.549	35075.56
472.754	33658.37
472.959	32917
473.164	32110.1
473.369	31297.06
473.574	32273.94
473.778	31542.81
473.983	31096.36
474.188	30565.93
474.393	29011.53
474.598	28943.94
474.802	28520.01
475.007	28106.32
475.212	27690.59
475.417	26314.35
475.621	26482.28
475.826	26132.08
476.031	25503.35
476.235	24653.45
476.44	24999.55
476.645	23856.79
476.849	23688.85
477.054	23488.15
477.259	22812.32
477.463	22931.11
477.668	22439.59
477.872	22527.66
478.077	21722.8
478.282	21089.98
478.486	21235.39
478.691	20596.42
478.895	20676.29
479.1	20508.36
479.304	20457.16
479.509	19474.13
479.713	19769.04
479.918	19230.43
480.122	19189.47
480.326	19214.04
480.531	19109.6
480.735	18939.61
480.94	18493.16
481.144	19439.32
481.348	18175.72
481.553	18192.11
481.757	17655.54
481.961	18011.89
482.166	18001.65
482.37	17862.38
482.574	17288.95
482.778	17180.41
482.983	17473.27
483.187	17108.73
483.391	17336.06
483.595	16977.66
483.8	16525.06
484.004	16660.23
484.208	16893.69
484.412	16375.56
484.616	16168.71
484.821	16090.89
485.025	15490.84
485.229	15695.63
485.433	15404.82
485.637	15249.18
485.841	15255.32
486.045	14858.01
486.249	14548.77
486.453	14401.32
486.657	14221.09
486.861	14014.25
487.065	13616.94
487.269	13711.15
487.473	13178.68
487.677	13301.56
487.881	13309.75
488.085	12592.96
488.289	12717.89
488.493	12422.98
488.697	12433.22
488.901	11773.77
489.105	11585.36
489.309	11618.13
489.512	11403.09
489.716	11405.14
489.92	11013.98
490.124	10739.55
490.328	10569.57
490.531	10360.67
490.735	10241.89
490.939	10147.69
491.143	9885.55
491.346	9594.73
491.55	9596.78
491.754	9369.46
491.958	9119.6
492.161	9113.46
492.365	9058.17
492.569	8781.69
492.772	8750.97
492.976	8578.94
493.18	8394.62
493.383	8486.78
493.587	8335.23
493.79	8357.76
493.994	7903.11
494.197	7901.06
494.401	7958.41
494.605	7655.31
494.808	7894.92
495.012	7825.29
495.215	7815.05
495.419	7911.3
495.622	7565.2
495.825	7518.09
496.029	7503.76
496.232	7479.18
496.436	7384.98
496.639	7761.8
496.843	7374.74
497.046	7399.31
497.249	7497.61
497.453	7354.26
497.656	7395.22
497.859	7501.71
498.063	7344.02
498.266	7602.06
498.469	7288.72
498.673	7522.19
498.876	7612.3
499.079	7565.2
499.282	7704.46
499.485	7860.1
499.689	7499.66
499.892	7737.23
500.095	7772.04
500.298	8183.68
500.501	7673.74
500.705	7909.26
500.908	8150.92
501.111	7823.24
501.314	8195.97
501.517	8564.61
501.72	8492.93
501.923	8380.29
502.126	8509.31
502.329	8744.83
502.532	8664.96
502.735	8863.61
502.938	8994.68
503.141	8800.12
503.344	9011.06
503.547	9146.23
503.75	9260.91
503.953	9426.8
504.156	9568.11
504.359	9820.01
504.562	9799.53
504.765	10008.42
504.968	10164.07
505.17	10276.71
505.373	10243.94
505.576	10706.78
505.779	10815.32
505.982	10796.89
506.185	11087.7
506.387	11145.05
506.59	11384.66
506.793	11761.48
506.996	11646.8
507.198	12154.69
507.401	12302.15
507.604	12599.1
507.807	13193.01
508.009	13023.03
508.212	13430.58
508.415	13735.73
508.617	14057.26
508.82	14120.74
509.022	14202.66
509.225	14718.75
509.428	14788.38
509.63	15308.57
509.833	15306.52
510.035	16238.34
510.238	16332.55
510.44	16600.83
510.643	17051.39
510.845	17430.26
511.048	17811.18
511.25	18058.99
511.453	18747.11
511.655	19281.63
511.858	19726.03
512.06	20016.85
512.262	20491.98
512.465	20223.69
512.667	21120.7
512.87	21604.02
513.072	21802.68
513.274	22898.34
513.477	23168.67
513.679	23449.24
513.881	24237.71
514.084	24985.22
514.286	25138.82
514.488	25646.71
514.69	26599.02
514.893	27258.46
515.095	27051.62
515.297	27825.75
515.499	28767.82
515.701	28919.37
515.904	30058.04
516.106	30729.77
516.308	31170.08
516.51	31680.03
516.712	32146.97
516.914	32468.5
517.116	33598.98
517.318	34246.13
517.52	34926.06
517.722	35206.63
517.925	36201.94
518.127	36865.49
518.329	37248.46
518.531	37651.91
518.733	38487.48
518.935	39302.57
519.136	39830.94
519.338	40211.87
519.54	40615.32
519.742	41780.61
519.944	41770.37
520.146	42741.11
520.348	43130.22
520.55	43713.89
520.752	43775.33
520.954	45356.36
521.155	45206.86
521.357	46036.29
521.559	46617.91
521.761	47385.9
521.963	47312.17
522.164	47551.79
522.366	47897.89
522.568	48801.05
522.77	48987.41
522.971	49804.55
523.173	49382.67
523.375	49493.26
523.576	49945.86
523.778	49949.96
523.98	50615.55
524.181	50689.27
524.383	50963.7
524.584	51440.88
524.786	51227.89
524.988	51602.67
525.189	51604.72
525.391	51727.59
525.592	51739.88
525.794	51782.89
525.995	51328.24
526.197	51983.59
526.398	51627.24
526.6	51234.03
526.801	51576.04
527.003	51193.07
527.204	50889.98
527.406	51274.99
527.607	50713.85
527.808	50404.61
528.01	49399.05
528.211	49870.09
528.412	50572.54
528.614	49964.29
528.815	48882.97
529.016	49157.39
529.218	48141.6
529.419	48051.49
529.62	47562.03
529.822	47197.49
530.023	46978.36
530.224	46257.47
530.425	45606.22
530.626	45040.98
530.828	44485.98
531.029	45135.18
531.23	43705.7
531.431	43236.72
531.632	43165.04
531.833	42870.13
532.035	42440.06
532.236	41899.39
532.437	41319.82
532.638	40822.16
532.839	40312.22
533.04	39785.89
533.241	38798.77
533.442	39437.73
533.643	38503.86
533.844	37602.75
534.045	37313.99
534.246	36408.79
534.447	36193.75
534.648	35694.05
534.849	35255.78
535.05	34792.94
535.251	34506.23
535.451	33902.07
535.652	33695.23
535.853	32806.41
536.054	32773.64
536.255	32085.53
536.456	31364.64
536.657	31688.22
536.857	30717.48
537.058	30291.51
537.259	29996.6
537.46	29859.38
537.66	29263.43
537.861	28669.51
538.062	28343.89
538.263	28032.6
538.463	27424.35
538.664	27328.09
538.865	26953.32
539.065	26840.68
539.266	26441.32
539.466	26547.82
539.667	25409.15
539.868	25286.27
540.068	25001.6
540.269	24811.14
540.469	24866.44
540.67	24639.11
540.87	24389.26
541.071	23580.31
541.271	23518.87
541.472	23158.43
541.672	22621.86
541.873	22642.34
542.073	22144.69
542.274	22245.04
542.474	22136.49
542.675	21606.07
542.875	21317.31
543.075	21139.13
543.276	20862.66
543.476	20842.18
543.676	20416.2
543.877	20229.84
544.077	19914.45
544.277	19877.58
544.478	19547.86
544.678	19488.47
544.878	19101.4
545.078	18908.9
545.279	18401
545.479	18351.85
545.679	18200.3
545.879	18112.24
546.079	17547
546.28	17452.79
546.48	17288.95
546.68	17417.97
546.88	17184.51
547.08	17106.68
547.28	16459.52
547.48	16400.13
547.68	16135.95
547.88	15869.71
548.081	15771.41
548.281	15681.3
548.481	15378.2
548.681	15413.01
548.881	14911.26
549.081	14925.6
549.28	14370.6
549.48	14522.15
549.68	14411.56
549.88	13985.58
550.08	13694.77
550.28	13825.84
550.48	13774.64
550.68	13524.79
550.88	13141.82
551.08	12785.47
551.279	12863.29
551.479	12363.59
551.679	12504.9
551.879	12130.12
552.079	12304.2
552.278	11962.19
552.478	11945.8
552.678	11661.13
552.878	11646.8
553.077	11226.96
553.277	10917.72
553.477	10905.43
553.676	10694.49
553.876	10336.1
554.076	10119.01
554.275	10168.16
554.475	9877.35
554.674	9951.08
554.874	9803.63
555.074	9494.38
555.273	9348.98
555.473	9176.95
555.672	9105.27
555.872	8882.04
556.071	8816.51
556.271	8836.99
556.47	8597.37
556.67	8482.69
556.869	8241.03
557.068	8304.51
557.268	7999.37
557.467	7823.24
557.667	7751.56
557.866	7786.38
558.065	7565.2
558.265	7397.26
558.464	7266.19
558.663	7212.95
558.863	6961.05
559.062	7077.78
559.261	6737.82
559.461	6868.89
559.66	6449.05
559.859	6320.03
560.058	6254.5
560.258	6135.71
560.457	6182.82
560.656	6244.26
560.855	5941.16
561.054	5994.4
561.253	5840.81
561.453	5638.06
561.652	5713.83
561.851	5707.69
562.05	5351.34
562.249	5273.52
562.448	5222.32
562.647	5136.31
562.846	5033.91
563.045	5187.5
563.244	4876.21
563.443	4882.36
563.642	4802.49
563.841	4816.82
564.04	4571.07
564.239	4761.53
564.438	4444.09
564.637	4384.7
564.836	4415.42
565.035	4366.27
565.234	4192.19
565.432	4448.19
565.631	4186.05
565.83	4136.9
566.029	4071.36
566.228	4044.74
566.427	4057.03
566.625	3803.08
566.824	3821.51
567.023	3796.93
567.222	3739.59
567.42	3688.39
567.619	3719.11
567.818	3631.05
568.016	3616.71
568.215	3420.11
568.414	3469.26
568.612	3264.46
568.811	3235.79
569.01	3319.76
569.208	3291.09
569.407	3346.38
569.605	3225.55
569.804	3039.19
570.002	3016.66
570.201	3022.8
570.4	2938.84
570.598	2824.15
570.797	2897.88
570.995	2789.33
571.193	2867.16
571.392	2725.85
571.59	2598.87
571.789	2637.78
571.987	2609.11
572.186	2754.52
572.384	2387.93
572.582	2375.64
572.781	2514.91
572.979	2285.53
573.177	2357.21
573.376	2369.5
573.574	2543.58
573.772	2287.58
573.971	2138.08
574.169	2103.26
574.367	2185.18
574.565	2152.42
574.763	2187.23
574.962	2160.61
575.16	1976.29
575.358	2007.01
575.556	1935.33
575.754	1896.42
575.952	1908.71
576.151	1980.39
576.349	1933.28
576.547	1736.68
576.745	1837.03
576.943	1765.35
577.141	1761.25
577.339	1621.99
577.537	1646.57
577.735	1794.02
577.933	1665
578.131	1488.87
578.329	1636.33
578.527	1515.5
578.725	1619.94
578.923	1425.39
579.121	1593.32
579.319	1394.67
579.516	1464.3
579.714	1546.22
579.912	1447.91
580.11	1251.31
580.308	1337.32
580.506	1318.89
580.704	1232.88
580.901	1275.88
581.099	1406.95
581.297	1284.08
581.495	1300.46
581.692	1253.36
581.89	1333.23
582.088	1253.36
582.285	1279.98
582.483	1036.27
582.681	1216.49
582.878	1073.14
583.076	1210.35
583.274	1142.77
583.471	1198.06
583.669	1134.57
583.866	997.36
584.064	1007.6
584.262	892.91
584.459	1036.27
584.657	1038.32
584.854	1034.22
585.052	999.41
585.249	1036.27
585.447	954.35
585.644	886.77
585.841	1079.28
586.039	968.69
586.236	976.88
586.434	899.06
586.631	792.56
586.828	901.11
587.026	899.06
587.223	731.12
587.42	696.31
587.618	788.47
587.815	858.1
588.012	704.5
588.21	835.57
588.407	765.94
588.604	827.38
588.801	704.5
588.999	749.56
589.196	849.91
589.393	659.45
589.59	833.52
589.787	806.9
589.984	765.94
590.182	706.55
590.379	669.69
590.576	741.36
590.773	604.15
590.97	651.25
591.167	774.13
591.364	673.78
591.561	524.28
591.758	792.56
591.955	634.87
592.152	716.79
592.349	716.79
592.546	737.27
592.743	606.2
592.94	659.45
593.137	745.46
593.334	788.47
593.531	753.65
593.727	735.22
593.924	671.73
594.121	681.97
594.318	731.12
594.515	788.47
594.712	798.71
594.908	786.42
595.105	694.26
595.302	804.85
595.499	806.9
595.696	829.43
595.892	653.3
596.089	798.71
596.286	669.69
596.482	899.06
596.679	854
596.876	817.14
597.072	886.77
597.269	903.15
597.466	917.49
597.662	882.67
597.859	950.26
598.055	1044.46
598.252	1042.42
598.448	1132.53
598.645	1183.73
598.841	1179.63
599.038	1306.6
599.234	1265.64
599.431	1265.64
599.627	1413.1
599.824	1386.47
600.02	1308.65
600.217	1329.13
600.413	1544.17
600.609	1548.26
600.806	1742.82
601.002	1593.32
601.198	1570.79
601.395	1923.04
601.591	1880.04
601.787	1884.13
601.984	2007.01
602.18	1939.43
602.376	2162.65
602.572	2211.81
602.769	2287.58
602.965	2201.57
603.161	2396.12
603.357	2523.1
603.553	2756.57
603.75	2654.17
603.946	2701.27
604.142	2848.72
604.338	3012.56
604.534	2908.12
604.73	3090.38
604.926	3121.1
605.122	3385.29
605.318	3227.6
605.514	3526.6
605.71	3545.03
605.906	3647.43
606.102	3919.81
606.298	3983.3
606.494	4196.29
606.69	4218.82
606.886	4349.89
607.082	4333.5
607.278	4521.91
607.474	4679.61
607.67	4878.26
607.866	4849.59
608.062	4980.66
608.257	5185.46
608.453	5105.59
608.649	5320.62
608.845	5515.18
609.041	5697.45
609.236	5877.67
609.432	6186.91
609.628	6242.21
609.824	6371.23
610.019	6494.11
610.215	6680.47
610.411	6987.67
610.606	7178.13
610.802	7243.67
610.998	7362.45
611.193	7653.26
611.389	7630.73
611.584	8019.85
611.78	8091.52
611.976	8474.49
612.171	8763.26
612.367	8976.25
612.562	9064.31
612.758	9121.65
612.953	9246.58
613.149	9643.88
613.344	9918.31
613.539	10303.33
613.735	10393.44
613.93	10856.28
614.126	11114.33
614.321	11452.24
614.517	11751.24
614.712	11997
614.907	12203.85
615.103	12420.93
615.298	12973.88
615.493	13363
615.688	13287.22
615.884	13999.91
616.079	14012.2
616.274	14753.57
616.47	14780.19
616.665	15394.58
616.86	15429.4
617.055	16011.02
617.25	16256.78
617.445	17075.96
617.641	16948.99
617.836	17794.8
618.031	17733.36
618.226	18697.95
618.421	18779.87
618.616	19375.83
618.811	19783.38
619.006	20457.16
619.201	20707.01
619.396	20997.82
619.591	21259.96
619.786	21919.41
619.981	22189.74
620.176	23209.63
620.371	23250.59
620.566	24135.31
620.761	24563.34
620.956	25060.99
621.151	24962.69
621.346	25945.72
621.541	25955.96
621.735	26900.07
621.93	27135.59
622.125	27754.07
622.32	27825.75
622.515	28499.53
622.709	29124.16
622.904	29701.69
623.099	29726.27
623.294	30983.72
623.488	31161.89
623.683	31845.91
623.878	32011.8
624.072	32753.16
624.267	33129.99
624.462	33385.99
624.656	33867.26
624.851	34715.12
625.046	34754.03
625.24	35577.31
625.435	35825.12
625.629	36554.19
625.824	36863.44
626.018	37555.65
626.213	37154.25
626.407	37901.76
626.602	37877.18
626.796	38843.82
626.991	38907.31
627.185	38671.79
627.38	39306.66
627.574	39691.68
627.768	39468.45
627.963	39550.37
628.157	39841.18
628.352	39890.34
628.546	39568.8
628.74	39832.99
628.935	39730.59
629.129	39671.2
629.323	39093.68
629.517	39028.14
629.712	38786.48
629.906	38610.35
630.1	37486.02
630.294	37832.13
630.489	37256.65
630.683	36689.36
630.877	36005.34
631.071	35268.07
631.265	34784.75
631.459	33709.57
631.653	32845.32
631.848	32269.84
632.042	31534.62
632.236	30750.25
632.43	29857.34
632.624	29158.98
632.818	28347.98
633.012	27424.35
633.206	26318.45
633.4	25478.78
633.594	24333.96
633.788	23940.75
633.982	22933.15
634.176	22363.82
634.369	20983.49
634.563	20389.58
634.757	19635.92
634.951	19064.54
635.145	18290.41
635.339	17247.99
635.533	16985.85
635.726	16181
635.92	15236.89
636.114	14991.13
636.308	14083.88
636.501	13518.64
636.695	13125.43
636.889	12490.56
637.083	11945.8
637.276	11323.22
637.47	10987.35
637.664	10319.71
637.857	10157.92
638.051	9781.1
638.244	9197.43
638.438	9004.92
638.632	8593.28
638.825	8109.96
639.019	8060.8
639.212	7716.75
639.406	7460.75
639.599	6930.33
639.793	6856.6
639.986	6530.97
640.18	6283.17
640.373	5861.29
640.567	5748.65
640.76	5582.76
640.954	5404.59
641.147	5035.96
641.34	5003.19
641.534	4800.44
641.727	4689.85
641.92	4362.17
642.114	4272.06
642.307	4042.69
642.5	3952.58
642.694	3772.36
642.887	3680.2
643.08	3690.44
643.273	3403.72
643.467	3317.71
643.66	3082.19
643.853	2924.5
644.046	2873.3
644.239	2826.2
644.432	2623.45
644.626	2486.23
644.819	2412.51
645.012	2461.66
645.205	2260.96
645.398	2240.48
645.591	2152.42
645.784	2086.88
645.977	1785.83
646.17	1849.32
646.363	1802.21
646.556	1751.01
646.749	1574.89
646.942	1660.9
647.135	1587.18
647.328	1433.58
647.521	1439.72
647.714	1398.76
647.907	1413.1
648.099	1288.17
648.292	1312.75
648.485	1277.93
648.678	1116.14
648.871	1128.43
649.064	1077.23
649.256	1073.14
649.449	903.15
649.642	880.63
649.835	911.35
650.027	905.2
650.22	944.11
650.413	753.65
650.605	864.24
650.798	747.51
650.991	686.07
651.183	784.37
651.376	800.76
651.568	686.07
651.761	598.01
651.954	643.06
652.146	720.88
652.339	729.08
652.531	681.97
652.724	581.62
652.916	479.22
653.109	405.5
653.301	583.67
653.494	540.66
653.686	518.14
653.879	583.67
654.071	491.51
654.263	442.36
654.456	466.94
654.648	602.1
654.84	497.66
655.033	417.79
655.225	477.18
655.417	253.95
655.61	487.42
655.802	395.26
655.994	483.32
656.186	323.58
656.379	389.11
656.571	307.2
656.763	280.57
656.955	290.81
657.148	296.96
657.34	389.11
657.532	309.24
657.724	280.57
657.916	249.85
658.108	479.22
658.3	309.24
658.492	348.15
658.684	174.08
658.876	362.49
659.068	184.32
659.26	198.65
659.452	159.74
659.644	303.1
659.836	346.11
660.028	268.28
660.22	210.94
660.412	294.91
660.604	133.12
660.796	206.84
660.988	299
661.18	200.7
661.372	217.08
661.563	227.32
661.755	247.8
661.947	153.6
662.139	186.37
662.331	221.18
662.522	198.65
662.714	88.06
662.906	135.17
663.097	264.19
663.289	116.73
663.481	81.92
663.673	208.89
663.864	186.37
664.056	305.15
664.247	167.93
664.439	266.24
664.631	311.29
664.822	260.09
665.014	165.89
665.205	157.69
665.397	129.02
665.588	192.51
665.78	135.17
665.971	141.31
666.163	139.26
666.354	153.6
666.546	112.64
666.737	110.59
666.929	110.59
667.12	176.13
667.311	204.8
667.503	110.59
667.694	133.12
667.885	221.18
668.077	217.08
668.268	77.82
668.459	83.97
668.651	143.36
668.842	237.56
669.033	120.83
669.224	57.34
669.416	299
669.607	200.7
669.798	77.82
669.989	290.81
670.18	165.89
670.371	143.36
670.563	49.15
670.754	239.61
670.945	243.71
671.136	135.17
671.327	63.49
671.518	194.56
671.709	210.94
671.9	217.08
672.091	159.74
672.282	172.03
672.473	174.08
672.664	51.2
672.855	167.93
673.046	186.37
673.237	215.04
673.428	49.15
673.619	161.79
673.809	57.34
674	165.89
674.191	227.32
674.382	206.84
674.573	122.88
674.764	270.33
674.954	253.95
675.145	67.58
675.336	155.65
675.527	94.21
675.717	126.97
675.908	143.36
676.099	8.19
676.289	143.36
676.48	57.34
676.671	143.36
676.861	131.07
677.052	212.99
677.243	153.6
677.433	129.02
677.624	174.08
677.814	167.93
678.005	104.45
678.195	237.56
678.386	116.73
678.576	176.13
678.767	137.21
678.957	79.87
679.148	186.37
679.338	167.93
679.529	141.31
679.719	104.45
679.909	188.41
680.1	276.48
680.29	149.5
680.481	112.64
680.671	188.41
680.861	159.74
681.052	69.63
681.242	172.03
681.432	192.51
681.622	161.79
681.813	8.19
682.003	106.49
682.193	131.07
682.383	217.08
682.573	90.11
682.764	196.6
682.954	178.17
683.144	223.23
683.334	227.32
683.524	100.35
683.714	204.8
683.904	188.41
684.094	176.13
684.284	165.89
684.474	280.57
684.664	184.32
684.854	286.72
685.044	124.93
685.234	188.41
685.424	174.08
685.614	157.69
685.804	292.86
685.994	227.32
686.184	223.23
686.374	129.02
686.564	202.75
686.753	180.22
686.943	120.83
687.133	198.65
687.323	194.56
687.513	225.28
687.702	172.03
687.892	194.56
688.082	225.28
688.272	256
688.461	174.08
688.651	397.31
688.841	135.17
689.03	202.75
689.22	194.56
689.41	221.18
689.599	262.14
689.789	100.35
689.979	243.71
690.168	114.69
690.358	227.32
690.547	264.19
690.737	235.52
690.926	241.66
691.116	223.23
691.305	305.15
691.495	233.47
691.684	112.64
691.874	229.37
692.063	182.27
692.252	270.33
692.442	301.05
692.631	163.84
692.82	190.46
693.01	241.66
693.199	180.22
693.388	221.18
693.578	243.71
693.767	227.32
693.956	212.99
694.146	219.13
694.335	182.27
694.524	106.49
694.713	212.99
694.902	94.21
695.092	116.73
695.281	215.04
695.47	202.75
695.659	178.17
695.848	149.5
696.037	110.59
696.226	241.66
696.415	172.03
696.604	278.52
696.793	210.94
696.982	155.65
697.171	276.48
697.36	120.83
697.549	176.13
697.738	81.92
697.927	92.16
698.116	81.92
698.305	251.9
698.494	215.04
698.683	133.12
698.872	311.29
699.061	208.89
699.25	139.26
699.438	184.32
699.627	122.88
699.816	292.86
700.005	151.55
700.193	120.83
700.382	348.15
700.571	161.79
700.76	204.8
700.948	202.75
701.137	241.66
701.326	245.76
701.514	83.97
701.703	301.05
701.892	243.71
702.08	329.72
702.269	169.98
702.457	169.98
702.646	194.56
702.834	221.18
703.023	231.42
703.212	270.33
703.4	206.84
703.589	202.75
703.777	176.13
703.965	153.6
704.154	149.5
704.342	102.4
704.531	153.6
704.719	223.23
704.907	258.04
705.096	-12.29
705.284	118.78
705.472	198.65
705.661	174.08
705.849	284.67
706.037	221.18
706.226	262.14
706.414	200.7
706.602	196.6
706.79	241.66
706.979	79.87
707.167	88.06
707.355	122.88
707.543	233.47
707.731	129.02
707.919	227.32
708.107	174.08
708.296	79.87
708.484	151.55
708.672	210.94
708.86	212.99
709.048	219.13
709.236	94.21
709.424	227.32
709.612	147.45
709.8	69.63
709.988	229.37
710.176	280.57
710.364	237.56
710.551	149.5
710.739	217.08
710.927	249.85
711.115	182.27
711.303	317.44
711.491	204.8
711.679	73.73
711.866	219.13
712.054	165.89
712.242	190.46
712.43	243.71
712.617	126.97
712.805	256
712.993	192.51
713.181	129.02
713.368	253.95
713.556	124.93
713.744	151.55
713.931	399.35
714.119	206.84
714.306	229.37
714.494	141.31
714.682	167.93
714.869	163.84
715.057	174.08
715.244	4.1
715.432	116.73
715.619	196.6
715.807	186.37
715.994	210.94
716.182	239.61
716.369	266.24
716.556	251.9
716.744	63.49
716.931	90.11
717.119	167.93
717.306	141.31
717.493	247.8
717.681	112.64
717.868	108.54
718.055	198.65
718.242	167.93
718.43	137.21
718.617	301.05
718.804	280.57
718.991	315.39
719.179	206.84
719.366	210.94
719.553	231.42
719.74	235.52
719.927	161.79
720.114	258.04
720.301	100.35
720.488	86.01
720.676	94.21
720.863	294.91
721.05	315.39
721.237	313.34
721.424	266.24
721.611	270.33
721.798	174.08
721.985	233.47
722.172	247.8
722.358	194.56
722.545	227.32
722.732	282.62
722.919	348.15
723.106	325.63
723.293	194.56
723.48	133.12
723.667	163.84
723.853	270.33
724.04	192.51
724.227	262.14
724.414	129.02
724.6	227.32
724.787	249.85
724.974	393.21
725.161	251.9
725.347	90.11
725.534	217.08
725.72	233.47
725.907	233.47
726.094	217.08
726.28	149.5
726.467	182.27
726.653	122.88
726.84	372.73
727.027	317.44
727.213	241.66
727.4	274.43
727.586	186.37
727.773	284.67
727.959	233.47
728.145	247.8
728.332	219.13
728.518	118.78
728.705	280.57
728.891	208.89
729.077	223.23
729.264	184.32
729.45	153.6
729.636	274.43
729.823	174.08
730.009	303.1
730.195	307.2
730.382	219.13
730.568	124.93
730.754	215.04
730.94	206.84
731.126	204.8
731.313	303.1
731.499	233.47
731.685	245.76
731.871	339.96
732.057	169.98
732.243	333.82
732.429	208.89
732.615	354.3
732.801	251.9
732.987	268.28
733.173	274.43
733.359	219.13
733.545	184.32
733.731	217.08
733.917	364.54
734.103	266.24
734.289	225.28
734.475	215.04
734.661	395.26
734.847	229.37
735.033	190.46
735.219	321.53
735.404	245.76
735.59	196.6
735.776	184.32
735.962	268.28
736.148	251.9
736.333	358.39
736.519	276.48
736.705	212.99
736.89	176.13
737.076	309.24
737.262	157.69
737.447	239.61
737.633	227.32
737.819	296.96
738.004	337.91
738.19	208.89
738.375	196.6
738.561	348.15
738.747	227.32
738.932	221.18
739.118	366.59
739.303	305.15
739.489	231.42
739.674	235.52
739.859	188.41
740.045	262.14
740.23	315.39
740.416	141.31
740.601	219.13
740.786	225.28
740.972	235.52
741.157	235.52
741.342	202.75
741.528	118.78
741.713	245.76
741.898	141.31
742.084	204.8
742.269	210.94
742.454	229.37
742.639	286.72
742.824	288.76
743.01	407.55
743.195	317.44
743.38	309.24
743.565	301.05
743.75	215.04
743.935	335.87
744.12	352.25
744.305	219.13
744.49	147.45
744.675	290.81
744.86	237.56
745.045	292.86
745.23	239.61
745.415	233.47
745.6	364.54
745.785	192.51
745.97	313.34
746.155	299
746.34	278.52
746.525	249.85
746.71	274.43
746.895	145.41
747.079	157.69
747.264	155.65
747.449	266.24
747.634	288.76
747.819	315.39
748.003	200.7
748.188	126.97
748.373	210.94
748.557	249.85
748.742	167.93
748.927	217.08
749.111	258.04
749.296	268.28
749.481	292.86
749.665	206.84
749.85	192.51
750.034	184.32
750.219	219.13
750.404	217.08
750.588	258.04
750.773	217.08
750.957	192.51
751.141	196.6
751.326	272.38
751.51	137.21
751.695	112.64
751.879	139.26
752.064	344.06
752.248	141.31
752.432	284.67
752.617	276.48
752.801	303.1
752.985	212.99
753.17	344.06
753.354	274.43
753.538	120.83
753.722	104.45
753.907	124.93
754.091	102.4
754.275	184.32
754.459	55.3
754.643	149.5
754.828	172.03
755.012	186.37
755.196	124.93
755.38	198.65
755.564	96.25
755.748	153.6
755.932	210.94
756.116	219.13
756.3	270.33
756.484	73.73
756.668	227.32
756.852	92.16
757.036	133.12
757.22	219.13
757.404	81.92
757.588	118.78
757.772	131.07
757.956	137.21
758.14	243.71
758.323	110.59
758.507	163.84
758.691	100.35
758.875	180.22
759.059	280.57
759.242	122.88
759.426	163.84
759.61	141.31
759.794	65.53
759.977	169.98
760.161	350.2
760.345	247.8
760.528	167.93
760.712	116.73
760.895	215.04
761.079	106.49
761.263	32.77
761.446	63.49
761.63	145.41
761.813	204.8
761.997	102.4
762.18	110.59
762.364	135.17
762.547	-2.05
762.731	96.25
762.914	157.69
763.098	176.13
763.281	36.86
763.464	90.11
763.648	159.74
763.831	71.68
764.015	77.82
764.198	176.13
764.381	149.5
764.564	116.73
764.748	108.54
764.931	90.11
765.114	141.31
765.297	204.8
765.481	63.49
765.664	141.31
765.847	94.21
766.03	194.56
766.213	81.92
766.397	88.06
766.58	28.67
766.763	124.93
766.946	61.44
767.129	34.82
767.312	100.35
767.495	100.35
767.678	55.3
767.861	45.06
768.044	86.01
768.227	36.86
768.41	120.83
768.593	118.78
768.776	143.36
768.959	92.16
769.142	155.65
769.324	34.82
769.507	59.39
769.69	51.2
769.873	100.35
770.056	266.24
770.239	102.4
770.421	151.55
770.604	204.8
770.787	57.34
770.97	90.11
771.152	8.19
771.335	126.97
771.518	16.38
771.7	266.24
771.883	200.7
772.066	49.15
772.248	221.18
772.431	206.84
772.613	159.74
772.796	8.19
772.978	65.53
773.161	188.41
773.343	151.55
773.526	-18.43
773.708	-88.06
773.891	8.19
774.073	63.49
774.256	141.31
774.438	169.98
774.621	34.82
774.803	198.65
774.985	10.24
775.168	110.59
775.35	59.39
775.532	155.65
775.715	75.77
775.897	106.49
776.079	79.87
776.261	102.4
776.444	79.87
776.626	92.16
776.808	61.44
776.99	-16.38
777.173	90.11
777.355	94.21
777.537	61.44
777.719	131.07
777.901	49.15
778.083	-6.14
778.265	26.62
778.447	88.06
778.629	16.38
778.811	102.4
778.993	106.49
779.175	163.84
779.357	184.32
779.539	4.1
779.721	120.83
779.903	34.82
780.085	77.82
780.267	81.92
780.449	18.43
780.631	126.97
780.812	178.17
780.994	-10.24
781.176	30.72
781.358	38.91
781.54	-0
781.721	75.77
781.903	116.73
782.085	73.73
782.267	145.41
782.448	36.86
782.63	129.02
782.812	-0
782.993	102.4
783.175	143.36
783.357	100.35
783.538	110.59
783.72	-32.77
783.901	178.17
784.083	169.98
784.264	133.12
784.446	-28.67
784.627	-2.05
784.809	122.88
784.99	65.53
785.172	116.73
785.353	43.01
785.535	129.02
785.716	-65.54
785.897	-28.67
786.079	49.15
786.26	4.1
786.441	192.51
786.623	-30.72
786.804	92.16
786.985	69.63
787.167	124.93
787.348	30.72
787.529	73.73
787.71	104.45
787.891	106.49
788.073	-24.58
788.254	-69.63
788.435	165.89
788.616	59.39
788.797	2.05
788.978	14.34
789.159	2.05
789.34	10.24
789.522	53.25
789.703	-49.15
789.884	-0
790.065	86.01
790.246	174.08
790.427	-6.14
790.607	143.36
790.788	157.69
790.969	-36.86
791.15	22.53
791.331	-59.39
791.512	20.48
791.693	47.1
791.874	-18.43
792.054	223.23
792.235	151.55
792.416	24.58
792.597	-36.86
792.778	153.6
792.958	81.92
793.139	110.59
793.32	38.91
793.5	-55.3
793.681	137.21
793.862	10.24
794.042	137.21
794.223	-67.58
794.404	8.19
794.584	-22.53
794.765	77.82
794.945	43.01
795.126	43.01
795.306	83.97
795.487	-20.48
795.667	59.39
795.848	79.87
796.028	-45.06
796.209	18.43
796.389	104.45
796.57	69.63
796.75	10.24
796.93	47.1
797.111	-67.58
797.291	-34.82
797.471	77.82
797.652	81.92
797.832	55.3
798.012	100.35
798.192	12.29
798.373	-47.1
798.553	32.77
798.733	122.88
798.913	-36.86
799.093	-2.05
799.274	45.06
799.454	114.69
799.634	90.11
799.814	65.53
799.994	71.68
800.174	118.78
800.354	20.48
800.534	-47.1
800.714	149.5
800.894	-2.05
801.074	-38.91
801.254	-98.3
801.434	151.55
801.614	26.62
801.794	26.62
801.974	1904.61
802.154	10.24
802.334	165.89
802.514	-110.59
802.693	28.67
802.873	-32.77
803.053	155.65
803.233	129.02
803.413	4.1
803.592	-26.62
803.772	18.43
803.952	102.4
804.131	28.67
804.311	53.25
804.491	155.65
804.67	-20.48
804.85	-30.72
805.03	79.87
805.209	65.53
805.389	-43.01
805.568	38.91
805.748	67.58
805.928	22.53
806.107	61.44
806.287	69.63
806.466	110.59
806.646	10.24
806.825	59.39
807.004	67.58
807.184	59.39
807.363	32.77
807.543	-32.77
807.722	-88.06
807.901	83.97
808.081	147.45
808.26	-94.21
808.439	24.58
808.619	20.48
808.798	43.01
808.977	57.34
809.156	71.68
809.336	-10.24
809.515	139.26
809.694	-10.24
809.873	-26.62
810.052	47.1
810.231	77.82
810.411	94.21
810.59	114.69
810.769	12.29
810.948	57.34
811.127	-4.1
811.306	32.77
811.485	14.34
811.664	143.36
811.843	20.48
812.022	-24.58
812.201	-40.96
812.38	-4.1
812.559	16.38
812.737	88.06
812.916	-75.77
813.095	12.29
813.274	86.01
813.453	53.25
813.632	16.38
813.811	83.97
813.989	-83.97
814.168	83.97
814.347	-4.1
814.526	-10.24
814.704	98.3
814.883	106.49
815.062	-106.49
815.24	88.06
815.419	-28.67
815.598	-12.29
815.776	-67.58
815.955	-22.53
816.133	-114.69
816.312	67.58
816.49	-53.25
816.669	-22.53
816.847	-4.1
817.026	24.58
817.204	40.96
817.383	40.96
817.561	-16.38
817.74	61.44
817.918	49.15
818.097	34.82
818.275	-0
818.453	51.2
818.632	104.45
818.81	26.62
818.988	-36.86
819.167	-40.96
819.345	36.86
819.523	-32.77
819.701	63.49
819.879	122.88
820.058	75.77
820.236	57.34
820.414	28.67
820.592	6.14
820.77	28.67
820.948	-8.19
821.127	-12.29
821.305	71.68
821.483	-36.86
821.661	116.73
821.839	55.3
822.017	-16.38
822.195	-10.24
822.373	55.3
822.551	57.34
822.729	108.54
822.907	8.19
823.085	26.62
823.262	38.91
823.44	-51.2
823.618	6.14
823.796	2.05
823.974	-14.34
824.152	51.2
824.329	2.05
824.507	45.06
824.685	112.64
824.863	-12.29
825.04	88.06
825.218	92.16
825.396	-4.1
825.574	47.1
825.751	-4.1
825.929	114.69
826.107	-102.4
826.284	6.14
826.462	36.86
826.639	-86.01
826.817	8.19
826.994	18.43
827.172	-59.39
827.349	92.16
827.527	92.16
827.704	28.67
827.882	133.12
828.059	51.2
828.237	-18.43
828.414	40.96
828.591	-55.3
828.769	8.19
828.946	-69.63
829.124	79.87
829.301	131.07
829.478	22.53
829.655	36.86
829.833	47.1
830.01	-77.82
830.187	65.53
830.364	40.96
830.542	51.2
830.719	112.64
830.896	86.01
831.073	94.21
831.25	8.19
831.427	143.36
831.604	-2.05
831.782	-2.05
831.959	45.06
832.136	-12.29
832.313	100.35
832.49	30.72
832.667	30.72
832.844	-26.62
833.021	129.02
833.198	36.86
833.374	20.48
833.551	43.01
833.728	-20.48
833.905	81.92
834.082	-88.06
834.259	14.34
834.436	129.02
834.612	-88.06
834.789	151.55
834.966	110.59
835.143	4.1
835.319	-126.97
835.496	53.25
835.673	43.01
835.85	73.73
836.026	110.59
836.203	49.15
836.38	-18.43
836.556	-32.77
836.733	-18.43
836.909	126.97
837.086	12.29
837.262	-73.73
837.439	-20.48
837.616	-40.96
837.792	69.63
837.968	43.01
838.145	-108.54
838.321	6.14
838.498	36.86
838.674	30.72
838.851	-0
839.027	38.91
839.203	24.58
839.38	55.3
839.556	4.1
839.732	16.38
839.909	16.38
840.085	67.58
840.261	-40.96
840.437	-0
840.614	6.14
840.79	102.4
840.966	135.17
841.142	-6.14
841.318	-79.87
841.494	53.25
841.671	69.63
841.847	-67.58
842.023	-24.58
842.199	55.3
842.375	163.84
842.551	-131.07
842.727	-24.58
842.903	49.15
843.079	-86.01
843.255	163.84
843.431	40.96
843.607	145.41
843.783	-67.58
843.959	63.49
844.134	-2.05
844.31	77.82
844.486	-32.77
844.662	-79.87
844.838	2.05
845.013	81.92
845.189	94.21
845.365	30.72
845.541	28.67
845.716	28.67
845.892	-4.1
846.068	10.24
846.244	-83.97
846.419	8.19
846.595	20.48
846.77	-38.91
846.946	71.68
847.122	-102.4
847.297	-14.34
847.473	104.45
847.648	-112.64
847.824	4.1
847.999	-81.92
848.175	-38.91
848.35	69.63
848.526	83.97
848.701	45.06
848.876	114.69
849.052	126.97
849.227	-18.43
849.403	63.49
849.578	-49.15
849.753	79.87
849.929	77.82
850.104	-92.16
850.279	69.63
850.454	83.97
850.63	67.58
850.805	32.77
850.98	83.97
851.155	-45.06
851.33	122.88
851.505	-81.92
851.681	145.41
851.856	14.34
852.031	65.53
852.206	102.4
852.381	-51.2
852.556	47.1
852.731	51.2
852.906	40.96
853.081	30.72
853.256	114.69
853.431	6.14
853.606	-57.34
853.781	-73.73
853.956	-94.21
854.131	-16.38
854.305	-30.72
854.48	18.43
854.655	-65.54
854.83	10.24
855.005	14.34
855.18	98.3
855.354	77.82
855.529	59.39
855.704	-12.29
855.879	18.43
856.053	-83.97
856.228	57.34
856.403	-88.06
856.577	81.92
856.752	-63.49
856.926	-12.29
857.101	18.43
857.276	-57.34
857.45	32.77
857.625	88.06
857.799	-32.77
857.974	67.58
858.148	-43.01
858.323	-10.24
858.497	-45.06
858.672	100.35
858.846	-69.63
859.02	79.87
859.195	-43.01
859.369	-28.67
859.543	20.48
859.718	34.82
859.892	4.1
860.066	47.1
860.241	-43.01
860.415	-57.34
860.589	28.67
860.763	6.14
860.938	-59.39
861.112	69.63
861.286	-16.38
861.46	22.53
861.634	43.01
861.808	118.78
861.982	-26.62
862.157	-49.15
862.331	14.34
862.505	-88.06
862.679	-49.15
862.853	-73.73
863.027	-30.72
863.201	204.8
863.375	-47.1
863.549	83.97
863.722	57.34
863.896	149.5
864.07	-57.34
864.244	6.14
864.418	90.11
864.592	71.68
864.766	2.05
864.939	20.48
865.113	47.1
865.287	153.6
865.461	-34.82
865.634	73.73
865.808	36.86
865.982	-8.19
866.156	-81.92
866.329	-38.91
866.503	106.49
866.676	90.11
866.85	22.53
867.024	16.38
867.197	43.01
867.371	32.77
867.544	-6.14
867.718	-38.91
867.891	59.39
868.065	-40.96
868.238	-14.34
868.412	94.21
868.585	-34.82
868.759	-81.92
868.932	34.82
869.105	18.43
869.279	28.67
869.452	-51.2
869.625	98.3
869.799	-6.14
869.972	-14.34
870.145	-59.39
870.319	4.1
870.492	38.91
870.665	10.24
870.838	-32.77
871.011	-59.39
871.185	43.01
871.358	-57.34
871.531	55.3
871.704	-45.06
871.877	94.21
872.05	-40.96
872.223	-4.1
872.396	65.53
872.569	108.54
872.742	-96.25
872.915	2.05
873.088	40.96
873.261	-55.3
873.434	67.58
873.607	69.63
873.78	110.59
873.953	-92.16
874.126	2.05
874.299	75.77
874.471	-8.19
874.644	-51.2
874.817	-8.19
874.99	116.73
875.163	32.77
875.335	20.48
875.508	-6.14
875.681	129.02
875.853	-83.97
876.026	75.77
876.199	96.25
876.371	86.01
876.544	2.05
876.717	28.67
876.889	-38.91
877.062	108.54
877.234	-86.01
877.407	-69.63
877.579	36.86
877.752	98.3
877.924	104.45
878.097	57.34
878.269	-55.3
878.442	49.15
878.614	18.43
878.786	49.15
878.959	-14.34
879.131	30.72
879.303	-69.63
879.476	-2.05
879.648	139.26
879.82	-20.48
879.993	-38.91
880.165	-129.02
880.337	-69.63
880.509	-30.72
880.681	-34.82
880.854	-12.29
881.026	36.86
881.198	157.69
881.37	61.44
881.542	-24.58
881.714	47.1
881.886	10.24
882.058	-22.53
882.23	12.29
882.402	10.24
882.574	12.29
882.746	30.72
882.918	167.93
883.09	4.1
883.262	20.48
883.434	24.58
883.606	-36.86
883.778	40.96
883.95	92.16
884.122	43.01
884.293	135.17
884.465	67.58
884.637	141.31
884.809	30.72
884.98	18.43
885.152	34.82
885.324	6.14
885.496	-20.48
885.667	-16.38
885.839	28.67
886.011	69.63
886.182	81.92
886.354	100.35
886.525	43.01
886.697	-0
886.869	-20.48
887.04	28.67
887.212	81.92
887.383	190.46
887.555	53.25
887.726	-34.82
887.897	-65.54
888.069	49.15
888.24	94.21
888.412	55.3
888.583	-55.3
888.754	10.24
888.926	-106.49
889.097	67.58
889.268	-86.01
889.44	14.34
889.611	-40.96
889.782	-55.3
889.953	-67.58
890.125	116.73
890.296	57.34
890.467	-94.21
890.638	-55.3
890.809	26.62
890.98	-34.82
891.151	20.48
891.323	55.3
891.494	-4.1
891.665	36.86
891.836	-24.58
892.007	38.91
892.178	6.14
892.349	36.86
892.52	-18.43
892.691	24.58
892.862	24.58
893.032	-81.92
893.203	-0
893.374	4.1
893.545	90.11
893.716	-49.15
893.887	100.35
894.057	40.96
894.228	26.62
894.399	-88.06
894.57	94.21
894.74	-18.43
894.911	45.06
895.082	43.01
895.253	-77.82
895.423	10.24
895.594	69.63
895.764	51.2
895.935	-49.15
896.106	86.01
896.276	-69.63
896.447	32.77
896.617	6.14
896.788	-59.39
896.958	12.29
897.129	10.24
897.299	-34.82
897.47	65.53
897.64	102.4
897.81	51.2
897.981	92.16
898.151	-61.44
898.322	-8.19
898.492	-73.73
898.662	6.14
898.832	59.39
899.003	-6.14
899.173	16.38
899.343	-57.34
899.513	-47.1
