Data from USB4F104151__103__10-45-26-563.txt Node

Date: Wed Feb 26 10:45:26 EST 2025
User: louis
Spectrometer: USB4F10415
Trigger mode: 4
Integration Time (sec): 1.000000E-1
Scans to average: 1
Electric dark correction enabled: true
Nonlinearity correction enabled: false
Boxcar width: 0
XAxis mode: Wavelengths
Number of Pixels in Spectrum: 3648
>>>>>Begin Spectral Data<<<<<
178.204	-403.45
178.424	-403.45
178.644	-403.45
178.864	-440.31
179.084	-354.3
179.304	-18.43
179.524	-63.49
179.744	-2.05
179.964	36.86
180.184	57.34
180.404	57.34
180.624	-18.43
180.844	2.05
181.064	-22.53
181.283	20.48
181.503	-55.3
181.723	6.14
181.943	-57.34
182.163	147.45
182.383	-20.48
182.602	59.39
182.822	182.27
183.042	61.44
183.262	-92.16
183.482	65.54
183.701	18.43
183.921	79.87
184.141	8.19
184.361	83.97
184.58	81.92
184.8	63.49
185.02	18.43
185.239	133.12
185.459	26.62
185.679	77.82
185.898	-79.87
186.118	8.19
186.338	-6.14
186.557	141.31
186.777	-61.44
186.997	59.39
187.216	45.06
187.436	182.27
187.655	108.54
187.875	114.69
188.095	131.07
188.314	122.88
188.534	96.25
188.753	-106.49
188.973	69.63
189.192	208.89
189.412	-12.29
189.631	4.1
189.851	47.1
190.07	219.13
190.29	-71.68
190.509	-18.43
190.729	38.91
190.948	83.97
191.168	186.37
191.387	57.34
191.607	-22.53
191.826	69.63
192.045	71.68
192.265	-16.38
192.484	90.11
192.704	57.34
192.923	-10.24
193.142	198.65
193.362	124.93
193.581	167.93
193.8	120.83
194.02	126.97
194.239	34.82
194.458	34.82
194.678	-22.53
194.897	26.62
195.116	71.68
195.335	100.35
195.555	61.44
195.774	-59.39
195.993	43.01
196.212	-75.77
196.432	-20.48
196.651	-81.92
196.87	-61.44
197.089	174.08
197.308	100.35
197.528	43.01
197.747	-38.91
197.966	77.82
198.185	133.12
198.404	-53.25
198.623	79.87
198.842	133.12
199.062	108.54
199.281	55.3
199.5	22.53
199.719	71.68
199.938	61.44
200.157	102.4
200.376	59.39
200.595	110.59
200.814	61.44
201.033	-49.15
201.252	126.97
201.471	34.82
201.69	-18.43
201.909	49.15
202.128	88.06
202.347	12.29
202.566	30.72
202.785	-98.3
203.004	-67.58
203.223	215.04
203.442	92.16
203.661	-90.11
203.879	96.25
204.098	157.69
204.317	-34.82
204.536	51.2
204.755	65.54
204.974	172.03
205.193	2.05
205.411	69.63
205.63	86.01
205.849	8.19
206.068	51.2
206.287	-104.45
206.505	104.45
206.724	-53.25
206.943	12.29
207.162	40.96
207.381	86.01
207.599	-16.38
207.818	81.92
208.037	40.96
208.255	18.43
208.474	98.3
208.693	90.11
208.911	6.14
209.13	63.49
209.349	38.91
209.567	26.62
209.786	26.62
210.005	55.3
210.223	40.96
210.442	-96.25
210.661	18.43
210.879	98.3
211.098	-8.19
211.316	28.67
211.535	55.3
211.753	43.01
211.972	120.83
212.191	-20.48
212.409	-12.29
212.628	75.77
212.846	-22.53
213.065	18.43
213.283	92.16
213.502	53.25
213.72	6.14
213.938	-6.14
214.157	-20.48
214.375	145.41
214.594	-38.91
214.812	77.82
215.031	-6.14
215.249	151.55
215.467	83.97
215.686	16.38
215.904	12.29
216.122	-26.62
216.341	149.5
216.559	-32.77
216.778	65.54
216.996	88.06
217.214	34.82
217.432	-10.24
217.651	-112.64
217.869	63.49
218.087	28.67
218.306	-20.48
218.524	22.53
218.742	40.96
218.96	120.83
219.179	20.48
219.397	38.91
219.615	251.9
219.833	155.65
220.051	-34.82
220.27	79.87
220.488	34.82
220.706	75.77
220.924	6.14
221.142	-67.58
221.36	47.1
221.578	51.2
221.796	28.67
222.015	51.2
222.233	-10.24
222.451	225.28
222.669	-69.63
222.887	88.06
223.105	4.1
223.323	65.54
223.541	-43.01
223.759	16.38
223.977	81.92
224.195	221.18
224.413	110.59
224.631	45.06
224.849	96.25
225.067	229.37
225.285	-2.05
225.503	32.77
225.721	-75.77
225.939	30.72
226.157	28.67
226.375	194.56
226.592	-2.05
226.81	53.25
227.028	30.72
227.246	73.73
227.464	86.01
227.682	133.12
227.9	45.06
228.117	104.45
228.335	77.82
228.553	47.1
228.771	28.67
228.989	-10.24
229.206	34.82
229.424	-49.15
229.642	-69.63
229.86	-69.63
230.077	106.49
230.295	30.72
230.513	153.6
230.731	159.74
230.948	180.22
231.166	137.21
231.384	43.01
231.601	-26.62
231.819	169.98
232.037	-30.72
232.254	30.72
232.472	-16.38
232.689	-38.91
232.907	59.39
233.125	-40.96
233.342	-92.16
233.56	47.1
233.777	-16.38
233.995	55.3
234.213	59.39
234.43	133.12
234.648	59.39
234.865	-2.05
235.083	114.69
235.3	-2.05
235.518	34.82
235.735	112.64
235.953	71.68
236.17	12.29
236.388	4.1
236.605	28.67
236.822	92.16
237.04	129.02
237.257	-8.19
237.475	-43.01
237.692	-6.14
237.909	118.78
238.127	-2.05
238.344	104.45
238.562	28.67
238.779	-18.43
238.996	-63.49
239.214	-4.1
239.431	40.96
239.648	-4.1
239.865	49.15
240.083	131.07
240.3	-2.05
240.517	69.63
240.735	53.25
240.952	212.99
241.169	32.77
241.386	104.45
241.603	-14.34
241.821	-34.82
242.038	71.68
242.255	180.22
242.472	-24.58
242.689	45.06
242.907	16.38
243.124	-12.29
243.341	8.19
243.558	49.15
243.775	-86.01
243.992	-67.58
244.209	40.96
244.426	151.55
244.643	90.11
244.86	34.82
245.078	147.45
245.295	47.1
245.512	-12.29
245.729	-4.1
245.946	16.38
246.163	55.3
246.38	94.21
246.597	36.86
246.814	4.1
247.031	104.45
247.248	20.48
247.464	34.82
247.681	112.64
247.898	180.22
248.115	61.44
248.332	-94.21
248.549	112.64
248.766	182.27
248.983	96.25
249.2	57.34
249.417	165.89
249.633	-90.11
249.85	90.11
250.067	83.97
250.284	-4.1
250.501	90.11
250.717	77.82
250.934	-45.06
251.151	-43.01
251.368	38.91
251.585	0
251.801	38.91
252.018	-71.68
252.235	32.77
252.451	-26.62
252.668	2.05
252.885	120.83
253.102	40.96
253.318	-51.2
253.535	14.34
253.752	32.77
253.968	92.16
254.185	-94.21
254.401	12.29
254.618	65.54
254.835	0
255.051	86.01
255.268	96.25
255.484	73.73
255.701	20.48
255.917	59.39
256.134	-22.53
256.351	2.05
256.567	0
256.784	43.01
257	-69.63
257.217	32.77
257.433	40.96
257.65	96.25
257.866	102.4
258.082	-34.82
258.299	-8.19
258.515	18.43
258.732	55.3
258.948	26.62
259.165	49.15
259.381	-38.91
259.597	63.49
259.814	-73.73
260.03	67.58
260.246	-59.39
260.463	96.25
260.679	86.01
260.895	114.69
261.112	40.96
261.328	63.49
261.544	0
261.761	126.97
261.977	-8.19
262.193	-51.2
262.409	32.77
262.626	38.91
262.842	59.39
263.058	-6.14
263.274	12.29
263.49	34.82
263.707	90.11
263.923	71.68
264.139	-102.4
264.355	65.54
264.571	147.45
264.787	55.3
265.004	153.6
265.22	20.48
265.436	47.1
265.652	104.45
265.868	55.3
266.084	-22.53
266.3	16.38
266.516	-67.58
266.732	16.38
266.948	18.43
267.164	2.05
267.38	71.68
267.596	24.58
267.812	139.26
268.028	61.44
268.244	-57.34
268.46	26.62
268.676	0
268.892	2.05
269.108	0
269.324	-16.38
269.54	-53.25
269.756	30.72
269.972	-92.16
270.188	75.77
270.403	-14.34
270.619	28.67
270.835	24.58
271.051	79.87
271.267	61.44
271.483	61.44
271.698	147.45
271.914	73.73
272.13	36.86
272.346	2.05
272.562	118.78
272.777	180.22
272.993	-2.05
273.209	16.38
273.425	32.77
273.64	-45.06
273.856	36.86
274.072	14.34
274.287	-16.38
274.503	98.3
274.719	79.87
274.934	65.54
275.15	-79.87
275.366	-8.19
275.581	4.1
275.797	-28.67
276.012	57.34
276.228	-12.29
276.444	77.82
276.659	92.16
276.875	-12.29
277.09	49.15
277.306	-14.34
277.521	51.2
277.737	-24.58
277.952	83.97
278.168	-30.72
278.383	-36.86
278.599	61.44
278.814	104.45
279.03	-2.05
279.245	147.45
279.461	12.29
279.676	61.44
279.892	-55.3
280.107	-69.63
280.322	-43.01
280.538	-6.14
280.753	-22.53
280.969	45.06
281.184	-8.19
281.399	157.69
281.615	75.77
281.83	30.72
282.045	-59.39
282.26	-51.2
282.476	92.16
282.691	28.67
282.906	86.01
283.122	24.58
283.337	18.43
283.552	34.82
283.767	-86.01
283.983	40.96
284.198	40.96
284.413	47.1
284.628	-40.96
284.843	88.06
285.058	151.55
285.274	16.38
285.489	-10.24
285.704	90.11
285.919	67.58
286.134	-77.82
286.349	20.48
286.564	26.62
286.779	161.79
286.995	38.91
287.21	-77.82
287.425	55.3
287.64	4.1
287.855	18.43
288.07	-53.25
288.285	79.87
288.5	71.68
288.715	73.73
288.93	8.19
289.145	-57.34
289.36	102.4
289.575	-59.39
289.79	122.88
290.004	49.15
290.219	118.78
290.434	14.34
290.649	-61.44
290.864	-53.25
291.079	4.1
291.294	61.44
291.509	-24.58
291.724	-63.49
291.938	-8.19
292.153	151.55
292.368	14.34
292.583	49.15
292.798	71.68
293.012	59.39
293.227	69.63
293.442	36.86
293.657	65.54
293.871	114.69
294.086	79.87
294.301	223.23
294.516	63.49
294.73	34.82
294.945	6.14
295.16	45.06
295.374	110.59
295.589	92.16
295.804	18.43
296.018	47.1
296.233	71.68
296.447	-22.53
296.662	51.2
296.877	61.44
297.091	73.73
297.306	67.58
297.52	36.86
297.735	61.44
297.949	22.53
298.164	53.25
298.378	69.63
298.593	-143.36
298.807	14.34
299.022	43.01
299.236	122.88
299.451	73.73
299.665	-18.43
299.88	49.15
300.094	124.93
300.309	59.39
300.523	20.48
300.737	20.48
300.952	18.43
301.166	71.68
301.381	-8.19
301.595	-2.05
301.809	38.91
302.024	18.43
302.238	-14.34
302.452	10.24
302.667	-24.58
302.881	51.2
303.095	90.11
303.309	22.53
303.524	45.06
303.738	57.34
303.952	-38.91
304.166	-10.24
304.381	-28.67
304.595	137.21
304.809	6.14
305.023	10.24
305.237	20.48
305.452	-51.2
305.666	26.62
305.88	22.53
306.094	51.2
306.308	36.86
306.522	65.54
306.736	65.54
306.95	98.3
307.164	-20.48
307.379	73.73
307.593	102.4
307.807	147.45
308.021	65.54
308.235	90.11
308.449	-145.41
308.663	-36.86
308.877	266.24
309.091	71.68
309.305	96.25
309.519	-129.02
309.733	69.63
309.947	-36.86
310.161	77.82
310.374	81.92
310.588	157.69
310.802	-32.77
311.016	-28.67
311.23	55.3
311.444	26.62
311.658	28.67
311.872	151.55
312.085	126.97
312.299	47.1
312.513	63.49
312.727	20.48
312.941	-30.72
313.154	49.15
313.368	59.39
313.582	28.67
313.796	32.77
314.009	-55.3
314.223	83.97
314.437	36.86
314.651	133.12
314.864	18.43
315.078	47.1
315.292	-38.91
315.505	-24.58
315.719	63.49
315.933	106.49
316.146	-16.38
316.36	53.25
316.573	38.91
316.787	63.49
317.001	26.62
317.214	-81.92
317.428	-6.14
317.641	-110.59
317.855	16.38
318.068	30.72
318.282	-12.29
318.495	106.49
318.709	90.11
318.922	-53.25
319.136	159.74
319.349	108.54
319.563	-38.91
319.776	59.39
319.99	16.38
320.203	114.69
320.417	96.25
320.63	43.01
320.843	98.3
321.057	28.67
321.27	4.1
321.483	43.01
321.697	159.74
321.91	-2.05
322.124	102.4
322.337	36.86
322.55	45.06
322.763	20.48
322.977	2.05
323.19	8.19
323.403	45.06
323.617	67.58
323.83	100.35
324.043	8.19
324.256	75.77
324.469	-79.87
324.683	36.86
324.896	61.44
325.109	-24.58
325.322	-43.01
325.535	118.78
325.748	165.89
325.962	40.96
326.175	83.97
326.388	-2.05
326.601	86.01
326.814	38.91
327.027	51.2
327.24	212.99
327.453	-102.4
327.666	26.62
327.879	139.26
328.092	88.06
328.305	12.29
328.518	12.29
328.731	-92.16
328.944	-24.58
329.157	34.82
329.37	81.92
329.583	145.41
329.796	137.21
330.009	-79.87
330.222	75.77
330.435	108.54
330.648	98.3
330.861	16.38
331.073	69.63
331.286	88.06
331.499	18.43
331.712	-59.39
331.925	55.3
332.138	-38.91
332.35	45.06
332.563	-8.19
332.776	131.07
332.989	-22.53
333.202	59.39
333.414	40.96
333.627	65.54
333.84	16.38
334.053	135.17
334.265	32.77
334.478	18.43
334.691	-22.53
334.903	75.77
335.116	2.05
335.329	-6.14
335.541	129.02
335.754	167.93
335.966	28.67
336.179	69.63
336.392	-34.82
336.604	24.58
336.817	53.25
337.029	61.44
337.242	81.92
337.454	67.58
337.667	28.67
337.88	176.13
338.092	129.02
338.305	40.96
338.517	20.48
338.729	40.96
338.942	151.55
339.154	10.24
339.367	-88.06
339.579	-22.53
339.792	-18.43
340.004	57.34
340.217	67.58
340.429	-14.34
340.641	-73.73
340.854	30.72
341.066	30.72
341.278	141.31
341.491	200.7
341.703	-38.91
341.915	-47.1
342.128	59.39
342.34	73.73
342.552	-16.38
342.764	-24.58
342.977	-49.15
343.189	22.53
343.401	59.39
343.613	-108.54
343.826	102.4
344.038	47.1
344.25	38.91
344.462	-51.2
344.674	67.58
344.886	12.29
345.099	55.3
345.311	69.63
345.523	16.38
345.735	-22.53
345.947	61.44
346.159	71.68
346.371	47.1
346.583	14.34
346.795	174.08
347.007	38.91
347.219	45.06
347.431	8.19
347.643	153.6
347.855	-34.82
348.067	122.88
348.279	-131.07
348.491	55.3
348.703	-16.38
348.915	-6.14
349.127	-18.43
349.339	45.06
349.551	0
349.763	36.86
349.975	30.72
350.187	65.54
350.399	30.72
350.61	32.77
350.822	69.63
351.034	-10.24
351.246	-57.34
351.458	-4.1
351.669	14.34
351.881	90.11
352.093	151.55
352.305	163.84
352.517	92.16
352.728	98.3
352.94	16.38
353.152	51.2
353.363	-18.43
353.575	16.38
353.787	155.65
353.999	94.21
354.21	172.03
354.422	-8.19
354.633	16.38
354.845	24.58
355.057	2.05
355.268	-6.14
355.48	75.77
355.692	-40.96
355.903	18.43
356.115	-38.91
356.326	-192.51
356.538	159.74
356.749	36.86
356.961	69.63
357.172	36.86
357.384	-26.62
357.595	251.9
357.807	-59.39
358.018	-65.54
358.23	59.39
358.441	141.31
358.653	55.3
358.864	-8.19
359.075	-22.53
359.287	55.3
359.498	120.83
359.709	16.38
359.921	2.05
360.132	34.82
360.344	-34.82
360.555	-14.34
360.766	51.2
360.977	-2.05
361.189	88.06
361.4	-106.49
361.611	124.93
361.823	98.3
362.034	92.16
362.245	-40.96
362.456	43.01
362.667	40.96
362.879	-49.15
363.09	24.58
363.301	26.62
363.512	36.86
363.723	36.86
363.935	81.92
364.146	69.63
364.357	38.91
364.568	32.77
364.779	8.19
364.99	65.54
365.201	-36.86
365.412	92.16
365.623	-108.54
365.834	77.82
366.045	-34.82
366.256	40.96
366.467	96.25
366.678	-67.58
366.889	-86.01
367.1	-2.05
367.311	65.54
367.522	-47.1
367.733	94.21
367.944	151.55
368.155	28.67
368.366	118.78
368.577	43.01
368.788	100.35
368.999	-53.25
369.209	28.67
369.42	159.74
369.631	176.13
369.842	6.14
370.053	-32.77
370.264	61.44
370.474	-51.2
370.685	53.25
370.896	43.01
371.107	153.6
371.317	133.12
371.528	-43.01
371.739	61.44
371.95	51.2
372.16	59.39
372.371	-34.82
372.582	-34.82
372.792	34.82
373.003	90.11
373.214	86.01
373.424	61.44
373.635	-51.2
373.846	178.17
374.056	26.62
374.267	8.19
374.477	28.67
374.688	-36.86
374.898	126.97
375.109	18.43
375.319	92.16
375.53	114.69
375.74	131.07
375.951	-20.48
376.161	43.01
376.372	10.24
376.582	14.34
376.793	83.97
377.003	20.48
377.214	-34.82
377.424	67.58
377.635	30.72
377.845	43.01
378.055	124.93
378.266	-10.24
378.476	57.34
378.686	-2.05
378.897	71.68
379.107	75.77
379.317	83.97
379.528	-20.48
379.738	120.83
379.948	-16.38
380.158	108.54
380.369	45.06
380.579	83.97
380.789	10.24
380.999	122.88
381.21	90.11
381.42	141.31
381.63	-12.29
381.84	61.44
382.05	65.54
382.261	180.22
382.471	73.73
382.681	-94.21
382.891	102.4
383.101	81.92
383.311	10.24
383.521	-61.44
383.731	38.91
383.941	75.77
384.151	-14.34
384.361	-36.86
384.571	0
384.781	16.38
384.991	161.79
385.201	229.37
385.411	26.62
385.621	32.77
385.831	43.01
386.041	-4.1
386.251	79.87
386.461	102.4
386.671	40.96
386.881	53.25
387.091	96.25
387.301	61.44
387.511	18.43
387.72	43.01
387.93	47.1
388.14	-32.77
388.35	77.82
388.56	141.31
388.769	75.77
388.979	67.58
389.189	-6.14
389.399	12.29
389.609	69.63
389.818	92.16
390.028	16.38
390.238	116.73
390.447	45.06
390.657	67.58
390.867	36.86
391.076	-92.16
391.286	28.67
391.496	-8.19
391.705	24.58
391.915	159.74
392.125	133.12
392.334	10.24
392.544	59.39
392.753	24.58
392.963	6.14
393.172	-2.05
393.382	-79.87
393.591	202.75
393.801	-73.73
394.01	200.7
394.22	98.3
394.429	-63.49
394.639	43.01
394.848	110.59
395.058	104.45
395.267	83.97
395.477	67.58
395.686	51.2
395.895	161.79
396.105	161.79
396.314	75.77
396.524	49.15
396.733	24.58
396.942	155.65
397.152	71.68
397.361	104.45
397.57	22.53
397.78	-20.48
397.989	10.24
398.198	223.23
398.407	-65.54
398.617	0
398.826	40.96
399.035	-4.1
399.244	106.49
399.453	36.86
399.663	28.67
399.872	40.96
400.081	-90.11
400.29	63.49
400.499	-36.86
400.708	81.92
400.917	63.49
401.127	43.01
401.336	-2.05
401.545	174.08
401.754	75.77
401.963	43.01
402.172	-63.49
402.381	36.86
402.59	88.06
402.799	20.48
403.008	163.84
403.217	98.3
403.426	4.1
403.635	-12.29
403.844	38.91
404.053	6.14
404.262	-32.77
404.471	172.03
404.68	153.6
404.888	86.01
405.097	45.06
405.306	120.83
405.515	57.34
405.724	43.01
405.933	86.01
406.142	30.72
406.35	157.69
406.559	79.87
406.768	47.1
406.977	106.49
407.185	55.3
407.394	47.1
407.603	-10.24
407.812	45.06
408.02	110.59
408.229	47.1
408.438	28.67
408.646	-59.39
408.855	22.53
409.064	116.73
409.272	-4.1
409.481	43.01
409.69	18.43
409.898	-26.62
410.107	108.54
410.315	163.84
410.524	-73.73
410.733	67.58
410.941	12.29
411.15	69.63
411.358	90.11
411.567	81.92
411.775	0
411.984	77.82
412.192	90.11
412.401	-45.06
412.609	239.61
412.818	118.78
413.026	149.5
413.234	36.86
413.443	45.06
413.651	36.86
413.86	36.86
414.068	86.01
414.276	196.61
414.485	-14.34
414.693	215.04
414.901	251.9
415.11	129.02
415.318	75.77
415.526	12.29
415.734	147.45
415.943	47.1
416.151	77.82
416.359	18.43
416.567	4.1
416.776	129.02
416.984	100.35
417.192	221.18
417.4	-10.24
417.608	14.34
417.817	10.24
418.025	135.17
418.233	200.7
418.441	-100.35
418.649	-2.05
418.857	100.35
419.065	137.21
419.273	55.3
419.481	-8.19
419.689	71.68
419.897	-43.01
420.105	-6.14
420.313	141.31
420.521	47.1
420.729	172.03
420.937	79.87
421.145	6.14
421.353	122.88
421.561	159.74
421.769	69.63
421.977	18.43
422.185	86.01
422.393	36.86
422.601	86.01
422.809	67.58
423.017	67.58
423.224	133.12
423.432	118.78
423.64	69.63
423.848	57.34
424.056	4.1
424.263	129.02
424.471	71.68
424.679	188.41
424.887	-53.25
425.094	161.79
425.302	122.88
425.51	49.15
425.718	133.12
425.925	81.92
426.133	20.48
426.341	262.14
426.548	-16.38
426.756	0
426.964	122.88
427.171	-16.38
427.379	176.13
427.586	110.59
427.794	178.17
428.001	131.07
428.209	51.2
428.417	141.31
428.624	118.78
428.832	90.11
429.039	145.41
429.247	45.06
429.454	124.93
429.662	174.08
429.869	153.6
430.076	151.55
430.284	215.04
430.491	178.17
430.699	196.61
430.906	212.99
431.114	122.88
431.321	90.11
431.528	184.32
431.736	194.56
431.943	210.94
432.15	137.21
432.358	159.74
432.565	282.62
432.772	69.63
432.979	163.84
433.187	90.11
433.394	260.09
433.601	190.46
433.808	210.94
434.016	245.76
434.223	227.32
434.43	174.08
434.637	278.52
434.844	247.8
435.052	278.52
435.259	305.15
435.466	329.72
435.673	237.56
435.88	243.71
436.087	313.34
436.294	397.31
436.501	313.34
436.708	253.95
436.915	305.15
437.122	385.02
437.329	299
437.537	313.34
437.743	305.15
437.95	409.59
438.157	417.79
438.364	421.88
438.571	397.31
438.778	380.92
438.985	462.84
439.192	561.14
439.399	464.89
439.606	569.34
439.813	444.41
440.02	641.01
440.227	636.92
440.433	540.66
440.64	522.23
440.847	464.89
441.054	634.87
441.261	727.03
441.467	632.82
441.674	677.88
441.881	745.46
442.088	645.11
442.294	780.28
442.501	772.08
442.708	872.43
442.914	851.95
443.121	868.34
443.328	880.63
443.534	989.17
443.741	974.83
443.948	729.08
444.154	1107.95
444.361	1134.57
444.568	1062.9
444.774	1066.99
444.981	976.88
445.187	1253.36
445.394	1146.86
445.6	1253.36
445.807	1380.33
446.013	1415.15
446.22	1304.56
446.426	1464.3
446.633	1648.61
446.839	1812.45
447.046	1544.17
447.252	1746.92
447.459	1798.12
447.665	1773.54
447.871	1865.7
448.078	2109.41
448.284	1929.19
448.491	2168.8
448.697	2062.3
448.903	2334.68
449.11	2273.25
449.316	2277.34
449.522	2541.53
449.728	2535.39
449.935	2650.07
450.141	2695.13
450.347	2955.22
450.553	2883.54
450.76	2893.78
450.966	3233.74
451.172	3207.12
451.378	3272.65
451.584	3418.06
451.791	3635.14
451.997	3663.82
452.203	3850.18
452.409	4093.89
452.615	4292.54
452.821	4040.64
453.027	4077.51
453.233	4673.46
453.44	4399.04
453.646	4757.43
453.852	5048.24
454.058	5056.43
454.264	5275.57
454.47	5674.92
454.676	5654.44
454.882	6137.76
455.088	5898.15
455.294	6174.63
455.5	6526.88
455.705	7128.98
455.911	7126.93
456.117	7266.19
456.323	7550.86
456.529	7427.98
456.735	8437.63
456.941	8435.58
457.147	8679.29
457.352	8832.89
457.558	9389.94
457.764	9604.97
457.97	9920.36
458.176	10342.24
458.381	10655.58
458.587	11042.65
458.793	11683.66
458.999	11442
459.204	13004.6
459.41	13291.32
459.616	13383.48
459.821	14073.64
460.027	14784.29
460.233	15267.61
460.438	15232.79
460.644	16279.3
460.85	16609.03
461.055	16930.56
461.261	18198.25
461.466	17432.31
461.672	17833.71
461.878	20025.04
462.083	19543.77
462.289	20244.17
462.494	20879.04
462.7	21219
462.905	21227.2
463.111	23000.74
463.316	24520.33
463.522	24805
463.727	25192.06
463.932	26631.79
464.138	27438.69
464.343	28446.29
464.549	28579.4
464.754	30367.28
464.959	31747.61
465.165	32210.45
465.37	31944.22
465.575	31729.18
465.781	33785.34
465.986	35028.46
466.191	34147.83
466.397	34610.67
466.602	33617.41
466.807	35679.71
467.012	36333.01
467.218	36761.04
467.423	36851.15
467.628	38262.2
467.833	39736.74
468.038	39372.2
468.244	38940.08
468.449	40422.81
468.654	39722.4
468.859	39765.41
469.064	39708.07
469.269	39222.7
469.474	38933.93
469.679	40455.57
469.885	39382.44
470.09	39445.93
470.295	39863.71
470.5	39282.09
470.705	38729.14
470.91	38133.18
471.115	37434.82
471.32	38442.42
471.525	38290.87
471.73	37193.16
471.935	36890.06
472.139	35401.19
472.344	35444.2
472.549	35358.18
472.754	34790.89
472.959	33773.05
473.164	32591.37
473.369	32366.1
473.574	33125.89
473.778	32497.17
473.983	32003.61
474.188	31290.91
474.393	30150.2
474.598	30219.83
474.802	28999.24
475.007	28501.58
475.212	28468.81
475.417	27317.86
475.621	27297.38
475.826	27065.95
476.031	26416.75
476.235	25548.41
476.44	25820.79
476.645	24979.07
476.849	24651.4
477.054	24538.76
477.259	23658.13
477.463	23678.61
477.668	23312.03
477.872	23076.51
478.077	22578.86
478.282	21712.56
478.486	21862.07
478.691	21372.6
478.895	21264.06
479.1	21206.72
479.304	20848.32
479.509	20182.73
479.713	20453.06
479.918	20399.82
480.122	19736.27
480.326	19719.89
480.531	19984.08
480.735	19181.28
480.94	19179.23
481.144	19850.96
481.348	18464.49
481.553	18767.59
481.757	18335.46
481.961	18489.06
482.166	18620.13
482.37	18302.7
482.574	17848.05
482.778	18153.19
482.983	18308.84
483.187	17798.9
483.391	17628.92
483.595	17307.38
483.8	17280.76
484.004	17370.87
484.208	17170.17
484.412	16869.12
484.616	16842.49
484.821	16529.16
485.025	16217.86
485.229	16187.15
485.433	15689.49
485.637	15726.35
485.841	15367.96
486.045	15431.44
486.249	15130.39
486.453	14679.84
486.657	14663.46
486.861	14550.82
487.065	13963.05
487.269	14083.88
487.473	13510.45
487.677	13657.9
487.881	13758.25
488.085	13137.72
488.289	13133.62
488.493	12482.37
488.697	12623.68
488.901	12312.39
489.105	11876.17
489.309	11974.47
489.512	11657.04
489.716	11581.26
489.92	11206.49
490.124	11087.7
490.328	11083.61
490.531	10405.73
490.735	10395.49
490.939	10356.58
491.143	10088.29
491.346	9998.18
491.55	9779.05
491.754	9748.33
491.958	9330.55
492.161	9475.95
492.365	9144.18
492.569	9084.79
492.772	8841.08
492.976	9049.97
493.18	8796.03
493.383	8591.23
493.587	8521.6
493.79	8490.88
493.994	8136.58
494.197	8214.4
494.401	8054.66
494.605	8038.28
494.808	7810.95
495.012	7741.32
495.215	7884.68
495.419	7862.15
495.622	7726.99
495.825	7743.37
496.029	7638.92
496.232	7722.89
496.436	7587.72
496.639	7905.16
496.843	7403.41
497.046	7567.24
497.249	7618.44
497.453	7489.42
497.656	7325.58
497.859	7583.63
498.063	7683.98
498.266	7692.17
498.469	7395.22
498.673	7659.4
498.876	7581.58
499.079	7288.72
499.282	7651.21
499.485	7931.78
499.689	7716.75
499.892	7993.22
500.095	7679.88
500.298	7870.34
500.501	7608.2
500.705	8146.82
500.908	7858.06
501.111	8034.18
501.314	8183.68
501.517	8036.23
501.72	8341.38
501.923	8492.93
502.126	8697.72
502.329	8499.07
502.532	8511.36
502.735	8710.01
502.938	8818.55
503.141	8923
503.344	9004.92
503.547	9119.6
503.75	9258.87
503.953	9183.09
504.156	9551.73
504.359	9561.97
504.562	9545.58
504.765	9836.39
504.968	10002.28
505.17	10436.45
505.373	10266.47
505.576	10583.9
505.779	10637.15
505.982	10575.71
506.185	11087.7
506.387	11315.03
506.59	11231.06
506.793	11343.7
506.996	11620.17
507.198	12064.58
507.401	12193.61
507.604	12482.37
507.807	12746.56
508.009	12762.94
508.212	13262.65
508.415	13276.98
508.617	13637.42
508.82	13653.81
509.022	13874.99
509.225	14358.31
509.428	14511.91
509.63	14937.88
509.833	15224.6
510.035	15822.61
510.238	15849.23
510.44	16340.74
510.643	16656.13
510.845	16987.9
511.048	17413.88
511.25	17897.2
511.453	18001.65
511.655	18812.64
511.858	18781.92
512.06	19306.2
512.262	19525.33
512.465	20041.42
512.667	20342.47
512.87	21231.29
513.072	21112.51
513.274	21935.79
513.477	22576.81
513.679	23131.81
513.881	23463.58
514.084	24047.25
514.286	24290.96
514.488	24970.88
514.69	25841.27
514.893	26205.81
515.095	26431.08
515.297	26881.64
515.499	27457.12
515.701	28200.53
515.904	28974.66
516.106	29589.05
516.308	30113.33
516.51	30881.32
516.712	30893.61
516.914	31880.73
517.116	32615.95
517.318	32955.91
517.52	33302.02
517.722	34117.11
517.925	34627.06
518.127	35272.17
518.329	36298.2
518.531	35962.33
518.733	36996.56
518.935	37766.59
519.136	37875.13
519.338	38946.22
519.54	39034.28
519.742	39832.99
519.944	40578.45
520.146	41368.97
520.348	41213.32
520.55	42130.81
520.752	42528.12
520.954	43093.36
521.155	42855.79
521.357	44324.19
521.559	44909.91
521.761	45231.44
521.963	45129.04
522.164	45899.08
522.366	46124.35
522.568	46589.24
522.77	47023.41
522.971	47469.87
523.173	47211.82
523.375	47697.19
523.576	48188.7
523.778	48162.08
523.98	48459.04
524.181	48784.66
524.383	48629.02
524.584	49601.8
524.786	49450.25
524.988	49091.86
525.189	49261.84
525.391	49650.95
525.592	49579.28
525.794	49575.18
525.995	49372.43
526.197	49380.62
526.398	49392.91
526.6	49288.46
526.801	49171.73
527.003	49028.37
527.204	49179.92
527.406	48903.45
527.607	48436.51
527.808	48774.42
528.01	47390
528.211	47764.78
528.412	47768.87
528.614	46984.5
528.815	47150.38
529.016	46710.07
529.218	46296.38
529.419	45989.19
529.62	45628.74
529.822	45272.4
530.023	44834.13
530.224	44367.19
530.425	44264.8
530.626	43099.5
530.828	42720.63
531.029	43195.76
531.23	42337.66
531.431	41299.34
531.632	41450.89
531.833	41211.28
532.035	40236.44
532.236	40074.65
532.437	39978.4
532.638	38911.41
532.839	38591.92
533.04	38143.42
533.241	37322.18
533.442	37316.04
533.643	36642.26
533.844	36056.54
534.045	35821.02
534.246	35190.25
534.447	34838
534.648	34268.66
534.849	33922.55
535.05	33365.51
535.251	32802.32
535.451	32323.09
535.652	32222.74
535.853	31530.53
536.054	31399.46
536.255	30830.12
536.456	29918.78
536.657	29873.72
536.857	29326.91
537.058	29072.96
537.259	28745.29
537.46	28397.13
537.66	28128.85
537.861	27709.02
538.062	27180.64
538.263	26889.83
538.463	26478.19
538.664	26279.53
538.865	25929.33
539.065	25622.14
539.266	25230.97
539.466	25310.85
539.667	24704.65
539.868	24493.71
540.068	24149.65
540.269	23867.03
540.469	23695
540.67	23107.23
540.87	22750.88
541.071	22363.82
541.271	22638.25
541.472	22322.86
541.672	21970.61
541.873	21311.16
542.073	21352.12
542.274	21415.61
542.474	20872.9
542.675	20414.15
542.875	20422.34
543.075	20346.57
543.276	19781.33
543.476	19893.97
543.676	19523.29
543.877	19107.55
544.077	19091.16
544.277	18867.94
544.478	18568.93
544.678	18638.56
544.878	18198.25
545.078	18298.6
545.279	17708.79
545.479	17690.35
545.679	17551.09
545.879	17239.8
546.079	17270.52
546.28	16832.26
546.48	16725.76
546.68	16525.06
546.88	16516.87
547.08	16393.99
547.28	16088.84
547.48	15671.06
547.68	15511.32
547.88	15386.39
548.081	15114.01
548.281	14919.45
548.481	14864.16
548.681	14497.57
548.881	14487.33
549.081	14194.47
549.28	13954.86
549.48	13694.77
549.68	13694.77
549.88	13551.41
550.08	13150.01
550.28	13115.19
550.48	13045.56
550.68	12871.48
550.88	12754.75
551.08	12465.99
551.279	12349.25
551.479	11997
551.679	11884.36
551.879	11771.72
552.079	11698
552.278	11331.41
552.478	11261.78
552.678	11235.16
552.878	10936.15
553.077	10794.84
553.277	10516.32
553.477	10596.19
553.676	10364.77
553.876	10248.04
554.076	9891.69
554.275	9996.14
554.475	9541.49
554.674	9414.51
554.874	9351.03
555.074	9076.6
555.273	9017.21
555.473	8877.94
555.672	8613.76
555.872	8562.56
556.071	8601.47
556.271	8368
556.47	8281.99
556.67	7976.84
556.869	8042.37
557.068	7976.84
557.268	7669.64
557.467	7411.6
557.667	7460.75
557.866	7456.65
558.065	7073.68
558.265	7188.37
558.464	6883.22
558.663	6848.41
558.863	6819.74
559.062	6666.14
559.261	6600.6
559.461	6528.92
559.66	6346.66
559.859	6076.32
560.058	6111.14
560.258	5945.25
560.457	5855.14
560.656	5898.15
560.855	5777.32
561.054	5898.15
561.253	5629.87
561.453	5449.64
561.652	5398.45
561.851	5406.64
562.05	5162.93
562.249	5027.76
562.448	5054.39
562.647	5060.53
562.846	4923.32
563.045	4872.12
563.244	4728.76
563.443	4886.45
563.642	4757.43
563.841	4618.17
564.04	4571.07
564.239	4661.18
564.438	4444.09
564.637	4237.25
564.836	4290.49
565.035	4249.54
565.234	4104.13
565.432	4110.27
565.631	4093.89
565.83	3975.11
566.029	3745.73
566.228	3731.4
566.427	3962.82
566.625	3702.73
566.824	3733.45
567.023	3637.19
567.222	3579.85
567.42	3618.76
567.619	3477.45
567.818	3561.42
568.016	3504.07
568.215	3401.68
568.414	3358.67
568.612	3209.17
568.811	3254.22
569.01	3209.17
569.208	3039.19
569.407	3145.68
569.605	3069.91
569.804	3055.57
570.002	2992.08
570.201	2772.95
570.4	2961.36
570.598	2858.96
570.797	2785.24
570.995	2748.37
571.193	2607.06
571.392	2682.84
571.59	2396.12
571.789	2709.46
571.987	2562.01
572.186	2695.13
572.384	2385.88
572.582	2508.76
572.781	2398.17
572.979	2226.14
573.177	2301.92
573.376	2283.49
573.574	2279.39
573.772	2154.46
573.971	2230.24
574.169	2033.63
574.367	2189.28
574.565	2041.82
574.763	2047.97
574.962	2176.99
575.16	1908.71
575.358	1853.41
575.556	1984.48
575.754	1916.9
575.952	1880.04
576.151	1990.63
576.349	1912.8
576.547	1730.53
576.745	1779.68
576.943	1712.1
577.141	1679.33
577.339	1701.86
577.537	1630.18
577.735	1708.01
577.933	1591.27
578.131	1464.3
578.329	1630.18
578.527	1474.54
578.725	1642.47
578.923	1427.43
579.121	1501.16
579.319	1282.03
579.516	1472.49
579.714	1615.85
579.912	1409
580.11	1243.12
580.308	1351.66
580.506	1298.41
580.704	1167.34
580.901	1179.63
581.099	1267.69
581.297	1296.36
581.495	1181.68
581.692	1204.21
581.89	1273.84
582.088	1284.08
582.285	1097.71
582.483	1101.81
582.681	1157.1
582.878	1112.05
583.076	1155.05
583.274	1171.44
583.471	1193.97
583.669	1091.57
583.866	968.69
584.064	1011.7
584.262	931.83
584.459	856.05
584.657	1003.5
584.854	1101.81
585.052	886.77
585.249	925.68
585.447	905.2
585.644	837.62
585.841	985.07
586.039	925.68
586.236	923.63
586.434	843.76
586.631	851.95
586.828	684.02
587.026	827.38
587.223	739.32
587.42	761.84
587.618	751.6
587.815	821.24
588.012	829.43
588.21	659.45
588.407	772.08
588.604	827.38
588.801	751.6
588.999	665.59
589.196	776.18
589.393	665.59
589.59	706.55
589.787	763.89
589.984	778.23
590.182	815.09
590.379	632.82
590.576	757.75
590.773	663.54
590.97	645.11
591.167	632.82
591.364	694.26
591.561	630.77
591.758	794.61
591.955	681.97
592.152	618.49
592.349	587.77
592.546	673.78
592.743	608.25
592.94	741.36
593.137	624.63
593.334	704.5
593.531	710.65
593.727	638.97
593.924	708.6
594.121	636.92
594.318	704.5
594.515	720.88
594.712	794.61
594.908	800.76
595.105	561.14
595.302	659.45
595.499	661.49
595.696	847.86
595.892	679.93
596.089	839.67
596.286	731.12
596.482	856.05
596.679	911.35
596.876	767.99
597.072	862.19
597.269	894.96
597.466	937.97
597.662	882.67
597.859	909.3
598.055	907.25
598.252	997.36
598.448	1087.47
598.645	1089.52
598.841	1159.15
599.038	1191.92
599.234	1318.89
599.431	1200.11
599.627	1198.06
599.824	1304.56
600.02	1183.73
600.217	1290.22
600.413	1492.97
600.609	1564.65
600.806	1724.39
601.002	1667.05
601.198	1578.98
601.395	1746.92
601.591	1847.27
601.787	1751.01
601.984	2000.87
602.18	2201.57
602.376	1998.82
602.572	2142.18
602.769	2281.44
602.965	2291.68
603.161	2389.98
603.357	2473.95
603.553	2613.21
603.75	2695.13
603.946	2762.71
604.142	2922.45
604.338	3078.1
604.534	2936.79
604.73	3117.01
604.926	3090.38
605.122	3450.83
605.318	3276.75
605.514	3608.52
605.71	3629
605.906	3952.58
606.102	3895.24
606.298	4030.4
606.494	4038.59
606.69	4270.01
606.886	4241.34
607.082	4286.4
607.278	4714.42
607.474	4695.99
607.67	4841.4
607.866	5009.33
608.062	5187.5
608.257	5328.81
608.453	5330.86
608.649	5631.91
608.845	5494.7
609.041	5732.26
609.236	6143.91
609.432	6092.71
609.628	6182.82
609.824	6549.4
610.019	6508.44
610.215	6969.24
610.411	7108.5
610.606	7280.53
610.802	7350.16
610.998	7542.67
611.193	7935.88
611.389	7790.47
611.584	8255.36
611.78	8281.99
611.976	8415.1
612.171	9174.9
612.367	9129.84
612.562	9289.59
612.758	9647.98
612.953	9690.99
613.149	10010.47
613.344	10223.46
613.539	10637.15
613.735	10970.97
613.93	11048.79
614.126	11343.7
614.321	12035.91
614.517	12318.53
614.712	12300.1
614.907	12693.31
615.103	13127.48
615.298	13188.92
615.493	13924.14
615.688	13774.64
615.884	14634.78
616.079	14909.21
616.274	15337.24
616.47	15509.27
616.665	15877.9
616.86	16230.15
617.055	16510.72
617.25	17174.27
617.445	17653.49
617.641	17620.72
617.836	18118.38
618.031	18702.05
618.226	19445.46
618.421	19810
618.616	20543.17
618.811	20272.84
619.006	21132.99
619.201	21395.13
619.396	22173.36
619.591	22142.64
619.786	23266.97
619.981	23498.39
620.176	23981.71
620.371	24217.23
620.566	25218.69
620.761	25429.63
620.956	26312.3
621.151	26463.85
621.346	27188.83
621.541	27395.68
621.735	28321.36
621.93	28261.97
622.125	29048.39
622.32	29169.22
622.515	30021.17
622.709	30486.06
622.904	31370.79
623.099	31567.39
623.294	32427.54
623.488	32542.22
623.683	33424.9
623.878	33594.88
624.072	34375.16
624.267	35048.94
624.462	35421.67
624.656	35423.72
624.851	36347.35
625.046	37338.57
625.24	37629.38
625.435	37703.1
625.629	38411.7
625.824	39271.85
626.018	39767.46
626.213	39433.64
626.407	40510.87
626.602	40371.61
626.796	41452.94
626.991	41713.03
627.185	42026.37
627.38	42089.85
627.574	42364.28
627.768	42442.1
627.963	42585.46
628.157	43099.5
628.352	43339.11
628.546	42855.79
628.74	43222.38
628.935	42622.33
629.129	43586.92
629.323	42800.5
629.517	42667.38
629.712	42341.75
629.906	41926.02
630.1	41616.77
630.294	41586.05
630.489	40947.09
630.683	40932.75
630.877	39910.81
631.071	39067.05
631.265	38710.71
631.459	37901.76
631.653	37225.93
631.848	36459.99
632.042	35605.98
632.236	35145.19
632.43	33562.11
632.624	33207.81
632.818	31764
633.012	31395.36
633.206	29812.28
633.4	29316.67
633.594	28208.72
633.788	27401.82
633.982	26470
634.176	25486.97
634.369	24477.32
634.563	23819.92
634.757	22312.62
634.951	21927.6
635.145	20969.15
635.339	20309.71
635.533	19332.83
635.726	18665.19
635.92	17680.11
636.114	17317.62
636.308	16416.52
636.501	15671.06
636.695	15173.4
636.889	14479.14
637.083	13987.63
637.276	13315.89
637.47	12783.42
637.664	12304.2
637.857	11822.92
638.051	11358.03
638.244	10905.43
638.438	10506.08
638.632	10082.15
638.825	9531.25
639.019	9320.31
639.212	8841.08
639.406	8554.37
639.599	8195.97
639.793	8109.96
639.986	7622.54
640.18	7389.07
640.373	7116.69
640.567	6727.58
640.76	6408.09
640.954	6283.17
641.147	5971.88
641.34	5619.63
641.534	5539.76
641.727	5410.73
641.92	5146.55
642.114	4947.89
642.307	4814.77
642.5	4464.57
642.694	4224.96
642.887	4040.64
643.08	4124.61
643.273	3987.4
643.467	3798.98
643.66	3522.51
643.853	3426.25
644.046	3385.29
644.239	3239.89
644.432	2924.5
644.626	2916.31
644.819	2904.02
645.012	2729.94
645.205	2754.52
645.398	2676.7
645.591	2420.7
645.784	2392.03
645.977	2189.28
646.17	2213.85
646.363	2037.73
646.556	1896.42
646.749	1834.98
646.942	1978.34
647.135	1935.33
647.328	1875.94
647.521	1621.99
647.714	1665
647.907	1603.56
648.099	1478.63
648.292	1654.76
648.485	1394.67
648.678	1325.04
648.871	1234.93
649.064	1282.03
649.256	1155.05
649.449	1214.45
649.642	1071.09
649.835	1026.03
650.027	907.25
650.22	1075.18
650.413	1005.55
650.605	921.59
650.798	878.58
650.991	839.67
651.183	854
651.376	819.19
651.568	747.51
651.761	763.89
651.954	722.93
652.146	757.75
652.339	731.12
652.531	708.6
652.724	622.58
652.916	487.42
653.109	514.04
653.301	729.08
653.494	591.86
653.686	604.15
653.879	688.12
654.071	604.15
654.263	485.37
654.456	516.09
654.648	544.76
654.84	520.18
655.033	550.9
655.225	522.23
655.417	360.44
655.61	583.67
655.802	522.23
655.994	460.79
656.186	288.76
656.379	452.6
656.571	327.68
656.763	327.68
656.955	303.1
657.148	290.81
657.34	487.42
657.532	323.58
657.724	411.64
657.916	313.34
658.108	382.97
658.3	380.92
658.492	301.05
658.684	274.43
658.876	301.05
659.068	204.8
659.26	174.08
659.452	223.23
659.644	319.48
659.836	319.48
660.028	296.96
660.22	235.52
660.412	129.02
660.604	174.08
660.796	245.76
660.988	348.15
661.18	280.57
661.372	278.52
661.563	227.32
661.755	186.37
661.947	174.08
662.139	182.27
662.331	120.83
662.522	239.61
662.714	118.78
662.906	172.03
663.097	229.37
663.289	212.99
663.481	100.35
663.673	245.76
663.864	221.18
664.056	256
664.247	135.17
664.439	258.04
664.631	260.09
664.822	241.66
665.014	153.6
665.205	204.8
665.397	90.11
665.588	165.89
665.78	223.23
665.971	235.52
666.163	284.67
666.354	237.56
666.546	135.17
666.737	96.25
666.929	147.45
667.12	141.31
667.311	192.51
667.503	161.79
667.694	178.17
667.885	202.75
668.077	235.52
668.268	-4.1
668.459	194.56
668.651	221.18
668.842	124.93
669.033	143.36
669.224	116.73
669.416	358.39
669.607	165.89
669.798	104.45
669.989	274.43
670.18	96.25
670.371	241.66
670.563	67.58
670.754	241.66
670.945	172.03
671.136	284.67
671.327	210.94
671.518	223.23
671.709	253.95
671.9	272.38
672.091	274.43
672.282	196.61
672.473	184.32
672.664	133.12
672.855	212.99
673.046	184.32
673.237	212.99
673.428	155.65
673.619	262.14
673.809	243.71
674	258.04
674.191	192.51
674.382	135.17
674.573	176.13
674.764	178.17
674.954	243.71
675.145	81.92
675.336	206.84
675.527	182.27
675.717	151.55
675.908	178.17
676.099	141.31
676.289	147.45
676.48	120.83
676.671	260.09
676.861	192.51
677.052	215.04
677.243	235.52
677.433	108.54
677.624	217.08
677.814	223.23
678.005	94.21
678.195	333.82
678.386	114.69
678.576	204.8
678.767	204.8
678.957	167.93
679.148	237.56
679.338	288.76
679.529	280.57
679.719	215.04
679.909	264.19
680.1	280.57
680.29	307.2
680.481	184.32
680.671	268.28
680.861	258.04
681.052	212.99
681.242	217.08
681.432	368.63
681.622	215.04
681.813	190.46
682.003	274.43
682.193	159.74
682.383	296.96
682.573	290.81
682.764	292.86
682.954	153.6
683.144	301.05
683.334	258.04
683.524	256
683.714	329.72
683.904	303.1
684.094	272.38
684.284	286.72
684.474	434.17
684.664	313.34
684.854	286.72
685.044	323.58
685.234	256
685.424	315.39
685.614	143.36
685.804	405.5
685.994	256
686.184	301.05
686.374	331.77
686.564	301.05
686.753	270.33
686.943	210.94
687.133	323.58
687.323	229.37
687.513	284.67
687.702	292.86
687.892	243.71
688.082	342.01
688.272	356.35
688.461	286.72
688.651	309.24
688.841	356.35
689.03	241.66
689.22	307.2
689.41	284.67
689.599	319.48
689.789	204.8
689.979	372.73
690.168	262.14
690.358	372.73
690.547	315.39
690.737	249.85
690.926	292.86
691.116	348.15
691.305	223.23
691.495	299
691.684	251.9
691.874	126.97
692.063	223.23
692.252	294.91
692.442	376.83
692.631	184.32
692.82	202.75
693.01	233.47
693.199	256
693.388	204.8
693.578	182.27
693.767	266.24
693.956	280.57
694.146	215.04
694.335	276.48
694.524	225.28
694.713	299
694.902	208.89
695.092	239.61
695.281	327.68
695.47	325.63
695.659	258.04
695.848	235.52
696.037	172.03
696.226	258.04
696.415	165.89
696.604	266.24
696.793	243.71
696.982	163.84
697.171	362.49
697.36	233.47
697.549	208.89
697.738	106.49
697.927	178.17
698.116	188.41
698.305	247.8
698.494	186.37
698.683	215.04
698.872	415.74
699.061	243.71
699.25	272.38
699.438	245.76
699.627	147.45
699.816	282.62
700.005	102.4
700.193	137.21
700.382	309.24
700.571	219.13
700.76	233.47
700.948	294.91
701.137	223.23
701.326	323.58
701.514	135.17
701.703	303.1
701.892	217.08
702.08	425.98
702.269	200.7
702.457	178.17
702.646	311.29
702.834	210.94
703.023	313.34
703.212	290.81
703.4	251.9
703.589	190.46
703.777	188.41
703.965	219.13
704.154	268.28
704.342	133.12
704.531	235.52
704.719	262.14
704.907	258.04
705.096	180.22
705.284	200.7
705.472	233.47
705.661	172.03
705.849	399.35
706.037	317.44
706.226	233.47
706.414	225.28
706.602	159.74
706.79	276.48
706.979	256
707.167	212.99
707.355	83.97
707.543	204.8
707.731	229.37
707.919	178.17
708.107	219.13
708.296	126.97
708.484	178.17
708.672	229.37
708.86	223.23
709.048	212.99
709.236	169.98
709.424	219.13
709.612	208.89
709.8	176.13
709.988	131.07
710.176	149.5
710.364	284.67
710.551	161.79
710.739	186.37
710.927	145.41
711.115	190.46
711.303	307.2
711.491	249.85
711.679	217.08
711.866	272.38
712.054	217.08
712.242	350.2
712.43	309.24
712.617	206.84
712.805	299
712.993	198.65
713.181	86.01
713.368	274.43
713.556	280.57
713.744	147.45
713.931	407.55
714.119	307.2
714.306	206.84
714.494	251.9
714.682	212.99
714.869	133.12
715.057	186.37
715.244	63.49
715.432	227.32
715.619	169.98
715.807	290.81
715.994	208.89
716.182	262.14
716.369	260.09
716.556	276.48
716.744	141.31
716.931	208.89
717.119	239.61
717.306	206.84
717.493	307.2
717.681	169.98
717.868	202.75
718.055	260.09
718.242	184.32
718.43	241.66
718.617	311.29
718.804	180.22
718.991	231.42
719.179	165.89
719.366	309.24
719.553	342.01
719.74	323.58
719.927	227.32
720.114	266.24
720.301	196.61
720.488	243.71
720.676	188.41
720.863	270.33
721.05	335.87
721.237	258.04
721.424	280.57
721.611	212.99
721.798	114.69
721.985	178.17
722.172	266.24
722.358	251.9
722.545	319.48
722.732	272.38
722.919	268.28
723.106	292.86
723.293	245.76
723.48	188.41
723.667	147.45
723.853	272.38
724.04	278.52
724.227	305.15
724.414	239.61
724.6	282.62
724.787	364.54
724.974	411.64
725.161	342.01
725.347	215.04
725.534	188.41
725.72	219.13
725.907	339.96
726.094	301.05
726.28	258.04
726.467	237.56
726.653	161.79
726.84	362.49
727.027	329.72
727.213	194.56
727.4	327.68
727.586	335.87
727.773	260.09
727.959	352.25
728.145	245.76
728.332	235.52
728.518	196.61
728.705	270.33
728.891	204.8
729.077	290.81
729.264	256
729.45	221.18
729.636	284.67
729.823	286.72
730.009	311.29
730.195	251.9
730.382	241.66
730.568	215.04
730.754	262.14
730.94	233.47
731.126	317.44
731.313	292.86
731.499	180.22
731.685	307.2
731.871	307.2
732.057	313.34
732.243	321.53
732.429	299
732.615	411.64
732.801	309.24
732.987	276.48
733.173	378.87
733.359	229.37
733.545	256
733.731	284.67
733.917	370.68
734.103	251.9
734.289	262.14
734.475	221.18
734.661	405.5
734.847	305.15
735.033	296.96
735.219	286.72
735.404	249.85
735.59	196.61
735.776	296.96
735.962	329.72
736.148	364.54
736.333	305.15
736.519	239.61
736.705	229.37
736.89	266.24
737.076	278.52
737.262	143.36
737.447	237.56
737.633	253.95
737.819	366.59
738.004	290.81
738.19	292.86
738.375	374.78
738.561	378.87
738.747	256
738.932	194.56
739.118	407.55
739.303	303.1
739.489	321.53
739.674	262.14
739.859	251.9
740.045	292.86
740.23	321.53
740.416	122.88
740.601	305.15
740.786	274.43
740.972	253.95
741.157	272.38
741.342	178.17
741.528	165.89
741.713	296.96
741.898	245.76
742.084	290.81
742.269	270.33
742.454	354.3
742.639	364.54
742.824	299
743.01	354.3
743.195	360.44
743.38	294.91
743.565	305.15
743.75	292.86
743.935	270.33
744.12	432.12
744.305	178.17
744.49	190.46
744.675	333.82
744.86	225.28
745.045	313.34
745.23	256
745.415	239.61
745.6	378.87
745.785	194.56
745.97	294.91
746.155	364.54
746.34	282.62
746.525	264.19
746.71	409.59
746.895	219.13
747.079	194.56
747.264	243.71
747.449	305.15
747.634	358.39
747.819	221.18
748.003	268.28
748.188	141.31
748.373	305.15
748.557	325.63
748.742	200.7
748.927	229.37
749.111	202.75
749.296	192.51
749.481	253.95
749.665	294.91
749.85	159.74
750.034	393.21
750.219	245.76
750.404	147.45
750.588	249.85
750.773	178.17
750.957	268.28
751.141	264.19
751.326	243.71
751.51	196.61
751.695	210.94
751.879	239.61
752.064	284.67
752.248	178.17
752.432	270.33
752.617	227.32
752.801	233.47
752.985	188.41
753.17	292.86
753.354	169.98
753.538	253.95
753.722	139.26
753.907	163.84
754.091	129.02
754.275	329.72
754.459	137.21
754.643	157.69
754.828	223.23
755.012	180.22
755.196	153.6
755.38	227.32
755.564	186.37
755.748	219.13
755.932	241.66
756.116	270.33
756.3	219.13
756.484	86.01
756.668	149.5
756.852	75.77
757.036	151.55
757.22	253.95
757.404	149.5
757.588	169.98
757.772	184.32
757.956	172.03
758.14	317.44
758.323	98.3
758.507	223.23
758.691	149.5
758.875	243.71
759.059	294.91
759.242	131.07
759.426	133.12
759.61	215.04
759.794	137.21
759.977	188.41
760.161	358.39
760.345	299
760.528	227.32
760.712	182.27
760.895	180.22
761.079	151.55
761.263	75.77
761.446	124.93
761.63	75.77
761.813	151.55
761.997	32.77
762.18	126.97
762.364	208.89
762.547	34.82
762.731	167.93
762.914	159.74
763.098	53.25
763.281	100.35
763.464	106.49
763.648	147.45
763.831	59.39
764.015	75.77
764.198	190.46
764.381	102.4
764.564	231.42
764.748	110.59
764.931	94.21
765.114	96.25
765.297	135.17
765.481	88.06
765.664	108.54
765.847	102.4
766.03	165.89
766.213	118.78
766.397	59.39
766.58	-38.91
766.763	233.47
766.946	135.17
767.129	61.44
767.312	98.3
767.495	116.73
767.678	104.45
767.861	169.98
768.044	118.78
768.227	-14.34
768.41	43.01
768.593	86.01
768.776	108.54
768.959	90.11
769.142	260.09
769.324	12.29
769.507	38.91
769.69	40.96
769.873	67.58
770.056	274.43
770.239	55.3
770.421	167.93
770.604	61.44
770.787	75.77
770.97	69.63
771.152	-63.49
771.335	118.78
771.518	32.77
771.7	241.66
771.883	206.84
772.066	14.34
772.248	63.49
772.431	118.78
772.613	169.98
772.796	49.15
772.978	114.69
773.161	174.08
773.343	34.82
773.526	10.24
773.708	-30.72
773.891	10.24
774.073	14.34
774.256	49.15
774.438	176.13
774.621	43.01
774.803	120.83
774.985	30.72
775.168	141.31
775.35	-49.15
775.532	217.08
775.715	12.29
775.897	92.16
776.079	77.82
776.261	69.63
776.444	92.16
776.626	57.34
776.808	86.01
776.99	-118.78
777.173	77.82
777.355	149.5
777.537	88.06
777.719	-8.19
777.901	34.82
778.083	10.24
778.265	-47.1
778.447	81.92
778.629	-12.29
778.811	73.73
778.993	172.03
779.175	116.73
779.357	49.15
779.539	-32.77
779.721	-2.05
779.903	129.02
780.085	51.2
780.267	32.77
780.449	151.55
780.631	69.63
780.812	200.7
780.994	65.54
781.176	28.67
781.358	-16.38
781.54	16.38
781.721	100.35
781.903	100.35
782.085	40.96
782.267	75.77
782.448	-18.43
782.63	43.01
782.812	116.73
782.993	137.21
783.175	88.06
783.357	20.48
783.538	30.72
783.72	-26.62
783.901	40.96
784.083	49.15
784.264	47.1
784.446	-40.96
784.627	-55.3
784.809	129.02
784.99	30.72
785.172	0
785.353	40.96
785.535	94.21
785.716	2.05
785.897	-20.48
786.079	96.25
786.26	34.82
786.441	104.45
786.623	-26.62
786.804	28.67
786.985	49.15
787.167	49.15
787.348	-22.53
787.529	83.97
787.71	169.98
787.891	96.25
788.073	-6.14
788.254	-43.01
788.435	147.45
788.616	47.1
788.797	-83.97
788.978	47.1
789.159	-34.82
789.34	36.86
789.522	-6.14
789.703	-24.58
789.884	12.29
790.065	53.25
790.246	165.89
790.427	8.19
790.607	86.01
790.788	14.34
790.969	43.01
791.15	59.39
791.331	-10.24
791.512	8.19
791.693	-71.68
791.874	8.19
792.054	182.27
792.235	43.01
792.416	-63.49
792.597	-18.43
792.778	71.68
792.958	24.58
793.139	36.86
793.32	110.59
793.5	-45.06
793.681	133.12
793.862	94.21
794.042	69.63
794.223	-67.58
794.404	77.82
794.584	-83.97
794.765	38.91
794.945	94.21
795.126	-2.05
795.306	67.58
795.487	-61.44
795.667	-51.2
795.848	69.63
796.028	-30.72
796.209	-32.77
796.389	51.2
796.57	20.48
796.75	-45.06
796.93	51.2
797.111	-18.43
797.291	6.14
797.471	69.63
797.652	14.34
797.832	-55.3
798.012	53.25
798.192	-26.62
798.373	24.58
798.553	10.24
798.733	59.39
798.913	-77.82
799.093	-34.82
799.274	-51.2
799.454	81.92
799.634	71.68
799.814	-22.53
799.994	81.92
800.174	26.62
800.354	28.67
800.534	-43.01
800.714	69.63
800.894	-86.01
801.074	-26.62
801.254	-8.19
801.434	122.88
801.614	-57.34
801.794	-67.58
801.974	1708.01
802.154	-49.15
802.334	-47.1
802.514	26.62
802.693	12.29
802.873	-47.1
803.053	118.78
803.233	49.15
803.413	26.62
803.592	-26.62
803.772	-104.45
803.952	-59.39
804.131	-94.21
804.311	40.96
804.491	102.4
804.67	-106.49
804.85	-96.25
805.03	2.05
805.209	73.73
805.389	-24.58
805.568	-26.62
805.748	-81.92
805.928	-4.1
806.107	55.3
806.287	79.87
806.466	88.06
806.646	-2.05
806.825	2.05
807.004	-71.68
807.184	12.29
807.363	10.24
807.543	-16.38
807.722	-8.19
807.901	90.11
808.081	92.16
808.26	-114.69
808.439	24.58
808.619	-36.86
808.798	47.1
808.977	24.58
809.156	77.82
809.336	51.2
809.515	63.49
809.694	-106.49
809.873	-108.54
810.052	69.63
810.231	79.87
810.411	40.96
810.59	120.83
810.769	-32.77
810.948	32.77
811.127	-77.82
811.306	-65.54
811.485	-59.39
811.664	116.73
811.843	-43.01
812.022	-30.72
812.201	-18.43
812.38	-14.34
812.559	-38.91
812.737	73.73
812.916	-67.58
813.095	-63.49
813.274	40.96
813.453	-16.38
813.632	88.06
813.811	53.25
813.989	-96.25
814.168	73.73
814.347	-49.15
814.526	-83.97
814.704	63.49
814.883	147.45
815.062	26.62
815.24	79.87
815.419	-57.34
815.598	59.39
815.776	-188.41
815.955	38.91
816.133	-124.93
816.312	-22.53
816.49	-47.1
816.669	-12.29
816.847	16.38
817.026	18.43
817.204	-57.34
817.383	-4.1
817.561	-47.1
817.74	59.39
817.918	57.34
818.097	43.01
818.275	-16.38
818.453	10.24
818.632	71.68
818.81	12.29
818.988	18.43
819.167	-28.67
819.345	-81.92
819.523	-59.39
819.701	30.72
819.879	-4.1
820.058	-6.14
820.236	-10.24
820.414	61.44
820.592	-51.2
820.77	-40.96
820.948	-10.24
821.127	-16.38
821.305	12.29
821.483	-30.72
821.661	34.82
821.839	-18.43
822.017	-43.01
822.195	-53.25
822.373	90.11
822.551	-32.77
822.729	-47.1
822.907	-6.14
823.085	57.34
823.262	20.48
823.44	4.1
823.618	-26.62
823.796	6.14
823.974	-71.68
824.152	-16.38
824.329	-61.44
824.507	-63.49
824.685	45.06
824.863	10.24
825.04	34.82
825.218	92.16
825.396	-28.67
825.574	8.19
825.751	36.86
825.929	67.58
826.107	-139.26
826.284	36.86
826.462	16.38
826.639	-65.54
826.817	-100.35
826.994	36.86
827.172	-106.49
827.349	174.08
827.527	-4.1
827.704	6.14
827.882	10.24
828.059	-24.58
828.237	2.05
828.414	-18.43
828.591	-100.35
828.769	28.67
828.946	-14.34
829.124	51.2
829.301	83.97
829.478	-26.62
829.655	40.96
829.833	-34.82
830.01	-141.31
830.187	8.19
830.364	-63.49
830.542	49.15
830.719	71.68
830.896	114.69
831.073	30.72
831.25	-22.53
831.427	2.05
831.604	34.82
831.782	-51.2
831.959	26.62
832.136	-38.91
832.313	36.86
832.49	-43.01
832.667	59.39
832.844	-57.34
833.021	61.44
833.198	-28.67
833.374	-47.1
833.551	18.43
833.728	-24.58
833.905	57.34
834.082	-131.07
834.259	-16.38
834.436	-55.3
834.612	-81.92
834.789	45.06
834.966	43.01
835.143	49.15
835.319	-122.88
835.496	94.21
835.673	-4.1
835.85	6.14
836.026	104.45
836.203	98.3
836.38	-6.14
836.556	-43.01
836.733	-79.87
836.909	100.35
837.086	-12.29
837.262	-92.16
837.439	-47.1
837.616	-63.49
837.792	4.1
837.968	4.1
838.145	-137.21
838.321	-38.91
838.498	4.1
838.674	71.68
838.851	47.1
839.027	-65.54
839.203	10.24
839.38	61.44
839.556	-22.53
839.732	53.25
839.909	-12.29
840.085	16.38
840.261	-71.68
840.437	40.96
840.614	-81.92
840.79	67.58
840.966	6.14
841.142	-57.34
841.318	-18.43
841.494	-6.14
841.671	55.3
841.847	-61.44
842.023	-94.21
842.199	34.82
842.375	36.86
842.551	-124.93
842.727	30.72
842.903	120.83
843.079	-69.63
843.255	81.92
843.431	53.25
843.607	67.58
843.783	-165.89
843.959	32.77
844.134	-6.14
844.31	169.98
844.486	-30.72
844.662	-55.3
844.838	2.05
845.013	14.34
845.189	22.53
845.365	-2.05
845.541	34.82
845.716	36.86
845.892	131.07
846.068	-112.64
846.244	-53.25
846.419	2.05
846.595	-59.39
846.77	-73.73
846.946	10.24
847.122	-36.86
847.297	-47.1
847.473	81.92
847.648	-110.59
847.824	-14.34
847.999	-100.35
848.175	-28.67
848.35	12.29
848.526	153.6
848.701	38.91
848.876	22.53
849.052	112.64
849.227	-53.25
849.403	-30.72
849.578	-4.1
849.753	10.24
849.929	-2.05
850.104	-108.54
850.279	-49.15
850.454	14.34
850.63	-16.38
850.805	-53.25
850.98	-28.67
851.155	-2.05
851.33	6.14
851.505	-61.44
851.681	24.58
851.856	-22.53
852.031	14.34
852.206	10.24
852.381	-100.35
852.556	-22.53
852.731	14.34
852.906	59.39
853.081	14.34
853.256	112.64
853.431	-43.01
853.606	-22.53
853.781	-55.3
853.956	-172.03
854.131	49.15
854.305	53.25
854.48	-83.97
854.655	-40.96
854.83	-14.34
855.005	-30.72
855.18	75.77
855.354	47.1
855.529	-2.05
855.704	-16.38
855.879	30.72
856.053	-20.48
856.228	38.91
856.403	-108.54
856.577	-22.53
856.752	-153.6
856.926	-67.58
857.101	14.34
857.276	-79.87
857.45	-73.73
857.625	24.58
857.799	-4.1
857.974	28.67
858.148	-53.25
858.323	-8.19
858.497	-36.86
858.672	-79.87
858.846	20.48
859.02	-10.24
859.195	-96.25
859.369	-81.92
859.543	-45.06
859.718	-2.05
859.892	14.34
860.066	55.3
860.241	-65.54
860.415	-10.24
860.589	-73.73
860.763	43.01
860.938	20.48
861.112	-63.49
861.286	-83.97
861.46	-22.53
861.634	12.29
861.808	104.45
861.982	6.14
862.157	-151.55
862.331	-75.77
862.505	-59.39
862.679	-116.73
862.853	-75.77
863.027	-6.14
863.201	143.36
863.375	-65.54
863.549	10.24
863.722	16.38
863.896	159.74
864.07	-122.88
864.244	-36.86
864.418	49.15
864.592	-40.96
864.766	2.05
864.939	-45.06
865.113	-77.82
865.287	32.77
865.461	-28.67
865.634	-12.29
865.808	-51.2
865.982	-14.34
866.156	-96.25
866.329	-106.49
866.503	-20.48
866.676	-59.39
866.85	22.53
867.024	38.91
867.197	30.72
867.371	71.68
867.544	4.1
867.718	-86.01
867.891	26.62
868.065	-104.45
868.238	24.58
868.412	135.17
868.585	69.63
868.759	0
868.932	-90.11
869.105	-63.49
869.279	47.1
869.452	-77.82
869.625	65.54
869.799	-34.82
869.972	-75.77
870.145	-77.82
870.319	55.3
870.492	-81.92
870.665	-73.73
870.838	-30.72
871.011	-102.4
871.185	20.48
871.358	-8.19
871.531	10.24
871.704	-51.2
871.877	32.77
872.05	-92.16
872.223	-98.3
872.396	57.34
872.569	100.35
872.742	-90.11
872.915	53.25
873.088	-55.3
873.261	-71.68
873.434	120.83
873.607	-92.16
873.78	61.44
873.953	-81.92
874.126	-55.3
874.299	30.72
874.471	61.44
874.644	-59.39
874.817	2.05
874.99	118.78
875.163	-6.14
875.335	-67.58
875.508	-24.58
875.681	104.45
875.853	-90.11
876.026	10.24
876.199	10.24
876.371	14.34
876.544	12.29
876.717	-10.24
876.889	34.82
877.062	14.34
877.234	-114.69
877.407	-51.2
877.579	0
877.752	-40.96
877.924	38.91
878.097	-12.29
878.269	14.34
878.442	-47.1
878.614	65.54
878.786	16.38
878.959	-12.29
879.131	-12.29
879.303	-149.5
879.476	0
879.648	32.77
879.82	-92.16
879.993	-2.05
880.165	-77.82
880.337	-143.36
880.509	8.19
880.681	-172.03
880.854	-96.25
881.026	73.73
881.198	98.3
881.37	-22.53
881.542	-24.58
881.714	-40.96
881.886	-53.25
882.058	-18.43
882.23	18.43
882.402	-8.19
882.574	-55.3
882.746	61.44
882.918	38.91
883.09	73.73
883.262	18.43
883.434	8.19
883.606	-90.11
883.778	-124.93
883.95	126.97
884.122	-12.29
884.293	34.82
884.465	-43.01
884.637	59.39
884.809	-45.06
884.98	14.34
885.152	24.58
885.324	38.91
885.496	-81.92
885.667	-73.73
885.839	-12.29
886.011	57.34
886.182	67.58
886.354	-4.1
886.525	4.1
886.697	-18.43
886.869	-51.2
887.04	20.48
887.212	83.97
887.383	69.63
887.555	-45.06
887.726	-120.83
887.897	-10.24
888.069	8.19
888.24	100.35
888.412	-22.53
888.583	-30.72
888.754	-32.77
888.926	-198.65
889.097	-90.11
889.268	0
889.44	-22.53
889.611	-92.16
889.782	-45.06
889.953	-34.82
890.125	61.44
890.296	-45.06
890.467	-45.06
890.638	-22.53
890.809	-69.63
890.98	-53.25
891.151	-57.34
891.323	106.49
891.494	8.19
891.665	-30.72
891.836	-45.06
892.007	-18.43
892.178	2.05
892.349	-12.29
892.52	-112.64
892.691	-8.19
892.862	-55.3
893.032	-79.87
893.203	-47.1
893.374	-8.19
893.545	55.3
893.716	2.05
893.887	32.77
894.057	30.72
894.228	45.06
894.399	-122.88
894.57	129.02
894.74	0
894.911	8.19
895.082	-77.82
895.253	-110.59
895.423	0
895.594	49.15
895.764	69.63
895.935	-26.62
896.106	49.15
896.276	-96.25
896.447	-45.06
896.617	-122.88
896.788	-106.49
896.958	-40.96
897.129	-53.25
897.299	-69.63
897.47	36.86
897.64	75.77
897.81	0
897.981	57.34
898.151	-65.54
898.322	-63.49
898.492	34.82
898.662	-149.5
898.832	4.1
899.003	-120.83
899.173	75.77
899.343	-71.68
899.513	-92.16
