Data from USB4F104151__261__11-20-23-533.txt Node

Date: Wed Feb 26 11:20:23 EST 2025
User: louis
Spectrometer: USB4F10415
Trigger mode: 4
Integration Time (sec): 1.000000E-1
Scans to average: 1
Electric dark correction enabled: true
Nonlinearity correction enabled: false
Boxcar width: 0
XAxis mode: Wavelengths
Number of Pixels in Spectrum: 3648
>>>>>Begin Spectral Data<<<<<
178.204	-359.42
178.424	-359.42
178.644	-359.42
178.864	-394.23
179.084	-338.94
179.304	29.7
179.524	-72.7
179.744	-31.74
179.964	3.07
180.184	41.98
180.404	84.99
180.624	58.37
180.844	17.41
181.064	-60.42
181.283	1.02
181.503	-17.41
181.723	-54.27
181.943	-50.18
182.163	228.35
182.383	-13.31
182.602	84.99
182.822	168.96
183.042	52.22
183.262	50.18
183.482	1.02
183.701	82.94
183.921	23.55
184.141	-31.74
184.361	35.84
184.58	76.8
184.8	50.18
185.02	50.18
185.239	166.91
185.459	97.28
185.679	142.33
185.898	-60.42
186.118	37.89
186.338	46.08
186.557	97.28
186.777	-29.7
186.997	17.41
187.216	19.46
187.436	179.2
187.655	130.05
187.875	156.67
188.095	21.5
188.314	152.57
188.534	109.57
188.753	-3.07
188.973	95.23
189.192	148.48
189.412	7.17
189.631	21.5
189.851	132.09
190.07	150.53
190.29	21.5
190.509	25.6
190.729	72.7
190.948	148.48
191.168	287.74
191.387	130.05
191.607	-48.13
191.826	138.24
192.045	60.42
192.265	33.79
192.484	150.53
192.704	37.89
192.923	-54.27
193.142	138.24
193.362	50.18
193.581	267.26
193.8	117.76
194.02	60.42
194.239	27.65
194.458	107.52
194.678	54.27
194.897	-17.41
195.116	-1.02
195.335	37.89
195.555	119.81
195.774	17.41
195.993	177.15
196.212	78.85
196.432	-17.41
196.651	3.07
196.87	1.02
197.089	293.88
197.308	64.51
197.528	123.9
197.747	-33.79
197.966	7.17
198.185	160.77
198.404	-44.03
198.623	164.86
198.842	142.33
199.062	140.29
199.281	132.09
199.5	41.98
199.719	66.56
199.938	134.14
200.157	33.79
200.376	5.12
200.595	107.52
200.814	113.66
201.033	-46.08
201.252	140.29
201.471	58.37
201.69	27.65
201.909	103.42
202.128	154.62
202.347	11.26
202.566	27.65
202.785	-93.18
203.004	-46.08
203.223	306.17
203.442	15.36
203.661	-9.22
203.879	44.03
204.098	265.21
204.317	-39.94
204.536	39.94
204.755	74.75
204.974	117.76
205.193	44.03
205.411	173.05
205.63	72.7
205.849	95.23
206.068	105.47
206.287	-15.36
206.505	93.18
206.724	31.74
206.943	78.85
207.162	19.46
207.381	117.76
207.599	54.27
207.818	19.46
208.037	-27.65
208.255	64.51
208.474	82.94
208.693	52.22
208.911	25.6
209.13	197.63
209.349	74.75
209.567	95.23
209.786	175.1
210.005	101.37
210.223	87.04
210.442	-54.27
210.661	48.13
210.879	91.13
211.098	87.04
211.316	44.03
211.535	125.95
211.753	68.61
211.972	166.91
212.191	29.7
212.409	-37.89
212.628	154.62
212.846	-44.03
213.065	56.32
213.283	158.72
213.502	72.7
213.72	9.22
213.938	70.65
214.157	5.12
214.375	183.29
214.594	-13.31
214.812	158.72
215.031	64.51
215.249	62.46
215.467	25.6
215.686	78.85
215.904	107.52
216.122	54.27
216.341	117.76
216.559	31.74
216.778	119.81
216.996	121.85
217.214	99.33
217.432	37.89
217.651	-27.65
217.869	-25.6
218.087	33.79
218.306	25.6
218.524	76.8
218.742	93.18
218.96	84.99
219.179	5.12
219.397	52.22
219.615	199.68
219.833	58.37
220.051	1.02
220.27	150.53
220.488	121.85
220.706	117.76
220.924	-21.5
221.142	-1.02
221.36	144.38
221.578	89.09
221.796	64.51
222.015	87.04
222.233	107.52
222.451	150.53
222.669	-17.41
222.887	105.47
223.105	68.61
223.323	25.6
223.541	-50.18
223.759	60.42
223.977	33.79
224.195	203.77
224.413	72.7
224.631	84.99
224.849	136.19
225.067	138.24
225.285	91.13
225.503	11.26
225.721	-101.37
225.939	134.14
226.157	66.56
226.375	197.63
226.592	31.74
226.81	70.65
227.028	95.23
227.246	56.32
227.464	89.09
227.682	154.62
227.9	37.89
228.117	21.5
228.335	66.56
228.553	1.02
228.771	39.94
228.989	41.98
229.206	58.37
229.424	13.31
229.642	-13.31
229.86	29.7
230.077	142.33
230.295	35.84
230.513	111.61
230.731	21.5
230.948	246.78
231.166	146.43
231.384	60.42
231.601	21.5
231.819	271.36
232.037	-31.74
232.254	1.02
232.472	72.7
232.689	7.17
232.907	39.94
233.125	48.13
233.342	-56.32
233.56	-19.46
233.777	50.18
233.995	74.75
234.213	111.61
234.43	123.9
234.648	17.41
234.865	95.23
235.083	111.61
235.3	70.65
235.518	68.61
235.735	62.46
235.953	89.09
236.17	117.76
236.388	21.5
236.605	-21.5
236.822	140.29
237.04	175.1
237.257	103.42
237.475	-9.22
237.692	60.42
237.909	144.38
238.127	72.7
238.344	156.67
238.562	80.89
238.779	-64.51
238.996	-21.5
239.214	5.12
239.431	103.42
239.648	1.02
239.865	99.33
240.083	138.24
240.3	17.41
240.517	31.74
240.735	132.09
240.952	123.9
241.169	87.04
241.386	29.7
241.603	39.94
241.821	-35.84
242.038	39.94
242.255	132.09
242.472	-48.13
242.689	68.61
242.907	171.01
243.124	44.03
243.341	44.03
243.558	-17.41
243.775	17.41
243.992	-33.79
244.209	93.18
244.426	177.15
244.643	48.13
244.86	29.7
245.078	125.95
245.295	76.8
245.512	15.36
245.729	-29.7
245.946	-3.07
246.163	-9.22
246.38	50.18
246.597	72.7
246.814	121.85
247.031	72.7
247.248	142.33
247.464	87.04
247.681	64.51
247.898	107.52
248.115	23.55
248.332	31.74
248.549	93.18
248.766	205.82
248.983	103.42
249.2	111.61
249.417	72.7
249.633	-21.5
249.85	150.53
250.067	19.46
250.284	74.75
250.501	68.61
250.717	-5.12
250.934	-52.22
251.151	58.37
251.368	-41.98
251.585	46.08
251.801	117.76
252.018	7.17
252.235	80.89
252.451	-33.79
252.668	21.5
252.885	189.44
253.102	134.14
253.318	50.18
253.535	23.55
253.752	13.31
253.968	60.42
254.185	-97.28
254.401	23.55
254.618	87.04
254.835	-33.79
255.051	93.18
255.268	97.28
255.484	138.24
255.701	3.07
255.917	39.94
256.134	1.02
256.351	68.61
256.567	23.55
256.784	60.42
257	-64.51
257.217	142.33
257.433	93.18
257.65	54.27
257.866	150.53
258.082	-50.18
258.299	44.03
258.515	19.46
258.732	-41.98
258.948	-74.75
259.165	185.34
259.381	-15.36
259.597	93.18
259.814	9.22
260.03	31.74
260.246	52.22
260.463	207.87
260.679	74.75
260.895	97.28
261.112	134.14
261.328	-3.07
261.544	-1.02
261.761	123.9
261.977	-3.07
262.193	17.41
262.409	89.09
262.626	121.85
262.842	50.18
263.058	84.99
263.274	60.42
263.49	15.36
263.707	109.57
263.923	134.14
264.139	-101.37
264.355	25.6
264.571	162.81
264.787	1.02
265.004	125.95
265.22	113.66
265.436	35.84
265.652	19.46
265.868	103.42
266.084	-19.46
266.3	37.89
266.516	-31.74
266.732	44.03
266.948	97.28
267.164	60.42
267.38	101.37
267.596	89.09
267.812	201.72
268.028	60.42
268.244	-37.89
268.46	93.18
268.676	-35.84
268.892	39.94
269.108	5.12
269.324	1.02
269.54	-5.12
269.756	181.25
269.972	-17.41
270.188	66.56
270.403	-9.22
270.619	74.75
270.835	-50.18
271.051	82.94
271.267	-50.18
271.483	-21.5
271.698	134.14
271.914	101.37
272.13	50.18
272.346	82.94
272.562	142.33
272.777	162.81
272.993	44.03
273.209	-13.31
273.425	132.09
273.64	-35.84
273.856	76.8
274.072	-35.84
274.287	25.6
274.503	93.18
274.719	60.42
274.934	37.89
275.15	-31.74
275.366	97.28
275.581	-27.65
275.797	35.84
276.012	25.6
276.228	-7.17
276.444	89.09
276.659	119.81
276.875	19.46
277.09	-13.31
277.306	74.75
277.521	103.42
277.737	93.18
277.952	72.7
278.168	119.81
278.383	74.75
278.599	50.18
278.814	121.85
279.03	80.89
279.245	107.52
279.461	-13.31
279.676	66.56
279.892	7.17
280.107	-11.26
280.322	-39.94
280.538	117.76
280.753	-3.07
280.969	89.09
281.184	109.57
281.399	148.48
281.615	46.08
281.83	29.7
282.045	-48.13
282.26	-15.36
282.476	-21.5
282.691	93.18
282.906	91.13
283.122	162.81
283.337	82.94
283.552	50.18
283.767	-17.41
283.983	52.22
284.198	46.08
284.413	66.56
284.628	-39.94
284.843	50.18
285.058	109.57
285.274	44.03
285.489	27.65
285.704	105.47
285.919	9.22
286.134	39.94
286.349	99.33
286.564	66.56
286.779	123.9
286.995	78.85
287.21	-68.61
287.425	44.03
287.64	-11.26
287.855	64.51
288.07	-17.41
288.285	164.86
288.5	78.85
288.715	35.84
288.93	78.85
289.145	17.41
289.36	103.42
289.575	-33.79
289.79	154.62
290.004	31.74
290.219	179.2
290.434	50.18
290.649	11.26
290.864	29.7
291.079	-7.17
291.294	76.8
291.509	62.46
291.724	121.85
291.938	-13.31
292.153	82.94
292.368	5.12
292.583	48.13
292.798	164.86
293.012	62.46
293.227	27.65
293.442	31.74
293.657	123.9
293.871	107.52
294.086	130.05
294.301	224.25
294.516	111.61
294.73	23.55
294.945	21.5
295.16	62.46
295.374	99.33
295.589	142.33
295.804	68.61
296.018	-54.27
296.233	89.09
296.447	-13.31
296.662	39.94
296.877	80.89
297.091	158.72
297.306	-1.02
297.52	19.46
297.735	31.74
297.949	93.18
298.164	54.27
298.378	84.99
298.593	48.13
298.807	-21.5
299.022	166.91
299.236	144.38
299.451	1.02
299.665	5.12
299.88	109.57
300.094	128
300.309	87.04
300.523	44.03
300.737	-1.02
300.952	95.23
301.166	105.47
301.381	11.26
301.595	19.46
301.809	13.31
302.024	58.37
302.238	-48.13
302.452	121.85
302.667	50.18
302.881	183.29
303.095	89.09
303.309	68.61
303.524	-54.27
303.738	-58.37
303.952	-11.26
304.166	93.18
304.381	-144.38
304.595	101.37
304.809	-3.07
305.023	76.8
305.237	13.31
305.452	70.65
305.666	125.95
305.88	84.99
306.094	68.61
306.308	134.14
306.522	109.57
306.736	142.33
306.95	130.05
307.164	105.47
307.379	132.09
307.593	121.85
307.807	205.82
308.021	27.65
308.235	105.47
308.449	-29.7
308.663	46.08
308.877	220.16
309.091	50.18
309.305	179.2
309.519	-41.98
309.733	105.47
309.947	-70.65
310.161	82.94
310.374	58.37
310.588	158.72
310.802	-103.42
311.016	-5.12
311.23	74.75
311.444	-15.36
311.658	117.76
311.872	134.14
312.085	84.99
312.299	156.67
312.513	140.29
312.727	58.37
312.941	13.31
313.154	44.03
313.368	25.6
313.582	23.55
313.796	70.65
314.009	9.22
314.223	138.24
314.437	87.04
314.651	121.85
314.864	-29.7
315.078	48.13
315.292	-9.22
315.505	13.31
315.719	113.66
315.933	95.23
316.146	13.31
316.36	3.07
316.573	132.09
316.787	68.61
317.001	84.99
317.214	-27.65
317.428	93.18
317.641	-58.37
317.855	23.55
318.068	-31.74
318.282	39.94
318.495	177.15
318.709	37.89
318.922	134.14
319.136	113.66
319.349	97.28
319.563	97.28
319.776	101.37
319.99	-95.23
320.203	113.66
320.417	50.18
320.63	164.86
320.843	171.01
321.057	175.1
321.27	128
321.483	82.94
321.697	175.1
321.91	78.85
322.124	27.65
322.337	58.37
322.55	33.79
322.763	-15.36
322.977	-13.31
323.19	-41.98
323.403	35.84
323.617	46.08
323.83	113.66
324.043	95.23
324.256	78.85
324.469	-15.36
324.683	134.14
324.896	89.09
325.109	70.65
325.322	-3.07
325.535	140.29
325.748	68.61
325.962	54.27
326.175	84.99
326.388	80.89
326.601	162.81
326.814	56.32
327.027	66.56
327.24	91.13
327.453	-95.23
327.666	121.85
327.879	162.81
328.092	68.61
328.305	72.7
328.518	-50.18
328.731	-9.22
328.944	21.5
329.157	113.66
329.37	3.07
329.583	205.82
329.796	240.64
330.009	-11.26
330.222	58.37
330.435	222.2
330.648	48.13
330.861	72.7
331.073	84.99
331.286	156.67
331.499	76.8
331.712	23.55
331.925	74.75
332.138	9.22
332.35	195.58
332.563	25.6
332.776	44.03
332.989	-58.37
333.202	68.61
333.414	-19.46
333.627	93.18
333.84	68.61
334.053	50.18
334.265	11.26
334.478	41.98
334.691	56.32
334.903	99.33
335.116	-11.26
335.329	13.31
335.541	87.04
335.754	191.49
335.966	33.79
336.179	125.95
336.392	76.8
336.604	11.26
336.817	87.04
337.029	84.99
337.242	46.08
337.454	60.42
337.667	54.27
337.88	113.66
338.092	123.9
338.305	89.09
338.517	-7.17
338.729	72.7
338.942	150.53
339.154	27.65
339.367	15.36
339.579	117.76
339.792	-19.46
340.004	84.99
340.217	103.42
340.429	66.56
340.641	50.18
340.854	-41.98
341.066	54.27
341.278	150.53
341.491	224.25
341.703	58.37
341.915	37.89
342.128	119.81
342.34	119.81
342.552	-11.26
342.764	91.13
342.977	-11.26
343.189	54.27
343.401	99.33
343.613	-48.13
343.826	35.84
344.038	33.79
344.25	23.55
344.462	-33.79
344.674	111.61
344.886	54.27
345.099	121.85
345.311	99.33
345.523	17.41
345.735	-62.46
345.947	152.57
346.159	33.79
346.371	74.75
346.583	105.47
346.795	203.77
347.007	31.74
347.219	54.27
347.431	7.17
347.643	60.42
347.855	33.79
348.067	140.29
348.279	21.5
348.491	123.9
348.703	37.89
348.915	87.04
349.127	-62.46
349.339	17.41
349.551	-33.79
349.763	119.81
349.975	76.8
350.187	107.52
350.399	263.16
350.61	109.57
350.822	64.51
351.034	99.33
351.246	27.65
351.458	23.55
351.669	76.8
351.881	87.04
352.093	134.14
352.305	93.18
352.517	144.38
352.728	164.86
352.94	33.79
353.152	56.32
353.363	19.46
353.575	76.8
353.787	89.09
353.999	87.04
354.21	203.77
354.422	27.65
354.633	93.18
354.845	27.65
355.057	78.85
355.268	39.94
355.48	105.47
355.692	70.65
355.903	80.89
356.115	-3.07
356.326	-21.5
356.538	158.72
356.749	136.19
356.961	132.09
357.172	72.7
357.384	-21.5
357.595	222.2
357.807	13.31
358.018	-13.31
358.23	97.28
358.441	134.14
358.653	46.08
358.864	50.18
359.075	-3.07
359.287	66.56
359.498	140.29
359.709	93.18
359.921	93.18
360.132	31.74
360.344	5.12
360.555	-68.61
360.766	72.7
360.977	9.22
361.189	84.99
361.4	1.02
361.611	132.09
361.823	132.09
362.034	27.65
362.245	-21.5
362.456	87.04
362.667	123.9
362.879	1.02
363.09	150.53
363.301	62.46
363.512	7.17
363.723	-3.07
363.935	56.32
364.146	119.81
364.357	11.26
364.568	103.42
364.779	-33.79
364.99	123.9
365.201	13.31
365.412	156.67
365.623	17.41
365.834	142.33
366.045	93.18
366.256	87.04
366.467	70.65
366.678	56.32
366.889	64.51
367.1	19.46
367.311	162.81
367.522	5.12
367.733	111.61
367.944	84.99
368.155	74.75
368.366	144.38
368.577	144.38
368.788	193.53
368.999	-33.79
369.209	136.19
369.42	297.98
369.631	205.82
369.842	123.9
370.053	76.8
370.264	134.14
370.474	-13.31
370.685	84.99
370.896	33.79
371.107	74.75
371.317	119.81
371.528	60.42
371.739	181.25
371.95	158.72
372.16	70.65
372.371	-35.84
372.582	44.03
372.792	60.42
373.003	113.66
373.214	158.72
373.424	89.09
373.635	-17.41
373.846	177.15
374.056	39.94
374.267	148.48
374.477	113.66
374.688	-7.17
374.898	52.22
375.109	-48.13
375.319	74.75
375.53	158.72
375.74	103.42
375.951	15.36
376.161	93.18
376.372	107.52
376.582	-21.5
376.793	138.24
377.003	-21.5
377.214	-54.27
377.424	154.62
377.635	119.81
377.845	-21.5
378.055	48.13
378.266	-27.65
378.476	64.51
378.686	115.71
378.897	35.84
379.107	162.81
379.317	74.75
379.528	-9.22
379.738	138.24
379.948	-13.31
380.158	78.85
380.369	72.7
380.579	183.29
380.789	46.08
380.999	62.46
381.21	74.75
381.42	166.91
381.63	31.74
381.84	156.67
382.05	111.61
382.261	134.14
382.471	113.66
382.681	-23.55
382.891	109.57
383.101	113.66
383.311	-44.03
383.521	1.02
383.731	166.91
383.941	84.99
384.151	130.05
384.361	1.02
384.571	31.74
384.781	109.57
384.991	175.1
385.201	263.16
385.411	148.48
385.621	66.56
385.831	21.5
386.041	7.17
386.251	89.09
386.461	214.01
386.671	125.95
386.881	37.89
387.091	70.65
387.301	64.51
387.511	76.8
387.72	121.85
387.93	134.14
388.14	3.07
388.35	68.61
388.56	207.87
388.769	164.86
388.979	13.31
389.189	66.56
389.399	39.94
389.609	-21.5
389.818	111.61
390.028	109.57
390.238	156.67
390.447	7.17
390.657	87.04
390.867	97.28
391.076	-56.32
391.286	50.18
391.496	1.02
391.705	23.55
391.915	154.62
392.125	58.37
392.334	-23.55
392.544	142.33
392.753	80.89
392.963	37.89
393.172	29.7
393.382	74.75
393.591	142.33
393.801	-97.28
394.01	136.19
394.22	142.33
394.429	21.5
394.639	-1.02
394.848	136.19
395.058	78.85
395.267	64.51
395.477	142.33
395.686	117.76
395.895	234.49
396.105	162.81
396.314	130.05
396.524	113.66
396.733	125.95
396.942	128
397.152	113.66
397.361	117.76
397.57	113.66
397.78	97.28
397.989	58.37
398.198	250.88
398.407	111.61
398.617	3.07
398.826	89.09
399.035	-54.27
399.244	113.66
399.453	19.46
399.663	72.7
399.872	121.85
400.081	-41.98
400.29	168.96
400.499	89.09
400.708	93.18
400.917	68.61
401.127	101.37
401.336	60.42
401.545	244.73
401.754	80.89
401.963	146.43
402.172	78.85
402.381	-1.02
402.59	41.98
402.799	29.7
403.008	138.24
403.217	111.61
403.426	136.19
403.635	17.41
403.844	-3.07
404.053	60.42
404.262	46.08
404.471	162.81
404.68	48.13
404.888	93.18
405.097	52.22
405.306	101.37
405.515	54.27
405.724	125.95
405.933	121.85
406.142	1.02
406.35	87.04
406.559	58.37
406.768	41.98
406.977	117.76
407.185	111.61
407.394	105.47
407.603	27.65
407.812	52.22
408.02	138.24
408.229	164.86
408.438	93.18
408.646	1.02
408.855	84.99
409.064	76.8
409.272	17.41
409.481	125.95
409.69	17.41
409.898	7.17
410.107	46.08
410.315	64.51
410.524	-13.31
410.733	39.94
410.941	111.61
411.15	111.61
411.358	123.9
411.567	136.19
411.775	3.07
411.984	105.47
412.192	111.61
412.401	48.13
412.609	140.29
412.818	130.05
413.026	109.57
413.234	87.04
413.443	25.6
413.651	50.18
413.86	31.74
414.068	91.13
414.276	246.78
414.485	-21.5
414.693	211.96
414.901	211.96
415.11	13.31
415.318	146.43
415.526	-46.08
415.734	136.19
415.943	197.63
416.151	132.09
416.359	117.76
416.567	93.18
416.776	146.43
416.984	134.14
417.192	166.91
417.4	-11.26
417.608	99.33
417.817	-39.94
418.025	142.33
418.233	199.68
418.441	3.07
418.649	33.79
418.857	91.13
419.065	175.1
419.273	70.65
419.481	72.7
419.689	41.98
419.897	19.46
420.105	-54.27
420.313	179.2
420.521	187.39
420.729	158.72
420.937	78.85
421.145	44.03
421.353	103.42
421.561	177.15
421.769	33.79
421.977	74.75
422.185	128
422.393	3.07
422.601	142.33
422.809	68.61
423.017	72.7
423.224	70.65
423.432	168.96
423.64	93.18
423.848	183.29
424.056	-37.89
424.263	87.04
424.471	-23.55
424.679	199.68
424.887	17.41
425.094	115.71
425.302	203.77
425.51	89.09
425.718	138.24
425.925	89.09
426.133	91.13
426.341	236.54
426.548	113.66
426.756	-5.12
426.964	60.42
427.171	68.61
427.379	109.57
427.586	87.04
427.794	148.48
428.001	203.77
428.209	74.75
428.417	228.35
428.624	177.15
428.832	119.81
429.039	111.61
429.247	189.44
429.454	164.86
429.662	297.98
429.869	111.61
430.076	80.89
430.284	82.94
430.491	226.3
430.699	160.77
430.906	273.4
431.114	185.34
431.321	187.39
431.528	205.82
431.736	121.85
431.943	224.25
432.15	195.58
432.358	240.64
432.565	304.12
432.772	99.33
432.979	252.92
433.187	211.96
433.394	261.12
433.601	156.67
433.808	273.4
434.016	355.32
434.223	271.36
434.43	254.97
434.637	273.4
434.844	304.12
435.052	281.6
435.259	340.99
435.466	248.83
435.673	287.74
435.88	353.27
436.087	408.57
436.294	424.95
436.501	404.47
436.708	408.57
436.915	314.36
437.122	424.95
437.329	349.18
437.537	345.08
437.743	394.23
437.95	547.83
438.157	443.39
438.364	396.28
438.571	488.44
438.778	574.46
438.985	549.88
439.192	586.74
439.399	609.27
439.606	564.22
439.813	599.03
440.02	728.05
440.227	818.16
440.433	613.37
440.64	644.09
440.847	623.61
441.054	785.4
441.261	809.97
441.467	750.58
441.674	680.95
441.881	924.66
442.088	846.84
442.294	857.07
442.501	1014.77
442.708	971.76
442.914	992.24
443.121	992.24
443.328	967.67
443.534	1080.3
443.741	1074.16
443.948	975.86
444.154	1211.37
444.361	1334.25
444.568	1278.96
444.774	1178.61
444.981	1266.67
445.187	1471.47
445.394	1444.84
445.6	1364.97
445.807	1508.33
446.013	1567.72
446.22	1444.84
446.426	1696.74
446.633	1780.71
446.839	1885.16
447.046	1758.18
447.252	1946.59
447.459	1932.26
447.665	1997.79
447.871	2221.02
448.078	2178.01
448.284	2302.94
448.491	2294.75
448.697	2438.11
448.903	2589.66
449.11	2583.51
449.316	2481.11
449.522	2751.45
449.728	2939.86
449.935	3011.54
450.141	3054.55
450.347	3359.69
450.553	2984.91
450.76	3242.96
450.966	3458
451.172	3513.29
451.378	3771.33
451.584	3830.73
451.791	3963.84
451.997	4121.54
452.203	4291.52
452.409	4508.6
452.615	4666.3
452.821	4531.13
453.027	4516.8
453.233	5202.86
453.44	5077.94
453.646	5325.74
453.852	5481.39
454.058	5645.23
454.264	5921.7
454.47	6230.94
454.676	6265.76
454.882	6777.75
455.088	6460.32
455.294	7043.99
455.5	7369.62
455.705	7797.64
455.911	7834.5
456.117	7996.29
456.323	8235.91
456.529	8178.56
456.735	9016.18
456.941	9163.64
457.147	9534.32
457.352	9769.83
457.558	10156.9
457.764	10638.17
457.97	10992.47
458.176	11463.51
458.381	11895.63
458.587	12168.01
458.793	12831.55
458.999	12745.53
459.204	14480.16
459.41	14781.21
459.616	14676.77
459.821	15581.97
460.027	16386.82
460.233	16993.02
460.438	17130.23
460.644	18223.85
460.85	18150.12
461.055	19032.8
461.261	19608.28
461.466	19245.79
461.672	19827.41
461.878	21988.02
462.083	21678.77
462.289	22459.05
462.494	23302.81
462.7	23134.88
462.905	23472.79
463.111	25893.49
463.316	26720.87
463.522	27005.54
463.727	28287.57
463.932	29045.32
464.138	29899.32
464.343	31406.62
464.549	31420.96
464.754	33733.12
464.959	34685.42
465.165	35334.63
465.37	34947.56
465.575	35056.11
465.781	37767.62
465.986	38535.6
466.191	37974.46
466.397	38142.39
466.602	37265.86
466.807	39401.89
467.012	40315.29
467.218	40616.34
467.423	41097.61
467.628	41961.86
467.833	44153.18
468.038	43073.9
468.244	42471.8
468.449	44624.22
468.654	43819.36
468.859	43573.61
469.064	43757.92
469.269	42523
469.474	43110.77
469.679	44298.59
469.885	42615.16
470.09	44056.93
470.295	43503.98
470.5	42666.36
470.705	43424.11
470.91	41769.35
471.115	41058.7
471.32	42271.1
471.525	42109.31
471.73	40972.69
471.935	40628.63
472.139	38990.25
472.344	38873.52
472.549	39008.68
472.754	38535.6
472.959	37290.44
473.164	36184.54
473.369	35860.96
473.574	36975.05
473.778	36004.31
473.983	35156.46
474.188	34900.46
474.393	32721.42
474.598	32936.46
474.802	32127.51
475.007	31398.43
475.212	31416.86
475.417	29956.66
475.621	29868.6
475.826	29516.35
476.031	29078.08
476.235	28148.31
476.44	28404.3
476.645	27517.53
476.849	27130.47
477.054	26749.54
477.259	26018.42
477.463	26102.39
477.668	25490.04
477.872	25295.49
478.077	24490.63
478.282	23868.05
478.486	23706.26
478.691	23515.8
478.895	23470.75
479.1	23270.04
479.304	22862.5
479.509	22080.18
479.713	22626.98
479.918	22162.09
480.122	21603
480.326	21609.14
480.531	21547.7
480.735	21607.09
480.94	20923.07
481.144	21803.7
481.348	20462.28
481.553	20624.07
481.757	19983.06
481.961	20245.2
482.166	20472.52
482.37	20024.01
482.574	19649.24
482.778	19698.39
482.983	20026.06
483.187	19604.18
483.391	19315.42
483.595	19038.94
483.8	18563.81
484.004	18883.3
484.208	18721.51
484.412	18555.62
484.616	18254.57
484.821	18246.38
485.025	17601.27
485.229	17916.65
485.433	17605.36
485.637	17271.54
485.841	16997.12
486.045	16950.01
486.249	16694.02
486.453	16206.6
486.657	16163.59
486.861	15778.58
487.065	15495.96
487.269	15231.77
487.473	14943
487.677	15045.4
487.881	15123.23
488.085	14433.06
488.289	14164.78
488.493	13775.66
488.697	13794.09
488.901	13652.78
489.105	12935.99
489.309	13015.87
489.512	12821.31
489.716	12628.8
489.92	12342.08
490.124	12090.18
490.328	12200.77
490.531	11658.06
490.735	11565.9
490.939	11406.16
491.143	11076.44
491.346	10992.47
491.55	10675.04
491.754	10754.91
491.958	10742.62
492.161	10259.3
492.365	10091.37
492.569	9876.33
492.772	9943.91
492.976	9751.4
493.18	9532.27
493.383	9239.41
493.587	9261.94
493.79	9405.3
493.994	8958.84
494.197	9032.57
494.401	8924.02
494.605	8637.31
494.808	8866.68
495.012	8645.5
495.215	8569.73
495.419	8579.97
495.622	8225.67
495.825	8295.3
496.029	8168.32
496.232	8409.98
496.436	8162.18
496.639	8289.15
496.843	8135.56
497.046	8041.35
497.249	8483.71
497.453	8201.09
497.656	8264.58
497.859	8123.27
498.063	8299.39
498.266	8354.69
498.469	7967.62
498.673	8196.99
498.876	8123.27
499.079	8147.84
499.282	7988.1
499.485	8436.61
499.689	8424.32
499.892	8379.26
500.095	8332.16
500.298	8616.83
500.501	8350.59
500.705	8526.72
500.908	8713.08
501.111	8680.32
501.314	8899.45
501.517	8881.02
501.72	8856.44
501.923	8913.78
502.126	8860.54
502.329	9343.86
502.532	9573.23
502.735	9452.4
502.938	9530.22
503.141	9476.98
503.344	9757.55
503.547	9939.82
503.75	9767.79
503.953	9923.43
504.156	10230.63
504.359	10201.96
504.562	10412.9
504.765	10572.64
504.968	10836.83
505.17	10896.22
505.373	11078.49
505.576	11453.27
505.779	11316.05
505.982	11330.39
506.185	11834.19
506.387	11780.94
506.59	12051.27
506.793	12213.06
506.996	12315.46
507.198	12723.01
507.401	13075.26
507.604	13067.06
507.807	13427.51
508.009	13740.85
508.212	13763.37
508.415	14160.68
508.617	14555.94
508.82	14525.22
509.022	14887.71
509.225	15432.47
509.428	15526.68
509.63	15651.6
509.833	16010
510.035	16792.32
510.238	16988.92
510.44	16993.02
510.643	17699.57
510.845	18129.64
511.048	18244.33
511.25	18660.07
511.453	19440.34
511.655	19901.14
511.858	20167.37
512.06	20593.35
512.262	20875.97
512.465	21170.88
512.667	21756.6
512.87	22190.77
513.072	22563.5
513.274	23235.23
513.477	23665.3
513.679	24451.72
513.881	24992.39
514.084	25375.36
514.286	25469.56
514.488	26286.7
514.69	27316.83
514.893	27697.75
515.095	28115.54
515.297	28598.86
515.499	28951.11
515.701	29829.69
515.904	30736.94
516.106	31156.77
516.308	31511.07
516.51	32645.65
516.712	32850.44
516.914	33270.28
517.116	34310.64
517.318	34972.14
517.52	35621.34
517.722	35742.17
517.925	36622.8
518.127	37343.69
518.329	38011.32
518.531	38576.56
518.733	39180.71
518.935	39748
519.136	40628.63
519.338	40987.02
519.54	41771.39
519.742	42373.5
519.944	42889.59
520.146	43452.78
520.348	44067.17
520.55	44327.26
520.752	44898.64
520.954	46047.55
521.155	45252.94
521.357	46721.34
521.559	47087.92
521.761	47634.73
521.963	48134.43
522.164	48431.39
522.366	48607.51
522.568	49305.87
522.77	49400.08
522.971	50381.06
523.173	49834.25
523.375	50659.58
523.576	50553.08
523.778	50856.18
523.98	51359.98
524.181	51579.12
524.383	51446
524.584	52066.53
524.786	52226.28
524.988	51706.09
525.189	52777.18
525.391	52334.82
525.592	52859.1
525.794	52455.65
525.995	52328.67
526.197	52492.51
526.398	51968.23
526.6	52568.29
526.801	52363.49
527.003	51871.98
527.204	51589.36
527.406	51943.66
527.607	51280.11
527.808	51884.26
528.01	50319.62
528.211	50438.4
528.412	51343.6
528.614	50366.72
528.815	50229.51
529.016	50118.92
529.218	48808.22
529.419	48986.39
529.62	48671
529.822	47860.01
530.023	47780.13
530.224	47765.8
530.425	46821.69
530.626	46176.58
530.828	45740.36
531.029	46022.98
531.23	44892.5
531.431	44253.53
531.632	44364.12
531.833	44095.84
532.035	43350.38
532.236	42664.31
532.437	42432.89
532.638	41539.97
532.839	41312.65
533.04	40685.97
533.241	40079.77
533.442	40303
533.643	39250.35
533.844	38801.84
534.045	38117.82
534.246	37194.18
534.447	37108.17
534.648	36573.65
534.849	36209.11
535.05	35447.27
535.251	35146.22
535.451	34806.25
535.652	34439.67
535.853	33964.54
536.054	33337.86
536.255	33176.07
536.456	31975.96
536.657	32334.35
536.857	31558.17
537.058	30939.69
537.259	30775.85
537.46	30513.71
537.66	29727.29
537.861	29680.19
538.062	28916.29
538.263	28813.9
538.463	28060.24
538.664	27900.5
538.865	27619.93
539.065	27753.05
539.266	26794.6
539.466	27042.4
539.667	26270.32
539.868	25901.68
540.068	25647.74
540.269	25488
540.469	25279.1
540.67	24504.97
540.87	24771.21
541.071	24175.25
541.271	24197.77
541.472	23939.73
541.672	22915.75
541.873	23186.08
542.073	22733.48
542.274	22563.5
542.474	22514.34
542.675	22069.94
542.875	22084.27
543.075	21318.33
543.276	21183.16
543.476	21416.63
543.676	20931.26
543.877	20724.42
544.077	20331.21
544.277	20323.02
544.478	19806.93
544.678	20005.58
544.878	19831.51
545.078	19311.32
545.279	19038.94
545.479	18715.36
545.679	18584.29
545.879	18393.83
546.079	18430.69
546.28	18154.22
546.48	17922.8
546.68	17853.17
546.88	17554.16
547.08	16966.4
547.28	17117.95
547.48	16579.33
547.68	16655.11
547.88	16538.37
548.081	16130.83
548.281	16057.1
548.481	15788.82
548.681	15942.41
548.881	15387.41
549.081	15225.62
549.28	14902.04
549.48	14750.49
549.68	14693.15
549.88	14531.36
550.08	14054.19
550.28	13925.16
550.48	13757.23
550.68	13570.86
550.88	13372.21
551.08	13165.37
551.279	13310.77
551.479	12704.57
551.679	12555.07
551.879	12366.66
552.079	12409.67
552.278	12022.6
552.478	12278.6
552.678	11809.61
552.878	11737.93
553.077	11565.9
553.277	11092.82
553.477	11467.6
553.676	10822.49
553.876	10656.61
554.076	10623.84
554.275	10470.24
554.475	10156.9
554.674	10087.27
554.874	10007.4
555.074	9577.33
555.273	9802.6
555.473	9606
555.672	9368.43
555.872	9173.88
556.071	9118.58
556.271	9016.18
556.47	8657.79
556.67	8479.61
556.869	8350.59
557.068	8231.81
557.268	7947.14
557.467	7975.81
557.667	8010.63
557.866	7775.11
558.065	7738.25
558.265	7752.59
558.464	7144.34
558.663	7277.46
558.863	7164.82
559.062	7205.78
559.261	6843.29
559.461	7027.6
559.66	6572.96
559.859	6652.83
560.058	6511.52
560.258	6396.83
560.457	6192.03
560.656	6208.42
560.855	5964.71
561.054	6099.87
561.253	5895.08
561.453	5723.05
561.652	5723.05
561.851	5712.81
562.05	5634.99
562.249	5501.87
562.448	5497.77
562.647	5245.87
562.846	5096.37
563.045	5147.57
563.244	5204.91
563.443	5020.6
563.642	4901.81
563.841	4946.87
564.04	4803.51
564.239	4778.94
564.438	4557.75
564.637	4490.17
564.836	4467.64
565.035	4512.7
565.234	4527.03
565.432	4428.73
565.631	4459.45
565.83	4189.12
566.029	4342.72
566.228	4156.35
566.427	4076.48
566.625	3881.92
566.824	3955.65
567.023	3867.59
567.222	3580.87
567.42	3818.44
567.619	3863.49
567.818	3527.63
568.016	3748.81
568.215	3636.17
568.414	3423.18
568.612	3447.76
568.811	3320.78
569.01	3271.63
569.208	3236.81
569.407	3245.01
569.605	3148.75
569.804	3187.66
570.002	3171.28
570.201	3060.69
570.4	2993.11
570.598	3019.73
570.797	2919.38
570.995	2888.66
571.193	2851.8
571.392	2763.73
571.59	2765.78
571.789	2941.91
571.987	2769.88
572.186	2704.34
572.384	2569.18
572.582	2524.12
572.781	2599.9
572.979	2319.32
573.177	2481.11
573.376	2429.91
573.574	2429.91
573.772	2298.84
573.971	2276.32
574.169	2278.37
574.367	2329.56
574.565	2206.69
574.763	2188.25
574.962	2204.64
575.16	2137.06
575.358	2055.14
575.556	1954.79
575.754	2051.04
575.952	2036.7
576.151	1983.46
576.349	1987.55
576.547	1807.33
576.745	1852.39
576.943	1811.43
577.141	1700.84
577.339	1717.22
577.537	1782.76
577.735	1749.99
577.933	1666.02
578.131	1649.64
578.329	1913.83
578.527	1496.04
578.725	1612.78
578.923	1469.42
579.121	1520.62
579.319	1348.59
579.516	1395.69
579.714	1698.79
579.912	1395.69
580.11	1405.93
580.308	1387.5
580.506	1440.75
580.704	1233.9
580.901	1221.61
581.099	1465.32
581.297	1346.54
581.495	1328.11
581.692	1281
581.89	1326.06
582.088	1369.07
582.285	1174.51
582.483	1190.89
582.681	1219.57
582.878	1190.89
583.076	1117.17
583.274	1104.88
583.471	1264.62
583.669	1045.49
583.866	1020.91
584.064	1080.3
584.262	936.95
584.459	1082.35
584.657	1078.26
584.854	1029.1
585.052	1055.73
585.249	1018.86
585.447	1022.96
585.644	895.99
585.841	1031.15
586.039	1098.74
586.236	949.23
586.434	875.51
586.631	893.94
586.828	852.98
587.026	826.36
587.223	758.77
587.42	803.83
587.618	904.18
587.815	842.74
588.012	900.08
588.21	773.11
588.407	787.44
588.604	846.84
588.801	707.57
588.999	836.6
589.196	818.16
589.393	773.11
589.59	746.48
589.787	707.57
589.984	803.83
590.182	742.39
590.379	754.68
590.576	666.61
590.773	742.39
590.97	705.53
591.167	777.2
591.364	750.58
591.561	703.48
591.758	791.54
591.955	764.92
592.152	680.95
592.349	695.29
592.546	719.86
592.743	689.14
592.94	695.29
593.137	730.1
593.334	855.03
593.531	760.82
593.727	687.09
593.924	738.29
594.121	732.15
594.318	672.76
594.515	775.16
594.712	799.73
594.908	869.36
595.105	619.51
595.302	754.68
595.499	705.53
595.696	863.22
595.892	683
596.089	875.51
596.286	789.49
596.482	914.42
596.679	852.98
596.876	766.96
597.072	863.22
597.269	951.28
597.466	941.04
597.662	922.61
597.859	938.99
598.055	969.71
598.252	994.29
598.448	1143.79
598.645	1176.56
598.841	1186.8
599.038	1321.96
599.234	1334.25
599.431	1276.91
599.627	1330.16
599.824	1344.49
600.02	1379.31
600.217	1448.94
600.413	1520.62
600.609	1516.52
600.806	1838.05
601.002	1774.56
601.198	1672.17
601.395	1809.38
601.591	1743.85
601.787	1989.6
601.984	2071.52
602.18	2110.43
602.376	2204.64
602.572	2241.5
602.769	2374.62
602.965	2448.35
603.161	2591.7
603.357	2616.28
603.553	2677.72
603.75	2808.79
603.946	2933.72
604.142	2888.66
604.338	3232.72
604.534	3218.38
604.73	3242.96
604.926	3279.82
605.122	3509.19
605.318	3505.1
605.514	3738.57
605.71	3763.14
605.906	4135.87
606.102	4019.14
606.298	4273.09
606.494	4250.56
606.69	4541.37
606.886	4531.13
607.082	4522.94
607.278	4748.22
607.474	4903.86
607.67	5094.32
607.866	5084.08
608.062	5417.9
608.257	5591.98
608.453	5573.55
608.649	5876.65
608.845	5956.52
609.041	5952.42
609.236	6325.15
609.432	6538.14
609.628	6652.83
609.824	6828.95
610.019	6937.49
610.215	7246.74
610.411	7478.16
610.606	7635.85
610.802	7785.35
610.998	7922.57
611.193	8344.45
611.389	8291.2
611.584	8600.44
611.78	8774.52
611.976	8905.59
612.171	9325.43
612.367	9491.31
612.562	9732.97
612.758	9769.83
612.953	9911.14
613.149	10437.47
613.344	10607.45
613.539	10949.46
613.735	11199.32
613.93	11576.14
614.126	11735.88
614.321	12280.64
614.517	12446.53
614.712	12800.83
614.907	12997.43
615.103	13470.51
615.298	13701.93
615.493	13927.21
615.688	14478.12
615.884	15020.83
616.079	15432.47
616.274	15872.78
616.47	16067.34
616.665	16431.88
616.86	16741.12
617.055	17220.35
617.25	17304.31
617.445	18033.39
617.641	18397.93
617.836	18975.45
618.031	19129.05
618.226	19958.48
618.421	20169.42
618.616	20904.64
618.811	21033.66
619.006	21902
619.201	21762.74
619.396	22876.83
619.591	22768.29
619.786	23966.35
619.981	24021.65
620.176	24660.62
620.371	24586.89
620.566	25588.35
620.761	26061.43
620.956	26833.51
621.151	27128.42
621.346	27689.56
621.541	28068.44
621.735	29164.1
621.93	29110.85
622.125	29547.07
622.32	29770.3
622.515	30994.98
622.709	31259.17
622.904	32029.21
623.099	32385.55
623.294	33227.27
623.488	33372.67
623.683	33962.49
623.878	34132.47
624.072	35078.63
624.267	35607.01
624.462	36469.2
624.656	36862.41
624.851	37546.44
625.046	37458.37
625.24	38119.87
625.435	39027.12
625.629	39551.4
625.824	39831.97
626.018	40495.51
626.213	40358.3
626.407	40896.91
626.602	41419.14
626.796	42371.45
626.991	42336.63
627.185	42592.63
627.38	42670.45
627.574	43121.01
627.768	43417.96
627.963	43356.52
628.157	43602.28
628.352	43884.9
628.546	43395.43
628.74	43880.8
628.935	44040.54
629.129	44198.24
629.323	43397.48
629.517	43426.15
629.712	43303.28
629.906	43276.65
630.1	42359.16
630.294	42234.24
630.489	41470.34
630.683	41550.21
630.877	40219.03
631.071	39938.46
631.265	39199.15
631.459	38586.8
631.653	37605.83
631.848	37200.33
632.042	36231.64
632.236	35285.48
632.43	34095.61
632.624	33649.15
632.818	32729.61
633.012	31539.74
633.206	30235.19
633.4	29745.72
633.594	28344.91
633.788	27640.41
633.982	26835.56
634.176	25909.88
634.369	24590.98
634.563	24033.94
634.757	22907.55
634.951	22413.99
635.145	21287.61
635.339	20548.29
635.533	19604.18
635.726	19032.8
635.92	17752.82
636.114	17349.37
636.308	16311.05
636.501	16114.44
636.695	15409.94
636.889	14738.21
637.083	14056.23
637.276	13534
637.47	12919.61
637.664	12438.34
637.857	11955.02
638.051	11596.62
638.244	10996.57
638.438	10509.15
638.632	10156.9
638.825	9671.53
639.019	9380.72
639.212	9014.13
639.406	8751.99
639.599	8240
639.793	7988.1
639.986	7576.46
640.18	7369.62
640.373	7125.91
640.567	6722.46
640.76	6626.2
640.954	6423.45
641.147	6007.72
641.34	5858.21
641.534	5782.44
641.727	5442.48
641.92	5196.72
642.114	4844.47
642.307	4914.1
642.5	4500.41
642.694	4320.19
642.887	4299.71
643.08	4168.64
643.273	4037.57
643.467	3750.85
643.66	3691.46
643.853	3347.4
644.046	3414.99
644.239	3265.49
644.432	3087.31
644.626	2943.96
644.819	2855.89
645.012	2855.89
645.205	2694.1
645.398	2694.1
645.591	2491.35
645.784	2368.48
645.977	2270.17
646.17	2182.11
646.363	2110.43
646.556	1944.55
646.749	1903.59
646.942	1911.78
647.135	1956.83
647.328	1702.89
647.521	1713.13
647.714	1661.93
647.907	1559.53
648.099	1315.82
648.292	1539.05
648.485	1481.71
648.678	1371.12
648.871	1262.57
649.064	1315.82
649.256	1156.08
649.449	1063.92
649.642	920.56
649.835	1059.82
650.027	1090.54
650.22	1113.07
650.413	996.34
650.605	977.91
650.798	814.07
650.991	865.27
651.183	883.7
651.376	812.02
651.568	766.96
651.761	697.33
651.954	766.96
652.146	693.24
652.339	711.67
652.531	779.25
652.724	541.69
652.916	564.22
653.109	508.92
653.301	617.46
653.494	570.36
653.686	510.97
653.879	574.46
654.071	553.98
654.263	556.02
654.456	445.43
654.648	488.44
654.84	543.74
655.033	453.63
655.225	652.28
655.417	377.85
655.61	572.41
655.802	570.36
655.994	568.31
656.186	310.27
656.379	500.73
656.571	398.33
656.763	353.27
656.955	334.84
657.148	359.42
657.34	467.96
657.532	351.23
657.724	316.41
657.916	349.18
658.108	363.51
658.3	328.7
658.492	394.23
658.684	275.45
658.876	361.47
659.068	138.24
659.26	228.35
659.452	207.87
659.644	316.41
659.836	394.23
660.028	259.07
660.22	240.64
660.412	207.87
660.604	240.64
660.796	353.27
660.988	338.94
661.18	271.36
661.372	302.08
661.563	205.82
661.755	240.64
661.947	121.85
662.139	228.35
662.331	205.82
662.522	265.21
662.714	146.43
662.906	179.2
663.097	152.57
663.289	191.49
663.481	87.04
663.673	224.25
663.864	220.16
664.056	140.29
664.247	132.09
664.439	187.39
664.631	152.57
664.822	267.26
665.014	132.09
665.205	99.33
665.397	166.91
665.588	148.48
665.78	173.05
665.971	281.6
666.163	109.57
666.354	162.81
666.546	99.33
666.737	107.52
666.929	150.53
667.12	60.42
667.311	207.87
667.503	164.86
667.694	164.86
667.885	166.91
668.077	228.35
668.268	138.24
668.459	82.94
668.651	177.15
668.842	156.67
669.033	130.05
669.224	48.13
669.416	338.94
669.607	158.72
669.798	87.04
669.989	273.4
670.18	121.85
670.371	218.11
670.563	101.37
670.754	238.59
670.945	179.2
671.136	158.72
671.327	111.61
671.518	283.64
671.709	209.92
671.9	195.58
672.091	185.34
672.282	181.25
672.473	146.43
672.664	121.85
672.855	132.09
673.046	125.95
673.237	203.77
673.428	150.53
673.619	193.53
673.809	128
674	211.96
674.191	95.23
674.382	74.75
674.573	128
674.764	33.79
674.954	242.68
675.145	158.72
675.336	68.61
675.527	87.04
675.717	150.53
675.908	195.58
676.099	78.85
676.289	199.68
676.48	68.61
676.671	142.33
676.861	140.29
677.052	187.39
677.243	70.65
677.433	128
677.624	183.29
677.814	195.58
678.005	140.29
678.195	224.25
678.386	60.42
678.576	144.38
678.767	84.99
678.957	130.05
679.148	234.49
679.338	246.78
679.529	228.35
679.719	183.29
679.909	160.77
680.1	207.87
680.29	211.96
680.481	119.81
680.671	173.05
680.861	193.53
681.052	181.25
681.242	48.13
681.432	269.31
681.622	197.63
681.813	74.75
682.003	148.48
682.193	105.47
682.383	185.34
682.573	171.01
682.764	109.57
682.954	250.88
683.144	330.75
683.334	168.96
683.524	236.54
683.714	236.54
683.904	185.34
684.094	121.85
684.284	214.01
684.474	171.01
684.664	271.36
684.854	203.77
685.044	125.95
685.234	156.67
685.424	197.63
685.614	150.53
685.804	343.03
685.994	338.94
686.184	236.54
686.374	187.39
686.564	156.67
686.753	226.3
686.943	130.05
687.133	173.05
687.323	132.09
687.513	218.11
687.702	140.29
687.892	152.57
688.082	234.49
688.272	158.72
688.461	197.63
688.651	412.67
688.841	224.25
689.03	164.86
689.22	125.95
689.41	177.15
689.599	265.21
689.789	191.49
689.979	324.6
690.168	146.43
690.358	214.01
690.547	160.77
690.737	263.16
690.926	252.92
691.116	214.01
691.305	252.92
691.495	222.2
691.684	87.04
691.874	173.05
692.063	230.4
692.252	228.35
692.442	254.97
692.631	109.57
692.82	177.15
693.01	128
693.199	152.57
693.388	201.72
693.578	230.4
693.767	254.97
693.956	197.63
694.146	160.77
694.335	211.96
694.524	265.21
694.713	265.21
694.902	95.23
695.092	101.37
695.281	207.87
695.47	257.02
695.659	205.82
695.848	162.81
696.037	136.19
696.226	171.01
696.415	154.62
696.604	310.27
696.793	201.72
696.982	125.95
697.171	345.08
697.36	146.43
697.549	166.91
697.738	64.51
697.927	130.05
698.116	160.77
698.305	240.64
698.494	201.72
698.683	216.06
698.872	373.75
699.061	168.96
699.25	189.44
699.438	166.91
699.627	140.29
699.816	308.22
700.005	121.85
700.193	209.92
700.382	216.06
700.571	203.77
700.76	248.83
700.948	238.59
701.137	275.45
701.326	183.29
701.514	138.24
701.703	259.07
701.892	224.25
702.08	222.2
702.269	166.91
702.457	107.52
702.646	230.4
702.834	203.77
703.023	230.4
703.212	238.59
703.4	236.54
703.589	148.48
703.777	160.77
703.965	140.29
704.154	91.13
704.342	19.46
704.531	82.94
704.719	128
704.907	289.79
705.096	132.09
705.284	105.47
705.472	250.88
705.661	187.39
705.849	181.25
706.037	287.74
706.226	177.15
706.414	214.01
706.602	146.43
706.79	209.92
706.979	168.96
707.167	195.58
707.355	101.37
707.543	347.13
707.731	195.58
707.919	226.3
708.107	130.05
708.296	123.9
708.484	117.76
708.672	185.34
708.86	189.44
709.048	148.48
709.236	168.96
709.424	187.39
709.612	93.18
709.8	99.33
709.988	130.05
710.176	189.44
710.364	257.02
710.551	179.2
710.739	119.81
710.927	209.92
711.115	246.78
711.303	246.78
711.491	226.3
711.679	146.43
711.866	248.83
712.054	209.92
712.242	107.52
712.43	326.65
712.617	132.09
712.805	197.63
712.993	236.54
713.181	105.47
713.368	185.34
713.556	166.91
713.744	109.57
713.931	377.85
714.119	240.64
714.306	181.25
714.494	117.76
714.682	158.72
714.869	121.85
715.057	179.2
715.244	56.32
715.432	244.73
715.619	156.67
715.807	185.34
715.994	277.5
716.182	240.64
716.369	257.02
716.556	220.16
716.744	205.82
716.931	93.18
717.119	183.29
717.306	177.15
717.493	199.68
717.681	119.81
717.868	99.33
718.055	164.86
718.242	211.96
718.43	130.05
718.617	244.73
718.804	150.53
718.991	240.64
719.179	197.63
719.366	246.78
719.553	191.49
719.74	166.91
719.927	228.35
720.114	199.68
720.301	234.49
720.488	70.65
720.676	175.1
720.863	267.26
721.05	373.75
721.237	257.02
721.424	252.92
721.611	236.54
721.798	144.38
721.985	189.44
722.172	226.3
722.358	173.05
722.545	289.79
722.732	230.4
722.919	287.74
723.106	218.11
723.293	199.68
723.48	261.12
723.667	156.67
723.853	177.15
724.04	181.25
724.227	306.17
724.414	160.77
724.6	216.06
724.787	332.79
724.974	343.03
725.161	214.01
725.347	179.2
725.534	201.72
725.72	254.97
725.907	269.31
726.094	279.55
726.28	158.72
726.467	218.11
726.653	175.1
726.84	359.42
727.027	312.32
727.213	240.64
727.4	302.08
727.586	302.08
727.773	193.53
727.959	144.38
728.145	214.01
728.332	207.87
728.518	195.58
728.705	283.64
728.891	234.49
729.077	314.36
729.264	142.33
729.45	232.44
729.636	271.36
729.823	146.43
730.009	250.88
730.195	273.4
730.382	269.31
730.568	101.37
730.754	207.87
730.94	271.36
731.126	201.72
731.313	265.21
731.499	189.44
731.685	246.78
731.871	334.84
732.057	273.4
732.243	293.88
732.429	250.88
732.615	420.86
732.801	308.22
732.987	224.25
733.173	291.84
733.359	158.72
733.545	285.69
733.731	234.49
733.917	273.4
734.103	248.83
734.289	222.2
734.475	166.91
734.661	312.32
734.847	273.4
735.033	244.73
735.219	326.65
735.404	226.3
735.59	156.67
735.776	142.33
735.962	232.44
736.148	330.75
736.333	238.59
736.519	220.16
736.705	232.44
736.89	211.96
737.076	226.3
737.262	175.1
737.447	185.34
737.633	207.87
737.819	334.84
738.004	277.5
738.19	234.49
738.375	289.79
738.561	343.03
738.747	259.07
738.932	148.48
739.118	340.99
739.303	281.6
739.489	324.6
739.674	234.49
739.859	173.05
740.045	316.41
740.23	273.4
740.416	74.75
740.601	220.16
740.786	283.64
740.972	162.81
741.157	230.4
741.342	132.09
741.528	91.13
741.713	269.31
741.898	199.68
742.084	297.98
742.269	205.82
742.454	332.79
742.639	267.26
742.824	259.07
743.01	314.36
743.195	377.85
743.38	222.2
743.565	248.83
743.75	211.96
743.935	244.73
744.12	275.45
744.305	140.29
744.49	146.43
744.675	232.44
744.86	302.08
745.045	269.31
745.23	228.35
745.415	216.06
745.6	289.79
745.785	189.44
745.97	343.03
746.155	275.45
746.34	322.56
746.525	269.31
746.71	343.03
746.895	113.66
747.079	142.33
747.264	189.44
747.449	297.98
747.634	308.22
747.819	216.06
748.003	230.4
748.188	136.19
748.373	211.96
748.557	277.5
748.742	218.11
748.927	130.05
749.111	191.49
749.296	250.88
749.481	254.97
749.665	248.83
749.85	99.33
750.034	216.06
750.219	261.12
750.404	121.85
750.588	142.33
750.773	246.78
750.957	248.83
751.141	195.58
751.326	285.69
751.51	109.57
751.695	146.43
751.879	136.19
752.064	330.75
752.248	252.92
752.432	283.64
752.617	330.75
752.801	252.92
752.985	72.7
753.17	310.27
753.354	205.82
753.538	177.15
753.722	74.75
753.907	111.61
754.091	80.89
754.275	216.06
754.459	82.94
754.643	171.01
754.828	267.26
755.012	158.72
755.196	56.32
755.38	250.88
755.564	39.94
755.748	185.34
755.932	191.49
756.116	158.72
756.3	205.82
756.484	132.09
756.668	224.25
756.852	50.18
757.036	125.95
757.22	175.1
757.404	56.32
757.588	99.33
757.772	244.73
757.956	220.16
758.14	289.79
758.323	35.84
758.507	173.05
758.691	189.44
758.875	179.2
759.059	197.63
759.242	158.72
759.426	199.68
759.61	150.53
759.794	179.2
759.977	185.34
760.161	418.81
760.345	330.75
760.528	205.82
760.712	171.01
760.895	152.57
761.079	203.77
761.263	76.8
761.446	111.61
761.63	156.67
761.813	224.25
761.997	138.24
762.18	95.23
762.364	168.96
762.547	31.74
762.731	76.8
762.914	95.23
763.098	134.14
763.281	44.03
763.464	62.46
763.648	197.63
763.831	68.61
764.015	105.47
764.198	181.25
764.381	132.09
764.564	173.05
764.748	148.48
764.931	179.2
765.114	97.28
765.297	101.37
765.481	56.32
765.664	109.57
765.847	105.47
766.03	193.53
766.213	3.07
766.397	162.81
766.58	-9.22
766.763	138.24
766.946	150.53
767.129	115.71
767.312	95.23
767.495	58.37
767.678	-19.46
767.861	115.71
768.044	95.23
768.227	13.31
768.41	121.85
768.593	84.99
768.776	105.47
768.959	76.8
769.142	156.67
769.324	64.51
769.507	115.71
769.69	21.5
769.873	64.51
770.056	183.29
770.239	76.8
770.421	181.25
770.604	134.14
770.787	68.61
770.97	52.22
771.152	31.74
771.335	211.96
771.518	-9.22
771.7	117.76
771.883	150.53
772.066	13.31
772.248	105.47
772.431	240.64
772.613	128
772.796	-1.02
772.978	95.23
773.161	164.86
773.343	84.99
773.526	-3.07
773.708	-31.74
773.891	-44.03
774.073	1.02
774.256	21.5
774.438	119.81
774.621	9.22
774.803	175.1
774.985	3.07
775.168	115.71
775.35	103.42
775.532	78.85
775.715	48.13
775.897	173.05
776.079	91.13
776.261	123.9
776.444	37.89
776.626	9.22
776.808	72.7
776.99	-62.46
777.173	60.42
777.355	74.75
777.537	121.85
777.719	23.55
777.901	70.65
778.083	29.7
778.265	-31.74
778.447	113.66
778.629	-35.84
778.811	115.71
778.993	107.52
779.175	187.39
779.357	56.32
779.539	-13.31
779.721	97.28
779.903	158.72
780.085	78.85
780.267	29.7
780.449	125.95
780.631	115.71
780.812	222.2
780.994	150.53
781.176	56.32
781.358	-1.02
781.54	50.18
781.721	82.94
781.903	87.04
782.085	15.36
782.267	113.66
782.448	-29.7
782.63	15.36
782.812	74.75
782.993	136.19
783.175	168.96
783.357	-7.17
783.538	99.33
783.72	-48.13
783.901	39.94
784.083	29.7
784.264	132.09
784.446	-56.32
784.627	23.55
784.809	54.27
784.99	101.37
785.172	87.04
785.353	89.09
785.535	160.77
785.716	5.12
785.897	-11.26
786.079	25.6
786.26	-27.65
786.441	54.27
786.623	-21.5
786.804	93.18
786.985	62.46
787.167	76.8
787.348	1.02
787.529	48.13
787.71	191.49
787.891	115.71
788.073	64.51
788.254	-44.03
788.435	246.78
788.616	17.41
788.797	-17.41
788.978	-25.6
789.159	17.41
789.34	97.28
789.522	23.55
789.703	-52.22
789.884	93.18
790.065	95.23
790.246	171.01
790.427	119.81
790.607	177.15
790.788	130.05
790.969	3.07
791.15	66.56
791.331	-25.6
791.512	3.07
791.693	7.17
791.874	39.94
792.054	154.62
792.235	111.61
792.416	-74.75
792.597	-23.55
792.778	9.22
792.958	-3.07
793.139	44.03
793.32	41.98
793.5	-76.8
793.681	78.85
793.862	21.5
794.042	-7.17
794.223	-33.79
794.404	-23.55
794.584	-23.55
794.765	68.61
794.945	13.31
795.126	66.56
795.306	111.61
795.487	19.46
795.667	74.75
795.848	56.32
796.028	-54.27
796.209	48.13
796.389	27.65
796.57	48.13
796.75	-68.61
796.93	25.6
797.111	-31.74
797.291	44.03
797.471	58.37
797.652	13.31
797.832	5.12
798.012	52.22
798.192	-5.12
798.373	-39.94
798.553	11.26
798.733	58.37
798.913	-46.08
799.093	-13.31
799.274	87.04
799.454	11.26
799.634	62.46
799.814	74.75
799.994	82.94
800.174	37.89
800.354	-33.79
800.534	-44.03
800.714	35.84
800.894	-11.26
801.074	-25.6
801.254	13.31
801.434	164.86
801.614	-37.89
801.794	-140.29
801.974	1797.09
802.154	41.98
802.334	103.42
802.514	-19.46
802.693	17.41
802.873	-15.36
803.053	164.86
803.233	-7.17
803.413	15.36
803.592	-33.79
803.772	-70.65
803.952	-25.6
804.131	-31.74
804.311	-29.7
804.491	105.47
804.67	-15.36
804.85	-27.65
805.03	70.65
805.209	160.77
805.389	-31.74
805.568	17.41
805.748	21.5
805.928	54.27
806.107	64.51
806.287	97.28
806.466	11.26
806.646	119.81
806.825	13.31
807.004	54.27
807.184	23.55
807.363	130.05
807.543	11.26
807.722	-48.13
807.901	138.24
808.081	56.32
808.26	-130.05
808.439	17.41
808.619	37.89
808.798	-64.51
808.977	31.74
809.156	130.05
809.336	82.94
809.515	60.42
809.694	-93.18
809.873	-70.65
810.052	119.81
810.231	103.42
810.411	48.13
810.59	123.9
810.769	-15.36
810.948	48.13
811.127	-25.6
811.306	21.5
811.485	-5.12
811.664	78.85
811.843	-44.03
812.022	-5.12
812.201	-103.42
812.38	19.46
812.559	-44.03
812.737	-23.55
812.916	-78.85
813.095	-46.08
813.274	7.17
813.453	62.46
813.632	66.56
813.811	99.33
813.989	-97.28
814.168	48.13
814.347	-13.31
814.526	5.12
814.704	64.51
814.883	29.7
815.062	-68.61
815.24	113.66
815.419	-66.56
815.598	15.36
815.776	-37.89
815.955	72.7
816.133	-103.42
816.312	23.55
816.49	-70.65
816.669	82.94
816.847	9.22
817.026	23.55
817.204	-27.65
817.383	60.42
817.561	-5.12
817.74	27.65
817.918	17.41
818.097	-13.31
818.275	-39.94
818.453	46.08
818.632	62.46
818.81	-11.26
818.988	11.26
819.167	-50.18
819.345	68.61
819.523	25.6
819.701	134.14
819.879	21.5
820.058	11.26
820.236	31.74
820.414	19.46
820.592	-44.03
820.77	46.08
820.948	-44.03
821.127	23.55
821.305	91.13
821.483	-46.08
821.661	5.12
821.839	33.79
822.017	-3.07
822.195	-68.61
822.373	50.18
822.551	48.13
822.729	97.28
822.907	91.13
823.085	113.66
823.262	29.7
823.44	-15.36
823.618	-44.03
823.796	15.36
823.974	-41.98
824.152	25.6
824.329	-39.94
824.507	68.61
824.685	123.9
824.863	11.26
825.04	46.08
825.218	31.74
825.396	-1.02
825.574	-50.18
825.751	-46.08
825.929	70.65
826.107	-91.13
826.284	5.12
826.462	70.65
826.639	-15.36
826.817	-115.71
826.994	50.18
827.172	-107.52
827.349	125.95
827.527	78.85
827.704	-9.22
827.882	138.24
828.059	33.79
828.237	-7.17
828.414	87.04
828.591	-117.76
828.769	-17.41
828.946	27.65
829.124	44.03
829.301	160.77
829.478	-1.02
829.655	56.32
829.833	52.22
830.01	-101.37
830.187	3.07
830.364	-74.75
830.542	27.65
830.719	93.18
830.896	111.61
831.073	91.13
831.25	58.37
831.427	89.09
831.604	7.17
831.782	19.46
831.959	13.31
832.136	7.17
832.313	25.6
832.49	25.6
832.667	39.94
832.844	31.74
833.021	185.34
833.198	41.98
833.374	17.41
833.551	33.79
833.728	33.79
833.905	101.37
834.082	-130.05
834.259	66.56
834.436	138.24
834.612	-21.5
834.789	54.27
834.966	37.89
835.143	-3.07
835.319	-35.84
835.496	50.18
835.673	78.85
835.85	54.27
836.026	60.42
836.203	138.24
836.38	-9.22
836.556	-23.55
836.733	-52.22
836.909	183.29
837.086	-11.26
837.262	-80.89
837.439	68.61
837.616	-21.5
837.792	-3.07
837.968	13.31
838.145	-107.52
838.321	60.42
838.498	33.79
838.674	119.81
838.851	54.27
839.027	-25.6
839.203	-62.46
839.38	35.84
839.556	-15.36
839.732	82.94
839.909	-58.37
840.085	15.36
840.261	3.07
840.437	9.22
840.614	52.22
840.79	128
840.966	46.08
841.142	-7.17
841.318	29.7
841.494	50.18
841.671	23.55
841.847	-97.28
842.023	-41.98
842.199	9.22
842.375	117.76
842.551	-78.85
842.727	-76.8
842.903	199.68
843.079	-15.36
843.255	103.42
843.431	-68.61
843.607	31.74
843.783	-93.18
843.959	56.32
844.134	-50.18
844.31	113.66
844.486	66.56
844.662	-13.31
844.838	64.51
845.013	48.13
845.189	87.04
845.365	13.31
845.541	72.7
845.716	62.46
845.892	78.85
846.068	-11.26
846.244	-68.61
846.419	87.04
846.595	-25.6
846.77	-117.76
846.946	105.47
847.122	-99.33
847.297	-21.5
847.473	203.77
847.648	-50.18
847.824	70.65
847.999	-37.89
848.175	-13.31
848.35	11.26
848.526	46.08
848.701	130.05
848.876	56.32
849.052	95.23
849.227	19.46
849.403	44.03
849.578	11.26
849.753	50.18
849.929	52.22
850.104	-93.18
850.279	27.65
850.454	105.47
850.63	35.84
850.805	-3.07
850.98	-66.56
851.155	-35.84
851.33	78.85
851.505	-33.79
851.681	121.85
851.856	19.46
852.031	44.03
852.206	54.27
852.381	-37.89
852.556	35.84
852.731	-15.36
852.906	39.94
853.081	-17.41
853.256	27.65
853.431	56.32
853.606	9.22
853.781	15.36
853.956	-115.71
854.131	93.18
854.305	-11.26
854.48	-13.31
854.655	-13.31
854.83	17.41
855.005	19.46
855.18	11.26
855.354	-17.41
855.529	44.03
855.704	-46.08
855.879	146.43
856.053	-74.75
856.228	46.08
856.403	-35.84
856.577	23.55
856.752	-107.52
856.926	-27.65
857.101	27.65
857.276	-52.22
857.45	64.51
857.625	64.51
857.799	9.22
857.974	60.42
858.148	-109.57
858.323	37.89
858.497	-58.37
858.672	-17.41
858.846	-15.36
859.02	68.61
859.195	5.12
859.369	1.02
859.543	-35.84
859.718	-7.17
859.892	37.89
860.066	64.51
860.241	-66.56
860.415	-148.48
860.589	-48.13
860.763	44.03
860.938	-33.79
861.112	29.7
861.286	-27.65
861.46	-19.46
861.634	-11.26
861.808	132.09
861.982	-70.65
862.157	-107.52
862.331	-23.55
862.505	-76.8
862.679	-68.61
862.853	5.12
863.027	-74.75
863.201	179.2
863.375	23.55
863.549	99.33
863.722	-46.08
863.896	48.13
864.07	-44.03
864.244	-39.94
864.418	103.42
864.592	35.84
864.766	3.07
864.939	-35.84
865.113	-105.47
865.287	68.61
865.461	-99.33
865.634	70.65
865.808	27.65
865.982	-25.6
866.156	-37.89
866.329	-72.7
866.503	41.98
866.676	119.81
866.85	35.84
867.024	-41.98
867.197	82.94
867.371	-23.55
867.544	7.17
867.718	-56.32
867.891	91.13
868.065	-87.04
868.238	39.94
868.412	101.37
868.585	-7.17
868.759	-29.7
868.932	-64.51
869.105	-119.81
869.279	-17.41
869.452	-35.84
869.625	19.46
869.799	-7.17
869.972	-13.31
870.145	-44.03
870.319	58.37
870.492	-35.84
870.665	56.32
870.838	-87.04
871.011	-99.33
871.185	11.26
871.358	3.07
871.531	74.75
871.704	-23.55
871.877	-25.6
872.05	-27.65
872.223	-44.03
872.396	119.81
872.569	35.84
872.742	-148.48
872.915	48.13
873.088	11.26
873.261	-80.89
873.434	1.02
873.607	-58.37
873.78	-11.26
873.953	-84.99
874.126	1.02
874.299	64.51
874.471	-21.5
874.644	54.27
874.817	31.74
874.99	164.86
875.163	-39.94
875.335	-11.26
875.508	17.41
875.681	103.42
875.853	-91.13
876.026	70.65
876.199	66.56
876.371	58.37
876.544	-25.6
876.717	-7.17
876.889	19.46
877.062	97.28
877.234	-46.08
877.407	-11.26
877.579	-27.65
877.752	62.46
877.924	13.31
878.097	-29.7
878.269	-1.02
878.442	62.46
878.614	37.89
878.786	29.7
878.959	-29.7
879.131	-37.89
879.303	-101.37
879.476	5.12
879.648	29.7
879.82	29.7
879.993	9.22
880.165	-66.56
880.337	-80.89
880.509	29.7
880.681	-99.33
880.854	-52.22
881.026	9.22
881.198	95.23
881.37	17.41
881.542	-35.84
881.714	76.8
881.886	-68.61
882.058	66.56
882.23	50.18
882.402	-54.27
882.574	1.02
882.746	3.07
882.918	138.24
883.09	60.42
883.262	-5.12
883.434	-1.02
883.606	-99.33
883.778	54.27
883.95	150.53
884.122	-41.98
884.293	56.32
884.465	-9.22
884.637	111.61
884.809	-15.36
884.98	-56.32
885.152	181.25
885.324	46.08
885.496	-52.22
885.667	-7.17
885.839	-15.36
886.011	58.37
886.182	31.74
886.354	148.48
886.525	25.6
886.697	21.5
886.869	-33.79
887.04	1.02
887.212	117.76
887.383	84.99
887.555	89.09
887.726	-70.65
887.897	-13.31
888.069	31.74
888.24	78.85
888.412	29.7
888.583	-50.18
888.754	-21.5
888.926	-156.67
889.097	74.75
889.268	-66.56
889.44	66.56
889.611	-44.03
889.782	-60.42
889.953	-128
890.125	119.81
890.296	29.7
890.467	-50.18
890.638	-44.03
890.809	-33.79
890.98	-58.37
891.151	41.98
891.323	103.42
891.494	-5.12
891.665	-9.22
891.836	-25.6
892.007	21.5
892.178	-50.18
892.349	-41.98
892.52	-7.17
892.691	11.26
892.862	-15.36
893.032	-62.46
893.203	-56.32
893.374	-17.41
893.545	87.04
893.716	-37.89
893.887	70.65
894.057	-11.26
894.228	21.5
894.399	-37.89
894.57	91.13
894.74	19.46
894.911	91.13
895.082	-25.6
895.253	-44.03
895.423	-33.79
895.594	111.61
895.764	50.18
895.935	-66.56
896.106	68.61
896.276	-35.84
896.447	33.79
896.617	23.55
896.788	-52.22
896.958	-44.03
897.129	-11.26
897.299	9.22
897.47	50.18
897.64	56.32
897.81	-44.03
897.981	44.03
898.151	-5.12
898.322	19.46
898.492	105.47
898.662	-41.98
898.832	-21.5
899.003	-37.89
899.173	17.41
899.343	-142.33
899.513	-44.03
