Data from USB4F104151__122__10-46-15-658.txt Node

Date: Wed Feb 26 10:46:15 EST 2025
User: louis
Spectrometer: USB4F10415
Trigger mode: 4
Integration Time (sec): 1.000000E-1
Scans to average: 1
Electric dark correction enabled: true
Nonlinearity correction enabled: false
Boxcar width: 0
XAxis mode: Wavelengths
Number of Pixels in Spectrum: 3648
>>>>>Begin Spectral Data<<<<<
178.204	-408.57
178.424	-408.57
178.644	-408.57
178.864	-398.33
179.084	-345.08
179.304	-9.22
179.524	-58.37
179.744	-39.94
179.964	74.75
180.184	11.26
180.404	111.61
180.624	48.13
180.844	-35.84
181.064	-89.09
181.283	25.6
181.503	-76.8
181.723	37.89
181.943	-140.29
182.163	144.38
182.383	-31.74
182.602	-7.17
182.822	80.89
183.042	173.05
183.262	23.55
183.482	-56.32
183.701	-7.17
183.921	62.46
184.141	-74.75
184.361	130.05
184.58	13.31
184.8	9.22
185.02	-9.22
185.239	80.89
185.459	21.5
185.679	29.7
185.898	-3.07
186.118	23.55
186.338	107.52
186.557	119.81
186.777	-17.41
186.997	52.22
187.216	11.26
187.436	138.24
187.655	31.74
187.875	33.79
188.095	74.75
188.314	168.96
188.534	132.09
188.753	-13.31
188.973	48.13
189.192	109.57
189.412	-25.6
189.631	44.03
189.851	84.99
190.07	68.61
190.29	-105.47
190.509	-37.89
190.729	101.37
190.948	171.01
191.168	222.2
191.387	62.46
191.607	97.28
191.826	19.46
192.045	27.65
192.265	-3.07
192.484	21.5
192.704	50.18
192.923	-115.71
193.142	185.34
193.362	164.86
193.581	78.85
193.8	89.09
194.02	105.47
194.239	-31.74
194.458	29.7
194.678	21.5
194.897	-9.22
195.116	95.23
195.335	99.33
195.555	54.27
195.774	-11.26
195.993	140.29
196.212	56.32
196.432	13.31
196.651	-52.22
196.87	-13.31
197.089	199.68
197.308	7.17
197.528	117.76
197.747	29.7
197.966	91.13
198.185	185.34
198.404	-5.12
198.623	181.25
198.842	31.74
199.062	111.61
199.281	-7.17
199.5	87.04
199.719	35.84
199.938	62.46
200.157	87.04
200.376	87.04
200.595	144.38
200.814	48.13
201.033	-27.65
201.252	164.86
201.471	74.75
201.69	144.38
201.909	72.7
202.128	29.7
202.347	84.99
202.566	56.32
202.785	-52.22
203.004	-35.84
203.223	175.1
203.442	-15.36
203.661	-70.65
203.879	19.46
204.098	203.77
204.317	64.51
204.536	140.29
204.755	101.37
204.974	87.04
205.193	-35.84
205.411	82.94
205.63	62.46
205.849	82.94
206.068	-7.17
206.287	-64.51
206.505	138.24
206.724	-3.07
206.943	-58.37
207.162	5.12
207.381	84.99
207.599	52.22
207.818	56.32
208.037	-25.6
208.255	-80.89
208.474	56.32
208.693	103.42
208.911	33.79
209.13	173.05
209.349	82.94
209.567	89.09
209.786	46.08
210.005	35.84
210.223	-48.13
210.442	-158.72
210.661	-1.02
210.879	64.51
211.098	17.41
211.316	5.12
211.535	76.8
211.753	50.18
211.972	117.76
212.191	60.42
212.409	58.37
212.628	107.52
212.846	1.02
213.065	-15.36
213.283	78.85
213.502	-52.22
213.72	11.26
213.938	76.8
214.157	46.08
214.375	119.81
214.594	44.03
214.812	99.33
215.031	29.7
215.249	-11.26
215.467	17.41
215.686	9.22
215.904	33.79
216.122	103.42
216.341	68.61
216.559	66.56
216.778	62.46
216.996	142.33
217.214	35.84
217.432	-31.74
217.651	-56.32
217.869	91.13
218.087	91.13
218.306	33.79
218.524	-3.07
218.742	-11.26
218.96	76.8
219.179	41.98
219.397	-62.46
219.615	230.4
219.833	60.42
220.051	-33.79
220.27	136.19
220.488	101.37
220.706	80.89
220.924	-7.17
221.142	5.12
221.36	93.18
221.578	84.99
221.796	25.6
222.015	13.31
222.233	-7.17
222.451	111.61
222.669	33.79
222.887	39.94
223.105	17.41
223.323	11.26
223.541	-37.89
223.759	87.04
223.977	64.51
224.195	177.15
224.413	117.76
224.631	101.37
224.849	115.71
225.067	226.3
225.285	52.22
225.503	-5.12
225.721	-109.57
225.939	21.5
226.157	19.46
226.375	175.1
226.592	-62.46
226.81	50.18
227.028	125.95
227.246	136.19
227.464	37.89
227.682	84.99
227.9	111.61
228.117	5.12
228.335	60.42
228.553	-35.84
228.771	-46.08
228.989	13.31
229.206	121.85
229.424	44.03
229.642	39.94
229.86	7.17
230.077	113.66
230.295	-11.26
230.513	97.28
230.731	68.61
230.948	130.05
231.166	105.47
231.384	13.31
231.601	-13.31
231.819	119.81
232.037	37.89
232.254	-21.5
232.472	-5.12
232.689	44.03
232.907	105.47
233.125	60.42
233.342	-25.6
233.56	35.84
233.777	9.22
233.995	-50.18
234.213	99.33
234.43	52.22
234.648	48.13
234.865	44.03
235.083	80.89
235.3	52.22
235.518	54.27
235.735	132.09
235.953	68.61
236.17	52.22
236.388	74.75
236.605	29.7
236.822	68.61
237.04	177.15
237.257	-44.03
237.475	-95.23
237.692	11.26
237.909	15.36
238.127	-25.6
238.344	23.55
238.562	44.03
238.779	3.07
238.996	-35.84
239.214	44.03
239.431	3.07
239.648	11.26
239.865	128
240.083	-1.02
240.3	-41.98
240.517	33.79
240.735	-44.03
240.952	99.33
241.169	62.46
241.386	89.09
241.603	17.41
241.821	-52.22
242.038	48.13
242.255	144.38
242.472	13.31
242.689	23.55
242.907	9.22
243.124	56.32
243.341	74.75
243.558	-25.6
243.775	-33.79
243.992	-117.76
244.209	76.8
244.426	97.28
244.643	72.7
244.86	15.36
245.078	17.41
245.295	66.56
245.512	82.94
245.729	-80.89
245.946	76.8
246.163	-33.79
246.38	1.02
246.597	29.7
246.814	17.41
247.031	44.03
247.248	5.12
247.464	107.52
247.681	68.61
247.898	87.04
248.115	68.61
248.332	-103.42
248.549	179.2
248.766	168.96
248.983	54.27
249.2	-9.22
249.417	31.74
249.633	-23.55
249.85	74.75
250.067	-48.13
250.284	52.22
250.501	15.36
250.717	60.42
250.934	-70.65
251.151	7.17
251.368	21.5
251.585	66.56
251.801	125.95
252.018	-23.55
252.235	95.23
252.451	-35.84
252.668	-87.04
252.885	50.18
253.102	35.84
253.318	29.7
253.535	21.5
253.752	1.02
253.968	25.6
254.185	-5.12
254.401	-11.26
254.618	54.27
254.835	-46.08
255.051	207.87
255.268	66.56
255.484	72.7
255.701	17.41
255.917	113.66
256.134	-27.65
256.351	72.7
256.567	-130.05
256.784	52.22
257	-52.22
257.217	80.89
257.433	78.85
257.65	150.53
257.866	146.43
258.082	-48.13
258.299	-9.22
258.515	199.68
258.732	23.55
258.948	27.65
259.165	46.08
259.381	-103.42
259.597	52.22
259.814	-23.55
260.03	48.13
260.246	-39.94
260.463	107.52
260.679	146.43
260.895	70.65
261.112	74.75
261.328	-52.22
261.544	13.31
261.761	191.49
261.977	-41.98
262.193	-29.7
262.409	101.37
262.626	29.7
262.842	37.89
263.058	15.36
263.274	87.04
263.49	87.04
263.707	93.18
263.923	191.49
264.139	-70.65
264.355	87.04
264.571	109.57
264.787	35.84
265.004	72.7
265.22	105.47
265.436	-27.65
265.652	-39.94
265.868	23.55
266.084	-72.7
266.3	-11.26
266.516	-111.61
266.732	41.98
266.948	39.94
267.164	13.31
267.38	101.37
267.596	68.61
267.812	144.38
268.028	68.61
268.244	-31.74
268.46	101.37
268.676	46.08
268.892	48.13
269.108	-89.09
269.324	-31.74
269.54	-27.65
269.756	76.8
269.972	-19.46
270.188	-7.17
270.403	-44.03
270.619	9.22
270.835	82.94
271.051	7.17
271.267	-39.94
271.483	-19.46
271.698	117.76
271.914	148.48
272.13	-9.22
272.346	-17.41
272.562	87.04
272.777	80.89
272.993	21.5
273.209	46.08
273.425	74.75
273.64	-80.89
273.856	87.04
274.072	17.41
274.287	48.13
274.503	95.23
274.719	48.13
274.934	-33.79
275.15	23.55
275.366	23.55
275.581	-35.84
275.797	80.89
276.012	33.79
276.228	-21.5
276.444	23.55
276.659	89.09
276.875	-27.65
277.09	68.61
277.306	-1.02
277.521	29.7
277.737	-41.98
277.952	105.47
278.168	9.22
278.383	-17.41
278.599	-25.6
278.814	46.08
279.03	37.89
279.245	60.42
279.461	50.18
279.676	93.18
279.892	-29.7
280.107	-25.6
280.322	-60.42
280.538	111.61
280.753	9.22
280.969	84.99
281.184	25.6
281.399	101.37
281.615	-58.37
281.83	-17.41
282.045	-56.32
282.26	-50.18
282.476	-23.55
282.691	76.8
282.906	54.27
283.122	70.65
283.337	-41.98
283.552	-13.31
283.767	-60.42
283.983	166.91
284.198	-15.36
284.413	13.31
284.628	-50.18
284.843	-11.26
285.058	44.03
285.274	50.18
285.489	-27.65
285.704	70.65
285.919	-23.55
286.134	-46.08
286.349	48.13
286.564	-25.6
286.779	191.49
286.995	101.37
287.21	-44.03
287.425	-9.22
287.64	-1.02
287.855	121.85
288.07	-35.84
288.285	130.05
288.5	84.99
288.715	64.51
288.93	87.04
289.145	33.79
289.36	68.61
289.575	48.13
289.79	41.98
290.004	-89.09
290.219	171.01
290.434	7.17
290.649	11.26
290.864	17.41
291.079	25.6
291.294	101.37
291.509	105.47
291.724	1.02
291.938	-7.17
292.153	25.6
292.368	-27.65
292.583	-23.55
292.798	125.95
293.012	19.46
293.227	113.66
293.442	-56.32
293.657	66.56
293.871	82.94
294.086	78.85
294.301	185.34
294.516	123.9
294.73	41.98
294.945	-11.26
295.16	78.85
295.374	166.91
295.589	103.42
295.804	-54.27
296.018	99.33
296.233	56.32
296.447	150.53
296.662	-37.89
296.877	138.24
297.091	95.23
297.306	-78.85
297.52	9.22
297.735	95.23
297.949	25.6
298.164	21.5
298.378	56.32
298.593	-97.28
298.807	9.22
299.022	74.75
299.236	134.14
299.451	19.46
299.665	9.22
299.88	41.98
300.094	70.65
300.309	64.51
300.523	58.37
300.737	-35.84
300.952	27.65
301.166	39.94
301.381	-87.04
301.595	-9.22
301.809	5.12
302.024	-33.79
302.238	35.84
302.452	91.13
302.667	72.7
302.881	107.52
303.095	54.27
303.309	66.56
303.524	-29.7
303.738	19.46
303.952	-56.32
304.166	87.04
304.381	-119.81
304.595	144.38
304.809	-84.99
305.023	144.38
305.237	-5.12
305.452	-72.7
305.666	78.85
305.88	13.31
306.094	39.94
306.308	25.6
306.522	29.7
306.736	76.8
306.95	111.61
307.164	-25.6
307.379	-37.89
307.593	164.86
307.807	95.23
308.021	121.85
308.235	125.95
308.449	48.13
308.663	17.41
308.877	240.64
309.091	15.36
309.305	60.42
309.519	-72.7
309.733	97.28
309.947	37.89
310.161	15.36
310.374	103.42
310.588	66.56
310.802	-64.51
311.016	23.55
311.23	76.8
311.444	-37.89
311.658	21.5
311.872	80.89
312.085	70.65
312.299	130.05
312.513	99.33
312.727	78.85
312.941	25.6
313.154	7.17
313.368	89.09
313.582	41.98
313.796	19.46
314.009	13.31
314.223	123.9
314.437	121.85
314.651	103.42
314.864	3.07
315.078	-11.26
315.292	-60.42
315.505	29.7
315.719	76.8
315.933	68.61
316.146	-3.07
316.36	-44.03
316.573	146.43
316.787	121.85
317.001	160.77
317.214	-13.31
317.428	99.33
317.641	-101.37
317.855	15.36
318.068	64.51
318.282	111.61
318.495	254.97
318.709	54.27
318.922	19.46
319.136	97.28
319.349	101.37
319.563	21.5
319.776	31.74
319.99	-13.31
320.203	46.08
320.417	66.56
320.63	5.12
320.843	152.57
321.057	72.7
321.27	13.31
321.483	140.29
321.697	87.04
321.91	29.7
322.124	78.85
322.337	113.66
322.55	-5.12
322.763	80.89
322.977	23.55
323.19	-35.84
323.403	29.7
323.617	91.13
323.83	105.47
324.043	35.84
324.256	68.61
324.469	-56.32
324.683	52.22
324.896	-23.55
325.109	21.5
325.322	-97.28
325.535	66.56
325.748	107.52
325.962	-5.12
326.175	21.5
326.388	39.94
326.601	177.15
326.814	46.08
327.027	17.41
327.24	142.33
327.453	-80.89
327.666	78.85
327.879	168.96
328.092	29.7
328.305	68.61
328.518	11.26
328.731	-15.36
328.944	48.13
329.157	23.55
329.37	31.74
329.583	216.06
329.796	46.08
330.009	-72.7
330.222	117.76
330.435	68.61
330.648	78.85
330.861	82.94
331.073	46.08
331.286	105.47
331.499	87.04
331.712	-21.5
331.925	52.22
332.138	91.13
332.35	91.13
332.563	-27.65
332.776	72.7
332.989	-68.61
333.202	44.03
333.414	9.22
333.627	64.51
333.84	-33.79
334.053	-7.17
334.265	-46.08
334.478	-56.32
334.691	11.26
334.903	-29.7
335.116	21.5
335.329	70.65
335.541	109.57
335.754	207.87
335.966	-50.18
336.179	-35.84
336.392	11.26
336.604	78.85
336.817	103.42
337.029	48.13
337.242	-7.17
337.454	72.7
337.667	15.36
337.88	87.04
338.092	93.18
338.305	91.13
338.517	1.02
338.729	134.14
338.942	58.37
339.154	3.07
339.367	1.02
339.579	97.28
339.792	-142.33
340.004	74.75
340.217	-27.65
340.429	72.7
340.641	-25.6
340.854	44.03
341.066	87.04
341.278	121.85
341.491	138.24
341.703	64.51
341.915	-46.08
342.128	117.76
342.34	70.65
342.552	-60.42
342.764	70.65
342.977	17.41
343.189	17.41
343.401	74.75
343.613	-19.46
343.826	7.17
344.038	-31.74
344.25	35.84
344.462	-37.89
344.674	68.61
344.886	50.18
345.099	64.51
345.311	56.32
345.523	31.74
345.735	-25.6
345.947	37.89
346.159	91.13
346.371	76.8
346.583	-29.7
346.795	211.96
347.007	101.37
347.219	99.33
347.431	33.79
347.643	82.94
347.855	13.31
348.067	121.85
348.279	-27.65
348.491	-31.74
348.703	117.76
348.915	-19.46
349.127	9.22
349.339	11.26
349.551	46.08
349.763	56.32
349.975	76.8
350.187	76.8
350.399	128
350.61	76.8
350.822	5.12
351.034	56.32
351.246	60.42
351.458	11.26
351.669	95.23
351.881	99.33
352.093	136.19
352.305	70.65
352.517	84.99
352.728	107.52
352.94	-9.22
353.152	87.04
353.363	-27.65
353.575	76.8
353.787	226.3
353.999	132.09
354.21	111.61
354.422	-41.98
354.633	-11.26
354.845	3.07
355.057	46.08
355.268	23.55
355.48	136.19
355.692	-17.41
355.903	37.89
356.115	13.31
356.326	-128
356.538	152.57
356.749	72.7
356.961	119.81
357.172	-9.22
357.384	-68.61
357.595	171.01
357.807	-13.31
358.018	1.02
358.23	23.55
358.441	109.57
358.653	35.84
358.864	72.7
359.075	-9.22
359.287	103.42
359.498	82.94
359.709	109.57
359.921	9.22
360.132	5.12
360.344	48.13
360.555	5.12
360.766	54.27
360.977	44.03
361.189	150.53
361.4	33.79
361.611	84.99
361.823	87.04
362.034	95.23
362.245	39.94
362.456	-5.12
362.667	84.99
362.879	1.02
363.09	31.74
363.301	87.04
363.512	48.13
363.723	25.6
363.935	7.17
364.146	197.63
364.357	123.9
364.568	52.22
364.779	19.46
364.99	128
365.201	-37.89
365.412	101.37
365.623	9.22
365.834	87.04
366.045	9.22
366.256	76.8
366.467	130.05
366.678	-1.02
366.889	80.89
367.1	-35.84
367.311	107.52
367.522	-13.31
367.733	31.74
367.944	68.61
368.155	-48.13
368.366	97.28
368.577	76.8
368.788	105.47
368.999	19.46
369.209	31.74
369.42	179.2
369.631	214.01
369.842	121.85
370.053	23.55
370.264	105.47
370.474	19.46
370.685	33.79
370.896	111.61
371.107	91.13
371.317	19.46
371.528	58.37
371.739	166.91
371.95	-17.41
372.16	62.46
372.371	-82.94
372.582	58.37
372.792	62.46
373.003	64.51
373.214	64.51
373.424	74.75
373.635	1.02
373.846	136.19
374.056	62.46
374.267	103.42
374.477	62.46
374.688	54.27
374.898	60.42
375.109	19.46
375.319	91.13
375.53	164.86
375.74	68.61
375.951	37.89
376.161	125.95
376.372	68.61
376.582	-9.22
376.793	66.56
377.003	-74.75
377.214	9.22
377.424	109.57
377.635	-29.7
377.845	1.02
378.055	142.33
378.266	-23.55
378.476	39.94
378.686	7.17
378.897	31.74
379.107	107.52
379.317	60.42
379.528	5.12
379.738	84.99
379.948	-29.7
380.158	27.65
380.369	23.55
380.579	84.99
380.789	64.51
380.999	39.94
381.21	183.29
381.42	205.82
381.63	54.27
381.84	154.62
382.05	119.81
382.261	117.76
382.471	97.28
382.681	-17.41
382.891	146.43
383.101	5.12
383.311	-7.17
383.521	37.89
383.731	105.47
383.941	70.65
384.151	25.6
384.361	29.7
384.571	125.95
384.781	74.75
384.991	189.44
385.201	211.96
385.411	60.42
385.621	31.74
385.831	21.5
386.041	19.46
386.251	17.41
386.461	41.98
386.671	-23.55
386.881	35.84
387.091	-5.12
387.301	123.9
387.511	68.61
387.72	19.46
387.93	87.04
388.14	-91.13
388.35	72.7
388.56	199.68
388.769	179.2
388.979	-11.26
389.189	7.17
389.399	-39.94
389.609	25.6
389.818	123.9
390.028	150.53
390.238	41.98
390.447	19.46
390.657	39.94
390.867	33.79
391.076	-128
391.286	17.41
391.496	-62.46
391.705	23.55
391.915	123.9
392.125	144.38
392.334	5.12
392.544	160.77
392.753	-13.31
392.963	-54.27
393.172	11.26
393.382	-78.85
393.591	164.86
393.801	-27.65
394.01	201.72
394.22	128
394.429	-56.32
394.639	56.32
394.848	89.09
395.058	70.65
395.267	-95.23
395.477	128
395.686	29.7
395.895	220.16
396.105	168.96
396.314	29.7
396.524	29.7
396.733	39.94
396.942	82.94
397.152	80.89
397.361	138.24
397.57	89.09
397.78	66.56
397.989	130.05
398.198	226.3
398.407	60.42
398.617	11.26
398.826	78.85
399.035	29.7
399.244	136.19
399.453	11.26
399.663	93.18
399.872	39.94
400.081	-66.56
400.29	156.67
400.499	-31.74
400.708	164.86
400.917	37.89
401.127	13.31
401.336	-37.89
401.545	179.2
401.754	144.38
401.963	95.23
402.172	25.6
402.381	-80.89
402.59	84.99
402.799	27.65
403.008	148.48
403.217	21.5
403.426	33.79
403.635	-101.37
403.844	41.98
404.053	89.09
404.262	9.22
404.471	179.2
404.68	60.42
404.888	25.6
405.097	97.28
405.306	29.7
405.515	31.74
405.724	-3.07
405.933	144.38
406.142	44.03
406.35	152.57
406.559	7.17
406.768	54.27
406.977	179.2
407.185	48.13
407.394	128
407.603	-52.22
407.812	60.42
408.02	166.91
408.229	5.12
408.438	3.07
408.646	-68.61
408.855	78.85
409.064	111.61
409.272	-3.07
409.481	35.84
409.69	-21.5
409.898	-60.42
410.107	52.22
410.315	111.61
410.524	27.65
410.733	78.85
410.941	9.22
411.15	117.76
411.358	101.37
411.567	111.61
411.775	-3.07
411.984	15.36
412.192	111.61
412.401	-11.26
412.609	119.81
412.818	168.96
413.026	95.23
413.234	-11.26
413.443	76.8
413.651	27.65
413.86	-27.65
414.068	99.33
414.276	177.15
414.485	66.56
414.693	228.35
414.901	195.58
415.11	25.6
415.318	70.65
415.526	78.85
415.734	130.05
415.943	50.18
416.151	58.37
416.359	70.65
416.567	72.7
416.776	164.86
416.984	113.66
417.192	222.2
417.4	56.32
417.608	13.31
417.817	29.7
418.025	82.94
418.233	128
418.441	5.12
418.649	-46.08
418.857	99.33
419.065	121.85
419.273	-68.61
419.481	78.85
419.689	60.42
419.897	-17.41
420.105	-9.22
420.313	150.53
420.521	80.89
420.729	152.57
420.937	17.41
421.145	-48.13
421.353	82.94
421.561	52.22
421.769	56.32
421.977	39.94
422.185	115.71
422.393	82.94
422.601	117.76
422.809	121.85
423.017	91.13
423.224	95.23
423.432	113.66
423.64	27.65
423.848	154.62
424.056	37.89
424.263	152.57
424.471	48.13
424.679	187.39
424.887	7.17
425.094	224.25
425.302	107.52
425.51	-15.36
425.718	197.63
425.925	68.61
426.133	19.46
426.341	168.96
426.548	21.5
426.756	68.61
426.964	99.33
427.171	7.17
427.379	128
427.586	-15.36
427.794	39.94
428.001	136.19
428.209	48.13
428.417	216.06
428.624	107.52
428.832	74.75
429.039	111.61
429.247	54.27
429.454	160.77
429.662	207.87
429.869	70.65
430.076	138.24
430.284	177.15
430.491	199.68
430.699	156.67
430.906	191.49
431.114	128
431.321	156.67
431.528	95.23
431.736	125.95
431.943	185.34
432.15	166.91
432.358	199.68
432.565	277.5
432.772	7.17
432.979	132.09
433.187	171.01
433.394	238.59
433.601	158.72
433.808	254.97
434.016	343.03
434.223	291.84
434.43	187.39
434.637	230.4
434.844	283.64
435.052	203.77
435.259	220.16
435.466	320.51
435.673	246.78
435.88	252.92
436.087	326.65
436.294	287.74
436.501	336.89
436.708	236.54
436.915	304.12
437.122	326.65
437.329	244.73
437.537	318.46
437.743	357.37
437.95	408.57
438.157	449.53
438.364	381.95
438.571	369.66
438.778	521.21
438.985	502.78
439.192	465.91
439.399	404.47
439.606	461.82
439.813	558.07
440.02	553.98
440.227	594.93
440.433	560.12
440.64	586.74
440.847	500.73
441.054	525.3
441.261	791.54
441.467	568.31
441.674	658.42
441.881	764.92
442.088	658.42
442.294	783.35
442.501	744.44
442.708	875.51
442.914	844.79
443.121	957.43
443.328	879.6
443.534	1020.91
443.741	922.61
443.948	791.54
444.154	1070.06
444.361	1072.11
444.568	1070.06
444.774	1055.73
444.981	1055.73
445.187	1299.44
445.394	1260.52
445.6	1285.1
445.807	1324.01
446.013	1348.59
446.22	1260.52
446.426	1434.6
446.633	1557.48
446.839	1762.28
447.046	1543.14
447.252	1706.98
447.459	1684.45
447.665	1711.08
447.871	1893.35
448.078	2137.06
448.284	1817.57
448.491	2034.66
448.697	2112.48
448.903	2139.1
449.11	2247.65
449.316	2214.88
449.522	2507.74
449.728	2550.75
449.935	2585.56
450.141	2722.77
450.347	2720.73
450.553	2708.44
450.76	2843.6
450.966	3134.42
451.172	3029.97
451.378	3277.77
451.584	3255.25
451.791	3584.97
451.997	3587.02
452.203	3695.56
452.409	3965.89
452.615	4072.39
452.821	3763.14
453.027	3926.98
453.233	4594.62
453.44	4279.23
453.646	4662.2
453.852	4676.54
454.058	4996.02
454.264	5067.7
454.47	5559.21
454.676	5542.83
454.882	5956.52
455.088	5587.88
455.294	6032.29
455.5	6353.82
455.705	6820.76
455.911	6738.84
456.117	6945.69
456.323	7130
456.529	7295.89
456.735	7879.56
456.941	8086.4
457.147	8240
457.352	8338.3
457.558	8725.37
457.764	9272.18
457.97	9503.6
458.176	10228.58
458.381	10543.97
458.587	10498.91
458.793	11242.32
458.999	11436.88
459.204	12776.25
459.41	13157.18
459.616	12915.51
459.821	13665.07
460.027	14228.26
460.233	14914.33
460.438	14879.52
460.644	15952.65
460.85	15768.34
461.055	16614.15
461.261	17494.77
461.466	17107.71
461.672	17302.26
461.878	19614.42
462.083	18873.06
462.289	19659.48
462.494	20144.84
462.7	20603.59
462.905	20697.8
463.111	22254.25
463.316	23906.96
463.522	23962.26
463.727	24449.67
463.932	25707.13
464.138	26286.7
464.343	27230.82
464.549	27755.1
464.754	29233.73
464.959	30411.31
465.165	30872.1
465.37	30720.56
465.575	30769.71
465.781	32815.63
465.986	33737.21
466.191	33174.02
466.397	33583.62
466.602	32789
466.807	34701.81
467.012	35430.88
467.218	35482.08
467.423	35770.85
467.628	36970.96
467.833	38828.46
468.038	37847.49
468.244	37474.76
468.449	38953.39
468.654	38502.84
468.859	38437.3
469.064	38523.32
469.269	37466.56
469.474	38156.73
469.679	38943.15
469.885	37796.29
470.09	38549.94
470.295	38764.98
470.5	37695.94
470.705	38095.29
470.91	36839.89
471.115	36387.28
471.32	37177.8
471.525	37038.54
471.73	35901.92
471.935	35445.22
472.139	34331.12
472.344	34445.81
472.549	34224.63
472.754	33972.73
472.959	32856.59
473.164	31244.84
473.369	31388.19
473.574	32133.65
473.778	31302.18
473.983	30837.29
474.188	30140.98
474.393	28861
474.598	28844.62
474.802	28217.94
475.007	28039.76
475.212	27751
475.417	26602.09
475.621	26264.18
475.826	26204.78
476.031	25584.25
476.235	25184.9
476.44	25180.8
476.645	24025.75
476.849	23999.12
477.054	23603.86
477.259	23016.1
477.463	23263.9
477.668	22098.61
477.872	22352.55
478.077	21473.98
478.282	21224.12
478.486	20908.74
478.691	20390.6
478.895	20341.45
479.1	20425.42
479.304	20116.17
479.509	19571.41
479.713	19698.39
479.918	19292.89
480.122	19151.58
480.326	19110.62
480.531	18885.34
480.735	18981.6
480.94	18383.59
481.144	19131.1
481.348	18037.48
481.553	18510.57
481.757	17611.51
481.961	17877.74
482.166	17984.24
482.37	17783.54
482.574	17083.13
482.778	17500.92
482.983	17525.49
483.187	17402.61
483.391	17105.66
483.595	16816.9
483.8	16624.39
484.004	16798.46
484.208	16659.2
484.412	16345.86
484.616	16401.16
484.821	16147.21
485.025	15469.33
485.229	15547.15
485.433	15444.76
485.637	15104.79
485.841	14914.33
486.045	14811.93
486.249	14676.77
486.453	14396.2
486.657	14349.09
486.861	14056.23
487.065	13798.19
487.269	13351.73
487.473	12952.38
487.677	13452.08
487.881	13108.02
488.085	12778.3
488.289	12798.78
488.493	12340.04
488.697	12413.76
488.901	12098.38
489.105	11678.54
489.309	11735.88
489.512	11522.9
489.716	11287.38
489.92	11066.2
490.124	10648.41
490.328	10742.62
490.531	10312.55
490.735	10441.57
490.939	10093.41
491.143	9775.98
491.346	9755.5
491.55	9700.2
491.754	9399.15
491.958	9364.34
492.161	8956.79
492.365	9051
492.569	8729.47
492.772	8686.46
492.976	8706.94
493.18	8432.51
493.383	8598.4
493.587	8432.51
493.79	8166.28
493.994	7959.43
494.197	8004.49
494.401	7953.29
494.605	7875.46
494.808	7908.23
495.012	7908.23
495.215	7910.28
495.419	7840.65
495.622	7490.45
495.825	7660.43
496.029	7429.01
496.232	7713.67
496.436	7361.42
496.639	7560.08
496.843	7312.27
497.046	7463.82
497.249	7736.2
497.453	7349.14
497.656	7381.9
497.859	7431.05
498.063	7394.19
498.266	7701.39
498.469	7441.29
498.673	7455.63
498.876	7576.46
499.079	7687.05
499.282	7467.92
499.485	8045.45
499.689	7670.67
499.892	7818.12
500.095	7781.26
500.298	7943.05
500.501	7738.25
500.705	7979.91
500.908	8135.56
501.111	8078.21
501.314	8219.52
501.517	8328.06
501.72	8350.59
501.923	8391.55
502.126	8512.38
502.329	8571.77
502.532	8723.32
502.735	8899.45
502.938	8944.5
503.141	8956.79
503.344	8825.72
503.547	9165.68
503.75	9274.23
503.953	9259.89
504.156	9628.53
504.359	9724.78
504.562	9845.61
504.765	10183.52
504.968	10081.13
505.17	10460
505.373	10384.23
505.576	10941.27
505.779	10861.4
505.982	10818.39
506.185	11225.94
506.387	11367.25
506.59	11514.7
506.793	11807.56
506.996	11887.43
507.198	12409.67
507.401	12510.02
507.604	12694.33
507.807	12929.85
508.009	13321.01
508.212	13519.67
508.415	13859.63
508.617	14005.03
508.82	14185.26
509.022	14240.55
509.225	14904.09
509.428	15166.23
509.63	15323.93
509.833	15672.08
510.035	16337.67
510.238	16182.03
510.44	16806.66
510.643	17093.37
510.845	17746.67
511.048	17715.95
511.25	18307.82
511.453	18438.89
511.655	19256.03
511.858	19466.97
512.06	20228.81
512.262	20579.01
512.465	20583.11
512.667	21379.77
512.87	21863.09
513.072	22129.33
513.274	22821.54
513.477	23169.69
513.679	23974.55
513.881	24234.64
514.084	24861.32
514.286	25358.97
514.488	25991.8
514.69	26688.1
514.893	27316.83
515.095	27707.99
515.297	28545.61
515.499	28650.06
515.701	29694.52
515.904	30059.06
516.106	31062.57
516.308	31314.47
516.51	32170.52
516.712	32315.92
516.914	33356.29
517.116	34548.21
517.318	34206.2
517.52	35060.2
517.722	35883.48
517.925	36633.04
518.127	37325.25
518.329	37734.85
518.531	38070.72
518.733	38984.11
518.935	40098.2
519.136	40094.11
519.338	41005.45
519.54	41347.47
519.742	42250.62
519.944	42652.02
520.146	43372.91
520.348	44046.69
520.55	44687.7
520.752	44759.38
520.954	46016.83
521.155	46135.62
521.357	46651.7
521.559	47593.77
521.761	48466.2
521.963	48298.27
522.164	48732.44
522.366	48990.48
522.568	49858.82
522.77	49809.67
522.971	51009.78
523.173	50381.06
523.375	51276.02
523.576	50938.1
523.778	51347.7
523.98	51874.02
524.181	51779.82
524.383	52254.95
524.584	52451.55
524.786	52611.29
524.988	52496.61
525.189	53145.81
525.391	53053.65
525.592	53096.66
525.794	52967.64
525.995	53250.26
526.197	53076.18
526.398	52979.93
526.6	53078.23
526.801	52893.91
527.003	53020.89
527.204	52418.78
527.406	53158.1
527.607	52105.44
527.808	52728.03
528.01	51239.15
528.211	51261.68
528.412	51818.73
528.614	51020.02
528.815	51140.85
529.016	51050.74
529.218	49754.38
529.419	49903.88
529.62	49443.09
529.822	49035.54
530.023	48511.26
530.224	48146.72
530.425	47962.4
530.626	46680.38
530.828	46242.11
531.029	47167.79
531.23	45795.65
531.431	45435.21
531.632	45197.65
531.833	44683.61
532.035	43702.63
532.236	43170.16
532.437	43331.95
532.638	42242.43
532.839	42199.42
533.04	41419.14
533.241	41027.98
533.442	41013.65
533.643	39797.15
533.844	39328.17
534.045	39158.19
534.246	38181.31
534.447	38285.75
534.648	37087.69
534.849	36719.06
535.05	36182.49
535.251	35877.34
535.451	35420.64
535.652	34898.41
535.853	34785.77
536.054	34327.03
536.255	33765.88
536.456	32944.65
536.657	33266.18
536.857	32432.66
537.058	31699.48
537.259	31765.02
537.46	31177.25
537.66	30708.27
537.861	30552.62
538.062	29758.01
538.263	29592.12
538.463	29071.94
538.664	28734.03
538.865	28570.19
539.065	28086.87
539.266	27705.95
539.466	27349.6
539.667	26917.48
539.868	27120.23
540.068	26159.73
540.269	26378.86
540.469	25889.4
540.67	25416.32
540.87	25164.42
541.071	24701.58
541.271	24568.46
541.472	24263.31
541.672	24171.15
541.873	23581.34
542.073	23198.37
542.274	23366.3
542.474	23046.82
542.675	22637.22
542.875	22506.15
543.075	22063.79
543.276	21783.22
543.476	21916.34
543.676	21369.53
543.877	21332.67
544.077	20961.98
544.277	20998.85
544.478	20513.48
544.678	20298.44
544.878	20220.62
545.078	20042.45
545.279	19364.57
545.479	19202.78
545.679	19305.18
545.879	19002.08
546.079	18989.79
546.28	18324.2
546.48	18234.09
546.68	18500.33
546.88	18049.77
547.08	17674.99
547.28	17476.34
547.48	17173.24
547.68	17308.41
547.88	16884.48
548.081	16737.02
548.281	16464.64
548.481	16405.25
548.681	16507.65
548.881	15739.66
549.081	15696.66
549.28	15514.39
549.48	15373.08
549.68	15207.19
549.88	15063.83
550.08	14496.55
550.28	14635.81
550.48	14316.33
550.68	14105.38
550.88	13876.01
551.08	13775.66
551.279	13675.31
551.479	13476.66
551.679	13304.63
551.879	12880.7
552.079	12829.5
552.278	12559.17
552.478	12532.54
552.678	12026.7
552.878	11983.69
553.077	11844.43
553.277	11637.58
553.477	11936.59
553.676	11414.35
553.876	11053.91
554.076	10945.37
554.275	10726.24
554.475	10496.86
554.674	10552.16
554.874	10404.71
555.074	9921.38
555.273	10185.57
555.473	9753.45
555.672	9425.78
555.872	9481.07
556.071	9331.57
556.271	9466.74
556.47	9085.81
556.67	8737.66
556.869	8778.62
557.068	8616.83
557.268	8401.79
557.467	8461.18
557.667	8178.56
557.866	7840.65
558.065	7859.08
558.265	7820.17
558.464	7482.25
558.663	7506.83
558.863	7500.69
559.062	7308.18
559.261	7203.73
559.461	7228.31
559.66	6935.45
559.859	6808.47
560.058	6773.66
560.258	6579.1
560.457	6509.47
560.656	6572.96
560.855	6189.99
561.054	6241.18
561.253	6337.44
561.453	6011.81
561.652	5956.52
561.851	5985.19
562.05	5563.31
562.249	5573.55
562.448	5626.79
562.647	5534.64
562.846	5252.02
563.045	5215.15
563.244	5159.86
563.443	5247.92
563.642	5219.25
563.841	4993.97
564.04	4975.54
564.239	4979.64
564.438	4778.94
564.637	4791.22
564.836	4645.82
565.035	4604.86
565.234	4541.37
565.432	4545.47
565.631	4518.84
565.83	4334.53
566.029	4393.92
566.228	4146.11
566.427	4135.87
566.625	4008.9
566.824	4158.4
567.023	3980.23
567.222	3912.64
567.42	3890.12
567.619	3830.73
567.818	3619.78
568.016	3926.98
568.215	3679.18
568.414	3582.92
568.612	3527.63
568.811	3462.09
569.01	3396.56
569.208	3476.43
569.407	3349.45
569.605	3263.44
569.804	3222.48
570.002	3271.63
570.201	3027.92
570.4	3187.66
570.598	3040.21
570.797	2923.48
570.995	2933.72
571.193	2874.32
571.392	2806.74
571.59	2782.17
571.789	2759.64
571.987	2847.7
572.186	2722.77
572.384	2669.53
572.582	2640.86
572.781	2700.25
572.979	2401.24
573.177	2520.03
573.376	2513.88
573.574	2403.29
573.772	2524.12
573.971	2321.37
574.169	2157.54
574.367	2255.84
574.565	2225.12
574.763	2188.25
574.962	2202.59
575.16	2116.58
575.358	2087.9
575.556	1971.17
575.754	2032.61
575.952	1952.74
576.151	2008.03
576.349	1969.12
576.547	1809.38
576.745	1944.55
576.943	1938.4
577.141	1778.66
577.339	1749.99
577.537	1747.94
577.735	1895.4
577.933	1706.98
578.131	1696.74
578.329	1713.13
578.527	1526.76
578.725	1676.26
578.923	1481.71
579.121	1649.64
579.319	1307.63
579.516	1463.27
579.714	1727.46
579.912	1580.01
580.11	1348.59
580.308	1416.17
580.506	1346.54
580.704	1278.96
580.901	1215.47
581.099	1383.4
581.297	1313.77
581.495	1338.35
581.692	1188.85
581.89	1201.13
582.088	1260.52
582.285	1258.48
582.483	1123.31
582.681	1115.12
582.878	1190.89
583.076	1238
583.274	1141.74
583.471	1197.04
583.669	1022.96
583.866	1072.11
584.064	965.62
584.262	977.91
584.459	953.33
584.657	1022.96
584.854	938.99
585.052	1053.68
585.249	1117.17
585.447	1068.02
585.644	816.12
585.841	1074.16
586.039	984.05
586.236	1025.01
586.434	947.19
586.631	828.4
586.828	855.03
587.026	857.07
587.223	812.02
587.42	785.4
587.618	881.65
587.815	924.66
588.012	789.49
588.21	750.58
588.407	893.94
588.604	861.17
588.801	773.11
588.999	680.95
589.196	783.35
589.393	721.91
589.59	707.57
589.787	842.74
589.984	746.48
590.182	742.39
590.379	777.2
590.576	766.96
590.773	680.95
590.97	609.27
591.167	744.44
591.364	723.96
591.561	650.23
591.758	812.02
591.955	736.24
592.152	631.8
592.349	613.37
592.546	668.66
592.743	691.19
592.94	680.95
593.137	799.73
593.334	670.71
593.531	740.34
593.727	736.24
593.924	730.1
594.121	615.41
594.318	646.13
594.515	760.82
594.712	848.88
594.908	812.02
595.105	547.83
595.302	785.4
595.499	689.14
595.696	836.6
595.892	674.81
596.089	771.06
596.286	769.01
596.482	816.12
596.679	846.84
596.876	801.78
597.072	938.99
597.269	795.64
597.466	875.51
597.662	891.89
597.859	855.03
598.055	994.29
598.252	994.29
598.448	1014.77
598.645	1084.4
598.841	1053.68
599.038	1172.46
599.234	1213.42
599.431	1203.18
599.627	1143.79
599.824	1350.64
600.02	1272.81
600.217	1301.48
600.413	1373.16
600.609	1508.33
600.806	1829.86
601.002	1623.02
601.198	1520.62
601.395	1827.81
601.591	1799.14
601.787	1795.04
601.984	1846.24
602.18	1991.65
602.376	1995.75
602.572	2218.97
602.769	2282.46
602.965	2270.17
603.161	2419.68
603.357	2448.35
603.553	2675.67
603.75	2540.51
603.946	2671.58
604.142	2747.35
604.338	2931.67
604.534	2872.28
604.73	3095.5
604.926	3138.51
605.122	3322.83
605.318	3382.22
605.514	3537.87
605.71	3498.95
605.906	3709.9
606.102	3570.63
606.298	3963.84
606.494	4131.78
606.69	4123.59
606.886	4312
607.082	4289.47
607.278	4596.67
607.474	4502.46
607.67	4668.34
607.866	4705.21
608.062	5071.79
608.257	5065.65
608.453	5112.75
608.649	5372.85
608.845	5434.29
609.041	5700.52
609.236	5796.78
609.432	5989.28
609.628	6269.86
609.824	6192.03
610.019	6429.6
610.215	6771.61
610.411	6964.12
610.606	7158.67
610.802	7060.37
610.998	7347.09
611.193	7510.93
611.389	7625.61
611.584	7844.74
611.78	8080.26
611.976	8260.48
612.171	8891.26
612.367	8600.44
612.562	8926.07
612.758	9233.27
612.953	9352.05
613.149	9829.23
613.344	9952.1
613.539	10156.9
613.735	10132.33
613.93	10607.45
614.126	11004.76
614.321	11383.63
614.517	11449.17
614.712	12084.04
614.907	12004.17
615.103	12493.63
615.298	12462.91
615.493	12712.77
615.688	13216.57
615.884	14025.51
616.079	13865.77
616.274	14498.59
616.47	14734.11
616.665	14900
616.86	15467.28
617.055	15878.93
617.25	16028.43
617.445	16610.05
617.641	16724.74
617.836	17511.16
618.031	17677.04
618.226	18481.89
618.421	18817.76
618.616	19241.69
618.811	19528.41
619.006	20142.8
619.201	20075.21
619.396	20992.7
619.591	21021.38
619.786	21815.99
619.981	21992.11
620.176	22663.85
620.371	22925.99
620.566	23550.62
620.761	23984.79
620.956	24689.29
621.151	24677
621.346	25762.42
621.541	25569.91
621.735	26659.43
621.93	26567.27
622.125	27804.25
622.32	27677.27
622.515	28609.1
622.709	29020.74
622.904	29358.66
623.099	29946.42
623.294	30417.46
623.488	31093.29
623.683	31586.85
623.878	31717.92
624.072	32506.38
624.267	33016.33
624.462	33286.66
624.656	33397.25
624.851	34734.57
625.046	34929.13
625.24	35441.12
625.435	35842.53
625.629	36518.35
625.824	36682.19
626.018	37200.33
626.213	37292.49
626.407	37915.07
626.602	37775.81
626.796	38558.13
626.991	39147.95
627.185	39516.58
627.38	39786.91
627.574	39934.37
627.768	40145.31
627.963	39920.03
628.157	40522.13
628.352	40737.17
628.546	40272.28
628.74	40712.59
628.935	40241.56
629.129	40556.95
629.323	39860.64
629.517	40348.06
629.712	39817.63
629.906	39807.39
630.1	38926.77
630.294	39352.74
630.489	38787.5
630.683	38318.52
630.877	37087.69
631.071	36669.9
631.265	36665.81
631.459	35453.41
631.653	34728.43
631.848	34179.57
632.042	33223.17
632.236	32711.18
632.43	31527.45
632.624	31113.77
632.818	29991.48
633.012	28998.21
633.206	27880.02
633.4	27431.52
633.594	26331.76
633.788	25705.08
633.982	24801.93
634.176	23902.87
634.369	22807.2
634.563	22018.74
634.757	21258.94
634.951	20269.77
635.145	19772.11
635.339	19043.04
635.533	18006.77
635.726	17521.4
635.92	16632.58
636.114	15973.13
636.308	15233.82
636.501	14742.3
636.695	14215.98
636.889	13314.87
637.083	13296.44
637.276	12624.7
637.47	11625.29
637.664	11250.52
637.857	11148.12
638.051	10662.75
638.244	10218.34
638.438	9788.27
638.632	9372.53
638.825	8852.34
639.019	8713.08
639.212	8336.26
639.406	7941
639.599	7586.7
639.793	7363.47
639.986	7021.46
640.18	7105.43
640.373	6448.03
640.567	6316.96
640.76	5981.09
640.954	5876.65
641.147	5559.21
641.34	5436.33
641.534	5237.68
641.727	5102.51
641.92	4852.66
642.114	4613.05
642.307	4430.78
642.5	4248.51
642.694	4060.1
642.887	4012.99
643.08	3906.5
643.273	3746.76
643.467	3599.31
643.66	3349.45
643.853	3247.05
644.046	3242.96
644.239	2984.91
644.432	2876.37
644.626	2696.15
644.819	2581.46
645.012	2702.29
645.205	2479.07
645.398	2460.63
645.591	2386.91
645.784	2135.01
645.977	2069.47
646.17	2069.47
646.363	1840.1
646.556	1885.16
646.749	1747.94
646.942	1709.03
647.135	1780.71
647.328	1516.52
647.521	1692.65
647.714	1377.26
647.907	1518.57
648.099	1358.83
648.292	1440.75
648.485	1430.51
648.678	1139.69
648.871	1162.22
649.064	1174.51
649.256	1004.53
649.449	1104.88
649.642	857.07
649.835	975.86
650.027	846.84
650.22	1006.58
650.413	873.46
650.605	928.75
650.798	744.44
650.991	760.82
651.183	934.9
651.376	795.64
651.568	779.25
651.761	676.85
651.954	699.38
652.146	654.33
652.339	760.82
652.531	697.33
652.724	594.93
652.916	572.41
653.109	535.54
653.301	629.75
653.494	553.98
653.686	523.26
653.879	547.83
654.071	551.93
654.263	427
654.456	470.01
654.648	541.69
654.84	523.26
655.033	420.86
655.225	525.3
655.417	293.88
655.61	482.3
655.802	357.37
655.994	513.02
656.186	287.74
656.379	353.27
656.571	365.56
656.763	351.23
656.955	238.59
657.148	330.75
657.34	429.05
657.532	205.82
657.724	261.12
657.916	295.93
658.108	347.13
658.3	314.36
658.492	277.5
658.684	310.27
658.876	334.84
659.068	166.91
659.26	140.29
659.452	201.72
659.644	291.84
659.836	365.56
660.028	295.93
660.22	224.25
660.412	246.78
660.604	254.97
660.796	222.2
660.988	340.99
661.18	242.68
661.372	332.79
661.563	164.86
661.755	279.55
661.947	121.85
662.139	132.09
662.331	136.19
662.522	209.92
662.714	89.09
662.906	275.45
663.097	203.77
663.289	107.52
663.481	121.85
663.673	289.79
663.864	128
664.056	279.55
664.247	109.57
664.439	281.6
664.631	220.16
664.822	222.2
665.014	177.15
665.205	136.19
665.397	152.57
665.588	105.47
665.78	177.15
665.971	228.35
666.163	121.85
666.354	224.25
666.546	41.98
666.737	142.33
666.929	101.37
667.12	119.81
667.311	152.57
667.503	164.86
667.694	203.77
667.885	195.58
668.077	189.44
668.268	44.03
668.459	140.29
668.651	199.68
668.842	134.14
669.033	89.09
669.224	29.7
669.416	310.27
669.607	125.95
669.798	193.53
669.989	283.64
670.18	162.81
670.371	232.44
670.563	35.84
670.754	289.79
670.945	238.59
671.136	224.25
671.327	95.23
671.518	273.4
671.709	295.93
671.9	173.05
672.091	349.18
672.282	209.92
672.473	179.2
672.664	111.61
672.855	156.67
673.046	105.47
673.237	277.5
673.428	197.63
673.619	250.88
673.809	123.9
674	257.02
674.191	197.63
674.382	97.28
674.573	201.72
674.764	207.87
674.954	269.31
675.145	125.95
675.336	111.61
675.527	214.01
675.717	162.81
675.908	216.06
676.099	228.35
676.289	207.87
676.48	54.27
676.671	259.07
676.861	207.87
677.052	275.45
677.243	271.36
677.433	195.58
677.624	195.58
677.814	324.6
678.005	142.33
678.195	345.08
678.386	187.39
678.576	287.74
678.767	183.29
678.957	226.3
679.148	269.31
679.338	361.47
679.529	257.02
679.719	261.12
679.909	381.95
680.1	232.44
680.29	283.64
680.481	203.77
680.671	308.22
680.861	201.72
681.052	287.74
681.242	232.44
681.432	269.31
681.622	228.35
681.813	173.05
682.003	273.4
682.193	220.16
682.383	250.88
682.573	304.12
682.764	195.58
682.954	314.36
683.144	273.4
683.334	257.02
683.524	293.88
683.714	246.78
683.904	304.12
684.094	336.89
684.284	306.17
684.474	398.33
684.664	418.81
684.854	328.7
685.044	224.25
685.234	230.4
685.424	297.98
685.614	220.16
685.804	447.48
685.994	328.7
686.184	314.36
686.374	254.97
686.564	367.61
686.753	330.75
686.943	201.72
687.133	246.78
687.323	214.01
687.513	295.93
687.702	316.41
687.892	244.73
688.082	279.55
688.272	439.29
688.461	340.99
688.651	420.86
688.841	406.52
689.03	269.31
689.22	322.56
689.41	373.75
689.599	263.16
689.789	228.35
689.979	324.6
690.168	224.25
690.358	414.71
690.547	267.26
690.737	345.08
690.926	293.88
691.116	295.93
691.305	359.42
691.495	394.23
691.684	271.36
691.874	287.74
692.063	330.75
692.252	347.13
692.442	427
692.631	226.3
692.82	332.79
693.01	289.79
693.199	277.5
693.388	310.27
693.578	308.22
693.767	320.51
693.956	330.75
694.146	250.88
694.335	392.19
694.524	257.02
694.713	259.07
694.902	275.45
695.092	234.49
695.281	285.69
695.47	185.34
695.659	166.91
695.848	343.03
696.037	271.36
696.226	336.89
696.415	232.44
696.604	388.09
696.793	283.64
696.982	269.31
697.171	429.05
697.36	248.83
697.549	250.88
697.738	103.42
697.927	293.88
698.116	166.91
698.305	248.83
698.494	267.26
698.683	263.16
698.872	445.43
699.061	224.25
699.25	220.16
699.438	263.16
699.627	246.78
699.816	332.79
700.005	207.87
700.193	179.2
700.382	293.88
700.571	236.54
700.76	263.16
700.948	232.44
701.137	269.31
701.326	295.93
701.514	171.01
701.703	293.88
701.892	226.3
702.08	353.27
702.269	191.49
702.457	148.48
702.646	220.16
702.834	252.92
703.023	261.12
703.212	259.07
703.4	228.35
703.589	209.92
703.777	230.4
703.965	195.58
704.154	291.84
704.342	222.2
704.531	234.49
704.719	261.12
704.907	388.09
705.096	207.87
705.284	158.72
705.472	277.5
705.661	289.79
705.849	267.26
706.037	318.46
706.226	211.96
706.414	279.55
706.602	183.29
706.79	336.89
706.979	123.9
707.167	267.26
707.355	101.37
707.543	265.21
707.731	265.21
707.919	175.1
708.107	281.6
708.296	99.33
708.484	164.86
708.672	273.4
708.86	211.96
709.048	263.16
709.236	218.11
709.424	359.42
709.612	285.69
709.8	203.77
709.988	228.35
710.176	164.86
710.364	371.71
710.551	234.49
710.739	216.06
710.927	224.25
711.115	265.21
711.303	263.16
711.491	300.03
711.679	187.39
711.866	240.64
712.054	259.07
712.242	304.12
712.43	336.89
712.617	193.53
712.805	312.32
712.993	164.86
713.181	115.71
713.368	347.13
713.556	218.11
713.744	211.96
713.931	461.82
714.119	308.22
714.306	168.96
714.494	246.78
714.682	234.49
714.869	191.49
715.057	187.39
715.244	197.63
715.432	207.87
715.619	197.63
715.807	287.74
715.994	201.72
716.182	216.06
716.369	297.98
716.556	297.98
716.744	107.52
716.931	150.53
717.119	287.74
717.306	234.49
717.493	283.64
717.681	173.05
717.868	238.59
718.055	351.23
718.242	207.87
718.43	173.05
718.617	363.51
718.804	201.72
718.991	361.47
719.179	281.6
719.366	209.92
719.553	291.84
719.74	234.49
719.927	232.44
720.114	271.36
720.301	152.57
720.488	179.2
720.676	218.11
720.863	338.94
721.05	369.66
721.237	277.5
721.424	275.45
721.611	293.88
721.798	267.26
721.985	271.36
722.172	252.92
722.358	318.46
722.545	302.08
722.732	271.36
722.919	316.41
723.106	314.36
723.293	289.79
723.48	359.42
723.667	177.15
723.853	347.13
724.04	347.13
724.227	367.61
724.414	265.21
724.6	324.6
724.787	404.47
724.974	439.29
725.161	263.16
725.347	252.92
725.534	287.74
725.72	332.79
725.907	289.79
726.094	254.97
726.28	222.2
726.467	322.56
726.653	205.82
726.84	381.95
727.027	410.62
727.213	351.23
727.4	318.46
727.586	240.64
727.773	207.87
727.959	332.79
728.145	240.64
728.332	326.65
728.518	314.36
728.705	388.09
728.891	279.55
729.077	310.27
729.264	209.92
729.45	400.38
729.636	394.23
729.823	355.32
730.009	336.89
730.195	306.17
730.382	300.03
730.568	226.3
730.754	334.84
730.94	222.2
731.126	365.56
731.313	314.36
731.499	285.69
731.685	412.67
731.871	318.46
732.057	230.4
732.243	408.57
732.429	240.64
732.615	420.86
732.801	197.63
732.987	353.27
733.173	271.36
733.359	308.22
733.545	383.99
733.731	326.65
733.917	398.33
734.103	318.46
734.289	287.74
734.475	306.17
734.661	427
734.847	318.46
735.033	306.17
735.219	400.38
735.404	259.07
735.59	297.98
735.776	209.92
735.962	353.27
736.148	396.28
736.333	390.14
736.519	289.79
736.705	242.68
736.89	293.88
737.076	394.23
737.262	183.29
737.447	115.71
737.633	320.51
737.819	439.29
738.004	273.4
738.19	334.84
738.375	275.45
738.561	357.37
738.747	228.35
738.932	279.55
739.118	480.25
739.303	377.85
739.489	424.95
739.674	293.88
739.859	259.07
740.045	353.27
740.23	259.07
740.416	193.53
740.601	300.03
740.786	295.93
740.972	269.31
741.157	244.73
741.342	250.88
741.528	261.12
741.713	394.23
741.898	377.85
742.084	297.98
742.269	281.6
742.454	373.75
742.639	320.51
742.824	252.92
743.01	390.14
743.195	420.86
743.38	310.27
743.565	228.35
743.75	248.83
743.935	328.7
744.12	420.86
744.305	214.01
744.49	277.5
744.675	248.83
744.86	259.07
745.045	324.6
745.23	363.51
745.415	297.98
745.6	433.15
745.785	257.02
745.97	343.03
746.155	281.6
746.34	347.13
746.525	289.79
746.71	388.09
746.895	162.81
747.079	248.83
747.264	240.64
747.449	283.64
747.634	283.64
747.819	269.31
748.003	302.08
748.188	195.58
748.373	332.79
748.557	302.08
748.742	312.32
748.927	248.83
749.111	193.53
749.296	244.73
749.481	359.42
749.665	234.49
749.85	144.38
750.034	320.51
750.219	234.49
750.404	207.87
750.588	326.65
750.773	168.96
750.957	250.88
751.141	195.58
751.326	281.6
751.51	230.4
751.695	191.49
751.879	154.62
752.064	459.77
752.248	220.16
752.432	345.08
752.617	267.26
752.801	340.99
752.985	162.81
753.17	332.79
753.354	234.49
753.538	238.59
753.722	242.68
753.907	158.72
754.091	111.61
754.275	285.69
754.459	91.13
754.643	162.81
754.828	203.77
755.012	205.82
755.196	103.42
755.38	228.35
755.564	130.05
755.748	216.06
755.932	263.16
756.116	203.77
756.3	244.73
756.484	160.77
756.668	254.97
756.852	123.9
757.036	156.67
757.22	171.01
757.404	138.24
757.588	164.86
757.772	193.53
757.956	119.81
758.14	347.13
758.323	97.28
758.507	162.81
758.691	158.72
758.875	193.53
759.059	285.69
759.242	87.04
759.426	150.53
759.61	142.33
759.794	160.77
759.977	326.65
760.161	363.51
760.345	252.92
760.528	171.01
760.712	177.15
760.895	173.05
761.079	158.72
761.263	87.04
761.446	105.47
761.63	164.86
761.813	158.72
761.997	64.51
762.18	168.96
762.364	175.1
762.547	46.08
762.731	99.33
762.914	162.81
763.098	35.84
763.281	101.37
763.464	123.9
763.648	168.96
763.831	95.23
764.015	89.09
764.198	121.85
764.381	44.03
764.564	115.71
764.748	173.05
764.931	115.71
765.114	144.38
765.297	177.15
765.481	78.85
765.664	50.18
765.847	128
766.03	162.81
766.213	41.98
766.397	111.61
766.58	-37.89
766.763	164.86
766.946	76.8
767.129	62.46
767.312	136.19
767.495	175.1
767.678	97.28
767.861	115.71
768.044	160.77
768.227	50.18
768.41	140.29
768.593	146.43
768.776	105.47
768.959	72.7
769.142	187.39
769.324	76.8
769.507	93.18
769.69	97.28
769.873	41.98
770.056	283.64
770.239	113.66
770.421	185.34
770.604	111.61
770.787	121.85
770.97	48.13
771.152	60.42
771.335	132.09
771.518	9.22
771.7	134.14
771.883	236.54
772.066	70.65
772.248	78.85
772.431	128
772.613	119.81
772.796	123.9
772.978	56.32
773.161	246.78
773.343	140.29
773.526	13.31
773.708	58.37
773.891	87.04
774.073	101.37
774.256	56.32
774.438	140.29
774.621	62.46
774.803	95.23
774.985	99.33
775.168	140.29
775.35	5.12
775.532	140.29
775.715	-15.36
775.897	140.29
776.079	60.42
776.261	37.89
776.444	66.56
776.626	76.8
776.808	39.94
776.99	-33.79
777.173	109.57
777.355	50.18
777.537	117.76
777.719	93.18
777.901	29.7
778.083	-15.36
778.265	48.13
778.447	138.24
778.629	-3.07
778.811	64.51
778.993	84.99
779.175	191.49
779.357	80.89
779.539	-13.31
779.721	7.17
779.903	62.46
780.085	60.42
780.267	76.8
780.449	74.75
780.631	99.33
780.812	144.38
780.994	-21.5
781.176	60.42
781.358	9.22
781.54	91.13
781.721	99.33
781.903	56.32
782.085	48.13
782.267	203.77
782.448	-3.07
782.63	27.65
782.812	60.42
782.993	95.23
783.175	93.18
783.357	31.74
783.538	140.29
783.72	9.22
783.901	41.98
784.083	115.71
784.264	95.23
784.446	-23.55
784.627	-101.37
784.809	76.8
784.99	5.12
785.172	91.13
785.353	37.89
785.535	29.7
785.716	25.6
785.897	-37.89
786.079	-64.51
786.26	123.9
786.441	70.65
786.623	-37.89
786.804	-23.55
786.985	35.84
787.167	35.84
787.348	-5.12
787.529	89.09
787.71	134.14
787.891	97.28
788.073	-29.7
788.254	-13.31
788.435	146.43
788.616	37.89
788.797	-62.46
788.978	9.22
789.159	25.6
789.34	64.51
789.522	44.03
789.703	27.65
789.884	66.56
790.065	-48.13
790.246	132.09
790.427	29.7
790.607	171.01
790.788	123.9
790.969	11.26
791.15	33.79
791.331	80.89
791.512	35.84
791.693	-25.6
791.874	-13.31
792.054	132.09
792.235	121.85
792.416	-37.89
792.597	-13.31
792.778	29.7
792.958	21.5
793.139	113.66
793.32	54.27
793.5	-33.79
793.681	91.13
793.862	97.28
794.042	66.56
794.223	-39.94
794.404	-15.36
794.584	15.36
794.765	-1.02
794.945	-27.65
795.126	136.19
795.306	56.32
795.487	9.22
795.667	-54.27
795.848	89.09
796.028	-19.46
796.209	3.07
796.389	121.85
796.57	-56.32
796.75	3.07
796.93	25.6
797.111	89.09
797.291	-19.46
797.471	46.08
797.652	-41.98
797.832	-23.55
798.012	117.76
798.192	21.5
798.373	-72.7
798.553	-50.18
798.733	9.22
798.913	-7.17
799.093	-23.55
799.274	-15.36
799.454	48.13
799.634	62.46
799.814	29.7
799.994	23.55
800.174	89.09
800.354	-35.84
800.534	-91.13
800.714	27.65
800.894	-72.7
801.074	-115.71
801.254	-113.66
801.434	134.14
801.614	46.08
801.794	44.03
801.974	1725.41
802.154	52.22
802.334	91.13
802.514	-25.6
802.693	27.65
802.873	-125.95
803.053	138.24
803.233	37.89
803.413	23.55
803.592	-50.18
803.772	-13.31
803.952	46.08
804.131	-3.07
804.311	162.81
804.491	115.71
804.67	17.41
804.85	-31.74
805.03	82.94
805.209	99.33
805.389	-9.22
805.568	-46.08
805.748	35.84
805.928	5.12
806.107	37.89
806.287	17.41
806.466	33.79
806.646	46.08
806.825	-11.26
807.004	-48.13
807.184	13.31
807.363	72.7
807.543	17.41
807.722	-93.18
807.901	64.51
808.081	48.13
808.26	-211.96
808.439	-25.6
808.619	29.7
808.798	-89.09
808.977	-35.84
809.156	66.56
809.336	97.28
809.515	54.27
809.694	-33.79
809.873	-21.5
810.052	66.56
810.231	97.28
810.411	56.32
810.59	95.23
810.769	-21.5
810.948	56.32
811.127	-87.04
811.306	17.41
811.485	-80.89
811.664	107.52
811.843	-50.18
812.022	9.22
812.201	-25.6
812.38	-56.32
812.559	17.41
812.737	95.23
812.916	-89.09
813.095	-33.79
813.274	41.98
813.453	-17.41
813.632	56.32
813.811	44.03
813.989	-58.37
814.168	1.02
814.347	-66.56
814.526	48.13
814.704	78.85
814.883	107.52
815.062	-44.03
815.24	121.85
815.419	-23.55
815.598	78.85
815.776	-115.71
815.955	-27.65
816.133	-183.29
816.312	46.08
816.49	-72.7
816.669	-48.13
816.847	-35.84
817.026	39.94
817.204	-117.76
817.383	-7.17
817.561	-23.55
817.74	31.74
817.918	-9.22
818.097	-70.65
818.275	-54.27
818.453	15.36
818.632	21.5
818.81	-33.79
818.988	-35.84
819.167	-62.46
819.345	-48.13
819.523	-21.5
819.701	25.6
819.879	54.27
820.058	-29.7
820.236	-23.55
820.414	-21.5
820.592	-23.55
820.77	-99.33
820.948	-5.12
821.127	-27.65
821.305	91.13
821.483	-95.23
821.661	113.66
821.839	-58.37
822.017	3.07
822.195	-52.22
822.373	62.46
822.551	21.5
822.729	5.12
822.907	-132.09
823.085	13.31
823.262	-48.13
823.44	-48.13
823.618	-56.32
823.796	-13.31
823.974	-41.98
824.152	-119.81
824.329	19.46
824.507	54.27
824.685	31.74
824.863	5.12
825.04	21.5
825.218	93.18
825.396	25.6
825.574	-17.41
825.751	-60.42
825.929	66.56
826.107	-95.23
826.284	-35.84
826.462	44.03
826.639	15.36
826.817	-80.89
826.994	-68.61
827.172	17.41
827.349	87.04
827.527	-74.75
827.704	-13.31
827.882	-9.22
828.059	5.12
828.237	15.36
828.414	46.08
828.591	-84.99
828.769	87.04
828.946	-19.46
829.124	29.7
829.301	87.04
829.478	44.03
829.655	-41.98
829.833	5.12
830.01	-158.72
830.187	74.75
830.364	13.31
830.542	31.74
830.719	152.57
830.896	44.03
831.073	31.74
831.25	17.41
831.427	44.03
831.604	91.13
831.782	-80.89
831.959	93.18
832.136	-27.65
832.313	5.12
832.49	-56.32
832.667	21.5
832.844	-91.13
833.021	152.57
833.198	44.03
833.374	-19.46
833.551	99.33
833.728	-11.26
833.905	54.27
834.082	-142.33
834.259	103.42
834.436	54.27
834.612	-58.37
834.789	87.04
834.966	-19.46
835.143	56.32
835.319	-113.66
835.496	148.48
835.673	74.75
835.85	23.55
836.026	11.26
836.203	48.13
836.38	-56.32
836.556	-29.7
836.733	-76.8
836.909	130.05
837.086	-44.03
837.262	-121.85
837.439	-25.6
837.616	-41.98
837.792	11.26
837.968	-97.28
838.145	-91.13
838.321	-66.56
838.498	46.08
838.674	41.98
838.851	5.12
839.027	-7.17
839.203	29.7
839.38	11.26
839.556	-66.56
839.732	33.79
839.909	-5.12
840.085	109.57
840.261	3.07
840.437	-27.65
840.614	-82.94
840.79	9.22
840.966	103.42
841.142	-35.84
841.318	39.94
841.494	-37.89
841.671	91.13
841.847	5.12
842.023	-62.46
842.199	3.07
842.375	66.56
842.551	-146.43
842.727	-78.85
842.903	111.61
843.079	-58.37
843.255	105.47
843.431	9.22
843.607	64.51
843.783	-89.09
843.959	-7.17
844.134	-78.85
844.31	105.47
844.486	-21.5
844.662	-111.61
844.838	-74.75
845.013	31.74
845.189	101.37
845.365	17.41
845.541	-17.41
845.716	-21.5
845.892	72.7
846.068	-52.22
846.244	-91.13
846.419	-54.27
846.595	-193.53
846.77	-48.13
846.946	29.7
847.122	-64.51
847.297	-21.5
847.473	25.6
847.648	-84.99
847.824	84.99
847.999	-175.1
848.175	-1.02
848.35	-3.07
848.526	123.9
848.701	68.61
848.876	78.85
849.052	50.18
849.227	31.74
849.403	54.27
849.578	62.46
849.753	-21.5
849.929	-19.46
850.104	-68.61
850.279	-35.84
850.454	-17.41
850.63	52.22
850.805	-39.94
850.98	-3.07
851.155	11.26
851.33	17.41
851.505	-31.74
851.681	70.65
851.856	-27.65
852.031	-3.07
852.206	54.27
852.381	-35.84
852.556	7.17
852.731	39.94
852.906	64.51
853.081	-19.46
853.256	82.94
853.431	-11.26
853.606	13.31
853.781	-121.85
853.956	-140.29
854.131	37.89
854.305	-58.37
854.48	-27.65
854.655	-31.74
854.83	-37.89
855.005	-1.02
855.18	-29.7
855.354	-46.08
855.529	-7.17
855.704	-117.76
855.879	31.74
856.053	-117.76
856.228	-11.26
856.403	-39.94
856.577	70.65
856.752	-80.89
856.926	-70.65
857.101	-23.55
857.276	-56.32
857.45	9.22
857.625	-21.5
857.799	-7.17
857.974	-19.46
858.148	-125.95
858.323	-41.98
858.497	-37.89
858.672	-103.42
858.846	-93.18
859.02	5.12
859.195	-39.94
859.369	-52.22
859.543	39.94
859.718	-7.17
859.892	33.79
860.066	41.98
860.241	-50.18
860.415	-80.89
860.589	-41.98
860.763	54.27
860.938	-103.42
861.112	46.08
861.286	-54.27
861.46	17.41
861.634	-105.47
861.808	35.84
861.982	-72.7
862.157	-60.42
862.331	-97.28
862.505	-84.99
862.679	-89.09
862.853	-101.37
863.027	5.12
863.201	60.42
863.375	-17.41
863.549	33.79
863.722	56.32
863.896	66.56
864.07	-68.61
864.244	-23.55
864.418	11.26
864.592	-3.07
864.766	68.61
864.939	-15.36
865.113	-25.6
865.287	70.65
865.461	15.36
865.634	-52.22
865.808	-44.03
865.982	-78.85
866.156	-91.13
866.329	-111.61
866.503	-15.36
866.676	17.41
866.85	-41.98
867.024	-41.98
867.197	23.55
867.371	-60.42
867.544	115.71
867.718	-103.42
867.891	11.26
868.065	-82.94
868.238	25.6
868.412	58.37
868.585	-35.84
868.759	17.41
868.932	27.65
869.105	-84.99
869.279	-7.17
869.452	-72.7
869.625	27.65
869.799	-66.56
869.972	-87.04
870.145	-27.65
870.319	13.31
870.492	-39.94
870.665	-5.12
870.838	-95.23
871.011	-144.38
871.185	7.17
871.358	-87.04
871.531	39.94
871.704	-48.13
871.877	-144.38
872.05	-48.13
872.223	-44.03
872.396	58.37
872.569	-64.51
872.742	-72.7
872.915	-9.22
873.088	19.46
873.261	-82.94
873.434	23.55
873.607	-84.99
873.78	66.56
873.953	-115.71
874.126	11.26
874.299	5.12
874.471	-1.02
874.644	17.41
874.817	52.22
874.99	74.75
875.163	-46.08
875.335	-46.08
875.508	-1.02
875.681	-29.7
875.853	-113.66
876.026	3.07
876.199	58.37
876.371	-5.12
876.544	-68.61
876.717	5.12
876.889	-9.22
877.062	78.85
877.234	-91.13
877.407	-123.9
877.579	74.75
877.752	-44.03
877.924	-13.31
878.097	-23.55
878.269	-13.31
878.442	-23.55
878.614	41.98
878.786	-33.79
878.959	-33.79
879.131	-23.55
879.303	-140.29
879.476	-44.03
879.648	160.77
879.82	11.26
879.993	-17.41
880.165	23.55
880.337	31.74
880.509	-46.08
880.681	17.41
880.854	-37.89
881.026	-39.94
881.198	138.24
881.37	-11.26
881.542	-13.31
881.714	-19.46
881.886	-46.08
882.058	50.18
882.23	-76.8
882.402	-50.18
882.574	35.84
882.746	25.6
882.918	117.76
883.09	78.85
883.262	-3.07
883.434	-31.74
883.606	-76.8
883.778	-60.42
883.95	80.89
884.122	-52.22
884.293	91.13
884.465	-41.98
884.637	19.46
884.809	-125.95
884.98	76.8
885.152	95.23
885.324	31.74
885.496	-44.03
885.667	44.03
885.839	-21.5
886.011	17.41
886.182	-21.5
886.354	46.08
886.525	-41.98
886.697	44.03
886.869	-60.42
887.04	-44.03
887.212	121.85
887.383	103.42
887.555	41.98
887.726	-95.23
887.897	-41.98
888.069	-91.13
888.24	39.94
888.412	-84.99
888.583	-35.84
888.754	27.65
888.926	-78.85
889.097	-113.66
889.268	-97.28
889.44	-27.65
889.611	-128
889.782	-1.02
889.953	-3.07
890.125	93.18
890.296	-97.28
890.467	11.26
890.638	-27.65
890.809	23.55
890.98	-134.14
891.151	13.31
891.323	41.98
891.494	-68.61
891.665	21.5
891.836	-44.03
892.007	-39.94
892.178	80.89
892.349	-62.46
892.52	-58.37
892.691	-52.22
892.862	-111.61
893.032	-130.05
893.203	-33.79
893.374	93.18
893.545	44.03
893.716	-39.94
893.887	58.37
894.057	-60.42
894.228	-48.13
894.399	-58.37
894.57	60.42
894.74	-54.27
894.911	23.55
895.082	-68.61
895.253	23.55
895.423	-80.89
895.594	15.36
895.764	29.7
895.935	-48.13
896.106	60.42
896.276	-60.42
896.447	1.02
896.617	-128
896.788	-44.03
896.958	17.41
897.129	-72.7
897.299	-54.27
897.47	84.99
897.64	48.13
897.81	3.07
897.981	-119.81
898.151	-50.18
898.322	9.22
898.492	-1.02
898.662	-5.12
898.832	-52.22
899.003	-52.22
899.173	84.99
899.343	-72.7
899.513	-99.33
