Data from USB4F104151__6__10-41-16-290.txt Node

Date: Wed Feb 26 10:41:16 EST 2025
User: louis
Spectrometer: USB4F10415
Trigger mode: 4
Integration Time (sec): 1.000000E-1
Scans to average: 1
Electric dark correction enabled: true
Nonlinearity correction enabled: false
Boxcar width: 0
XAxis mode: Wavelengths
Number of Pixels in Spectrum: 3648
>>>>>Begin Spectral Data<<<<<
178.204	-307.71
178.424	-307.71
178.644	-307.71
178.864	-383.48
179.084	-395.77
179.304	-41.47
179.524	-25.09
179.744	-10.75
179.964	19.97
180.184	26.11
180.404	62.98
180.624	19.97
180.844	-35.33
181.064	-59.9
181.283	-29.18
181.503	-35.33
181.723	108.03
181.943	-43.52
182.163	224.76
182.383	-35.33
182.602	69.12
182.822	112.13
183.042	67.07
183.262	-59.9
183.482	95.74
183.701	15.87
183.921	32.26
184.141	-55.81
184.361	56.83
184.58	151.04
184.8	42.5
185.02	-6.66
185.239	95.74
185.459	11.78
185.679	81.41
185.898	-41.47
186.118	3.58
186.338	85.5
186.557	142.85
186.777	-82.43
186.997	34.3
187.216	60.93
187.436	222.72
187.655	122.37
187.875	-0.51
188.095	60.93
188.314	116.22
188.534	200.19
188.753	11.78
188.973	138.75
189.192	140.8
189.412	62.98
189.631	11.78
189.851	118.27
190.07	132.61
190.29	-59.9
190.509	1.54
190.729	-47.62
190.948	151.04
191.168	237.05
191.387	65.02
191.607	34.3
191.826	171.52
192.045	22.02
192.265	5.63
192.484	54.78
192.704	69.12
192.923	-20.99
193.142	243.2
193.362	122.37
193.581	185.85
193.8	87.55
194.02	81.41
194.239	26.11
194.458	136.7
194.678	30.21
194.897	60.93
195.116	91.65
195.335	44.54
195.555	126.46
195.774	-12.8
195.993	112.13
196.212	3.58
196.432	-12.8
196.651	3.58
196.87	79.36
197.089	257.53
197.308	101.89
197.528	79.36
197.747	-49.66
197.966	32.26
198.185	153.09
198.404	5.63
198.623	153.09
198.842	101.89
199.062	130.56
199.281	200.19
199.5	83.45
199.719	73.21
199.938	52.74
200.157	142.85
200.376	52.74
200.595	204.28
200.814	120.32
201.033	24.06
201.252	151.04
201.471	108.03
201.69	122.37
201.909	83.45
202.128	75.26
202.347	19.97
202.566	52.74
202.785	-31.23
203.004	67.07
203.223	310.78
203.442	28.16
203.661	13.82
203.879	89.6
204.098	167.42
204.317	-10.75
204.536	116.22
204.755	60.93
204.974	126.46
205.193	-12.8
205.411	196.09
205.63	134.65
205.849	44.54
206.068	7.68
206.287	15.87
206.505	146.94
206.724	67.07
206.943	30.21
207.162	77.31
207.381	56.83
207.599	-4.61
207.818	69.12
208.037	-14.85
208.255	60.93
208.474	5.63
208.693	-12.8
208.911	-2.56
209.13	114.17
209.349	196.09
209.567	97.79
209.786	62.98
210.005	69.12
210.223	144.89
210.442	-64
210.661	32.26
210.879	60.93
211.098	48.64
211.316	9.73
211.535	79.36
211.753	36.35
211.972	89.6
212.191	40.45
212.409	46.59
212.628	157.18
212.846	30.21
213.065	95.74
213.283	126.46
213.502	77.31
213.72	105.98
213.938	99.84
214.157	40.45
214.375	140.8
214.594	-53.76
214.812	116.22
215.031	5.63
215.249	26.11
215.467	5.63
215.686	42.5
215.904	108.03
216.122	81.41
216.341	161.28
216.559	73.21
216.778	56.83
216.996	165.37
217.214	3.58
217.432	17.92
217.651	-12.8
217.869	52.74
218.087	30.21
218.306	71.17
218.524	126.46
218.742	97.79
218.96	99.84
219.179	3.58
219.397	85.5
219.615	185.85
219.833	69.12
220.051	-37.38
220.27	93.69
220.488	120.32
220.706	124.41
220.924	-25.09
221.142	-29.18
221.36	69.12
221.578	34.3
221.796	28.16
222.015	99.84
222.233	140.8
222.451	159.23
222.669	-25.09
222.887	101.89
223.105	7.68
223.323	118.27
223.541	65.02
223.759	97.79
223.977	71.17
224.195	235
224.413	134.65
224.631	17.92
224.849	13.82
225.067	198.14
225.285	42.5
225.503	42.5
225.721	-16.9
225.939	108.03
226.157	165.37
226.375	271.87
226.592	26.11
226.81	1.54
227.028	130.56
227.246	114.17
227.464	89.6
227.682	124.41
227.9	73.21
228.117	-25.09
228.335	132.61
228.553	75.26
228.771	77.31
228.989	26.11
229.206	130.56
229.424	-51.71
229.642	65.02
229.86	17.92
230.077	218.62
230.295	40.45
230.513	144.89
230.731	60.93
230.948	118.27
231.166	183.81
231.384	58.88
231.601	85.5
231.819	185.85
232.037	-14.85
232.254	-20.99
232.472	-61.95
232.689	17.92
232.907	103.93
233.125	15.87
233.342	40.45
233.56	1.54
233.777	-45.57
233.995	-14.85
234.213	83.45
234.43	114.17
234.648	19.97
234.865	38.4
235.083	93.69
235.3	46.59
235.518	58.88
235.735	110.08
235.953	3.58
236.17	99.84
236.388	97.79
236.605	87.55
236.822	58.88
237.04	65.02
237.257	62.98
237.475	40.45
237.692	-43.52
237.909	54.78
238.127	83.45
238.344	79.36
238.562	108.03
238.779	46.59
238.996	-94.72
239.214	34.3
239.431	136.7
239.648	79.36
239.865	77.31
240.083	77.31
240.3	9.73
240.517	60.93
240.735	30.21
240.952	126.46
241.169	142.85
241.386	93.69
241.603	46.59
241.821	-43.52
242.038	101.89
242.255	112.13
242.472	34.3
242.689	97.79
242.907	48.64
243.124	67.07
243.341	36.35
243.558	7.68
243.775	-37.38
243.992	-25.09
244.209	71.17
244.426	146.94
244.643	75.26
244.86	-16.9
245.078	118.27
245.295	112.13
245.512	17.92
245.729	-16.9
245.946	32.26
246.163	79.36
246.38	91.65
246.597	120.32
246.814	60.93
247.031	87.55
247.248	38.4
247.464	36.35
247.681	91.65
247.898	7.68
248.115	56.83
248.332	30.21
248.549	159.23
248.766	110.08
248.983	112.13
249.2	126.46
249.417	112.13
249.633	54.78
249.85	110.08
250.067	19.97
250.284	103.93
250.501	85.5
250.717	-35.33
250.934	-12.8
251.151	73.21
251.368	67.07
251.585	103.93
251.801	99.84
252.018	19.97
252.235	24.06
252.451	-25.09
252.668	89.6
252.885	101.89
253.102	79.36
253.318	91.65
253.535	56.83
253.752	44.54
253.968	97.79
254.185	-64
254.401	89.6
254.618	36.35
254.835	19.97
255.051	155.13
255.268	58.88
255.484	69.12
255.701	108.03
255.917	26.11
256.134	48.64
256.351	79.36
256.567	-16.9
256.784	54.78
257	-68.09
257.217	114.17
257.433	118.27
257.65	7.68
257.866	187.9
258.082	-12.8
258.299	-35.33
258.515	126.46
258.732	11.78
258.948	7.68
259.165	138.75
259.381	-53.76
259.597	144.89
259.814	42.5
260.03	-18.94
260.246	60.93
260.463	99.84
260.679	73.21
260.895	144.89
261.112	65.02
261.328	-6.66
261.544	93.69
261.761	192
261.977	60.93
262.193	-0.51
262.409	73.21
262.626	95.74
262.842	-4.61
263.058	44.54
263.274	134.65
263.49	67.07
263.707	134.65
263.923	175.61
264.139	-47.62
264.355	87.55
264.571	206.33
264.787	97.79
265.004	175.61
265.22	108.03
265.436	-14.85
265.652	46.59
265.868	116.22
266.084	-6.66
266.3	105.98
266.516	-18.94
266.732	48.64
266.948	69.12
267.164	65.02
267.38	93.69
267.596	44.54
267.812	165.37
268.028	42.5
268.244	83.45
268.46	56.83
268.676	36.35
268.892	89.6
269.108	-47.62
269.324	-27.14
269.54	17.92
269.756	75.26
269.972	-80.38
270.188	46.59
270.403	34.3
270.619	48.64
270.835	101.89
271.051	-14.85
271.267	32.26
271.483	73.21
271.698	73.21
271.914	30.21
272.13	36.35
272.346	-10.75
272.562	79.36
272.777	122.37
272.993	75.26
273.209	32.26
273.425	161.28
273.64	19.97
273.856	93.69
274.072	-53.76
274.287	40.45
274.503	128.51
274.719	120.32
274.934	30.21
275.15	-16.9
275.366	108.03
275.581	-43.52
275.797	-20.99
276.012	-2.56
276.228	13.82
276.444	28.16
276.659	134.65
276.875	34.3
277.09	87.55
277.306	7.68
277.521	75.26
277.737	52.74
277.952	132.61
278.168	77.31
278.383	120.32
278.599	54.78
278.814	165.37
279.03	-10.75
279.245	255.48
279.461	85.5
279.676	183.81
279.892	-53.76
280.107	89.6
280.322	7.68
280.538	157.18
280.753	-25.09
280.969	116.22
281.184	-0.51
281.399	189.95
281.615	7.68
281.83	126.46
282.045	54.78
282.26	-29.18
282.476	81.41
282.691	26.11
282.906	40.45
283.122	69.12
283.337	-20.99
283.552	83.45
283.767	22.02
283.983	140.8
284.198	19.97
284.413	91.65
284.628	-8.7
284.843	73.21
285.058	118.27
285.274	-27.14
285.489	26.11
285.704	110.08
285.919	13.82
286.134	52.74
286.349	13.82
286.564	71.17
286.779	210.43
286.995	36.35
287.21	-41.47
287.425	81.41
287.64	7.68
287.855	79.36
288.07	-37.38
288.285	116.22
288.5	146.94
288.715	62.98
288.93	44.54
289.145	19.97
289.36	54.78
289.575	60.93
289.79	101.89
290.004	-12.8
290.219	89.6
290.434	69.12
290.649	71.17
290.864	-6.66
291.079	81.41
291.294	24.06
291.509	114.17
291.724	69.12
291.938	52.74
292.153	5.63
292.368	58.88
292.583	95.74
292.798	155.13
293.012	173.57
293.227	52.74
293.442	67.07
293.657	99.84
293.871	142.85
294.086	128.51
294.301	175.61
294.516	210.43
294.73	130.56
294.945	-8.7
295.16	-4.61
295.374	65.02
295.589	214.52
295.804	-4.61
296.018	58.88
296.233	144.89
296.447	46.59
296.662	52.74
296.877	159.23
297.091	52.74
297.306	-14.85
297.52	-45.57
297.735	62.98
297.949	73.21
298.164	110.08
298.378	71.17
298.593	-33.28
298.807	-29.18
299.022	60.93
299.236	122.37
299.451	15.87
299.665	52.74
299.88	48.64
300.094	97.79
300.309	5.63
300.523	40.45
300.737	122.37
300.952	69.12
301.166	136.7
301.381	-51.71
301.595	32.26
301.809	11.78
302.024	-2.56
302.238	7.68
302.452	124.41
302.667	112.13
302.881	140.8
303.095	103.93
303.309	99.84
303.524	-18.94
303.738	56.83
303.952	-20.99
304.166	36.35
304.381	-100.86
304.595	185.85
304.809	-16.9
305.023	81.41
305.237	1.54
305.452	83.45
305.666	105.98
305.88	93.69
306.094	157.18
306.308	108.03
306.522	62.98
306.736	50.69
306.95	153.09
307.164	65.02
307.379	7.68
307.593	60.93
307.807	69.12
308.021	11.78
308.235	103.93
308.449	-23.04
308.663	95.74
308.877	245.24
309.091	24.06
309.305	120.32
309.519	-78.33
309.733	122.37
309.947	19.97
310.161	116.22
310.374	134.65
310.588	128.51
310.802	15.87
311.016	36.35
311.23	77.31
311.444	83.45
311.658	73.21
311.872	237.05
312.085	171.52
312.299	187.9
312.513	140.8
312.727	17.92
312.941	-10.75
313.154	52.74
313.368	19.97
313.582	91.65
313.796	48.64
314.009	50.69
314.223	110.08
314.437	95.74
314.651	77.31
314.864	-33.28
315.078	73.21
315.292	-41.47
315.505	69.12
315.719	118.27
315.933	103.93
316.146	65.02
316.36	-64
316.573	165.37
316.787	114.17
317.001	144.89
317.214	-23.04
317.428	67.07
317.641	-94.72
317.855	95.74
318.068	-2.56
318.282	85.5
318.495	245.24
318.709	77.31
318.922	46.59
319.136	124.41
319.349	228.86
319.563	65.02
319.776	134.65
319.99	-90.62
320.203	112.13
320.417	93.69
320.63	101.89
320.843	165.37
321.057	108.03
321.27	34.3
321.483	140.8
321.697	105.98
321.91	54.78
322.124	65.02
322.337	81.41
322.55	26.11
322.763	87.55
322.977	9.73
323.19	5.63
323.403	56.83
323.617	99.84
323.83	165.37
324.043	62.98
324.256	110.08
324.469	24.06
324.683	132.61
324.896	105.98
325.109	40.45
325.322	34.3
325.535	114.17
325.748	134.65
325.962	9.73
326.175	38.4
326.388	85.5
326.601	56.83
326.814	17.92
327.027	105.98
327.24	116.22
327.453	-53.76
327.666	54.78
327.879	58.88
328.092	93.69
328.305	79.36
328.518	-18.94
328.731	48.64
328.944	62.98
329.157	108.03
329.37	28.16
329.583	126.46
329.796	126.46
330.009	-90.62
330.222	124.41
330.435	73.21
330.648	52.74
330.861	34.3
331.073	73.21
331.286	108.03
331.499	58.88
331.712	-37.38
331.925	34.3
332.138	9.73
332.35	97.79
332.563	11.78
332.776	124.41
332.989	22.02
333.202	30.21
333.414	26.11
333.627	89.6
333.84	9.73
334.053	85.5
334.265	-4.61
334.478	32.26
334.691	54.78
334.903	93.69
335.116	54.78
335.329	36.35
335.541	110.08
335.754	163.33
335.966	38.4
336.179	30.21
336.392	32.26
336.604	52.74
336.817	52.74
337.029	110.08
337.242	1.54
337.454	85.5
337.667	48.64
337.88	185.85
338.092	148.99
338.305	173.57
338.517	11.78
338.729	159.23
338.942	167.42
339.154	75.26
339.367	-70.14
339.579	46.59
339.792	9.73
340.004	87.55
340.217	58.88
340.429	56.83
340.641	-29.18
340.854	-27.14
341.066	69.12
341.278	118.27
341.491	171.52
341.703	-0.51
341.915	-45.57
342.128	165.37
342.34	46.59
342.552	3.58
342.764	65.02
342.977	50.69
343.189	142.85
343.401	75.26
343.613	-35.33
343.826	48.64
344.038	-16.9
344.25	48.64
344.462	62.98
344.674	112.13
344.886	1.54
345.099	32.26
345.311	105.98
345.523	52.74
345.735	-8.7
345.947	112.13
346.159	-2.56
346.371	36.35
346.583	40.45
346.795	265.72
347.007	5.63
347.219	50.69
347.431	13.82
347.643	58.88
347.855	24.06
348.067	140.8
348.279	-57.86
348.491	77.31
348.703	75.26
348.915	-18.94
349.127	-16.9
349.339	69.12
349.551	50.69
349.763	163.33
349.975	69.12
350.187	112.13
350.399	140.8
350.61	136.7
350.822	-4.61
351.034	69.12
351.246	99.84
351.458	108.03
351.669	73.21
351.881	110.08
352.093	148.99
352.305	108.03
352.517	42.5
352.728	163.33
352.94	50.69
353.152	71.17
353.363	-20.99
353.575	159.23
353.787	114.17
353.999	91.65
354.21	175.61
354.422	-57.86
354.633	77.31
354.845	62.98
355.057	13.82
355.268	5.63
355.48	157.18
355.692	30.21
355.903	91.65
356.115	38.4
356.326	-57.86
356.538	161.28
356.749	38.4
356.961	146.94
357.172	56.83
357.384	26.11
357.595	194.05
357.807	71.17
358.018	69.12
358.23	69.12
358.441	163.33
358.653	132.61
358.864	46.59
359.075	-10.75
359.287	19.97
359.498	155.13
359.709	95.74
359.921	40.45
360.132	46.59
360.344	62.98
360.555	101.89
360.766	153.09
360.977	-14.85
361.189	28.16
361.4	-31.23
361.611	130.56
361.823	171.52
362.034	77.31
362.245	13.82
362.456	19.97
362.667	75.26
362.879	36.35
363.09	71.17
363.301	81.41
363.512	28.16
363.723	-14.85
363.935	42.5
364.146	87.55
364.357	69.12
364.568	85.5
364.779	-53.76
364.99	157.18
365.201	-18.94
365.412	222.72
365.623	-61.95
365.834	52.74
366.045	103.93
366.256	148.99
366.467	134.65
366.678	73.21
366.889	32.26
367.1	11.78
367.311	196.09
367.522	44.54
367.733	79.36
367.944	105.98
368.155	-41.47
368.366	91.65
368.577	179.71
368.788	146.94
368.999	42.5
369.209	44.54
369.42	187.9
369.631	169.47
369.842	-6.66
370.053	87.55
370.264	134.65
370.474	-37.38
370.685	60.93
370.896	15.87
371.107	79.36
371.317	32.26
371.528	26.11
371.739	132.61
371.95	81.41
372.16	99.84
372.371	-64
372.582	67.07
372.792	134.65
373.003	73.21
373.214	114.17
373.424	202.24
373.635	15.87
373.846	118.27
374.056	87.55
374.267	17.92
374.477	112.13
374.688	-39.42
374.898	112.13
375.109	81.41
375.319	136.7
375.53	103.93
375.74	87.55
375.951	58.88
376.161	132.61
376.372	114.17
376.582	13.82
376.793	110.08
377.003	3.58
377.214	-37.38
377.424	87.55
377.635	46.59
377.845	-45.57
378.055	235
378.266	-12.8
378.476	-35.33
378.686	110.08
378.897	26.11
379.107	134.65
379.317	91.65
379.528	15.87
379.738	151.04
379.948	17.92
380.158	142.85
380.369	34.3
380.579	142.85
380.789	46.59
380.999	40.45
381.21	65.02
381.42	280.06
381.63	69.12
381.84	77.31
382.05	122.37
382.261	155.13
382.471	105.98
382.681	38.4
382.891	171.52
383.101	95.74
383.311	48.64
383.521	1.54
383.731	97.79
383.941	144.89
384.151	67.07
384.361	-64
384.571	71.17
384.781	62.98
384.991	239.1
385.201	183.81
385.411	157.18
385.621	77.31
385.831	26.11
386.041	73.21
386.251	52.74
386.461	101.89
386.671	34.3
386.881	73.21
387.091	11.78
387.301	71.17
387.511	11.78
387.72	120.32
387.93	116.22
388.14	-61.95
388.35	134.65
388.56	169.47
388.769	120.32
388.979	79.36
389.189	-47.62
389.399	3.58
389.609	130.56
389.818	208.38
390.028	93.69
390.238	118.27
390.447	-8.7
390.657	87.55
390.867	56.83
391.076	-55.81
391.286	65.02
391.496	13.82
391.705	73.21
391.915	69.12
392.125	71.17
392.334	73.21
392.544	126.46
392.753	105.98
392.963	-27.14
393.172	15.87
393.382	52.74
393.591	218.62
393.801	22.02
394.01	118.27
394.22	69.12
394.429	46.59
394.639	95.74
394.848	79.36
395.058	95.74
395.267	71.17
395.477	163.33
395.686	52.74
395.895	148.99
396.105	216.57
396.314	101.89
396.524	19.97
396.733	83.45
396.942	140.8
397.152	28.16
397.361	97.79
397.57	-18.94
397.78	40.45
397.989	75.26
398.198	251.39
398.407	85.5
398.617	73.21
398.826	138.75
399.035	-12.8
399.244	95.74
399.453	118.27
399.663	65.02
399.872	99.84
400.081	-4.61
400.29	118.27
400.499	28.16
400.708	69.12
400.917	89.6
401.127	99.84
401.336	34.3
401.545	173.57
401.754	97.79
401.963	196.09
402.172	44.54
402.381	73.21
402.59	42.5
402.799	124.41
403.008	73.21
403.217	71.17
403.426	124.41
403.635	-49.66
403.844	83.45
404.053	24.06
404.262	134.65
404.471	220.67
404.68	65.02
404.888	144.89
405.097	71.17
405.306	30.21
405.515	87.55
405.724	75.26
405.933	151.04
406.142	101.89
406.35	210.43
406.559	5.63
406.768	73.21
406.977	179.71
407.185	-66.05
407.394	77.31
407.603	-47.62
407.812	101.89
408.02	146.94
408.229	81.41
408.438	75.26
408.646	-10.75
408.855	99.84
409.064	97.79
409.272	81.41
409.481	56.83
409.69	5.63
409.898	34.3
410.107	38.4
410.315	161.28
410.524	30.21
410.733	30.21
410.941	138.75
411.15	91.65
411.358	153.09
411.567	179.71
411.775	99.84
411.984	52.74
412.192	79.36
412.401	58.88
412.609	208.38
412.818	138.75
413.026	116.22
413.234	42.5
413.443	83.45
413.651	13.82
413.86	50.69
414.068	171.52
414.276	167.42
414.485	-4.61
414.693	230.91
414.901	202.24
415.11	144.89
415.318	24.06
415.526	65.02
415.734	167.42
415.943	112.13
416.151	177.66
416.359	32.26
416.567	87.55
416.776	89.6
416.984	112.13
417.192	157.18
417.4	-27.14
417.608	13.82
417.817	-6.66
418.025	183.81
418.233	177.66
418.441	69.12
418.649	9.73
418.857	138.75
419.065	183.81
419.273	52.74
419.481	30.21
419.689	3.58
419.897	71.17
420.105	36.35
420.313	167.42
420.521	142.85
420.729	200.19
420.937	42.5
421.145	-4.61
421.353	142.85
421.561	159.23
421.769	44.54
421.977	87.55
422.185	67.07
422.393	179.71
422.601	146.94
422.809	101.89
423.017	165.37
423.224	151.04
423.432	146.94
423.64	-4.61
423.848	65.02
424.056	-0.51
424.263	93.69
424.471	75.26
424.679	128.51
424.887	42.5
425.094	208.38
425.302	81.41
425.51	71.17
425.718	130.56
425.925	97.79
426.133	28.16
426.341	261.63
426.548	56.83
426.756	38.4
426.964	183.81
427.171	97.79
427.379	60.93
427.586	126.46
427.794	124.41
428.001	220.67
428.209	15.87
428.417	185.85
428.624	132.61
428.832	142.85
429.039	77.31
429.247	165.37
429.454	198.14
429.662	222.72
429.869	134.65
430.076	112.13
430.284	132.61
430.491	153.09
430.699	130.56
430.906	278.01
431.114	181.76
431.321	171.52
431.528	136.7
431.736	192
431.943	249.34
432.15	173.57
432.358	157.18
432.565	232.96
432.772	17.92
432.979	194.05
433.187	165.37
433.394	230.91
433.601	179.71
433.808	257.53
434.016	257.53
434.223	282.11
434.43	235
434.637	269.82
434.844	366.07
435.052	226.81
435.259	259.58
435.466	245.24
435.673	239.1
435.88	335.35
436.087	329.21
436.294	390.65
436.501	347.64
436.708	292.35
436.915	327.16
437.122	366.07
437.329	183.81
437.537	286.2
437.743	327.16
437.95	478.71
438.157	337.4
438.364	396.79
438.571	347.64
438.778	445.95
438.985	390.65
439.192	447.99
439.399	404.99
439.606	404.99
439.813	466.42
440.02	601.59
440.227	617.97
440.433	566.78
440.64	534.01
440.847	503.29
441.054	505.34
441.261	675.32
441.467	605.69
441.674	622.07
441.881	620.02
442.088	527.86
442.294	761.33
442.501	755.19
442.708	888.31
442.914	814.58
443.121	929.27
443.328	902.64
443.534	937.46
443.741	810.48
443.948	826.87
444.154	953.84
444.361	1029.62
444.568	1048.05
444.774	966.13
444.981	906.74
445.187	1033.71
445.394	1080.82
445.6	1041.9
445.807	1218.03
446.013	1144.3
446.22	1189.36
446.426	1254.89
446.633	1367.53
446.839	1517.03
447.046	1357.29
447.252	1535.46
447.459	1580.52
447.665	1478.12
447.871	1674.73
448.078	1813.99
448.284	1627.62
448.491	1953.25
448.697	1971.68
448.903	2065.89
449.11	2104.8
449.316	2065.89
449.522	2309.6
449.728	2412
449.935	2346.46
450.141	2373.08
450.347	2629.08
450.553	2493.91
450.76	2649.56
450.966	2633.18
451.172	2758.1
451.378	2981.33
451.584	2981.33
451.791	3331.53
451.997	3251.66
452.203	3341.77
452.409	3462.6
452.615	3657.16
452.821	3517.9
453.027	3671.5
453.233	4160.96
453.44	3970.5
453.646	4083.14
453.852	4359.61
454.058	4505.02
454.264	4601.27
454.47	4971.96
454.676	4931
454.882	5383.6
455.088	5090.74
455.294	5492.14
455.5	5995.94
455.705	5979.56
455.911	6090.15
456.117	6294.94
456.323	6569.37
456.529	6690.2
456.735	7187.86
456.941	7509.39
457.147	7808.39
457.352	7708.04
457.558	8101.25
457.764	8543.61
457.97	8732.03
458.176	8981.88
458.381	9436.53
458.587	9620.85
458.793	10343.78
458.999	10354.02
459.204	11332.95
459.41	11816.27
459.616	11500.88
459.821	12467.52
460.027	13040.95
460.233	13643.06
460.438	13344.05
460.644	14376.23
460.85	14650.66
461.055	15058.2
461.261	15748.37
461.466	15412.5
461.672	15684.88
461.878	17685.75
462.083	17614.07
462.289	17796.34
462.494	18658.53
462.7	18652.39
462.905	18941.15
463.111	20260.04
463.316	21595.32
463.522	21816.5
463.727	22512.81
463.932	23665.81
464.138	23999.63
464.343	25158.78
464.549	25240.7
464.754	26883.17
464.959	27673.69
465.165	28109.91
465.37	28281.94
465.575	27937.88
465.781	30170.16
465.986	30848.04
466.191	30479.41
466.397	30262.32
466.602	29817.91
466.807	31343.65
467.012	31884.31
467.218	32451.6
467.423	32601.1
467.628	33444.87
467.833	35107.82
468.038	34638.83
468.244	34212.85
468.449	35843.04
468.654	35345.38
468.859	35183.59
469.064	35073
469.269	34216.95
469.474	34780.14
469.679	35224.55
469.885	34622.45
470.09	34911.21
470.295	35359.72
470.5	34497.52
470.705	34718.7
470.91	33831.93
471.115	33410.05
471.32	34337.78
471.525	33614.85
471.73	32836.62
471.935	32545.81
472.139	31271.97
472.344	31171.62
472.549	31570.97
472.754	30477.36
472.959	29916.22
473.164	28738.63
473.369	28294.22
473.574	29477.95
473.778	28783.69
473.983	28257.36
474.188	27806.81
474.393	26551.4
474.598	26375.28
474.802	25805.94
475.007	25504.89
475.212	25543.8
475.417	23991.44
475.621	23973.01
475.826	23501.98
476.031	23170.21
476.235	22731.94
476.44	22658.21
476.645	22215.85
476.849	21892.27
477.054	21605.56
477.259	21316.79
477.463	20800.71
477.668	20511.94
477.872	20352.2
478.077	20024.53
478.282	19176.67
478.486	19104.99
478.691	18928.86
478.895	18666.72
479.1	18595.04
479.304	18554.08
479.509	17738.99
479.713	18429.16
479.918	17714.42
480.122	17458.42
480.326	17669.36
480.531	17270.01
480.735	17427.7
480.94	17286.39
481.144	17634.55
481.348	16542.98
481.553	16669.95
481.757	16223.5
481.961	16348.42
482.166	16405.77
482.37	15981.84
482.574	15684.88
482.778	15983.88
482.983	15756.56
483.187	15519
483.391	15758.61
483.595	15547.67
483.8	15306.01
484.004	15506.71
484.208	15238.42
484.412	15037.72
484.616	15039.77
484.821	14777.63
485.025	14181.67
485.229	14511.39
485.433	14095.66
485.637	13847.85
485.841	13985.07
486.045	13753.65
486.249	13491.51
486.453	13196.6
486.657	13157.69
486.861	13086.01
487.065	12614.98
487.269	12588.35
487.473	12102.98
487.677	12193.09
487.881	12430.66
488.085	11767.12
488.289	11683.15
488.493	11459.92
488.697	11335
488.901	11066.71
489.105	10505.57
489.309	10612.06
489.512	10671.45
489.716	10366.31
489.92	10192.23
490.124	9954.66
490.328	10073.45
490.531	9620.85
490.735	9618.8
490.939	9172.34
491.143	9276.79
491.346	9135.48
491.55	8969.59
491.754	8838.52
491.958	8578.43
492.161	8521.09
492.365	8490.37
492.569	8275.33
492.772	8304
492.976	8226.18
493.18	8002.95
493.383	8060.29
493.587	7982.47
493.79	7953.8
493.994	7505.29
494.197	7478.67
494.401	7523.73
494.605	7343.5
494.808	7415.18
495.012	7136.66
495.215	7359.89
495.419	7355.79
495.622	6950.29
495.825	7267.73
496.029	7239.06
496.232	7224.72
496.436	7110.04
496.639	6987.16
496.843	7034.26
497.046	6974.87
497.249	7220.63
497.453	7128.47
497.656	7103.89
497.859	6995.35
498.063	7101.84
498.266	7294.35
498.469	7101.84
498.673	7224.72
498.876	7194
499.079	7292.3
499.282	7325.07
499.485	7671.18
499.689	7402.9
499.892	7404.94
500.095	7271.83
500.298	7470.48
500.501	7511.44
500.705	7787.91
500.908	7656.84
501.111	7726.47
501.314	8013.19
501.517	7986.57
501.72	7984.52
501.923	7912.84
502.126	8170.88
502.329	8486.27
502.532	8469.89
502.735	8324.48
502.938	8652.16
503.141	8541.57
503.344	8826.23
503.547	9010.55
503.75	9002.36
503.953	9059.7
504.156	9411.95
504.359	9305.46
504.562	9549.17
504.765	9702.76
504.968	9825.64
505.17	9966.95
505.373	10026.34
505.576	10532.19
505.779	10302.82
505.982	10466.66
506.185	10812.76
506.387	11003.22
506.59	11230.55
506.793	11435.35
506.996	11474.26
507.198	11930.95
507.401	12162.37
507.604	12479.81
507.807	12522.82
508.009	12682.56
508.212	13194.55
508.415	13323.57
508.617	13497.65
508.82	13792.56
509.022	13729.07
509.225	14564.64
509.428	14736.67
509.63	15101.21
509.833	15312.15
510.035	15928.59
510.238	15719.7
510.44	16336.13
510.643	16973.05
510.845	17317.11
511.048	17149.18
511.25	17581.3
511.453	18220.27
511.655	19358.94
511.858	19213.53
512.06	19512.53
512.262	19868.88
512.465	20229.32
512.667	20999.36
512.87	21464.25
513.072	21836.98
513.274	22340.78
513.477	22817.96
513.679	23192.73
513.881	23803.03
514.084	24388.75
514.286	24673.42
514.488	25263.23
514.69	26145.91
514.893	26199.15
515.095	26866.79
515.297	27370.59
515.499	28124.24
515.701	28802.12
515.904	29705.27
516.106	30055.48
516.308	30581.81
516.51	31349.79
516.712	31464.48
516.914	32357.39
517.116	33047.56
517.318	33549.31
517.52	34270.2
517.722	34655.22
517.925	35351.52
518.127	36484.05
518.329	37002.19
518.531	37000.14
518.733	38001.6
518.935	38745.01
519.136	39037.87
519.338	39857.06
519.54	40604.56
519.742	41313.16
519.944	41796.48
520.146	42419.06
520.348	42943.34
520.55	43039.6
520.752	43965.28
520.954	44854.1
521.155	44358.49
521.357	45411.15
521.559	46244.67
521.761	46963.51
521.963	46648.12
522.164	47538.99
522.366	47885.09
522.568	48415.52
522.77	48751.38
522.971	49591.05
523.173	49222.42
523.375	49845
523.576	49752.84
523.778	49890.05
523.98	50526.97
524.181	50963.19
524.383	50828.02
524.584	51557.1
524.786	51073.78
524.988	50766.59
525.189	51481.33
525.391	51499.76
525.592	51507.95
525.794	51565.29
525.995	51536.62
526.197	51755.75
526.398	51784.43
526.6	51329.78
526.801	51530.48
527.003	51002.1
527.204	51141.36
527.406	51329.78
527.607	50938.61
527.808	50971.38
528.01	49963.78
528.211	50160.39
528.412	50426.62
528.614	49935.11
528.815	49095.44
529.016	49386.25
529.218	48440.09
529.419	48638.75
529.62	47729.45
529.822	47563.56
530.023	47233.84
530.224	46717.75
530.425	45908.8
530.626	45353.8
530.828	45019.99
531.029	45669.19
531.23	44305.24
531.431	43658.09
531.632	43836.26
531.833	43297.64
532.035	42734.45
532.236	42480.5
532.437	42107.77
532.638	41010.06
532.839	40862.61
533.04	40338.33
533.241	39400.36
533.442	40082.33
533.643	38683.57
533.844	38194.11
534.045	37802.94
534.246	36791.25
534.447	36969.42
534.648	36574.16
534.849	35873.76
535.05	35353.57
535.251	34608.11
535.451	34366.45
535.652	34253.81
535.853	33410.05
536.054	33076.23
536.255	32740.36
536.456	31892.51
536.657	31917.08
536.857	31106.09
537.058	30798.89
537.259	30602.29
537.46	30469.17
537.66	29729.85
537.861	29475.9
538.062	29133.89
538.263	28556.36
538.463	28226.64
538.664	27970.65
538.865	27386.97
539.065	27771.99
539.266	26727.53
539.466	26756.2
539.667	26274.93
539.868	26356.85
540.068	25625.72
540.269	25410.68
540.469	25126.02
540.67	24855.68
540.87	24562.83
541.071	24323.21
541.271	23911.57
541.472	23581.85
541.672	23170.21
541.873	22973.6
542.073	22668.45
542.274	22559.91
542.474	22183.09
542.675	22152.37
542.875	22054.06
543.075	21730.48
543.276	21210.3
543.476	21576.89
543.676	20767.94
543.877	20706.5
544.077	20260.04
544.277	20372.68
544.478	20071.63
544.678	19698.9
544.878	19821.78
545.078	19530.97
545.279	18945.25
545.479	18939.1
545.679	18664.68
545.879	18390.25
546.079	18330.86
546.28	18218.22
546.48	17599.73
546.68	17812.72
546.88	17403.13
547.08	17251.58
547.28	16841.98
547.48	16657.67
547.68	16600.32
547.88	16393.48
548.081	16430.34
548.281	16020.75
548.481	15813.9
548.681	15656.21
548.881	15273.24
549.081	15252.76
549.28	14847.26
549.48	14648.61
549.68	14640.42
549.88	14822.69
550.08	14155.05
550.28	13901.1
550.48	14107.94
550.68	13581.62
550.88	13454.64
551.08	13319.48
551.279	13255.99
551.479	12913.98
551.679	12715.33
551.879	12688.7
552.079	12504.39
552.278	12162.37
552.478	12201.29
552.678	11869.51
552.878	11881.8
553.077	11732.3
553.277	11242.84
553.477	11283.8
553.676	11201.88
553.876	10882.39
554.076	10665.31
554.275	10448.22
554.475	10243.43
554.674	10351.97
554.874	10022.25
555.074	9717.1
555.273	9784.68
555.473	9565.55
555.672	9497.97
555.872	9155.96
556.071	9125.24
556.271	9090.42
556.47	8983.93
556.67	8719.74
556.869	8549.76
557.068	8562.05
557.268	8287.62
557.467	8134.02
557.667	8170.88
557.866	7773.58
558.065	7714.19
558.265	7632.27
558.464	7419.28
558.663	7456.14
558.863	7333.26
559.062	7380.37
559.261	7099.8
559.461	7251.35
559.66	6716.83
559.859	6606.24
560.058	6499.74
560.258	6438.3
560.457	6428.06
560.656	6507.93
560.855	6065.57
561.054	6215.07
561.253	6069.67
561.453	5989.8
561.652	6094.24
561.851	5828.01
562.05	5586.35
562.249	5535.15
562.448	5451.18
562.647	5270.96
562.846	5309.87
563.045	5424.56
563.244	5100.98
563.443	5068.21
563.642	4898.23
563.841	5270.96
564.04	4912.57
564.239	4945.33
564.438	4687.29
564.637	4742.58
564.836	4560.31
565.035	4394.43
565.234	4572.6
565.432	4380.09
565.631	4365.76
565.83	4183.49
566.029	4113.86
566.228	4140.48
566.427	4220.35
566.625	3911.11
566.824	3909.06
567.023	3964.36
567.222	3802.57
567.42	3718.6
567.619	3757.51
567.818	3732.94
568.016	3886.53
568.215	3567.05
568.414	3624.39
568.612	3655.11
568.811	3454.41
569.01	3497.42
569.208	3214.8
569.407	3384.78
569.605	3249.61
569.804	3116.5
570.002	3235.28
570.201	3163.6
570.4	3077.59
570.598	3001.81
570.797	2821.59
570.995	2792.92
571.193	2903.51
571.392	2864.6
571.59	2704.85
571.789	2825.68
571.987	2794.97
572.186	2815.45
572.384	2596.31
572.582	2573.78
572.781	2528.73
572.979	2420.19
573.177	2508.25
573.376	2543.07
573.574	2584.02
573.772	2332.12
573.971	2289.12
574.169	2153.95
574.367	2295.26
574.565	2299.36
574.763	2188.77
574.962	2205.15
575.16	2147.81
575.358	2061.79
575.556	2117.09
575.754	2061.79
575.952	1965.54
576.151	2035.17
576.349	1938.91
576.547	1981.92
576.745	1891.81
576.943	1844.71
577.141	1797.6
577.339	1826.28
577.537	1789.41
577.735	1813.99
577.933	1615.34
578.131	1590.76
578.329	1705.45
578.527	1619.43
578.725	1736.17
578.923	1547.75
579.121	1652.2
579.319	1349.1
579.516	1525.22
579.714	1555.94
579.912	1543.66
580.11	1469.93
580.308	1302
580.506	1347.05
580.704	1295.85
580.901	1222.13
581.099	1504.75
581.297	1304.04
581.495	1269.23
581.692	1234.41
581.89	1392.11
582.088	1297.9
582.285	1211.89
582.483	1246.7
582.681	1183.21
582.878	1226.22
583.076	1211.89
583.274	1132.01
583.471	1297.9
583.669	1187.31
583.866	1025.52
584.064	1015.28
584.262	1025.52
584.459	1056.24
584.657	980.47
584.854	1089.01
585.052	947.7
585.249	1029.62
585.447	1009.14
585.644	888.31
585.841	1107.44
586.039	962.03
586.236	1041.9
586.434	896.5
586.631	777.72
586.828	837.11
587.026	894.45
587.223	769.52
587.42	871.92
587.618	906.74
587.815	871.92
588.012	808.44
588.21	779.76
588.407	806.39
588.604	863.73
588.801	744.95
588.999	763.38
589.196	945.65
589.393	796.15
589.59	765.43
589.787	790
589.984	744.95
590.182	718.33
590.379	716.28
590.576	753.14
590.773	708.09
590.97	755.19
591.167	718.33
591.364	751.09
591.561	763.38
591.758	865.78
591.955	706.04
592.152	759.28
592.349	720.37
592.546	724.47
592.743	724.47
592.94	667.13
593.137	816.63
593.334	755.19
593.531	759.28
593.727	851.44
593.924	656.89
594.121	679.41
594.318	673.27
594.515	781.81
594.712	855.54
594.908	785.91
595.105	603.64
595.302	749.04
595.499	806.39
595.696	794.1
595.892	683.51
596.089	849.4
596.286	724.47
596.482	873.97
596.679	849.4
596.876	740.85
597.072	822.77
597.269	892.4
597.466	892.4
597.662	896.5
597.859	886.26
598.055	1007.09
598.252	1062.38
598.448	1046
598.645	1076.72
598.841	1230.32
599.038	1269.23
599.234	1228.27
599.431	1234.41
599.627	1244.65
599.824	1215.98
600.02	1295.85
600.217	1289.71
600.413	1338.86
600.609	1490.41
600.806	1727.97
601.002	1725.93
601.198	1541.61
601.395	1848.8
601.591	1865.19
601.787	1805.8
601.984	1940.96
602.18	1926.63
602.376	2184.67
602.572	1988.07
602.769	2211.29
602.965	2237.92
603.161	2389.47
603.357	2422.24
603.553	2592.22
603.75	2524.63
603.946	2602.46
604.142	2801.11
604.338	3012.05
604.534	2819.54
604.73	2907.6
604.926	2989.52
605.122	3333.58
605.318	3339.73
605.514	3538.38
605.71	3423.69
605.906	3737.03
606.102	3626.44
606.298	4056.51
606.494	4085.19
606.69	4294.08
606.886	4255.17
607.082	4267.45
607.278	4453.82
607.474	4666.81
607.67	4771.26
607.866	4718.01
608.062	4965.81
608.257	5193.14
608.453	5266.86
608.649	5447.08
608.845	5344.69
609.041	5602.73
609.236	5854.63
609.432	5989.8
609.628	6360.48
609.824	6282.66
610.019	6454.69
610.215	6770.07
610.411	7019.92
610.606	7013.78
610.802	7077.27
610.998	7269.78
611.193	7599.5
611.389	7757.19
611.584	7845.26
611.78	8048.01
611.976	8322.43
612.171	8648.06
612.367	8859
612.562	8979.83
612.758	9192.82
612.953	9334.13
613.149	9733.48
613.344	9764.2
613.539	10466.66
613.735	10567.01
613.93	10859.87
614.126	10992.98
614.321	11457.87
614.517	11832.65
614.712	12242.25
614.907	11988.3
615.103	12596.54
615.298	12547.39
615.493	13405.49
615.688	13452.59
615.884	13995.31
616.079	14054.7
616.274	14515.49
616.47	15017.24
616.665	15363.35
616.86	15549.71
617.055	15887.63
617.25	16305.42
617.445	17091.84
617.641	16952.57
617.836	17661.17
618.031	17847.54
618.226	18537.7
618.421	18998.49
618.616	19608.79
618.811	19590.36
619.006	20407.5
619.201	20600.01
619.396	21259.45
619.591	21343.42
619.786	22291.63
619.981	22285.48
620.176	23032.99
620.371	23055.52
620.566	24159.38
620.761	24200.33
620.956	25035.91
621.151	25320.57
621.346	25945.2
621.541	26033.27
621.735	27225.18
621.93	27294.82
622.125	27974.74
622.32	28290.13
622.515	29107.27
622.709	29125.7
622.904	30063.67
623.099	30204.98
623.294	30999.59
623.488	31015.97
623.683	32033.82
623.878	32152.6
624.072	32908.3
624.267	33381.38
624.462	33440.77
624.656	34407.41
624.851	34991.08
625.046	35144.68
625.24	36062.17
625.435	36195.29
625.629	36848.59
625.824	36852.69
626.018	37931.97
626.213	37708.74
626.407	38523.83
626.602	38853.55
626.796	39433.13
626.991	39562.15
627.185	40182.68
627.38	39799.71
627.574	40620.95
627.768	40788.88
627.963	40702.87
628.157	40674.2
628.352	41124.75
628.546	40919.95
628.74	41522.05
628.935	41223.05
629.129	41030.54
629.323	40776.59
629.517	40784.79
629.712	40502.17
629.906	40184.73
630.1	39490.47
630.294	39494.57
630.489	38529.97
630.683	38702
630.877	37950.4
631.071	37133.26
631.265	36666.32
631.459	36365.27
631.653	35079.14
631.848	34771.95
632.042	33864.7
632.236	33127.43
632.43	31810.59
632.624	31296.55
632.818	30446.64
633.012	29518.91
633.206	28077.14
633.4	28032.08
633.594	26317.93
633.788	25869.43
633.982	24974.47
634.176	24190.09
634.369	23241.89
634.563	22525.1
634.757	21294.27
634.951	20905.15
635.145	19995.85
635.339	19070.17
635.533	18019.57
635.726	17448.18
635.92	16762.11
636.114	16309.51
636.308	15346.97
636.501	14853.41
636.695	14476.58
636.889	13622.58
637.083	13186.36
637.276	12596.54
637.47	11801.93
637.664	11607.37
637.857	11132.25
638.051	10624.35
638.244	10282.34
638.438	9895.27
638.632	9577.84
638.825	8797.56
639.019	8883.58
639.212	8402.3
639.406	7959.94
639.599	7705.99
639.793	7445.9
639.986	7140.76
640.18	6968.73
640.373	6534.56
640.567	6331.81
640.76	6163.87
640.954	5922.21
641.147	5637.55
641.34	5410.22
641.534	5440.94
641.727	5166.51
641.92	4849.08
642.114	4734.39
642.307	4398.52
642.5	4330.94
642.694	4120
642.887	3954.12
643.08	4019.65
643.273	3775.94
643.467	3526.09
643.66	3354.06
643.853	3266
644.046	3165.65
644.239	2928.08
644.432	2915.8
644.626	2743.77
644.819	2725.33
645.012	2610.65
645.205	2522.59
645.398	2428.38
645.591	2311.64
645.784	2153.95
645.977	2164.19
646.17	2176.48
646.363	1781.22
646.556	1789.41
646.749	1781.22
646.942	1727.97
647.135	1768.93
647.328	1553.9
647.521	1617.38
647.714	1514.98
647.907	1478.12
648.099	1394.15
648.292	1510.89
648.485	1306.09
648.678	1279.47
648.871	1215.98
649.064	1265.13
649.256	1107.44
649.449	1109.49
649.642	994.8
649.835	904.69
650.027	925.17
650.22	1039.86
650.413	884.21
650.605	900.59
650.798	904.69
650.991	865.78
651.183	853.49
651.376	775.67
651.568	898.55
651.761	730.61
651.954	728.56
652.146	681.46
652.339	757.24
652.531	802.29
652.724	548.34
652.916	654.84
653.109	491
653.301	656.89
653.494	640.5
653.686	589.3
653.879	597.49
654.071	587.26
654.263	488.95
654.456	470.52
654.648	548.34
654.84	556.54
655.033	476.66
655.225	497.14
655.417	318.97
655.61	581.11
655.802	488.95
655.994	538.1
656.186	364.03
656.379	486.9
656.571	337.4
656.763	433.66
656.955	368.12
657.148	284.16
657.34	450.04
657.532	390.65
657.724	296.44
657.916	331.26
658.108	431.61
658.3	415.23
658.492	343.55
658.684	298.49
658.876	454.14
659.068	173.57
659.26	232.96
659.452	314.88
659.644	269.82
659.836	361.98
660.028	337.4
660.22	249.34
660.412	288.25
660.604	251.39
660.796	284.16
660.988	271.87
661.18	286.2
661.372	298.49
661.563	314.88
661.755	306.68
661.947	103.93
662.139	308.73
662.331	263.68
662.522	245.24
662.714	265.72
662.906	185.85
663.097	263.68
663.289	208.38
663.481	83.45
663.673	265.72
663.864	212.48
664.056	243.2
664.247	132.61
664.439	273.92
664.631	163.33
664.822	187.9
665.014	179.71
665.205	196.09
665.397	171.52
665.588	200.19
665.78	177.66
665.971	224.76
666.163	181.76
666.354	261.63
666.546	157.18
666.737	224.76
666.929	179.71
667.12	204.28
667.311	292.35
667.503	224.76
667.694	237.05
667.885	226.81
668.077	173.57
668.268	71.17
668.459	175.61
668.651	204.28
668.842	226.81
669.033	165.37
669.224	151.04
669.416	378.36
669.607	232.96
669.798	194.05
669.989	347.64
670.18	185.85
670.371	298.49
670.563	189.95
670.754	239.1
670.945	263.68
671.136	300.54
671.327	192
671.518	255.48
671.709	265.72
671.9	224.76
672.091	226.81
672.282	187.9
672.473	187.9
672.664	228.86
672.855	177.66
673.046	257.53
673.237	304.64
673.428	247.29
673.619	235
673.809	218.62
674	294.4
674.191	294.4
674.382	267.77
674.573	259.58
674.764	271.87
674.954	325.12
675.145	208.38
675.336	212.48
675.527	128.51
675.717	216.57
675.908	185.85
676.099	144.89
676.289	257.53
676.48	177.66
676.671	245.24
676.861	284.16
677.052	304.64
677.243	249.34
677.433	275.96
677.624	278.01
677.814	302.59
678.005	263.68
678.195	390.65
678.386	286.2
678.576	321.02
678.767	138.75
678.957	265.72
679.148	417.27
679.338	325.12
679.529	347.64
679.719	327.16
679.909	335.35
680.1	439.8
680.29	278.01
680.481	257.53
680.671	398.84
680.861	364.03
681.052	419.32
681.242	275.96
681.432	437.75
681.622	351.74
681.813	290.3
682.003	376.31
682.193	273.92
682.383	431.61
682.573	335.35
682.764	323.07
682.954	284.16
683.144	466.42
683.334	382.46
683.524	329.21
683.714	341.5
683.904	454.14
684.094	364.03
684.284	429.56
684.474	464.38
684.664	370.17
684.854	441.85
685.044	372.22
685.234	359.93
685.424	411.13
685.614	331.26
685.804	527.86
685.994	384.51
686.184	353.79
686.374	454.14
686.564	407.03
686.753	441.85
686.943	294.4
687.133	343.55
687.323	433.66
687.513	306.68
687.702	359.93
687.892	439.8
688.082	427.51
688.272	454.14
688.461	445.95
688.651	460.28
688.841	421.37
689.03	249.34
689.22	368.12
689.41	472.57
689.599	300.54
689.789	339.45
689.979	413.18
690.168	359.93
690.358	499.19
690.547	361.98
690.737	370.17
690.926	374.27
691.116	351.74
691.305	468.47
691.495	439.8
691.684	239.1
691.874	294.4
692.063	323.07
692.252	398.84
692.442	503.29
692.631	323.07
692.82	316.92
693.01	343.55
693.199	374.27
693.388	386.55
693.578	419.32
693.767	445.95
693.956	384.51
694.146	351.74
694.335	310.78
694.524	331.26
694.713	366.07
694.902	361.98
695.092	325.12
695.281	407.03
695.47	267.77
695.659	280.06
695.848	351.74
696.037	329.21
696.226	357.88
696.415	321.02
696.604	458.23
696.793	413.18
696.982	282.11
697.171	466.42
697.36	327.16
697.549	390.65
697.738	253.44
697.927	249.34
698.116	255.48
698.305	357.88
698.494	343.55
698.683	304.64
698.872	499.19
699.061	421.37
699.25	290.3
699.438	337.4
699.627	275.96
699.816	474.62
700.005	169.47
700.193	232.96
700.382	466.42
700.571	314.88
700.76	275.96
700.948	337.4
701.137	341.5
701.326	327.16
701.514	341.5
701.703	335.35
701.892	382.46
702.08	493.05
702.269	316.92
702.457	265.72
702.646	288.25
702.834	314.88
703.023	394.75
703.212	310.78
703.4	269.82
703.589	327.16
703.777	278.01
703.965	200.19
704.154	318.97
704.342	245.24
704.531	249.34
704.719	304.64
704.907	331.26
705.096	302.59
705.284	259.58
705.472	257.53
705.661	335.35
705.849	413.18
706.037	394.75
706.226	366.07
706.414	325.12
706.602	298.49
706.79	253.44
706.979	286.2
707.167	292.35
707.355	181.76
707.543	296.44
707.731	357.88
707.919	310.78
708.107	200.19
708.296	265.72
708.484	226.81
708.672	288.25
708.86	323.07
709.048	249.34
709.236	177.66
709.424	323.07
709.612	439.8
709.8	243.2
709.988	318.97
710.176	302.59
710.364	282.11
710.551	327.16
710.739	255.48
710.927	271.87
711.115	271.87
711.303	404.99
711.491	376.31
711.679	226.81
711.866	286.2
712.054	251.39
712.242	390.65
712.43	306.68
712.617	200.19
712.805	368.12
712.993	321.02
713.181	198.14
713.368	339.45
713.556	259.58
713.744	251.39
713.931	450.04
714.119	359.93
714.306	192
714.494	259.58
714.682	241.15
714.869	280.06
715.057	323.07
715.244	142.85
715.432	286.2
715.619	210.43
715.807	323.07
715.994	255.48
716.182	280.06
716.369	314.88
716.556	343.55
716.744	255.48
716.931	359.93
717.119	280.06
717.306	400.89
717.493	337.4
717.681	302.59
717.868	224.76
718.055	323.07
718.242	312.83
718.43	329.21
718.617	409.08
718.804	312.83
718.991	372.22
719.179	368.12
719.366	257.53
719.553	343.55
719.74	337.4
719.927	245.24
720.114	386.55
720.301	282.11
720.488	300.54
720.676	316.92
720.863	378.36
721.05	488.95
721.237	361.98
721.424	361.98
721.611	396.79
721.798	210.43
721.985	220.67
722.172	450.04
722.358	368.12
722.545	361.98
722.732	331.26
722.919	429.56
723.106	402.94
723.293	329.21
723.48	308.73
723.667	327.16
723.853	308.73
724.04	378.36
724.227	390.65
724.414	306.68
724.6	349.69
724.787	478.71
724.974	421.37
725.161	390.65
725.347	300.54
725.534	368.12
725.72	325.12
725.907	404.99
726.094	431.61
726.28	263.68
726.467	347.64
726.653	267.77
726.84	509.43
727.027	488.95
727.213	364.03
727.4	374.27
727.586	394.75
727.773	441.85
727.959	345.59
728.145	353.79
728.332	364.03
728.518	294.4
728.705	462.33
728.891	374.27
729.077	425.47
729.264	409.08
729.45	314.88
729.636	478.71
729.823	353.79
730.009	447.99
730.195	370.17
730.382	439.8
730.568	245.24
730.754	361.98
730.94	411.13
731.126	417.27
731.313	447.99
731.499	306.68
731.685	390.65
731.871	411.13
732.057	376.31
732.243	447.99
732.429	380.41
732.615	468.47
732.801	419.32
732.987	374.27
733.173	312.83
733.359	325.12
733.545	370.17
733.731	390.65
733.917	495.1
734.103	445.95
734.289	464.38
734.475	296.44
734.661	542.2
734.847	347.64
735.033	433.66
735.219	433.66
735.404	392.7
735.59	351.74
735.776	439.8
735.962	415.23
736.148	460.28
736.333	517.62
736.519	353.79
736.705	400.89
736.89	361.98
737.076	288.25
737.262	329.21
737.447	415.23
737.633	450.04
737.819	450.04
738.004	343.55
738.19	396.79
738.375	419.32
738.561	460.28
738.747	398.84
738.932	370.17
739.118	568.82
739.303	366.07
739.489	443.9
739.674	390.65
739.859	441.85
740.045	425.47
740.23	441.85
740.416	333.31
740.601	431.61
740.786	431.61
740.972	359.93
741.157	333.31
741.342	310.78
741.528	370.17
741.713	419.32
741.898	382.46
742.084	450.04
742.269	288.25
742.454	435.71
742.639	398.84
742.824	337.4
743.01	470.52
743.195	546.3
743.38	404.99
743.565	331.26
743.75	421.37
743.935	441.85
744.12	548.34
744.305	312.83
744.49	415.23
744.675	314.88
744.86	296.44
745.045	431.61
745.23	306.68
745.415	343.55
745.6	460.28
745.785	286.2
745.97	409.08
746.155	382.46
746.34	472.57
746.525	282.11
746.71	505.34
746.895	337.4
747.079	247.29
747.264	282.11
747.449	392.7
747.634	433.66
747.819	368.12
748.003	314.88
748.188	331.26
748.373	392.7
748.557	302.59
748.742	353.79
748.927	394.75
749.111	235
749.296	339.45
749.481	409.08
749.665	308.73
749.85	359.93
750.034	263.68
750.219	327.16
750.404	302.59
750.588	388.6
750.773	247.29
750.957	355.83
751.141	282.11
751.326	300.54
751.51	237.05
751.695	271.87
751.879	327.16
752.064	425.47
752.248	341.5
752.432	396.79
752.617	359.93
752.801	378.36
752.985	284.16
753.17	347.64
753.354	308.73
753.538	361.98
753.722	253.44
753.907	241.15
754.091	230.91
754.275	294.4
754.459	243.2
754.643	210.43
754.828	376.31
755.012	312.83
755.196	118.27
755.38	284.16
755.564	312.83
755.748	294.4
755.932	329.21
756.116	318.97
756.3	269.82
756.484	185.85
756.668	265.72
756.852	130.56
757.036	185.85
757.22	269.82
757.404	222.72
757.588	177.66
757.772	177.66
757.956	157.18
758.14	312.83
758.323	153.09
758.507	247.29
758.691	151.04
758.875	257.53
759.059	392.7
759.242	257.53
759.426	237.05
759.61	204.28
759.794	153.09
759.977	216.57
760.161	413.18
760.345	327.16
760.528	282.11
760.712	278.01
760.895	230.91
761.079	241.15
761.263	95.74
761.446	208.38
761.63	183.81
761.813	222.72
761.997	194.05
762.18	146.94
762.364	249.34
762.547	81.41
762.731	167.42
762.914	136.7
763.098	148.99
763.281	216.57
763.464	151.04
763.648	206.33
763.831	105.98
764.015	114.17
764.198	171.52
764.381	126.46
764.564	161.28
764.748	235
764.931	189.95
765.114	157.18
765.297	228.86
765.481	171.52
765.664	167.42
765.847	128.51
766.03	261.63
766.213	101.89
766.397	161.28
766.58	52.74
766.763	148.99
766.946	138.75
767.129	108.03
767.312	48.64
767.495	181.76
767.678	110.08
767.861	216.57
768.044	183.81
768.227	230.91
768.41	-4.61
768.593	200.19
768.776	126.46
768.959	132.61
769.142	310.78
769.324	91.65
769.507	165.37
769.69	87.55
769.873	99.84
770.056	337.4
770.239	73.21
770.421	210.43
770.604	183.81
770.787	87.55
770.97	192
771.152	75.26
771.335	204.28
771.518	38.4
771.7	202.24
771.883	286.2
772.066	124.41
772.248	103.93
772.431	185.85
772.613	151.04
772.796	87.55
772.978	157.18
773.161	218.62
773.343	95.74
773.526	103.93
773.708	17.92
773.891	62.98
774.073	81.41
774.256	44.54
774.438	192
774.621	28.16
774.803	198.14
774.985	81.41
775.168	204.28
775.35	77.31
775.532	122.37
775.715	60.93
775.897	112.13
776.079	124.41
776.261	118.27
776.444	101.89
776.626	112.13
776.808	132.61
776.99	48.64
777.173	93.69
777.355	36.35
777.537	91.65
777.719	116.22
777.901	73.21
778.083	48.64
778.265	-51.71
778.447	161.28
778.629	87.55
778.811	138.75
778.993	138.75
779.175	97.79
779.357	19.97
779.539	44.54
779.721	83.45
779.903	122.37
780.085	5.63
780.267	52.74
780.449	114.17
780.631	122.37
780.812	249.34
780.994	52.74
781.176	99.84
781.358	120.32
781.54	101.89
781.721	124.41
781.903	122.37
782.085	87.55
782.267	122.37
782.448	-6.66
782.63	46.59
782.812	128.51
782.993	114.17
783.175	103.93
783.357	36.35
783.538	128.51
783.72	-33.28
783.901	30.21
784.083	85.5
784.264	151.04
784.446	54.78
784.627	46.59
784.809	153.09
784.99	40.45
785.172	101.89
785.353	13.82
785.535	103.93
785.716	22.02
785.897	30.21
786.079	85.5
786.26	71.17
786.441	87.55
786.623	-100.86
786.804	-39.42
786.985	52.74
787.167	62.98
787.348	159.23
787.529	112.13
787.71	161.28
787.891	77.31
788.073	42.5
788.254	-35.33
788.435	161.28
788.616	89.6
788.797	-18.94
788.978	81.41
789.159	95.74
789.34	81.41
789.522	46.59
789.703	3.58
789.884	103.93
790.065	67.07
790.246	216.57
790.427	30.21
790.607	132.61
790.788	140.8
790.969	28.16
791.15	116.22
791.331	-37.38
791.512	22.02
791.693	-12.8
791.874	54.78
792.054	200.19
792.235	177.66
792.416	24.06
792.597	11.78
792.778	163.33
792.958	99.84
793.139	-6.66
793.32	50.69
793.5	17.92
793.681	89.6
793.862	148.99
794.042	99.84
794.223	-35.33
794.404	19.97
794.584	15.87
794.765	30.21
794.945	26.11
795.126	36.35
795.306	175.61
795.487	114.17
795.667	73.21
795.848	93.69
796.028	148.99
796.209	48.64
796.389	130.56
796.57	28.16
796.75	-39.42
796.93	-18.94
797.111	-16.9
797.291	24.06
797.471	97.79
797.652	26.11
797.832	-55.81
798.012	112.13
798.192	-8.7
798.373	-72.19
798.553	9.73
798.733	71.17
798.913	-27.14
799.093	24.06
799.274	118.27
799.454	130.56
799.634	105.98
799.814	36.35
799.994	-29.18
800.174	-16.9
800.354	85.5
800.534	-45.57
800.714	110.08
800.894	-27.14
801.074	-88.57
801.254	52.74
801.434	206.33
801.614	30.21
801.794	-8.7
801.974	1832.42
802.154	-25.09
802.334	165.37
802.514	-0.51
802.693	85.5
802.873	-37.38
803.053	148.99
803.233	108.03
803.413	-10.75
803.592	24.06
803.772	17.92
803.952	99.84
804.131	-4.61
804.311	89.6
804.491	101.89
804.67	30.21
804.85	9.73
805.03	93.69
805.209	120.32
805.389	-0.51
805.568	30.21
805.748	-41.47
805.928	36.35
806.107	85.5
806.287	99.84
806.466	22.02
806.646	36.35
806.825	81.41
807.004	5.63
807.184	116.22
807.363	71.17
807.543	26.11
807.722	-96.77
807.901	97.79
808.081	155.13
808.26	-111.1
808.439	42.5
808.619	62.98
808.798	22.02
808.977	42.5
809.156	89.6
809.336	-16.9
809.515	157.18
809.694	-59.9
809.873	-61.95
810.052	69.12
810.231	146.94
810.411	38.4
810.59	122.37
810.769	22.02
810.948	73.21
811.127	-113.15
811.306	22.02
811.485	-6.66
811.664	177.66
811.843	114.17
812.022	5.63
812.201	56.83
812.38	65.02
812.559	-14.85
812.737	134.65
812.916	-94.72
813.095	15.87
813.274	101.89
813.453	97.79
813.632	77.31
813.811	144.89
813.989	-45.57
814.168	-37.38
814.347	28.16
814.526	9.73
814.704	85.5
814.883	130.56
815.062	-29.18
815.24	108.03
815.419	-107.01
815.598	-35.33
815.776	-53.76
815.955	56.83
816.133	-55.81
816.312	19.97
816.49	19.97
816.669	36.35
816.847	-4.61
817.026	32.26
817.204	22.02
817.383	3.58
817.561	-66.05
817.74	65.02
817.918	-16.9
818.097	44.54
818.275	17.92
818.453	30.21
818.632	58.88
818.81	-16.9
818.988	-80.38
819.167	-16.9
819.345	32.26
819.523	-33.28
819.701	52.74
819.879	-20.99
820.058	28.16
820.236	26.11
820.414	-39.42
820.592	-37.38
820.77	40.45
820.948	-61.95
821.127	17.92
821.305	38.4
821.483	-55.81
821.661	93.69
821.839	26.11
822.017	-84.48
822.195	-20.99
822.373	91.65
822.551	38.4
822.729	79.36
822.907	-37.38
823.085	38.4
823.262	58.88
823.44	36.35
823.618	-0.51
823.796	-6.66
823.974	24.06
824.152	-78.33
824.329	34.3
824.507	52.74
824.685	85.5
824.863	-31.23
825.04	3.58
825.218	50.69
825.396	38.4
825.574	62.98
825.751	65.02
825.929	110.08
826.107	-109.05
826.284	7.68
826.462	36.35
826.639	-98.81
826.817	-55.81
826.994	105.98
827.172	-16.9
827.349	146.94
827.527	-0.51
827.704	24.06
827.882	56.83
828.059	-12.8
828.237	40.45
828.414	36.35
828.591	-133.63
828.769	-6.66
828.946	-6.66
829.124	97.79
829.301	101.89
829.478	-66.05
829.655	15.87
829.833	56.83
830.01	-74.24
830.187	52.74
830.364	7.68
830.542	58.88
830.719	38.4
830.896	56.83
831.073	58.88
831.25	77.31
831.427	112.13
831.604	24.06
831.782	-55.81
831.959	112.13
832.136	48.64
832.313	-4.61
832.49	-20.99
832.667	75.26
832.844	-72.19
833.021	114.17
833.198	-47.62
833.374	1.54
833.551	69.12
833.728	7.68
833.905	69.12
834.082	-80.38
834.259	46.59
834.436	77.31
834.612	-35.33
834.789	48.64
834.966	24.06
835.143	46.59
835.319	-10.75
835.496	26.11
835.673	81.41
835.85	60.93
836.026	89.6
836.203	85.5
836.38	-57.86
836.556	26.11
836.733	-2.56
836.909	93.69
837.086	54.78
837.262	-33.28
837.439	9.73
837.616	-10.75
837.792	-33.28
837.968	50.69
838.145	-100.86
838.321	3.58
838.498	97.79
838.674	128.51
838.851	58.88
839.027	28.16
839.203	32.26
839.38	75.26
839.556	-12.8
839.732	73.21
839.909	24.06
840.085	56.83
840.261	-104.96
840.437	101.89
840.614	-47.62
840.79	103.93
840.966	46.59
841.142	34.3
841.318	-29.18
841.494	83.45
841.671	91.65
841.847	30.21
842.023	-74.24
842.199	52.74
842.375	52.74
842.551	-119.29
842.727	-113.15
842.903	128.51
843.079	-16.9
843.255	69.12
843.431	22.02
843.607	60.93
843.783	-80.38
843.959	7.68
844.134	-76.29
844.31	91.65
844.486	-78.33
844.662	-6.66
844.838	15.87
845.013	-2.56
845.189	50.69
845.365	75.26
845.541	15.87
845.716	-41.47
845.892	144.89
846.068	-41.47
846.244	-61.95
846.419	-27.14
846.595	19.97
846.77	-156.16
846.946	108.03
847.122	36.35
847.297	-64
847.473	136.7
847.648	-16.9
847.824	62.98
847.999	-55.81
848.175	-41.47
848.35	-51.71
848.526	42.5
848.701	7.68
848.876	110.08
849.052	93.69
849.227	13.82
849.403	71.17
849.578	-68.09
849.753	112.13
849.929	69.12
850.104	-162.3
850.279	-6.66
850.454	69.12
850.63	62.98
850.805	22.02
850.98	-4.61
851.155	28.16
851.33	75.26
851.505	-43.52
851.681	112.13
851.856	-0.51
852.031	75.26
852.206	19.97
852.381	-45.57
852.556	-14.85
852.731	79.36
852.906	56.83
853.081	110.08
853.256	85.5
853.431	3.58
853.606	22.02
853.781	-12.8
853.956	-20.99
854.131	44.54
854.305	-84.48
854.48	3.58
854.655	-29.18
854.83	-41.47
855.005	-117.25
855.18	40.45
855.354	32.26
855.529	69.12
855.704	-18.94
855.879	-14.85
856.053	9.73
856.228	-16.9
856.403	-66.05
856.577	1.54
856.752	-66.05
856.926	48.64
857.101	40.45
857.276	-39.42
857.45	-4.61
857.625	69.12
857.799	19.97
857.974	19.97
858.148	-55.81
858.323	32.26
858.497	-86.53
858.672	-37.38
858.846	-16.9
859.02	151.04
859.195	-45.57
859.369	-6.66
859.543	40.45
859.718	-27.14
859.892	-14.85
860.066	58.88
860.241	-6.66
860.415	17.92
860.589	62.98
860.763	13.82
860.938	22.02
861.112	-25.09
861.286	-2.56
861.46	-25.09
861.634	24.06
861.808	91.65
861.982	-78.33
862.157	-61.95
862.331	-37.38
862.505	11.78
862.679	-94.72
862.853	15.87
863.027	-16.9
863.201	112.13
863.375	1.54
863.549	15.87
863.722	52.74
863.896	83.45
864.07	-2.56
864.244	81.41
864.418	110.08
864.592	17.92
864.766	7.68
864.939	-6.66
865.113	1.54
865.287	124.41
865.461	-29.18
865.634	-18.94
865.808	-18.94
865.982	3.58
866.156	-0.51
866.329	-29.18
866.503	60.93
866.676	56.83
866.85	-10.75
867.024	-43.52
867.197	85.5
867.371	116.22
867.544	13.82
867.718	-33.28
867.891	69.12
868.065	-53.76
868.238	36.35
868.412	91.65
868.585	-14.85
868.759	79.36
868.932	-43.52
869.105	-68.09
869.279	-12.8
869.452	-47.62
869.625	60.93
869.799	-43.52
869.972	-45.57
870.145	15.87
870.319	118.27
870.492	-70.14
870.665	-12.8
870.838	-76.29
871.011	-72.19
871.185	11.78
871.358	-27.14
871.531	42.5
871.704	89.6
871.877	52.74
872.05	-53.76
872.223	-43.52
872.396	85.5
872.569	126.46
872.742	-51.71
872.915	95.74
873.088	9.73
873.261	1.54
873.434	112.13
873.607	3.58
873.78	65.02
873.953	-51.71
874.126	44.54
874.299	19.97
874.471	-100.86
874.644	-33.28
874.817	79.36
874.99	134.65
875.163	-51.71
875.335	9.73
875.508	11.78
875.681	132.61
875.853	-31.23
876.026	19.97
876.199	48.64
876.371	22.02
876.544	54.78
876.717	-16.9
876.889	-39.42
877.062	67.07
877.234	-109.05
877.407	7.68
877.579	30.21
877.752	3.58
877.924	83.45
878.097	26.11
878.269	-49.66
878.442	9.73
878.614	42.5
878.786	42.5
878.959	32.26
879.131	-8.7
879.303	-66.05
879.476	28.16
879.648	62.98
879.82	3.58
879.993	-51.71
880.165	-4.61
880.337	-31.23
880.509	9.73
880.681	-43.52
880.854	-16.9
881.026	7.68
881.198	136.7
881.37	32.26
881.542	-37.38
881.714	-43.52
881.886	-51.71
882.058	-23.04
882.23	9.73
882.402	-20.99
882.574	112.13
882.746	15.87
882.918	194.05
883.09	118.27
883.262	79.36
883.434	-2.56
883.606	-117.25
883.778	34.3
883.95	112.13
884.122	-10.75
884.293	85.5
884.465	71.17
884.637	40.45
884.809	-47.62
884.98	-31.23
885.152	77.31
885.324	30.21
885.496	-96.77
885.667	-18.94
885.839	-8.7
886.011	77.31
886.182	-12.8
886.354	17.92
886.525	69.12
886.697	50.69
886.869	-121.34
887.04	11.78
887.212	105.98
887.383	122.37
887.555	52.74
887.726	-49.66
887.897	11.78
888.069	15.87
888.24	126.46
888.412	52.74
888.583	-47.62
888.754	22.02
888.926	-72.19
889.097	-86.53
889.268	-100.86
889.44	26.11
889.611	-53.76
889.782	-86.53
889.953	-49.66
890.125	114.17
890.296	-29.18
890.467	-51.71
890.638	-0.51
890.809	11.78
890.98	-86.53
891.151	17.92
891.323	161.28
891.494	11.78
891.665	-6.66
891.836	1.54
892.007	44.54
892.178	-2.56
892.349	71.17
892.52	-94.72
892.691	7.68
892.862	-29.18
893.032	-125.44
893.203	-51.71
893.374	40.45
893.545	81.41
893.716	-53.76
893.887	95.74
894.057	-8.7
894.228	62.98
894.399	-41.47
894.57	118.27
894.74	-41.47
894.911	13.82
895.082	-31.23
895.253	-27.14
895.423	13.82
895.594	-6.66
895.764	99.84
895.935	-92.67
896.106	79.36
896.276	-74.24
896.447	77.31
896.617	-102.91
896.788	3.58
896.958	-76.29
897.129	-16.9
897.299	-84.48
897.47	77.31
897.64	36.35
897.81	24.06
897.981	5.63
898.151	9.73
898.322	95.74
898.492	15.87
898.662	-18.94
898.832	1.54
899.003	-66.05
899.173	54.78
899.343	-2.56
899.513	-76.29
