Data from USB4F104151__131__10-46-26-756.txt Node

Date: Wed Feb 26 10:46:26 EST 2025
User: louis
Spectrometer: USB4F10415
Trigger mode: 4
Integration Time (sec): 1.000000E-1
Scans to average: 1
Electric dark correction enabled: true
Nonlinearity correction enabled: false
Boxcar width: 0
XAxis mode: Wavelengths
Number of Pixels in Spectrum: 3648
>>>>>Begin Spectral Data<<<<<
178.204	-460.62
178.424	-460.62
178.644	-460.62
178.864	-448.33
179.084	-405.33
179.304	-8.02
179.524	24.75
179.744	-22.36
179.964	32.94
180.184	34.99
180.404	-32.6
180.624	-34.64
180.844	6.31
181.064	-89.94
181.283	18.6
181.503	-32.6
181.723	102.57
181.943	-89.94
182.163	178.34
182.383	-24.4
182.602	39.08
182.822	123.05
183.042	67.75
183.262	-26.45
183.482	71.85
183.701	59.56
183.921	-32.6
184.141	-79.7
184.361	49.32
184.58	75.95
184.8	37.03
185.02	-8.02
185.239	10.41
185.459	98.47
185.679	180.39
185.898	-83.8
186.118	22.7
186.338	67.75
186.557	135.34
186.777	22.7
186.997	34.99
187.216	47.27
187.436	233.64
187.655	71.85
187.875	84.14
188.095	39.08
188.314	147.62
188.534	143.53
188.753	-28.5
188.973	108.71
189.192	200.87
189.412	12.46
189.631	37.03
189.851	18.6
190.07	170.15
190.29	-53.08
190.509	20.65
190.729	-32.6
190.948	121
191.168	252.07
191.387	73.9
191.607	-1.88
191.826	147.62
192.045	-14.17
192.265	-18.26
192.484	71.85
192.704	-3.93
192.923	-42.84
193.142	153.77
193.362	84.14
193.581	182.44
193.8	39.08
194.02	71.85
194.239	-3.93
194.458	45.23
194.678	39.08
194.897	-32.6
195.116	118.95
195.335	34.99
195.555	51.37
195.774	-16.21
195.993	102.57
196.212	59.56
196.432	-3.93
196.651	-12.12
196.87	-10.07
197.089	192.68
197.308	77.99
197.528	94.38
197.747	-12.12
197.966	34.99
198.185	92.33
198.404	-1.88
198.623	61.61
198.842	61.61
199.062	164.01
199.281	145.58
199.5	32.94
199.719	106.67
199.938	110.76
200.157	43.18
200.376	28.84
200.595	155.82
200.814	71.85
201.033	-22.36
201.252	135.34
201.471	92.33
201.69	100.52
201.909	32.94
202.128	135.34
202.347	37.03
202.566	20.65
202.785	-57.17
203.004	-53.08
203.223	219.3
203.442	30.89
203.661	-75.6
203.879	59.56
204.098	108.71
204.317	51.37
204.536	168.1
204.755	147.62
204.974	90.28
205.193	43.18
205.411	137.38
205.63	69.8
205.849	47.27
206.068	-108.37
206.287	6.31
206.505	141.48
206.724	90.28
206.943	2.22
207.162	-53.08
207.381	100.52
207.599	-14.17
207.818	104.62
208.037	-22.36
208.255	104.62
208.474	100.52
208.693	-5.97
208.911	16.55
209.13	121
209.349	71.85
209.567	61.61
209.786	110.76
210.005	45.23
210.223	112.81
210.442	39.08
210.661	6.31
210.879	61.61
211.098	90.28
211.316	47.27
211.535	121
211.753	32.94
211.972	37.03
212.191	2.22
212.409	57.51
212.628	71.85
212.846	-3.93
213.065	106.67
213.283	80.04
213.502	108.71
213.72	73.9
213.938	26.79
214.157	-18.26
214.375	172.2
214.594	16.55
214.812	84.14
215.031	53.42
215.249	92.33
215.467	37.03
215.686	34.99
215.904	75.95
216.122	-14.17
216.341	161.96
216.559	88.23
216.778	20.65
216.996	123.05
217.214	10.41
217.432	-3.93
217.651	-22.36
217.869	51.37
218.087	82.09
218.306	67.75
218.524	34.99
218.742	98.47
218.96	121
219.179	41.13
219.397	104.62
219.615	176.3
219.833	157.86
220.051	-55.12
220.27	161.96
220.488	143.53
220.706	96.43
220.924	-30.55
221.142	-12.12
221.36	43.18
221.578	86.19
221.796	-10.07
222.015	84.14
222.233	-1.88
222.451	92.33
222.669	-16.21
222.887	106.67
223.105	-3.93
223.323	32.94
223.541	-12.12
223.759	10.41
223.977	26.79
224.195	180.39
224.413	37.03
224.631	100.52
224.849	114.86
225.067	102.57
225.285	-32.6
225.503	-26.45
225.721	-91.99
225.939	112.81
226.157	80.04
226.375	254.12
226.592	-63.32
226.81	-18.26
227.028	90.28
227.246	170.15
227.464	51.37
227.682	155.82
227.9	69.8
228.117	24.75
228.335	161.96
228.553	155.82
228.771	-48.98
228.989	73.9
229.206	-38.74
229.424	26.79
229.642	47.27
229.86	-98.13
230.077	180.39
230.295	-20.31
230.513	125.1
230.731	61.61
230.948	219.3
231.166	180.39
231.384	-14.17
231.601	-10.07
231.819	123.05
232.037	8.36
232.254	-5.97
232.472	45.23
232.689	69.8
232.907	69.8
233.125	108.71
233.342	-85.84
233.56	14.51
233.777	24.75
233.995	-38.74
234.213	104.62
234.43	71.85
234.648	88.23
234.865	-3.93
235.083	-1.88
235.3	53.42
235.518	49.32
235.735	135.34
235.953	22.7
236.17	28.84
236.388	37.03
236.605	16.55
236.822	65.71
237.04	92.33
237.257	59.56
237.475	-59.22
237.692	92.33
237.909	108.71
238.127	55.47
238.344	114.86
238.562	45.23
238.779	-75.6
238.996	-42.84
239.214	43.18
239.431	92.33
239.648	4.27
239.865	34.99
240.083	123.05
240.3	53.42
240.517	16.55
240.735	8.36
240.952	172.2
241.169	59.56
241.386	55.47
241.603	59.56
241.821	-1.88
242.038	159.91
242.255	159.91
242.472	-98.13
242.689	121
242.907	59.56
243.124	96.43
243.341	55.47
243.558	2.22
243.775	-51.03
243.992	-69.46
244.209	71.85
244.426	178.34
244.643	22.7
244.86	118.95
245.078	170.15
245.295	71.85
245.512	69.8
245.729	-34.64
245.946	61.61
246.163	61.61
246.38	-28.5
246.597	170.15
246.814	10.41
247.031	-24.4
247.248	24.75
247.464	196.78
247.681	102.57
247.898	100.52
248.115	159.91
248.332	37.03
248.549	67.75
248.766	112.81
248.983	53.42
249.2	96.43
249.417	104.62
249.633	-1.88
249.85	131.24
250.067	22.7
250.284	71.85
250.501	41.13
250.717	118.95
250.934	-59.22
251.151	39.08
251.368	-40.79
251.585	51.37
251.801	63.66
252.018	20.65
252.235	92.33
252.451	4.27
252.668	39.08
252.885	227.5
253.102	37.03
253.318	28.84
253.535	51.37
253.752	57.51
253.968	32.94
254.185	-48.98
254.401	80.04
254.618	37.03
254.835	49.32
255.051	131.24
255.268	168.1
255.484	57.51
255.701	67.75
255.917	88.23
256.134	-46.93
256.351	116.9
256.567	2.22
256.784	43.18
257	-26.45
257.217	-8.02
257.433	92.33
257.65	73.9
257.866	118.95
258.082	43.18
258.299	22.7
258.515	55.47
258.732	10.41
258.948	-8.02
259.165	121
259.381	-26.45
259.597	118.95
259.814	34.99
260.03	63.66
260.246	0.17
260.463	88.23
260.679	129.19
260.895	6.31
261.112	82.09
261.328	39.08
261.544	-26.45
261.761	121
261.977	39.08
262.193	-94.04
262.409	53.42
262.626	59.56
262.842	37.03
263.058	22.7
263.274	121
263.49	118.95
263.707	127.14
263.923	114.86
264.139	-94.04
264.355	92.33
264.571	141.48
264.787	129.19
265.004	123.05
265.22	-8.02
265.436	-79.7
265.652	28.84
265.868	141.48
266.084	0.17
266.3	59.56
266.516	-51.03
266.732	90.28
266.948	22.7
267.164	2.22
267.38	135.34
267.596	34.99
267.812	180.39
268.028	-3.93
268.244	86.19
268.46	61.61
268.676	41.13
268.892	131.24
269.108	4.27
269.324	16.55
269.54	-75.6
269.756	161.96
269.972	-59.22
270.188	69.8
270.403	-40.79
270.619	49.32
270.835	55.47
271.051	84.14
271.267	-3.93
271.483	22.7
271.698	86.19
271.914	65.71
272.13	55.47
272.346	-14.17
272.562	2.22
272.777	157.86
272.993	28.84
273.209	-3.93
273.425	139.43
273.64	-36.69
273.856	110.76
274.072	-48.98
274.287	45.23
274.503	73.9
274.719	129.19
274.934	41.13
275.15	-100.18
275.366	47.27
275.581	-65.36
275.797	49.32
276.012	-14.17
276.228	-34.64
276.444	-46.93
276.659	198.82
276.875	43.18
277.09	63.66
277.306	82.09
277.521	121
277.737	92.33
277.952	77.99
278.168	-53.08
278.383	92.33
278.599	82.09
278.814	51.37
279.03	61.61
279.245	67.75
279.461	22.7
279.676	69.8
279.892	32.94
280.107	-77.65
280.322	6.31
280.538	108.71
280.753	-44.88
280.969	75.95
281.184	39.08
281.399	207.02
281.615	71.85
281.83	43.18
282.045	-87.89
282.26	-69.46
282.476	98.47
282.691	88.23
282.906	88.23
283.122	77.99
283.337	51.37
283.552	28.84
283.767	39.08
283.983	84.14
284.198	-18.26
284.413	94.38
284.628	-12.12
284.843	22.7
285.058	67.75
285.274	-38.74
285.489	32.94
285.704	49.32
285.919	-26.45
286.134	55.47
286.349	65.71
286.564	73.9
286.779	116.9
286.995	84.14
287.21	-38.74
287.425	127.14
287.64	-73.56
287.855	41.13
288.07	-34.64
288.285	110.76
288.5	157.86
288.715	112.81
288.93	51.37
289.145	43.18
289.36	121
289.575	-30.55
289.79	102.57
290.004	6.31
290.219	37.03
290.434	-12.12
290.649	61.61
290.864	59.56
291.079	8.36
291.294	43.18
291.509	6.31
291.724	-38.74
291.938	61.61
292.153	63.66
292.368	26.79
292.583	14.51
292.798	108.71
293.012	123.05
293.227	110.76
293.442	39.08
293.657	112.81
293.871	96.43
294.086	90.28
294.301	96.43
294.516	67.75
294.73	123.05
294.945	-30.55
295.16	43.18
295.374	108.71
295.589	20.65
295.804	10.41
296.018	59.56
296.233	100.52
296.447	32.94
296.662	-16.21
296.877	94.38
297.091	84.14
297.306	18.6
297.52	73.9
297.735	114.86
297.949	24.75
298.164	75.95
298.378	57.51
298.593	2.22
298.807	-44.88
299.022	14.51
299.236	147.62
299.451	8.36
299.665	26.79
299.88	63.66
300.094	59.56
300.309	92.33
300.523	47.27
300.737	55.47
300.952	45.23
301.166	98.47
301.381	-40.79
301.595	-14.17
301.809	47.27
302.024	-32.6
302.238	-38.74
302.452	196.78
302.667	6.31
302.881	110.76
303.095	121
303.309	0.17
303.524	16.55
303.738	39.08
303.952	-12.12
304.166	-10.07
304.381	-42.84
304.595	223.4
304.809	-1.88
305.023	65.71
305.237	37.03
305.452	-44.88
305.666	41.13
305.88	172.2
306.094	127.14
306.308	59.56
306.522	84.14
306.736	65.71
306.95	98.47
307.164	69.8
307.379	22.7
307.593	104.62
307.807	127.14
308.021	43.18
308.235	153.77
308.449	-32.6
308.663	2.22
308.877	266.41
309.091	-81.75
309.305	39.08
309.519	-51.03
309.733	151.72
309.947	-118.61
310.161	116.9
310.374	86.19
310.588	182.44
310.802	-46.93
311.016	-16.21
311.23	96.43
311.444	14.51
311.658	45.23
311.872	47.27
312.085	141.48
312.299	174.25
312.513	153.77
312.727	20.65
312.941	20.65
313.154	34.99
313.368	82.09
313.582	-12.12
313.796	102.57
314.009	39.08
314.223	125.1
314.437	94.38
314.651	100.52
314.864	-5.97
315.078	94.38
315.292	14.51
315.505	108.71
315.719	137.38
315.933	82.09
316.146	14.51
316.36	-5.97
316.573	133.29
316.787	-5.97
317.001	145.58
317.214	26.79
317.428	77.99
317.641	-26.45
317.855	22.7
318.068	73.9
318.282	-10.07
318.495	129.19
318.709	49.32
318.922	6.31
319.136	166.06
319.349	86.19
319.563	-5.97
319.776	90.28
319.99	-106.32
320.203	114.86
320.417	2.22
320.63	49.32
320.843	202.92
321.057	14.51
321.27	8.36
321.483	137.38
321.697	88.23
321.91	4.27
322.124	77.99
322.337	-1.88
322.55	26.79
322.763	96.43
322.977	-61.27
323.19	14.51
323.403	-5.97
323.617	143.53
323.83	53.42
324.043	28.84
324.256	16.55
324.469	2.22
324.683	137.38
324.896	110.76
325.109	-3.93
325.322	-65.36
325.535	131.24
325.748	127.14
325.962	39.08
326.175	-12.12
326.388	39.08
326.601	219.3
326.814	4.27
327.027	2.22
327.24	200.87
327.453	-126.8
327.666	133.29
327.879	106.67
328.092	84.14
328.305	100.52
328.518	-42.84
328.731	8.36
328.944	63.66
329.157	18.6
329.37	4.27
329.583	211.11
329.796	157.86
330.009	14.51
330.222	92.33
330.435	16.55
330.648	22.7
330.861	32.94
331.073	16.55
331.286	-14.17
331.499	12.46
331.712	18.6
331.925	34.99
332.138	37.03
332.35	145.58
332.563	51.37
332.776	104.62
332.989	-59.22
333.202	10.41
333.414	14.51
333.627	45.23
333.84	-1.88
334.053	16.55
334.265	112.81
334.478	20.65
334.691	14.51
334.903	0.17
335.116	-10.07
335.329	59.56
335.541	88.23
335.754	190.63
335.966	43.18
336.179	88.23
336.392	28.84
336.604	-10.07
336.817	102.57
337.029	110.76
337.242	53.42
337.454	135.34
337.667	75.95
337.88	178.34
338.092	121
338.305	34.99
338.517	28.84
338.729	6.31
338.942	207.02
339.154	-16.21
339.367	-94.04
339.579	106.67
339.792	-5.97
340.004	125.1
340.217	-14.17
340.429	26.79
340.641	-26.45
340.854	-53.08
341.066	-40.79
341.278	90.28
341.491	63.66
341.703	16.55
341.915	-20.31
342.128	149.67
342.34	-8.02
342.552	22.7
342.764	65.71
342.977	-10.07
343.189	41.13
343.401	80.04
343.613	-26.45
343.826	-8.02
344.038	-12.12
344.25	80.04
344.462	-12.12
344.674	88.23
344.886	20.65
345.099	10.41
345.311	121
345.523	-42.84
345.735	-20.31
345.947	61.61
346.159	100.52
346.371	63.66
346.583	-20.31
346.795	182.44
347.007	94.38
347.219	49.32
347.431	49.32
347.643	182.44
347.855	39.08
348.067	110.76
348.279	-42.84
348.491	49.32
348.703	135.34
348.915	104.62
349.127	-8.02
349.339	80.04
349.551	-16.21
349.763	143.53
349.975	73.9
350.187	100.52
350.399	98.47
350.61	53.42
350.822	80.04
351.034	92.33
351.246	24.75
351.458	43.18
351.669	71.85
351.881	2.22
352.093	127.14
352.305	153.77
352.517	65.71
352.728	110.76
352.94	106.67
353.152	82.09
353.363	24.75
353.575	104.62
353.787	104.62
353.999	63.66
354.21	164.01
354.422	-46.93
354.633	18.6
354.845	37.03
355.057	45.23
355.268	67.75
355.48	53.42
355.692	37.03
355.903	67.75
356.115	14.51
356.326	-141.14
356.538	196.78
356.749	75.95
356.961	73.9
357.172	47.27
357.384	10.41
357.595	149.67
357.807	0.17
358.018	65.71
358.23	34.99
358.441	209.06
358.653	65.71
358.864	22.7
359.075	49.32
359.287	43.18
359.498	149.67
359.709	94.38
359.921	6.31
360.132	51.37
360.344	102.57
360.555	2.22
360.766	100.52
360.977	22.7
361.189	104.62
361.4	49.32
361.611	94.38
361.823	84.14
362.034	53.42
362.245	-122.71
362.456	12.46
362.667	75.95
362.879	-20.31
363.09	137.38
363.301	67.75
363.512	55.47
363.723	-22.36
363.935	-26.45
364.146	137.38
364.357	6.31
364.568	116.9
364.779	-53.08
364.99	39.08
365.201	6.31
365.412	225.45
365.623	-83.8
365.834	41.13
366.045	20.65
366.256	45.23
366.467	86.19
366.678	49.32
366.889	-26.45
367.1	30.89
367.311	149.67
367.522	32.94
367.733	94.38
367.944	53.42
368.155	67.75
368.366	94.38
368.577	102.57
368.788	100.52
368.999	-14.17
369.209	133.29
369.42	186.54
369.631	219.3
369.842	121
370.053	-8.02
370.264	-8.02
370.474	39.08
370.685	-26.45
370.896	65.71
371.107	110.76
371.317	59.56
371.528	-34.64
371.739	153.77
371.95	43.18
372.16	73.9
372.371	45.23
372.582	-106.32
372.792	108.71
373.003	86.19
373.214	41.13
373.424	63.66
373.635	0.17
373.846	112.81
374.056	49.32
374.267	30.89
374.477	129.19
374.688	4.27
374.898	77.99
375.109	45.23
375.319	135.34
375.53	157.86
375.74	110.76
375.951	-14.17
376.161	55.47
376.372	151.72
376.582	-16.21
376.793	102.57
377.003	-26.45
377.214	-46.93
377.424	65.71
377.635	59.56
377.845	-46.93
378.055	215.21
378.266	-63.32
378.476	84.14
378.686	129.19
378.897	43.18
379.107	63.66
379.317	26.79
379.528	-14.17
379.738	90.28
379.948	-79.7
380.158	102.57
380.369	51.37
380.579	65.71
380.789	32.94
380.999	170.15
381.21	170.15
381.42	196.78
381.63	0.17
381.84	63.66
382.05	84.14
382.261	116.9
382.471	168.1
382.681	2.22
382.891	188.58
383.101	39.08
383.311	10.41
383.521	-126.8
383.731	16.55
383.941	123.05
384.151	2.22
384.361	24.75
384.571	30.89
384.781	39.08
384.991	215.21
385.201	88.23
385.411	114.86
385.621	75.95
385.831	18.6
386.041	53.42
386.251	-8.02
386.461	129.19
386.671	4.27
386.881	63.66
387.091	-14.17
387.301	57.51
387.511	153.77
387.72	49.32
387.93	71.85
388.14	-26.45
388.35	145.58
388.56	77.99
388.769	196.78
388.979	45.23
389.189	41.13
389.399	41.13
389.609	104.62
389.818	47.27
390.028	129.19
390.238	22.7
390.447	-1.88
390.657	116.9
390.867	57.51
391.076	-36.69
391.286	141.48
391.496	-10.07
391.705	61.61
391.915	149.67
392.125	90.28
392.334	61.61
392.544	192.68
392.753	75.95
392.963	-22.36
393.172	-10.07
393.382	26.79
393.591	231.59
393.801	22.7
394.01	186.54
394.22	41.13
394.429	82.09
394.639	32.94
394.848	86.19
395.058	96.43
395.267	-1.88
395.477	110.76
395.686	59.56
395.895	186.54
396.105	164.01
396.314	45.23
396.524	12.46
396.733	59.56
396.942	77.99
397.152	88.23
397.361	98.47
397.57	86.19
397.78	86.19
397.989	94.38
398.198	215.21
398.407	96.43
398.617	61.61
398.826	18.6
399.035	34.99
399.244	28.84
399.453	-16.21
399.663	14.51
399.872	63.66
400.081	-14.17
400.29	184.49
400.499	-51.03
400.708	100.52
400.917	37.03
401.127	32.94
401.336	4.27
401.545	202.92
401.754	110.76
401.963	73.9
402.172	32.94
402.381	-55.12
402.59	39.08
402.799	20.65
403.008	149.67
403.217	102.57
403.426	-10.07
403.635	-51.03
403.844	16.55
404.053	14.51
404.262	12.46
404.471	135.34
404.68	114.86
404.888	16.55
405.097	20.65
405.306	118.95
405.515	73.9
405.724	24.75
405.933	90.28
406.142	69.8
406.35	73.9
406.559	20.65
406.768	73.9
406.977	207.02
407.185	-20.31
407.394	135.34
407.603	-22.36
407.812	49.32
408.02	112.81
408.229	63.66
408.438	-14.17
408.646	-42.84
408.855	71.85
409.064	118.95
409.272	2.22
409.481	123.05
409.69	22.7
409.898	20.65
410.107	178.34
410.315	149.67
410.524	32.94
410.733	43.18
410.941	39.08
411.15	51.37
411.358	127.14
411.567	186.54
411.775	94.38
411.984	47.27
412.192	141.48
412.401	34.99
412.609	153.77
412.818	108.71
413.026	209.06
413.234	69.8
413.443	59.56
413.651	18.6
413.86	59.56
414.068	209.06
414.276	198.82
414.485	-20.31
414.693	121
414.901	184.49
415.11	112.81
415.318	96.43
415.526	133.29
415.734	108.71
415.943	51.37
416.151	215.21
416.359	20.65
416.567	149.67
416.776	51.37
416.984	39.08
417.192	137.38
417.4	65.71
417.608	10.41
417.817	77.99
418.025	139.43
418.233	182.44
418.441	10.41
418.649	-24.4
418.857	98.47
419.065	174.25
419.273	-1.88
419.481	114.86
419.689	18.6
419.897	-38.74
420.105	-18.26
420.313	137.38
420.521	207.02
420.729	202.92
420.937	-79.7
421.145	-26.45
421.353	100.52
421.561	213.16
421.769	135.34
421.977	53.42
422.185	133.29
422.393	34.99
422.601	88.23
422.809	57.51
423.017	96.43
423.224	28.84
423.432	149.67
423.64	53.42
423.848	153.77
424.056	39.08
424.263	145.58
424.471	71.85
424.679	127.14
424.887	-12.12
425.094	121
425.302	59.56
425.51	82.09
425.718	135.34
425.925	32.94
426.133	18.6
426.341	227.5
426.548	80.04
426.756	18.6
426.964	141.48
427.171	53.42
427.379	65.71
427.586	75.95
427.794	133.29
428.001	166.06
428.209	123.05
428.417	174.25
428.624	217.26
428.832	151.72
429.039	121
429.247	114.86
429.454	174.25
429.662	147.62
429.869	108.71
430.076	112.81
430.284	180.39
430.491	264.36
430.699	204.97
430.906	170.15
431.114	80.04
431.321	129.19
431.528	147.62
431.736	100.52
431.943	182.44
432.15	301.22
432.358	252.07
432.565	286.89
432.772	20.65
432.979	268.45
433.187	178.34
433.394	229.54
433.601	178.34
433.808	217.26
434.016	241.83
434.223	231.59
434.43	219.3
434.637	284.84
434.844	282.79
435.052	182.44
435.259	286.89
435.466	237.74
435.673	301.22
435.88	231.59
436.087	315.56
436.294	364.71
436.501	377
436.708	221.35
436.915	370.85
437.122	366.76
437.329	209.06
437.537	323.75
437.743	276.65
437.95	372.9
438.157	424.1
438.364	450.72
438.571	430.24
438.778	446.63
438.985	473.25
439.192	428.2
439.399	489.64
439.606	450.72
439.813	485.54
440.02	632.99
440.227	706.72
440.433	583.84
440.64	553.12
440.847	530.59
441.054	618.66
441.261	714.91
441.467	686.24
441.674	612.51
441.881	755.87
442.088	688.29
442.294	694.43
442.501	772.25
442.708	874.65
442.914	858.27
443.121	850.08
443.328	895.13
443.534	868.51
443.741	850.08
443.948	829.6
444.154	1048.73
444.361	1192.09
444.568	975
444.774	1028.25
444.981	956.57
445.187	1239.19
445.394	1171.61
445.6	1040.54
445.807	1337.49
446.013	1300.63
446.22	1374.36
446.426	1409.17
446.633	1515.67
446.839	1740.94
447.046	1443.99
447.252	1628.31
447.459	1689.74
447.665	1679.51
447.871	1812.62
448.078	1951.88
448.284	1919.12
448.491	1996.94
448.697	2035.85
448.903	2205.83
449.11	2121.87
449.316	2185.35
449.522	2338.95
449.728	2545.8
449.935	2519.17
450.141	2515.08
450.347	2883.71
450.553	2609.28
450.76	2760.83
450.966	2861.18
451.172	3086.46
451.378	3209.34
451.584	3301.5
451.791	3481.72
451.997	3481.72
452.203	3582.07
452.409	3786.86
452.615	3942.51
452.821	3715.19
453.027	3856.5
453.233	4460.65
453.44	4245.61
453.646	4421.74
453.852	4575.33
454.058	4816.99
454.264	5009.5
454.47	5191.77
454.676	5220.44
454.882	5857.36
455.088	5445.72
455.294	5765.2
455.5	6101.07
455.705	6641.73
455.911	6508.62
456.117	6774.85
456.323	7090.24
456.529	7059.52
456.735	7628.85
456.941	7718.96
457.147	8198.19
457.352	8323.12
457.558	8525.86
457.764	9175.07
457.97	9076.77
458.176	9523.23
458.381	10254.35
458.587	10313.74
458.793	10889.22
458.999	10756.1
459.204	12126.19
459.41	12703.72
459.616	12445.68
459.821	13246.43
460.027	13707.23
460.233	14446.54
460.438	14200.79
460.644	15220.67
460.85	15202.24
461.055	16158.64
461.261	16816.04
461.466	16566.19
461.672	16967.59
461.878	18720.65
462.083	18280.34
462.289	18761.61
462.494	19470.21
462.7	19787.64
462.905	20047.74
463.111	21839.71
463.316	22898.51
463.522	23209.8
463.727	23924.54
463.932	24715.06
464.138	25524.01
464.343	26656.53
464.549	26793.75
464.754	28868.34
464.959	29392.62
465.165	30009.06
465.37	29621.99
465.575	29908.71
465.781	31807.17
465.986	32831.16
466.191	32233.15
466.397	32286.4
466.602	31813.32
466.807	33593
467.012	33849
467.218	34807.45
467.423	34641.56
467.628	35819.14
467.833	37693.04
468.038	36927.1
468.244	36433.53
468.449	38131.3
468.654	37428.85
468.859	37029.49
469.064	37398.13
469.269	36517.5
469.474	36947.57
469.679	37607.02
469.885	36544.13
470.09	36906.62
470.295	37473.9
470.5	36390.53
470.705	36998.77
470.91	35477.13
471.115	35503.76
471.32	35866.25
471.525	35835.53
471.73	34418.33
471.935	34389.66
472.139	33156.78
472.344	33545.9
472.549	33250.99
472.754	32370.36
472.959	31342.28
473.164	30822.1
473.369	30144.22
473.574	31241.93
473.778	30562.01
473.983	30170.85
474.188	29652.71
474.393	27952.9
474.598	27830.02
474.802	27229.96
475.007	26881.81
475.212	26670.87
475.417	25677.6
475.621	25175.85
475.826	25249.58
476.031	24524.6
476.235	23768.9
476.44	23949.12
476.645	23412.55
476.849	23234.38
477.054	22794.06
477.259	22181.72
477.463	22249.3
477.668	21704.54
477.872	21710.69
478.077	21061.48
478.282	20555.63
478.486	20240.25
478.691	20094.84
478.895	20055.93
479.1	19640.19
479.304	19632
479.509	19052.42
479.713	19033.99
479.918	18765.71
480.122	18298.77
480.326	18509.71
480.531	18450.32
480.735	18286.48
480.94	17932.19
481.144	18632.59
481.348	17530.78
481.553	17618.85
481.757	17110.95
481.961	17356.71
482.166	17524.64
482.37	17233.83
482.574	16660.4
482.778	16701.36
482.983	17039.27
483.187	16605.1
483.391	16715.69
483.595	16256.95
483.8	15935.42
484.004	16068.53
484.208	16025.53
484.412	15808.44
484.616	15439.81
484.821	15329.22
485.025	14958.53
485.229	15042.5
485.433	14802.89
485.637	14694.35
485.841	14471.12
486.045	14170.07
486.249	14024.66
486.453	14114.77
486.657	13748.18
486.861	13666.27
487.065	13033.44
487.269	13195.23
487.473	12644.33
487.677	12933.09
487.881	12871.65
488.085	12161.01
488.289	12406.77
488.493	11929.59
488.697	12064.75
488.901	11708.41
489.105	11360.25
489.309	11051.01
489.512	10999.81
489.716	10807.3
489.92	10678.28
490.124	10410
490.328	10453
490.531	10043.41
490.735	10033.17
490.939	9605.14
491.143	9535.51
491.346	9179.17
491.55	9512.99
491.754	8951.84
491.958	8878.12
492.161	8781.86
492.365	8771.62
492.569	8417.32
492.772	8343.6
492.976	8327.21
493.18	8245.29
493.383	8048.69
493.587	8099.89
493.79	8073.26
493.994	7704.63
494.197	7782.45
494.401	7802.93
494.605	7438.39
494.808	7688.25
495.012	7467.06
495.215	7571.51
495.419	7497.78
495.622	7348.28
495.825	7209.02
496.029	7098.43
496.232	7522.36
496.436	7174.21
496.639	7266.36
496.843	7127.1
497.046	7186.49
497.249	7217.21
497.453	7221.31
497.656	7215.16
497.859	7178.3
498.063	7170.11
498.266	7333.95
498.469	6918.21
498.673	7206.97
498.876	7252.03
499.079	7399.48
499.282	7196.73
499.485	7645.24
499.689	7379
499.892	7446.59
500.095	7479.35
500.298	7442.49
500.501	7473.21
500.705	7669.81
500.908	7874.61
501.111	7907.38
501.314	8183.85
501.517	7966.77
501.72	7985.2
501.923	8052.78
502.126	8124.46
502.329	8427.56
502.532	8310.83
502.735	8374.31
502.938	8663.08
503.141	8761.38
503.344	8622.12
503.547	8796.2
503.75	9013.28
503.953	8824.87
504.156	9349.15
504.359	9340.96
504.562	9302.04
504.765	9523.23
504.968	9916.44
505.17	9832.47
505.373	10104.85
505.576	10274.83
505.779	10186.77
505.982	10301.45
506.185	10858.5
506.387	10913.8
506.59	11012.1
506.793	11362.3
506.996	11315.2
507.198	11948.02
507.401	11880.44
507.604	12298.22
507.807	12417.01
508.009	12584.94
508.212	12699.62
508.415	13006.82
508.617	13129.7
508.82	13199.33
509.022	13924.31
509.225	14362.58
509.428	14585.8
509.63	14641.1
509.833	14954.44
510.035	15620.03
510.238	15712.19
510.44	16203.7
510.643	16654.25
510.845	16873.39
511.048	16979.88
511.25	17342.37
511.453	17969.05
511.655	18491.28
511.858	18689.93
512.06	18855.82
512.262	19326.85
512.465	19677.05
512.667	20115.32
512.87	20969.32
513.072	21297
513.274	22040.41
513.477	22441.81
513.679	22533.97
513.881	23113.55
514.084	23832.38
514.286	24129.34
514.488	24811.31
514.69	25548.58
514.893	25716.51
515.095	26433.3
515.297	27176.72
515.499	27506.44
515.701	28114.69
515.904	28600.05
516.106	29724.39
516.308	29638.37
516.51	30748.37
516.712	31190.73
516.914	31590.09
517.116	32532.15
517.318	32925.36
517.52	33609.39
517.722	34053.8
517.925	34959
518.127	35532.43
518.329	36181.63
518.531	35966.6
518.733	37594.73
518.935	38018.66
519.136	38114.92
519.338	39274.07
519.54	39708.24
519.742	40709.69
519.944	40316.48
520.146	41711.15
520.348	41776.69
520.55	42380.84
520.752	42911.26
520.954	43773.45
521.155	43765.26
521.357	44803.58
521.559	45370.87
521.761	46083.56
521.963	46040.56
522.164	46521.83
522.366	46919.13
522.568	47369.69
522.77	47709.65
522.971	48641.48
523.173	47975.89
523.375	49059.26
523.576	48672.2
523.778	49319.35
523.98	49950.13
524.181	49759.67
524.383	49855.92
524.584	50453.93
524.786	50308.52
524.988	50113.97
525.189	50439.59
525.391	50666.92
525.592	51060.13
525.794	50648.49
525.995	50828.71
526.197	50556.33
526.398	51062.18
526.6	50939.3
526.801	50757.03
527.003	50740.64
527.204	49925.55
527.406	50941.35
527.607	50050.48
527.808	50541.99
528.01	49253.82
528.211	49200.57
528.412	49837.49
528.614	49214.91
528.815	48709.06
529.016	49266.11
529.218	48039.37
529.419	47695.31
529.62	47224.28
529.822	46917.09
530.023	46587.36
530.224	46431.72
530.425	46034.41
530.626	44905.98
530.828	44572.16
531.029	45049.34
531.23	44033.55
531.431	43462.16
531.632	43367.96
531.833	42608.16
532.035	41979.43
532.236	41496.11
532.437	40982.07
532.638	40595.01
532.839	40138.31
533.04	40138.31
533.241	38968.92
533.442	39296.6
533.643	38319.71
533.844	38002.28
534.045	37346.93
534.246	36150.92
534.447	36370.05
534.648	35751.56
534.849	35833.48
535.05	34885.27
535.251	34336.41
535.451	33814.18
535.652	33685.16
535.853	32806.58
536.054	32609.98
536.255	32345.79
536.456	31665.86
536.657	31561.42
536.857	31258.32
537.058	30437.08
537.259	30443.23
537.46	29763.3
537.66	29259.5
537.861	29153.01
538.062	28397.31
538.263	28223.23
538.463	27854.59
538.664	27512.58
538.865	27064.08
539.065	27000.59
539.266	26423.06
539.466	26421.02
539.667	25796.39
539.868	25556.77
540.068	25110.32
540.269	24938.29
540.469	24923.95
540.67	24430.39
540.87	24164.15
541.071	23639.87
541.271	23557.96
541.472	23314.25
541.672	22929.23
541.873	22462.29
542.073	21976.92
542.274	22237.02
542.474	22019.93
542.675	21843.81
542.875	21661.54
543.075	21045.1
543.276	20879.21
543.476	20725.61
543.676	20404.08
543.877	20385.65
544.077	20105.08
544.277	19853.18
544.478	19722.11
544.678	19425.15
544.878	19388.29
545.078	19181.45
545.279	18790.28
545.479	18458.51
545.679	18425.75
545.879	18036.63
546.079	17971.1
546.28	17637.28
546.48	17536.93
546.68	17311.65
546.88	17002.41
547.08	16748.46
547.28	16674.73
547.48	16242.61
547.68	16453.55
547.88	15859.64
548.081	16064.44
548.281	15611.84
548.481	15513.53
548.681	15519.68
548.881	15257.54
549.081	14878.66
549.28	14499.79
549.48	14319.57
549.68	14473.17
549.88	14452.69
550.08	13801.43
550.28	13891.54
550.48	13653.98
550.68	13539.29
550.88	13217.76
551.08	12908.52
551.279	12957.67
551.479	12711.91
551.679	12562.41
551.879	12371.95
552.079	12238.83
552.278	11925.49
552.478	11685.88
552.678	11694.07
552.878	11503.61
553.077	11171.84
553.277	10860.55
553.477	11061.25
553.676	10913.8
553.876	10647.56
554.076	10442.76
554.275	10266.64
554.475	9855
554.674	10154
554.874	9734.17
555.074	9576.47
555.273	9336.86
555.473	9144.35
555.672	9263.13
555.872	8953.89
556.071	8763.43
556.271	8912.93
556.47	8599.59
556.67	8353.84
556.869	8280.11
557.068	7962.67
557.268	7927.86
557.467	7788.6
557.667	7968.82
557.866	7694.39
558.065	7604.28
558.265	7301.18
558.464	7241.79
558.663	7168.06
558.863	7049.28
559.062	7016.51
559.261	6930.5
559.461	6797.38
559.66	6545.48
559.859	6514.76
560.058	6488.14
560.258	6283.34
560.457	6277.19
560.656	6139.98
560.855	5922.9
561.054	6006.86
561.253	5840.98
561.453	5959.76
561.652	5726.29
561.851	5634.13
562.05	5453.91
562.249	5412.95
562.448	5247.07
562.647	5089.37
562.846	5126.24
563.045	5228.63
563.244	5029.98
563.443	5152.86
563.642	4632.68
563.841	4692.07
564.04	4647.01
564.239	4675.68
564.438	4517.99
564.637	4507.75
564.836	4417.64
565.035	4356.2
565.234	4251.75
565.432	4345.96
565.631	4102.25
565.83	4229.23
566.029	3989.61
566.228	3962.99
566.427	4110.44
566.625	3813.49
566.824	3827.82
567.023	3803.25
567.222	3590.26
567.42	3469.43
567.619	3713.14
567.818	3530.87
568.016	3629.17
568.215	3551.35
568.414	3446.9
568.612	3430.52
568.811	3256.44
569.01	3367.03
569.208	3225.72
569.407	3197.05
569.605	3225.72
569.804	3006.59
570.002	3072.12
570.201	2891.9
570.4	2975.87
570.598	2896
570.797	2896
570.995	2711.68
571.193	2707.59
571.392	2592.9
571.59	2547.84
571.789	2697.35
571.987	2695.3
572.186	2687.11
572.384	2521.22
572.582	2535.56
572.781	2488.45
572.979	2402.44
573.177	2254.98
573.376	2480.26
573.574	2351.24
573.772	2168.97
573.971	2162.83
574.169	2136.2
574.367	2164.87
574.565	2148.49
574.763	2218.12
574.962	1994.89
575.16	1980.56
575.358	1919.12
575.556	1943.69
575.754	1992.84
575.952	1775.76
576.151	1886.35
576.349	1872.01
576.547	1765.52
576.745	1804.43
576.943	1847.44
577.141	1640.59
577.339	1624.21
577.537	1661.07
577.735	1640.59
577.933	1706.13
578.131	1527.96
578.329	1626.26
578.527	1575.06
578.725	1501.33
578.923	1474.71
579.121	1689.74
579.319	1364.12
579.516	1364.12
579.714	1665.17
579.912	1423.51
580.11	1255.58
580.308	1411.22
580.506	1317.01
580.704	1249.43
580.901	1312.92
581.099	1429.65
581.297	1282.2
581.495	1333.4
581.692	1161.37
581.89	1296.53
582.088	1187.99
582.285	1142.94
582.483	1067.16
582.681	1147.03
582.878	1130.65
583.076	1083.55
583.274	1212.57
583.471	1177.75
583.669	1011.87
583.866	1042.59
584.064	923.8
584.262	942.24
584.459	870.56
584.657	952.48
584.854	1007.77
585.052	1048.73
585.249	975
585.447	1042.59
585.644	886.94
585.841	886.94
586.039	866.46
586.236	989.34
586.434	837.79
586.631	741.54
586.828	843.93
587.026	888.99
587.223	680.1
587.42	764.06
587.618	829.6
587.815	776.35
588.012	735.39
588.21	667.81
588.407	815.26
588.604	784.54
588.801	671.9
588.999	764.06
589.196	852.13
589.393	632.99
589.59	719.01
589.787	733.34
589.984	790.69
590.182	700.58
590.379	723.1
590.576	704.67
590.773	626.85
590.97	620.71
591.167	696.48
591.364	745.63
591.561	686.24
591.758	778.4
591.955	680.1
592.152	704.67
592.349	725.15
592.546	645.28
592.743	608.42
592.94	731.3
593.137	624.8
593.334	721.06
593.531	854.17
593.727	716.96
593.924	637.09
594.121	641.18
594.318	688.29
594.515	645.28
594.712	778.4
594.908	833.69
595.105	585.89
595.302	741.54
595.499	764.06
595.696	768.16
595.892	688.29
596.089	807.07
596.286	671.9
596.482	944.28
596.679	751.78
596.876	755.87
597.072	780.45
597.269	874.65
597.466	829.6
597.662	872.61
597.859	833.69
598.055	831.65
598.252	1030.3
598.448	1069.21
598.645	1048.73
598.841	1061.02
599.038	1208.47
599.234	1235.1
599.431	1210.52
599.627	1190.04
599.824	1212.57
600.02	1353.88
600.217	1282.2
600.413	1480.85
600.609	1525.91
600.806	1659.03
601.002	1583.25
601.198	1478.8
601.395	1728.66
601.591	1691.79
601.787	1814.67
601.984	1947.79
602.18	1972.36
602.376	2003.08
602.572	2011.28
602.769	2236.55
602.965	2185.35
603.161	2427.01
603.357	2398.34
603.553	2533.51
603.75	2398.34
603.946	2597
604.142	2734.21
604.338	2805.89
604.534	2816.13
604.73	2971.77
604.926	3004.54
605.122	3297.4
605.318	3274.87
605.514	3407.99
605.71	3332.22
605.906	3530.87
606.102	3637.36
606.298	3727.47
606.494	3846.26
606.69	4073.58
606.886	4098.16
607.082	4145.26
607.278	4239.47
607.474	4464.74
607.67	4673.64
607.866	4563.05
608.062	4812.9
608.257	5113.95
608.453	5118.04
608.649	5195.87
608.845	5206.11
609.041	5552.21
609.236	5562.45
609.432	5808.21
609.628	5941.33
609.824	6133.84
610.019	6154.32
610.215	6393.93
610.411	6709.32
610.606	6815.81
610.802	6697.03
610.998	7073.85
611.193	7452.73
611.389	7262.27
611.584	7739.44
611.78	7993.39
611.976	7977.01
612.171	8534.06
612.367	8781.86
612.562	8853.54
612.758	9013.28
612.953	9044
613.149	9453.59
613.344	9445.4
613.539	9881.62
613.735	10176.53
613.93	10401.8
614.126	10526.73
614.321	11059.2
614.517	11268.09
614.712	11452.41
614.907	11950.07
615.103	12124.15
615.298	12185.58
615.493	12838.89
615.688	12924.9
615.884	13613.02
616.079	13633.5
616.274	13948.89
616.47	14331.86
616.665	14651.34
616.86	14972.87
617.055	15527.87
617.25	15732.67
617.445	16482.22
617.641	16447.41
617.836	16723.88
618.031	17426.34
618.226	17633.18
618.421	18270.1
618.616	18628.49
618.811	18864.01
619.006	19582.85
619.201	19675.01
619.396	20082.55
619.591	20258.68
619.786	21186.41
619.981	21518.18
620.176	22208.34
620.371	22456.15
620.566	23021.39
620.761	23156.55
620.956	24065.85
621.151	24149.82
621.346	24762.16
621.541	24899.37
621.735	25896.74
621.93	25857.82
622.125	26636.05
622.32	26734.35
622.515	27361.03
622.709	28077.82
622.904	28663.54
623.099	28849.91
623.294	29544.17
623.488	29759.2
623.683	30371.55
623.878	30736.09
624.072	31862.47
624.267	32073.41
624.462	32194.24
624.656	32569.02
624.851	33525.42
625.046	33482.41
625.24	34291.36
625.435	34688.67
625.629	35102.36
625.824	35143.31
626.018	35827.34
626.213	36077.19
626.407	36867.7
626.602	36877.94
626.796	37752.43
626.991	38098.53
627.185	38501.98
627.38	38342.24
627.574	38624.86
627.768	38719.07
627.963	39067.22
628.157	38882.91
628.352	39491.15
628.546	39030.36
628.74	39784.01
628.935	39198.29
629.129	39478.86
629.323	38710.88
629.517	39112.28
629.712	38891.1
629.906	38612.57
630.1	37709.42
630.294	37863.02
630.489	37523.05
630.683	37054.07
630.877	36316.8
631.071	35843.72
631.265	35292.82
631.459	34524.83
631.653	33789.61
631.848	33214.13
632.042	32325.31
632.236	31809.22
632.43	30717.65
632.624	30516.95
632.818	28987.12
633.012	28133.12
633.206	27356.94
633.4	26615.57
633.594	25562.92
633.788	24577.84
633.982	24096.57
634.176	23123.79
634.369	22198.1
634.563	21634.91
634.757	20602.74
634.951	20131.7
635.145	19289.99
635.339	18497.42
635.533	17670.05
635.726	16881.58
635.92	15837.11
636.114	15456.19
636.308	14954.44
636.501	14489.55
636.695	13805.53
636.889	13148.13
637.083	12597.23
637.276	11915.25
637.47	11864.05
637.664	11192.32
637.857	10653.7
638.051	10321.93
638.244	9904.15
638.438	9576.47
638.632	9164.83
638.825	8546.34
639.019	8482.86
639.212	8099.89
639.406	7948.34
639.599	7544.89
639.793	7190.59
639.986	6752.32
640.18	6580.29
640.373	6375.5
640.567	5957.71
640.76	5818.45
640.954	5699.67
641.147	5337.18
641.34	5163.1
641.534	5091.42
641.727	4954.21
641.92	4757.6
642.114	4501.61
642.307	4255.85
642.5	4243.56
642.694	3874.93
642.887	3788.91
643.08	3811.44
643.273	3709.04
643.467	3399.8
643.66	3223.67
643.853	3090.56
644.046	3092.6
644.239	2857.09
644.432	2730.11
644.626	2508.93
644.819	2670.72
645.012	2527.36
645.205	2594.95
645.398	2457.73
645.591	2148.49
645.784	2109.58
645.977	2066.57
646.17	2031.76
646.363	1865.87
646.556	1712.27
646.749	1673.36
646.942	1730.7
647.135	1611.92
647.328	1505.43
647.521	1517.72
647.714	1437.84
647.907	1421.46
648.099	1255.58
648.292	1368.21
648.485	1208.47
648.678	1118.36
648.871	1018.01
649.064	1095.83
649.256	997.53
649.449	938.14
649.642	964.76
649.835	960.67
650.027	850.08
650.22	936.09
650.413	837.79
650.605	895.13
650.798	880.8
650.991	823.45
651.183	661.66
651.376	784.54
651.568	741.54
651.761	614.56
651.954	759.97
652.146	616.61
652.339	690.34
652.531	762.02
652.724	518.31
652.916	508.07
653.109	577.7
653.301	600.23
653.494	686.24
653.686	471.2
653.879	585.89
654.071	489.64
654.263	471.2
654.456	446.63
654.648	481.44
654.84	372.9
655.033	399.52
655.225	524.45
655.417	227.5
655.61	436.39
655.802	473.25
655.994	575.65
656.186	237.74
656.379	393.38
656.571	274.6
656.763	266.41
656.955	290.98
657.148	317.61
657.34	377
657.532	196.78
657.724	293.03
657.916	374.95
658.108	405.67
658.3	323.75
658.492	286.89
658.684	207.02
658.876	290.98
659.068	96.43
659.26	194.73
659.452	192.68
659.644	233.64
659.836	254.12
660.028	215.21
660.22	204.97
660.412	243.88
660.604	258.21
660.796	299.17
660.988	420
661.18	198.82
661.372	356.52
661.563	252.07
661.755	237.74
661.947	129.19
662.139	194.73
662.331	288.93
662.522	260.26
662.714	200.87
662.906	223.4
663.097	200.87
663.289	133.29
663.481	90.28
663.673	241.83
663.864	137.38
664.056	266.41
664.247	178.34
664.439	268.45
664.631	147.62
664.822	198.82
665.014	168.1
665.205	94.38
665.397	176.3
665.588	131.24
665.78	149.67
665.971	213.16
666.163	123.05
666.354	213.16
666.546	178.34
666.737	147.62
666.929	141.48
667.12	118.95
667.311	213.16
667.503	254.12
667.694	217.26
667.885	196.78
668.077	198.82
668.268	47.27
668.459	73.9
668.651	221.35
668.842	209.06
669.033	143.53
669.224	92.33
669.416	340.13
669.607	213.16
669.798	59.56
669.989	213.16
670.18	204.97
670.371	252.07
670.563	90.28
670.754	215.21
670.945	153.77
671.136	264.36
671.327	139.43
671.518	172.2
671.709	225.45
671.9	182.44
672.091	290.98
672.282	157.86
672.473	209.06
672.664	82.09
672.855	176.3
673.046	96.43
673.237	174.25
673.428	184.49
673.619	225.45
673.809	161.96
674	190.63
674.191	239.78
674.382	102.57
674.573	202.92
674.764	170.15
674.954	260.26
675.145	102.57
675.336	114.86
675.527	147.62
675.717	135.34
675.908	166.06
676.099	139.43
676.289	123.05
676.48	116.9
676.671	211.11
676.861	125.1
677.052	235.69
677.243	166.06
677.433	92.33
677.624	161.96
677.814	170.15
678.005	151.72
678.195	274.6
678.386	166.06
678.576	196.78
678.767	194.73
678.957	211.11
679.148	239.78
679.338	196.78
679.529	192.68
679.719	215.21
679.909	196.78
680.1	280.74
680.29	247.97
680.481	102.57
680.671	288.93
680.861	282.79
681.052	227.5
681.242	186.54
681.432	245.93
681.622	293.03
681.813	157.86
682.003	305.32
682.193	118.95
682.383	342.18
682.573	112.81
682.764	180.39
682.954	362.66
683.144	268.45
683.334	188.58
683.524	260.26
683.714	301.22
683.904	333.99
684.094	237.74
684.284	229.54
684.474	333.99
684.664	311.46
684.854	280.74
685.044	227.5
685.234	256.17
685.424	213.16
685.614	250.02
685.804	370.85
685.994	311.46
686.184	290.98
686.374	270.5
686.564	286.89
686.753	262.31
686.943	121
687.133	221.35
687.323	192.68
687.513	325.8
687.702	229.54
687.892	219.3
688.082	219.3
688.272	372.9
688.461	274.6
688.651	313.51
688.841	342.18
689.03	223.4
689.22	233.64
689.41	264.36
689.599	309.41
689.789	170.15
689.979	399.52
690.168	307.37
690.358	317.61
690.547	235.69
690.737	213.16
690.926	264.36
691.116	288.93
691.305	235.69
691.495	315.56
691.684	182.44
691.874	217.26
692.063	235.69
692.252	288.93
692.442	284.84
692.631	159.91
692.82	184.49
693.01	235.69
693.199	254.12
693.388	280.74
693.578	153.77
693.767	221.35
693.956	262.31
694.146	204.97
694.335	258.21
694.524	207.02
694.713	200.87
694.902	229.54
695.092	213.16
695.281	194.73
695.47	301.22
695.659	135.34
695.848	239.78
696.037	143.53
696.226	227.5
696.415	270.5
696.604	290.98
696.793	321.7
696.982	178.34
697.171	315.56
697.36	178.34
697.549	239.78
697.738	125.1
697.927	153.77
698.116	250.02
698.305	307.37
698.494	260.26
698.683	221.35
698.872	344.23
699.061	170.15
699.25	264.36
699.438	215.21
699.627	192.68
699.816	276.65
700.005	96.43
700.193	166.06
700.382	252.07
700.571	252.07
700.76	227.5
700.948	352.42
701.137	327.85
701.326	245.93
701.514	157.86
701.703	221.35
701.892	198.82
702.08	444.58
702.269	157.86
702.457	133.29
702.646	247.97
702.834	209.06
703.023	188.58
703.212	262.31
703.4	250.02
703.589	170.15
703.777	161.96
703.965	155.82
704.154	215.21
704.342	145.58
704.531	116.9
704.719	323.75
704.907	286.89
705.096	256.17
705.284	159.91
705.472	215.21
705.661	243.88
705.849	258.21
706.037	272.55
706.226	213.16
706.414	217.26
706.602	90.28
706.79	247.97
706.979	235.69
707.167	211.11
707.355	131.24
707.543	204.97
707.731	280.74
707.919	190.63
708.107	258.21
708.296	245.93
708.484	135.34
708.672	276.65
708.86	286.89
709.048	192.68
709.236	170.15
709.424	196.78
709.612	194.73
709.8	67.75
709.988	182.44
710.176	280.74
710.364	170.15
710.551	141.48
710.739	221.35
710.927	104.62
711.115	272.55
711.303	303.27
711.491	256.17
711.679	114.86
711.866	288.93
712.054	168.1
712.242	241.83
712.43	260.26
712.617	215.21
712.805	305.32
712.993	295.08
713.181	166.06
713.368	274.6
713.556	139.43
713.744	155.82
713.931	366.76
714.119	256.17
714.306	204.97
714.494	239.78
714.682	174.25
714.869	166.06
715.057	174.25
715.244	149.67
715.432	202.92
715.619	159.91
715.807	217.26
715.994	223.4
716.182	194.73
716.369	350.37
716.556	247.97
716.744	65.71
716.931	104.62
717.119	209.06
717.306	239.78
717.493	245.93
717.681	200.87
717.868	129.19
718.055	196.78
718.242	237.74
718.43	211.11
718.617	301.22
718.804	186.54
718.991	284.84
719.179	200.87
719.366	252.07
719.553	266.41
719.74	202.92
719.927	227.5
720.114	276.65
720.301	239.78
720.488	194.73
720.676	114.86
720.863	352.42
721.05	354.47
721.237	311.46
721.424	288.93
721.611	233.64
721.798	112.81
721.985	151.72
722.172	229.54
722.358	272.55
722.545	247.97
722.732	288.93
722.919	264.36
723.106	258.21
723.293	229.54
723.48	293.03
723.667	147.62
723.853	305.32
724.04	362.66
724.227	352.42
724.414	250.02
724.6	301.22
724.787	284.84
724.974	352.42
725.161	301.22
725.347	139.43
725.534	264.36
725.72	186.54
725.907	372.9
726.094	290.98
726.28	229.54
726.467	209.06
726.653	164.01
726.84	313.51
727.027	426.15
727.213	186.54
727.4	278.69
727.586	223.4
727.773	241.83
727.959	227.5
728.145	307.37
728.332	245.93
728.518	241.83
728.705	297.13
728.891	180.39
729.077	184.49
729.264	184.49
729.45	272.55
729.636	340.13
729.823	282.79
730.009	288.93
730.195	252.07
730.382	286.89
730.568	209.06
730.754	219.3
730.94	231.59
731.126	241.83
731.313	383.14
731.499	229.54
731.685	256.17
731.871	309.41
732.057	336.04
732.243	307.37
732.429	268.45
732.615	379.04
732.801	352.42
732.987	219.3
733.173	266.41
733.359	164.01
733.545	264.36
733.731	243.88
733.917	356.52
734.103	325.8
734.289	311.46
734.475	256.17
734.661	460.96
734.847	227.5
735.033	288.93
735.219	333.99
735.404	217.26
735.59	176.3
735.776	229.54
735.962	313.51
736.148	391.33
736.333	354.47
736.519	258.21
736.705	303.27
736.89	301.22
737.076	295.08
737.262	211.11
737.447	168.1
737.633	211.11
737.819	329.89
738.004	299.17
738.19	256.17
738.375	350.37
738.561	444.58
738.747	225.45
738.932	159.91
739.118	409.76
739.303	307.37
739.489	325.8
739.674	268.45
739.859	295.08
740.045	297.13
740.23	297.13
740.416	159.91
740.601	268.45
740.786	280.74
740.972	229.54
741.157	233.64
741.342	250.02
741.528	207.02
741.713	329.89
741.898	194.73
742.084	200.87
742.269	293.03
742.454	299.17
742.639	321.7
742.824	276.65
743.01	397.48
743.195	317.61
743.38	329.89
743.565	284.84
743.75	243.88
743.935	319.65
744.12	360.61
744.305	215.21
744.49	258.21
744.675	182.44
744.86	229.54
745.045	313.51
745.23	293.03
745.415	219.3
745.6	391.33
745.785	221.35
745.97	366.76
746.155	317.61
746.34	313.51
746.525	305.32
746.71	297.13
746.895	176.3
747.079	196.78
747.264	168.1
747.449	315.56
747.634	290.98
747.819	260.26
748.003	241.83
748.188	170.15
748.373	245.93
748.557	227.5
748.742	196.78
748.927	229.54
749.111	194.73
749.296	239.78
749.481	176.3
749.665	182.44
749.85	178.34
750.034	227.5
750.219	276.65
750.404	192.68
750.588	168.1
750.773	131.24
750.957	190.63
751.141	262.31
751.326	307.37
751.51	155.82
751.695	211.11
751.879	129.19
752.064	315.56
752.248	217.26
752.432	243.88
752.617	243.88
752.801	256.17
752.985	164.01
753.17	288.93
753.354	231.59
753.538	188.58
753.722	149.67
753.907	143.53
754.091	178.34
754.275	276.65
754.459	-1.88
754.643	196.78
754.828	241.83
755.012	225.45
755.196	28.84
755.38	186.54
755.564	174.25
755.748	161.96
755.932	250.02
756.116	260.26
756.3	184.49
756.484	145.58
756.668	135.34
756.852	145.58
757.036	108.71
757.22	178.34
757.404	106.67
757.588	55.47
757.772	254.12
757.956	112.81
758.14	303.27
758.323	131.24
758.507	145.58
758.691	108.71
758.875	217.26
759.059	219.3
759.242	80.04
759.426	104.62
759.61	155.82
759.794	106.67
759.977	200.87
760.161	325.8
760.345	219.3
760.528	258.21
760.712	114.86
760.895	211.11
761.079	229.54
761.263	37.03
761.446	186.54
761.63	143.53
761.813	194.73
761.997	34.99
762.18	153.77
762.364	151.72
762.547	37.03
762.731	145.58
762.914	184.49
763.098	114.86
763.281	108.71
763.464	51.37
763.648	204.97
763.831	159.91
764.015	102.57
764.198	106.67
764.381	98.47
764.564	155.82
764.748	108.71
764.931	96.43
765.114	43.18
765.297	112.81
765.481	69.8
765.664	37.03
765.847	145.58
766.03	194.73
766.213	71.85
766.397	145.58
766.58	65.71
766.763	147.62
766.946	47.27
767.129	121
767.312	45.23
767.495	49.32
767.678	26.79
767.861	139.43
768.044	75.95
768.227	26.79
768.41	65.71
768.593	94.38
768.776	164.01
768.959	65.71
769.142	176.3
769.324	57.51
769.507	77.99
769.69	82.09
769.873	51.37
770.056	331.94
770.239	43.18
770.421	219.3
770.604	65.71
770.787	39.08
770.97	94.38
771.152	49.32
771.335	100.52
771.518	-18.26
771.7	164.01
771.883	202.92
772.066	43.18
772.248	90.28
772.431	225.45
772.613	118.95
772.796	190.63
772.978	49.32
773.161	190.63
773.343	80.04
773.526	65.71
773.708	-30.55
773.891	-34.64
774.073	141.48
774.256	16.55
774.438	219.3
774.621	75.95
774.803	182.44
774.985	45.23
775.168	32.94
775.35	28.84
775.532	129.19
775.715	41.13
775.897	176.3
776.079	6.31
776.261	80.04
776.444	90.28
776.626	90.28
776.808	100.52
776.99	77.99
777.173	71.85
777.355	-3.93
777.537	16.55
777.719	49.32
777.901	55.47
778.083	22.7
778.265	-51.03
778.447	51.37
778.629	18.6
778.811	71.85
778.993	123.05
779.175	184.49
779.357	69.8
779.539	-20.31
779.721	260.26
779.903	139.43
780.085	6.31
780.267	94.38
780.449	69.8
780.631	114.86
780.812	145.58
780.994	-8.02
781.176	22.7
781.358	-28.5
781.54	92.33
781.721	92.33
781.903	96.43
782.085	0.17
782.267	155.82
782.448	28.84
782.63	22.7
782.812	80.04
782.993	65.71
783.175	67.75
783.357	18.6
783.538	65.71
783.72	12.46
783.901	49.32
784.083	47.27
784.264	114.86
784.446	0.17
784.627	-59.22
784.809	37.03
784.99	-14.17
785.172	133.29
785.353	-1.88
785.535	75.95
785.716	39.08
785.897	-71.51
786.079	90.28
786.26	86.19
786.441	112.81
786.623	-106.32
786.804	37.03
786.985	84.14
787.167	102.57
787.348	53.42
787.529	71.85
787.71	116.9
787.891	39.08
788.073	-57.17
788.254	-55.12
788.435	137.38
788.616	34.99
788.797	-30.55
788.978	57.51
789.159	-20.31
789.34	61.61
789.522	57.51
789.703	47.27
789.884	-42.84
790.065	41.13
790.246	141.48
790.427	47.27
790.607	217.26
790.788	45.23
790.969	-14.17
791.15	45.23
791.331	-22.36
791.512	16.55
791.693	4.27
791.874	-46.93
792.054	182.44
792.235	102.57
792.416	-28.5
792.597	-3.93
792.778	96.43
792.958	80.04
793.139	22.7
793.32	80.04
793.5	-63.32
793.681	98.47
793.862	55.47
794.042	2.22
794.223	-53.08
794.404	59.56
794.584	-53.08
794.765	-10.07
794.945	77.99
795.126	102.57
795.306	192.68
795.487	-18.26
795.667	-26.45
795.848	24.75
796.028	4.27
796.209	-16.21
796.389	86.19
796.57	53.42
796.75	-98.13
796.93	-91.99
797.111	-3.93
797.291	-65.36
797.471	100.52
797.652	37.03
797.832	-36.69
798.012	102.57
798.192	-71.51
798.373	-53.08
798.553	41.13
798.733	73.9
798.913	-65.36
799.093	28.84
799.274	63.66
799.454	32.94
799.634	30.89
799.814	61.61
799.994	18.6
800.174	77.99
800.354	73.9
800.534	-108.37
800.714	65.71
800.894	-96.08
801.074	-26.45
801.254	-48.98
801.434	153.77
801.614	-20.31
801.794	-118.61
801.974	1489.04
802.154	22.7
802.334	26.79
802.514	-110.42
802.693	63.66
802.873	-20.31
803.053	174.25
803.233	100.52
803.413	10.41
803.592	-22.36
803.772	4.27
803.952	39.08
804.131	-51.03
804.311	-30.55
804.491	92.33
804.67	-10.07
804.85	-22.36
805.03	106.67
805.209	135.34
805.389	10.41
805.568	-81.75
805.748	-55.12
805.928	51.37
806.107	71.85
806.287	2.22
806.466	65.71
806.646	71.85
806.825	47.27
807.004	12.46
807.184	-34.64
807.363	-22.36
807.543	47.27
807.722	-10.07
807.901	86.19
808.081	65.71
808.26	-24.4
808.439	45.23
808.619	22.7
808.798	-3.93
808.977	34.99
809.156	88.23
809.336	55.47
809.515	71.85
809.694	-44.88
809.873	-36.69
810.052	20.65
810.231	86.19
810.411	8.36
810.59	24.75
810.769	-85.84
810.948	77.99
811.127	-122.71
811.306	18.6
811.485	-48.98
811.664	141.48
811.843	59.56
812.022	-18.26
812.201	10.41
812.38	-30.55
812.559	0.17
812.737	43.18
812.916	-53.08
813.095	-71.51
813.274	61.61
813.453	37.03
813.632	10.41
813.811	98.47
813.989	-67.41
814.168	75.95
814.347	-12.12
814.526	-18.26
814.704	114.86
814.883	157.86
815.062	10.41
815.24	-18.26
815.419	-44.88
815.598	37.03
815.776	-75.6
815.955	4.27
816.133	-110.42
816.312	-18.26
816.49	-79.7
816.669	69.8
816.847	-22.36
817.026	30.89
817.204	34.99
817.383	57.51
817.561	-151.38
817.74	4.27
817.918	80.04
818.097	-100.18
818.275	-89.94
818.453	47.27
818.632	100.52
818.81	51.37
818.988	-48.98
819.167	-3.93
819.345	71.85
819.523	-73.56
819.701	-18.26
819.879	141.48
820.058	86.19
820.236	24.75
820.414	-18.26
820.592	-14.17
820.77	6.31
820.948	-75.6
821.127	-124.76
821.305	41.13
821.483	-132.95
821.661	77.99
821.839	14.51
822.017	-73.56
822.195	26.79
822.373	86.19
822.551	22.7
822.729	51.37
822.907	43.18
823.085	14.51
823.262	-10.07
823.44	-20.31
823.618	-10.07
823.796	88.23
823.974	-46.93
824.152	6.31
824.329	49.32
824.507	67.75
824.685	55.47
824.863	12.46
825.04	-5.97
825.218	69.8
825.396	24.75
825.574	49.32
825.751	-24.4
825.929	63.66
826.107	-75.6
826.284	-30.55
826.462	12.46
826.639	-89.94
826.817	-91.99
826.994	-12.12
827.172	-81.75
827.349	110.76
827.527	-24.4
827.704	22.7
827.882	88.23
828.059	20.65
828.237	-26.45
828.414	45.23
828.591	-59.22
828.769	-40.79
828.946	10.41
829.124	80.04
829.301	106.67
829.478	22.7
829.655	43.18
829.833	-53.08
830.01	-122.71
830.187	-24.4
830.364	77.99
830.542	12.46
830.719	80.04
830.896	-10.07
831.073	-28.5
831.25	-5.97
831.427	37.03
831.604	8.36
831.782	-55.12
831.959	10.41
832.136	-1.88
832.313	8.36
832.49	-38.74
832.667	-10.07
832.844	-1.88
833.021	118.95
833.198	45.23
833.374	41.13
833.551	-59.22
833.728	45.23
833.905	63.66
834.082	-63.32
834.259	20.65
834.436	65.71
834.612	-24.4
834.789	49.32
834.966	-46.93
835.143	108.71
835.319	-89.94
835.496	127.14
835.673	69.8
835.85	106.67
836.026	-10.07
836.203	129.19
836.38	-51.03
836.556	-65.36
836.733	-85.84
836.909	166.06
837.086	34.99
837.262	-22.36
837.439	39.08
837.616	-20.31
837.792	18.6
837.968	-48.98
838.145	-114.52
838.321	-16.21
838.498	-14.17
838.674	49.32
838.851	61.61
839.027	6.31
839.203	-30.55
839.38	37.03
839.556	41.13
839.732	102.57
839.909	45.23
840.085	71.85
840.261	8.36
840.437	12.46
840.614	10.41
840.79	39.08
840.966	53.42
841.142	88.23
841.318	-12.12
841.494	-38.74
841.671	90.28
841.847	-22.36
842.023	-65.36
842.199	49.32
842.375	116.9
842.551	-89.94
842.727	-104.28
842.903	149.67
843.079	-63.32
843.255	67.75
843.431	2.22
843.607	20.65
843.783	-143.19
843.959	104.62
844.134	-63.32
844.31	51.37
844.486	-12.12
844.662	-48.98
844.838	-18.26
845.013	41.13
845.189	84.14
845.365	12.46
845.541	41.13
845.716	57.51
845.892	30.89
846.068	-16.21
846.244	-53.08
846.419	24.75
846.595	-55.12
846.77	-91.99
846.946	39.08
847.122	-12.12
847.297	8.36
847.473	178.34
847.648	26.79
847.824	-98.13
847.999	-79.7
848.175	-24.4
848.35	30.89
848.526	71.85
848.701	106.67
848.876	18.6
849.052	82.09
849.227	-26.45
849.403	22.7
849.578	-73.56
849.753	-40.79
849.929	170.15
850.104	14.51
850.279	-26.45
850.454	14.51
850.63	-1.88
850.805	14.51
850.98	16.55
851.155	-44.88
851.33	102.57
851.505	-57.17
851.681	176.3
851.856	-65.36
852.031	47.27
852.206	110.76
852.381	-16.21
852.556	-83.8
852.731	6.31
852.906	71.85
853.081	106.67
853.256	114.86
853.431	-10.07
853.606	-24.4
853.781	-40.79
853.956	-67.41
854.131	32.94
854.305	-30.55
854.48	14.51
854.655	-42.84
854.83	12.46
855.005	-75.6
855.18	8.36
855.354	-55.12
855.529	4.27
855.704	-12.12
855.879	-22.36
856.053	-124.76
856.228	-38.74
856.403	-20.31
856.577	4.27
856.752	-157.52
856.926	-1.88
857.101	-18.26
857.276	-100.18
857.45	127.14
857.625	39.08
857.799	39.08
857.974	-16.21
858.148	-71.51
858.323	2.22
858.497	43.18
858.672	-22.36
858.846	-44.88
859.02	104.62
859.195	-38.74
859.369	-108.37
859.543	0.17
859.718	-5.97
859.892	69.8
860.066	-24.4
860.241	-53.08
860.415	16.55
860.589	55.47
860.763	-24.4
860.938	-77.65
861.112	16.55
861.286	-85.84
861.46	-24.4
861.634	18.6
861.808	-5.97
861.982	-40.79
862.157	-120.66
862.331	-75.6
862.505	-40.79
862.679	-55.12
862.853	-40.79
863.027	10.41
863.201	147.62
863.375	-44.88
863.549	12.46
863.722	8.36
863.896	34.99
864.07	-77.65
864.244	-48.98
864.418	34.99
864.592	84.14
864.766	-32.6
864.939	-116.56
865.113	-44.88
865.287	69.8
865.461	-14.17
865.634	-69.46
865.808	-61.27
865.982	-112.47
866.156	-120.66
866.329	18.6
866.503	-38.74
866.676	104.62
866.85	34.99
867.024	22.7
867.197	14.51
867.371	-20.31
867.544	39.08
867.718	-32.6
867.891	88.23
868.065	8.36
868.238	-3.93
868.412	49.32
868.585	0.17
868.759	-12.12
868.932	-18.26
869.105	-69.46
869.279	84.14
869.452	-91.99
869.625	32.94
869.799	-48.98
869.972	-71.51
870.145	14.51
870.319	41.13
870.492	18.6
870.665	-46.93
870.838	-14.17
871.011	-135
871.185	-28.5
871.358	-24.4
871.531	80.04
871.704	-91.99
871.877	39.08
872.05	41.13
872.223	-61.27
872.396	-40.79
872.569	92.33
872.742	-141.14
872.915	49.32
873.088	-48.98
873.261	-40.79
873.434	61.61
873.607	-71.51
873.78	75.95
873.953	-112.47
874.126	-38.74
874.299	22.7
874.471	-65.36
874.644	12.46
874.817	88.23
874.99	198.82
875.163	-114.52
875.335	4.27
875.508	-18.26
875.681	71.85
875.853	-26.45
876.026	59.56
876.199	-28.5
876.371	0.17
876.544	-34.64
876.717	-79.7
876.889	0.17
877.062	32.94
877.234	-83.8
877.407	-61.27
877.579	-20.31
877.752	-36.69
877.924	75.95
878.097	16.55
878.269	-40.79
878.442	-38.74
878.614	26.79
878.786	-30.55
878.959	18.6
879.131	96.43
879.303	-30.55
879.476	-59.22
879.648	-20.31
879.82	-87.89
879.993	-16.21
880.165	-1.88
880.337	-46.93
880.509	49.32
880.681	-61.27
880.854	-24.4
881.026	39.08
881.198	98.47
881.37	-65.36
881.542	73.9
881.714	18.6
881.886	-44.88
882.058	34.99
882.23	-24.4
882.402	-59.22
882.574	32.94
882.746	37.03
882.918	129.19
883.09	30.89
883.262	-63.32
883.434	-24.4
883.606	-87.89
883.778	12.46
883.95	26.79
884.122	-57.17
884.293	51.37
884.465	-3.93
884.637	88.23
884.809	-71.51
884.98	12.46
885.152	-69.46
885.324	22.7
885.496	-57.17
885.667	37.03
885.839	-55.12
886.011	22.7
886.182	84.14
886.354	4.27
886.525	-40.79
886.697	28.84
886.869	-81.75
887.04	-55.12
887.212	108.71
887.383	100.52
887.555	-14.17
887.726	34.99
887.897	-22.36
888.069	20.65
888.24	26.79
888.412	-34.64
888.583	8.36
888.754	61.61
888.926	-114.52
889.097	-87.89
889.268	-151.38
889.44	-53.08
889.611	-65.36
889.782	-83.8
889.953	-71.51
890.125	22.7
890.296	-102.23
890.467	30.89
890.638	-65.36
890.809	-51.03
890.98	-118.61
891.151	-20.31
891.323	-8.02
891.494	-1.88
891.665	8.36
891.836	-44.88
892.007	16.55
892.178	-59.22
892.349	14.51
892.52	-34.64
892.691	65.71
892.862	-132.95
893.032	-67.41
893.203	-59.22
893.374	-14.17
893.545	-3.93
893.716	10.41
893.887	90.28
894.057	-53.08
894.228	-40.79
894.399	-51.03
894.57	51.37
894.74	-20.31
894.911	10.41
895.082	-32.6
895.253	-102.23
895.423	-38.74
895.594	10.41
895.764	34.99
895.935	-8.02
896.106	55.47
896.276	-12.12
896.447	-36.69
896.617	-8.02
896.788	-63.32
896.958	-114.52
897.129	-91.99
897.299	-85.84
897.47	168.1
897.64	20.65
897.81	-20.31
897.981	16.55
898.151	-22.36
898.322	-5.97
898.492	-1.88
898.662	-79.7
898.832	-116.56
899.003	16.55
899.173	116.9
899.343	-42.84
899.513	-116.56
