Data from USB4F104151__154__11-04-31-138.txt Node

Date: Wed Feb 26 11:04:31 EST 2025
User: louis
Spectrometer: USB4F10415
Trigger mode: 4
Integration Time (sec): 1.000000E-1
Scans to average: 1
Electric dark correction enabled: true
Nonlinearity correction enabled: false
Boxcar width: 0
XAxis mode: Wavelengths
Number of Pixels in Spectrum: 3648
>>>>>Begin Spectral Data<<<<<
178.204	-425.47
178.424	-425.47
178.644	-425.47
178.864	-378.36
179.084	-421.37
179.304	-40.45
179.524	-3.58
179.744	-56.83
179.964	18.94
180.184	76.29
180.404	2.56
180.624	-7.68
180.844	14.85
181.064	-15.87
181.283	33.28
181.503	-50.69
181.723	29.18
181.943	-103.93
182.163	178.69
182.383	-40.45
182.602	64
182.822	174.59
183.042	88.57
183.262	8.7
183.482	37.38
183.701	88.57
183.921	45.57
184.141	-75.26
184.361	66.05
184.58	68.09
184.8	94.72
185.02	-40.45
185.239	0.51
185.459	74.24
185.679	80.38
185.898	-89.6
186.118	74.24
186.338	45.57
186.557	137.73
186.777	-50.69
186.997	-24.06
187.216	35.33
187.436	170.49
187.655	20.99
187.875	66.05
188.095	-32.26
188.314	213.5
188.534	53.76
188.753	6.66
188.973	156.16
189.192	147.97
189.412	68.09
189.631	45.57
189.851	-11.78
190.07	145.92
190.29	-67.07
190.509	-15.87
190.729	-15.87
190.948	74.24
191.168	221.69
191.387	41.47
191.607	-40.45
191.826	23.04
192.045	57.86
192.265	39.42
192.484	23.04
192.704	10.75
192.923	-91.65
193.142	152.06
193.362	72.19
193.581	18.94
193.8	59.9
194.02	121.34
194.239	43.52
194.458	55.81
194.678	-7.68
194.897	-22.02
195.116	61.95
195.335	-22.02
195.555	96.77
195.774	35.33
195.993	133.63
196.212	74.24
196.432	2.56
196.651	31.23
196.87	-95.74
197.089	186.88
197.308	35.33
197.528	121.34
197.747	4.61
197.966	119.29
198.185	51.71
198.404	-11.78
198.623	104.96
198.842	117.25
199.062	64
199.281	109.05
199.5	18.94
199.719	0.51
199.938	41.47
200.157	31.23
200.376	113.15
200.595	143.87
200.814	37.38
201.033	-48.64
201.252	102.91
201.471	27.14
201.69	92.67
201.909	64
202.128	119.29
202.347	59.9
202.566	37.38
202.785	-44.54
203.004	-54.78
203.223	219.64
203.442	-1.54
203.661	-52.74
203.879	90.62
204.098	88.57
204.317	-71.17
204.536	78.33
204.755	80.38
204.974	203.26
205.193	-67.07
205.411	178.69
205.63	61.95
205.849	-46.59
206.068	41.47
206.287	-44.54
206.505	225.79
206.724	-50.69
206.943	18.94
207.162	-22.02
207.381	-11.78
207.599	35.33
207.818	96.77
208.037	-26.11
208.255	-15.87
208.474	8.7
208.693	64
208.911	23.04
209.13	88.57
209.349	152.06
209.567	27.14
209.786	145.92
210.005	86.53
210.223	82.43
210.442	-81.41
210.661	-3.58
210.879	55.81
211.098	4.61
211.316	43.52
211.535	41.47
211.753	39.42
211.972	104.96
212.191	20.99
212.409	-13.82
212.628	45.57
212.846	-42.5
213.065	107.01
213.283	51.71
213.502	12.8
213.72	-19.97
213.938	-30.21
214.157	-17.92
214.375	82.43
214.594	27.14
214.812	96.77
215.031	31.23
215.249	-9.73
215.467	59.9
215.686	-26.11
215.904	8.7
216.122	39.42
216.341	64
216.559	8.7
216.778	35.33
216.996	127.49
217.214	35.33
217.432	-44.54
217.651	-38.4
217.869	20.99
218.087	29.18
218.306	14.85
218.524	135.68
218.742	12.8
218.96	133.63
219.179	-52.74
219.397	8.7
219.615	221.69
219.833	111.1
220.051	-36.35
220.27	43.52
220.488	139.77
220.706	139.77
220.924	-24.06
221.142	66.05
221.36	47.62
221.578	49.66
221.796	-44.54
222.015	2.56
222.233	45.57
222.451	143.87
222.669	-15.87
222.887	135.68
223.105	25.09
223.323	55.81
223.541	-30.21
223.759	-5.63
223.977	39.42
224.195	166.4
224.413	98.81
224.631	-15.87
224.849	0.51
225.067	178.69
225.285	-28.16
225.503	-38.4
225.721	-32.26
225.939	4.61
226.157	72.19
226.375	213.5
226.592	-75.26
226.81	72.19
227.028	131.58
227.246	154.11
227.464	8.7
227.682	86.53
227.9	166.4
228.117	-15.87
228.335	104.96
228.553	-28.16
228.771	27.14
228.989	-36.35
229.206	113.15
229.424	66.05
229.642	4.61
229.86	0.51
230.077	186.88
230.295	53.76
230.513	154.11
230.731	66.05
230.948	154.11
231.166	186.88
231.384	8.7
231.601	-54.78
231.819	201.21
232.037	12.8
232.254	-65.02
232.472	55.81
232.689	-34.3
232.907	94.72
233.125	6.66
233.342	12.8
233.56	-22.02
233.777	-26.11
233.995	64
234.213	121.34
234.43	113.15
234.648	37.38
234.865	4.61
235.083	61.95
235.3	92.67
235.518	115.2
235.735	107.01
235.953	86.53
236.17	6.66
236.388	80.38
236.605	-19.97
236.822	27.14
237.04	127.49
237.257	59.9
237.475	-7.68
237.692	43.52
237.909	41.47
238.127	-24.06
238.344	68.09
238.562	37.38
238.779	-52.74
238.996	-83.45
239.214	43.52
239.431	23.04
239.648	23.04
239.865	98.81
240.083	66.05
240.3	25.09
240.517	-9.73
240.735	68.09
240.952	107.01
241.169	86.53
241.386	45.57
241.603	92.67
241.821	-52.74
242.038	23.04
242.255	141.82
242.472	-54.78
242.689	96.77
242.907	74.24
243.124	29.18
243.341	80.38
243.558	-42.5
243.775	-38.4
243.992	-62.98
244.209	-7.68
244.426	129.53
244.643	39.42
244.86	47.62
245.078	41.47
245.295	92.67
245.512	12.8
245.729	41.47
245.946	53.76
246.163	-36.35
246.38	-15.87
246.597	96.77
246.814	29.18
247.031	66.05
247.248	-1.54
247.464	39.42
247.681	4.61
247.898	72.19
248.115	76.29
248.332	-69.12
248.549	45.57
248.766	72.19
248.983	43.52
249.2	47.62
249.417	84.48
249.633	6.66
249.85	86.53
250.067	-24.06
250.284	16.9
250.501	74.24
250.717	23.04
250.934	-40.45
251.151	33.28
251.368	4.61
251.585	45.57
251.801	84.48
252.018	-48.64
252.235	145.92
252.451	-73.21
252.668	57.86
252.885	111.1
253.102	51.71
253.318	152.06
253.535	6.66
253.752	-34.3
253.968	14.85
254.185	-15.87
254.401	94.72
254.618	23.04
254.835	-38.4
255.051	96.77
255.268	12.8
255.484	82.43
255.701	-89.6
255.917	92.67
256.134	-5.63
256.351	35.33
256.567	-38.4
256.784	94.72
257	-52.74
257.217	104.96
257.433	109.05
257.65	49.66
257.866	131.58
258.082	-38.4
258.299	16.9
258.515	4.61
258.732	-26.11
258.948	23.04
259.165	107.01
259.381	23.04
259.597	90.62
259.814	-1.54
260.03	47.62
260.246	55.81
260.463	137.73
260.679	188.93
260.895	131.58
261.112	37.38
261.328	-3.58
261.544	-36.35
261.761	147.97
261.977	31.23
262.193	59.9
262.409	115.2
262.626	4.61
262.842	-9.73
263.058	-7.68
263.274	111.1
263.49	74.24
263.707	82.43
263.923	117.25
264.139	-15.87
264.355	57.86
264.571	166.4
264.787	150.01
265.004	88.57
265.22	66.05
265.436	-52.74
265.652	47.62
265.868	37.38
266.084	-89.6
266.3	25.09
266.516	-15.87
266.732	35.33
266.948	-7.68
267.164	-42.5
267.38	152.06
267.596	82.43
267.812	131.58
268.028	41.47
268.244	2.56
268.46	111.1
268.676	47.62
268.892	86.53
269.108	-69.12
269.324	29.18
269.54	-32.26
269.756	104.96
269.972	-44.54
270.188	-9.73
270.403	-5.63
270.619	-13.82
270.835	178.69
271.051	47.62
271.267	53.76
271.483	-34.3
271.698	64
271.914	23.04
272.13	18.94
272.346	47.62
272.562	86.53
272.777	86.53
272.993	33.28
273.209	18.94
273.425	123.39
273.64	-89.6
273.856	102.91
274.072	2.56
274.287	-9.73
274.503	137.73
274.719	100.86
274.934	0.51
275.15	-77.31
275.366	-15.87
275.581	-9.73
275.797	6.66
276.012	29.18
276.228	16.9
276.444	88.57
276.659	195.07
276.875	27.14
277.09	-24.06
277.306	-11.78
277.521	70.14
277.737	12.8
277.952	70.14
278.168	37.38
278.383	-60.93
278.599	100.86
278.814	80.38
279.03	64
279.245	141.82
279.461	8.7
279.676	88.57
279.892	-30.21
280.107	-26.11
280.322	-67.07
280.538	70.14
280.753	-22.02
280.969	94.72
281.184	29.18
281.399	76.29
281.615	61.95
281.83	80.38
282.045	80.38
282.26	-36.35
282.476	37.38
282.691	33.28
282.906	20.99
283.122	70.14
283.337	23.04
283.552	82.43
283.767	-46.59
283.983	74.24
284.198	-42.5
284.413	74.24
284.628	-91.65
284.843	-3.58
285.058	78.33
285.274	23.04
285.489	-34.3
285.704	74.24
285.919	66.05
286.134	20.99
286.349	14.85
286.564	16.9
286.779	88.57
286.995	-24.06
287.21	-7.68
287.425	86.53
287.64	4.61
287.855	2.56
288.07	-91.65
288.285	92.67
288.5	104.96
288.715	39.42
288.93	37.38
289.145	-17.92
289.36	160.25
289.575	107.01
289.79	121.34
290.004	-58.88
290.219	135.68
290.434	-5.63
290.649	-62.98
290.864	-34.3
291.079	57.86
291.294	84.48
291.509	139.77
291.724	25.09
291.938	-1.54
292.153	78.33
292.368	-5.63
292.583	-15.87
292.798	70.14
293.012	47.62
293.227	156.16
293.442	23.04
293.657	104.96
293.871	115.2
294.086	82.43
294.301	186.88
294.516	-9.73
294.73	68.09
294.945	-30.21
295.16	20.99
295.374	74.24
295.589	100.86
295.804	-15.87
296.018	59.9
296.233	137.73
296.447	-9.73
296.662	-15.87
296.877	86.53
297.091	57.86
297.306	25.09
297.52	115.2
297.735	76.29
297.949	12.8
298.164	72.19
298.378	-15.87
298.593	-9.73
298.807	6.66
299.022	6.66
299.236	74.24
299.451	4.61
299.665	37.38
299.88	-73.21
300.094	141.82
300.309	47.62
300.523	14.85
300.737	-17.92
300.952	80.38
301.166	47.62
301.381	-28.16
301.595	-15.87
301.809	88.57
302.024	-26.11
302.238	10.75
302.452	176.64
302.667	66.05
302.881	178.69
303.095	170.49
303.309	78.33
303.524	-38.4
303.738	20.99
303.952	-9.73
304.166	18.94
304.381	-93.69
304.595	84.48
304.809	57.86
305.023	57.86
305.237	-32.26
305.452	-48.64
305.666	25.09
305.88	113.15
306.094	141.82
306.308	104.96
306.522	47.62
306.736	127.49
306.95	80.38
307.164	92.67
307.379	43.52
307.593	90.62
307.807	64
308.021	4.61
308.235	82.43
308.449	-71.17
308.663	-24.06
308.877	246.27
309.091	70.14
309.305	53.76
309.519	-108.03
309.733	139.77
309.947	-144.89
310.161	59.9
310.374	76.29
310.588	31.23
310.802	-7.68
311.016	-19.97
311.23	100.86
311.444	-40.45
311.658	27.14
311.872	53.76
312.085	143.87
312.299	145.92
312.513	193.02
312.727	8.7
312.941	-42.5
313.154	45.57
313.368	121.34
313.582	-54.78
313.796	96.77
314.009	-34.3
314.223	111.1
314.437	55.81
314.651	66.05
314.864	12.8
315.078	20.99
315.292	-77.31
315.505	-1.54
315.719	53.76
315.933	94.72
316.146	43.52
316.36	-19.97
316.573	98.81
316.787	74.24
317.001	64
317.214	-13.82
317.428	49.66
317.641	-28.16
317.855	61.95
318.068	23.04
318.282	51.71
318.495	168.45
318.709	64
318.922	59.9
319.136	113.15
319.349	47.62
319.563	6.66
319.776	94.72
319.99	-81.41
320.203	55.81
320.417	23.04
320.63	37.38
320.843	137.73
321.057	16.9
321.27	76.29
321.483	94.72
321.697	147.97
321.91	-32.26
322.124	51.71
322.337	14.85
322.55	-1.54
322.763	66.05
322.977	0.51
323.19	16.9
323.403	0.51
323.617	8.7
323.83	168.45
324.043	51.71
324.256	86.53
324.469	-56.83
324.683	170.49
324.896	6.66
325.109	37.38
325.322	-11.78
325.535	90.62
325.748	98.81
325.962	25.09
326.175	43.52
326.388	55.81
326.601	92.67
326.814	-42.5
327.027	70.14
327.24	137.73
327.453	-128.51
327.666	133.63
327.879	39.42
328.092	100.86
328.305	129.53
328.518	-85.5
328.731	-17.92
328.944	66.05
329.157	80.38
329.37	31.23
329.583	127.49
329.796	172.54
330.009	-34.3
330.222	137.73
330.435	88.57
330.648	-5.63
330.861	-9.73
331.073	66.05
331.286	61.95
331.499	23.04
331.712	-32.26
331.925	37.38
332.138	-24.06
332.35	113.15
332.563	23.04
332.776	88.57
332.989	4.61
333.202	-7.68
333.414	59.9
333.627	123.39
333.84	64
334.053	23.04
334.265	6.66
334.478	37.38
334.691	-7.68
334.903	31.23
335.116	-50.69
335.329	25.09
335.541	78.33
335.754	178.69
335.966	-65.02
336.179	-15.87
336.392	-13.82
336.604	-17.92
336.817	129.53
337.029	27.14
337.242	29.18
337.454	135.68
337.667	0.51
337.88	156.16
338.092	49.66
338.305	123.39
338.517	43.52
338.729	53.76
338.942	123.39
339.154	-97.79
339.367	-52.74
339.579	113.15
339.792	-13.82
340.004	64
340.217	-48.64
340.429	27.14
340.641	70.14
340.854	-73.21
341.066	23.04
341.278	57.86
341.491	178.69
341.703	23.04
341.915	-22.02
342.128	156.16
342.34	68.09
342.552	-99.84
342.764	14.85
342.977	104.96
343.189	37.38
343.401	80.38
343.613	-126.46
343.826	-40.45
344.038	-3.58
344.25	57.86
344.462	35.33
344.674	76.29
344.886	-44.54
345.099	31.23
345.311	31.23
345.523	49.66
345.735	-65.02
345.947	25.09
346.159	-65.02
346.371	6.66
346.583	6.66
346.795	256.51
347.007	-22.02
347.219	43.52
347.431	123.39
347.643	113.15
347.855	-103.93
348.067	121.34
348.279	-54.78
348.491	47.62
348.703	117.25
348.915	23.04
349.127	-65.02
349.339	16.9
349.551	-50.69
349.763	113.15
349.975	39.42
350.187	117.25
350.399	100.86
350.61	53.76
350.822	-5.63
351.034	102.91
351.246	88.57
351.458	37.38
351.669	129.53
351.881	129.53
352.093	111.1
352.305	61.95
352.517	49.66
352.728	25.09
352.94	55.81
353.152	82.43
353.363	35.33
353.575	100.86
353.787	115.2
353.999	31.23
354.21	186.88
354.422	-38.4
354.633	23.04
354.845	29.18
355.057	20.99
355.268	111.1
355.48	154.11
355.692	-81.41
355.903	-40.45
356.115	23.04
356.326	-46.59
356.538	123.39
356.749	-1.54
356.961	150.01
357.172	14.85
357.384	-24.06
357.595	172.54
357.807	0.51
358.018	20.99
358.23	117.25
358.441	119.29
358.653	104.96
358.864	10.75
359.075	-9.73
359.287	111.1
359.498	94.72
359.709	113.15
359.921	59.9
360.132	90.62
360.344	57.86
360.555	-44.54
360.766	72.19
360.977	0.51
361.189	31.23
361.4	12.8
361.611	74.24
361.823	98.81
362.034	37.38
362.245	-40.45
362.456	6.66
362.667	64
362.879	-52.74
363.09	119.29
363.301	80.38
363.512	82.43
363.723	10.75
363.935	57.86
364.146	82.43
364.357	10.75
364.568	23.04
364.779	-62.98
364.99	100.86
365.201	-1.54
365.412	162.3
365.623	-7.68
365.834	31.23
366.045	35.33
366.256	61.95
366.467	74.24
366.678	-34.3
366.889	25.09
367.1	14.85
367.311	166.4
367.522	-44.54
367.733	102.91
367.944	20.99
368.155	-26.11
368.366	82.43
368.577	141.82
368.788	123.39
368.999	-89.6
369.209	25.09
369.42	217.6
369.631	199.16
369.842	64
370.053	29.18
370.264	37.38
370.474	37.38
370.685	107.01
370.896	78.33
371.107	51.71
371.317	90.62
371.528	10.75
371.739	123.39
371.95	68.09
372.16	88.57
372.371	-13.82
372.582	-1.54
372.792	172.54
373.003	33.28
373.214	31.23
373.424	51.71
373.635	6.66
373.846	182.78
374.056	16.9
374.267	43.52
374.477	82.43
374.688	2.56
374.898	125.44
375.109	16.9
375.319	59.9
375.53	180.73
375.74	100.86
375.951	-44.54
376.161	35.33
376.372	45.57
376.582	-13.82
376.793	64
377.003	25.09
377.214	-17.92
377.424	8.7
377.635	37.38
377.845	27.14
378.055	225.79
378.266	12.8
378.476	41.47
378.686	51.71
378.897	55.81
379.107	49.66
379.317	115.2
379.528	-22.02
379.738	131.58
379.948	-56.83
380.158	76.29
380.369	64
380.579	35.33
380.789	10.75
380.999	131.58
381.21	94.72
381.42	145.92
381.63	4.61
381.84	49.66
382.05	8.7
382.261	51.71
382.471	125.44
382.681	2.56
382.891	168.45
383.101	68.09
383.311	-75.26
383.521	-50.69
383.731	119.29
383.941	107.01
384.151	117.25
384.361	-17.92
384.571	78.33
384.781	68.09
384.991	158.21
385.201	129.53
385.411	133.63
385.621	33.28
385.831	16.9
386.041	-1.54
386.251	137.73
386.461	90.62
386.671	8.7
386.881	78.33
387.091	16.9
387.301	100.86
387.511	31.23
387.72	98.81
387.93	72.19
388.14	-79.36
388.35	20.99
388.56	197.12
388.769	137.73
388.979	6.66
389.189	-24.06
389.399	121.34
389.609	76.29
389.818	111.1
390.028	23.04
390.238	72.19
390.447	-38.4
390.657	49.66
390.867	-13.82
391.076	-73.21
391.286	90.62
391.496	14.85
391.705	23.04
391.915	143.87
392.125	113.15
392.334	-15.87
392.544	131.58
392.753	78.33
392.963	-36.35
393.172	49.66
393.382	41.47
393.591	170.49
393.801	-34.3
394.01	197.12
394.22	123.39
394.429	-7.68
394.639	16.9
394.848	98.81
395.058	25.09
395.267	23.04
395.477	84.48
395.686	-17.92
395.895	213.5
396.105	137.73
396.314	55.81
396.524	47.62
396.733	-52.74
396.942	96.77
397.152	162.3
397.361	74.24
397.57	14.85
397.78	123.39
397.989	47.62
398.198	244.22
398.407	92.67
398.617	41.47
398.826	39.42
399.035	61.95
399.244	82.43
399.453	37.38
399.663	2.56
399.872	53.76
400.081	-26.11
400.29	86.53
400.499	35.33
400.708	123.39
400.917	0.51
401.127	92.67
401.336	8.7
401.545	147.97
401.754	184.83
401.963	98.81
402.172	-22.02
402.381	-69.12
402.59	-24.06
402.799	35.33
403.008	147.97
403.217	35.33
403.426	111.1
403.635	-58.88
403.844	49.66
404.053	-9.73
404.262	39.42
404.471	195.07
404.68	61.95
404.888	72.19
405.097	74.24
405.306	107.01
405.515	150.01
405.724	31.23
405.933	96.77
406.142	113.15
406.35	70.14
406.559	49.66
406.768	76.29
406.977	135.68
407.185	131.58
407.394	98.81
407.603	-50.69
407.812	72.19
408.02	37.38
408.229	18.94
408.438	53.76
408.646	-65.02
408.855	37.38
409.064	51.71
409.272	33.28
409.481	82.43
409.69	-26.11
409.898	-9.73
410.107	80.38
410.315	76.29
410.524	-24.06
410.733	70.14
410.941	33.28
411.15	92.67
411.358	72.19
411.567	90.62
411.775	66.05
411.984	47.62
412.192	96.77
412.401	-42.5
412.609	180.73
412.818	170.49
413.026	68.09
413.234	68.09
413.443	31.23
413.651	45.57
413.86	143.87
414.068	182.78
414.276	125.44
414.485	-24.06
414.693	131.58
414.901	133.63
415.11	59.9
415.318	78.33
415.526	94.72
415.734	111.1
415.943	16.9
416.151	104.96
416.359	37.38
416.567	117.25
416.776	80.38
416.984	145.92
417.192	227.84
417.4	59.9
417.608	37.38
417.817	-71.17
418.025	16.9
418.233	168.45
418.441	-38.4
418.649	-114.17
418.857	96.77
419.065	121.34
419.273	23.04
419.481	61.95
419.689	84.48
419.897	80.38
420.105	-48.64
420.313	68.09
420.521	119.29
420.729	150.01
420.937	-13.82
421.145	20.99
421.353	123.39
421.561	201.21
421.769	78.33
421.977	-24.06
422.185	86.53
422.393	55.81
422.601	109.05
422.809	78.33
423.017	84.48
423.224	125.44
423.432	125.44
423.64	25.09
423.848	182.78
424.056	23.04
424.263	111.1
424.471	76.29
424.679	51.71
424.887	16.9
425.094	168.45
425.302	164.35
425.51	-32.26
425.718	100.86
425.925	98.81
426.133	23.04
426.341	229.88
426.548	96.77
426.756	-28.16
426.964	137.73
427.171	-44.54
427.379	49.66
427.586	8.7
427.794	35.33
428.001	166.4
428.209	76.29
428.417	195.07
428.624	154.11
428.832	16.9
429.039	49.66
429.247	115.2
429.454	125.44
429.662	264.7
429.869	172.54
430.076	172.54
430.284	172.54
430.491	207.36
430.699	70.14
430.906	205.31
431.114	109.05
431.321	203.26
431.528	113.15
431.736	64
431.943	141.82
432.15	227.84
432.358	154.11
432.565	252.41
432.772	80.38
432.979	266.75
433.187	92.67
433.394	119.29
433.601	109.05
433.808	172.54
434.016	266.75
434.223	258.56
434.43	260.6
434.637	223.74
434.844	289.28
435.052	186.88
435.259	301.56
435.466	307.71
435.673	244.22
435.88	252.41
436.087	332.28
436.294	381.43
436.501	383.48
436.708	340.47
436.915	365.05
437.122	320
437.329	274.94
437.537	274.94
437.743	358.91
437.95	455.16
438.157	299.52
438.364	373.24
438.571	401.91
438.778	422.39
438.985	379.39
439.192	453.11
439.399	393.72
439.606	465.4
439.813	541.18
440.02	645.62
440.227	690.68
440.433	610.81
440.64	500.22
440.847	516.6
441.054	530.94
441.261	825.84
441.467	614.9
441.674	598.52
441.881	721.4
442.088	684.53
442.294	709.11
442.501	805.36
442.708	856.56
442.914	758.26
443.121	895.47
443.328	913.91
443.534	942.58
443.741	827.89
443.948	885.23
444.154	1008.11
444.361	1180.14
444.568	958.96
444.774	1044.98
444.981	977.39
445.187	1241.58
445.394	1128.94
445.6	1167.85
445.807	1366.51
446.013	1208.81
446.22	1247.72
446.426	1413.61
446.633	1518.06
446.839	1690.09
447.046	1513.96
447.252	1597.93
447.459	1628.65
447.665	1626.6
447.871	1880.55
448.078	1960.42
448.284	1907.17
448.491	2050.53
448.697	2136.54
448.903	2228.7
449.11	2324.96
449.316	2263.52
449.522	2478.55
449.728	2441.69
449.935	2628.06
450.141	2533.85
450.347	2873.81
450.553	2650.58
450.76	2863.57
450.966	3023.31
451.172	3170.77
451.378	3191.25
451.584	3293.65
451.791	3721.67
451.997	3543.5
452.203	3801.54
452.409	3994.05
452.615	4004.29
452.821	4024.77
453.027	3926.47
453.233	4506.04
453.44	4340.16
453.646	4522.43
453.852	4807.09
454.058	4917.68
454.264	5151.15
454.47	5390.77
454.676	5351.85
454.882	5892.52
455.088	5644.71
455.294	6025.64
455.5	6312.35
455.705	6828.44
455.911	6824.34
456.117	6922.65
456.323	7408.01
456.529	7264.66
456.735	8018.31
456.941	8388.99
457.147	8518.01
457.352	8774.01
457.558	8927.61
457.764	9445.74
457.97	9705.84
458.176	10160.48
458.381	10748.25
458.587	10871.13
458.793	11258.2
458.999	11231.57
459.204	13056.31
459.41	13164.86
459.616	13197.62
459.821	13963.56
460.027	14147.88
460.233	15057.18
460.438	15106.33
460.644	15966.48
460.85	16034.06
461.055	16781.57
461.261	17533.17
461.466	17334.52
461.672	17557.75
461.878	19925.2
462.083	19575
462.289	20146.38
462.494	20660.42
462.7	20955.33
462.905	21401.79
463.111	23091.36
463.316	24082.58
463.522	24264.85
463.727	25069.7
463.932	26341.49
464.138	26998.88
464.343	28022.87
464.549	28434.51
464.754	30345.26
464.959	30773.29
465.165	31453.22
465.37	31531.04
465.575	31516.7
465.781	33622.01
465.986	34351.09
466.191	33996.79
466.397	34293.75
466.602	33316.87
466.807	35342.31
467.012	35889.12
467.218	36536.27
467.423	36683.73
467.628	37416.9
467.833	39581.6
468.038	38672.31
468.244	37935.04
468.449	40087.45
468.654	39561.12
468.859	39270.31
469.064	39311.27
469.269	38266.81
469.474	38408.12
469.679	39618.47
469.885	38475.7
470.09	39176.11
470.295	39139.24
470.5	38279.1
470.705	38627.25
470.91	37482.44
471.115	37101.51
471.32	37648.32
471.525	37445.57
471.73	36466.64
471.935	36431.83
472.139	34531.31
472.344	35205.09
472.549	34686.96
472.754	33976.31
472.959	33146.89
473.164	32241.68
473.369	31324.19
473.574	32598.03
473.778	31895.58
473.983	31375.39
474.188	30910.5
474.393	29335.62
474.598	29278.27
474.802	28411.98
475.007	28383.31
475.212	28051.54
475.417	26802.28
475.621	26695.78
475.826	26427.5
476.031	25729.14
476.235	25217.15
476.44	25206.91
476.645	24377.48
476.849	24117.39
477.054	24010.9
477.259	23345.31
477.463	23216.29
477.668	22397.1
477.872	22562.98
478.077	21852.34
478.282	21242.04
478.486	21143.74
478.691	20979.9
478.895	20668.61
479.1	20545.73
479.304	20635.85
479.509	19818.71
479.713	20349.13
479.918	19519.7
480.122	19278.04
480.326	19140.83
480.531	19337.43
480.735	19275.99
480.94	18647.27
481.144	19417.3
481.348	18315.5
481.553	18372.84
481.757	18002.16
481.961	18264.3
482.166	18157.8
482.37	18233.58
482.574	17524.98
482.778	17823.98
482.983	17780.98
483.187	17336.57
483.391	17418.49
483.595	17191.16
483.8	16699.65
484.004	16824.58
484.208	16812.29
484.412	16509.19
484.616	16470.28
484.821	16161.03
485.025	15739.15
485.229	15972.62
485.433	15382.81
485.637	15438.1
485.841	14960.92
486.045	15157.53
486.249	15120.67
486.453	14444.84
486.657	14457.12
486.861	14096.68
487.065	13695.28
487.269	13816.11
487.473	13310.26
487.677	13605.17
487.881	13433.14
488.085	12951.87
488.289	12720.45
488.493	12511.55
488.697	12583.23
488.901	12263.75
489.105	11985.23
489.309	11813.2
489.512	11762
489.716	11583.82
489.92	11129.17
490.124	10821.98
490.328	10858.84
490.531	10656.09
490.735	10369.38
490.939	10150.25
491.143	10084.71
491.346	9687.4
491.55	9859.43
491.754	9593.2
491.958	9589.1
492.161	9105.78
492.365	9255.28
492.569	8868.22
492.772	8808.83
492.976	8905.08
493.18	8511.87
493.383	8769.91
493.587	8454.53
493.79	8370.56
493.994	8141.19
494.197	7987.59
494.401	8210.82
494.605	7870.86
494.808	8022.41
495.012	7821.7
495.215	7745.93
495.419	7877
495.622	7569.8
495.825	7698.83
496.029	7563.66
496.232	7741.83
496.436	7668.11
496.639	7616.91
496.843	7563.66
497.046	7414.16
497.249	7803.27
497.453	7483.79
497.656	7551.37
497.859	7496.08
498.063	7461.26
498.266	7700.87
498.469	7829.9
498.673	7477.65
498.876	7639.44
499.079	7612.81
499.282	7651.72
499.485	8026.5
499.689	7766.41
499.892	8016.26
500.095	7852.42
500.298	8022.41
500.501	7967.11
500.705	7975.3
500.908	8290.69
501.111	8337.79
501.314	8370.56
501.517	8413.57
501.72	8499.58
501.923	8583.55
502.126	8833.4
502.329	8769.91
502.532	9005.43
502.735	8862.07
502.938	9107.83
503.141	9142.64
503.344	9320.82
503.547	9552.24
503.75	9562.48
503.953	9675.12
504.156	9664.88
504.359	9906.54
504.562	10166.63
504.765	10414.43
504.968	10404.19
505.17	10404.19
505.373	10649.95
505.576	11143.51
505.779	10869.08
505.982	11147.61
506.185	11462.99
506.387	11419.99
506.59	11614.54
506.793	11966.79
506.996	11919.69
507.198	12742.97
507.401	12603.71
507.604	12998.97
507.807	13324.6
508.009	13330.74
508.212	13633.84
508.415	13975.85
508.617	14297.38
508.82	14258.47
509.022	14637.34
509.225	15048.99
509.428	15538.45
509.63	15864.08
509.833	15931.66
510.035	16793.86
510.238	16967.93
510.44	17328.38
510.643	17398.01
510.845	18374.89
511.048	18209
511.25	18632.93
511.453	18833.63
511.655	19896.53
511.858	19980.5
512.06	20388.04
512.262	20957.38
512.465	20951.23
512.667	21850.29
512.87	21999.79
513.072	22517.93
513.274	23169.18
513.477	23847.06
513.679	24131.73
513.881	25129.09
514.084	25557.11
514.286	25866.36
514.488	26366.06
514.69	27439.2
514.893	27750.49
515.095	28289.1
515.297	28772.42
515.499	29198.4
515.701	30105.65
515.904	30703.66
516.106	31641.63
516.308	31623.2
516.51	32845.83
516.712	33036.3
516.914	33626.11
517.116	34789.36
517.318	35026.92
517.52	35721.18
517.722	36204.5
517.925	37013.45
518.127	37619.65
518.329	38535.09
518.531	38442.93
518.733	39423.91
518.935	40601.49
519.136	40705.94
519.338	41305.99
519.54	41838.47
519.742	42633.08
519.944	43216.75
520.146	44058.46
520.348	44115.81
520.55	45068.11
520.752	45238.09
520.954	46268.22
521.155	46008.13
521.357	47120.18
521.559	47626.03
521.761	48545.56
521.963	48133.92
522.164	48650.01
522.366	49010.45
522.568	49946.37
522.77	50044.68
522.971	51078.9
523.173	50677.5
523.375	51212.02
523.576	51359.47
523.778	51042.04
523.98	51939.05
524.181	52174.56
524.383	52242.15
524.584	52676.32
524.786	52565.73
524.988	51975.91
525.189	53098.2
525.391	52809.43
525.592	52881.11
525.794	53003.99
525.995	52522.72
526.197	52618.97
526.398	52768.47
526.6	53137.11
526.801	52717.28
527.003	52535.01
527.204	52225.76
527.406	52463.33
527.607	51857.13
527.808	52051.69
528.01	50824.95
528.211	51345.14
528.412	51617.52
528.614	50534.14
528.815	50251.52
529.016	50267.9
529.218	49366.8
529.419	49391.37
529.62	48793.37
529.822	48371.49
530.023	47519.53
530.224	47310.64
530.425	46765.88
530.626	45774.66
530.828	45438.79
531.029	46249.79
531.23	44785.49
531.431	44466.01
531.632	44509.02
531.833	43868
532.035	43259.76
532.236	42921.84
532.437	42542.97
532.638	41414.54
532.839	41228.17
533.04	41131.92
533.241	39929.76
533.442	40023.97
533.643	39413.67
533.844	38930.35
534.045	38191.03
534.246	37396.42
534.447	37412.81
534.648	36704.21
534.849	36239.32
535.05	35629.02
535.251	35094.5
535.451	34680.81
535.652	34473.97
535.853	34033.66
536.054	33859.58
536.255	33007.62
536.456	32423.95
536.657	32675.85
536.857	31434.78
537.058	31019.05
537.259	30707.76
537.46	30582.83
537.66	29995.06
537.861	30105.65
538.062	29218.88
538.263	28921.93
538.463	28596.3
538.664	28332.11
538.865	27809.88
539.065	27770.97
539.266	26998.88
539.466	27095.14
539.667	26019.95
539.868	26720.36
540.068	25825.4
540.269	25729.14
540.469	25411.71
540.67	25018.5
540.87	24893.57
541.071	24438.92
541.271	24400.01
541.472	23976.08
541.672	23789.72
541.873	23421.08
542.073	23015.58
542.274	23074.98
542.474	22718.63
542.675	22063.28
542.875	22223.02
543.075	21819.57
543.276	21424.31
543.476	21522.62
543.676	21133.5
543.877	20844.74
544.077	20689.09
544.277	20621.51
544.478	20089.04
544.678	20173
544.878	19640.53
545.078	19650.77
545.279	19093.72
545.479	19155.16
545.679	18907.36
545.879	18680.03
546.079	18499.81
546.28	18180.33
546.48	18155.75
546.68	17811.7
546.88	17762.54
547.08	17318.14
547.28	17322.23
547.48	16720.13
547.68	17199.35
547.88	16621.83
548.081	16427.27
548.281	16185.61
548.481	15784.21
548.681	15886.61
548.881	15595.79
549.081	15407.38
549.28	15102.23
549.48	15071.51
549.68	14872.86
549.88	14752.03
550.08	14311.72
550.28	14244.13
550.48	14131.5
550.68	13836.59
550.88	13623.6
551.08	13568.3
551.279	13547.83
551.479	13146.42
551.679	12964.15
551.879	12495.17
552.079	12515.65
552.278	12548.42
552.478	12355.91
552.678	12196.17
552.878	11837.77
553.077	11671.89
553.277	11272.53
553.477	11534.67
553.676	11137.37
553.876	10975.58
554.076	10977.62
554.275	10584.41
554.475	10338.66
554.674	10279.27
554.874	10031.46
555.074	9754.99
555.273	9800.04
555.473	9681.26
555.672	9468.27
555.872	9169.27
556.071	9238.9
556.271	9218.42
556.47	8874.36
556.67	8761.72
556.869	8528.25
557.068	8659.32
557.268	8173.96
557.467	8194.43
557.667	8378.75
557.866	7985.54
558.065	7752.07
558.265	7565.71
558.464	7602.57
558.663	7702.92
558.863	7348.62
559.062	7197.07
559.261	7076.24
559.461	7025.04
559.66	6846.87
559.859	6693.27
560.058	6494.62
560.258	6504.86
560.457	6451.61
560.656	6490.52
560.855	6257.06
561.054	6119.84
561.253	6044.07
561.453	5937.57
561.652	5929.38
561.851	5808.55
562.05	5677.48
562.249	5550.51
562.448	5454.25
562.647	5329.33
562.846	5368.24
563.045	5458.35
563.244	5386.67
563.443	5132.72
563.642	5124.53
563.841	4983.22
564.04	4841.91
564.239	4858.29
564.438	4721.08
564.637	4495.8
564.836	4565.43
565.035	4602.3
565.234	4540.86
565.432	4417.98
565.631	4456.89
565.83	4368.83
566.029	4186.56
566.228	4352.45
566.427	4383.17
566.625	3987.91
566.824	4159.94
567.023	3926.47
567.222	3949
567.42	3824.07
567.619	3873.22
567.818	3758.53
568.016	3865.03
568.215	3637.7
568.414	3654.09
568.612	3586.51
568.811	3566.03
569.01	3426.76
569.208	3416.52
569.407	3344.84
569.605	3201.49
569.804	3189.2
570.002	3226.06
570.201	3129.81
570.4	3205.58
570.598	3172.82
570.797	3041.75
570.995	2841.04
571.193	3011.03
571.392	2992.59
571.59	2759.13
571.789	2773.46
571.987	2699.73
572.186	2732.5
572.384	2642.39
572.582	2544.09
572.781	2720.21
572.979	2458.07
573.177	2488.79
573.376	2621.91
573.574	2550.23
573.772	2372.06
573.971	2273.76
574.169	2177.5
574.367	2255.33
574.565	2191.84
574.763	2195.93
574.962	2245.09
575.16	2126.3
575.358	2138.59
575.556	2028
575.754	2001.38
575.952	2195.93
576.151	2021.86
576.349	2064.86
576.547	1860.07
576.745	1976.8
576.943	1974.75
577.141	1806.82
577.339	1778.15
577.537	1876.45
577.735	1866.21
577.933	1774.05
578.131	1774.05
578.329	1858.02
578.527	1669.61
578.725	1688.04
578.923	1509.86
579.121	1751.53
579.319	1403.37
579.516	1483.24
579.714	1620.46
579.912	1530.34
580.11	1475.05
580.308	1479.15
580.506	1378.79
580.704	1296.88
580.901	1286.64
581.099	1384.94
581.297	1270.25
581.495	1393.13
581.692	1260.01
581.89	1403.37
582.088	1294.83
582.285	1180.14
582.483	1266.16
582.681	1219.05
582.878	1161.71
583.076	1200.62
583.274	1184.24
583.471	1272.3
583.669	1210.86
583.866	1055.22
584.064	1059.31
584.262	1077.74
584.459	1106.42
584.657	1026.54
584.854	1186.29
585.052	1096.18
585.249	1018.35
585.447	1016.3
585.644	877.04
585.841	995.82
586.039	997.87
586.236	1042.93
586.434	807.41
586.631	844.28
586.828	717.3
587.026	895.47
587.223	750.07
587.42	823.8
587.618	897.52
587.815	856.56
588.012	795.12
588.21	848.37
588.407	936.43
588.604	821.75
588.801	784.88
588.999	770.55
589.196	899.57
589.393	690.68
589.59	778.74
589.787	793.08
589.984	819.7
590.182	745.97
590.379	692.73
590.576	682.49
590.773	766.45
590.97	647.67
591.167	829.94
591.364	678.39
591.561	647.67
591.758	809.46
591.955	723.44
592.152	731.64
592.349	543.22
592.546	676.34
592.743	655.86
592.94	664.05
593.137	778.74
593.334	764.4
593.531	727.54
593.727	786.93
593.924	739.83
594.121	715.25
594.318	606.71
594.515	809.46
594.712	879.09
594.908	803.32
595.105	709.11
595.302	805.36
595.499	813.56
595.696	858.61
595.892	764.4
596.089	805.36
596.286	815.6
596.482	999.92
596.679	858.61
596.876	834.04
597.072	903.67
597.269	942.58
597.466	866.8
597.662	1024.5
597.859	887.28
598.055	961.01
598.252	1081.84
598.448	1163.76
598.645	1176.05
598.841	1255.92
599.038	1229.29
599.234	1307.12
599.431	1407.47
599.627	1397.23
599.824	1429.99
600.02	1405.42
600.217	1448.43
600.413	1622.5
600.609	1597.93
600.806	1892.84
601.002	1841.64
601.198	1632.74
601.395	1954.27
601.591	1874.4
601.787	1984.99
601.984	1958.37
602.18	2157.02
602.376	2294.24
602.572	2337.24
602.769	2415.07
602.965	2439.64
603.161	2525.66
603.357	2703.83
603.553	2732.5
603.75	2636.25
603.946	2912.72
604.142	3008.98
604.338	3168.72
604.534	3135.95
604.73	3332.56
604.926	3363.28
605.122	3666.38
605.318	3555.79
605.514	3824.07
605.71	3813.83
605.906	3983.81
606.102	4012.48
606.298	4229.57
606.494	4401.6
606.69	4534.71
606.886	4413.88
607.082	4501.95
607.278	4870.58
607.474	4915.64
607.67	5251.5
607.866	5192.11
608.062	5407.15
608.257	5663.15
608.453	5527.98
608.649	5695.91
608.845	5843.37
609.041	6085.03
609.236	6136.23
609.432	6457.76
609.628	6605.21
609.824	6947.22
610.019	6973.85
610.215	7123.35
610.411	7467.41
610.606	7627.15
610.802	7786.89
610.998	7905.67
611.193	8229.25
611.389	8202.63
611.584	8528.25
611.78	8663.42
611.976	8933.75
612.171	9216.37
612.367	9761.13
612.562	9742.7
612.758	9963.88
612.953	10049.89
613.149	10576.22
613.344	10756.44
613.539	11233.62
613.735	11413.84
613.93	11647.31
614.126	11815.24
614.321	12405.06
614.517	12546.37
614.712	13023.55
614.907	13082.94
615.103	13480.24
615.298	13740.33
615.493	14178.6
615.688	14580
615.884	14997.79
616.079	15245.59
616.274	15862.03
616.47	16191.75
616.665	16419.08
616.86	16738.56
617.055	17201.4
617.25	17537.27
617.445	18288.87
617.641	18329.83
617.836	18968.8
618.031	19091.68
618.226	20340.94
618.421	20175.05
618.616	21166.27
618.811	21207.23
619.006	21874.87
619.201	22204.59
619.396	22829.22
619.591	23261.34
619.786	23781.53
619.981	24187.02
620.176	24942.72
620.371	24975.49
620.566	25665.66
620.761	26247.28
620.956	26804.33
621.151	27050.08
621.346	27969.62
621.541	28364.88
621.735	29067.33
621.93	28907.59
622.125	30070.84
622.32	30390.32
622.515	30826.54
622.709	31490.08
622.904	32014.36
623.099	32731.15
623.294	33187.85
623.488	33531.9
623.683	34310.13
623.878	34240.5
624.072	35284.97
624.267	36157.4
624.462	36341.72
624.656	36534.23
624.851	37443.52
625.046	38016.96
625.24	38408.12
625.435	38731.7
625.629	39298.98
625.824	39901.09
626.018	40433.56
626.213	40118.17
626.407	40961.93
626.602	41002.89
626.796	41881.47
626.991	42354.55
627.185	42559.35
627.38	43120.49
627.574	42739.57
627.768	42872.69
627.963	43247.47
628.157	43290.48
628.352	43894.63
628.546	43231.08
628.74	43845.47
628.935	43134.83
629.129	43353.96
629.323	42739.57
629.517	42264.44
629.712	42600.31
629.906	41977.73
630.1	41482.12
630.294	41385.86
630.489	40386.46
630.683	40195.99
630.877	38911.92
631.071	38553.52
631.265	38412.21
631.459	37390.28
631.653	36192.22
631.848	35702.75
632.042	34562.03
632.236	34140.15
632.43	32890.89
632.624	32170.01
632.818	30851.11
633.012	29687.87
633.206	29110.34
633.4	28213.33
633.594	26810.47
633.788	26257.52
633.982	25118.85
634.176	24481.93
634.369	23748.76
634.563	22384.81
634.757	21475.51
634.951	20916.42
635.145	19947.73
635.339	19355.86
635.533	18471.14
635.726	17647.86
635.92	16859.39
636.114	16124.17
636.308	15690
636.501	15212.82
636.695	14393.64
636.889	13682.99
637.083	13035.83
637.276	12794.17
637.47	12233.03
637.664	11563.34
637.857	11462.99
638.051	10873.18
638.244	10467.68
638.438	9679.21
638.632	9593.2
638.825	8956.28
639.019	8745.34
639.212	8432
639.406	8161.67
639.599	7782.79
639.793	7756.17
639.986	7338.38
640.18	7008.66
640.373	6662.55
640.567	6300.06
640.76	6162.85
640.954	6097.31
641.147	5591.47
641.34	5366.19
641.534	5329.33
641.727	5099.95
641.92	4919.73
642.114	4684.22
642.307	4491.71
642.5	4465.08
642.694	4078.02
642.887	4014.53
643.08	4065.73
643.273	3797.45
643.467	3559.88
643.66	3234.25
643.853	3279.31
644.046	3203.54
644.239	3033.55
644.432	3064.27
644.626	2845.14
644.819	2701.78
645.012	2607.58
645.205	2589.14
645.398	2451.93
645.591	2365.92
645.784	2183.65
645.977	2056.67
646.17	2040.29
646.363	1935.84
646.556	1853.92
646.749	1827.3
646.942	1802.72
647.135	1788.39
647.328	1587.69
647.521	1698.28
647.714	1696.23
647.907	1522.15
648.099	1329.64
648.292	1380.84
648.485	1311.21
648.678	1178.09
648.871	1143.28
649.064	1288.68
649.256	1063.41
649.449	1053.17
649.642	942.58
649.835	1049.07
650.027	938.48
650.22	1016.3
650.413	903.67
650.605	956.91
650.798	823.8
650.991	811.51
651.183	711.16
651.376	844.28
651.568	784.88
651.761	707.06
651.954	608.76
652.146	682.49
652.339	721.4
652.531	739.83
652.724	586.23
652.916	557.56
653.109	514.55
653.301	676.34
653.494	584.18
653.686	539.13
653.879	557.56
654.071	610.81
654.263	500.22
654.456	504.31
654.648	602.61
654.84	485.88
655.033	418.3
655.225	512.5
655.417	379.39
655.61	512.5
655.802	471.54
655.994	408.06
656.186	291.32
656.379	430.59
656.571	287.23
656.763	403.96
656.955	352.76
657.148	289.28
657.34	377.34
657.532	268.8
657.724	340.47
657.916	279.04
658.108	438.78
658.3	276.99
658.492	342.52
658.684	260.6
658.876	340.47
659.068	240.12
659.26	238.08
659.452	305.66
659.644	297.47
659.836	352.76
660.028	291.32
660.22	180.73
660.412	307.71
660.604	209.4
660.796	219.64
660.988	299.52
661.18	268.8
661.372	238.08
661.563	197.12
661.755	88.57
661.947	180.73
662.139	178.69
662.331	115.2
662.522	178.69
662.714	121.34
662.906	109.05
663.097	180.73
663.289	193.02
663.481	68.09
663.673	217.6
663.864	201.21
664.056	215.55
664.247	111.1
664.439	217.6
664.631	240.12
664.822	229.88
665.014	141.82
665.205	70.14
665.397	88.57
665.588	236.03
665.78	98.81
665.971	211.45
666.163	174.59
666.354	190.97
666.546	45.57
666.737	111.1
666.929	107.01
667.12	45.57
667.311	111.1
667.503	98.81
667.694	143.87
667.885	170.49
668.077	113.15
668.268	-48.64
668.459	150.01
668.651	86.53
668.842	164.35
669.033	115.2
669.224	66.05
669.416	311.8
669.607	82.43
669.798	84.48
669.989	150.01
670.18	104.96
670.371	111.1
670.563	57.86
670.754	195.07
670.945	221.69
671.136	147.97
671.327	94.72
671.518	137.73
671.709	219.64
671.9	135.68
672.091	176.64
672.282	88.57
672.473	125.44
672.664	20.99
672.855	150.01
673.046	170.49
673.237	252.41
673.428	98.81
673.619	117.25
673.809	35.33
674	201.21
674.191	158.21
674.382	182.78
674.573	133.63
674.764	117.25
674.954	219.64
675.145	45.57
675.336	90.62
675.527	-11.78
675.717	88.57
675.908	-19.97
676.099	59.9
676.289	162.3
676.48	-26.11
676.671	88.57
676.861	107.01
677.052	68.09
677.243	59.9
677.433	64
677.624	145.92
677.814	186.88
678.005	76.29
678.195	246.27
678.386	66.05
678.576	90.62
678.767	82.43
678.957	78.33
679.148	135.68
679.338	170.49
679.529	168.45
679.719	147.97
679.909	174.59
680.1	168.45
680.29	178.69
680.481	31.23
680.671	186.88
680.861	113.15
681.052	100.86
681.242	90.62
681.432	178.69
681.622	246.27
681.813	-7.68
682.003	172.54
682.193	84.48
682.383	123.39
682.573	90.62
682.764	121.34
682.954	217.6
683.144	254.46
683.334	82.43
683.524	143.87
683.714	166.4
683.904	174.59
684.094	86.53
684.284	135.68
684.474	242.17
684.664	197.12
684.854	156.16
685.044	131.58
685.234	215.55
685.424	199.16
685.614	68.09
685.804	336.38
685.994	238.08
686.184	174.59
686.374	207.36
686.564	119.29
686.753	172.54
686.943	129.53
687.133	291.32
687.323	100.86
687.513	145.92
687.702	215.55
687.892	211.45
688.082	221.69
688.272	244.22
688.461	182.78
688.651	291.32
688.841	133.63
689.03	107.01
689.22	107.01
689.41	238.08
689.599	184.83
689.789	98.81
689.979	315.9
690.168	133.63
690.358	205.31
690.547	197.12
690.737	176.64
690.926	86.53
691.116	117.25
691.305	264.7
691.495	172.54
691.684	80.38
691.874	102.91
692.063	109.05
692.252	246.27
692.442	184.83
692.631	113.15
692.82	139.77
693.01	154.11
693.199	98.81
693.388	160.25
693.578	94.72
693.767	182.78
693.956	219.64
694.146	94.72
694.335	135.68
694.524	156.16
694.713	119.29
694.902	98.81
695.092	76.29
695.281	184.83
695.47	158.21
695.659	80.38
695.848	98.81
696.037	107.01
696.226	174.59
696.415	145.92
696.604	205.31
696.793	176.64
696.982	193.02
697.171	279.04
697.36	127.49
697.549	207.36
697.738	4.61
697.927	125.44
698.116	8.7
698.305	276.99
698.494	117.25
698.683	152.06
698.872	336.38
699.061	154.11
699.25	82.43
699.438	250.36
699.627	141.82
699.816	217.6
700.005	66.05
700.193	141.82
700.382	201.21
700.571	229.88
700.76	197.12
700.948	238.08
701.137	188.93
701.326	188.93
701.514	125.44
701.703	199.16
701.892	178.69
702.08	264.7
702.269	133.63
702.457	35.33
702.646	121.34
702.834	115.2
703.023	254.46
703.212	186.88
703.4	145.92
703.589	121.34
703.777	104.96
703.965	55.81
704.154	94.72
704.342	39.42
704.531	123.39
704.719	182.78
704.907	270.84
705.096	70.14
705.284	147.97
705.472	154.11
705.661	133.63
705.849	201.21
706.037	203.26
706.226	186.88
706.414	121.34
706.602	96.77
706.79	107.01
706.979	172.54
707.167	193.02
707.355	109.05
707.543	178.69
707.731	145.92
707.919	137.73
708.107	158.21
708.296	127.49
708.484	92.67
708.672	125.44
708.86	279.04
709.048	201.21
709.236	37.38
709.424	205.31
709.612	133.63
709.8	143.87
709.988	127.49
710.176	160.25
710.364	186.88
710.551	139.77
710.739	254.46
710.927	127.49
711.115	137.73
711.303	213.5
711.491	164.35
711.679	168.45
711.866	246.27
712.054	143.87
712.242	143.87
712.43	201.21
712.617	102.91
712.805	301.56
712.993	145.92
713.181	37.38
713.368	276.99
713.556	195.07
713.744	47.62
713.931	326.14
714.119	258.56
714.306	94.72
714.494	84.48
714.682	195.07
714.869	12.8
715.057	182.78
715.244	111.1
715.432	145.92
715.619	197.12
715.807	98.81
715.994	158.21
716.182	211.45
716.369	242.17
716.556	201.21
716.744	90.62
716.931	76.29
717.119	150.01
717.306	160.25
717.493	215.55
717.681	102.91
717.868	154.11
718.055	283.13
718.242	211.45
718.43	186.88
718.617	201.21
718.804	150.01
718.991	231.93
719.179	182.78
719.366	186.88
719.553	182.78
719.74	172.54
719.927	41.47
720.114	221.69
720.301	168.45
720.488	-9.73
720.676	115.2
720.863	209.4
721.05	250.36
721.237	160.25
721.424	283.13
721.611	240.12
721.798	123.39
721.985	119.29
722.172	203.26
722.358	205.31
722.545	207.36
722.732	193.02
722.919	233.98
723.106	203.26
723.293	221.69
723.48	223.74
723.667	190.97
723.853	203.26
724.04	215.55
724.227	254.46
724.414	227.84
724.6	285.18
724.787	326.14
724.974	346.62
725.161	244.22
725.347	139.77
725.534	172.54
725.72	203.26
725.907	221.69
726.094	266.75
726.28	176.64
726.467	211.45
726.653	160.25
726.84	344.57
727.027	334.33
727.213	158.21
727.4	289.28
727.586	221.69
727.773	168.45
727.959	240.12
728.145	195.07
728.332	221.69
728.518	221.69
728.705	240.12
728.891	221.69
729.077	166.4
729.264	111.1
729.45	145.92
729.636	287.23
729.823	246.27
730.009	279.04
730.195	242.17
730.382	262.65
730.568	96.77
730.754	256.51
730.94	227.84
731.126	287.23
731.313	231.93
731.499	166.4
731.685	262.65
731.871	270.84
732.057	227.84
732.243	250.36
732.429	272.89
732.615	328.19
732.801	254.46
732.987	186.88
733.173	92.67
733.359	156.16
733.545	229.88
733.731	205.31
733.917	307.71
734.103	215.55
734.289	254.46
734.475	141.82
734.661	279.04
734.847	199.16
735.033	160.25
735.219	266.75
735.404	207.36
735.59	115.2
735.776	201.21
735.962	320
736.148	244.22
736.333	326.14
736.519	231.93
736.705	207.36
736.89	193.02
737.076	236.03
737.262	166.4
737.447	195.07
737.633	195.07
737.819	227.84
738.004	242.17
738.19	238.08
738.375	211.45
738.561	256.51
738.747	240.12
738.932	84.48
739.118	367.1
739.303	227.84
739.489	299.52
739.674	162.3
739.859	66.05
740.045	252.41
740.23	199.16
740.416	117.25
740.601	250.36
740.786	244.22
740.972	115.2
741.157	160.25
741.342	170.49
741.528	193.02
741.713	283.13
741.898	221.69
742.084	141.82
742.269	176.64
742.454	258.56
742.639	303.61
742.824	162.3
743.01	281.08
743.195	326.14
743.38	197.12
743.565	172.54
743.75	238.08
743.935	276.99
744.12	285.18
744.305	172.54
744.49	186.88
744.675	197.12
744.86	238.08
745.045	272.89
745.23	121.34
745.415	131.58
745.6	303.61
745.785	135.68
745.97	217.6
746.155	236.03
746.34	295.42
746.525	244.22
746.71	307.71
746.895	135.68
747.079	170.49
747.264	201.21
747.449	248.32
747.634	317.95
747.819	209.4
748.003	219.64
748.188	121.34
748.373	238.08
748.557	252.41
748.742	176.64
748.927	205.31
749.111	203.26
749.296	203.26
749.481	336.38
749.665	223.74
749.85	162.3
750.034	166.4
750.219	186.88
750.404	147.97
750.588	227.84
750.773	178.69
750.957	205.31
751.141	207.36
751.326	223.74
751.51	129.53
751.695	154.11
751.879	231.93
752.064	293.37
752.248	117.25
752.432	336.38
752.617	152.06
752.801	236.03
752.985	190.97
753.17	229.88
753.354	287.23
753.538	186.88
753.722	143.87
753.907	119.29
754.091	109.05
754.275	221.69
754.459	107.01
754.643	104.96
754.828	150.01
755.012	199.16
755.196	70.14
755.38	174.59
755.564	90.62
755.748	109.05
755.932	141.82
756.116	117.25
756.3	82.43
756.484	72.19
756.668	229.88
756.852	88.57
757.036	78.33
757.22	139.77
757.404	98.81
757.588	66.05
757.772	107.01
757.956	100.86
758.14	207.36
758.323	135.68
758.507	141.82
758.691	98.81
758.875	158.21
759.059	193.02
759.242	90.62
759.426	121.34
759.61	98.81
759.794	39.42
759.977	162.3
760.161	311.8
760.345	205.31
760.528	246.27
760.712	145.92
760.895	96.77
761.079	125.44
761.263	80.38
761.446	88.57
761.63	94.72
761.813	184.83
761.997	111.1
762.18	35.33
762.364	104.96
762.547	45.57
762.731	59.9
762.914	115.2
763.098	57.86
763.281	94.72
763.464	113.15
763.648	92.67
763.831	84.48
764.015	64
764.198	186.88
764.381	59.9
764.564	61.95
764.748	-1.54
764.931	70.14
765.114	135.68
765.297	170.49
765.481	29.18
765.664	74.24
765.847	-7.68
766.03	100.86
766.213	66.05
766.397	68.09
766.58	23.04
766.763	92.67
766.946	64
767.129	90.62
767.312	-3.58
767.495	41.47
767.678	-36.35
767.861	61.95
768.044	47.62
768.227	121.34
768.41	66.05
768.593	147.97
768.776	68.09
768.959	64
769.142	102.91
769.324	72.19
769.507	74.24
769.69	35.33
769.873	84.48
770.056	238.08
770.239	82.43
770.421	225.79
770.604	143.87
770.787	74.24
770.97	64
771.152	37.38
771.335	94.72
771.518	45.57
771.7	170.49
771.883	154.11
772.066	41.47
772.248	94.72
772.431	74.24
772.613	100.86
772.796	82.43
772.978	100.86
773.161	139.77
773.343	-28.16
773.526	35.33
773.708	25.09
773.891	29.18
774.073	61.95
774.256	41.47
774.438	176.64
774.621	70.14
774.803	72.19
774.985	74.24
775.168	72.19
775.35	59.9
775.532	123.39
775.715	45.57
775.897	72.19
776.079	2.56
776.261	78.33
776.444	68.09
776.626	-17.92
776.808	74.24
776.99	-7.68
777.173	4.61
777.355	35.33
777.537	82.43
777.719	25.09
777.901	66.05
778.083	-65.02
778.265	-22.02
778.447	66.05
778.629	4.61
778.811	4.61
778.993	55.81
779.175	92.67
779.357	27.14
779.539	-97.79
779.721	47.62
779.903	111.1
780.085	-65.02
780.267	72.19
780.449	-3.58
780.631	57.86
780.812	102.91
780.994	33.28
781.176	-13.82
781.358	35.33
781.54	37.38
781.721	39.42
781.903	158.21
782.085	0.51
782.267	117.25
782.448	25.09
782.63	2.56
782.812	68.09
782.993	147.97
783.175	133.63
783.357	51.71
783.538	39.42
783.72	-50.69
783.901	104.96
784.083	53.76
784.264	41.47
784.446	-67.07
784.627	37.38
784.809	104.96
784.99	-13.82
785.172	100.86
785.353	29.18
785.535	53.76
785.716	2.56
785.897	-79.36
786.079	-81.41
786.26	61.95
786.441	94.72
786.623	-60.93
786.804	10.75
786.985	53.76
787.167	51.71
787.348	18.94
787.529	14.85
787.71	125.44
787.891	55.81
788.073	-32.26
788.254	-54.78
788.435	141.82
788.616	4.61
788.797	23.04
788.978	-13.82
789.159	20.99
789.34	158.21
789.522	-54.78
789.703	57.86
789.884	16.9
790.065	107.01
790.246	86.53
790.427	6.66
790.607	49.66
790.788	123.39
790.969	0.51
791.15	64
791.331	-38.4
791.512	12.8
791.693	-44.54
791.874	-48.64
792.054	131.58
792.235	123.39
792.416	8.7
792.597	23.04
792.778	-17.92
792.958	143.87
793.139	86.53
793.32	20.99
793.5	-126.46
793.681	113.15
793.862	45.57
794.042	25.09
794.223	-89.6
794.404	-32.26
794.584	-50.69
794.765	-7.68
794.945	37.38
795.126	66.05
795.306	107.01
795.487	-50.69
795.667	-52.74
795.848	8.7
796.028	45.57
796.209	39.42
796.389	135.68
796.57	0.51
796.75	-52.74
796.93	14.85
797.111	-108.03
797.291	-34.3
797.471	-34.3
797.652	-62.98
797.832	-28.16
798.012	82.43
798.192	27.14
798.373	-112.13
798.553	31.23
798.733	55.81
798.913	-89.6
799.093	-62.98
799.274	-9.73
799.454	88.57
799.634	20.99
799.814	59.9
799.994	119.29
800.174	57.86
800.354	20.99
800.534	-17.92
800.714	76.29
800.894	-7.68
801.074	-87.55
801.254	-19.97
801.434	84.48
801.614	-91.65
801.794	-3.58
801.974	1819.11
802.154	-58.88
802.334	33.28
802.514	0.51
802.693	10.75
802.873	-79.36
803.053	61.95
803.233	-17.92
803.413	-1.54
803.592	-42.5
803.772	-36.35
803.952	-32.26
804.131	-122.37
804.311	-7.68
804.491	6.66
804.67	-38.4
804.85	-40.45
805.03	64
805.209	107.01
805.389	-3.58
805.568	-30.21
805.748	18.94
805.928	-32.26
806.107	119.29
806.287	74.24
806.466	25.09
806.646	33.28
806.825	-56.83
807.004	-56.83
807.184	39.42
807.363	72.19
807.543	27.14
807.722	-17.92
807.901	61.95
808.081	43.52
808.26	-169.47
808.439	29.18
808.619	25.09
808.798	-7.68
808.977	59.9
809.156	170.49
809.336	-5.63
809.515	115.2
809.694	-17.92
809.873	-32.26
810.052	-38.4
810.231	100.86
810.411	-69.12
810.59	82.43
810.769	-46.59
810.948	92.67
811.127	-153.09
811.306	-11.78
811.485	-65.02
811.664	158.21
811.843	29.18
812.022	-30.21
812.201	8.7
812.38	-19.97
812.559	-48.64
812.737	49.66
812.916	-142.85
813.095	-97.79
813.274	-1.54
813.453	14.85
813.632	61.95
813.811	41.47
813.989	-56.83
814.168	35.33
814.347	-26.11
814.526	41.47
814.704	147.97
814.883	20.99
815.062	-7.68
815.24	14.85
815.419	10.75
815.598	-9.73
815.776	-75.26
815.955	-34.3
816.133	-97.79
816.312	43.52
816.49	-36.35
816.669	-24.06
816.847	-101.89
817.026	47.62
817.204	-24.06
817.383	25.09
817.561	-71.17
817.74	-1.54
817.918	-44.54
818.097	-112.13
818.275	-52.74
818.453	57.86
818.632	-24.06
818.81	-34.3
818.988	-28.16
819.167	-48.64
819.345	-62.98
819.523	16.9
819.701	43.52
819.879	10.75
820.058	29.18
820.236	-44.54
820.414	41.47
820.592	-3.58
820.77	-52.74
820.948	-30.21
821.127	4.61
821.305	-28.16
821.483	-110.08
821.661	107.01
821.839	18.94
822.017	-40.45
822.195	39.42
822.373	111.1
822.551	-36.35
822.729	49.66
822.907	0.51
823.085	18.94
823.262	80.38
823.44	-60.93
823.618	-19.97
823.796	2.56
823.974	-73.21
824.152	-89.6
824.329	12.8
824.507	16.9
824.685	-5.63
824.863	33.28
825.04	12.8
825.218	-1.54
825.396	-93.69
825.574	-19.97
825.751	0.51
825.929	51.71
826.107	-46.59
826.284	47.62
826.462	27.14
826.639	-65.02
826.817	-124.41
826.994	-15.87
827.172	-42.5
827.349	117.25
827.527	37.38
827.704	37.38
827.882	45.57
828.059	-3.58
828.237	-71.17
828.414	51.71
828.591	-140.8
828.769	16.9
828.946	-81.41
829.124	31.23
829.301	61.95
829.478	2.56
829.655	-11.78
829.833	2.56
830.01	-99.84
830.187	-36.35
830.364	-32.26
830.542	-13.82
830.719	72.19
830.896	35.33
831.073	27.14
831.25	18.94
831.427	86.53
831.604	-34.3
831.782	-62.98
831.959	31.23
832.136	-24.06
832.313	39.42
832.49	-44.54
832.667	12.8
832.844	-93.69
833.021	53.76
833.198	-5.63
833.374	-11.78
833.551	-36.35
833.728	-42.5
833.905	117.25
834.082	-108.03
834.259	49.66
834.436	18.94
834.612	-91.65
834.789	25.09
834.966	-11.78
835.143	82.43
835.319	-83.45
835.496	61.95
835.673	14.85
835.85	86.53
836.026	68.09
836.203	74.24
836.38	-89.6
836.556	-40.45
836.733	-28.16
836.909	72.19
837.086	-3.58
837.262	-136.7
837.439	-48.64
837.616	-11.78
837.792	-77.31
837.968	82.43
838.145	-60.93
838.321	-5.63
838.498	-17.92
838.674	39.42
838.851	43.52
839.027	-54.78
839.203	4.61
839.38	25.09
839.556	-1.54
839.732	55.81
839.909	-9.73
840.085	39.42
840.261	-40.45
840.437	-34.3
840.614	-50.69
840.79	-15.87
840.966	-38.4
841.142	31.23
841.318	-30.21
841.494	72.19
841.671	133.63
841.847	-75.26
842.023	-13.82
842.199	35.33
842.375	104.96
842.551	-118.27
842.727	-75.26
842.903	137.73
843.079	-50.69
843.255	80.38
843.431	-26.11
843.607	80.38
843.783	-124.41
843.959	25.09
844.134	-95.74
844.31	137.73
844.486	-26.11
844.662	-62.98
844.838	45.57
845.013	57.86
845.189	-9.73
845.365	80.38
845.541	49.66
845.716	-40.45
845.892	113.15
846.068	-69.12
846.244	-65.02
846.419	35.33
846.595	-122.37
846.77	-105.98
846.946	72.19
847.122	23.04
847.297	-40.45
847.473	107.01
847.648	-159.23
847.824	-1.54
847.999	-97.79
848.175	-26.11
848.35	-15.87
848.526	160.25
848.701	16.9
848.876	68.09
849.052	90.62
849.227	-71.17
849.403	-44.54
849.578	8.7
849.753	-69.12
849.929	51.71
850.104	-60.93
850.279	-40.45
850.454	-5.63
850.63	16.9
850.805	25.09
850.98	41.47
851.155	-81.41
851.33	45.57
851.505	-120.32
851.681	158.21
851.856	-32.26
852.031	31.23
852.206	-15.87
852.381	-24.06
852.556	10.75
852.731	6.66
852.906	61.95
853.081	-17.92
853.256	72.19
853.431	-19.97
853.606	-46.59
853.781	-62.98
853.956	-62.98
854.131	16.9
854.305	-134.65
854.48	-83.45
854.655	-7.68
854.83	-30.21
855.005	-40.45
855.18	-46.59
855.354	8.7
855.529	29.18
855.704	-130.56
855.879	4.61
856.053	-58.88
856.228	8.7
856.403	-32.26
856.577	84.48
856.752	-171.52
856.926	-24.06
857.101	-24.06
857.276	-148.99
857.45	-28.16
857.625	6.66
857.799	-50.69
857.974	-3.58
858.148	-87.55
858.323	37.38
858.497	0.51
858.672	-120.32
858.846	12.8
859.02	86.53
859.195	-52.74
859.369	-48.64
859.543	-122.37
859.718	45.57
859.892	59.9
860.066	49.66
860.241	-32.26
860.415	-97.79
860.589	-58.88
860.763	-32.26
860.938	-101.89
861.112	43.52
861.286	-30.21
861.46	35.33
861.634	10.75
861.808	68.09
861.982	-48.64
862.157	-65.02
862.331	-40.45
862.505	-77.31
862.679	-103.93
862.853	-67.07
863.027	25.09
863.201	76.29
863.375	-32.26
863.549	-46.59
863.722	18.94
863.896	59.9
864.07	-87.55
864.244	-22.02
864.418	66.05
864.592	-9.73
864.766	0.51
864.939	-7.68
865.113	-81.41
865.287	-9.73
865.461	-79.36
865.634	-24.06
865.808	-46.59
865.982	-11.78
866.156	-101.89
866.329	-54.78
866.503	4.61
866.676	-11.78
866.85	-24.06
867.024	4.61
867.197	117.25
867.371	-38.4
867.544	2.56
867.718	-83.45
867.891	78.33
868.065	-48.64
868.238	-7.68
868.412	55.81
868.585	-28.16
868.759	18.94
868.932	-56.83
869.105	-52.74
869.279	-32.26
869.452	-3.58
869.625	100.86
869.799	43.52
869.972	-99.84
870.145	-7.68
870.319	172.54
870.492	-26.11
870.665	-22.02
870.838	-40.45
871.011	-140.8
871.185	-36.35
871.358	31.23
871.531	74.24
871.704	-93.69
871.877	49.66
872.05	-95.74
872.223	-67.07
872.396	33.28
872.569	-7.68
872.742	-67.07
872.915	-11.78
873.088	-85.5
873.261	-101.89
873.434	53.76
873.607	-46.59
873.78	74.24
873.953	-58.88
874.126	-5.63
874.299	43.52
874.471	-15.87
874.644	-73.21
874.817	66.05
874.99	47.62
875.163	-103.93
875.335	0.51
875.508	-48.64
875.681	64
875.853	-79.36
876.026	0.51
876.199	68.09
876.371	14.85
876.544	12.8
876.717	-11.78
876.889	-32.26
877.062	8.7
877.234	-120.32
877.407	55.81
877.579	23.04
877.752	37.38
877.924	4.61
878.097	-32.26
878.269	61.95
878.442	-15.87
878.614	18.94
878.786	-122.37
878.959	-52.74
879.131	64
879.303	-142.85
879.476	2.56
879.648	-3.58
879.82	-24.06
879.993	-95.74
880.165	-65.02
880.337	-79.36
880.509	20.99
880.681	-136.7
880.854	-40.45
881.026	53.76
881.198	131.58
881.37	-120.32
881.542	47.62
881.714	-69.12
881.886	-52.74
882.058	-91.65
882.23	-11.78
882.402	-105.98
882.574	-46.59
882.746	84.48
882.918	53.76
883.09	66.05
883.262	8.7
883.434	-9.73
883.606	-81.41
883.778	-3.58
883.95	90.62
884.122	-9.73
884.293	25.09
884.465	-26.11
884.637	94.72
884.809	-48.64
884.98	-7.68
885.152	-24.06
885.324	23.04
885.496	-26.11
885.667	-38.4
885.839	4.61
886.011	84.48
886.182	12.8
886.354	49.66
886.525	-65.02
886.697	2.56
886.869	-48.64
887.04	-30.21
887.212	25.09
887.383	139.77
887.555	14.85
887.726	-13.82
887.897	-15.87
888.069	0.51
888.24	-19.97
888.412	-48.64
888.583	25.09
888.754	-24.06
888.926	-124.41
889.097	-36.35
889.268	-146.94
889.44	-24.06
889.611	-99.84
889.782	-69.12
889.953	-13.82
890.125	100.86
890.296	-87.55
890.467	-44.54
890.638	-65.02
890.809	-3.58
890.98	-3.58
891.151	-17.92
891.323	86.53
891.494	-50.69
891.665	-11.78
891.836	-24.06
892.007	-26.11
892.178	-3.58
892.349	-65.02
892.52	-36.35
892.691	25.09
892.862	-30.21
893.032	-93.69
893.203	4.61
893.374	-17.92
893.545	16.9
893.716	-9.73
893.887	131.58
894.057	-69.12
894.228	-17.92
894.399	-56.83
894.57	10.75
894.74	-32.26
894.911	4.61
895.082	39.42
895.253	-60.93
895.423	-56.83
895.594	53.76
895.764	12.8
895.935	-130.56
896.106	35.33
896.276	-56.83
896.447	14.85
896.617	-89.6
896.788	-52.74
896.958	-118.27
897.129	-112.13
897.299	-7.68
897.47	84.48
897.64	37.38
897.81	-65.02
897.981	-44.54
898.151	-85.5
898.322	57.86
898.492	-42.5
898.662	-105.98
898.832	-103.93
899.003	-11.78
899.173	18.94
899.343	-65.02
899.513	-42.5
