Data from USB4F104151__235__11-06-28-724.txt Node

Date: Wed Feb 26 11:06:28 EST 2025
User: louis
Spectrometer: USB4F10415
Trigger mode: 4
Integration Time (sec): 1.000000E-1
Scans to average: 1
Electric dark correction enabled: true
Nonlinearity correction enabled: false
Boxcar width: 0
XAxis mode: Wavelengths
Number of Pixels in Spectrum: 3648
>>>>>Begin Spectral Data<<<<<
178.204	-392.87
178.424	-392.87
178.644	-392.87
178.864	-378.53
179.084	-399.01
179.304	-40.62
179.524	14.68
179.744	26.96
179.964	37.2
180.184	39.25
180.404	26.96
180.624	-54.95
180.844	-1.71
181.064	-44.71
181.283	-1.71
181.503	-75.43
181.723	74.07
181.943	-136.87
182.163	139.6
182.383	100.69
182.602	74.07
182.822	104.79
183.042	108.88
183.262	-5.8
183.482	51.54
183.701	-18.09
183.921	39.25
184.141	-30.38
184.361	133.46
184.58	16.73
184.8	61.78
185.02	12.63
185.239	78.16
185.459	37.2
185.679	221.52
185.898	-5.8
186.118	37.2
186.338	59.73
186.557	69.97
186.777	-11.95
186.997	-11.95
187.216	-67.24
187.436	129.36
187.655	14.68
187.875	76.12
188.095	72.02
188.314	92.5
188.534	90.45
188.753	-69.29
188.973	143.7
189.192	155.99
189.412	63.83
189.631	-11.95
189.851	53.59
190.07	74.07
190.29	-71.34
190.509	12.63
190.729	53.59
190.948	160.08
191.168	229.71
191.387	119.12
191.607	59.73
191.826	14.68
192.045	20.82
192.265	37.2
192.484	33.11
192.704	59.73
192.923	-46.76
193.142	158.03
193.362	133.46
193.581	104.79
193.8	112.98
194.02	63.83
194.239	96.6
194.458	74.07
194.678	35.16
194.897	-57
195.116	45.4
195.335	-13.99
195.555	18.77
195.774	22.87
195.993	112.98
196.212	37.2
196.432	24.92
196.651	-32.43
196.87	41.3
197.089	219.47
197.308	16.73
197.528	102.74
197.747	-30.38
197.966	143.7
198.185	172.37
198.404	-81.58
198.623	172.37
198.842	186.71
199.062	51.54
199.281	110.93
199.5	45.4
199.719	63.83
199.938	127.32
200.157	108.88
200.376	196.95
200.595	201.04
200.814	117.08
201.033	16.73
201.252	221.52
201.471	16.73
201.69	76.12
201.909	94.55
202.128	84.31
202.347	90.45
202.566	-1.71
202.785	-54.95
203.004	-42.67
203.223	166.23
203.442	-3.75
203.661	10.58
203.879	57.68
204.098	127.32
204.317	-28.33
204.536	74.07
204.755	153.94
204.974	41.3
205.193	-52.91
205.411	196.95
205.63	67.92
205.849	94.55
206.068	76.12
206.287	-50.86
206.505	135.51
206.724	76.12
206.943	-63.15
207.162	16.73
207.381	74.07
207.599	8.53
207.818	57.68
208.037	10.58
208.255	78.16
208.474	37.2
208.693	26.96
208.911	16.73
209.13	94.55
209.349	127.32
209.567	141.65
209.786	47.44
210.005	82.26
210.223	-28.33
210.442	-143.02
210.661	33.11
210.879	33.11
211.098	112.98
211.316	63.83
211.535	117.08
211.753	35.16
211.972	61.78
212.191	-7.85
212.409	41.3
212.628	37.2
212.846	-1.71
213.065	53.59
213.283	119.12
213.502	33.11
213.72	67.92
213.938	-20.14
214.157	-85.67
214.375	106.84
214.594	14.68
214.812	84.31
215.031	29.01
215.249	55.64
215.467	18.77
215.686	-54.95
215.904	76.12
216.122	131.41
216.341	205.14
216.559	121.17
216.778	69.97
216.996	162.13
217.214	18.77
217.432	74.07
217.651	-38.57
217.869	45.4
218.087	-16.04
218.306	24.92
218.524	-44.71
218.742	-13.99
218.96	88.4
219.179	43.35
219.397	20.82
219.615	276.82
219.833	94.55
220.051	33.11
220.27	104.79
220.488	106.84
220.706	61.78
220.924	-69.29
221.142	-20.14
221.36	53.59
221.578	149.84
221.796	-3.75
222.015	-7.85
222.233	90.45
222.451	170.32
222.669	12.63
222.887	135.51
223.105	37.2
223.323	51.54
223.541	-28.33
223.759	104.79
223.977	53.59
224.195	198.99
224.413	72.02
224.631	16.73
224.849	47.44
225.067	205.14
225.285	45.4
225.503	-34.47
225.721	-36.52
225.939	53.59
226.157	35.16
226.375	184.66
226.592	-5.8
226.81	47.44
227.028	108.88
227.246	121.17
227.464	74.07
227.682	127.32
227.9	80.21
228.117	92.5
228.335	67.92
228.553	35.16
228.771	78.16
228.989	78.16
229.206	72.02
229.424	-73.39
229.642	-3.75
229.86	-63.15
230.077	119.12
230.295	69.97
230.513	82.26
230.731	61.78
230.948	168.27
231.166	192.85
231.384	26.96
231.601	-18.09
231.819	254.29
232.037	43.35
232.254	-13.99
232.472	47.44
232.689	-24.23
232.907	125.27
233.125	18.77
233.342	-65.19
233.56	-11.95
233.777	51.54
233.995	43.35
234.213	151.89
234.43	96.6
234.648	125.27
234.865	4.44
235.083	88.4
235.3	78.16
235.518	100.69
235.735	131.41
235.953	96.6
236.17	74.07
236.388	8.53
236.605	49.49
236.822	141.65
237.04	102.74
237.257	43.35
237.475	-87.72
237.692	51.54
237.909	115.03
238.127	35.16
238.344	80.21
238.562	49.49
238.779	-59.05
238.996	-26.28
239.214	49.49
239.431	82.26
239.648	35.16
239.865	102.74
240.083	121.17
240.3	24.92
240.517	-1.71
240.735	69.97
240.952	92.5
241.169	29.01
241.386	78.16
241.603	69.97
241.821	18.77
242.038	104.79
242.255	65.88
242.472	-63.15
242.689	72.02
242.907	26.96
243.124	115.03
243.341	16.73
243.558	22.87
243.775	-52.91
243.992	-20.14
244.209	63.83
244.426	186.71
244.643	39.25
244.86	-30.38
245.078	92.5
245.295	22.87
245.512	-22.19
245.729	-18.09
245.946	178.51
246.163	94.55
246.38	65.88
246.597	59.73
246.814	76.12
247.031	78.16
247.248	-18.09
247.464	35.16
247.681	106.84
247.898	31.06
248.115	67.92
248.332	-42.67
248.549	51.54
248.766	172.37
248.983	53.59
249.2	90.45
249.417	49.49
249.633	-11.95
249.85	78.16
250.067	4.44
250.284	31.06
250.501	35.16
250.717	133.46
250.934	-3.75
251.151	-75.43
251.368	-9.9
251.585	51.54
251.801	-42.67
252.018	-50.86
252.235	151.89
252.451	-85.67
252.668	125.27
252.885	160.08
253.102	41.3
253.318	-38.57
253.535	20.82
253.752	-36.52
253.968	0.34
254.185	-44.71
254.401	69.97
254.618	115.03
254.835	33.11
255.051	100.69
255.268	92.5
255.484	26.96
255.701	8.53
255.917	90.45
256.134	65.88
256.351	-18.09
256.567	-40.62
256.784	100.69
257	-71.34
257.217	69.97
257.433	72.02
257.65	-16.04
257.866	160.08
258.082	-69.29
258.299	-44.71
258.515	10.58
258.732	-40.62
258.948	-32.43
259.165	147.8
259.381	-13.99
259.597	78.16
259.814	-36.52
260.03	-11.95
260.246	-42.67
260.463	186.71
260.679	143.7
260.895	-13.99
261.112	57.68
261.328	10.58
261.544	-63.15
261.761	285.01
261.977	-7.85
262.193	-48.81
262.409	112.98
262.626	22.87
262.842	84.31
263.058	-34.47
263.274	29.01
263.49	76.12
263.707	45.4
263.923	78.16
264.139	4.44
264.355	63.83
264.571	184.66
264.787	14.68
265.004	106.84
265.22	2.39
265.436	-16.04
265.652	59.73
265.868	110.93
266.084	-42.67
266.3	45.4
266.516	-38.57
266.732	74.07
266.948	37.2
267.164	45.4
267.38	61.78
267.596	37.2
267.812	153.94
268.028	67.92
268.244	-32.43
268.46	84.31
268.676	63.83
268.892	96.6
269.108	12.63
269.324	-44.71
269.54	-69.29
269.756	96.6
269.972	-18.09
270.188	-28.33
270.403	-48.81
270.619	59.73
270.835	190.8
271.051	72.02
271.267	4.44
271.483	53.59
271.698	51.54
271.914	72.02
272.13	6.49
272.346	26.96
272.562	76.12
272.777	96.6
272.993	-26.28
273.209	18.77
273.425	78.16
273.64	-38.57
273.856	131.41
274.072	-69.29
274.287	4.44
274.503	106.84
274.719	63.83
274.934	4.44
275.15	-7.85
275.366	74.07
275.581	-20.14
275.797	63.83
276.012	16.73
276.228	-69.29
276.444	6.49
276.659	102.74
276.875	-102.06
277.09	35.16
277.306	-3.75
277.521	67.92
277.737	43.35
277.952	24.92
278.168	65.88
278.383	20.82
278.599	123.22
278.814	20.82
279.03	10.58
279.245	123.22
279.461	106.84
279.676	47.44
279.892	-30.38
280.107	29.01
280.322	37.2
280.538	162.13
280.753	16.73
280.969	135.51
281.184	-48.81
281.399	119.12
281.615	-79.53
281.83	106.84
282.045	-16.04
282.26	80.21
282.476	4.44
282.691	47.44
282.906	18.77
283.122	12.63
283.337	-3.75
283.552	29.01
283.767	-26.28
283.983	164.18
284.198	-7.85
284.413	16.73
284.628	-63.15
284.843	31.06
285.058	106.84
285.274	10.58
285.489	-22.19
285.704	112.98
285.919	29.01
286.134	-36.52
286.349	55.64
286.564	82.26
286.779	102.74
286.995	16.73
287.21	0.34
287.425	4.44
287.64	0.34
287.855	69.97
288.07	-65.19
288.285	98.64
288.5	127.32
288.715	78.16
288.93	-20.14
289.145	8.53
289.36	123.22
289.575	-9.9
289.79	184.66
290.004	55.64
290.219	123.22
290.434	-22.19
290.649	-81.58
290.864	-38.57
291.079	82.26
291.294	-30.38
291.509	4.44
291.724	102.74
291.938	61.78
292.153	31.06
292.368	-52.91
292.583	69.97
292.798	123.22
293.012	53.59
293.227	8.53
293.442	8.53
293.657	137.56
293.871	178.51
294.086	108.88
294.301	203.09
294.516	119.12
294.73	2.39
294.945	45.4
295.16	22.87
295.374	112.98
295.589	78.16
295.804	-3.75
296.018	35.16
296.233	100.69
296.447	78.16
296.662	16.73
296.877	123.22
297.091	133.46
297.306	47.44
297.52	65.88
297.735	135.51
297.949	45.4
298.164	69.97
298.378	112.98
298.593	-22.19
298.807	-5.8
299.022	43.35
299.236	121.17
299.451	-9.9
299.665	-42.67
299.88	33.11
300.094	35.16
300.309	4.44
300.523	6.49
300.737	-5.8
300.952	69.97
301.166	6.49
301.381	-9.9
301.595	-22.19
301.809	-1.71
302.024	-52.91
302.238	-136.87
302.452	180.56
302.667	86.36
302.881	155.99
303.095	33.11
303.309	39.25
303.524	65.88
303.738	90.45
303.952	57.68
304.166	14.68
304.381	-42.67
304.595	225.62
304.809	-34.47
305.023	26.96
305.237	10.58
305.452	-57
305.666	90.45
305.88	131.41
306.094	57.68
306.308	96.6
306.522	155.99
306.736	61.78
306.95	192.85
307.164	-30.38
307.379	51.54
307.593	174.42
307.807	112.98
308.021	112.98
308.235	37.2
308.449	-106.15
308.663	69.97
308.877	242
309.091	6.49
309.305	82.26
309.519	-40.62
309.733	72.02
309.947	-106.15
310.161	35.16
310.374	106.84
310.588	112.98
310.802	-38.57
311.016	26.96
311.23	35.16
311.444	72.02
311.658	-9.9
311.872	139.6
312.085	102.74
312.299	135.51
312.513	180.56
312.727	31.06
312.941	2.39
313.154	59.73
313.368	33.11
313.582	12.63
313.796	2.39
314.009	33.11
314.223	160.08
314.437	-11.95
314.651	92.5
314.864	22.87
315.078	18.77
315.292	-71.34
315.505	41.3
315.719	78.16
315.933	6.49
316.146	-87.72
316.36	-13.99
316.573	121.17
316.787	121.17
317.001	16.73
317.214	-69.29
317.428	92.5
317.641	-38.57
317.855	6.49
318.068	6.49
318.282	37.2
318.495	205.14
318.709	80.21
318.922	-42.67
319.136	176.47
319.349	88.4
319.563	31.06
319.776	69.97
319.99	-50.86
320.203	129.36
320.417	39.25
320.63	123.22
320.843	237.91
321.057	45.4
321.27	72.02
321.483	55.64
321.697	147.8
321.91	49.49
322.124	-22.19
322.337	2.39
322.55	-97.96
322.763	43.35
322.977	57.68
323.19	4.44
323.403	80.21
323.617	76.12
323.83	110.93
324.043	16.73
324.256	49.49
324.469	-97.96
324.683	117.08
324.896	51.54
325.109	35.16
325.322	-9.9
325.535	100.69
325.748	108.88
325.962	24.92
326.175	45.4
326.388	20.82
326.601	135.51
326.814	-11.95
327.027	78.16
327.24	102.74
327.453	-44.71
327.666	94.55
327.879	112.98
328.092	102.74
328.305	92.5
328.518	39.25
328.731	-36.52
328.944	-3.75
329.157	12.63
329.37	-22.19
329.583	137.56
329.796	160.08
330.009	-46.76
330.222	74.07
330.435	74.07
330.648	41.3
330.861	0.34
331.073	10.58
331.286	110.93
331.499	94.55
331.712	35.16
331.925	78.16
332.138	51.54
332.35	86.36
332.563	26.96
332.776	149.84
332.989	8.53
333.202	18.77
333.414	61.78
333.627	53.59
333.84	26.96
334.053	53.59
334.265	-73.39
334.478	-22.19
334.691	14.68
334.903	59.73
335.116	-44.71
335.329	0.34
335.541	57.68
335.754	155.99
335.966	84.31
336.179	49.49
336.392	-34.47
336.604	39.25
336.817	37.2
337.029	39.25
337.242	20.82
337.454	55.64
337.667	-3.75
337.88	86.36
338.092	29.01
338.305	117.08
338.517	57.68
338.729	53.59
338.942	145.75
339.154	43.35
339.367	-40.62
339.579	59.73
339.792	26.96
340.004	102.74
340.217	74.07
340.429	12.63
340.641	-65.19
340.854	-3.75
341.066	-52.91
341.278	84.31
341.491	139.6
341.703	20.82
341.915	90.45
342.128	121.17
342.34	92.5
342.552	-36.52
342.764	39.25
342.977	-48.81
343.189	-32.43
343.401	37.2
343.613	-63.15
343.826	37.2
344.038	24.92
344.25	67.92
344.462	-138.92
344.674	57.68
344.886	4.44
345.099	117.08
345.311	96.6
345.523	12.63
345.735	-73.39
345.947	12.63
346.159	76.12
346.371	14.68
346.583	47.44
346.795	121.17
347.007	4.44
347.219	121.17
347.431	10.58
347.643	86.36
347.855	4.44
348.067	149.84
348.279	45.4
348.491	110.93
348.703	133.46
348.915	6.49
349.127	4.44
349.339	82.26
349.551	22.87
349.763	35.16
349.975	90.45
350.187	88.4
350.399	162.13
350.61	86.36
350.822	51.54
351.034	76.12
351.246	-9.9
351.458	137.56
351.669	61.78
351.881	51.54
352.093	131.41
352.305	221.52
352.517	90.45
352.728	112.98
352.94	53.59
353.152	127.32
353.363	35.16
353.575	67.92
353.787	221.52
353.999	41.3
354.21	137.56
354.422	110.93
354.633	-36.52
354.845	35.16
355.057	92.5
355.268	90.45
355.48	63.83
355.692	-52.91
355.903	8.53
356.115	8.53
356.326	-167.59
356.538	166.23
356.749	135.51
356.961	153.94
357.172	104.79
357.384	-48.81
357.595	225.62
357.807	53.59
358.018	49.49
358.23	37.2
358.441	110.93
358.653	108.88
358.864	-40.62
359.075	-30.38
359.287	67.92
359.498	192.85
359.709	92.5
359.921	-50.86
360.132	39.25
360.344	31.06
360.555	-54.95
360.766	-9.9
360.977	37.2
361.189	88.4
361.4	49.49
361.611	147.8
361.823	149.84
362.034	92.5
362.245	-93.87
362.456	16.73
362.667	143.7
362.879	-38.57
363.09	4.44
363.301	155.99
363.512	12.63
363.723	4.44
363.935	35.16
364.146	125.27
364.357	8.53
364.568	10.58
364.779	-59.05
364.99	110.93
365.201	-18.09
365.412	127.32
365.623	-38.57
365.834	53.59
366.045	88.4
366.256	115.03
366.467	20.82
366.678	-5.8
366.889	78.16
367.1	16.73
367.311	119.12
367.522	-16.04
367.733	37.2
367.944	84.31
368.155	57.68
368.366	121.17
368.577	94.55
368.788	137.56
368.999	-36.52
369.209	84.31
369.42	139.6
369.631	248.15
369.842	24.92
370.053	57.68
370.264	82.26
370.474	-52.91
370.685	53.59
370.896	-67.24
371.107	170.32
371.317	110.93
371.528	47.44
371.739	117.08
371.95	117.08
372.16	51.54
372.371	-26.28
372.582	24.92
372.792	74.07
373.003	51.54
373.214	80.21
373.424	72.02
373.635	-40.62
373.846	176.47
374.056	112.98
374.267	100.69
374.477	100.69
374.688	14.68
374.898	119.12
375.109	72.02
375.319	125.27
375.53	94.55
375.74	129.36
375.951	88.4
376.161	102.74
376.372	203.09
376.582	26.96
376.793	76.12
377.003	22.87
377.214	-3.75
377.424	141.65
377.635	96.6
377.845	-5.8
378.055	153.94
378.266	-32.43
378.476	63.83
378.686	45.4
378.897	135.51
379.107	57.68
379.317	61.78
379.528	43.35
379.738	143.7
379.948	-5.8
380.158	160.08
380.369	84.31
380.579	67.92
380.789	59.73
380.999	72.02
381.21	119.12
381.42	203.09
381.63	35.16
381.84	74.07
382.05	24.92
382.261	182.61
382.471	94.55
382.681	47.44
382.891	158.03
383.101	57.68
383.311	4.44
383.521	88.4
383.731	133.46
383.941	102.74
384.151	57.68
384.361	20.82
384.571	164.18
384.781	22.87
384.991	166.23
385.201	119.12
385.411	139.6
385.621	78.16
385.831	55.64
386.041	67.92
386.251	-11.95
386.461	121.17
386.671	45.4
386.881	129.36
387.091	-11.95
387.301	119.12
387.511	51.54
387.72	26.96
387.93	88.4
388.14	-122.54
388.35	80.21
388.56	155.99
388.769	45.4
388.979	65.88
389.189	-18.09
389.399	-20.14
389.609	115.03
389.818	121.17
390.028	-13.99
390.238	82.26
390.447	47.44
390.657	102.74
390.867	41.3
391.076	-63.15
391.286	61.78
391.496	63.83
391.705	31.06
391.915	141.65
392.125	221.52
392.334	-28.33
392.544	127.32
392.753	100.69
392.963	-40.62
393.172	49.49
393.382	-73.39
393.591	139.6
393.801	-9.9
394.01	205.14
394.22	108.88
394.429	2.39
394.639	-46.76
394.848	88.4
395.058	123.22
395.267	33.11
395.477	74.07
395.686	49.49
395.895	145.75
396.105	246.1
396.314	45.4
396.524	26.96
396.733	24.92
396.942	108.88
397.152	96.6
397.361	153.94
397.57	88.4
397.78	67.92
397.989	139.6
398.198	170.32
398.407	76.12
398.617	96.6
398.826	80.21
399.035	31.06
399.244	143.7
399.453	51.54
399.663	67.92
399.872	-9.9
400.081	35.16
400.29	133.46
400.499	4.44
400.708	84.31
400.917	-3.75
401.127	-48.81
401.336	8.53
401.545	188.75
401.754	76.12
401.963	26.96
402.172	29.01
402.381	-26.28
402.59	53.59
402.799	2.39
403.008	215.38
403.217	127.32
403.426	88.4
403.635	-73.39
403.844	-20.14
404.053	-3.75
404.262	16.73
404.471	158.03
404.68	26.96
404.888	110.93
405.097	63.83
405.306	39.25
405.515	74.07
405.724	86.36
405.933	151.89
406.142	88.4
406.35	123.22
406.559	-20.14
406.768	94.55
406.977	137.56
407.185	51.54
407.394	135.51
407.603	-22.19
407.812	98.64
408.02	205.14
408.229	76.12
408.438	57.68
408.646	22.87
408.855	20.82
409.064	112.98
409.272	35.16
409.481	80.21
409.69	18.77
409.898	-18.09
410.107	59.73
410.315	129.36
410.524	51.54
410.733	-11.95
410.941	14.68
411.15	78.16
411.358	65.88
411.567	237.91
411.775	59.73
411.984	143.7
412.192	123.22
412.401	41.3
412.609	180.56
412.818	186.71
413.026	76.12
413.234	6.49
413.443	145.75
413.651	-7.85
413.86	76.12
414.068	84.31
414.276	172.37
414.485	55.64
414.693	215.38
414.901	180.56
415.11	115.03
415.318	4.44
415.526	35.16
415.734	115.03
415.943	57.68
416.151	180.56
416.359	43.35
416.567	53.59
416.776	31.06
416.984	131.41
417.192	82.26
417.4	12.63
417.608	49.49
417.817	-5.8
418.025	117.08
418.233	207.19
418.441	16.73
418.649	49.49
418.857	20.82
419.065	166.23
419.273	18.77
419.481	39.25
419.689	29.01
419.897	63.83
420.105	-16.04
420.313	74.07
420.521	176.47
420.729	123.22
420.937	41.3
421.145	24.92
421.353	133.46
421.561	192.85
421.769	55.64
421.977	-42.67
422.185	55.64
422.393	55.64
422.601	121.17
422.809	180.56
423.017	74.07
423.224	22.87
423.432	235.86
423.64	61.78
423.848	176.47
424.056	43.35
424.263	225.62
424.471	90.45
424.679	119.12
424.887	-16.04
425.094	145.75
425.302	67.92
425.51	22.87
425.718	207.19
425.925	131.41
426.133	26.96
426.341	203.09
426.548	69.97
426.756	80.21
426.964	94.55
427.171	4.44
427.379	182.61
427.586	131.41
427.794	186.71
428.001	186.71
428.209	229.71
428.417	209.23
428.624	84.31
428.832	84.31
429.039	88.4
429.247	86.36
429.454	139.6
429.662	190.8
429.869	90.45
430.076	147.8
430.284	143.7
430.491	188.75
430.699	180.56
430.906	274.77
431.114	153.94
431.321	155.99
431.528	84.31
431.736	164.18
431.943	182.61
432.15	180.56
432.358	219.47
432.565	340.3
432.772	45.4
432.979	242
433.187	90.45
433.394	158.03
433.601	139.6
433.808	237.91
434.016	323.92
434.223	215.38
434.43	242
434.637	237.91
434.844	270.67
435.052	246.1
435.259	364.88
435.466	262.48
435.673	344.4
435.88	354.64
436.087	307.54
436.294	430.41
436.501	409.94
436.708	459.09
436.915	334.16
437.122	430.41
437.329	325.97
437.537	356.69
437.743	446.8
437.95	465.23
438.157	471.37
438.364	448.85
438.571	362.83
438.778	450.89
438.985	522.57
439.192	610.64
439.399	420.17
439.606	555.34
439.813	598.35
440.02	674.12
440.227	778.57
440.433	629.07
440.64	631.12
440.847	643.4
441.054	696.65
441.261	756.04
441.467	710.99
441.674	702.79
441.881	921.93
442.088	710.99
442.294	948.55
442.501	919.88
442.708	971.08
442.914	1044.81
443.121	962.89
443.328	985.41
443.534	1102.15
443.741	1091.91
443.948	1026.37
444.154	1130.82
444.361	1247.55
444.568	1202.5
444.774	1202.5
444.981	1169.73
445.187	1405.25
445.394	1421.63
445.6	1376.58
445.807	1458.5
446.013	1548.61
446.22	1413.44
446.426	1718.59
446.633	1677.63
446.839	1915.19
447.046	1767.74
447.252	2058.55
447.459	1868.09
447.665	1972.54
447.871	2165.04
448.078	2351.41
448.284	2253.11
448.491	2382.13
448.697	2472.24
448.903	2611.5
449.11	2515.25
449.316	2545.97
449.522	2812.2
449.728	2994.47
449.935	2959.66
450.141	3002.66
450.347	3299.62
450.553	3268.9
450.76	3334.43
450.966	3504.42
451.172	3598.62
451.378	3739.93
451.584	3807.52
451.791	4008.22
451.997	4141.33
452.203	4262.16
452.409	4464.91
452.615	4661.52
452.821	4735.25
453.027	4659.47
453.233	5155.08
453.44	5093.64
453.646	5540.1
453.852	5550.34
454.058	5699.84
454.264	5906.68
454.47	6303.99
454.676	6557.94
454.882	6873.32
455.088	6469.87
455.294	7069.93
455.5	7469.28
455.705	8136.92
455.911	7694.56
456.117	8007.9
456.323	8300.76
456.529	8366.29
456.735	9001.16
456.941	9371.85
457.147	9808.06
457.352	9976
457.558	10365.11
457.764	10903.73
457.97	11188.39
458.176	11669.67
458.381	12191.9
458.587	12488.85
458.793	13320.33
458.999	12966.03
459.204	14727.28
459.41	15200.37
459.616	15169.65
459.821	16171.1
460.027	16388.19
460.233	17234
460.438	17553.48
460.644	18384.96
460.85	18622.52
461.055	19159.09
461.261	19959.84
461.466	20164.64
461.672	20373.53
461.878	22814.71
462.083	22102.02
462.289	22820.86
462.494	23986.15
462.7	23961.58
462.905	24236
463.111	25901
463.316	27508.66
463.522	28096.42
463.727	29157.27
463.932	30220.17
464.138	30916.48
464.343	32450.41
464.549	32014.19
464.754	34869.06
464.959	35565.37
465.165	36175.66
465.37	36302.64
465.575	35936.05
465.781	38549.26
465.986	39775.99
466.191	39061.25
466.397	39354.11
466.602	38274.83
466.807	40670.95
467.012	41266.91
467.218	41826.01
467.423	42026.71
467.628	43136.71
467.833	45266.59
468.038	44639.92
468.244	43935.41
468.449	46380.69
468.654	45156
468.859	44916.39
469.064	45233.83
469.269	43941.56
469.474	44271.28
469.679	45749.92
469.885	44404.4
470.09	44992.17
470.295	45524.64
470.5	44086.96
470.705	44486.32
470.91	43296.45
471.115	42710.73
471.32	43640.51
471.525	43093.7
471.73	42186.45
471.935	41778.9
472.139	40404.72
472.344	40333.04
472.549	40236.78
472.754	39470.84
472.959	38166.29
473.164	37074.72
473.369	36411.18
473.574	37685.01
473.778	37037.86
473.983	36480.81
474.188	35796.79
474.393	34082.64
474.598	33957.71
474.802	32997.21
475.007	32833.38
475.212	32274.28
475.417	30986.11
475.621	30701.44
475.826	30637.95
476.031	30076.81
476.235	28829.6
476.44	29323.16
476.645	28630.94
476.849	28108.71
477.054	27819.95
477.259	27262.9
477.463	27301.81
477.668	26308.55
477.872	26277.83
478.077	25386.96
478.282	24657.89
478.486	24448.99
478.691	24348.64
478.895	24033.25
479.1	24295.39
479.304	23982.06
479.509	23085.05
479.713	23492.59
479.918	22755.32
480.122	22325.25
480.326	22511.61
480.531	22497.28
480.735	22089.73
480.94	21669.9
481.144	22708.22
481.348	21352.46
481.553	21356.56
481.757	20834.33
481.961	21391.37
482.166	21151.76
482.37	21239.83
482.574	20252.7
482.778	20770.84
482.983	20828.18
483.187	20351.01
483.391	20260.9
483.595	19978.28
483.8	19767.34
484.004	19623.98
484.208	19650.6
484.412	19093.55
484.616	19152.95
484.821	18745.4
485.025	18268.22
485.229	18610.23
485.433	18270.27
485.637	18350.14
485.841	17655.88
486.045	17514.57
486.249	17541.19
486.453	16879.7
486.657	17297.49
486.861	16859.22
487.065	15999.07
487.269	15814.76
487.473	15818.85
487.677	15612.01
487.881	15450.22
488.085	15188.08
488.289	15138.93
488.493	14633.08
488.697	14346.36
488.901	14090.37
489.105	13897.86
489.309	13738.12
489.512	13514.89
489.716	13256.84
489.92	13101.2
490.124	12800.15
490.328	12892.3
490.531	12271.77
490.735	12079.26
490.939	11798.69
491.143	11434.15
491.346	11501.73
491.55	11323.56
491.754	11155.63
491.958	11176.11
492.161	10619.06
492.365	10670.26
492.569	10404.02
492.772	10510.52
492.976	10178.75
493.18	9910.46
493.383	9746.62
493.587	9943.23
493.79	9664.71
493.994	9556.16
494.197	9519.3
494.401	9373.89
494.605	9140.43
494.808	9205.96
495.012	9259.21
495.215	9060.56
495.419	9222.34
495.622	8796.37
495.825	8843.47
496.029	8710.35
496.232	8730.83
496.436	8759.5
496.639	9021.64
496.843	8626.39
497.046	8741.07
497.249	9076.94
497.453	8845.52
497.656	8630.48
497.859	8610
498.063	8784.08
498.266	8921.29
498.469	8509.65
498.673	8837.33
498.876	8753.36
499.079	8931.53
499.282	8917.2
499.485	9052.36
499.689	9044.17
499.892	9085.13
500.095	9064.65
500.298	9273.54
500.501	8917.2
500.705	9201.86
500.908	9490.63
501.111	9580.74
501.314	9615.55
501.517	9740.48
501.72	9502.92
501.923	9777.34
502.126	10049.72
502.329	10047.68
502.532	10031.29
502.735	10139.83
502.938	10332.34
503.141	10324.15
503.344	10363.06
503.547	10836.14
503.75	10684.59
503.953	10780.85
504.156	11042.99
504.359	11028.65
504.562	11180.2
504.765	11667.62
504.968	11704.48
505.17	12009.63
505.373	12122.27
505.576	12449.94
505.779	12642.45
505.982	12509.33
506.185	12949.65
506.387	12845.2
506.59	13398.15
506.793	13697.16
506.996	13660.29
507.198	14055.55
507.401	13897.86
507.604	14497.91
507.807	14624.89
508.009	15147.12
508.212	15239.28
508.415	15798.37
508.617	15943.78
508.82	16183.39
509.022	16347.23
509.225	16937.04
509.428	17244.24
509.63	17428.56
509.833	17852.48
510.035	18536.51
510.238	18632.76
510.44	19101.75
510.643	19785.77
510.845	19877.93
511.048	20547.61
511.25	20815.9
511.453	21182.48
511.655	22030.34
511.858	22093.83
512.06	22671.36
512.262	23013.37
512.465	23775.21
512.667	24252.39
512.87	24647.65
513.072	25176.02
513.274	25608.14
513.477	26341.32
513.679	26959.8
513.881	27594.67
514.084	28286.89
514.286	28516.26
514.488	29198.23
514.69	30353.29
514.893	30558.08
515.095	31377.27
515.297	31899.5
515.499	32409.45
515.701	33306.46
515.904	33697.62
516.106	34651.97
516.308	35311.42
516.51	36106.03
516.712	36599.59
516.914	37363.48
517.116	38147.86
517.318	38469.39
517.52	39298.81
517.722	39732.98
517.925	40812.26
518.127	41443.04
518.329	42096.34
518.531	42243.79
518.733	43202.24
518.935	44271.28
519.136	44293.81
519.338	45475.49
519.54	46106.26
519.742	47056.52
519.944	47232.64
520.146	48287.35
520.348	48922.22
520.55	49561.19
520.752	49913.44
520.954	50732.62
521.155	50769.49
521.357	51109.45
521.559	52856.37
521.761	53339.69
521.963	53214.76
522.164	53507.62
522.366	53825.06
522.568	54629.91
522.77	54662.68
522.971	55653.89
523.173	55375.37
523.375	56108.54
523.576	56010.24
523.778	55815.68
523.98	56825.33
524.181	57234.92
524.383	57054.7
524.584	56997.36
524.786	57312.75
524.988	57013.74
525.189	57538.02
525.391	57718.24
525.592	58017.25
525.794	58035.68
525.995	57619.94
526.197	58013.15
526.398	57378.28
526.6	57751.01
526.801	57535.98
527.003	57693.67
527.204	56854
527.406	56960.5
527.607	56833.52
527.808	56655.35
528.01	55735.81
528.211	55752.19
528.412	56124.92
528.614	55739.91
528.815	55305.74
529.016	55596.55
529.218	53943.84
529.419	54134.3
529.62	53093.93
529.822	52962.86
530.023	52368.95
530.224	52106.81
530.425	51048.01
530.626	50693.71
530.828	49827.42
531.029	50652.75
531.23	49395.3
531.431	48909.93
531.632	48494.19
531.833	48440.95
532.035	47500.93
532.236	46474.9
532.437	46421.65
532.638	45125.28
532.839	45459.1
533.04	44564.14
533.241	43767.48
533.442	44035.77
533.643	43118.28
533.844	42561.23
534.045	42026.71
534.246	41076.45
534.447	40720.1
534.648	40445.68
534.849	40023.79
535.05	39282.43
535.251	38536.97
535.451	38156.05
535.652	37680.92
535.853	36841.25
536.054	36788
536.255	36325.16
536.456	35211.07
536.657	35721.01
536.857	34666.31
537.058	34033.49
537.259	34207.56
537.46	33541.97
537.66	32798.56
537.861	32669.54
538.062	32030.57
538.263	31803.25
538.463	31260.54
538.664	30683.01
538.865	30482.31
539.065	30203.78
539.266	29321.11
539.466	29452.18
539.667	28831.65
539.868	28999.58
540.068	28159.91
540.269	28026.79
540.469	27729.84
540.67	27267
540.87	26998.71
541.071	26427.33
541.271	26247.11
541.472	26146.76
541.672	25735.12
541.873	25360.34
542.073	24901.59
542.274	25128.92
542.474	24741.85
542.675	24377.31
542.875	24473.57
543.075	23912.42
543.276	23171.06
543.476	23568.37
543.676	22695.93
543.877	23021.56
544.077	22679.55
544.277	22519.81
544.478	21985.29
544.678	21616.65
544.878	21405.71
545.078	21348.37
545.279	20928.53
545.479	20805.66
545.679	20396.06
545.879	20260.9
546.079	19982.37
546.28	19718.18
546.48	19564.59
546.68	19458.09
546.88	19222.58
547.08	19075.12
547.28	18620.47
547.48	18470.97
547.68	18272.32
547.88	17690.7
548.081	18040.9
548.281	17358.92
548.481	17385.55
548.681	17387.6
548.881	16853.08
549.081	16543.83
549.28	16246.88
549.48	16255.07
549.68	15970.4
549.88	15960.16
550.08	15681.64
550.28	15620.2
550.48	15097.97
550.68	15059.06
550.88	14620.79
551.08	14418.04
551.279	14579.83
551.479	13949.06
551.679	13936.77
551.879	13605
552.079	13539.46
552.278	13412.49
552.478	13455.5
552.678	13086.86
552.878	12880.02
553.077	12726.42
553.277	12322.97
553.477	12230.81
553.676	11993.25
553.876	11739.3
554.076	11770.02
554.275	11554.98
554.475	11204.78
554.674	11223.21
554.874	10901.68
555.074	10809.52
555.273	10563.76
555.473	10625.2
555.672	10293.43
555.872	10225.85
556.071	9849.02
556.271	9742.53
556.47	9816.26
556.67	9322.7
556.869	9441.48
557.068	9275.59
557.268	8837.33
557.467	8683.73
557.667	9109.71
557.866	8513.75
558.065	8331.48
558.265	8194.26
558.464	7991.52
558.663	8038.62
558.863	7776.48
559.062	8020.19
559.261	7543.01
559.461	7661.79
559.66	7385.32
559.859	7125.22
560.058	7074.03
560.258	6988.01
560.457	6953.2
560.656	7137.51
560.855	6600.94
561.054	6846.7
561.253	6576.37
561.453	6301.94
561.652	6570.23
561.851	6529.27
562.05	6068.47
562.249	6072.57
562.448	6109.43
562.647	5943.55
562.846	5712.13
563.045	5746.94
563.244	5634.3
563.443	5652.74
563.642	5476.61
563.841	5419.27
564.04	5396.74
564.239	5312.77
564.438	5144.84
564.637	4954.38
564.836	4931.85
565.035	4972.81
565.234	4915.47
565.432	4837.64
565.631	4833.55
565.83	4610.32
566.029	4530.45
566.228	4415.76
566.427	4536.59
566.625	4362.51
566.824	4288.79
567.023	4356.37
567.222	4258.07
567.42	4206.87
567.619	4036.89
567.818	4110.61
568.016	4262.16
568.215	3983.64
568.414	3983.64
568.612	3735.84
568.811	3885.34
569.01	3854.62
569.208	3479.84
569.407	3707.16
569.605	3647.77
569.804	3375.39
570.002	3572
570.201	3256.61
570.4	3395.87
570.598	3318.05
570.797	3260.71
570.995	3041.57
571.193	2992.42
571.392	3105.06
571.59	2959.66
571.789	3129.64
571.987	3098.92
572.186	3012.9
572.384	2906.41
572.582	2918.7
572.781	2916.65
572.979	2660.65
573.177	2748.72
573.376	2779.43
573.574	2754.86
573.772	2697.52
573.971	2572.59
574.169	2445.62
574.367	2416.94
574.565	2462
574.763	2281.78
574.962	2453.81
575.16	2283.83
575.358	2324.79
575.556	2226.48
575.754	2242.87
575.952	2124.08
576.151	2228.53
576.349	2201.91
576.547	2144.56
576.745	1933.62
576.943	2019.64
577.141	2048.31
577.339	1919.29
577.537	1917.24
577.735	2031.93
577.933	1904.95
578.131	1794.36
578.329	1939.77
578.527	1782.07
578.725	1816.89
578.923	1675.58
579.121	1784.12
579.319	1612.09
579.516	1620.28
579.714	1835.32
579.912	1595.71
580.11	1536.32
580.308	1489.21
580.506	1450.3
580.704	1302.85
580.901	1411.39
581.099	1597.76
581.297	1356.1
581.495	1493.31
581.692	1464.64
581.89	1558.85
582.088	1470.78
582.285	1315.14
582.483	1298.75
582.681	1411.39
582.878	1323.33
583.076	1225.03
583.274	1311.04
583.471	1296.71
583.669	1153.35
583.866	1093.96
584.064	1157.44
584.262	1053
584.459	1149.25
584.657	1128.77
584.854	1253.7
585.052	1157.44
585.249	1075.52
585.447	1124.68
585.644	1026.37
585.841	1091.91
586.039	1032.52
586.236	1102.15
586.434	926.02
586.631	969.03
586.828	948.55
587.026	979.27
587.223	897.35
587.42	905.54
587.618	901.45
587.815	1059.14
588.012	930.12
588.21	964.93
588.407	923.98
588.604	936.26
588.801	864.58
588.999	846.15
589.196	866.63
589.393	659.79
589.59	827.72
589.787	862.54
589.984	897.35
590.182	819.53
590.379	710.99
590.576	758.09
590.773	778.57
590.97	790.86
591.167	778.57
591.364	766.28
591.561	811.34
591.758	866.63
591.955	819.53
592.152	860.49
592.349	774.47
592.546	764.23
592.743	794.95
592.94	733.51
593.137	811.34
593.334	893.26
593.531	868.68
593.727	842.06
593.924	794.95
594.121	717.13
594.318	747.85
594.515	788.81
594.712	913.74
594.908	928.07
595.105	776.52
595.302	878.92
595.499	889.16
595.696	930.12
595.892	760.14
596.089	938.31
596.286	846.15
596.482	1003.85
596.679	956.74
596.876	817.48
597.072	1083.72
597.269	1057.09
597.466	1118.53
597.662	1110.34
597.859	1106.24
598.055	1151.3
598.252	1161.54
598.448	1241.41
598.645	1210.69
598.841	1335.62
599.038	1444.16
599.234	1540.41
599.431	1519.93
599.627	1509.69
599.824	1540.41
600.02	1677.63
600.217	1720.64
600.413	1730.87
600.609	1775.93
600.806	2216.24
601.002	1999.16
601.198	1976.63
601.395	2326.83
601.591	2160.95
601.787	2175.28
601.984	2410.8
602.18	2521.39
602.376	2595.12
602.572	2705.71
602.769	2896.17
602.965	2857.26
603.161	2937.13
603.357	3109.16
603.553	3146.02
603.75	3205.41
603.946	3424.55
604.142	3629.34
604.338	3641.63
604.534	3768.6
604.73	3920.15
604.926	3948.83
605.122	4202.77
605.318	4145.43
605.514	4389.14
605.71	4530.45
605.906	4653.33
606.102	4813.07
606.298	4901.13
606.494	5038.34
606.69	5320.96
606.886	5298.44
607.082	5517.57
607.278	5556.48
607.474	5744.89
607.67	5853.44
607.866	6113.53
608.062	6375.67
608.257	6426.87
608.453	6611.18
608.649	6934.76
608.845	6770.93
609.041	7205.1
609.236	7497.95
609.432	7588.07
609.628	7854.3
609.824	8091.87
610.019	8192.22
610.215	8548.56
610.411	8794.32
610.606	8999.12
610.802	9050.32
610.998	9459.91
611.193	9842.88
611.389	9738.43
611.584	10025.15
611.78	10285.24
611.976	10707.12
612.171	11221.16
612.367	11323.56
612.562	11468.97
612.758	11692.19
612.953	11847.84
613.149	12363.93
613.344	12757.14
613.539	13127.82
613.735	13334.67
613.93	13830.27
614.126	14028.93
614.321	14655.61
614.517	14823.54
614.712	15495.27
614.907	15728.74
615.103	16152.67
615.298	16511.07
615.493	17016.91
615.688	17197.13
615.884	18085.95
616.079	18155.58
616.274	18909.24
616.47	18978.87
616.665	19613.74
616.86	20144.16
617.055	20762.65
617.25	20871.19
617.445	21708.81
617.641	21891.08
617.836	22796.28
618.031	23212.02
618.226	24223.72
618.421	24541.15
618.616	25159.64
618.811	25171.93
619.006	26234.82
619.201	26605.5
619.396	27398.07
619.591	27264.95
619.786	28790.69
619.981	28923.8
620.176	30160.78
620.371	30144.39
620.566	31199.1
620.761	31991.66
620.956	32677.73
621.151	32616.29
621.346	33826.64
621.541	33775.44
621.735	34879.3
621.93	35176.25
622.125	36071.21
622.32	35999.54
622.515	36992.8
622.709	38029.07
622.904	38387.47
623.099	39141.12
623.294	39905.01
623.488	40582.89
623.683	41316.06
623.878	41246.43
624.072	42632.91
624.267	43327.17
624.462	43882.17
624.656	43898.55
624.851	44768.94
625.046	45682.33
625.24	46315.15
625.435	46829.19
625.629	47502.98
625.824	47937.15
626.018	48744.05
626.213	48473.71
626.407	49596
626.602	49874.52
626.796	51025.48
626.991	51111.5
627.185	51265.1
627.38	51805.76
627.574	51848.77
627.768	52588.08
627.963	52647.47
628.157	52641.33
628.352	53143.08
628.546	52559.41
628.74	53440.04
628.935	52407.86
629.129	52950.57
629.323	52364.85
629.517	52194.87
629.712	51729.98
629.906	51652.16
630.1	50757.2
630.294	50744.91
630.489	50048.6
630.683	49671.78
630.877	48289.4
631.071	47847.04
631.265	47484.54
631.459	46149.27
631.653	45217.44
631.848	44730.03
632.042	43099.84
632.236	42696.39
632.43	41070.31
632.624	40201.97
632.818	38985.47
633.012	37404.44
633.206	36640.55
633.4	35563.32
633.594	34522.95
633.788	33040.22
633.982	32247.66
634.176	31356.79
634.369	29554.58
634.563	28731.29
634.757	27602.86
634.951	26494.91
635.145	25597.9
635.339	24877.02
635.533	23594.99
635.726	23126
635.92	21612.56
636.114	20985.88
636.308	19957.8
636.501	19476.52
636.695	18716.73
636.889	17662.02
637.083	17291.34
637.276	16359.52
637.47	15487.08
637.664	15278.19
637.857	14579.83
638.051	13987.97
638.244	13236.36
638.438	12673.17
638.632	12202.14
638.825	11724.96
639.019	11446.44
639.212	10999.98
639.406	10651.83
639.599	10012.86
639.793	9650.37
639.986	9310.41
640.18	9091.27
640.373	8642.77
640.567	8313.05
640.76	8044.76
640.954	7596.26
641.147	7442.66
641.34	7043.31
641.534	6734.06
641.727	6498.55
641.92	6455.54
642.114	5908.73
642.307	5746.94
642.5	5746.94
642.694	5323.01
642.887	5208.33
643.08	5067.02
643.273	4862.22
643.467	4651.28
643.66	4411.67
643.853	4280.6
644.046	4163.86
644.239	3922.2
644.432	3811.61
644.626	3572
644.819	3666.21
645.012	3316
645.205	3195.17
645.398	3313.95
645.591	2941.22
645.784	2724.14
645.977	2713.9
646.17	2754.86
646.363	2511.15
646.556	2468.14
646.749	2388.27
646.942	2394.42
647.135	2220.34
647.328	2199.86
647.521	2189.62
647.714	1997.11
647.907	1956.15
648.099	1792.31
648.292	1863.99
648.485	1710.4
648.678	1536.32
648.871	1593.66
649.064	1546.56
649.256	1446.21
649.449	1378.62
649.642	1261.89
649.835	1313.09
650.027	1163.59
650.22	1136.96
650.413	1155.4
650.605	1173.83
650.798	1079.62
650.991	1022.28
651.183	1128.77
651.376	981.32
651.568	1026.37
651.761	921.93
651.954	1046.85
652.146	891.21
652.339	860.49
652.531	885.06
652.724	764.23
652.916	717.13
653.109	620.88
653.301	805.19
653.494	729.42
653.686	723.27
653.879	792.91
654.071	733.51
654.263	606.54
654.456	610.64
654.648	655.69
654.84	698.7
655.033	532.81
655.225	629.07
655.417	414.03
655.61	643.4
655.802	573.77
655.994	594.25
656.186	373.07
656.379	555.34
656.571	401.74
656.763	399.7
656.955	489.81
657.148	448.85
657.34	508.24
657.532	358.74
657.724	399.7
657.916	373.07
658.108	457.04
658.3	366.93
658.492	411.98
658.684	356.69
658.876	414.03
659.068	295.25
659.26	153.94
659.452	235.86
659.644	368.98
659.836	405.84
660.028	328.02
660.22	289.1
660.412	303.44
660.604	311.63
660.796	293.2
660.988	319.82
661.18	250.19
661.372	438.61
661.563	178.51
661.755	301.39
661.947	141.65
662.139	192.85
662.331	213.33
662.522	215.38
662.714	219.47
662.906	147.8
663.097	141.65
663.289	172.37
663.481	137.56
663.673	205.14
663.864	186.71
664.056	260.43
664.247	176.47
664.439	248.15
664.631	285.01
664.822	237.91
665.014	162.13
665.205	127.32
665.397	80.21
665.588	198.99
665.78	201.04
665.971	155.99
666.163	203.09
666.354	242
666.546	119.12
666.737	182.61
666.929	166.23
667.12	209.23
667.311	186.71
667.503	160.08
667.694	233.81
667.885	231.76
668.077	248.15
668.268	94.55
668.459	198.99
668.651	164.18
668.842	213.33
669.033	121.17
669.224	145.75
669.416	293.2
669.607	110.93
669.798	119.12
669.989	168.27
670.18	168.27
670.371	162.13
670.563	98.64
670.754	201.04
670.945	164.18
671.136	229.71
671.327	61.78
671.518	190.8
671.709	272.72
671.9	215.38
672.091	285.01
672.282	184.66
672.473	151.89
672.664	69.97
672.855	162.13
673.046	100.69
673.237	172.37
673.428	129.36
673.619	186.71
673.809	119.12
674	231.76
674.191	264.53
674.382	145.75
674.573	217.43
674.764	115.03
674.954	166.23
675.145	90.45
675.336	76.12
675.527	176.47
675.717	98.64
675.908	104.79
676.099	104.79
676.289	137.56
676.48	59.73
676.671	162.13
676.861	94.55
677.052	258.39
677.243	194.9
677.433	108.88
677.624	262.48
677.814	115.03
678.005	110.93
678.195	278.87
678.386	121.17
678.576	203.09
678.767	139.6
678.957	153.94
679.148	203.09
679.338	260.43
679.529	221.52
679.719	182.61
679.909	229.71
680.1	301.39
680.29	162.13
680.481	74.07
680.671	201.04
680.861	205.14
681.052	211.28
681.242	170.32
681.432	242
681.622	164.18
681.813	80.21
682.003	205.14
682.193	82.26
682.383	151.89
682.573	289.1
682.764	170.32
682.954	248.15
683.144	321.87
683.334	217.43
683.524	223.57
683.714	242
683.904	272.72
684.094	178.51
684.284	262.48
684.474	307.54
684.664	258.39
684.854	348.5
685.044	278.87
685.234	168.27
685.424	168.27
685.614	213.33
685.804	360.78
685.994	352.59
686.184	252.24
686.374	280.91
686.564	176.47
686.753	211.28
686.943	149.84
687.133	131.41
687.323	182.61
687.513	260.43
687.702	235.86
687.892	151.89
688.082	268.63
688.272	282.96
688.461	246.1
688.651	321.87
688.841	207.19
689.03	186.71
689.22	223.57
689.41	182.61
689.599	307.54
689.789	176.47
689.979	303.44
690.168	158.03
690.358	332.11
690.547	235.86
690.737	242
690.926	297.3
691.116	282.96
691.305	332.11
691.495	282.96
691.684	158.03
691.874	205.14
692.063	80.21
692.252	221.52
692.442	229.71
692.631	207.19
692.82	225.62
693.01	158.03
693.199	172.37
693.388	213.33
693.578	203.09
693.767	168.27
693.956	203.09
694.146	180.56
694.335	237.91
694.524	227.67
694.713	282.96
694.902	125.27
695.092	135.51
695.281	325.97
695.47	160.08
695.659	117.08
695.848	235.86
696.037	196.95
696.226	229.71
696.415	235.86
696.604	287.06
696.793	274.77
696.982	149.84
697.171	291.15
697.36	115.03
697.549	168.27
697.738	131.41
697.927	235.86
698.116	139.6
698.305	233.81
698.494	254.29
698.683	158.03
698.872	348.5
699.061	153.94
699.25	133.46
699.438	141.65
699.627	166.23
699.816	356.69
700.005	80.21
700.193	172.37
700.382	221.52
700.571	233.81
700.76	229.71
700.948	291.15
701.137	262.48
701.326	260.43
701.514	129.36
701.703	233.81
701.892	168.27
702.08	313.68
702.269	205.14
702.457	98.64
702.646	235.86
702.834	129.36
703.023	213.33
703.212	266.58
703.4	203.09
703.589	153.94
703.777	151.89
703.965	135.51
704.154	143.7
704.342	166.23
704.531	213.33
704.719	264.53
704.907	260.43
705.096	110.93
705.284	182.61
705.472	164.18
705.661	231.76
705.849	274.77
706.037	309.58
706.226	223.57
706.414	248.15
706.602	186.71
706.79	239.95
706.979	53.59
707.167	149.84
707.355	94.55
707.543	262.48
707.731	172.37
707.919	164.18
708.107	225.62
708.296	63.83
708.484	125.27
708.672	211.28
708.86	237.91
709.048	217.43
709.236	166.23
709.424	207.19
709.612	201.04
709.8	92.5
709.988	153.94
710.176	248.15
710.364	319.82
710.551	176.47
710.739	205.14
710.927	162.13
711.115	158.03
711.303	270.67
711.491	176.47
711.679	170.32
711.866	350.54
712.054	176.47
712.242	153.94
712.43	309.58
712.617	168.27
712.805	323.92
712.993	254.29
713.181	119.12
713.368	258.39
713.556	297.3
713.744	176.47
713.931	375.12
714.119	266.58
714.306	141.65
714.494	172.37
714.682	229.71
714.869	127.32
715.057	221.52
715.244	141.65
715.432	184.66
715.619	51.54
715.807	158.03
715.994	137.56
716.182	176.47
716.369	231.76
716.556	325.97
716.744	102.74
716.931	112.98
717.119	248.15
717.306	182.61
717.493	258.39
717.681	147.8
717.868	166.23
718.055	244.05
718.242	186.71
718.43	192.85
718.617	323.92
718.804	121.17
718.991	256.34
719.179	194.9
719.366	239.95
719.553	246.1
719.74	143.7
719.927	223.57
720.114	221.52
720.301	162.13
720.488	141.65
720.676	223.57
720.863	336.21
721.05	383.31
721.237	162.13
721.424	287.06
721.611	213.33
721.798	82.26
721.985	201.04
722.172	227.67
722.358	198.99
722.545	223.57
722.732	209.23
722.919	330.06
723.106	219.47
723.293	287.06
723.48	170.32
723.667	188.75
723.853	293.2
724.04	264.53
724.227	299.34
724.414	213.33
724.6	215.38
724.787	379.22
724.974	352.59
725.161	102.74
725.347	223.57
725.534	264.53
725.72	168.27
725.907	303.44
726.094	291.15
726.28	198.99
726.467	266.58
726.653	198.99
726.84	356.69
727.027	360.78
727.213	285.01
727.4	289.1
727.586	213.33
727.773	252.24
727.959	180.56
728.145	252.24
728.332	280.91
728.518	196.95
728.705	217.43
728.891	235.86
729.077	319.82
729.264	196.95
729.45	260.43
729.636	280.91
729.823	270.67
730.009	295.25
730.195	301.39
730.382	278.87
730.568	231.76
730.754	268.63
730.94	229.71
731.126	207.19
731.313	323.92
731.499	256.34
731.685	221.52
731.871	309.58
732.057	242
732.243	297.3
732.429	295.25
732.615	377.17
732.801	325.97
732.987	248.15
733.173	244.05
733.359	258.39
733.545	278.87
733.731	280.91
733.917	313.68
734.103	293.2
734.289	260.43
734.475	186.71
734.661	358.74
734.847	278.87
735.033	266.58
735.219	356.69
735.404	258.39
735.59	201.04
735.776	235.86
735.962	237.91
736.148	319.82
736.333	354.64
736.519	209.23
736.705	235.86
736.89	227.67
737.076	270.67
737.262	207.19
737.447	207.19
737.633	217.43
737.819	309.58
738.004	233.81
738.19	262.48
738.375	270.67
738.561	301.39
738.747	242
738.932	233.81
739.118	446.8
739.303	244.05
739.489	258.39
739.674	264.53
739.859	162.13
740.045	278.87
740.23	268.63
740.416	69.97
740.601	311.63
740.786	332.11
740.972	272.72
741.157	264.53
741.342	115.03
741.528	168.27
741.713	344.4
741.898	196.95
742.084	266.58
742.269	289.1
742.454	235.86
742.639	399.7
742.824	264.53
743.01	368.98
743.195	328.02
743.38	344.4
743.565	190.8
743.75	289.1
743.935	307.54
744.12	334.16
744.305	110.93
744.49	223.57
744.675	217.43
744.86	147.8
745.045	291.15
745.23	201.04
745.415	184.66
745.6	352.59
745.785	225.62
745.97	246.1
746.155	260.43
746.34	246.1
746.525	262.48
746.71	297.3
746.895	155.99
747.079	151.89
747.264	203.09
747.449	287.06
747.634	311.63
747.819	205.14
748.003	205.14
748.188	196.95
748.373	291.15
748.557	219.47
748.742	272.72
748.927	242
749.111	174.42
749.296	182.61
749.481	219.47
749.665	98.64
749.85	121.17
750.034	213.33
750.219	272.72
750.404	186.71
750.588	246.1
750.773	217.43
750.957	182.61
751.141	209.23
751.326	235.86
751.51	110.93
751.695	174.42
751.879	194.9
752.064	289.1
752.248	121.17
752.432	373.07
752.617	295.25
752.801	213.33
752.985	244.05
753.17	192.85
753.354	184.66
753.538	190.8
753.722	117.08
753.907	110.93
754.091	147.8
754.275	194.9
754.459	35.16
754.643	76.12
754.828	221.52
755.012	162.13
755.196	69.97
755.38	211.28
755.564	115.03
755.748	143.7
755.932	217.43
756.116	198.99
756.3	276.82
756.484	133.46
756.668	248.15
756.852	51.54
757.036	74.07
757.22	182.61
757.404	51.54
757.588	137.56
757.772	217.43
757.956	190.8
758.14	340.3
758.323	78.16
758.507	139.6
758.691	80.21
758.875	264.53
759.059	205.14
759.242	76.12
759.426	72.02
759.61	127.32
759.794	78.16
759.977	184.66
760.161	397.65
760.345	246.1
760.528	217.43
760.712	178.51
760.895	162.13
761.079	92.5
761.263	143.7
761.446	139.6
761.63	117.08
761.813	141.65
761.997	59.73
762.18	84.31
762.364	94.55
762.547	-30.38
762.731	45.4
762.914	86.36
763.098	106.84
763.281	33.11
763.464	47.44
763.648	84.31
763.831	72.02
764.015	145.75
764.198	178.51
764.381	123.22
764.564	196.95
764.748	117.08
764.931	141.65
765.114	59.73
765.297	168.27
765.481	131.41
765.664	76.12
765.847	108.88
766.03	215.38
766.213	12.63
766.397	78.16
766.58	-18.09
766.763	180.56
766.946	102.74
767.129	78.16
767.312	76.12
767.495	90.45
767.678	47.44
767.861	149.84
768.044	72.02
768.227	41.3
768.41	94.55
768.593	29.01
768.776	49.49
768.959	-5.8
769.142	168.27
769.324	53.59
769.507	117.08
769.69	53.59
769.873	47.44
770.056	233.81
770.239	57.68
770.421	194.9
770.604	145.75
770.787	39.25
770.97	149.84
771.152	155.99
771.335	160.08
771.518	43.35
771.7	53.59
771.883	192.85
772.066	67.92
772.248	172.37
772.431	235.86
772.613	129.36
772.796	104.79
772.978	121.17
773.161	215.38
773.343	35.16
773.526	98.64
773.708	-61.1
773.891	-67.24
774.073	74.07
774.256	26.96
774.438	235.86
774.621	57.68
774.803	82.26
774.985	55.64
775.168	125.27
775.35	67.92
775.532	153.94
775.715	26.96
775.897	96.6
776.079	-42.67
776.261	110.93
776.444	162.13
776.626	82.26
776.808	78.16
776.99	-57
777.173	96.6
777.355	51.54
777.537	16.73
777.719	26.96
777.901	18.77
778.083	-20.14
778.265	0.34
778.447	184.66
778.629	74.07
778.811	106.84
778.993	59.73
779.175	37.2
779.357	129.36
779.539	-34.47
779.721	108.88
779.903	102.74
780.085	61.78
780.267	24.92
780.449	67.92
780.631	80.21
780.812	88.4
780.994	80.21
781.176	0.34
781.358	-20.14
781.54	-16.04
781.721	98.64
781.903	72.02
782.085	55.64
782.267	143.7
782.448	-24.23
782.63	108.88
782.812	100.69
782.993	45.4
783.175	94.55
783.357	47.44
783.538	88.4
783.72	10.58
783.901	18.77
784.083	49.49
784.264	49.49
784.446	-22.19
784.627	-3.75
784.809	131.41
784.99	-5.8
785.172	133.46
785.353	45.4
785.535	115.03
785.716	-26.28
785.897	-16.04
786.079	0.34
786.26	74.07
786.441	67.92
786.623	-11.95
786.804	29.01
786.985	-9.9
787.167	80.21
787.348	-16.04
787.529	-28.33
787.71	192.85
787.891	33.11
788.073	4.44
788.254	-97.96
788.435	145.75
788.616	16.73
788.797	-69.29
788.978	35.16
789.159	-69.29
789.34	76.12
789.522	-34.47
789.703	-77.48
789.884	72.02
790.065	10.58
790.246	143.7
790.427	78.16
790.607	145.75
790.788	145.75
790.969	-46.76
791.15	149.84
791.331	18.77
791.512	-3.75
791.693	-30.38
791.874	26.96
792.054	139.6
792.235	100.69
792.416	-36.52
792.597	-32.43
792.778	98.64
792.958	92.5
793.139	57.68
793.32	55.64
793.5	-91.82
793.681	55.64
793.862	35.16
794.042	47.44
794.223	-30.38
794.404	-48.81
794.584	-61.1
794.765	-52.91
794.945	-50.86
795.126	55.64
795.306	102.74
795.487	20.82
795.667	37.2
795.848	-30.38
796.028	14.68
796.209	-28.33
796.389	141.65
796.57	-3.75
796.75	-71.34
796.93	-18.09
797.111	-69.29
797.291	49.49
797.471	117.08
797.652	-26.28
797.832	-11.95
798.012	51.54
798.192	-11.95
798.373	-102.06
798.553	39.25
798.733	39.25
798.913	-1.71
799.093	4.44
799.274	39.25
799.454	22.87
799.634	139.6
799.814	59.73
799.994	45.4
800.174	96.6
800.354	41.3
800.534	-73.39
800.714	37.2
800.894	-52.91
801.074	-77.48
801.254	18.77
801.434	80.21
801.614	12.63
801.794	-20.14
801.974	1853.75
802.154	-3.75
802.334	184.66
802.514	18.77
802.693	18.77
802.873	2.39
803.053	61.78
803.233	63.83
803.413	18.77
803.592	-13.99
803.772	20.82
803.952	67.92
804.131	-132.78
804.311	123.22
804.491	110.93
804.67	-48.81
804.85	-75.43
805.03	14.68
805.209	-3.75
805.389	10.58
805.568	10.58
805.748	-61.1
805.928	57.68
806.107	-22.19
806.287	39.25
806.466	51.54
806.646	24.92
806.825	16.73
807.004	-1.71
807.184	-22.19
807.363	92.5
807.543	-13.99
807.722	-16.04
807.901	78.16
808.081	131.41
808.26	-81.58
808.439	2.39
808.619	24.92
808.798	14.68
808.977	86.36
809.156	143.7
809.336	41.3
809.515	53.59
809.694	-89.77
809.873	-3.75
810.052	63.83
810.231	-16.04
810.411	-1.71
810.59	63.83
810.769	18.77
810.948	41.3
811.127	-136.87
811.306	-24.23
811.485	59.73
811.664	106.84
811.843	10.58
812.022	31.06
812.201	-40.62
812.38	51.54
812.559	-65.19
812.737	35.16
812.916	-52.91
813.095	-40.62
813.274	92.5
813.453	-9.9
813.632	133.46
813.811	172.37
813.989	-32.43
814.168	82.26
814.347	22.87
814.526	4.44
814.704	69.97
814.883	94.55
815.062	-38.57
815.24	39.25
815.419	-75.43
815.598	12.63
815.776	-42.67
815.955	80.21
816.133	-138.92
816.312	2.39
816.49	-28.33
816.669	-13.99
816.847	-18.09
817.026	14.68
817.204	-34.47
817.383	16.73
817.561	2.39
817.74	65.88
817.918	8.53
818.097	20.82
818.275	-20.14
818.453	-1.71
818.632	41.3
818.81	-59.05
818.988	-73.39
819.167	-26.28
819.345	41.3
819.523	-69.29
819.701	-40.62
819.879	141.65
820.058	20.82
820.236	69.97
820.414	29.01
820.592	-13.99
820.77	-7.85
820.948	0.34
821.127	-44.71
821.305	82.26
821.483	-75.43
821.661	76.12
821.839	41.3
822.017	-28.33
822.195	-87.72
822.373	86.36
822.551	-13.99
822.729	106.84
822.907	-65.19
823.085	86.36
823.262	67.92
823.44	-61.1
823.618	-59.05
823.796	-48.81
823.974	37.2
824.152	-20.14
824.329	-44.71
824.507	41.3
824.685	78.16
824.863	35.16
825.04	-22.19
825.218	29.01
825.396	63.83
825.574	55.64
825.751	-3.75
825.929	149.84
826.107	-65.19
826.284	49.49
826.462	65.88
826.639	51.54
826.817	-7.85
826.994	39.25
827.172	-9.9
827.349	69.97
827.527	53.59
827.704	18.77
827.882	123.22
828.059	35.16
828.237	-65.19
828.414	12.63
828.591	-149.16
828.769	63.83
828.946	-57
829.124	88.4
829.301	112.98
829.478	-11.95
829.655	0.34
829.833	43.35
830.01	-175.78
830.187	4.44
830.364	-54.95
830.542	39.25
830.719	117.08
830.896	92.5
831.073	45.4
831.25	0.34
831.427	-5.8
831.604	10.58
831.782	-48.81
831.959	10.58
832.136	-9.9
832.313	-3.75
832.49	-65.19
832.667	55.64
832.844	-46.76
833.021	170.32
833.198	59.73
833.374	55.64
833.551	-42.67
833.728	-61.1
833.905	31.06
834.082	-77.48
834.259	78.16
834.436	35.16
834.612	-112.3
834.789	6.49
834.966	35.16
835.143	76.12
835.319	-42.67
835.496	80.21
835.673	57.68
835.85	104.79
836.026	39.25
836.203	53.59
836.38	-36.52
836.556	-63.15
836.733	-54.95
836.909	10.58
837.086	10.58
837.262	-102.06
837.439	-50.86
837.616	76.12
837.792	59.73
837.968	43.35
838.145	-71.34
838.321	6.49
838.498	2.39
838.674	59.73
838.851	29.01
839.027	-54.95
839.203	0.34
839.38	31.06
839.556	-11.95
839.732	96.6
839.909	-34.47
840.085	84.31
840.261	-48.81
840.437	33.11
840.614	-89.77
840.79	88.4
840.966	-5.8
841.142	-32.43
841.318	-54.95
841.494	39.25
841.671	-5.8
841.847	-30.38
842.023	-77.48
842.199	20.82
842.375	153.94
842.551	-63.15
842.727	-108.2
842.903	117.08
843.079	-20.14
843.255	98.64
843.431	-42.67
843.607	33.11
843.783	-48.81
843.959	-54.95
844.134	4.44
844.31	49.49
844.486	-81.58
844.662	-52.91
844.838	-26.28
845.013	-7.85
845.189	94.55
845.365	55.64
845.541	-1.71
845.716	72.02
845.892	16.73
846.068	41.3
846.244	4.44
846.419	-3.75
846.595	-24.23
846.77	12.63
846.946	112.98
847.122	-75.43
847.297	-67.24
847.473	133.46
847.648	-42.67
847.824	31.06
847.999	-71.34
848.175	-9.9
848.35	6.49
848.526	96.6
848.701	98.64
848.876	-5.8
849.052	53.59
849.227	-46.76
849.403	53.59
849.578	-7.85
849.753	-69.29
849.929	88.4
850.104	-93.87
850.279	14.68
850.454	72.02
850.63	57.68
850.805	6.49
850.98	22.87
851.155	-1.71
851.33	53.59
851.505	-71.34
851.681	119.12
851.856	-30.38
852.031	74.07
852.206	39.25
852.381	-54.95
852.556	-28.33
852.731	-3.75
852.906	2.39
853.081	-11.95
853.256	37.2
853.431	51.54
853.606	-22.19
853.781	-18.09
853.956	-87.72
854.131	-61.1
854.305	-22.19
854.48	-28.33
854.655	-59.05
854.83	-71.34
855.005	-71.34
855.18	-3.75
855.354	-75.43
855.529	-44.71
855.704	-30.38
855.879	59.73
856.053	12.63
856.228	14.68
856.403	-95.91
856.577	12.63
856.752	-95.91
856.926	-24.23
857.101	-3.75
857.276	-102.06
857.45	-59.05
857.625	37.2
857.799	-59.05
857.974	-89.77
858.148	-65.19
858.323	51.54
858.497	-30.38
858.672	-34.47
858.846	-132.78
859.02	10.58
859.195	-67.24
859.369	29.01
859.543	-24.23
859.718	-36.52
859.892	-20.14
860.066	-7.85
860.241	-48.81
860.415	-32.43
860.589	-75.43
860.763	33.11
860.938	-50.86
861.112	67.92
861.286	-36.52
861.46	45.4
861.634	26.96
861.808	6.49
861.982	20.82
862.157	-97.96
862.331	-22.19
862.505	-52.91
862.679	-124.58
862.853	12.63
863.027	-11.95
863.201	76.12
863.375	-81.58
863.549	69.97
863.722	74.07
863.896	61.78
864.07	0.34
864.244	47.44
864.418	78.16
864.592	10.58
864.766	-73.39
864.939	-7.85
865.113	6.49
865.287	123.22
865.461	-44.71
865.634	-9.9
865.808	37.2
865.982	-73.39
866.156	-40.62
866.329	-32.43
866.503	-52.91
866.676	-13.99
866.85	26.96
867.024	-13.99
867.197	-1.71
867.371	6.49
867.544	-50.86
867.718	-108.2
867.891	72.02
868.065	-140.97
868.238	-24.23
868.412	76.12
868.585	-63.15
868.759	-71.34
868.932	-63.15
869.105	-50.86
869.279	-46.76
869.452	-110.25
869.625	-1.71
869.799	-32.43
869.972	-155.3
870.145	-67.24
870.319	125.27
870.492	-20.14
870.665	-34.47
870.838	-89.77
871.011	-124.58
871.185	-13.99
871.358	-89.77
871.531	33.11
871.704	-59.05
871.877	43.35
872.05	-75.43
872.223	-30.38
872.396	43.35
872.569	35.16
872.742	-95.91
872.915	22.87
873.088	-87.72
873.261	-114.34
873.434	26.96
873.607	-61.1
873.78	59.73
873.953	-73.39
874.126	82.26
874.299	20.82
874.471	35.16
874.644	-75.43
874.817	-34.47
874.99	96.6
875.163	-32.43
875.335	-46.76
875.508	37.2
875.681	84.31
875.853	-44.71
876.026	20.82
876.199	18.77
876.371	-50.86
876.544	-59.05
876.717	18.77
876.889	-79.53
877.062	-30.38
877.234	-69.29
877.407	6.49
877.579	-13.99
877.752	29.01
877.924	33.11
878.097	12.63
878.269	-63.15
878.442	18.77
878.614	20.82
878.786	59.73
878.959	-26.28
879.131	59.73
879.303	-9.9
879.476	-32.43
879.648	53.59
879.82	8.53
879.993	31.06
880.165	-20.14
880.337	-59.05
880.509	-69.29
880.681	-149.16
880.854	22.87
881.026	131.41
881.198	102.74
881.37	-5.8
881.542	4.44
881.714	-11.95
881.886	-91.82
882.058	-69.29
882.23	55.64
882.402	-36.52
882.574	-11.95
882.746	-42.67
882.918	-46.76
883.09	98.64
883.262	-85.67
883.434	22.87
883.606	-71.34
883.778	-11.95
883.95	158.03
884.122	-7.85
884.293	24.92
884.465	-1.71
884.637	92.5
884.809	-32.43
884.98	2.39
885.152	-13.99
885.324	4.44
885.496	-38.57
885.667	37.2
885.839	-11.95
886.011	20.82
886.182	63.83
886.354	-44.71
886.525	8.53
886.697	108.88
886.869	-63.15
887.04	-42.67
887.212	74.07
887.383	141.65
887.555	-13.99
887.726	-40.62
887.897	-69.29
888.069	14.68
888.24	117.08
888.412	-44.71
888.583	33.11
888.754	-30.38
888.926	-149.16
889.097	-20.14
889.268	-126.63
889.44	6.49
889.611	-85.67
889.782	-20.14
889.953	-65.19
890.125	29.01
890.296	-114.34
890.467	-71.34
890.638	-61.1
890.809	-63.15
890.98	18.77
891.151	41.3
891.323	24.92
891.494	35.16
891.665	72.02
891.836	-26.28
892.007	20.82
892.178	80.21
892.349	-16.04
892.52	-81.58
892.691	-36.52
892.862	-54.95
893.032	-71.34
893.203	-42.67
893.374	18.77
893.545	35.16
893.716	-44.71
893.887	155.99
894.057	-61.1
894.228	10.58
894.399	-46.76
894.57	100.69
894.74	49.49
894.911	12.63
895.082	8.53
895.253	-54.95
895.423	10.58
895.594	22.87
895.764	18.77
895.935	-46.76
896.106	45.4
896.276	-38.57
896.447	-42.67
896.617	-81.58
896.788	-140.97
896.958	-32.43
897.129	-69.29
897.299	-112.3
897.47	6.49
897.64	31.06
897.81	43.35
897.981	14.68
898.151	-54.95
898.322	4.44
898.492	43.35
898.662	-79.53
898.832	-61.1
899.003	-65.19
899.173	47.44
899.343	-130.73
899.513	-32.43
