Data from USB4F104151__197__11-05-27-832.txt Node

Date: Wed Feb 26 11:05:27 EST 2025
User: louis
Spectrometer: USB4F10415
Trigger mode: 4
Integration Time (sec): 1.000000E-1
Scans to average: 1
Electric dark correction enabled: true
Nonlinearity correction enabled: false
Boxcar width: 0
XAxis mode: Wavelengths
Number of Pixels in Spectrum: 3648
>>>>>Begin Spectral Data<<<<<
178.204	-345.77
178.424	-345.77
178.644	-345.77
178.864	-347.81
179.084	-458.4
179.304	53.59
179.524	-59.05
179.744	29.01
179.964	41.3
180.184	26.96
180.404	29.01
180.624	43.35
180.844	-32.43
181.064	-71.34
181.283	-3.75
181.503	-79.53
181.723	22.87
181.943	-57
182.163	221.52
182.383	-69.29
182.602	49.49
182.822	88.4
183.042	90.45
183.262	72.02
183.482	51.54
183.701	2.39
183.921	74.07
184.141	-42.67
184.361	26.96
184.58	-7.85
184.8	84.31
185.02	-26.28
185.239	117.08
185.459	41.3
185.679	112.98
185.898	-26.28
186.118	125.27
186.338	106.84
186.557	115.03
186.777	-71.34
186.997	24.92
187.216	-24.23
187.436	145.75
187.655	63.83
187.875	26.96
188.095	24.92
188.314	233.81
188.534	94.55
188.753	-22.19
188.973	115.03
189.192	190.8
189.412	53.59
189.631	45.4
189.851	96.6
190.07	78.16
190.29	-3.75
190.509	-32.43
190.729	2.39
190.948	137.56
191.168	160.08
191.387	86.36
191.607	-9.9
191.826	74.07
192.045	67.92
192.265	-18.09
192.484	69.97
192.704	-11.95
192.923	0.34
193.142	246.1
193.362	143.7
193.581	141.65
193.8	-7.85
194.02	82.26
194.239	88.4
194.458	117.08
194.678	65.88
194.897	49.49
195.116	29.01
195.335	96.6
195.555	12.63
195.774	20.82
195.993	59.73
196.212	43.35
196.432	0.34
196.651	-20.14
196.87	31.06
197.089	315.73
197.308	88.4
197.528	76.12
197.747	-18.09
197.966	16.73
198.185	121.17
198.404	-38.57
198.623	141.65
198.842	192.85
199.062	110.93
199.281	84.31
199.5	8.53
199.719	-77.48
199.938	31.06
200.157	115.03
200.376	112.98
200.595	72.02
200.814	10.58
201.033	29.01
201.252	158.03
201.471	31.06
201.69	74.07
201.909	16.73
202.128	135.51
202.347	63.83
202.566	29.01
202.785	-40.62
203.004	-65.19
203.223	272.72
203.442	51.54
203.661	24.92
203.879	137.56
204.098	178.51
204.317	-22.19
204.536	123.22
204.755	112.98
204.974	96.6
205.193	-26.28
205.411	168.27
205.63	102.74
205.849	90.45
206.068	14.68
206.287	-52.91
206.505	127.32
206.724	84.31
206.943	-93.87
207.162	-11.95
207.381	108.88
207.599	-34.47
207.818	6.49
208.037	0.34
208.255	82.26
208.474	110.93
208.693	61.78
208.911	45.4
209.13	127.32
209.349	51.54
209.567	104.79
209.786	106.84
210.005	123.22
210.223	100.69
210.442	-145.06
210.661	37.2
210.879	133.46
211.098	47.44
211.316	29.01
211.535	72.02
211.753	-22.19
211.972	98.64
212.191	-38.57
212.409	-7.85
212.628	104.79
212.846	-30.38
213.065	57.68
213.283	155.99
213.502	49.49
213.72	-18.09
213.938	69.97
214.157	57.68
214.375	94.55
214.594	61.78
214.812	80.21
215.031	14.68
215.249	67.92
215.467	47.44
215.686	22.87
215.904	76.12
216.122	14.68
216.341	164.18
216.559	125.27
216.778	98.64
216.996	133.46
217.214	-61.1
217.432	-77.48
217.651	-40.62
217.869	123.22
218.087	84.31
218.306	45.4
218.524	41.3
218.742	51.54
218.96	190.8
219.179	18.77
219.397	6.49
219.615	282.96
219.833	84.31
220.051	-59.05
220.27	90.45
220.488	151.89
220.706	90.45
220.924	-54.95
221.142	-67.24
221.36	106.84
221.578	82.26
221.796	72.02
222.015	55.64
222.233	57.68
222.451	164.18
222.669	-97.96
222.887	108.88
223.105	-11.95
223.323	65.88
223.541	-16.04
223.759	24.92
223.977	53.59
224.195	164.18
224.413	104.79
224.631	84.31
224.849	115.03
225.067	237.91
225.285	-57
225.503	-48.81
225.721	-57
225.939	12.63
226.157	55.64
226.375	198.99
226.592	-22.19
226.81	14.68
227.028	59.73
227.246	47.44
227.464	69.97
227.682	123.22
227.9	72.02
228.117	51.54
228.335	8.53
228.553	41.3
228.771	41.3
228.989	4.44
229.206	63.83
229.424	-34.47
229.642	22.87
229.86	-75.43
230.077	160.08
230.295	86.36
230.513	155.99
230.731	102.74
230.948	217.43
231.166	188.75
231.384	29.01
231.601	67.92
231.819	106.84
232.037	4.44
232.254	-16.04
232.472	98.64
232.689	29.01
232.907	145.75
233.125	24.92
233.342	-5.8
233.56	-34.47
233.777	-18.09
233.995	24.92
234.213	168.27
234.43	84.31
234.648	-36.52
234.865	-126.63
235.083	22.87
235.3	98.64
235.518	96.6
235.735	88.4
235.953	78.16
236.17	45.4
236.388	-50.86
236.605	55.64
236.822	26.96
237.04	110.93
237.257	35.16
237.475	0.34
237.692	0.34
237.909	90.45
238.127	0.34
238.344	24.92
238.562	49.49
238.779	-38.57
238.996	14.68
239.214	37.2
239.431	110.93
239.648	31.06
239.865	20.82
240.083	72.02
240.3	45.4
240.517	14.68
240.735	33.11
240.952	178.51
241.169	63.83
241.386	39.25
241.603	20.82
241.821	-1.71
242.038	96.6
242.255	129.36
242.472	-18.09
242.689	80.21
242.907	72.02
243.124	55.64
243.341	12.63
243.558	-50.86
243.775	-11.95
243.992	-48.81
244.209	-16.04
244.426	147.8
244.643	55.64
244.86	74.07
245.078	33.11
245.295	29.01
245.512	67.92
245.729	33.11
245.946	164.18
246.163	41.3
246.38	2.39
246.597	94.55
246.814	43.35
247.031	0.34
247.248	14.68
247.464	51.54
247.681	35.16
247.898	0.34
248.115	57.68
248.332	2.39
248.549	135.51
248.766	153.94
248.983	55.64
249.2	115.03
249.417	108.88
249.633	18.77
249.85	100.69
250.067	49.49
250.284	133.46
250.501	45.4
250.717	35.16
250.934	-97.96
251.151	0.34
251.368	8.53
251.585	78.16
251.801	57.68
252.018	-40.62
252.235	98.64
252.451	-40.62
252.668	14.68
252.885	115.03
253.102	39.25
253.318	37.2
253.535	-11.95
253.752	-48.81
253.968	45.4
254.185	-54.95
254.401	47.44
254.618	80.21
254.835	-18.09
255.051	143.7
255.268	86.36
255.484	4.44
255.701	69.97
255.917	14.68
256.134	-89.77
256.351	84.31
256.567	6.49
256.784	22.87
257	-104.11
257.217	98.64
257.433	39.25
257.65	61.78
257.866	155.99
258.082	-5.8
258.299	-34.47
258.515	45.4
258.732	-7.85
258.948	-11.95
259.165	72.02
259.381	-26.28
259.597	57.68
259.814	78.16
260.03	8.53
260.246	12.63
260.463	49.49
260.679	123.22
260.895	112.98
261.112	57.68
261.328	-9.9
261.544	-38.57
261.761	186.71
261.977	61.78
262.193	-102.06
262.409	108.88
262.626	33.11
262.842	61.78
263.058	-46.76
263.274	22.87
263.49	65.88
263.707	55.64
263.923	174.42
264.139	-59.05
264.355	-13.99
264.571	63.83
264.787	33.11
265.004	108.88
265.22	-44.71
265.436	-57
265.652	59.73
265.868	51.54
266.084	-97.96
266.3	20.82
266.516	-18.09
266.732	33.11
266.948	55.64
267.164	59.73
267.38	115.03
267.596	16.73
267.812	186.71
268.028	63.83
268.244	-5.8
268.46	55.64
268.676	14.68
268.892	51.54
269.108	2.39
269.324	-24.23
269.54	-34.47
269.756	65.88
269.972	18.77
270.188	78.16
270.403	-91.82
270.619	98.64
270.835	57.68
271.051	24.92
271.267	16.73
271.483	-50.86
271.698	22.87
271.914	31.06
272.13	14.68
272.346	57.68
272.562	61.78
272.777	100.69
272.993	67.92
273.209	-30.38
273.425	121.17
273.64	-79.53
273.856	80.21
274.072	-65.19
274.287	-48.81
274.503	135.51
274.719	92.5
274.934	59.73
275.15	6.49
275.366	47.44
275.581	18.77
275.797	18.77
276.012	78.16
276.228	-26.28
276.444	6.49
276.659	121.17
276.875	-5.8
277.09	82.26
277.306	37.2
277.521	94.55
277.737	39.25
277.952	88.4
278.168	8.53
278.383	39.25
278.599	24.92
278.814	172.37
279.03	92.5
279.245	82.26
279.461	47.44
279.676	123.22
279.892	-16.04
280.107	-34.47
280.322	-42.67
280.538	16.73
280.753	43.35
280.969	-16.04
281.184	6.49
281.399	143.7
281.615	-28.33
281.83	6.49
282.045	-71.34
282.26	26.96
282.476	49.49
282.691	147.8
282.906	100.69
283.122	49.49
283.337	-1.71
283.552	80.21
283.767	43.35
283.983	104.79
284.198	2.39
284.413	61.78
284.628	-63.15
284.843	8.53
285.058	108.88
285.274	-36.52
285.489	-87.72
285.704	63.83
285.919	29.01
286.134	59.73
286.349	47.44
286.564	82.26
286.779	166.23
286.995	-7.85
287.21	-24.23
287.425	110.93
287.64	-9.9
287.855	141.65
288.07	-71.34
288.285	139.6
288.5	151.89
288.715	57.68
288.93	6.49
289.145	14.68
289.36	145.75
289.575	49.49
289.79	94.55
290.004	4.44
290.219	78.16
290.434	74.07
290.649	41.3
290.864	12.63
291.079	12.63
291.294	110.93
291.509	137.56
291.724	14.68
291.938	43.35
292.153	59.73
292.368	22.87
292.583	39.25
292.798	12.63
293.012	53.59
293.227	106.84
293.442	41.3
293.657	98.64
293.871	184.66
294.086	86.36
294.301	172.37
294.516	125.27
294.73	74.07
294.945	-13.99
295.16	-11.95
295.374	90.45
295.589	172.37
295.804	86.36
296.018	69.97
296.233	78.16
296.447	96.6
296.662	6.49
296.877	84.31
297.091	96.6
297.306	88.4
297.52	-54.95
297.735	20.82
297.949	72.02
298.164	49.49
298.378	76.12
298.593	24.92
298.807	-9.9
299.022	82.26
299.236	160.08
299.451	14.68
299.665	-20.14
299.88	94.55
300.094	129.36
300.309	45.4
300.523	45.4
300.737	6.49
300.952	69.97
301.166	57.68
301.381	-11.95
301.595	-36.52
301.809	45.4
302.024	12.63
302.238	-36.52
302.452	129.36
302.667	96.6
302.881	178.51
303.095	72.02
303.309	47.44
303.524	33.11
303.738	78.16
303.952	-30.38
304.166	43.35
304.381	-57
304.595	178.51
304.809	-22.19
305.023	65.88
305.237	63.83
305.452	41.3
305.666	98.64
305.88	65.88
306.094	67.92
306.308	125.27
306.522	106.84
306.736	96.6
306.95	88.4
307.164	20.82
307.379	26.96
307.593	149.84
307.807	131.41
308.021	110.93
308.235	67.92
308.449	-30.38
308.663	24.92
308.877	227.67
309.091	67.92
309.305	125.27
309.519	-75.43
309.733	151.89
309.947	4.44
310.161	123.22
310.374	153.94
310.588	155.99
310.802	0.34
311.016	45.4
311.23	22.87
311.444	-77.48
311.658	-28.33
311.872	160.08
312.085	141.65
312.299	108.88
312.513	127.32
312.727	141.65
312.941	12.63
313.154	39.25
313.368	-9.9
313.582	37.2
313.796	67.92
314.009	-3.75
314.223	190.8
314.437	29.01
314.651	155.99
314.864	69.97
315.078	-24.23
315.292	-81.58
315.505	33.11
315.719	57.68
315.933	29.01
316.146	-7.85
316.36	-7.85
316.573	147.8
316.787	63.83
317.001	-18.09
317.214	-3.75
317.428	88.4
317.641	-59.05
317.855	39.25
318.068	67.92
318.282	22.87
318.495	258.39
318.709	69.97
318.922	35.16
319.136	37.2
319.349	151.89
319.563	39.25
319.776	80.21
319.99	-46.76
320.203	104.79
320.417	55.64
320.63	158.03
320.843	164.18
321.057	51.54
321.27	47.44
321.483	45.4
321.697	176.47
321.91	53.59
322.124	82.26
322.337	106.84
322.55	16.73
322.763	59.73
322.977	10.58
323.19	18.77
323.403	-34.47
323.617	88.4
323.83	119.12
324.043	-5.8
324.256	-24.23
324.469	12.63
324.683	112.98
324.896	59.73
325.109	43.35
325.322	-38.57
325.535	88.4
325.748	102.74
325.962	-5.8
326.175	65.88
326.388	74.07
326.601	125.27
326.814	53.59
327.027	102.74
327.24	155.99
327.453	-63.15
327.666	102.74
327.879	84.31
328.092	115.03
328.305	41.3
328.518	49.49
328.731	0.34
328.944	4.44
329.157	45.4
329.37	-1.71
329.583	160.08
329.796	153.94
330.009	-140.97
330.222	31.06
330.435	41.3
330.648	86.36
330.861	131.41
331.073	12.63
331.286	59.73
331.499	84.31
331.712	55.64
331.925	59.73
332.138	18.77
332.35	82.26
332.563	18.77
332.776	149.84
332.989	-22.19
333.202	16.73
333.414	-20.14
333.627	88.4
333.84	-11.95
334.053	22.87
334.265	2.39
334.478	61.78
334.691	76.12
334.903	78.16
335.116	6.49
335.329	49.49
335.541	143.7
335.754	139.6
335.966	-46.76
336.179	4.44
336.392	57.68
336.604	69.97
336.817	129.36
337.029	90.45
337.242	80.21
337.454	119.12
337.667	37.2
337.88	176.47
338.092	106.84
338.305	131.41
338.517	-9.9
338.729	39.25
338.942	51.54
339.154	-69.29
339.367	-5.8
339.579	119.12
339.792	29.01
340.004	127.32
340.217	-16.04
340.429	57.68
340.641	-20.14
340.854	-42.67
341.066	65.88
341.278	115.03
341.491	186.71
341.703	88.4
341.915	26.96
342.128	92.5
342.34	80.21
342.552	-79.53
342.764	-7.85
342.977	31.06
343.189	135.51
343.401	-9.9
343.613	-102.06
343.826	2.39
344.038	55.64
344.25	65.88
344.462	-3.75
344.674	78.16
344.886	82.26
345.099	94.55
345.311	94.55
345.523	-9.9
345.735	-81.58
345.947	108.88
346.159	8.53
346.371	26.96
346.583	4.44
346.795	166.23
347.007	2.39
347.219	35.16
347.431	41.3
347.643	162.13
347.855	-13.99
348.067	207.19
348.279	-69.29
348.491	65.88
348.703	12.63
348.915	80.21
349.127	49.49
349.339	29.01
349.551	51.54
349.763	61.78
349.975	37.2
350.187	129.36
350.399	63.83
350.61	61.78
350.822	-46.76
351.034	63.83
351.246	98.64
351.458	115.03
351.669	63.83
351.881	141.65
352.093	145.75
352.305	98.64
352.517	-5.8
352.728	121.17
352.94	-9.9
353.152	59.73
353.363	-22.19
353.575	98.64
353.787	184.66
353.999	29.01
354.21	166.23
354.422	-20.14
354.633	72.02
354.845	31.06
355.057	72.02
355.268	86.36
355.48	115.03
355.692	-57
355.903	65.88
356.115	-93.87
356.326	-75.43
356.538	205.14
356.749	104.79
356.961	239.95
357.172	-20.14
357.384	-22.19
357.595	180.56
357.807	-16.04
358.018	-61.1
358.23	88.4
358.441	117.08
358.653	41.3
358.864	63.83
359.075	-93.87
359.287	0.34
359.498	153.94
359.709	100.69
359.921	-9.9
360.132	137.56
360.344	14.68
360.555	-13.99
360.766	-1.71
360.977	55.64
361.189	90.45
361.4	88.4
361.611	110.93
361.823	72.02
362.034	143.7
362.245	-20.14
362.456	14.68
362.667	160.08
362.879	-5.8
363.09	164.18
363.301	121.17
363.512	-16.04
363.723	102.74
363.935	63.83
364.146	141.65
364.357	47.44
364.568	31.06
364.779	-24.23
364.99	151.89
365.201	57.68
365.412	65.88
365.623	-40.62
365.834	63.83
366.045	80.21
366.256	123.22
366.467	100.69
366.678	-5.8
366.889	20.82
367.1	16.73
367.311	123.22
367.522	26.96
367.733	43.35
367.944	74.07
368.155	78.16
368.366	131.41
368.577	76.12
368.788	65.88
368.999	-22.19
369.209	6.49
369.42	278.87
369.631	305.49
369.842	119.12
370.053	-11.95
370.264	94.55
370.474	-89.77
370.685	55.64
370.896	78.16
371.107	149.84
371.317	82.26
371.528	39.25
371.739	172.37
371.95	37.2
372.16	6.49
372.371	-104.11
372.582	-30.38
372.792	10.58
373.003	86.36
373.214	104.79
373.424	55.64
373.635	-59.05
373.846	215.38
374.056	74.07
374.267	119.12
374.477	41.3
374.688	33.11
374.898	139.6
375.109	24.92
375.319	37.2
375.53	176.47
375.74	74.07
375.951	22.87
376.161	102.74
376.372	129.36
376.582	-38.57
376.793	98.64
377.003	-28.33
377.214	24.92
377.424	133.46
377.635	96.6
377.845	119.12
378.055	98.64
378.266	33.11
378.476	53.59
378.686	57.68
378.897	110.93
379.107	53.59
379.317	72.02
379.528	-16.04
379.738	35.16
379.948	26.96
380.158	82.26
380.369	121.17
380.579	37.2
380.789	170.32
380.999	135.51
381.21	94.55
381.42	221.52
381.63	67.92
381.84	98.64
382.05	43.35
382.261	102.74
382.471	129.36
382.681	31.06
382.891	135.51
383.101	39.25
383.311	-91.82
383.521	49.49
383.731	82.26
383.941	63.83
384.151	72.02
384.361	139.6
384.571	61.78
384.781	86.36
384.991	242
385.201	207.19
385.411	115.03
385.621	-11.95
385.831	59.73
386.041	106.84
386.251	33.11
386.461	149.84
386.671	37.2
386.881	139.6
387.091	-1.71
387.301	108.88
387.511	100.69
387.72	55.64
387.93	55.64
388.14	-81.58
388.35	84.31
388.56	127.32
388.769	63.83
388.979	88.4
389.189	-20.14
389.399	-30.38
389.609	45.4
389.818	117.08
390.028	65.88
390.238	127.32
390.447	-57
390.657	82.26
390.867	92.5
391.076	-32.43
391.286	67.92
391.496	72.02
391.705	0.34
391.915	168.27
392.125	164.18
392.334	33.11
392.544	160.08
392.753	61.78
392.963	-28.33
393.172	45.4
393.382	-42.67
393.591	135.51
393.801	72.02
394.01	78.16
394.22	78.16
394.429	55.64
394.639	41.3
394.848	45.4
395.058	18.77
395.267	55.64
395.477	16.73
395.686	98.64
395.895	215.38
396.105	219.47
396.314	131.41
396.524	8.53
396.733	-24.23
396.942	164.18
397.152	129.36
397.361	104.79
397.57	80.21
397.78	96.6
397.989	119.12
398.198	223.57
398.407	137.56
398.617	-28.33
398.826	18.77
399.035	12.63
399.244	-3.75
399.453	24.92
399.663	39.25
399.872	98.64
400.081	-54.95
400.29	178.51
400.499	61.78
400.708	61.78
400.917	-3.75
401.127	53.59
401.336	59.73
401.545	194.9
401.754	153.94
401.963	102.74
402.172	139.6
402.381	-44.71
402.59	-5.8
402.799	67.92
403.008	141.65
403.217	61.78
403.426	108.88
403.635	-16.04
403.844	80.21
404.053	8.53
404.262	2.39
404.471	143.7
404.68	112.98
404.888	33.11
405.097	47.44
405.306	22.87
405.515	104.79
405.724	-16.04
405.933	72.02
406.142	55.64
406.35	82.26
406.559	33.11
406.768	65.88
406.977	129.36
407.185	98.64
407.394	90.45
407.603	-52.91
407.812	61.78
408.02	205.14
408.229	110.93
408.438	65.88
408.646	-77.48
408.855	29.01
409.064	61.78
409.272	63.83
409.481	41.3
409.69	76.12
409.898	-48.81
410.107	43.35
410.315	127.32
410.524	-9.9
410.733	57.68
410.941	106.84
411.15	45.4
411.358	104.79
411.567	205.14
411.775	65.88
411.984	47.44
412.192	92.5
412.401	31.06
412.609	115.03
412.818	112.98
413.026	65.88
413.234	88.4
413.443	65.88
413.651	14.68
413.86	69.97
414.068	131.41
414.276	211.28
414.485	-28.33
414.693	129.36
414.901	104.79
415.11	57.68
415.318	82.26
415.526	110.93
415.734	102.74
415.943	139.6
416.151	96.6
416.359	2.39
416.567	61.78
416.776	155.99
416.984	80.21
417.192	170.32
417.4	-57
417.608	0.34
417.817	-42.67
418.025	59.73
418.233	235.86
418.441	-36.52
418.649	-36.52
418.857	104.79
419.065	182.61
419.273	26.96
419.481	137.56
419.689	51.54
419.897	20.82
420.105	43.35
420.313	125.27
420.521	78.16
420.729	178.51
420.937	33.11
421.145	-65.19
421.353	90.45
421.561	100.69
421.769	67.92
421.977	92.5
422.185	137.56
422.393	49.49
422.601	153.94
422.809	123.22
423.017	8.53
423.224	96.6
423.432	104.79
423.64	53.59
423.848	94.55
424.056	35.16
424.263	72.02
424.471	80.21
424.679	205.14
424.887	-28.33
425.094	106.84
425.302	160.08
425.51	-5.8
425.718	135.51
425.925	143.7
426.133	84.31
426.341	311.63
426.548	72.02
426.756	45.4
426.964	51.54
427.171	53.59
427.379	74.07
427.586	139.6
427.794	110.93
428.001	201.04
428.209	180.56
428.417	162.13
428.624	207.19
428.832	96.6
429.039	78.16
429.247	131.41
429.454	80.21
429.662	246.1
429.869	96.6
430.076	94.55
430.284	186.71
430.491	211.28
430.699	196.95
430.906	268.63
431.114	119.12
431.321	110.93
431.528	82.26
431.736	201.04
431.943	178.51
432.15	153.94
432.358	115.03
432.565	291.15
432.772	53.59
432.979	266.58
433.187	39.25
433.394	264.53
433.601	221.52
433.808	256.34
434.016	340.3
434.223	219.47
434.43	180.56
434.637	276.82
434.844	258.39
435.052	233.81
435.259	270.67
435.466	360.78
435.673	256.34
435.88	250.19
436.087	319.82
436.294	334.16
436.501	450.89
436.708	305.49
436.915	389.46
437.122	438.61
437.329	313.68
437.537	432.46
437.743	387.41
437.95	452.94
438.157	401.74
438.364	397.65
438.571	416.08
438.778	491.85
438.985	473.42
439.192	541.01
439.399	491.85
439.606	461.13
439.813	676.17
440.02	706.89
440.227	784.71
440.433	639.31
440.64	581.96
440.847	555.34
441.054	684.36
441.261	729.42
441.467	688.46
441.674	774.47
441.881	768.33
442.088	715.08
442.294	831.82
442.501	915.78
442.708	866.63
442.914	866.63
443.121	971.08
443.328	917.83
443.534	1038.66
443.741	1034.57
443.948	950.6
444.154	1114.44
444.361	1229.12
444.568	1210.69
444.774	1184.07
444.981	1061.19
445.187	1288.51
445.394	1308.99
445.6	1378.62
445.807	1542.46
446.013	1376.58
446.22	1409.34
446.426	1544.51
446.633	1577.28
446.839	1804.6
447.046	1663.29
447.252	1890.62
447.459	1730.87
447.665	1829.18
447.871	2199.86
448.078	2242.87
448.284	2062.65
448.491	2267.44
448.697	2361.65
448.903	2451.76
449.11	2588.97
449.316	2447.66
449.522	2685.23
449.728	2748.72
449.935	2967.85
450.141	2806.06
450.347	3027.24
450.553	3012.9
450.76	3219.75
450.966	3301.67
451.172	3309.86
451.378	3463.46
451.584	3537.18
451.791	3871
451.997	3774.75
452.203	4079.9
452.409	4370.71
452.615	4428.05
452.821	4358.42
453.027	4235.54
453.233	5122.31
453.44	4612.37
453.646	5079.3
453.852	5345.54
454.058	5294.34
454.264	5605.63
454.47	5814.52
454.676	5875.96
454.882	6490.35
455.088	6179.06
455.294	6566.13
455.5	7055.59
455.705	7180.52
455.911	7362.79
456.117	7680.22
456.323	7893.21
456.529	7710.94
456.735	8575.19
456.941	8636.63
457.147	9044.17
457.352	9251.02
457.558	9711.81
457.764	10156.22
457.97	10391.73
458.176	10791.09
458.381	11438.25
458.587	11780.26
458.793	12124.32
458.999	12161.18
459.204	13437.06
459.41	14227.58
459.616	13873.28
459.821	14692.47
460.027	15560.81
460.233	16107.62
460.438	16072.8
460.644	17211.47
460.85	17236.05
461.055	17819.72
461.261	18913.33
461.466	18284.61
461.672	18718.78
461.878	21053.46
462.083	20668.44
462.289	21418
462.494	22263.81
462.7	22202.37
462.905	22726.65
463.111	24573.92
463.316	25368.53
463.522	26134.47
463.727	26843.07
463.932	28045.23
464.138	28538.79
464.343	30130.06
464.549	29872.01
464.754	32061.29
464.959	33099.61
465.165	33212.25
465.37	33498.97
465.575	33232.73
465.781	35870.51
465.986	36661.03
466.191	35864.37
466.397	36282.16
466.602	35608.37
466.807	38086.42
467.012	38217.49
467.218	38999.81
467.423	38772.49
467.628	40404.72
467.833	42073.81
468.038	41334.49
468.244	40509.16
468.449	42659.53
468.654	41826.01
468.859	41952.98
469.064	41799.38
469.269	40515.31
469.474	41076.45
469.679	42405.58
469.885	40959.72
470.09	41723.61
470.295	41907.93
470.5	40716.01
470.705	41146.08
470.91	39907.06
471.115	39597.82
471.32	40494.83
471.525	39978.74
471.73	38739.72
471.935	38645.51
472.139	36917.03
472.344	37322.52
472.549	36896.55
472.754	36693.8
472.959	35135.29
473.164	34551.62
473.369	33840.98
473.574	34910.02
473.778	33888.08
473.983	33662.8
474.188	32696.16
474.393	31172.47
474.598	30977.92
474.802	30343.05
475.007	30304.13
475.212	29902.73
475.417	28630.94
475.621	28522.4
475.826	27983.79
476.031	27293.62
476.235	26900.41
476.44	26771.39
476.645	26238.92
476.849	25495.5
477.054	25454.54
477.259	24748
477.463	24770.52
477.668	24303.59
477.872	24000.49
478.077	23392.24
478.282	22523.9
478.486	22444.03
478.691	22321.15
478.895	22220.8
479.1	22042.63
479.304	21741.58
479.509	21032.98
479.713	21557.26
479.918	20848.66
480.122	20224.03
480.326	20662.3
480.531	20299.81
480.735	20295.71
480.94	19890.21
481.144	20457.5
481.348	19378.22
481.553	19820.58
481.757	18939.96
481.961	19357.74
482.166	19320.88
482.37	18899
482.574	18589.75
482.778	18597.95
482.983	18972.72
483.187	18460.73
483.391	18341.95
483.595	18167.87
483.8	17782.85
484.004	18032.71
484.208	18063.43
484.412	17578.06
484.616	17547.34
484.821	17066.06
485.025	16826.45
485.229	17166.42
485.433	16281.69
485.637	16466.01
485.841	16162.91
486.045	16054.37
486.249	15784.04
486.453	15396.97
486.657	15407.21
486.861	15083.63
487.065	14565.5
487.269	14616.69
487.473	14215.29
487.677	14528.63
487.881	14106.75
488.085	13666.44
488.289	13383.82
488.493	13326.47
488.697	13277.32
488.901	12961.94
489.105	12552.34
489.309	12320.92
489.512	12277.91
489.716	11935.9
489.92	11634.85
490.124	11401.38
490.328	11485.35
490.531	11057.32
490.735	10977.45
490.939	10817.71
491.143	10614.96
491.346	10440.89
491.55	10342.58
491.754	10158.27
491.958	9947.33
492.161	9644.23
492.365	9490.63
492.569	9232.58
492.772	9355.46
492.976	9222.34
493.18	8927.44
493.383	8874.19
493.587	8866
493.79	8890.57
493.994	8495.32
494.197	8501.46
494.401	8511.7
494.605	8507.6
494.808	8292.57
495.012	8282.33
495.215	8241.37
495.419	8095.96
495.622	7807.2
495.825	8028.38
496.029	7964.89
496.232	8110.3
496.436	7811.29
496.639	7925.98
496.843	7835.87
497.046	7796.96
497.249	8155.35
497.453	8083.67
497.656	7876.83
497.859	7753.95
498.063	7917.79
498.266	8069.34
498.469	7743.71
498.673	7950.56
498.876	8042.71
499.079	7803.1
499.282	7864.54
499.485	8108.25
499.689	8055
499.892	8093.91
500.095	8089.82
500.298	8179.93
500.501	8009.95
500.705	8456.4
500.908	8485.08
501.111	8581.33
501.314	8659.15
501.517	8546.51
501.72	8880.33
501.923	8804.56
502.126	8880.33
502.329	9165
502.532	9214.15
502.735	9162.95
502.938	9326.79
503.141	9412.81
503.344	9363.65
503.547	9580.74
503.75	9691.33
503.953	9781.44
504.156	10127.55
504.359	10160.31
504.562	10191.03
504.765	10352.82
504.968	10655.92
505.17	10885.3
505.373	10807.47
505.576	11067.56
505.779	11083.95
505.982	11225.26
506.185	11706.53
506.387	11540.65
506.59	12042.4
506.793	12425.37
506.996	12251.29
507.198	12787.86
507.401	12800.15
507.604	13144.2
507.807	13351.05
508.009	13619.33
508.212	13985.92
508.415	14319.74
508.617	14475.38
508.82	14844.02
509.022	14639.22
509.225	15323.24
509.428	15667.3
509.63	15976.55
509.833	16175.2
510.035	16818.26
510.238	16752.73
510.44	17395.79
510.643	17758.28
510.845	18071.62
511.048	18194.5
511.25	18870.33
511.453	19257.39
511.655	20027.43
511.858	20060.2
512.06	20418.59
512.262	20881.43
512.465	21182.48
512.667	22095.88
512.87	22544.38
513.072	22642.68
513.274	23590.89
513.477	23934.95
513.679	24352.74
513.881	25202.64
514.084	25409.49
514.286	26124.23
514.488	26705.85
514.69	27529.14
514.893	27631.54
515.095	28047.27
515.297	29069.21
515.499	29714.32
515.701	30226.31
515.904	30809.98
516.106	31436.66
516.308	32399.21
516.51	32626.53
516.712	32878.43
516.914	33845.07
517.116	34803.52
517.318	35026.75
517.52	35520.31
517.722	36312.88
517.925	36947.75
518.127	37934.87
518.329	38592.26
518.531	38573.83
518.733	39870.2
518.935	40249.07
519.136	41045.73
519.338	41617.11
519.54	42434.25
519.742	43110.08
519.944	43556.54
520.146	44297.91
520.348	44426.93
520.55	44940.97
520.752	45385.38
520.954	46503.57
521.155	46444.18
521.357	47441.54
521.559	47900.28
521.761	48903.79
521.963	48785
522.164	49456.74
522.366	49530.47
522.568	50318.93
522.77	50261.59
522.971	51009.1
523.173	50746.96
523.375	51322.44
523.576	51467.84
523.778	51564.1
523.98	52196.92
524.181	52631.09
524.383	52727.34
524.584	53077.55
524.786	52831.79
524.988	52567.6
525.189	53245.48
525.391	53360.17
525.592	53515.81
525.794	53419.56
525.995	53370.41
526.197	53581.35
526.398	53233.19
526.6	53126.7
526.801	52885.04
527.003	52981.29
527.204	52776.5
527.406	53030.44
527.607	52112.95
527.808	52422.2
528.01	51607.11
528.211	52219.45
528.412	51656.26
528.614	51242.57
528.815	51021.39
529.016	50806.35
529.218	49981.02
529.419	49710.69
529.62	49383.01
529.822	48905.84
530.023	48428.66
530.224	47832.7
530.425	47279.75
530.626	46732.94
530.828	46300.82
531.029	46366.35
531.23	45477.54
531.431	44920.49
531.632	44828.33
531.833	44140.21
532.035	43912.89
532.236	42968.77
532.437	42938.05
532.638	41776.86
532.839	41426.65
533.04	41209.57
533.241	40298.22
533.442	40806.12
533.643	39575.29
533.844	39046.91
534.045	38395.66
534.246	37689.11
534.447	37898
534.648	36994.85
534.849	36831.01
535.05	36022.06
535.251	35948.34
535.451	35166.01
535.652	35118.91
535.853	34000.72
536.054	33707.86
536.255	33605.46
536.456	32657.25
536.657	32380.78
536.857	31594.36
537.058	31315.83
537.259	31510.39
537.46	30578.56
537.66	30275.46
537.861	30293.9
538.062	29038.49
538.263	29036.44
538.463	28966.81
538.664	28422.05
538.865	28053.42
539.065	28112.81
539.266	26898.36
539.466	27246.52
539.667	26507.2
539.868	26654.65
540.068	26011.59
540.269	25845.71
540.469	25204.69
540.67	25044.95
540.87	24756.19
541.071	24612.83
541.271	24047.59
541.472	24211.43
541.672	23793.64
541.873	23171.06
542.073	22818.81
542.274	22867.96
542.474	22585.34
542.675	22218.75
542.875	22118.4
543.075	21649.42
543.276	21178.39
543.476	21587.98
543.676	20983.83
543.877	21028.88
544.077	20819.99
544.277	20346.91
544.478	19972.13
544.678	20181.03
544.878	19732.52
545.078	19556.39
545.279	19077.17
545.479	18694.2
545.679	18767.93
545.879	18460.73
546.079	18458.68
546.28	18077.76
546.48	17868.87
546.68	17772.61
546.88	17897.54
547.08	17373.26
547.28	17143.89
547.48	16752.73
547.68	16758.87
547.88	16291.93
548.081	16152.67
548.281	16054.37
548.481	15812.71
548.681	15837.28
548.881	15280.24
549.081	15372.39
549.28	14999.66
549.48	14977.14
549.68	14755.96
549.88	14434.43
550.08	14354.55
550.28	14088.32
550.48	13860.99
550.68	13877.38
550.88	13605
551.08	13039.76
551.279	13172.88
551.479	12945.55
551.679	12849.3
551.879	12716.18
552.079	12517.53
552.278	12380.31
552.478	11970.72
552.678	11909.28
552.878	11853.98
553.077	11530.41
553.277	11192.49
553.477	11223.21
553.676	11112.62
553.876	10670.26
554.076	10584.24
554.275	10535.09
554.475	10332.34
554.674	10164.41
554.874	9832.64
555.074	9992.38
555.273	9699.52
555.473	9601.22
555.672	9355.46
555.872	9167.05
556.071	9011.4
556.271	8943.82
556.47	8724.69
556.67	8472.79
556.869	8495.32
557.068	8376.53
557.268	8030.43
557.467	7919.84
557.667	7995.61
557.866	7842.01
558.065	7618.79
558.265	7536.87
558.464	7393.51
558.663	7352.55
558.863	7061.74
559.062	7166.18
559.261	6949.1
559.461	7002.35
559.66	6547.7
559.859	6562.03
560.058	6465.78
560.258	6312.18
560.457	6273.27
560.656	6394.1
560.855	6041.85
561.054	6177.02
561.253	6021.37
561.453	6002.94
561.652	5835
561.851	5728.51
562.05	5445.89
562.249	5396.74
562.448	5406.98
562.647	5136.65
562.846	5237
563.045	5366.02
563.244	5046.54
563.443	5132.55
563.642	4968.71
563.841	4817.16
564.04	4878.6
564.239	4768.01
564.438	4577.55
564.637	4682
564.836	4387.09
565.035	4391.19
565.234	4440.34
565.432	4426
565.631	4385.04
565.83	4231.44
566.029	4184.34
566.228	3993.88
566.427	4129.05
566.625	4020.5
566.824	3848.47
567.023	3891.48
567.222	3772.7
567.42	3758.36
567.619	3610.91
567.818	3586.33
568.016	3766.56
568.215	3559.71
568.414	3561.76
568.612	3363.11
568.811	3420.45
569.01	3373.35
569.208	3219.75
569.407	3389.73
569.605	3254.56
569.804	3199.27
570.002	3027.24
570.201	3154.21
570.4	3178.79
570.598	2842.92
570.797	2926.89
570.995	2916.65
571.193	2820.39
571.392	2810.15
571.59	2650.41
571.789	2728.24
571.987	2683.18
572.186	2746.67
572.384	2664.75
572.582	2674.99
572.781	2425.14
572.979	2369.84
573.177	2490.67
573.376	2353.46
573.574	2353.46
573.772	2302.26
573.971	2265.39
574.169	2222.39
574.367	2357.55
574.565	2156.85
574.763	2046.26
574.962	2058.55
575.16	2185.52
575.358	2033.97
575.556	1915.19
575.754	2062.65
575.952	1990.97
576.151	1960.25
576.349	1898.81
576.547	1696.06
576.745	1802.55
576.943	1886.52
577.141	1777.98
577.339	1626.43
577.537	1810.75
577.735	1753.4
577.933	1716.54
578.131	1536.32
578.329	1780.03
578.527	1499.45
578.725	1536.32
578.923	1521.98
579.121	1616.19
579.319	1511.74
579.516	1380.67
579.714	1646.91
579.912	1364.29
580.11	1358.14
580.308	1395.01
580.506	1452.35
580.704	1200.45
580.901	1327.43
581.099	1380.67
581.297	1337.66
581.495	1274.18
581.692	1212.74
581.89	1358.14
582.088	1227.07
582.285	1190.21
582.483	1110.34
582.681	1145.16
582.878	1188.16
583.076	1114.44
583.274	1046.85
583.471	1186.12
583.669	1100.1
583.866	917.83
584.064	1032.52
584.262	926.02
584.459	1044.81
584.657	1106.24
584.854	1075.52
585.052	1040.71
585.249	1063.24
585.447	1026.37
585.644	813.38
585.841	928.07
586.039	1038.66
586.236	940.36
586.434	991.56
586.631	833.86
586.828	825.67
587.026	803.15
587.223	778.57
587.42	840.01
587.618	911.69
587.815	897.35
588.012	790.86
588.21	809.29
588.407	887.11
588.604	776.52
588.801	715.08
588.999	739.66
589.196	819.53
589.393	586.06
589.59	776.52
589.787	809.29
589.984	797
590.182	762.19
590.379	655.69
590.576	682.31
590.773	702.79
590.97	715.08
591.167	737.61
591.364	723.27
591.561	708.94
591.758	702.79
591.955	813.38
592.152	713.03
592.349	647.5
592.546	602.44
592.743	602.44
592.94	745.8
593.137	756.04
593.334	672.08
593.531	717.13
593.727	727.37
593.924	680.27
594.121	657.74
594.318	704.84
594.515	741.71
594.712	866.63
594.908	829.77
595.105	680.27
595.302	801.1
595.499	727.37
595.696	860.49
595.892	770.38
596.089	778.57
596.286	760.14
596.482	934.22
596.679	895.3
596.876	803.15
597.072	915.78
597.269	979.27
597.466	952.65
597.662	932.17
597.859	1001.8
598.055	930.12
598.252	1055.05
598.448	1003.85
598.645	1200.45
598.841	1194.31
599.038	1216.83
599.234	1321.28
599.431	1247.55
599.627	1300.8
599.824	1341.76
600.02	1372.48
600.217	1345.86
600.413	1579.33
600.609	1569.09
600.806	1886.52
601.002	1689.92
601.198	1673.53
601.395	1857.85
601.591	1769.79
601.787	1902.9
601.984	2023.73
602.18	2128.18
602.376	2144.56
602.572	2269.49
602.769	2421.04
602.965	2441.52
603.161	2529.58
603.357	2640.17
603.553	2750.76
603.75	2679.08
603.946	2763.05
604.142	2896.17
604.338	3014.95
604.534	3086.63
604.73	3250.47
604.926	3270.95
605.122	3664.16
605.318	3490.08
605.514	3850.52
605.71	3645.73
605.906	3965.21
606.102	4010.26
606.298	4204.82
606.494	4296.98
606.69	4315.41
606.886	4464.91
607.082	4524.3
607.278	4782.35
607.474	4839.69
607.67	5130.5
607.866	5024.01
608.062	5449.99
608.257	5511.43
608.453	5388.55
608.649	5820.67
608.845	5980.41
609.041	5947.64
609.236	6303.99
609.432	6441.2
609.628	6473.97
609.824	6705.39
610.019	6893.8
610.215	7180.52
610.411	7389.41
610.606	7500
610.802	7661.79
610.998	7829.73
611.193	8128.73
611.389	8163.54
611.584	8501.46
611.78	8667.35
611.976	8843.47
612.171	9138.38
612.367	9382.09
612.562	9531.59
612.758	9822.4
612.953	9959.61
613.149	10361.02
613.344	10559.67
613.539	10973.36
613.735	11301.03
613.93	11565.22
614.126	11530.41
614.321	12165.28
614.517	12413.08
614.712	12615.83
614.907	13006.99
615.103	13496.46
615.298	13320.33
615.493	14219.39
615.688	14223.48
615.884	15259.76
616.079	15085.68
616.274	15478.89
616.47	15878.24
616.665	16279.64
616.86	16560.22
617.055	17072.21
617.25	17588.3
617.445	17956.93
617.641	17889.35
617.836	18690.1
618.031	18989.11
618.226	19574.83
618.421	19994.66
618.616	20733.98
618.811	20748.31
619.006	21680.14
619.201	21983.24
619.396	22288.39
619.591	22425.6
619.786	23500.78
619.981	23924.71
620.176	24657.89
620.371	24448.99
620.566	25669.58
620.761	26044.36
620.956	26451.91
621.151	26412.99
621.346	27797.42
621.541	27332.53
621.735	28880.8
621.93	28620.7
622.125	29624.21
622.32	29925.26
622.515	30883.71
622.709	30955.39
622.904	31704.95
623.099	31883.12
623.294	32886.62
623.488	33072.99
623.683	33896.27
623.878	34084.69
624.072	34871.11
624.267	35397.43
624.462	36022.06
624.656	36529.96
624.851	37123.87
625.046	37400.35
625.24	38057.74
625.435	38240.01
625.629	38803.21
625.824	39468.8
626.018	39984.88
626.213	39528.19
626.407	41043.68
626.602	41133.79
626.796	41729.75
626.991	41815.77
627.185	42196.69
627.38	42178.26
627.574	42594
627.768	42915.53
627.963	42849.99
628.157	43210.43
628.352	43583.16
628.546	43120.32
628.74	43304.64
628.935	42794.7
629.129	43009.73
629.323	42729.16
629.517	42710.73
629.712	42581.71
629.906	42098.39
630.1	41481.95
630.294	41172.71
630.489	40791.78
630.683	40445.68
630.877	39106.3
631.071	38471.43
631.265	38295.31
631.459	37340.96
631.653	36730.66
631.848	35804.98
632.042	34959.17
632.236	34017.1
632.43	33175.39
632.624	32305
632.818	31426.42
633.012	30025.61
633.206	29341.59
633.4	28641.18
633.594	27156.41
633.788	26617.79
633.982	25894.86
634.176	24791
634.369	23560.17
634.563	23035.89
634.757	21989.38
634.951	21383.18
635.145	20631.58
635.339	19597.35
635.533	18995.25
635.726	18360.38
635.92	17225.81
636.114	16496.73
636.308	15730.79
636.501	15218.8
636.695	14616.69
636.889	13897.86
637.083	13426.82
637.276	12857.49
637.47	12146.84
637.664	11964.57
637.857	11653.28
638.051	10889.39
638.244	10655.92
638.438	9982.14
638.632	9742.53
638.825	9111.75
639.019	8970.44
639.212	8681.68
639.406	8272.09
639.599	7944.41
639.793	7665.89
639.986	7342.31
640.18	7053.55
640.373	6824.17
640.567	6445.3
640.76	6361.33
640.954	6052.09
641.147	5894.4
641.34	5482.75
641.534	5548.29
641.727	5232.9
641.92	4856.08
642.114	4720.91
642.307	4595.98
642.5	4477.2
642.694	4172.05
642.887	4266.26
643.08	3971.35
643.273	3873.05
643.467	3780.89
643.66	3442.98
643.853	3326.24
644.046	3195.17
644.239	3076.39
644.432	2832.68
644.626	2795.82
644.819	2685.23
645.012	2726.19
645.205	2556.21
645.398	2554.16
645.591	2339.12
645.784	2232.63
645.977	2095.41
646.17	2109.75
646.363	1931.58
646.556	1896.76
646.749	1874.23
646.942	1812.79
647.135	1790.27
647.328	1702.2
647.521	1675.58
647.714	1454.4
647.907	1540.41
648.099	1485.12
648.292	1511.74
648.485	1288.51
648.678	1282.37
648.871	1349.95
649.064	1311.04
649.256	999.75
649.449	1081.67
649.642	981.32
649.835	1028.42
650.027	966.98
650.22	956.74
650.413	891.21
650.605	909.64
650.798	813.38
650.991	680.27
651.183	840.01
651.376	823.62
651.568	815.43
651.761	614.73
651.954	788.81
652.146	678.22
652.339	727.37
652.531	659.79
652.724	528.72
652.916	543.05
653.109	518.48
653.301	694.6
653.494	631.12
653.686	522.57
653.879	676.17
654.071	471.37
654.263	469.33
654.456	440.65
654.648	495.95
654.84	442.7
655.033	432.46
655.225	512.33
655.417	311.63
655.61	545.1
655.802	446.8
655.994	495.95
656.186	360.78
656.379	411.98
656.571	321.87
656.763	362.83
656.955	309.58
657.148	334.16
657.34	405.84
657.532	328.02
657.724	321.87
657.916	299.34
658.108	409.94
658.3	332.11
658.492	354.64
658.684	186.71
658.876	368.98
659.068	276.82
659.26	205.14
659.452	223.57
659.644	313.68
659.836	371.02
660.028	186.71
660.22	170.32
660.412	315.73
660.604	207.19
660.796	278.87
660.988	299.34
661.18	262.48
661.372	217.43
661.563	182.61
661.755	117.08
661.947	221.52
662.139	151.89
662.331	223.57
662.522	209.23
662.714	262.48
662.906	108.88
663.097	115.03
663.289	135.51
663.481	39.25
663.673	248.15
663.864	145.75
664.056	153.94
664.247	231.76
664.439	244.05
664.631	211.28
664.822	192.85
665.014	158.03
665.205	65.88
665.397	141.65
665.588	194.9
665.78	108.88
665.971	170.32
666.163	121.17
666.354	145.75
666.546	149.84
666.737	143.7
666.929	84.31
667.12	82.26
667.311	186.71
667.503	88.4
667.694	155.99
667.885	145.75
668.077	219.47
668.268	115.03
668.459	84.31
668.651	168.27
668.842	94.55
669.033	35.16
669.224	57.68
669.416	328.02
669.607	76.12
669.798	119.12
669.989	180.56
670.18	164.18
670.371	143.7
670.563	65.88
670.754	172.37
670.945	201.04
671.136	172.37
671.327	121.17
671.518	145.75
671.709	328.02
671.9	133.46
672.091	307.54
672.282	239.95
672.473	102.74
672.664	49.49
672.855	67.92
673.046	190.8
673.237	225.62
673.428	125.27
673.619	151.89
673.809	106.84
674	233.81
674.191	280.91
674.382	121.17
674.573	104.79
674.764	88.4
674.954	133.46
675.145	80.21
675.336	49.49
675.527	84.31
675.717	80.21
675.908	115.03
676.099	102.74
676.289	127.32
676.48	98.64
676.671	96.6
676.861	39.25
677.052	119.12
677.243	119.12
677.433	102.74
677.624	258.39
677.814	98.64
678.005	78.16
678.195	231.76
678.386	96.6
678.576	80.21
678.767	61.78
678.957	147.8
679.148	143.7
679.338	250.19
679.529	244.05
679.719	78.16
679.909	252.24
680.1	121.17
680.29	209.23
680.481	61.78
680.671	158.03
680.861	155.99
681.052	239.95
681.242	194.9
681.432	188.75
681.622	219.47
681.813	78.16
682.003	155.99
682.193	90.45
682.383	188.75
682.573	160.08
682.764	153.94
682.954	203.09
683.144	276.82
683.334	180.56
683.524	88.4
683.714	227.67
683.904	207.19
684.094	170.32
684.284	201.04
684.474	196.95
684.664	178.51
684.854	160.08
685.044	235.86
685.234	190.8
685.424	196.95
685.614	115.03
685.804	366.93
685.994	250.19
686.184	151.89
686.374	221.52
686.564	158.03
686.753	223.57
686.943	61.78
687.133	207.19
687.323	209.23
687.513	213.33
687.702	194.9
687.892	172.37
688.082	242
688.272	250.19
688.461	258.39
688.651	379.22
688.841	248.15
689.03	35.16
689.22	180.56
689.41	221.52
689.599	213.33
689.789	184.66
689.979	317.78
690.168	84.31
690.358	213.33
690.547	145.75
690.737	221.52
690.926	170.32
691.116	221.52
691.305	301.39
691.495	225.62
691.684	110.93
691.874	90.45
692.063	170.32
692.252	186.71
692.442	198.99
692.631	166.23
692.82	125.27
693.01	239.95
693.199	258.39
693.388	201.04
693.578	215.38
693.767	121.17
693.956	221.52
694.146	102.74
694.335	207.19
694.524	147.8
694.713	309.58
694.902	158.03
695.092	145.75
695.281	285.01
695.47	160.08
695.659	205.14
695.848	153.94
696.037	129.36
696.226	205.14
696.415	188.75
696.604	203.09
696.793	293.2
696.982	147.8
697.171	315.73
697.36	164.18
697.549	166.23
697.738	43.35
697.927	160.08
698.116	121.17
698.305	285.01
698.494	127.32
698.683	121.17
698.872	317.78
699.061	190.8
699.25	201.04
699.438	295.25
699.627	119.12
699.816	305.49
700.005	121.17
700.193	160.08
700.382	256.34
700.571	162.13
700.76	291.15
700.948	158.03
701.137	158.03
701.326	223.57
701.514	168.27
701.703	166.23
701.892	174.42
702.08	368.98
702.269	168.27
702.457	94.55
702.646	209.23
702.834	207.19
703.023	190.8
703.212	184.66
703.4	205.14
703.589	176.47
703.777	147.8
703.965	196.95
704.154	127.32
704.342	123.22
704.531	147.8
704.719	123.22
704.907	328.02
705.096	72.02
705.284	92.5
705.472	149.84
705.661	270.67
705.849	176.47
706.037	194.9
706.226	184.66
706.414	178.51
706.602	63.83
706.79	231.76
706.979	129.36
707.167	143.7
707.355	63.83
707.543	196.95
707.731	178.51
707.919	158.03
708.107	153.94
708.296	65.88
708.484	188.75
708.672	213.33
708.86	221.52
709.048	209.23
709.236	133.46
709.424	170.32
709.612	266.58
709.8	104.79
709.988	160.08
710.176	192.85
710.364	293.2
710.551	188.75
710.739	225.62
710.927	139.6
711.115	141.65
711.303	198.99
711.491	248.15
711.679	198.99
711.866	233.81
712.054	158.03
712.242	225.62
712.43	237.91
712.617	172.37
712.805	248.15
712.993	139.6
713.181	135.51
713.368	182.61
713.556	155.99
713.744	178.51
713.931	315.73
714.119	188.75
714.306	164.18
714.494	115.03
714.682	198.99
714.869	180.56
715.057	121.17
715.244	76.12
715.432	203.09
715.619	106.84
715.807	137.56
715.994	176.47
716.182	201.04
716.369	176.47
716.556	155.99
716.744	63.83
716.931	117.08
717.119	145.75
717.306	250.19
717.493	248.15
717.681	201.04
717.868	110.93
718.055	198.99
718.242	164.18
718.43	219.47
718.617	299.34
718.804	184.66
718.991	190.8
719.179	178.51
719.366	285.01
719.553	115.03
719.74	217.43
719.927	145.75
720.114	229.71
720.301	115.03
720.488	74.07
720.676	69.97
720.863	317.78
721.05	303.44
721.237	198.99
721.424	334.16
721.611	291.15
721.798	72.02
721.985	158.03
722.172	250.19
722.358	170.32
722.545	323.92
722.732	231.76
722.919	319.82
723.106	276.82
723.293	162.13
723.48	239.95
723.667	96.6
723.853	285.01
724.04	260.43
724.227	272.72
724.414	125.27
724.6	237.91
724.787	348.5
724.974	291.15
725.161	219.47
725.347	201.04
725.534	217.43
725.72	233.81
725.907	293.2
726.094	244.05
726.28	221.52
726.467	188.75
726.653	172.37
726.84	342.35
727.027	270.67
727.213	188.75
727.4	252.24
727.586	285.01
727.773	237.91
727.959	276.82
728.145	252.24
728.332	201.04
728.518	135.51
728.705	289.1
728.891	242
729.077	264.53
729.264	78.16
729.45	194.9
729.636	311.63
729.823	186.71
730.009	258.39
730.195	252.24
730.382	244.05
730.568	174.42
730.754	215.38
730.94	276.82
731.126	223.57
731.313	358.74
731.499	237.91
731.685	268.63
731.871	282.96
732.057	256.34
732.243	225.62
732.429	266.58
732.615	321.87
732.801	229.71
732.987	225.62
733.173	258.39
733.359	203.09
733.545	254.29
733.731	192.85
733.917	379.22
734.103	256.34
734.289	219.47
734.475	149.84
734.661	348.5
734.847	237.91
735.033	196.95
735.219	346.45
735.404	260.43
735.59	209.23
735.776	205.14
735.962	219.47
736.148	252.24
736.333	344.4
736.519	262.48
736.705	254.29
736.89	239.95
737.076	274.77
737.262	151.89
737.447	168.27
737.633	203.09
737.819	373.07
738.004	221.52
738.19	207.19
738.375	233.81
738.561	305.49
738.747	291.15
738.932	188.75
739.118	393.55
739.303	215.38
739.489	264.53
739.674	194.9
739.859	125.27
740.045	293.2
740.23	203.09
740.416	108.88
740.601	270.67
740.786	160.08
740.972	258.39
741.157	194.9
741.342	80.21
741.528	110.93
741.713	293.2
741.898	250.19
742.084	235.86
742.269	196.95
742.454	307.54
742.639	221.52
742.824	239.95
743.01	383.31
743.195	389.46
743.38	207.19
743.565	155.99
743.75	205.14
743.935	280.91
744.12	262.48
744.305	151.89
744.49	209.23
744.675	203.09
744.86	162.13
745.045	250.19
745.23	237.91
745.415	174.42
745.6	360.78
745.785	121.17
745.97	244.05
746.155	319.82
746.34	336.21
746.525	256.34
746.71	381.26
746.895	160.08
747.079	188.75
747.264	153.94
747.449	311.63
747.634	330.06
747.819	209.23
748.003	117.08
748.188	127.32
748.373	266.58
748.557	223.57
748.742	121.17
748.927	182.61
749.111	221.52
749.296	192.85
749.481	258.39
749.665	201.04
749.85	155.99
750.034	213.33
750.219	123.22
750.404	158.03
750.588	131.41
750.773	92.5
750.957	123.22
751.141	190.8
751.326	184.66
751.51	192.85
751.695	127.32
751.879	178.51
752.064	325.97
752.248	135.51
752.432	313.68
752.617	176.47
752.801	258.39
752.985	94.55
753.17	266.58
753.354	196.95
753.538	213.33
753.722	151.89
753.907	151.89
754.091	96.6
754.275	194.9
754.459	102.74
754.643	190.8
754.828	211.28
755.012	162.13
755.196	53.59
755.38	151.89
755.564	174.42
755.748	194.9
755.932	221.52
756.116	213.33
756.3	186.71
756.484	139.6
756.668	258.39
756.852	69.97
757.036	112.98
757.22	72.02
757.404	125.27
757.588	74.07
757.772	151.89
757.956	143.7
758.14	215.38
758.323	112.98
758.507	133.46
758.691	110.93
758.875	209.23
759.059	184.66
759.242	94.55
759.426	147.8
759.61	145.75
759.794	117.08
759.977	186.71
760.161	346.45
760.345	170.32
760.528	155.99
760.712	196.95
760.895	106.84
761.079	135.51
761.263	117.08
761.446	45.4
761.63	110.93
761.813	196.95
761.997	24.92
762.18	78.16
762.364	125.27
762.547	37.2
762.731	141.65
762.914	84.31
763.098	115.03
763.281	131.41
763.464	63.83
763.648	166.23
763.831	104.79
764.015	145.75
764.198	149.84
764.381	51.54
764.564	110.93
764.748	72.02
764.931	170.32
765.114	69.97
765.297	256.34
765.481	51.54
765.664	39.25
765.847	76.12
766.03	270.67
766.213	67.92
766.397	55.64
766.58	33.11
766.763	55.64
766.946	137.56
767.129	59.73
767.312	22.87
767.495	110.93
767.678	22.87
767.861	18.77
768.044	-1.71
768.227	74.07
768.41	69.97
768.593	123.22
768.776	82.26
768.959	4.44
769.142	158.03
769.324	108.88
769.507	29.01
769.69	94.55
769.873	-24.23
770.056	180.56
770.239	94.55
770.421	160.08
770.604	166.23
770.787	29.01
770.97	78.16
771.152	22.87
771.335	145.75
771.518	-9.9
771.7	143.7
771.883	155.99
772.066	37.2
772.248	139.6
772.431	115.03
772.613	145.75
772.796	49.49
772.978	88.4
773.161	170.32
773.343	-54.95
773.526	59.73
773.708	-32.43
773.891	-16.04
774.073	26.96
774.256	78.16
774.438	162.13
774.621	94.55
774.803	49.49
774.985	69.97
775.168	92.5
775.35	76.12
775.532	112.98
775.715	-50.86
775.897	106.84
776.079	-1.71
776.261	106.84
776.444	67.92
776.626	63.83
776.808	80.21
776.99	-5.8
777.173	72.02
777.355	51.54
777.537	45.4
777.719	88.4
777.901	49.49
778.083	26.96
778.265	-71.34
778.447	41.3
778.629	41.3
778.811	112.98
778.993	69.97
779.175	55.64
779.357	69.97
779.539	22.87
779.721	49.49
779.903	88.4
780.085	82.26
780.267	72.02
780.449	51.54
780.631	49.49
780.812	65.88
780.994	24.92
781.176	94.55
781.358	10.58
781.54	96.6
781.721	102.74
781.903	158.03
782.085	41.3
782.267	123.22
782.448	-108.2
782.63	39.25
782.812	33.11
782.993	41.3
783.175	78.16
783.357	29.01
783.538	106.84
783.72	39.25
783.901	59.73
784.083	61.78
784.264	119.12
784.446	-22.19
784.627	-73.39
784.809	108.88
784.99	39.25
785.172	112.98
785.353	24.92
785.535	39.25
785.716	-9.9
785.897	-89.77
786.079	20.82
786.26	65.88
786.441	39.25
786.623	47.44
786.804	55.64
786.985	12.63
787.167	53.59
787.348	2.39
787.529	18.77
787.71	182.61
787.891	88.4
788.073	20.82
788.254	-87.72
788.435	151.89
788.616	57.68
788.797	14.68
788.978	59.73
789.159	-120.49
789.34	78.16
789.522	65.88
789.703	2.39
789.884	-48.81
790.065	39.25
790.246	125.27
790.427	-75.43
790.607	180.56
790.788	82.26
790.969	6.49
791.15	8.53
791.331	65.88
791.512	-20.14
791.693	-36.52
791.874	-28.33
792.054	160.08
792.235	84.31
792.416	-69.29
792.597	47.44
792.778	59.73
792.958	67.92
793.139	67.92
793.32	22.87
793.5	-22.19
793.681	110.93
793.862	98.64
794.042	0.34
794.223	-63.15
794.404	-13.99
794.584	-63.15
794.765	-73.39
794.945	-26.28
795.126	100.69
795.306	74.07
795.487	16.73
795.667	51.54
795.848	123.22
796.028	-20.14
796.209	16.73
796.389	16.73
796.57	53.59
796.75	-63.15
796.93	63.83
797.111	-36.52
797.291	24.92
797.471	-20.14
797.652	-5.8
797.832	33.11
798.012	47.44
798.192	-77.48
798.373	37.2
798.553	41.3
798.733	29.01
798.913	-34.47
799.093	26.96
799.274	29.01
799.454	31.06
799.634	69.97
799.814	129.36
799.994	72.02
800.174	33.11
800.354	43.35
800.534	-73.39
800.714	41.3
800.894	-42.67
801.074	-102.06
801.254	-93.87
801.434	125.27
801.614	47.44
801.794	-59.05
801.974	1988.92
802.154	-18.09
802.334	55.64
802.514	-69.29
802.693	-18.09
802.873	-20.14
803.053	123.22
803.233	33.11
803.413	-20.14
803.592	-24.23
803.772	41.3
803.952	-40.62
804.131	-138.92
804.311	31.06
804.491	90.45
804.67	-52.91
804.85	-32.43
805.03	53.59
805.209	51.54
805.389	-20.14
805.568	-26.28
805.748	-13.99
805.928	2.39
806.107	90.45
806.287	41.3
806.466	84.31
806.646	0.34
806.825	-3.75
807.004	-61.1
807.184	-24.23
807.363	45.4
807.543	47.44
807.722	-67.24
807.901	131.41
808.081	47.44
808.26	-159.4
808.439	82.26
808.619	-24.23
808.798	-36.52
808.977	63.83
809.156	88.4
809.336	63.83
809.515	26.96
809.694	-73.39
809.873	-59.05
810.052	39.25
810.231	65.88
810.411	-9.9
810.59	78.16
810.769	-38.57
810.948	94.55
811.127	-83.63
811.306	-42.67
811.485	-28.33
811.664	176.47
811.843	24.92
812.022	65.88
812.201	10.58
812.38	29.01
812.559	-40.62
812.737	-24.23
812.916	-36.52
813.095	33.11
813.274	80.21
813.453	24.92
813.632	-9.9
813.811	127.32
813.989	-1.71
814.168	39.25
814.347	-54.95
814.526	-3.75
814.704	63.83
814.883	110.93
815.062	-69.29
815.24	33.11
815.419	-73.39
815.598	18.77
815.776	-124.58
815.955	-85.67
816.133	-122.54
816.312	-7.85
816.49	-59.05
816.669	86.36
816.847	-95.91
817.026	6.49
817.204	29.01
817.383	-42.67
817.561	-91.82
817.74	135.51
817.918	74.07
818.097	-36.52
818.275	-5.8
818.453	-18.09
818.632	43.35
818.81	4.44
818.988	-30.38
819.167	26.96
819.345	-22.19
819.523	-16.04
819.701	33.11
819.879	76.12
820.058	45.4
820.236	12.63
820.414	-9.9
820.592	20.82
820.77	-38.57
820.948	57.68
821.127	0.34
821.305	-11.95
821.483	-57
821.661	80.21
821.839	59.73
822.017	-110.25
822.195	-30.38
822.373	84.31
822.551	125.27
822.729	10.58
822.907	31.06
823.085	90.45
823.262	6.49
823.44	-7.85
823.618	-18.09
823.796	18.77
823.974	31.06
824.152	-77.48
824.329	-28.33
824.507	26.96
824.685	94.55
824.863	-9.9
825.04	-42.67
825.218	100.69
825.396	6.49
825.574	37.2
825.751	59.73
825.929	-3.75
826.107	-26.28
826.284	10.58
826.462	24.92
826.639	-61.1
826.817	-63.15
826.994	-30.38
827.172	-52.91
827.349	72.02
827.527	6.49
827.704	0.34
827.882	88.4
828.059	-18.09
828.237	24.92
828.414	65.88
828.591	-134.82
828.769	-46.76
828.946	-20.14
829.124	104.79
829.301	129.36
829.478	43.35
829.655	14.68
829.833	-22.19
830.01	-114.34
830.187	57.68
830.364	-63.15
830.542	-16.04
830.719	143.7
830.896	51.54
831.073	-32.43
831.25	59.73
831.427	129.36
831.604	20.82
831.782	-48.81
831.959	69.97
832.136	20.82
832.313	29.01
832.49	-36.52
832.667	84.31
832.844	-67.24
833.021	41.3
833.198	20.82
833.374	63.83
833.551	10.58
833.728	59.73
833.905	-18.09
834.082	-13.99
834.259	96.6
834.436	119.12
834.612	-97.96
834.789	61.78
834.966	49.49
835.143	37.2
835.319	-116.39
835.496	0.34
835.673	12.63
835.85	100.69
836.026	4.44
836.203	24.92
836.38	-48.81
836.556	63.83
836.733	-11.95
836.909	86.36
837.086	-87.72
837.262	-124.58
837.439	41.3
837.616	29.01
837.792	-57
837.968	39.25
838.145	-151.21
838.321	-16.04
838.498	2.39
838.674	-22.19
838.851	18.77
839.027	-48.81
839.203	49.49
839.38	55.64
839.556	29.01
839.732	49.49
839.909	55.64
840.085	65.88
840.261	-108.2
840.437	63.83
840.614	-75.43
840.79	88.4
840.966	33.11
841.142	39.25
841.318	-79.53
841.494	-7.85
841.671	10.58
841.847	-46.76
842.023	-97.96
842.199	12.63
842.375	39.25
842.551	-95.91
842.727	-59.05
842.903	106.84
843.079	-30.38
843.255	57.68
843.431	22.87
843.607	49.49
843.783	-159.4
843.959	-22.19
844.134	16.73
844.31	123.22
844.486	-40.62
844.662	-59.05
844.838	-48.81
845.013	37.2
845.189	63.83
845.365	8.53
845.541	-22.19
845.716	-32.43
845.892	43.35
846.068	4.44
846.244	-61.1
846.419	57.68
846.595	-102.06
846.77	-44.71
846.946	80.21
847.122	-63.15
847.297	-7.85
847.473	104.79
847.648	-79.53
847.824	49.49
847.999	-48.81
848.175	47.44
848.35	96.6
848.526	127.32
848.701	76.12
848.876	110.93
849.052	88.4
849.227	-20.14
849.403	-59.05
849.578	-9.9
849.753	-59.05
849.929	47.44
850.104	-24.23
850.279	-38.57
850.454	45.4
850.63	22.87
850.805	84.31
850.98	14.68
851.155	-9.9
851.33	63.83
851.505	-52.91
851.681	160.08
851.856	-3.75
852.031	45.4
852.206	10.58
852.381	-100.01
852.556	-46.76
852.731	63.83
852.906	92.5
853.081	29.01
853.256	74.07
853.431	16.73
853.606	-11.95
853.781	-57
853.956	-59.05
854.131	26.96
854.305	-124.58
854.48	-26.28
854.655	-110.25
854.83	-7.85
855.005	-102.06
855.18	-7.85
855.354	-38.57
855.529	-13.99
855.704	-77.48
855.879	78.16
856.053	-71.34
856.228	-50.86
856.403	-59.05
856.577	69.97
856.752	-122.54
856.926	80.21
857.101	76.12
857.276	0.34
857.45	-11.95
857.625	-5.8
857.799	-38.57
857.974	45.4
858.148	-77.48
858.323	31.06
858.497	-38.57
858.672	-50.86
858.846	-79.53
859.02	49.49
859.195	-52.91
859.369	6.49
859.543	-28.33
859.718	6.49
859.892	-118.44
860.066	-34.47
860.241	-44.71
860.415	-30.38
860.589	-97.96
860.763	26.96
860.938	-36.52
861.112	41.3
861.286	-22.19
861.46	-36.52
861.634	-28.33
861.808	45.4
861.982	-1.71
862.157	-59.05
862.331	12.63
862.505	-73.39
862.679	-153.26
862.853	-26.28
863.027	-36.52
863.201	123.22
863.375	-50.86
863.549	57.68
863.722	22.87
863.896	6.49
864.07	-48.81
864.244	-18.09
864.418	51.54
864.592	16.73
864.766	-16.04
864.939	-28.33
865.113	6.49
865.287	63.83
865.461	-44.71
865.634	14.68
865.808	-22.19
865.982	2.39
866.156	-65.19
866.329	-20.14
866.503	-16.04
866.676	14.68
866.85	16.73
867.024	-44.71
867.197	63.83
867.371	0.34
867.544	-9.9
867.718	-163.5
867.891	84.31
868.065	-104.11
868.238	10.58
868.412	90.45
868.585	33.11
868.759	-50.86
868.932	-40.62
869.105	-75.43
869.279	33.11
869.452	-108.2
869.625	35.16
869.799	-18.09
869.972	-87.72
870.145	-3.75
870.319	112.98
870.492	-54.95
870.665	-44.71
870.838	-22.19
871.011	-114.34
871.185	0.34
871.358	-3.75
871.531	39.25
871.704	18.77
871.877	12.63
872.05	-67.24
872.223	-108.2
872.396	94.55
872.569	31.06
872.742	-65.19
872.915	-26.28
873.088	-124.58
873.261	-26.28
873.434	33.11
873.607	12.63
873.78	127.32
873.953	-77.48
874.126	-83.63
874.299	90.45
874.471	-3.75
874.644	-1.71
874.817	51.54
874.99	110.93
875.163	-40.62
875.335	65.88
875.508	2.39
875.681	-7.85
875.853	-77.48
876.026	-7.85
876.199	69.97
876.371	-26.28
876.544	-24.23
876.717	24.92
876.889	65.88
877.062	-13.99
877.234	-69.29
877.407	-46.76
877.579	31.06
877.752	16.73
877.924	8.53
878.097	18.77
878.269	12.63
878.442	-5.8
878.614	59.73
878.786	26.96
878.959	-59.05
879.131	37.2
879.303	-102.06
879.476	-38.57
879.648	90.45
879.82	59.73
879.993	-48.81
880.165	-38.57
880.337	-32.43
880.509	22.87
880.681	-36.52
880.854	-63.15
881.026	74.07
881.198	207.19
881.37	-32.43
881.542	-1.71
881.714	-24.23
881.886	18.77
882.058	-20.14
882.23	2.39
882.402	33.11
882.574	-16.04
882.746	80.21
882.918	90.45
883.09	106.84
883.262	-9.9
883.434	20.82
883.606	-59.05
883.778	-57
883.95	160.08
884.122	-9.9
884.293	63.83
884.465	47.44
884.637	72.02
884.809	18.77
884.98	63.83
885.152	-13.99
885.324	117.08
885.496	-20.14
885.667	-34.47
885.839	-50.86
886.011	100.69
886.182	43.35
886.354	45.4
886.525	-5.8
886.697	8.53
886.869	-46.76
887.04	-26.28
887.212	26.96
887.383	166.23
887.555	-40.62
887.726	-46.76
887.897	-5.8
888.069	29.01
888.24	69.97
888.412	24.92
888.583	-75.43
888.754	-34.47
888.926	-52.91
889.097	-34.47
889.268	-32.43
889.44	49.49
889.611	-73.39
889.782	-85.67
889.953	-52.91
890.125	61.78
890.296	-59.05
890.467	10.58
890.638	-9.9
890.809	-18.09
890.98	-46.76
891.151	39.25
891.323	39.25
891.494	16.73
891.665	12.63
891.836	6.49
892.007	-32.43
892.178	6.49
892.349	39.25
892.52	-52.91
892.691	8.53
892.862	-7.85
893.032	-128.68
893.203	24.92
893.374	49.49
893.545	22.87
893.716	-28.33
893.887	141.65
894.057	-67.24
894.228	43.35
894.399	-61.1
894.57	2.39
894.74	-54.95
894.911	45.4
895.082	-38.57
895.253	0.34
895.423	26.96
895.594	74.07
895.764	-3.75
895.935	-81.58
896.106	45.4
896.276	-40.62
896.447	-7.85
896.617	-48.81
896.788	-22.19
896.958	14.68
897.129	-26.28
897.299	-59.05
897.47	102.74
897.64	74.07
897.81	-1.71
897.981	49.49
898.151	-120.49
898.322	78.16
898.492	78.16
898.662	-95.91
898.832	-65.19
899.003	-108.2
899.173	57.68
899.343	-87.72
899.513	-20.14
