Data from USB4F104151__117__10-46-04-559.txt Node

Date: Wed Feb 26 10:46:04 EST 2025
User: louis
Spectrometer: USB4F10415
Trigger mode: 4
Integration Time (sec): 1.000000E-1
Scans to average: 1
Electric dark correction enabled: true
Nonlinearity correction enabled: false
Boxcar width: 0
XAxis mode: Wavelengths
Number of Pixels in Spectrum: 3648
>>>>>Begin Spectral Data<<<<<
178.204	-429.56
178.424	-429.56
178.644	-429.56
178.864	-437.75
179.084	-349.69
179.304	-9.73
179.524	-1.54
179.744	8.7
179.964	61.95
180.184	-15.87
180.404	-22.02
180.624	-5.63
180.844	-13.82
181.064	-44.54
181.283	84.48
181.503	-40.45
181.723	-1.54
181.943	-181.76
182.163	195.07
182.383	-5.63
182.602	59.9
182.822	133.63
183.042	100.86
183.262	-17.92
183.482	49.66
183.701	78.33
183.921	25.09
184.141	-50.69
184.361	107.01
184.58	43.52
184.8	-52.74
185.02	-13.82
185.239	31.23
185.459	72.19
185.679	104.96
185.898	-126.46
186.118	76.29
186.338	64
186.557	96.77
186.777	-65.02
186.997	57.86
187.216	51.71
187.436	145.92
187.655	88.57
187.875	119.29
188.095	33.28
188.314	59.9
188.534	133.63
188.753	27.14
188.973	117.25
189.192	207.36
189.412	33.28
189.631	20.99
189.851	0.51
190.07	209.4
190.29	-38.4
190.509	-36.35
190.729	29.18
190.948	166.4
191.168	225.79
191.387	49.66
191.607	-15.87
191.826	53.76
192.045	92.67
192.265	47.62
192.484	80.38
192.704	45.57
192.923	-114.17
193.142	213.5
193.362	78.33
193.581	133.63
193.8	61.95
194.02	141.82
194.239	66.05
194.458	55.81
194.678	29.18
194.897	-3.58
195.116	78.33
195.335	18.94
195.555	-15.87
195.774	-22.02
195.993	111.1
196.212	43.52
196.432	14.85
196.651	-22.02
196.87	70.14
197.089	270.84
197.308	53.76
197.528	90.62
197.747	25.09
197.966	113.15
198.185	39.42
198.404	-79.36
198.623	100.86
198.842	184.83
199.062	172.54
199.281	70.14
199.5	51.71
199.719	193.02
199.938	0.51
200.157	57.86
200.376	102.91
200.595	125.44
200.814	64
201.033	51.71
201.252	94.72
201.471	23.04
201.69	84.48
201.909	23.04
202.128	162.3
202.347	125.44
202.566	98.81
202.785	-116.22
203.004	31.23
203.223	221.69
203.442	14.85
203.661	27.14
203.879	82.43
204.098	119.29
204.317	-60.93
204.536	139.77
204.755	18.94
204.974	94.72
205.193	-60.93
205.411	193.02
205.63	76.29
205.849	57.86
206.068	-3.58
206.287	-42.5
206.505	49.66
206.724	86.53
206.943	-48.64
207.162	-40.45
207.381	55.81
207.599	45.57
207.818	68.09
208.037	-46.59
208.255	92.67
208.474	14.85
208.693	55.81
208.911	14.85
209.13	14.85
209.349	37.38
209.567	70.14
209.786	74.24
210.005	47.62
210.223	119.29
210.442	-81.41
210.661	53.76
210.879	111.1
211.098	37.38
211.316	-9.73
211.535	84.48
211.753	41.47
211.972	94.72
212.191	-17.92
212.409	43.52
212.628	78.33
212.846	-15.87
213.065	119.29
213.283	174.59
213.502	55.81
213.72	78.33
213.938	-30.21
214.157	61.95
214.375	92.67
214.594	80.38
214.812	123.39
215.031	-19.97
215.249	2.56
215.467	133.63
215.686	84.48
215.904	72.19
216.122	98.81
216.341	121.34
216.559	0.51
216.778	102.91
216.996	164.35
217.214	-1.54
217.432	39.42
217.651	-54.78
217.869	-11.78
218.087	66.05
218.306	61.95
218.524	57.86
218.742	-1.54
218.96	174.59
219.179	-9.73
219.397	76.29
219.615	207.36
219.833	55.81
220.051	4.61
220.27	82.43
220.488	80.38
220.706	23.04
220.924	-15.87
221.142	27.14
221.36	10.75
221.578	35.33
221.796	59.9
222.015	-48.64
222.233	-38.4
222.451	195.07
222.669	23.04
222.887	113.15
223.105	0.51
223.323	-58.88
223.541	6.66
223.759	115.2
223.977	4.61
224.195	170.49
224.413	57.86
224.631	86.53
224.849	31.23
225.067	211.45
225.285	39.42
225.503	43.52
225.721	-95.74
225.939	-1.54
226.157	123.39
226.375	188.93
226.592	14.85
226.81	-30.21
227.028	119.29
227.246	162.3
227.464	-1.54
227.682	70.14
227.9	6.66
228.117	64
228.335	129.53
228.553	53.76
228.771	39.42
228.989	70.14
229.206	133.63
229.424	-58.88
229.642	90.62
229.86	6.66
230.077	92.67
230.295	82.43
230.513	150.01
230.731	49.66
230.948	276.99
231.166	195.07
231.384	-11.78
231.601	-87.55
231.819	219.64
232.037	-19.97
232.254	-58.88
232.472	64
232.689	31.23
232.907	168.45
233.125	27.14
233.342	-9.73
233.56	-52.74
233.777	18.94
233.995	-9.73
234.213	14.85
234.43	121.34
234.648	-1.54
234.865	4.61
235.083	-1.54
235.3	66.05
235.518	115.2
235.735	150.01
235.953	53.76
236.17	51.71
236.388	-13.82
236.605	78.33
236.822	111.1
237.04	133.63
237.257	119.29
237.475	0.51
237.692	-3.58
237.909	18.94
238.127	-17.92
238.344	84.48
238.562	25.09
238.779	-22.02
238.996	43.52
239.214	14.85
239.431	119.29
239.648	33.28
239.865	84.48
240.083	70.14
240.3	-19.97
240.517	-13.82
240.735	41.47
240.952	123.39
241.169	84.48
241.386	84.48
241.603	68.09
241.821	-42.5
242.038	86.53
242.255	115.2
242.472	-9.73
242.689	90.62
242.907	119.29
243.124	-9.73
243.341	96.77
243.558	-13.82
243.775	-65.02
243.992	6.66
244.209	49.66
244.426	158.21
244.643	88.57
244.86	39.42
245.078	150.01
245.295	25.09
245.512	39.42
245.729	27.14
245.946	82.43
246.163	55.81
246.38	68.09
246.597	88.57
246.814	29.18
247.031	72.19
247.248	51.71
247.464	96.77
247.681	-34.3
247.898	88.57
248.115	96.77
248.332	-58.88
248.549	178.69
248.766	260.6
248.983	66.05
249.2	111.1
249.417	64
249.633	-71.17
249.85	33.28
250.067	-87.55
250.284	51.71
250.501	23.04
250.717	84.48
250.934	4.61
251.151	78.33
251.368	-30.21
251.585	115.2
251.801	-22.02
252.018	10.75
252.235	64
252.451	-60.93
252.668	-5.63
252.885	96.77
253.102	10.75
253.318	-34.3
253.535	25.09
253.752	-77.31
253.968	-65.02
254.185	-46.59
254.401	92.67
254.618	64
254.835	-3.58
255.051	115.2
255.268	152.06
255.484	16.9
255.701	49.66
255.917	80.38
256.134	-30.21
256.351	-11.78
256.567	-81.41
256.784	8.7
257	-13.82
257.217	139.77
257.433	131.58
257.65	23.04
257.866	154.11
258.082	-73.21
258.299	-24.06
258.515	23.04
258.732	4.61
258.948	-36.35
259.165	31.23
259.381	-79.36
259.597	109.05
259.814	64
260.03	-36.35
260.246	-26.11
260.463	117.25
260.679	98.81
260.895	53.76
261.112	16.9
261.328	14.85
261.544	-48.64
261.761	125.44
261.977	29.18
262.193	-1.54
262.409	184.83
262.626	37.38
262.842	131.58
263.058	53.76
263.274	113.15
263.49	-22.02
263.707	72.19
263.923	92.67
264.139	14.85
264.355	64
264.571	88.57
264.787	88.57
265.004	109.05
265.22	74.24
265.436	-65.02
265.652	-26.11
265.868	37.38
266.084	2.56
266.3	18.94
266.516	-30.21
266.732	14.85
266.948	35.33
267.164	88.57
267.38	141.82
267.596	49.66
267.812	139.77
268.028	-28.16
268.244	-17.92
268.46	68.09
268.676	14.85
268.892	47.62
269.108	41.47
269.324	2.56
269.54	-32.26
269.756	-34.3
269.972	12.8
270.188	-22.02
270.403	-67.07
270.619	55.81
270.835	33.28
271.051	61.95
271.267	-69.12
271.483	12.8
271.698	61.95
271.914	59.9
272.13	45.57
272.346	31.23
272.562	47.62
272.777	143.87
272.993	39.42
273.209	-22.02
273.425	98.81
273.64	57.86
273.856	109.05
274.072	-17.92
274.287	-26.11
274.503	86.53
274.719	168.45
274.934	47.62
275.15	4.61
275.366	59.9
275.581	68.09
275.797	25.09
276.012	8.7
276.228	-26.11
276.444	68.09
276.659	129.53
276.875	-3.58
277.09	12.8
277.306	23.04
277.521	104.96
277.737	-3.58
277.952	141.82
278.168	55.81
278.383	96.77
278.599	2.56
278.814	104.96
279.03	-5.63
279.245	127.49
279.461	100.86
279.676	111.1
279.892	-44.54
280.107	-44.54
280.322	-30.21
280.538	18.94
280.753	-11.78
280.969	64
281.184	74.24
281.399	137.73
281.615	57.86
281.83	127.49
282.045	-44.54
282.26	33.28
282.476	14.85
282.691	145.92
282.906	80.38
283.122	51.71
283.337	-1.54
283.552	51.71
283.767	2.56
283.983	92.67
284.198	-3.58
284.413	41.47
284.628	-73.21
284.843	86.53
285.058	49.66
285.274	31.23
285.489	-58.88
285.704	45.57
285.919	-32.26
286.134	-26.11
286.349	8.7
286.564	-34.3
286.779	170.49
286.995	74.24
287.21	-120.32
287.425	70.14
287.64	29.18
287.855	29.18
288.07	-46.59
288.285	111.1
288.5	164.35
288.715	-30.21
288.93	8.7
289.145	12.8
289.36	66.05
289.575	-17.92
289.79	90.62
290.004	0.51
290.219	72.19
290.434	25.09
290.649	6.66
290.864	72.19
291.079	59.9
291.294	47.62
291.509	49.66
291.724	8.7
291.938	-13.82
292.153	41.47
292.368	10.75
292.583	49.66
292.798	92.67
293.012	145.92
293.227	-1.54
293.442	-11.78
293.657	90.62
293.871	164.35
294.086	29.18
294.301	246.27
294.516	84.48
294.73	64
294.945	-13.82
295.16	31.23
295.374	150.01
295.589	98.81
295.804	2.56
296.018	115.2
296.233	145.92
296.447	76.29
296.662	-46.59
296.877	123.39
297.091	57.86
297.306	-3.58
297.52	29.18
297.735	-3.58
297.949	37.38
298.164	59.9
298.378	107.01
298.593	29.18
298.807	8.7
299.022	-7.68
299.236	92.67
299.451	41.47
299.665	68.09
299.88	88.57
300.094	8.7
300.309	76.29
300.523	20.99
300.737	88.57
300.952	45.57
301.166	145.92
301.381	-38.4
301.595	25.09
301.809	10.75
302.024	47.62
302.238	-44.54
302.452	111.1
302.667	102.91
302.881	184.83
303.095	72.19
303.309	61.95
303.524	0.51
303.738	29.18
303.952	-32.26
304.166	84.48
304.381	-65.02
304.595	174.59
304.809	25.09
305.023	41.47
305.237	59.9
305.452	14.85
305.666	107.01
305.88	55.81
306.094	49.66
306.308	20.99
306.522	64
306.736	76.29
306.95	90.62
307.164	6.66
307.379	-11.78
307.593	143.87
307.807	158.21
308.021	166.4
308.235	100.86
308.449	-48.64
308.663	39.42
308.877	168.45
309.091	59.9
309.305	86.53
309.519	-136.7
309.733	115.2
309.947	-60.93
310.161	66.05
310.374	47.62
310.588	145.92
310.802	49.66
311.016	-50.69
311.23	72.19
311.444	-11.78
311.658	78.33
311.872	61.95
312.085	154.11
312.299	143.87
312.513	129.53
312.727	74.24
312.941	4.61
313.154	55.81
313.368	55.81
313.582	-32.26
313.796	64
314.009	-19.97
314.223	117.25
314.437	82.43
314.651	100.86
314.864	-19.97
315.078	39.42
315.292	-89.6
315.505	66.05
315.719	88.57
315.933	53.76
316.146	-15.87
316.36	107.01
316.573	121.34
316.787	137.73
317.001	64
317.214	-24.06
317.428	23.04
317.641	-73.21
317.855	57.86
318.068	25.09
318.282	29.18
318.495	195.07
318.709	160.25
318.922	-24.06
319.136	139.77
319.349	164.35
319.563	2.56
319.776	139.77
319.99	-46.59
320.203	41.47
320.417	70.14
320.63	84.48
320.843	176.64
321.057	166.4
321.27	2.56
321.483	80.38
321.697	115.2
321.91	109.05
322.124	133.63
322.337	59.9
322.55	-13.82
322.763	98.81
322.977	-60.93
323.19	12.8
323.403	47.62
323.617	35.33
323.83	80.38
324.043	55.81
324.256	59.9
324.469	-44.54
324.683	16.9
324.896	-7.68
325.109	119.29
325.322	-32.26
325.535	72.19
325.748	115.2
325.962	-15.87
326.175	61.95
326.388	39.42
326.601	154.11
326.814	-17.92
327.027	39.42
327.24	145.92
327.453	-19.97
327.666	55.81
327.879	160.25
328.092	82.43
328.305	82.43
328.518	43.52
328.731	-40.45
328.944	35.33
329.157	61.95
329.37	4.61
329.583	201.21
329.796	49.66
330.009	-54.78
330.222	51.71
330.435	57.86
330.648	-5.63
330.861	53.76
331.073	113.15
331.286	135.68
331.499	70.14
331.712	96.77
331.925	78.33
332.138	119.29
332.35	102.91
332.563	25.09
332.776	127.49
332.989	16.9
333.202	45.57
333.414	35.33
333.627	64
333.84	31.23
334.053	80.38
334.265	66.05
334.478	61.95
334.691	41.47
334.903	53.76
335.116	23.04
335.329	57.86
335.541	78.33
335.754	223.74
335.966	41.47
336.179	23.04
336.392	33.28
336.604	2.56
336.817	90.62
337.029	115.2
337.242	57.86
337.454	88.57
337.667	109.05
337.88	133.63
338.092	92.67
338.305	72.19
338.517	61.95
338.729	55.81
338.942	135.68
339.154	-38.4
339.367	-58.88
339.579	160.25
339.792	-36.35
340.004	61.95
340.217	0.51
340.429	23.04
340.641	6.66
340.854	25.09
341.066	41.47
341.278	16.9
341.491	188.93
341.703	43.52
341.915	-17.92
342.128	152.06
342.34	84.48
342.552	-13.82
342.764	16.9
342.977	6.66
343.189	68.09
343.401	43.52
343.613	-56.83
343.826	31.23
344.038	0.51
344.25	45.57
344.462	10.75
344.674	76.29
344.886	100.86
345.099	51.71
345.311	111.1
345.523	20.99
345.735	-15.87
345.947	80.38
346.159	-9.73
346.371	70.14
346.583	-17.92
346.795	322.04
347.007	53.76
347.219	31.23
347.431	-52.74
347.643	57.86
347.855	12.8
348.067	152.06
348.279	-40.45
348.491	4.61
348.703	88.57
348.915	55.81
349.127	-26.11
349.339	-9.73
349.551	12.8
349.763	109.05
349.975	-3.58
350.187	168.45
350.399	190.97
350.61	123.39
350.822	133.63
351.034	8.7
351.246	121.34
351.458	96.77
351.669	107.01
351.881	119.29
352.093	111.1
352.305	113.15
352.517	49.66
352.728	88.57
352.94	82.43
353.152	90.62
353.363	-87.55
353.575	37.38
353.787	131.58
353.999	31.23
354.21	152.06
354.422	-91.65
354.633	51.71
354.845	59.9
355.057	55.81
355.268	125.44
355.48	180.73
355.692	0.51
355.903	72.19
356.115	64
356.326	-62.98
356.538	172.54
356.749	113.15
356.961	139.77
357.172	121.34
357.384	-34.3
357.595	219.64
357.807	-97.79
358.018	-3.58
358.23	49.66
358.441	180.73
358.653	88.57
358.864	41.47
359.075	43.52
359.287	100.86
359.498	51.71
359.709	57.86
359.921	-3.58
360.132	84.48
360.344	8.7
360.555	37.38
360.766	14.85
360.977	12.8
361.189	45.57
361.4	29.18
361.611	102.91
361.823	90.62
362.034	31.23
362.245	-79.36
362.456	18.94
362.667	137.73
362.879	2.56
363.09	107.01
363.301	86.53
363.512	78.33
363.723	43.52
363.935	6.66
364.146	129.53
364.357	41.47
364.568	41.47
364.779	35.33
364.99	18.94
365.201	64
365.412	137.73
365.623	-17.92
365.834	102.91
366.045	92.67
366.256	39.42
366.467	49.66
366.678	-28.16
366.889	-7.68
367.1	-3.58
367.311	168.45
367.522	-5.63
367.733	23.04
367.944	115.2
368.155	25.09
368.366	25.09
368.577	27.14
368.788	168.45
368.999	-5.63
369.209	66.05
369.42	186.88
369.631	285.18
369.842	94.72
370.053	39.42
370.264	98.81
370.474	35.33
370.685	14.85
370.896	8.7
371.107	147.97
371.317	123.39
371.528	90.62
371.739	123.39
371.95	35.33
372.16	137.73
372.371	-65.02
372.582	29.18
372.792	88.57
373.003	74.24
373.214	115.2
373.424	68.09
373.635	-32.26
373.846	180.73
374.056	25.09
374.267	74.24
374.477	45.57
374.688	27.14
374.898	94.72
375.109	35.33
375.319	59.9
375.53	127.49
375.74	88.57
375.951	20.99
376.161	49.66
376.372	141.82
376.582	53.76
376.793	84.48
377.003	-48.64
377.214	-42.5
377.424	111.1
377.635	-7.68
377.845	33.28
378.055	94.72
378.266	-97.79
378.476	82.43
378.686	55.81
378.897	80.38
379.107	98.81
379.317	33.28
379.528	10.75
379.738	104.96
379.948	-5.63
380.158	195.07
380.369	18.94
380.579	96.77
380.789	20.99
380.999	59.9
381.21	25.09
381.42	141.82
381.63	-5.63
381.84	160.25
382.05	145.92
382.261	125.44
382.471	150.01
382.681	8.7
382.891	115.2
383.101	37.38
383.311	-26.11
383.521	12.8
383.731	84.48
383.941	107.01
384.151	211.45
384.361	43.52
384.571	90.62
384.781	70.14
384.991	195.07
385.201	203.26
385.411	137.73
385.621	104.96
385.831	139.77
386.041	76.29
386.251	70.14
386.461	90.62
386.671	55.81
386.881	41.47
387.091	104.96
387.301	115.2
387.511	37.38
387.72	86.53
387.93	147.97
388.14	-9.73
388.35	-26.11
388.56	109.05
388.769	98.81
388.979	-17.92
389.189	59.9
389.399	33.28
389.609	102.91
389.818	113.15
390.028	16.9
390.238	102.91
390.447	33.28
390.657	86.53
390.867	18.94
391.076	-30.21
391.286	94.72
391.496	25.09
391.705	-5.63
391.915	223.74
392.125	104.96
392.334	10.75
392.544	104.96
392.753	111.1
392.963	0.51
393.172	33.28
393.382	-58.88
393.591	262.65
393.801	-17.92
394.01	102.91
394.22	145.92
394.429	4.61
394.639	64
394.848	172.54
395.058	160.25
395.267	-7.68
395.477	55.81
395.686	88.57
395.895	244.22
396.105	186.88
396.314	14.85
396.524	94.72
396.733	35.33
396.942	70.14
397.152	51.71
397.361	150.01
397.57	59.9
397.78	-22.02
397.989	115.2
398.198	248.32
398.407	74.24
398.617	84.48
398.826	-26.11
399.035	59.9
399.244	141.82
399.453	102.91
399.663	121.34
399.872	49.66
400.081	-83.45
400.29	186.88
400.499	-30.21
400.708	158.21
400.917	45.57
401.127	64
401.336	-17.92
401.545	152.06
401.754	152.06
401.963	170.49
402.172	74.24
402.381	-85.5
402.59	2.56
402.799	25.09
403.008	143.87
403.217	27.14
403.426	35.33
403.635	-48.64
403.844	72.19
404.053	82.43
404.262	23.04
404.471	147.97
404.68	45.57
404.888	61.95
405.097	41.47
405.306	104.96
405.515	51.71
405.724	121.34
405.933	109.05
406.142	70.14
406.35	100.86
406.559	61.95
406.768	88.57
406.977	158.21
407.185	92.67
407.394	111.1
407.603	18.94
407.812	29.18
408.02	186.88
408.229	53.76
408.438	98.81
408.646	-5.63
408.855	29.18
409.064	72.19
409.272	-19.97
409.481	98.81
409.69	29.18
409.898	49.66
410.107	45.57
410.315	168.45
410.524	4.61
410.733	27.14
410.941	57.86
411.15	125.44
411.358	117.25
411.567	154.11
411.775	88.57
411.984	61.95
412.192	84.48
412.401	27.14
412.609	213.5
412.818	129.53
413.026	66.05
413.234	0.51
413.443	2.56
413.651	-13.82
413.86	59.9
414.068	129.53
414.276	172.54
414.485	-7.68
414.693	133.63
414.901	193.02
415.11	92.67
415.318	12.8
415.526	104.96
415.734	160.25
415.943	82.43
416.151	158.21
416.359	80.38
416.567	64
416.776	160.25
416.984	92.67
417.192	182.78
417.4	84.48
417.608	29.18
417.817	31.23
418.025	135.68
418.233	129.53
418.441	90.62
418.649	29.18
418.857	47.62
419.065	141.82
419.273	6.66
419.481	70.14
419.689	86.53
419.897	59.9
420.105	-30.21
420.313	145.92
420.521	203.26
420.729	143.87
420.937	43.52
421.145	-40.45
421.353	115.2
421.561	172.54
421.769	94.72
421.977	-36.35
422.185	145.92
422.393	92.67
422.601	76.29
422.809	92.67
423.017	133.63
423.224	117.25
423.432	125.44
423.64	78.33
423.848	127.49
424.056	59.9
424.263	160.25
424.471	49.66
424.679	223.74
424.887	8.7
425.094	164.35
425.302	121.34
425.51	14.85
425.718	178.69
425.925	104.96
426.133	51.71
426.341	207.36
426.548	119.29
426.756	59.9
426.964	160.25
427.171	-1.54
427.379	94.72
427.586	129.53
427.794	70.14
428.001	188.93
428.209	152.06
428.417	188.93
428.624	147.97
428.832	131.58
429.039	184.83
429.247	160.25
429.454	229.88
429.662	283.13
429.869	209.4
430.076	143.87
430.284	158.21
430.491	180.73
430.699	268.8
430.906	287.23
431.114	186.88
431.321	166.4
431.528	145.92
431.736	207.36
431.943	195.07
432.15	252.41
432.358	211.45
432.565	221.69
432.772	59.9
432.979	287.23
433.187	96.77
433.394	262.65
433.601	252.41
433.808	283.13
434.016	289.28
434.223	342.52
434.43	199.16
434.637	365.05
434.844	320
435.052	254.46
435.259	387.58
435.466	313.85
435.673	268.8
435.88	328.19
436.087	383.48
436.294	477.69
436.501	414.2
436.708	346.62
436.915	315.9
437.122	399.87
437.329	332.28
437.537	469.5
437.743	479.74
437.95	571.9
438.157	436.73
438.364	426.49
438.571	498.17
438.778	569.85
438.985	567.8
439.192	666.1
439.399	504.31
439.606	580.09
439.813	582.14
440.02	821.75
440.227	854.51
440.433	725.49
440.64	672.25
440.847	717.3
441.054	862.71
441.261	803.32
441.467	760.31
441.674	821.75
441.881	879.09
442.088	858.61
442.294	958.96
442.501	979.44
442.708	1038.83
442.914	1032.69
443.121	1184.24
443.328	1149.42
443.534	1251.82
443.741	1174
443.948	1128.94
444.154	1204.72
444.361	1493.48
444.568	1354.22
444.774	1427.95
444.981	1266.16
445.187	1481.19
445.394	1516.01
445.6	1530.34
445.807	1710.57
446.013	1671.65
446.22	1665.51
446.426	1792.48
446.633	1874.4
446.839	2169.31
447.046	1929.7
447.252	2105.82
447.459	2028
447.665	2064.86
447.871	2316.76
448.078	2589.14
448.284	2443.74
448.491	2636.25
448.697	2789.85
448.903	2826.71
449.11	2859.48
449.316	2814.42
449.522	3082.7
449.728	3250.64
449.935	3224.01
450.141	3402.19
450.347	3545.55
450.553	3621.32
450.76	3592.65
450.966	3834.31
451.172	3977.67
451.378	4258.24
451.584	4250.05
451.791	4456.89
451.997	4590.01
452.203	4805.05
452.409	4981.17
452.615	5034.42
452.821	4983.22
453.027	5044.66
453.233	5613.99
453.44	5747.11
453.646	5937.57
453.852	6107.55
454.058	6230.43
454.264	6547.87
454.47	6818.2
454.676	7102.87
454.882	7510.41
455.088	7336.34
455.294	7614.86
455.5	8024.45
455.705	8638.84
455.911	8685.95
456.117	8872.31
456.323	9079.16
456.529	9312.63
456.735	9906.54
456.941	10199.4
457.147	10623.33
457.352	10871.13
457.558	11225.43
457.764	11921.74
457.97	12153.16
458.176	12669.25
458.381	13420.85
458.587	13513.01
458.793	14203.18
458.999	14434.6
459.204	16003.34
459.41	16582.91
459.616	16179.47
459.821	17242.36
460.027	17967.34
460.233	18897.12
460.438	18874.59
460.644	20037.84
460.85	20089.04
461.055	21078.21
461.261	22073.52
461.466	21725.36
461.672	21909.68
461.878	24436.88
462.083	24244.37
462.289	24795.27
462.494	25905.27
462.7	26046.58
462.905	26400.88
463.111	28293.2
463.316	29751.35
463.522	30187.57
463.727	31594.53
463.932	32606.22
464.138	33433.6
464.343	35162.09
464.549	35467.23
464.754	37576.64
464.959	38612.91
465.165	39088.04
465.37	38768.56
465.575	38709.17
465.781	41420.68
465.986	42504.06
466.191	42131.33
466.397	42596.21
466.602	41240.46
466.807	43755.36
467.012	44599.13
467.218	45221.71
467.423	45055.82
467.628	46346.04
467.833	48518.94
468.038	47834.92
468.244	47044.4
468.449	49694.47
468.654	48215.84
468.859	48271.14
469.064	48293.66
469.269	47175.47
469.474	47652.65
469.679	48979.73
469.885	47474.48
470.09	48377.63
470.295	48361.25
470.5	47480.62
470.705	47859.49
470.91	46556.99
471.115	46026.56
471.32	46395.2
471.525	46546.75
471.73	44924.75
471.935	45047.63
472.139	43284.33
472.344	43485.03
472.549	43186.03
472.754	42088.32
472.959	41000.85
473.164	40171.42
473.369	39163.82
473.574	40525.72
473.778	39657.38
473.983	38981.55
474.188	38305.72
474.393	36798.41
474.598	36413.4
474.802	35168.23
475.007	35258.34
475.212	34920.43
475.417	33828.86
475.621	33318.92
475.826	33032.2
476.031	32151.57
476.235	31512.61
476.44	31664.16
476.645	30552.11
476.849	30306.35
477.054	29519.93
477.259	29157.44
477.463	29173.83
477.668	28233.81
477.872	28133.46
478.077	27531.36
478.282	26656.87
478.486	26538.09
478.691	26030.19
478.895	25981.04
479.1	25843.83
479.304	25649.27
479.509	24694.92
479.713	25200.77
479.918	24729.73
480.122	24109.2
480.326	24469.64
480.531	24172.69
480.735	23861.4
480.94	23525.53
481.144	24316.04
481.348	22980.77
481.553	23148.7
481.757	22280.36
481.961	22790.31
482.166	22968.48
482.37	22474.92
482.574	21754.04
482.778	21969.07
482.983	22104.24
483.187	21870.77
483.391	21889.2
483.595	21577.91
483.8	20842.69
484.004	21078.21
484.208	21211.32
484.412	20879.55
484.616	20539.59
484.821	20177.1
485.025	19661.01
485.229	19769.55
485.433	19310.81
485.637	19456.22
485.841	18938.08
486.045	18688.23
486.249	18669.8
486.453	18073.84
486.657	17996.01
486.861	17656.05
487.065	17156.35
487.269	17039.61
487.473	16632.07
487.677	16939.26
487.881	16920.83
488.085	16277.77
488.289	15825.17
488.493	15618.32
488.697	15712.53
488.901	15040.79
489.105	14797.09
489.309	14596.39
489.512	14258.47
489.716	14104.87
489.92	13697.33
490.124	13734.19
490.328	13568.3
490.531	13201.72
490.735	13039.93
490.939	12855.61
491.143	12427.59
491.346	12153.16
491.55	12099.91
491.754	11958.6
491.958	11651.41
492.161	11583.82
492.365	11542.86
492.569	11176.28
492.772	10979.67
492.976	11098.45
493.18	10832.22
493.383	10717.53
493.587	10391.91
493.79	10615.13
493.994	9978.22
494.197	10033.51
494.401	10072.42
494.605	9943.4
494.808	9984.36
495.012	9683.31
495.215	9707.88
495.419	9494.9
495.622	9376.11
495.825	9572.72
496.029	9408.88
496.232	9513.33
496.436	9376.11
496.639	9486.7
496.843	9462.13
497.046	9376.11
497.249	9462.13
497.453	9316.72
497.656	9345.39
497.859	9208.18
498.063	9484.66
498.266	9517.42
498.469	9384.3
498.673	9210.23
498.876	9474.42
499.079	9611.63
499.282	9279.86
499.485	9857.39
499.689	9640.3
499.892	9861.48
500.095	9789.8
500.298	9787.75
500.501	9707.88
500.705	10025.32
500.908	9906.54
501.111	10070.37
501.314	10092.9
501.517	10447.2
501.72	10439.01
501.923	10326.37
502.126	10539.36
502.329	10551.65
502.532	11071.83
502.735	11004.25
502.938	11090.26
503.141	11032.92
503.344	11383.12
503.547	11503.95
503.75	11569.49
503.953	11592.02
504.156	11907.4
504.359	12028.23
504.562	12198.21
504.765	12362.05
504.968	12728.64
505.17	12681.53
505.373	12831.04
505.576	13197.62
505.779	13400.37
505.982	13314.36
506.185	13734.19
506.387	13771.05
506.59	14215.46
506.793	14534.95
506.996	14893.34
507.198	15200.54
507.401	15208.73
507.604	15411.48
507.807	16056.59
508.009	16242.95
508.212	16441.61
508.415	16888.06
508.617	17111.29
508.82	17355
509.022	17475.83
509.225	18428.13
509.428	18548.96
509.63	18991.33
509.833	19130.59
510.035	19957.97
510.238	19802.32
510.44	20656.32
510.643	21237.95
510.845	21524.66
511.048	21725.36
511.25	22464.68
511.453	22853.8
511.655	24068.24
511.858	23842.96
512.06	24539.27
512.262	24774.79
512.465	25077.89
512.667	26136.69
512.87	26544.23
513.072	27344.99
513.274	27867.22
513.477	28397.65
513.679	29225.03
513.881	29800.51
514.084	30187.57
514.286	31023.14
514.488	31397.92
514.69	32583.69
514.893	33171.46
515.095	33638.4
515.297	34199.54
515.499	34650.1
515.701	35686.37
515.904	36704.21
516.106	37500.87
516.308	38076.35
516.51	38975.41
516.712	39401.38
516.914	39790.5
517.116	41318.28
517.318	41408.39
517.52	42549.11
517.722	42788.72
517.925	44150.62
518.127	45018.96
518.329	45625.16
518.531	45293.39
518.733	46825.27
518.935	47499.05
519.136	48111.39
519.338	49450.77
519.54	49258.26
519.742	50884.34
519.944	50917.11
520.146	52197.09
520.348	52475.62
520.55	53006.04
520.752	53608.14
520.954	54363.84
521.155	54546.11
521.357	55473.84
521.559	55748.27
521.761	57067.16
521.963	56757.92
522.164	57800.33
522.366	58136.2
522.568	58613.38
522.77	58742.4
522.971	59481.72
523.173	59537.01
523.375	60237.42
523.576	60049
523.778	60032.62
523.98	61259.35
524.181	61204.06
524.383	60984.93
524.584	61759.06
524.786	61505.11
524.988	61447.77
525.189	62000.72
525.391	62066.25
525.592	62125.64
525.794	62162.51
525.995	62076.49
526.197	61879.89
526.398	61840.98
526.6	61548.12
526.801	61730.39
527.003	61662.8
527.204	61345.37
527.406	61367.9
527.607	61040.22
527.808	61132.38
528.01	60012.14
528.211	60122.73
528.412	60526.18
528.614	59735.66
528.815	59192.95
529.016	59438.71
529.218	58138.25
529.419	58203.78
529.62	57491.09
529.822	56792.73
530.023	56452.77
530.224	55942.83
530.425	55887.53
530.626	54636.22
530.828	54517.44
531.029	54509.25
531.23	53546.7
531.431	52674.27
531.632	52477.66
531.833	52000.49
532.035	51410.67
532.236	50863.86
532.437	50403.07
532.638	49438.48
532.839	49180.43
533.04	48617.24
533.241	47064.88
533.442	47623.98
533.643	46634.81
533.844	45930.31
534.045	45750.09
534.246	44388.19
534.447	44767.06
534.648	43741.03
534.849	43071.34
535.05	42209.15
535.251	41703.3
535.451	41553.8
535.652	41080.72
535.853	40167.32
536.054	40241.05
536.255	39575.46
536.456	38356.92
536.657	38326.2
536.857	37658.56
537.058	37298.12
537.259	37056.46
537.46	36450.26
537.66	36016.09
537.861	35586.02
538.062	35059.69
538.263	34471.92
538.463	33681.41
538.664	33460.23
538.865	33474.56
539.065	33148.93
539.266	32432.15
539.466	32473.1
539.667	31356.96
539.868	31799.32
540.068	30779.43
540.269	30584.88
540.469	30085.17
540.67	30027.83
540.87	29403.2
541.071	29259.84
541.271	29081.67
541.472	28534.86
541.672	27844.7
541.873	27680.86
542.073	26933.35
542.274	27320.42
542.474	26636.39
542.675	26488.94
542.875	26560.62
543.075	26030.19
543.276	25434.24
543.476	25729.14
543.676	24955.01
543.877	24873.09
544.077	24746.12
544.277	24270.99
544.478	24170.64
544.678	23957.65
544.878	23453.85
545.078	23224.48
545.279	22923.43
545.479	22821.03
545.679	22476.97
545.879	22274.22
546.079	22102.19
546.28	21420.22
546.48	21242.04
546.68	21344.44
546.88	20867.27
547.08	20660.42
547.28	20547.78
547.48	20189.39
547.68	20037.84
547.88	19445.98
548.081	19431.64
548.281	19224.79
548.481	19167.45
548.681	18749.67
548.881	18413.8
549.081	18378.98
549.28	17866.99
549.48	17823.98
549.68	17668.34
549.88	17725.68
550.08	16863.49
550.28	17023.23
550.48	16660.74
550.68	16552.2
550.88	16083.21
551.08	15892.75
551.279	15755.54
551.479	15393.05
551.679	15386.9
551.879	14971.16
552.079	14813.47
552.278	14580
552.478	14580
552.678	14235.94
552.878	14057.77
553.077	13793.58
553.277	13363.51
553.477	13459.76
553.676	13199.67
553.876	13056.31
554.076	12708.16
554.275	12411.2
554.475	12149.06
554.674	12128.58
554.874	12134.73
555.074	11698.51
555.273	11661.65
555.473	11483.47
555.672	11075.93
555.872	11163.99
556.071	10817.88
556.271	10912.09
556.47	10590.56
556.67	10350.95
556.869	10213.73
557.068	10041.7
557.268	9875.82
557.467	9544.05
557.667	9652.59
557.866	9593.2
558.065	9318.77
558.265	9226.61
558.464	8982.9
558.663	9073.01
558.863	8636.8
559.062	8655.23
559.261	8221.06
559.461	8522.11
559.66	7991.69
559.859	7991.69
560.058	7741.83
560.258	7608.72
560.457	7604.62
560.656	7786.89
560.855	7473.55
561.054	7381.39
561.253	7178.64
561.453	6994.33
561.652	7127.44
561.851	6945.17
562.05	6582.68
562.249	6637.98
562.448	6627.74
562.647	6504.86
562.846	6291.87
563.045	6306.21
563.244	6144.42
563.443	6220.19
563.642	5960.1
563.841	5806.5
564.04	5759.4
564.239	5722.54
564.438	5527.98
564.637	5487.02
564.836	5370.29
565.035	5384.62
565.234	5241.26
565.432	5431.73
565.631	5097.91
565.83	5366.19
566.029	5052.85
566.228	4827.57
566.427	4903.35
566.625	4655.54
566.824	4702.65
567.023	4624.83
567.222	4536.76
567.42	4415.93
567.619	4381.12
567.818	4387.26
568.016	4538.81
568.215	4272.57
568.414	4118.98
568.612	4157.89
568.811	4053.44
569.01	3946.95
569.208	3901.89
569.407	4000.19
569.605	3897.8
569.804	3953.09
570.002	3776.97
570.201	3682.76
570.4	3756.49
570.598	3465.68
570.797	3537.35
570.995	3408.33
571.193	3398.09
571.392	3475.91
571.59	3344.84
571.789	3394
571.987	3279.31
572.186	3283.41
572.384	3066.32
572.582	3068.37
572.781	3234.25
572.979	3015.12
573.177	3047.89
573.376	2992.59
573.574	3011.03
573.772	2804.18
573.971	2824.66
574.169	2752.98
574.367	2787.8
574.565	2660.82
574.763	2640.34
574.962	2671.06
575.16	2576.86
575.358	2470.36
575.556	2490.84
575.754	2447.83
575.952	2284
576.151	2396.64
576.349	2423.26
576.547	2144.74
576.745	2265.57
576.943	2222.56
577.141	2271.71
577.339	2013.67
577.537	2167.26
577.735	2148.83
577.933	2044.38
578.131	2011.62
578.329	2025.95
578.527	2003.43
578.725	1833.44
578.923	1743.33
579.121	2013.67
579.319	1786.34
579.516	1769.96
579.714	1950.18
579.912	1757.67
580.11	1714.66
580.308	1683.94
580.506	1632.74
580.704	1563.11
580.901	1606.12
581.099	1708.52
581.297	1552.87
581.495	1556.97
581.692	1440.23
581.89	1636.84
582.088	1507.82
582.285	1403.37
582.483	1399.27
582.681	1442.28
582.878	1356.27
583.076	1399.27
583.274	1356.27
583.471	1507.82
583.669	1432.04
583.866	1231.34
584.064	1176.05
584.262	1255.92
584.459	1219.05
584.657	1198.57
584.854	1276.4
585.052	1167.85
585.249	1243.63
585.447	1249.77
585.644	1087.98
585.841	1300.97
586.039	1174
586.236	1112.56
586.434	1049.07
586.631	889.33
586.828	924.15
587.026	1036.78
587.223	903.67
587.42	913.91
587.618	1153.52
587.815	1143.28
588.012	1010.16
588.21	901.62
588.407	1020.4
588.604	985.58
588.801	911.86
588.999	909.81
589.196	961.01
589.393	842.23
589.59	856.56
589.787	838.13
589.984	829.94
590.182	864.75
590.379	809.46
590.576	780.79
590.773	885.23
590.97	846.32
591.167	879.09
591.364	956.91
591.561	768.5
591.758	924.15
591.955	915.95
592.152	897.52
592.349	748.02
592.546	793.08
592.743	768.5
592.94	815.6
593.137	799.22
593.334	856.56
593.531	913.91
593.727	846.32
593.924	774.64
594.121	768.5
594.318	754.16
594.515	893.43
594.712	872.95
594.908	926.19
595.105	766.45
595.302	934.39
595.499	885.23
595.696	977.39
595.892	715.25
596.089	1036.78
596.286	987.63
596.482	1010.16
596.679	963.06
596.876	944.63
597.072	1055.22
597.269	1008.11
597.466	967.15
597.662	1114.61
597.859	1147.37
598.055	1178.09
598.252	1241.58
598.448	1296.88
598.645	1278.44
598.841	1370.6
599.038	1567.21
599.234	1554.92
599.431	1569.26
599.627	1538.54
599.824	1561.06
600.02	1614.31
600.217	1573.35
600.413	1776.1
600.609	1745.38
600.806	1984.99
601.002	2011.62
601.198	1909.22
601.395	2189.79
601.591	2124.26
601.787	2238.94
601.984	2288.09
602.18	2415.07
602.376	2492.89
602.572	2673.11
602.769	2679.26
602.965	2718.17
603.161	2922.96
603.357	2818.52
603.553	3011.03
603.75	3037.65
603.946	3348.94
604.142	3383.76
604.338	3574.22
604.534	3486.15
604.73	3664.33
604.926	3744.2
605.122	4063.68
605.318	4026.82
605.514	4219.33
605.71	4307.39
605.906	4485.56
606.102	4641.21
606.298	4733.37
606.494	4891.06
606.69	5147.06
606.886	5321.13
607.082	5317.04
607.278	5509.55
607.474	5476.78
607.67	5908.9
607.866	5792.17
608.062	6062.5
608.257	6289.82
608.453	6427.04
608.649	6613.4
608.845	6492.57
609.041	6875.54
609.236	7008.66
609.432	7219.6
609.628	7610.76
609.824	7639.44
610.019	7809.42
610.215	8038.79
610.411	8317.31
610.606	8438.14
610.802	8581.5
610.998	8860.02
611.193	9498.99
611.389	9406.83
611.584	9679.21
611.78	9998.7
611.976	10223.97
612.171	10553.69
612.367	10754.4
612.562	10869.08
612.758	11120.98
612.953	11317.59
613.149	11970.89
613.344	11989.32
613.539	12409.15
613.735	12831.04
613.93	13091.13
614.126	13459.76
614.321	13746.48
614.517	14184.74
614.712	14741.79
614.907	14831.9
615.103	15434
615.298	15690
615.493	16050.44
615.688	15989
615.884	16992.51
616.079	16939.26
616.274	17572.08
616.47	18118.89
616.665	18522.34
616.86	18823.39
617.055	19382.49
617.25	19599.57
617.445	20535.49
617.641	20916.42
617.836	21758.13
618.031	21680.31
618.226	22347.95
618.421	22788.26
618.616	23789.72
618.811	23697.56
619.006	24543.37
619.201	24981.63
619.396	25530.49
619.591	25651.32
619.786	26726.5
619.981	27078.75
620.176	28229.71
620.371	28325.97
620.566	29487.17
620.761	29456.45
620.956	30183.48
621.151	30711.85
621.346	31461.41
621.541	31436.83
621.735	32591.89
621.93	32559.12
622.125	33443.84
622.32	33918.97
622.515	34449.39
622.709	35352.55
622.904	36233.18
623.099	36542.42
623.294	37375.94
623.488	37439.43
623.683	38911.92
623.878	38399.93
624.072	39776.16
624.267	40130.46
624.462	40812.43
624.656	41637.76
624.851	42241.92
625.046	42612.6
625.24	42960.75
625.435	43698.02
625.629	44504.92
625.824	44943.19
626.018	45264.72
626.213	45336.4
626.407	46599.99
626.602	46550.84
626.796	47400.75
626.991	47965.99
627.185	48029.48
627.38	48121.63
627.574	48852.76
627.768	48738.07
627.963	49377.04
628.157	48805.66
628.352	49518.35
628.546	49116.95
628.74	50386.69
628.935	48926.49
629.129	49706.76
629.323	49049.36
629.517	48879.38
629.712	48375.58
629.906	48256.8
630.1	47499.05
630.294	47390.51
630.489	46815.03
630.683	46985.01
630.877	45289.29
631.071	44883.8
631.265	44638.04
631.459	43396.97
631.653	42446.71
631.848	41541.51
632.042	40869.78
632.236	39860.13
632.43	38444.98
632.624	38279.1
632.818	36771.79
633.012	35536.87
633.206	34615.28
633.4	33673.21
633.594	31842.33
633.788	31379.49
633.982	30144.56
634.176	29450.3
634.369	27953.24
634.563	27015.27
634.757	26013.81
634.951	25251.97
635.145	24201.36
635.339	23070.88
635.533	22360.23
635.726	21522.62
635.92	20426.95
636.114	19867.86
636.308	18651.36
636.501	18172.14
636.695	17205.5
636.889	16615.68
637.083	15843.6
637.276	15339.8
637.47	14473.51
637.664	14133.54
637.857	13551.92
638.051	13013.31
638.244	12683.58
638.438	12003.66
638.632	11651.41
638.825	11014.49
639.019	10623.33
639.212	10176.87
639.406	9752.94
639.599	9423.22
639.793	9105.78
639.986	8606.08
640.18	8411.52
640.373	8085.89
640.567	7569.8
640.76	7475.6
640.954	7209.36
641.147	6869.4
641.34	6629.79
641.534	6357.41
641.727	6187.43
641.92	5906.85
642.114	5689.77
642.307	5439.92
642.5	5265.84
642.694	4815.29
642.887	4825.53
643.08	4796.85
643.273	4504
643.467	4346.3
643.66	4069.83
643.853	3932.61
644.046	3971.52
644.239	3936.71
644.432	3586.51
644.626	3457.48
644.819	3277.26
645.012	3176.91
645.205	3131.86
645.398	2888.15
645.591	2910.68
645.784	2695.64
645.977	2544.09
646.17	2441.69
646.363	2320.86
646.556	2230.75
646.749	2150.88
646.942	2234.85
647.135	2107.87
647.328	1966.56
647.521	1819.11
647.714	1796.58
647.907	1759.72
648.099	1669.61
648.292	1798.63
648.485	1624.55
648.678	1561.06
648.871	1450.47
649.064	1497.58
649.256	1284.59
649.449	1194.48
649.642	1153.52
649.835	1186.29
650.027	1118.7
650.22	1188.33
650.413	1018.35
650.605	1182.19
650.798	1001.97
650.991	1028.59
651.183	1018.35
651.376	874.99
651.568	870.9
651.761	811.51
651.954	842.23
652.146	838.13
652.339	856.56
652.531	850.42
652.724	651.77
652.916	625.14
653.109	551.42
653.301	719.35
653.494	725.49
653.686	610.81
653.879	678.39
654.071	614.9
654.263	551.42
654.456	489.98
654.648	657.91
654.84	598.52
655.033	524.79
655.225	604.66
655.417	350.71
655.61	561.66
655.802	600.57
655.994	567.8
656.186	346.62
656.379	377.34
656.571	406.01
656.763	354.81
656.955	453.11
657.148	444.92
657.34	397.82
657.532	375.29
657.724	432.63
657.916	383.48
658.108	330.23
658.3	406.01
658.492	375.29
658.684	279.04
658.876	324.09
659.068	217.6
659.26	203.26
659.452	209.4
659.644	270.84
659.836	418.3
660.028	299.52
660.22	231.93
660.412	236.03
660.604	326.14
660.796	258.56
660.988	322.04
661.18	254.46
661.372	287.23
661.563	227.84
661.755	283.13
661.947	186.88
662.139	240.12
662.331	180.73
662.522	252.41
662.714	178.69
662.906	180.73
663.097	201.21
663.289	219.64
663.481	127.49
663.673	281.08
663.864	250.36
664.056	217.6
664.247	115.2
664.439	340.47
664.631	246.27
664.822	203.26
665.014	209.4
665.205	96.77
665.397	180.73
665.588	252.41
665.78	225.79
665.971	236.03
666.163	111.1
666.354	260.6
666.546	182.78
666.737	156.16
666.929	129.53
667.12	141.82
667.311	211.45
667.503	141.82
667.694	240.12
667.885	190.97
668.077	178.69
668.268	80.38
668.459	164.35
668.651	121.34
668.842	178.69
669.033	55.81
669.224	94.72
669.416	287.23
669.607	68.09
669.798	143.87
669.989	190.97
670.18	92.67
670.371	158.21
670.563	166.4
670.754	260.6
670.945	147.97
671.136	238.08
671.327	98.81
671.518	256.51
671.709	236.03
671.9	119.29
672.091	219.64
672.282	100.86
672.473	133.63
672.664	104.96
672.855	94.72
673.046	156.16
673.237	207.36
673.428	182.78
673.619	209.4
673.809	94.72
674	219.64
674.191	203.26
674.382	150.01
674.573	170.49
674.764	174.59
674.954	221.69
675.145	145.92
675.336	133.63
675.527	107.01
675.717	84.48
675.908	100.86
676.099	121.34
676.289	152.06
676.48	88.57
676.671	186.88
676.861	156.16
677.052	184.83
677.243	147.97
677.433	150.01
677.624	252.41
677.814	231.93
678.005	176.64
678.195	236.03
678.386	92.67
678.576	168.45
678.767	94.72
678.957	246.27
679.148	115.2
679.338	317.95
679.529	188.93
679.719	147.97
679.909	223.74
680.1	201.21
680.29	186.88
680.481	12.8
680.671	254.46
680.861	256.51
681.052	201.21
681.242	168.45
681.432	207.36
681.622	184.83
681.813	168.45
682.003	145.92
682.193	100.86
682.383	135.68
682.573	162.3
682.764	215.55
682.954	256.51
683.144	285.18
683.334	174.59
683.524	129.53
683.714	250.36
683.904	223.74
684.094	184.83
684.284	221.69
684.474	320
684.664	266.75
684.854	276.99
685.044	201.21
685.234	172.54
685.424	240.12
685.614	121.34
685.804	389.63
685.994	291.32
686.184	197.12
686.374	182.78
686.564	182.78
686.753	233.98
686.943	133.63
687.133	229.88
687.323	199.16
687.513	236.03
687.702	223.74
687.892	238.08
688.082	254.46
688.272	279.04
688.461	276.99
688.651	371.19
688.841	246.27
689.03	209.4
689.22	219.64
689.41	240.12
689.599	174.59
689.789	238.08
689.979	326.14
690.168	154.11
690.358	221.69
690.547	195.07
690.737	250.36
690.926	266.75
691.116	233.98
691.305	260.6
691.495	242.17
691.684	127.49
691.874	147.97
692.063	270.84
692.252	256.51
692.442	334.33
692.631	203.26
692.82	182.78
693.01	219.64
693.199	104.96
693.388	260.6
693.578	205.31
693.767	231.93
693.956	217.6
694.146	184.83
694.335	121.34
694.524	133.63
694.713	252.41
694.902	188.93
695.092	205.31
695.281	281.08
695.47	113.15
695.659	207.36
695.848	201.21
696.037	133.63
696.226	219.64
696.415	156.16
696.604	332.28
696.793	215.55
696.982	145.92
697.171	322.04
697.36	193.02
697.549	186.88
697.738	170.49
697.927	168.45
698.116	172.54
698.305	180.73
698.494	131.58
698.683	139.77
698.872	342.52
699.061	137.73
699.25	219.64
699.438	92.67
699.627	182.78
699.816	391.67
700.005	70.14
700.193	170.49
700.382	274.94
700.571	211.45
700.76	217.6
700.948	250.36
701.137	240.12
701.326	264.7
701.514	135.68
701.703	242.17
701.892	252.41
702.08	369.15
702.269	121.34
702.457	229.88
702.646	162.3
702.834	162.3
703.023	276.99
703.212	266.75
703.4	137.73
703.589	215.55
703.777	133.63
703.965	121.34
704.154	221.69
704.342	37.38
704.531	68.09
704.719	133.63
704.907	240.12
705.096	125.44
705.284	55.81
705.472	240.12
705.661	147.97
705.849	260.6
706.037	279.04
706.226	225.79
706.414	182.78
706.602	199.16
706.79	209.4
706.979	158.21
707.167	215.55
707.355	113.15
707.543	215.55
707.731	229.88
707.919	217.6
708.107	121.34
708.296	119.29
708.484	125.44
708.672	186.88
708.86	283.13
709.048	221.69
709.236	152.06
709.424	244.22
709.612	254.46
709.8	123.39
709.988	154.11
710.176	285.18
710.364	248.32
710.551	205.31
710.739	217.6
710.927	213.5
711.115	227.84
711.303	244.22
711.491	229.88
711.679	158.21
711.866	260.6
712.054	186.88
712.242	205.31
712.43	227.84
712.617	221.69
712.805	231.93
712.993	182.78
713.181	23.04
713.368	238.08
713.556	248.32
713.744	135.68
713.931	385.53
714.119	223.74
714.306	188.93
714.494	117.25
714.682	104.96
714.869	100.86
715.057	209.4
715.244	121.34
715.432	100.86
715.619	59.9
715.807	170.49
715.994	178.69
716.182	219.64
716.369	172.54
716.556	254.46
716.744	111.1
716.931	80.38
717.119	168.45
717.306	121.34
717.493	231.93
717.681	150.01
717.868	94.72
718.055	195.07
718.242	104.96
718.43	262.65
718.617	272.89
718.804	125.44
718.991	301.56
719.179	254.46
719.366	201.21
719.553	244.22
719.74	184.83
719.927	225.79
720.114	195.07
720.301	78.33
720.488	180.73
720.676	111.1
720.863	356.86
721.05	352.76
721.237	311.8
721.424	285.18
721.611	270.84
721.798	82.43
721.985	147.97
722.172	188.93
722.358	209.4
722.545	219.64
722.732	227.84
722.919	244.22
723.106	295.42
723.293	168.45
723.48	242.17
723.667	203.26
723.853	236.03
724.04	201.21
724.227	238.08
724.414	160.25
724.6	246.27
724.787	342.52
724.974	334.33
725.161	225.79
725.347	70.14
725.534	207.36
725.72	233.98
725.907	305.66
726.094	254.46
726.28	133.63
726.467	205.31
726.653	197.12
726.84	326.14
727.027	358.91
727.213	203.26
727.4	240.12
727.586	229.88
727.773	186.88
727.959	223.74
728.145	199.16
728.332	242.17
728.518	160.25
728.705	231.93
728.891	283.13
729.077	246.27
729.264	250.36
729.45	209.4
729.636	254.46
729.823	258.56
730.009	297.47
730.195	262.65
730.382	229.88
730.568	154.11
730.754	223.74
730.94	238.08
731.126	225.79
731.313	233.98
731.499	283.13
731.685	236.03
731.871	272.89
732.057	289.28
732.243	293.37
732.429	266.75
732.615	346.62
732.801	268.8
732.987	287.23
733.173	254.46
733.359	174.59
733.545	215.55
733.731	233.98
733.917	303.61
734.103	315.9
734.289	252.41
734.475	180.73
734.661	426.49
734.847	242.17
735.033	244.22
735.219	313.85
735.404	188.93
735.59	186.88
735.776	201.21
735.962	231.93
736.148	203.26
736.333	344.57
736.519	289.28
736.705	313.85
736.89	209.4
737.076	297.47
737.262	147.97
737.447	233.98
737.633	188.93
737.819	338.43
738.004	297.47
738.19	209.4
738.375	297.47
738.561	301.56
738.747	162.3
738.932	203.26
739.118	360.95
739.303	350.71
739.489	268.8
739.674	215.55
739.859	174.59
740.045	291.32
740.23	203.26
740.416	135.68
740.601	272.89
740.786	221.69
740.972	233.98
741.157	279.04
741.342	109.05
741.528	186.88
741.713	291.32
741.898	166.4
742.084	266.75
742.269	217.6
742.454	358.91
742.639	266.75
742.824	221.69
743.01	285.18
743.195	420.35
743.38	285.18
743.565	199.16
743.75	283.13
743.935	283.13
744.12	371.19
744.305	184.83
744.49	137.73
744.675	186.88
744.86	145.92
745.045	248.32
745.23	221.69
745.415	176.64
745.6	326.14
745.785	195.07
745.97	301.56
746.155	215.55
746.34	248.32
746.525	156.16
746.71	391.67
746.895	107.01
747.079	131.58
747.264	168.45
747.449	354.81
747.634	299.52
747.819	276.99
748.003	115.2
748.188	141.82
748.373	248.32
748.557	215.55
748.742	252.41
748.927	166.4
749.111	258.56
749.296	123.39
749.481	242.17
749.665	244.22
749.85	113.15
750.034	311.8
750.219	217.6
750.404	117.25
750.588	229.88
750.773	121.34
750.957	111.1
751.141	207.36
751.326	258.56
751.51	68.09
751.695	113.15
751.879	125.44
752.064	305.66
752.248	150.01
752.432	225.79
752.617	287.23
752.801	268.8
752.985	199.16
753.17	272.89
753.354	166.4
753.538	209.4
753.722	80.38
753.907	172.54
754.091	49.66
754.275	225.79
754.459	57.86
754.643	74.24
754.828	166.4
755.012	219.64
755.196	88.57
755.38	158.21
755.564	143.87
755.748	172.54
755.932	213.5
756.116	209.4
756.3	225.79
756.484	72.19
756.668	213.5
756.852	45.57
757.036	129.53
757.22	111.1
757.404	115.2
757.588	117.25
757.772	160.25
757.956	158.21
758.14	272.89
758.323	43.52
758.507	133.63
758.691	176.64
758.875	158.21
759.059	268.8
759.242	66.05
759.426	121.34
759.61	70.14
759.794	86.53
759.977	197.12
760.161	268.8
760.345	213.5
760.528	168.45
760.712	143.87
760.895	156.16
761.079	92.67
761.263	8.7
761.446	-5.63
761.63	92.67
761.813	133.63
761.997	-22.02
762.18	41.47
762.364	158.21
762.547	66.05
762.731	86.53
762.914	150.01
763.098	100.86
763.281	102.91
763.464	86.53
763.648	72.19
763.831	127.49
764.015	49.66
764.198	170.49
764.381	45.57
764.564	121.34
764.748	109.05
764.931	100.86
765.114	154.11
765.297	195.07
765.481	-34.3
765.664	109.05
765.847	-13.82
766.03	166.4
766.213	51.71
766.397	45.57
766.58	35.33
766.763	188.93
766.946	109.05
767.129	86.53
767.312	6.66
767.495	39.42
767.678	70.14
767.861	80.38
768.044	68.09
768.227	14.85
768.41	186.88
768.593	90.62
768.776	57.86
768.959	-17.92
769.142	111.1
769.324	61.95
769.507	123.39
769.69	4.61
769.873	133.63
770.056	266.75
770.239	137.73
770.421	123.39
770.604	150.01
770.787	74.24
770.97	100.86
771.152	18.94
771.335	80.38
771.518	16.9
771.7	164.35
771.883	164.35
772.066	80.38
772.248	-7.68
772.431	125.44
772.613	113.15
772.796	35.33
772.978	141.82
773.161	227.84
773.343	4.61
773.526	41.47
773.708	-3.58
773.891	-44.54
774.073	78.33
774.256	39.42
774.438	111.1
774.621	6.66
774.803	100.86
774.985	-11.78
775.168	82.43
775.35	20.99
775.532	88.57
775.715	80.38
775.897	78.33
776.079	-19.97
776.261	82.43
776.444	131.58
776.626	98.81
776.808	20.99
776.99	-32.26
777.173	78.33
777.355	-22.02
777.537	37.38
777.719	61.95
777.901	37.38
778.083	29.18
778.265	-54.78
778.447	86.53
778.629	-9.73
778.811	18.94
778.993	94.72
779.175	92.67
779.357	37.38
779.539	-36.35
779.721	25.09
779.903	154.11
780.085	35.33
780.267	141.82
780.449	102.91
780.631	66.05
780.812	152.06
780.994	76.29
781.176	119.29
781.358	25.09
781.54	23.04
781.721	39.42
781.903	43.52
782.085	8.7
782.267	131.58
782.448	61.95
782.63	-58.88
782.812	23.04
782.993	90.62
783.175	55.81
783.357	4.61
783.538	107.01
783.72	-3.58
783.901	53.76
784.083	90.62
784.264	90.62
784.446	-77.31
784.627	-71.17
784.809	43.52
784.99	12.8
785.172	47.62
785.353	43.52
785.535	39.42
785.716	0.51
785.897	-54.78
786.079	92.67
786.26	37.38
786.441	37.38
786.623	-85.5
786.804	-26.11
786.985	23.04
787.167	16.9
787.348	-24.06
787.529	-28.16
787.71	154.11
787.891	0.51
788.073	-17.92
788.254	8.7
788.435	100.86
788.616	18.94
788.797	35.33
788.978	18.94
789.159	-15.87
789.34	133.63
789.522	92.67
789.703	31.23
789.884	53.76
790.065	25.09
790.246	158.21
790.427	-62.98
790.607	147.97
790.788	111.1
790.969	10.75
791.15	131.58
791.331	6.66
791.512	-44.54
791.693	-42.5
791.874	14.85
792.054	248.32
792.235	109.05
792.416	-46.59
792.597	-46.59
792.778	133.63
792.958	92.67
793.139	57.86
793.32	96.77
793.5	4.61
793.681	41.47
793.862	45.57
794.042	8.7
794.223	-114.17
794.404	-65.02
794.584	-40.45
794.765	-32.26
794.945	2.56
795.126	-42.5
795.306	80.38
795.487	59.9
795.667	27.14
795.848	139.77
796.028	37.38
796.209	-3.58
796.389	92.67
796.57	-13.82
796.75	-34.3
796.93	8.7
797.111	41.47
797.291	-50.69
797.471	78.33
797.652	37.38
797.832	-99.84
798.012	100.86
798.192	74.24
798.373	-95.74
798.553	-32.26
798.733	125.44
798.913	-79.36
799.093	-44.54
799.274	18.94
799.454	84.48
799.634	84.48
799.814	39.42
799.994	94.72
800.174	-24.06
800.354	-28.16
800.534	-99.84
800.714	78.33
800.894	-69.12
801.074	-24.06
801.254	-22.02
801.434	55.81
801.614	6.66
801.794	-22.02
801.974	1638.89
802.154	8.7
802.334	117.25
802.514	8.7
802.693	31.23
802.873	-52.74
803.053	78.33
803.233	80.38
803.413	82.43
803.592	0.51
803.772	20.99
803.952	43.52
804.131	-48.64
804.311	123.39
804.491	74.24
804.67	-34.3
804.85	-36.35
805.03	51.71
805.209	25.09
805.389	-13.82
805.568	16.9
805.748	-34.3
805.928	10.75
806.107	53.76
806.287	53.76
806.466	-48.64
806.646	-62.98
806.825	92.67
807.004	18.94
807.184	8.7
807.363	72.19
807.543	76.29
807.722	-73.21
807.901	137.73
808.081	49.66
808.26	-93.69
808.439	8.7
808.619	29.18
808.798	-22.02
808.977	78.33
809.156	76.29
809.336	45.57
809.515	31.23
809.694	-44.54
809.873	47.62
810.052	96.77
810.231	90.62
810.411	4.61
810.59	25.09
810.769	-48.64
810.948	117.25
811.127	-58.88
811.306	-58.88
811.485	-15.87
811.664	178.69
811.843	8.7
812.022	0.51
812.201	-24.06
812.38	8.7
812.559	-30.21
812.737	49.66
812.916	-81.41
813.095	14.85
813.274	10.75
813.453	16.9
813.632	64
813.811	119.29
813.989	-58.88
814.168	10.75
814.347	-91.65
814.526	-42.5
814.704	51.71
814.883	154.11
815.062	-50.69
815.24	41.47
815.419	-101.89
815.598	47.62
815.776	-42.5
815.955	-19.97
816.133	-81.41
816.312	57.86
816.49	-32.26
816.669	86.53
816.847	57.86
817.026	57.86
817.204	-93.69
817.383	2.56
817.561	-48.64
817.74	88.57
817.918	72.19
818.097	10.75
818.275	12.8
818.453	70.14
818.632	10.75
818.81	35.33
818.988	-48.64
819.167	-17.92
819.345	-9.73
819.523	29.18
819.701	-11.78
819.879	-19.97
820.058	-58.88
820.236	0.51
820.414	37.38
820.592	12.8
820.77	-93.69
820.948	-13.82
821.127	20.99
821.305	-36.35
821.483	-5.63
821.661	66.05
821.839	-32.26
822.017	6.66
822.195	-24.06
822.373	152.06
822.551	23.04
822.729	80.38
822.907	-1.54
823.085	78.33
823.262	-7.68
823.44	-62.98
823.618	47.62
823.796	-9.73
823.974	-32.26
824.152	-60.93
824.329	-42.5
824.507	47.62
824.685	78.33
824.863	-110.08
825.04	31.23
825.218	31.23
825.396	-28.16
825.574	-13.82
825.751	70.14
825.929	57.86
826.107	-34.3
826.284	-1.54
826.462	-1.54
826.639	-65.02
826.817	-50.69
826.994	0.51
827.172	-97.79
827.349	94.72
827.527	55.81
827.704	25.09
827.882	76.29
828.059	-26.11
828.237	-11.78
828.414	6.66
828.591	-54.78
828.769	35.33
828.946	-9.73
829.124	61.95
829.301	94.72
829.478	-56.83
829.655	20.99
829.833	68.09
830.01	-95.74
830.187	53.76
830.364	-9.73
830.542	-7.68
830.719	172.54
830.896	14.85
831.073	53.76
831.25	66.05
831.427	0.51
831.604	-46.59
831.782	-71.17
831.959	37.38
832.136	-28.16
832.313	10.75
832.49	-42.5
832.667	115.2
832.844	-62.98
833.021	135.68
833.198	-24.06
833.374	-5.63
833.551	68.09
833.728	-1.54
833.905	61.95
834.082	-105.98
834.259	78.33
834.436	47.62
834.612	-44.54
834.789	94.72
834.966	-7.68
835.143	-5.63
835.319	-105.98
835.496	117.25
835.673	6.66
835.85	104.96
836.026	23.04
836.203	70.14
836.38	-85.5
836.556	-79.36
836.733	20.99
836.909	107.01
837.086	-7.68
837.262	-97.79
837.439	37.38
837.616	-9.73
837.792	-15.87
837.968	31.23
838.145	-134.65
838.321	29.18
838.498	27.14
838.674	33.28
838.851	100.86
839.027	-38.4
839.203	18.94
839.38	0.51
839.556	27.14
839.732	70.14
839.909	-38.4
840.085	59.9
840.261	-58.88
840.437	-97.79
840.614	-69.12
840.79	12.8
840.966	70.14
841.142	49.66
841.318	33.28
841.494	0.51
841.671	72.19
841.847	-73.21
842.023	-85.5
842.199	33.28
842.375	57.86
842.551	-169.47
842.727	-50.69
842.903	184.83
843.079	-112.13
843.255	55.81
843.431	37.38
843.607	115.2
843.783	-83.45
843.959	86.53
844.134	-65.02
844.31	94.72
844.486	-30.21
844.662	-44.54
844.838	-130.56
845.013	-1.54
845.189	72.19
845.365	-15.87
845.541	-7.68
845.716	14.85
845.892	72.19
846.068	-26.11
846.244	-110.08
846.419	14.85
846.595	-62.98
846.77	-42.5
846.946	117.25
847.122	23.04
847.297	-11.78
847.473	133.63
847.648	-108.03
847.824	104.96
847.999	-122.37
848.175	-3.58
848.35	-7.68
848.526	133.63
848.701	96.77
848.876	82.43
849.052	45.57
849.227	-75.26
849.403	8.7
849.578	-42.5
849.753	18.94
849.929	66.05
850.104	-85.5
850.279	-30.21
850.454	-30.21
850.63	-24.06
850.805	2.56
850.98	4.61
851.155	10.75
851.33	-46.59
851.505	-50.69
851.681	78.33
851.856	51.71
852.031	59.9
852.206	94.72
852.381	-34.3
852.556	-30.21
852.731	37.38
852.906	84.48
853.081	35.33
853.256	25.09
853.431	4.61
853.606	0.51
853.781	-97.79
853.956	-189.95
854.131	64
854.305	-60.93
854.48	-34.3
854.655	-91.65
854.83	-118.27
855.005	12.8
855.18	-17.92
855.354	-54.78
855.529	4.61
855.704	6.66
855.879	47.62
856.053	-148.99
856.228	-22.02
856.403	-9.73
856.577	20.99
856.752	-65.02
856.926	-9.73
857.101	14.85
857.276	-83.45
857.45	-54.78
857.625	90.62
857.799	10.75
857.974	-65.02
858.148	-40.45
858.323	-1.54
858.497	-5.63
858.672	-44.54
858.846	-32.26
859.02	129.53
859.195	37.38
859.369	-19.97
859.543	23.04
859.718	-52.74
859.892	39.42
860.066	-28.16
860.241	0.51
860.415	-26.11
860.589	4.61
860.763	-32.26
860.938	-19.97
861.112	74.24
861.286	-58.88
861.46	125.44
861.634	-40.45
861.808	117.25
861.982	-85.5
862.157	-58.88
862.331	-9.73
862.505	-93.69
862.679	-97.79
862.853	-38.4
863.027	-22.02
863.201	86.53
863.375	23.04
863.549	-13.82
863.722	76.29
863.896	76.29
864.07	-22.02
864.244	-19.97
864.418	102.91
864.592	-34.3
864.766	2.56
864.939	37.38
865.113	10.75
865.287	41.47
865.461	-91.65
865.634	16.9
865.808	35.33
865.982	-19.97
866.156	-50.69
866.329	-89.6
866.503	-15.87
866.676	100.86
866.85	39.42
867.024	-26.11
867.197	51.71
867.371	84.48
867.544	37.38
867.718	-101.89
867.891	121.34
868.065	-103.93
868.238	-42.5
868.412	55.81
868.585	18.94
868.759	27.14
868.932	-71.17
869.105	-101.89
869.279	-40.45
869.452	-65.02
869.625	59.9
869.799	12.8
869.972	-87.55
870.145	-17.92
870.319	25.09
870.492	-40.45
870.665	-38.4
870.838	-46.59
871.011	-146.94
871.185	-36.35
871.358	-120.32
871.531	33.28
871.704	10.75
871.877	18.94
872.05	-9.73
872.223	-110.08
872.396	39.42
872.569	-1.54
872.742	-114.17
872.915	6.66
873.088	-81.41
873.261	-85.5
873.434	31.23
873.607	35.33
873.78	61.95
873.953	-116.22
874.126	16.9
874.299	39.42
874.471	-44.54
874.644	-13.82
874.817	35.33
874.99	139.77
875.163	-46.59
875.335	-36.35
875.508	57.86
875.681	131.58
875.853	23.04
876.026	-93.69
876.199	2.56
876.371	57.86
876.544	2.56
876.717	-50.69
876.889	-48.64
877.062	-19.97
877.234	-34.3
877.407	-26.11
877.579	-38.4
877.752	96.77
877.924	35.33
878.097	82.43
878.269	-17.92
878.442	-48.64
878.614	41.47
878.786	-44.54
878.959	-42.5
879.131	33.28
879.303	-138.75
879.476	2.56
879.648	107.01
879.82	51.71
879.993	-132.61
880.165	-71.17
880.337	-99.84
880.509	2.56
880.681	-73.21
880.854	-136.7
881.026	31.23
881.198	119.29
881.37	-11.78
881.542	-7.68
881.714	-34.3
881.886	-67.07
882.058	-42.5
882.23	-11.78
882.402	76.29
882.574	23.04
882.746	47.62
882.918	111.1
883.09	68.09
883.262	37.38
883.434	23.04
883.606	-73.21
883.778	-36.35
883.95	133.63
884.122	-71.17
884.293	29.18
884.465	-54.78
884.637	96.77
884.809	-17.92
884.98	47.62
885.152	43.52
885.324	51.71
885.496	-28.16
885.667	-71.17
885.839	-11.78
886.011	47.62
886.182	25.09
886.354	16.9
886.525	2.56
886.697	-67.07
886.869	-65.02
887.04	-83.45
887.212	53.76
887.383	90.62
887.555	-46.59
887.726	-42.5
887.897	-11.78
888.069	18.94
888.24	70.14
888.412	0.51
888.583	-67.07
888.754	-71.17
888.926	-15.87
889.097	-30.21
889.268	-101.89
889.44	29.18
889.611	-75.26
889.782	-32.26
889.953	-42.5
890.125	96.77
890.296	-75.26
890.467	47.62
890.638	-75.26
890.809	12.8
890.98	-91.65
891.151	-19.97
891.323	84.48
891.494	-34.3
891.665	-3.58
891.836	-112.13
892.007	-44.54
892.178	4.61
892.349	-108.03
892.52	-56.83
892.691	8.7
892.862	-136.7
893.032	-153.09
893.203	-99.84
893.374	-19.97
893.545	88.57
893.716	-28.16
893.887	76.29
894.057	-34.3
894.228	-71.17
894.399	-52.74
894.57	98.81
894.74	-38.4
894.911	72.19
895.082	-77.31
895.253	-77.31
895.423	25.09
895.594	25.09
895.764	70.14
895.935	-48.64
896.106	33.28
896.276	-50.69
896.447	72.19
896.617	-114.17
896.788	-22.02
896.958	-1.54
897.129	-24.06
897.299	-19.97
897.47	104.96
897.64	51.71
897.81	-48.64
897.981	51.71
898.151	-69.12
898.322	16.9
898.492	27.14
898.662	-38.4
898.832	-3.58
899.003	-75.26
899.173	59.9
899.343	-128.51
899.513	-69.12
