Data from USB4F104151__92__10-45-03-065.txt Node

Date: Wed Feb 26 10:45:03 EST 2025
User: louis
Spectrometer: USB4F10415
Trigger mode: 4
Integration Time (sec): 1.000000E-1
Scans to average: 1
Electric dark correction enabled: true
Nonlinearity correction enabled: false
Boxcar width: 0
XAxis mode: Wavelengths
Number of Pixels in Spectrum: 3648
>>>>>Begin Spectral Data<<<<<
178.204	-365.39
178.424	-365.39
178.644	-365.39
178.864	-387.92
179.084	-332.62
179.304	54.44
179.524	-11.09
179.744	17.58
179.964	23.72
180.184	25.77
180.404	-29.52
180.624	-47.96
180.844	-2.9
181.064	-52.05
181.283	1.19
181.503	1.19
181.723	19.63
181.943	-121.68
182.163	189.61
182.383	-68.44
182.602	115.88
182.822	124.07
183.042	95.4
183.262	-93.01
183.482	36.01
183.701	68.78
183.921	76.97
184.141	17.58
184.361	119.98
184.58	115.88
184.8	105.64
185.02	-7
185.239	128.17
185.459	105.64
185.679	156.84
185.898	-37.72
186.118	91.31
186.338	64.68
186.557	105.64
186.777	-95.06
186.997	5.29
187.216	62.63
187.436	142.5
187.655	126.12
187.875	140.46
188.095	97.45
188.314	138.41
188.534	97.45
188.753	40.11
188.973	111.78
189.192	175.27
189.412	74.92
189.631	56.49
189.851	85.16
190.07	173.22
190.29	-21.33
190.509	42.15
190.729	74.92
190.948	158.89
191.168	281.77
191.387	64.68
191.607	21.67
191.826	81.07
192.045	25.77
192.265	1.19
192.484	11.43
192.704	19.63
192.923	-29.52
193.142	191.66
193.362	54.44
193.581	103.59
193.8	42.15
194.02	117.93
194.239	126.12
194.458	103.59
194.678	38.06
194.897	23.72
195.116	38.06
195.335	68.78
195.555	46.25
195.774	-31.57
195.993	136.36
196.212	38.06
196.432	7.34
196.651	-23.38
196.87	99.5
197.089	271.53
197.308	142.5
197.528	107.69
197.747	11.43
197.966	60.59
198.185	103.59
198.404	-66.39
198.623	46.25
198.842	107.69
199.062	150.7
199.281	89.26
199.5	56.49
199.719	101.55
199.938	56.49
200.157	83.11
200.376	89.26
200.595	119.98
200.814	150.7
201.033	25.77
201.252	144.55
201.471	89.26
201.69	56.49
201.909	60.59
202.128	144.55
202.347	38.06
202.566	-21.33
202.785	-70.48
203.004	-7
203.223	285.86
203.442	70.83
203.661	-74.58
203.879	31.91
204.098	173.22
204.317	7.34
204.536	124.07
204.755	93.35
204.974	154.79
205.193	7.34
205.411	68.78
205.63	58.54
205.849	-2.9
206.068	60.59
206.287	7.34
206.505	113.83
206.724	38.06
206.943	93.35
207.162	48.3
207.381	42.15
207.599	33.96
207.818	64.68
208.037	-70.48
208.255	25.77
208.474	54.44
208.693	31.91
208.911	-7
209.13	103.59
209.349	99.5
209.567	46.25
209.786	101.55
210.005	156.84
210.223	33.96
210.442	-133.97
210.661	54.44
210.879	107.69
211.098	11.43
211.316	115.88
211.535	83.11
211.753	119.98
211.972	38.06
212.191	60.59
212.409	68.78
212.628	130.22
212.846	19.63
213.065	72.87
213.283	136.36
213.502	50.35
213.72	-2.9
213.938	119.98
214.157	-23.38
214.375	122.02
214.594	76.97
214.812	81.07
215.031	-2.9
215.249	56.49
215.467	48.3
215.686	103.59
215.904	101.55
216.122	95.4
216.341	138.41
216.559	56.49
216.778	169.13
216.996	146.6
217.214	66.73
217.432	-62.29
217.651	-13.14
217.869	115.88
218.087	58.54
218.306	-52.05
218.524	62.63
218.742	38.06
218.96	64.68
219.179	19.63
219.397	68.78
219.615	285.86
219.833	-13.14
220.051	23.72
220.27	128.17
220.488	113.83
220.706	93.35
220.924	1.19
221.142	44.2
221.36	62.63
221.578	74.92
221.796	-7
222.015	81.07
222.233	97.45
222.451	160.94
222.669	13.48
222.887	87.21
223.105	13.48
223.323	17.58
223.541	-2.9
223.759	50.35
223.977	52.39
224.195	193.7
224.413	154.79
224.631	68.78
224.849	81.07
225.067	183.46
225.285	68.78
225.503	27.82
225.721	-60.24
225.939	11.43
226.157	-56.15
226.375	236.71
226.592	36.01
226.81	91.31
227.028	70.83
227.246	128.17
227.464	64.68
227.682	99.5
227.9	107.69
228.117	105.64
228.335	62.63
228.553	56.49
228.771	-15.19
228.989	76.97
229.206	130.22
229.424	-64.34
229.642	13.48
229.86	-74.58
230.077	111.78
230.295	42.15
230.513	146.6
230.731	29.87
230.948	162.98
231.166	216.23
231.384	-41.81
231.601	50.35
231.819	212.14
232.037	17.58
232.254	-2.9
232.472	36.01
232.689	62.63
232.907	17.58
233.125	-33.62
233.342	-11.09
233.56	62.63
233.777	-41.81
233.995	62.63
234.213	181.42
234.43	115.88
234.648	25.77
234.865	-21.33
235.083	142.5
235.3	83.11
235.518	79.02
235.735	152.74
235.953	68.78
236.17	50.35
236.388	95.4
236.605	52.39
236.822	38.06
237.04	115.88
237.257	64.68
237.475	-19.29
237.692	58.54
237.909	89.26
238.127	85.16
238.344	134.31
238.562	25.77
238.779	-60.24
238.996	5.29
239.214	3.24
239.431	162.98
239.648	-45.91
239.865	72.87
240.083	76.97
240.3	17.58
240.517	66.73
240.735	38.06
240.952	208.04
241.169	33.96
241.386	113.83
241.603	-2.9
241.821	-64.34
242.038	148.65
242.255	146.6
242.472	-27.48
242.689	158.89
242.907	72.87
243.124	60.59
243.341	23.72
243.558	87.21
243.775	1.19
243.992	-17.24
244.209	72.87
244.426	199.85
244.643	113.83
244.86	74.92
245.078	162.98
245.295	132.26
245.512	29.87
245.729	-9.05
245.946	124.07
246.163	-35.67
246.38	76.97
246.597	52.39
246.814	11.43
247.031	19.63
247.248	42.15
247.464	134.31
247.681	83.11
247.898	58.54
248.115	91.31
248.332	56.49
248.549	128.17
248.766	158.89
248.983	46.25
249.2	-0.85
249.417	126.12
249.633	-15.19
249.85	83.11
250.067	44.2
250.284	95.4
250.501	148.65
250.717	79.02
250.934	-37.72
251.151	42.15
251.368	83.11
251.585	25.77
251.801	113.83
252.018	-54.1
252.235	109.74
252.451	-99.16
252.668	58.54
252.885	158.89
253.102	64.68
253.318	33.96
253.535	-4.95
253.752	-23.38
253.968	-43.86
254.185	-0.85
254.401	1.19
254.618	85.16
254.835	9.39
255.051	173.22
255.268	76.97
255.484	29.87
255.701	76.97
255.917	115.88
256.134	21.67
256.351	81.07
256.567	-33.62
256.784	1.19
257	-84.82
257.217	146.6
257.433	201.9
257.65	23.72
257.866	124.07
258.082	-58.2
258.299	-7
258.515	-17.24
258.732	1.19
258.948	36.01
259.165	64.68
259.381	-23.38
259.597	64.68
259.814	9.39
260.03	56.49
260.246	46.25
260.463	158.89
260.679	70.83
260.895	46.25
261.112	48.3
261.328	-11.09
261.544	38.06
261.761	150.7
261.977	25.77
262.193	-54.1
262.409	52.39
262.626	-37.72
262.842	44.2
263.058	-41.81
263.274	95.4
263.49	48.3
263.707	66.73
263.923	107.69
264.139	-23.38
264.355	40.11
264.571	144.55
264.787	85.16
265.004	130.22
265.22	136.36
265.436	42.15
265.652	44.2
265.868	115.88
266.084	54.44
266.3	15.53
266.516	-47.96
266.732	7.34
266.948	21.67
267.164	101.55
267.38	160.94
267.596	72.87
267.812	109.74
268.028	25.77
268.244	23.72
268.46	128.17
268.676	44.2
268.892	40.11
269.108	-68.44
269.324	40.11
269.54	-43.86
269.756	154.79
269.972	-70.48
270.188	-19.29
270.403	9.39
270.619	19.63
270.835	58.54
271.051	40.11
271.267	64.68
271.483	-15.19
271.698	85.16
271.914	58.54
272.13	25.77
272.346	33.96
272.562	5.29
272.777	70.83
272.993	23.72
273.209	44.2
273.425	89.26
273.64	5.29
273.856	68.78
274.072	-21.33
274.287	-2.9
274.503	79.02
274.719	111.78
274.934	25.77
275.15	-45.91
275.366	-21.33
275.581	-31.57
275.797	91.31
276.012	89.26
276.228	40.11
276.444	58.54
276.659	85.16
276.875	-70.48
277.09	3.24
277.306	68.78
277.521	17.58
277.737	25.77
277.952	31.91
278.168	11.43
278.383	89.26
278.599	64.68
278.814	95.4
279.03	128.17
279.245	193.7
279.461	76.97
279.676	124.07
279.892	-17.24
280.107	-56.15
280.322	-105.3
280.538	138.41
280.753	-58.2
280.969	62.63
281.184	74.92
281.399	81.07
281.615	62.63
281.83	31.91
282.045	-50
282.26	5.29
282.476	171.18
282.691	105.64
282.906	7.34
283.122	142.5
283.337	-33.62
283.552	91.31
283.767	36.01
283.983	95.4
284.198	31.91
284.413	99.5
284.628	-35.67
284.843	81.07
285.058	72.87
285.274	38.06
285.489	23.72
285.704	124.07
285.919	56.49
286.134	9.39
286.349	72.87
286.564	50.35
286.779	146.6
286.995	31.91
287.21	-93.01
287.425	60.59
287.64	-13.14
287.855	101.55
288.07	-58.2
288.285	154.79
288.5	156.84
288.715	89.26
288.93	70.83
289.145	-31.57
289.36	113.83
289.575	33.96
289.79	165.03
290.004	-50
290.219	144.55
290.434	-41.81
290.649	54.44
290.864	-47.96
291.079	17.58
291.294	36.01
291.509	36.01
291.724	9.39
291.938	-0.85
292.153	50.35
292.368	48.3
292.583	91.31
292.798	50.35
293.012	79.02
293.227	21.67
293.442	21.67
293.657	54.44
293.871	146.6
294.086	101.55
294.301	205.99
294.516	87.21
294.73	83.11
294.945	46.25
295.16	107.69
295.374	109.74
295.589	50.35
295.804	68.78
296.018	54.44
296.233	128.17
296.447	19.63
296.662	25.77
296.877	95.4
297.091	46.25
297.306	103.59
297.52	42.15
297.735	95.4
297.949	119.98
298.164	54.44
298.378	105.64
298.593	52.39
298.807	-9.05
299.022	-27.48
299.236	230.57
299.451	19.63
299.665	29.87
299.88	-27.48
300.094	48.3
300.309	40.11
300.523	70.83
300.737	-17.24
300.952	52.39
301.166	124.07
301.381	-50
301.595	76.97
301.809	-7
302.024	-41.81
302.238	60.59
302.452	52.39
302.667	17.58
302.881	109.74
303.095	158.89
303.309	91.31
303.524	60.59
303.738	9.39
303.952	11.43
304.166	97.45
304.381	-35.67
304.595	95.4
304.809	23.72
305.023	31.91
305.237	21.67
305.452	17.58
305.666	87.21
305.88	97.45
306.094	72.87
306.308	50.35
306.522	144.55
306.736	101.55
306.95	191.66
307.164	-15.19
307.379	25.77
307.593	158.89
307.807	70.83
308.021	60.59
308.235	132.26
308.449	-84.82
308.663	29.87
308.877	230.57
309.091	56.49
309.305	64.68
309.519	-19.29
309.733	158.89
309.947	-13.14
310.161	136.36
310.374	107.69
310.588	91.31
310.802	54.44
311.016	9.39
311.23	136.36
311.444	-13.14
311.658	21.67
311.872	91.31
312.085	50.35
312.299	111.78
312.513	115.88
312.727	29.87
312.941	50.35
313.154	95.4
313.368	89.26
313.582	-13.14
313.796	46.25
314.009	44.2
314.223	138.41
314.437	146.6
314.651	52.39
314.864	-31.57
315.078	25.77
315.292	7.34
315.505	27.82
315.719	68.78
315.933	101.55
316.146	23.72
316.36	-88.92
316.573	175.27
316.787	81.07
317.001	79.02
317.214	-21.33
317.428	93.35
317.641	-4.95
317.855	52.39
318.068	-2.9
318.282	89.26
318.495	228.52
318.709	46.25
318.922	-13.14
319.136	175.27
319.349	115.88
319.563	38.06
319.776	83.11
319.99	-62.29
320.203	148.65
320.417	99.5
320.63	68.78
320.843	175.27
321.057	83.11
321.27	40.11
321.483	66.73
321.697	142.5
321.91	58.54
322.124	17.58
322.337	29.87
322.55	33.96
322.763	101.55
322.977	56.49
323.19	-9.05
323.403	42.15
323.617	117.93
323.83	124.07
324.043	-15.19
324.256	105.64
324.469	-43.86
324.683	134.31
324.896	9.39
325.109	29.87
325.322	-74.58
325.535	134.31
325.748	70.83
325.962	33.96
326.175	99.5
326.388	93.35
326.601	138.41
326.814	42.15
327.027	76.97
327.24	158.89
327.453	-136.02
327.666	89.26
327.879	142.5
328.092	95.4
328.305	23.72
328.518	-64.34
328.731	25.77
328.944	-17.24
329.157	93.35
329.37	13.48
329.583	253.09
329.796	193.7
330.009	-76.63
330.222	66.73
330.435	154.79
330.648	103.59
330.861	99.5
331.073	48.3
331.286	134.31
331.499	1.19
331.712	5.29
331.925	40.11
332.138	81.07
332.35	181.42
332.563	-4.95
332.776	136.36
332.989	-41.81
333.202	105.64
333.414	44.2
333.627	50.35
333.84	36.01
334.053	101.55
334.265	15.53
334.478	25.77
334.691	85.16
334.903	101.55
335.116	-11.09
335.329	60.59
335.541	15.53
335.754	162.98
335.966	13.48
336.179	42.15
336.392	-15.19
336.604	31.91
336.817	68.78
337.029	126.12
337.242	62.63
337.454	83.11
337.667	44.2
337.88	134.31
338.092	68.78
338.305	83.11
338.517	-70.48
338.729	83.11
338.942	183.46
339.154	-27.48
339.367	-21.33
339.579	83.11
339.792	-9.05
340.004	58.54
340.217	5.29
340.429	72.87
340.641	-54.1
340.854	5.29
341.066	33.96
341.278	177.32
341.491	93.35
341.703	58.54
341.915	-9.05
342.128	91.31
342.34	31.91
342.552	11.43
342.764	-29.52
342.977	64.68
343.189	72.87
343.401	95.4
343.613	-45.91
343.826	132.26
344.038	19.63
344.25	29.87
344.462	-39.76
344.674	48.3
344.886	19.63
345.099	66.73
345.311	89.26
345.523	-13.14
345.735	-68.44
345.947	44.2
346.159	31.91
346.371	140.46
346.583	23.72
346.795	109.74
347.007	42.15
347.219	83.11
347.431	52.39
347.643	99.5
347.855	62.63
348.067	130.22
348.279	-74.58
348.491	58.54
348.703	60.59
348.915	44.2
349.127	-74.58
349.339	-0.85
349.551	-39.76
349.763	195.75
349.975	130.22
350.187	150.7
350.399	130.22
350.61	87.21
350.822	7.34
351.034	91.31
351.246	134.31
351.458	142.5
351.669	126.12
351.881	70.83
352.093	150.7
352.305	142.5
352.517	79.02
352.728	160.94
352.94	87.21
353.152	19.63
353.363	29.87
353.575	62.63
353.787	191.66
353.999	7.34
354.21	275.62
354.422	-35.67
354.633	3.24
354.845	46.25
355.057	27.82
355.268	62.63
355.48	97.45
355.692	-39.76
355.903	29.87
356.115	50.35
356.326	-58.2
356.538	113.83
356.749	107.69
356.961	160.94
357.172	-35.67
357.384	-33.62
357.595	150.7
357.807	-21.33
358.018	15.53
358.23	25.77
358.441	197.8
358.653	142.5
358.864	87.21
359.075	-78.68
359.287	56.49
359.498	171.18
359.709	91.31
359.921	50.35
360.132	68.78
360.344	93.35
360.555	-19.29
360.766	117.93
360.977	91.31
361.189	103.59
361.4	17.58
361.611	201.9
361.823	140.46
362.034	60.59
362.245	-56.15
362.456	74.92
362.667	60.59
362.879	17.58
363.09	54.44
363.301	72.87
363.512	97.45
363.723	42.15
363.935	52.39
364.146	99.5
364.357	-43.86
364.568	115.88
364.779	-21.33
364.99	154.79
365.201	-27.48
365.412	167.08
365.623	-109.4
365.834	56.49
366.045	68.78
366.256	11.43
366.467	105.64
366.678	9.39
366.889	105.64
367.1	42.15
367.311	169.13
367.522	7.34
367.733	36.01
367.944	79.02
368.155	-13.14
368.366	201.9
368.577	64.68
368.788	154.79
368.999	27.82
369.209	89.26
369.42	93.35
369.631	150.7
369.842	124.07
370.053	33.96
370.264	134.31
370.474	-66.39
370.685	132.26
370.896	-4.95
371.107	171.18
371.317	68.78
371.528	105.64
371.739	107.69
371.95	126.12
372.16	119.98
372.371	-43.86
372.582	95.4
372.792	62.63
373.003	15.53
373.214	70.83
373.424	72.87
373.635	17.58
373.846	148.65
374.056	33.96
374.267	62.63
374.477	97.45
374.688	17.58
374.898	40.11
375.109	76.97
375.319	74.92
375.53	107.69
375.74	81.07
375.951	38.06
376.161	66.73
376.372	66.73
376.582	29.87
376.793	107.69
377.003	66.73
377.214	-64.34
377.424	66.73
377.635	-7
377.845	58.54
378.055	103.59
378.266	-39.76
378.476	9.39
378.686	136.36
378.897	46.25
379.107	126.12
379.317	83.11
379.528	56.49
379.738	111.78
379.948	-27.48
380.158	89.26
380.369	72.87
380.579	56.49
380.789	76.97
380.999	93.35
381.21	154.79
381.42	142.5
381.63	17.58
381.84	76.97
382.05	148.65
382.261	152.74
382.471	126.12
382.681	-4.95
382.891	201.9
383.101	109.74
383.311	13.48
383.521	29.87
383.731	87.21
383.941	122.02
384.151	93.35
384.361	50.35
384.571	89.26
384.781	83.11
384.991	113.83
385.201	187.56
385.411	136.36
385.621	85.16
385.831	79.02
386.041	76.97
386.251	36.01
386.461	140.46
386.671	62.63
386.881	36.01
387.091	-15.19
387.301	183.46
387.511	76.97
387.72	60.59
387.93	103.59
388.14	-23.38
388.35	19.63
388.56	162.98
388.769	109.74
388.979	93.35
389.189	38.06
389.399	9.39
389.609	150.7
389.818	199.85
390.028	62.63
390.238	5.29
390.447	13.48
390.657	50.35
390.867	124.07
391.076	-52.05
391.286	31.91
391.496	33.96
391.705	79.02
391.915	107.69
392.125	119.98
392.334	-21.33
392.544	103.59
392.753	13.48
392.963	-17.24
393.172	113.83
393.382	36.01
393.591	132.26
393.801	103.59
394.01	124.07
394.22	44.2
394.429	7.34
394.639	-2.9
394.848	48.3
395.058	25.77
395.267	54.44
395.477	111.78
395.686	122.02
395.895	95.4
396.105	197.8
396.314	54.44
396.524	42.15
396.733	70.83
396.942	179.37
397.152	156.84
397.361	160.94
397.57	-4.95
397.78	48.3
397.989	-4.95
398.198	109.74
398.407	60.59
398.617	-9.05
398.826	119.98
399.035	66.73
399.244	148.65
399.453	62.63
399.663	132.26
399.872	70.83
400.081	-17.24
400.29	91.31
400.499	-33.62
400.708	113.83
400.917	83.11
401.127	-2.9
401.336	46.25
401.545	205.99
401.754	160.94
401.963	81.07
402.172	83.11
402.381	-43.86
402.59	-2.9
402.799	-11.09
403.008	103.59
403.217	52.39
403.426	21.67
403.635	-62.29
403.844	46.25
404.053	52.39
404.262	19.63
404.471	132.26
404.68	109.74
404.888	74.92
405.097	60.59
405.306	36.01
405.515	97.45
405.724	36.01
405.933	160.94
406.142	52.39
406.35	111.78
406.559	25.77
406.768	107.69
406.977	261.29
407.185	52.39
407.394	138.41
407.603	-13.14
407.812	89.26
408.02	62.63
408.229	48.3
408.438	25.77
408.646	-62.29
408.855	103.59
409.064	23.72
409.272	66.73
409.481	109.74
409.69	-4.95
409.898	-23.38
410.107	72.87
410.315	199.85
410.524	-41.81
410.733	68.78
410.941	115.88
411.15	160.94
411.358	64.68
411.567	134.31
411.775	52.39
411.984	19.63
412.192	70.83
412.401	31.91
412.609	283.81
412.818	119.98
413.026	62.63
413.234	17.58
413.443	46.25
413.651	-4.95
413.86	-21.33
414.068	218.28
414.276	152.74
414.485	-0.85
414.693	162.98
414.901	226.47
415.11	107.69
415.318	-11.09
415.526	99.5
415.734	142.5
415.943	89.26
416.151	171.18
416.359	117.93
416.567	126.12
416.776	113.83
416.984	150.7
417.192	199.85
417.4	-37.72
417.608	5.29
417.817	38.06
418.025	171.18
418.233	117.93
418.441	33.96
418.649	-9.05
418.857	70.83
419.065	140.46
419.273	5.29
419.481	87.21
419.689	27.82
419.897	13.48
420.105	-11.09
420.313	62.63
420.521	91.31
420.729	117.93
420.937	15.53
421.145	13.48
421.353	140.46
421.561	201.9
421.769	99.5
421.977	33.96
422.185	81.07
422.393	9.39
422.601	119.98
422.809	38.06
423.017	81.07
423.224	19.63
423.432	138.41
423.64	58.54
423.848	113.83
424.056	9.39
424.263	173.22
424.471	-17.24
424.679	134.31
424.887	17.58
425.094	103.59
425.302	115.88
425.51	17.58
425.718	99.5
425.925	130.22
426.133	36.01
426.341	226.47
426.548	79.02
426.756	40.11
426.964	128.17
427.171	27.82
427.379	97.45
427.586	52.39
427.794	97.45
428.001	177.32
428.209	105.64
428.417	177.32
428.624	160.94
428.832	158.89
429.039	105.64
429.247	31.91
429.454	203.94
429.662	158.89
429.869	128.17
430.076	109.74
430.284	171.18
430.491	240.81
430.699	212.14
430.906	265.38
431.114	165.03
431.321	146.6
431.528	150.7
431.736	136.36
431.943	224.42
432.15	148.65
432.358	197.8
432.565	203.94
432.772	79.02
432.979	255.14
433.187	169.13
433.394	265.38
433.601	111.78
433.808	246.95
434.016	259.24
434.223	201.9
434.43	191.66
434.637	253.09
434.844	236.71
435.052	269.48
435.259	244.9
435.466	316.58
435.673	306.34
435.88	273.57
436.087	320.68
436.294	406.69
436.501	425.12
436.708	306.34
436.915	357.54
437.122	312.49
437.329	324.77
437.537	429.22
437.743	402.6
437.95	478.37
438.157	414.88
438.364	378.02
438.571	361.64
438.778	441.51
438.985	410.79
439.192	482.47
439.399	527.52
439.606	556.19
439.813	548
440.02	646.3
440.227	728.22
440.433	601.25
440.64	554.15
440.847	584.87
441.054	644.26
441.261	748.7
441.467	674.98
441.674	631.97
441.881	822.43
442.088	740.51
442.294	797.85
442.501	873.63
442.708	847.01
442.914	814.24
443.121	920.73
443.328	902.3
443.534	1068.19
443.741	930.97
443.948	918.68
444.154	1105.05
444.361	1234.07
444.568	1131.67
444.774	1209.5
444.981	1098.91
445.187	1289.37
445.394	1330.33
445.6	1189.02
445.807	1385.62
446.013	1369.24
446.22	1381.53
446.426	1453.2
446.633	1551.51
446.839	1737.87
447.046	1520.79
447.252	1709.2
447.459	1733.78
447.665	1715.34
447.871	1813.65
448.078	2096.27
448.284	1989.77
448.491	2129.03
448.697	2307.21
448.903	2342.02
449.11	2425.99
449.316	2276.49
449.522	2600.07
449.728	2587.78
449.935	2657.41
450.141	2698.37
450.347	2778.24
450.553	2907.26
450.76	2944.13
450.966	3056.76
451.172	3165.31
451.378	3249.27
451.584	3447.93
451.791	3687.54
451.997	3867.76
452.203	3947.63
452.409	3996.78
452.615	4164.72
452.821	4009.07
453.027	4119.66
453.233	4789.35
453.44	4314.22
453.646	4842.59
453.852	5053.53
454.058	5157.98
454.264	5260.38
454.47	5815.38
454.676	5721.17
454.882	6083.66
455.088	5760.08
455.294	6335.56
455.5	6564.93
455.705	6876.23
455.911	7040.06
456.117	7232.57
456.323	7588.92
456.529	7369.79
456.735	8205.36
456.941	8313.9
457.147	8657.96
457.352	8823.84
457.558	9049.12
457.764	9657.37
457.97	9794.58
458.176	10339.34
458.381	10777.61
458.587	11045.89
458.793	11584.51
458.999	11529.21
459.204	12993.51
459.41	13466.59
459.616	13069.28
459.821	14193.62
460.027	14533.58
460.233	15297.47
460.438	15139.78
460.644	16333.75
460.85	16481.2
461.055	17005.48
461.261	17865.63
461.466	17517.47
461.672	17963.93
461.878	20157.3
462.083	19411.84
462.289	20142.97
462.494	20839.28
462.7	20913
462.905	21275.49
463.111	23063.37
463.316	24288.06
463.522	24699.7
463.727	25269.03
463.932	26080.03
464.138	27101.97
464.343	28111.61
464.549	28287.74
464.754	30493.4
464.959	31496.91
465.165	31863.49
465.37	31816.39
465.575	31773.38
465.781	33725.1
465.986	34968.21
466.191	33977
466.397	34509.47
466.602	33778.34
466.807	35576.46
467.012	36127.36
467.218	36782.71
467.423	36729.47
467.628	38369.89
467.833	39955.02
468.038	39174.74
468.244	38716
468.449	40528.45
468.654	39674.45
468.859	39504.46
469.064	39887.43
469.269	38959.7
469.474	39109.21
469.679	40436.29
469.885	39199.32
470.09	40084.04
470.295	39836.23
470.5	39035.48
470.705	39273.04
470.91	37882.47
471.115	37571.18
471.32	38482.53
471.525	38132.32
471.73	36917.88
471.935	36899.45
472.139	35596.94
472.344	35926.66
472.549	35213.97
472.754	34751.13
472.959	33993.38
473.164	33047.22
473.369	32289.47
473.574	33706.66
473.778	32506.55
473.983	32080.58
474.188	31494.86
474.393	29717.22
474.598	29749.99
474.802	29031.15
475.007	29166.32
475.212	28392.19
475.417	27511.56
475.621	27036.43
475.826	27118.35
476.031	26131.23
476.235	25609
476.44	25948.96
476.645	25070.38
476.849	24982.32
477.054	24720.18
477.259	23710.53
477.463	23796.54
477.668	22950.73
477.872	23067.47
478.077	22588.24
478.282	21932.89
478.486	21719.9
478.691	21812.06
478.895	21533.54
479.1	21132.14
479.304	21154.66
479.509	20388.72
479.713	20673.39
479.918	20138.87
480.122	19714.94
480.326	19704.7
480.531	19880.83
480.735	19501.95
480.94	19082.12
481.144	19809.15
481.348	18860.94
481.553	18826.12
481.757	18512.78
481.961	18570.13
482.166	19002.25
482.37	18563.98
482.574	17843.1
482.778	18209.68
482.983	18199.44
483.187	18103.19
483.391	17648.54
483.595	17462.18
483.8	17376.16
484.004	17413.02
484.208	17384.35
484.412	16772.01
484.616	16868.27
484.821	16647.08
485.025	16135.09
485.229	16305.07
485.433	16106.42
485.637	15827.9
485.841	15684.54
486.045	15424.45
486.249	15320
486.453	14951.37
486.657	14650.32
486.861	14611.4
487.065	14046.16
487.269	14177.23
487.473	13454.3
487.677	13904.85
487.881	13904.85
488.085	13083.62
488.289	12948.45
488.493	12938.21
488.697	12725.22
488.901	12620.78
489.105	12151.79
489.309	12002.29
489.512	11955.19
489.716	11820.02
489.92	11291.65
490.124	11068.42
490.328	11375.61
490.531	10683.4
490.735	10820.61
490.939	10470.41
491.143	10349.58
491.346	10165.26
491.55	9847.83
491.754	9794.58
491.958	9618.46
492.161	9387.04
492.365	9432.09
492.569	9083.94
492.772	9088.03
492.976	8993.83
493.18	8670.25
493.383	8780.84
493.587	8533.03
493.79	8649.77
493.994	8375.34
494.197	8344.62
494.401	8274.99
494.605	8092.72
494.808	8021.04
495.012	8121.39
495.215	8002.61
495.419	8064.05
495.622	7894.07
495.825	7685.17
496.029	7674.93
496.232	7898.16
496.436	7660.6
496.639	7861.3
496.843	7613.49
497.046	7816.24
497.249	7765.04
497.453	7521.34
497.656	7582.77
497.859	7418.94
498.063	7664.69
498.266	7715.89
498.469	7531.58
498.673	7711.8
498.876	7803.96
499.079	7826.48
499.282	7730.23
499.485	7853.11
499.689	7660.6
499.892	7904.31
500.095	7814.2
500.298	7877.68
500.501	7763
500.705	8287.28
500.908	8041.52
501.111	8231.98
501.314	8246.32
501.517	8258.6
501.72	8115.25
501.923	8320.04
502.126	8592.42
502.329	8801.32
502.532	8766.5
502.735	8764.45
502.938	9081.89
503.141	9143.33
503.344	9258.01
503.547	9384.99
503.75	9255.97
503.953	9507.87
504.156	9573.4
504.359	9692.18
504.562	9692.18
504.765	10054.67
504.968	10210.32
505.17	10341.39
505.373	10370.06
505.576	10642.44
505.779	10599.43
505.982	10714.12
506.185	11207.68
506.387	11348.99
506.59	11461.63
506.793	11549.69
506.996	11721.72
507.198	12250.1
507.401	12090.35
507.604	12452.84
507.807	12762.09
508.009	13067.24
508.212	13149.15
508.415	13429.73
508.617	13579.23
508.82	13886.42
509.022	13968.34
509.225	14799.82
509.428	14711.75
509.63	15053.76
509.833	15377.34
510.035	15854.52
510.238	16286.64
510.44	16194.48
510.643	16851.88
510.845	17142.69
511.048	17433.5
511.25	17736.6
511.453	18285.46
511.655	18959.24
511.858	19041.16
512.06	19501.95
512.262	19708.8
512.465	20388.72
512.667	20718.45
512.87	21195.62
513.072	21676.9
513.274	22369.11
513.477	22565.71
513.679	23003.98
513.881	23683.91
514.084	24095.55
514.286	24738.61
514.488	24990.51
514.69	25924.38
514.893	26260.25
515.095	26749.71
515.297	27527.94
515.499	27675.4
515.701	28330.75
515.904	29348.59
516.106	29836
516.308	29995.74
516.51	30946
516.712	31138.51
516.914	32119.49
517.116	32985.78
517.318	33448.62
517.52	33563.31
517.722	34185.89
517.925	34884.25
518.127	35619.47
518.329	36418.17
518.531	36729.47
518.733	37339.76
518.935	37890.66
519.136	38687.32
519.338	39207.51
519.54	39754.32
519.742	40837.69
519.944	40882.75
520.146	41935.4
520.348	42009.13
520.55	42713.63
520.752	43024.92
520.954	43911.69
521.155	44202.5
521.357	44640.77
521.559	45289.98
521.761	46066.16
521.963	46113.26
522.164	46217.71
522.366	46516.71
522.568	47546.84
522.77	47552.98
522.971	48320.97
523.173	47860.18
523.375	48310.73
523.576	48366.02
523.778	48646.6
523.98	49220.03
524.181	49695.16
524.383	49559.99
524.584	50147.76
524.786	49871.28
524.988	49820.08
525.189	50401.71
525.391	50553.26
525.592	50622.89
525.794	50450.86
525.995	50463.14
526.197	49914.29
526.398	50547.11
526.6	50590.12
526.801	50061.74
527.003	50203.05
527.204	49553.85
527.406	50121.13
527.607	49396.15
527.808	49740.21
528.01	49004.99
528.211	48636.36
528.412	48665.03
528.614	48740.8
528.815	48015.82
529.016	48175.56
529.218	46854.62
529.419	47061.47
529.62	46524.9
529.822	46266.86
530.023	45677.04
530.224	45158.91
530.425	45033.98
530.626	44311.05
530.828	43729.42
531.029	44317.19
531.23	42908.19
531.431	42746.4
531.632	42467.87
531.833	42205.73
532.035	41386.55
532.236	40927.8
532.437	40557.12
532.638	40159.81
532.839	39756.36
533.04	39516.75
533.241	38427.23
533.442	38351.46
533.643	37534.32
533.844	36948.6
534.045	37046.9
534.246	35742.35
534.447	36119.17
534.648	35441.29
534.849	34953.88
535.05	34009.76
535.251	33856.17
535.451	33301.17
535.652	33215.15
535.853	32289.47
536.054	32125.63
536.255	31732.42
536.456	31152.85
536.657	31081.17
536.857	30542.55
537.058	30192.35
537.259	29958.88
537.46	28947.18
537.66	28850.93
537.861	28635.89
538.062	27865.86
538.263	27357.96
538.463	27300.62
538.664	26954.51
538.865	26452.76
539.065	26569.49
539.266	25840.42
539.466	25908
539.667	25285.42
539.868	25434.92
540.068	24869.68
540.269	24492.85
540.469	24337.21
540.67	23702.34
540.87	23837.5
541.071	23323.46
541.271	23112.52
541.472	23006.03
541.672	22545.23
541.873	22387.54
542.073	21816.16
542.274	21951.32
542.474	21592.93
542.675	21240.68
542.875	21054.31
543.075	20816.75
543.276	20599.66
543.476	20460.4
543.676	20198.26
543.877	19841.92
544.077	20011.9
544.277	19493.76
544.478	19256.2
544.678	19248
544.878	19121.03
545.078	18535.31
545.279	18506.64
545.479	18207.64
545.679	17908.63
545.879	17765.28
546.079	17490.85
546.28	16987.05
546.48	16759.72
546.68	17095.59
546.88	16774.06
547.08	16599.98
547.28	16266.16
547.48	15956.92
547.68	15971.25
547.88	15909.82
548.081	15823.8
548.281	15291.33
548.481	15287.23
548.681	15295.43
548.881	14951.37
549.081	14691.27
549.28	14515.15
549.48	14234.58
549.68	14029.78
549.88	14164.95
550.08	13790.17
550.28	13411.29
550.48	13546.46
550.68	13419.49
550.88	13093.86
551.08	12864.49
551.279	12782.57
551.479	12282.86
551.679	12549.1
551.879	12039.15
552.079	12084.21
552.278	11822.07
552.478	11543.55
552.678	11385.85
552.878	11340.8
553.077	11187.2
553.277	10892.29
553.477	10767.37
553.676	10740.74
553.876	10408.97
554.076	10370.06
554.275	10269.71
554.475	9978.9
554.674	9956.37
554.874	9653.27
555.074	9526.3
555.273	9466.91
555.473	9182.24
555.672	9141.28
555.872	9010.21
556.071	8668.2
556.271	8795.17
556.47	8371.24
556.67	8348.72
556.869	8322.09
557.068	8193.07
557.268	7947.31
557.467	7971.89
557.667	7971.89
557.866	7674.93
558.065	7357.5
558.265	7431.23
558.464	7154.75
558.663	7248.96
558.863	6900.8
559.062	6919.23
559.261	6661.19
559.461	6810.69
559.66	6485.06
559.859	6222.92
560.058	6356.04
560.258	6114.38
560.457	6184.01
560.656	6251.6
560.855	5973.07
561.054	6009.93
561.253	5780.56
561.453	5715.03
561.652	5792.85
561.851	5618.77
562.05	5358.68
562.249	5205.08
562.448	5442.65
562.647	5207.13
562.846	5182.56
563.045	5145.69
563.244	4932.7
563.443	4891.74
563.642	4885.6
563.841	4815.97
564.04	4756.58
564.239	4891.74
564.438	4406.38
564.637	4367.46
564.836	4484.2
565.035	4365.42
565.234	4322.41
565.432	4291.69
565.631	4269.16
565.83	4203.63
566.029	4011.12
566.228	4095.08
566.427	4037.74
566.625	3736.69
566.824	3961.97
567.023	3689.59
567.222	3617.91
567.42	3691.63
567.619	3662.96
567.818	3484.79
568.016	3652.72
568.215	3325.05
568.414	3435.64
568.612	3378.3
568.811	3269.75
569.01	3306.62
569.208	3112.06
569.407	3247.23
569.605	3171.45
569.804	3075.2
570.002	3056.76
570.201	3011.71
570.4	2950.27
570.598	2952.32
570.797	2872.45
570.995	2772.1
571.193	2694.27
571.392	2843.78
571.59	2782.34
571.789	2743.42
571.987	2702.47
572.186	2663.55
572.384	2481.28
572.582	2602.11
572.781	2622.59
572.979	2348.17
573.177	2319.5
573.376	2421.89
573.574	2407.56
573.772	2360.45
573.971	2352.26
574.169	2176.14
574.367	2245.77
574.565	2116.75
574.763	2032.78
574.962	2086.03
575.16	2043.02
575.358	1907.85
575.556	2079.88
575.754	1928.33
575.952	1948.81
576.151	1901.71
576.349	1932.43
576.547	1846.41
576.745	1854.61
576.943	1887.37
577.141	1688.72
577.339	1631.38
577.537	1707.15
577.735	1725.58
577.933	1594.51
578.131	1633.43
578.329	1764.5
578.527	1561.75
578.725	1641.62
578.923	1479.83
579.121	1504.4
579.319	1397.91
579.516	1569.94
579.714	1598.61
579.912	1445.01
580.11	1338.52
580.308	1440.92
580.506	1369.24
580.704	1266.84
580.901	1244.31
581.099	1412.25
581.297	1281.18
581.495	1234.07
581.692	1213.59
581.89	1281.18
582.088	1338.52
582.285	1285.27
582.483	1123.48
582.681	1117.34
582.878	1238.17
583.076	1111.19
583.274	1191.06
583.471	1178.78
583.669	1117.34
583.866	1055.9
584.064	941.21
584.262	1041.56
584.459	967.84
584.657	1084.57
584.854	1176.73
585.052	945.31
585.249	1045.66
585.447	990.36
585.644	898.2
585.841	1010.84
586.039	976.03
586.236	998.56
586.434	826.53
586.631	808.09
586.828	849.05
587.026	851.1
587.223	826.53
587.42	738.46
587.618	765.09
587.815	980.12
588.012	855.2
588.21	736.42
588.407	890.01
588.604	783.52
588.801	765.09
588.999	777.37
589.196	883.87
589.393	720.03
589.59	754.85
589.787	777.37
589.984	857.25
590.182	668.83
590.379	652.45
590.576	709.79
590.773	623.78
590.97	724.13
591.167	625.83
591.364	752.8
591.561	691.36
591.758	824.48
591.955	707.74
592.152	773.28
592.349	642.21
592.546	670.88
592.743	672.93
592.94	695.46
593.137	750.75
593.334	793.76
593.531	732.32
593.727	797.85
593.924	781.47
594.121	664.74
594.318	728.22
594.515	758.94
594.712	779.42
594.908	822.43
595.105	662.69
595.302	787.61
595.499	785.57
595.696	885.92
595.892	711.84
596.089	935.07
596.286	767.13
596.482	902.3
596.679	869.53
596.876	787.61
597.072	990.36
597.269	887.97
597.466	1000.6
597.662	969.88
597.859	949.4
598.055	971.93
598.252	1039.51
598.448	1162.39
598.645	1127.58
598.841	1113.24
599.038	1332.37
599.234	1369.24
599.431	1338.52
599.627	1289.37
599.824	1418.39
600.02	1359
600.217	1428.63
600.413	1578.13
600.609	1578.13
600.806	1866.89
601.002	1676.43
601.198	1674.39
601.395	1852.56
601.591	1887.37
601.787	1942.67
601.984	2104.46
602.18	2155.66
602.376	2163.85
602.572	2366.6
602.769	2393.22
602.965	2415.75
603.161	2649.22
603.357	2653.31
603.553	2923.65
603.75	2780.29
603.946	2835.58
604.142	3075.2
604.338	3183.74
604.534	3177.59
604.73	3323
604.926	3392.63
605.122	3517.56
605.318	3624.05
605.514	3900.53
605.71	3679.35
605.906	4074.6
606.102	4134
606.298	4426.86
606.494	4396.14
606.69	4476.01
606.886	4648.04
607.082	4674.66
607.278	4830.3
607.474	5008.48
607.67	5178.46
607.866	5289.05
608.062	5536.85
608.257	5608.53
608.453	5583.96
608.649	6112.33
608.845	6093.9
609.041	6251.6
609.236	6405.19
609.432	6528.07
609.628	6792.26
609.824	6966.34
610.019	7093.31
610.215	7244.86
610.411	7468.09
610.606	7810.1
610.802	7822.39
610.998	8213.55
611.193	8225.84
611.389	8334.38
611.584	8688.68
611.78	8737.83
611.976	9100.32
612.171	9548.82
612.367	9577.5
612.562	10083.34
612.758	9896.98
612.953	10255.37
613.149	10697.74
613.344	10963.97
613.539	11459.58
613.735	11703.29
613.93	11750.39
614.126	12336.11
614.321	12569.58
614.517	12917.73
614.712	13079.52
614.907	13552.6
615.103	13769.69
615.298	14076.88
615.493	14590.92
615.688	14552.01
615.884	15406.02
616.079	15367.1
616.274	16329.65
616.47	16335.79
616.665	16780.2
616.86	17226.66
617.055	17583.01
617.25	18086.81
617.445	18832.27
617.641	18586.51
617.836	19510.14
618.031	19968.89
618.226	20714.35
618.421	20788.08
618.616	21361.51
618.811	21498.72
619.006	22354.77
619.201	22569.81
619.396	23294.79
619.591	23583.55
619.786	24451.89
619.981	24533.81
620.176	25457.45
620.371	25619.24
620.566	26524.44
620.761	27003.66
620.956	27818.75
621.151	28080.89
621.346	28824.31
621.541	28619.51
621.735	29801.19
621.93	30059.23
622.125	30560.98
622.32	31115.98
622.515	31797.96
622.709	32350.91
622.904	33094.32
623.099	33743.53
623.294	34173.6
623.488	34732.7
623.683	35510.92
623.878	35607.18
624.072	36424.32
624.267	36893.3
624.462	37898.86
624.656	37761.64
624.851	38789.72
625.046	39238.23
625.24	40153.67
625.435	40211.01
625.629	40604.22
625.824	41120.31
626.018	41638.45
626.213	42013.23
626.407	43000.35
626.602	42824.22
626.796	43991.56
626.991	44044.81
627.185	44651.01
627.38	44714.5
627.574	44995.07
627.768	44984.83
627.963	45275.64
628.157	45326.84
628.352	45840.88
628.546	45187.58
628.74	46029.29
628.935	45560.31
629.129	46062.06
629.323	45134.33
629.517	45785.58
629.712	45566.45
629.906	44710.4
630.1	44122.63
630.294	44397.06
630.489	43362.84
630.683	43278.87
630.877	42093.1
631.071	41499.19
631.265	41304.63
631.459	40268.36
631.653	39631.44
631.848	38814.3
632.042	37929.58
632.236	37171.83
632.43	36086.4
632.624	35422.86
632.818	34042.53
633.012	33055.41
633.206	32105.15
633.4	31261.39
633.594	29987.55
633.788	29106.93
633.982	28029.69
634.176	27362.06
634.369	25928.48
634.563	25289.51
634.757	24079.16
634.951	23513.92
635.145	22704.98
635.339	21715.81
635.533	20720.49
635.726	19956.6
635.92	19227.53
636.114	18490.26
636.308	17785.76
636.501	16878.51
636.695	16341.94
636.889	15588.28
637.083	14855.11
637.276	14283.73
637.47	13704.15
637.664	13378.53
637.857	12534.76
638.051	12315.63
638.244	11846.65
638.438	11523.07
638.632	10664.97
638.825	10325.01
639.019	9985.04
639.212	9462.81
639.406	9370.65
639.599	8623.14
639.793	8436.78
639.986	8195.12
640.18	7988.27
640.373	7529.53
640.567	7154.75
640.76	6808.64
640.954	6886.47
641.147	6419.53
641.34	6124.62
641.534	6118.48
641.727	6011.98
641.92	5604.44
642.114	5354.58
642.307	5168.22
642.5	4967.52
642.694	4725.86
642.887	4625.51
643.08	4590.69
643.273	4205.67
643.467	4238.44
643.66	3892.34
643.853	3732.59
644.046	3687.54
644.239	3570.8
644.432	3193.98
644.626	3087.48
644.819	3103.87
645.012	2974.85
645.205	2968.7
645.398	2882.69
645.591	2606.21
645.784	2497.67
645.977	2555.01
646.17	2313.35
646.363	2354.31
646.556	2178.19
646.749	2139.27
646.942	2167.95
647.135	2053.26
647.328	1805.46
647.521	1891.47
647.714	1733.78
647.907	1789.07
648.099	1574.03
648.292	1668.24
648.485	1528.98
648.678	1451.16
648.871	1479.83
649.064	1320.09
649.256	1348.76
649.449	1252.5
649.642	1150.11
649.835	1092.76
650.027	1088.67
650.22	1178.78
650.413	1047.71
650.605	1037.47
650.798	916.64
650.991	933.02
651.183	840.86
651.376	900.25
651.568	842.91
651.761	881.82
651.954	806.05
652.146	752.8
652.339	816.29
652.531	760.99
652.724	662.69
652.916	568.48
653.109	494.76
653.301	644.26
653.494	666.78
653.686	593.06
653.879	717.98
654.071	558.24
654.263	484.52
654.456	597.15
654.648	677.02
654.84	591.01
655.033	457.89
655.225	580.77
655.417	314.53
655.61	521.38
655.802	570.53
655.994	623.78
656.186	304.29
656.379	445.6
656.571	314.53
656.763	402.6
656.955	339.11
657.148	326.82
657.34	509.09
657.532	394.4
657.724	335.01
657.916	373.92
658.108	455.84
658.3	341.16
658.492	363.69
658.684	312.49
658.876	335.01
659.068	191.66
659.26	205.99
659.452	244.9
659.644	224.42
659.836	392.36
660.028	265.38
660.22	220.33
660.412	318.63
660.604	205.99
660.796	285.86
660.988	339.11
661.18	224.42
661.372	312.49
661.563	240.81
661.755	265.38
661.947	179.37
662.139	177.32
662.331	263.33
662.522	263.33
662.714	173.22
662.906	150.7
663.097	150.7
663.289	193.7
663.481	99.5
663.673	212.14
663.864	158.89
664.056	330.92
664.247	130.22
664.439	259.24
664.631	205.99
664.822	189.61
665.014	175.27
665.205	117.93
665.397	158.89
665.588	115.88
665.78	187.56
665.971	230.57
666.163	142.5
666.354	214.18
666.546	109.74
666.737	107.69
666.929	183.46
667.12	160.94
667.311	142.5
667.503	171.18
667.694	195.75
667.885	197.8
668.077	224.42
668.268	68.78
668.459	111.78
668.651	179.37
668.842	142.5
669.033	58.54
669.224	115.88
669.416	369.83
669.607	146.6
669.798	99.5
669.989	244.9
670.18	95.4
670.371	199.85
670.563	74.92
670.754	216.23
670.945	126.12
671.136	99.5
671.327	113.83
671.518	205.99
671.709	257.19
671.9	208.04
672.091	203.94
672.282	183.46
672.473	214.18
672.664	117.93
672.855	185.51
673.046	224.42
673.237	201.9
673.428	115.88
673.619	232.62
673.809	189.61
674	214.18
674.191	205.99
674.382	134.31
674.573	115.88
674.764	42.15
674.954	249
675.145	134.31
675.336	122.02
675.527	62.63
675.717	13.48
675.908	33.96
676.099	156.84
676.289	138.41
676.48	79.02
676.671	79.02
676.861	62.63
677.052	124.07
677.243	115.88
677.433	83.11
677.624	240.81
677.814	103.59
678.005	148.65
678.195	246.95
678.386	91.31
678.576	52.39
678.767	97.45
678.957	117.93
679.148	199.85
679.338	203.94
679.529	181.42
679.719	101.55
679.909	191.66
680.1	240.81
680.29	210.09
680.481	62.63
680.671	230.57
680.861	138.41
681.052	156.84
681.242	124.07
681.432	208.04
681.622	222.38
681.813	42.15
682.003	173.22
682.193	115.88
682.383	101.55
682.573	117.93
682.764	117.93
682.954	226.47
683.144	255.14
683.334	126.12
683.524	144.55
683.714	220.33
683.904	181.42
684.094	177.32
684.284	97.45
684.474	212.14
684.664	222.38
684.854	132.26
685.044	191.66
685.234	212.14
685.424	199.85
685.614	64.68
685.804	267.43
685.994	183.46
686.184	222.38
686.374	169.13
686.564	140.46
686.753	160.94
686.943	105.64
687.133	183.46
687.323	224.42
687.513	230.57
687.702	203.94
687.892	169.13
688.082	277.67
688.272	304.29
688.461	183.46
688.651	279.72
688.841	193.7
689.03	179.37
689.22	79.02
689.41	240.81
689.599	189.61
689.789	158.89
689.979	281.77
690.168	195.75
690.358	230.57
690.547	228.52
690.737	195.75
690.926	193.7
691.116	216.23
691.305	294.05
691.495	189.61
691.684	124.07
691.874	146.6
692.063	115.88
692.252	249
692.442	158.89
692.631	113.83
692.82	148.65
693.01	165.03
693.199	220.33
693.388	249
693.578	167.08
693.767	249
693.956	240.81
694.146	220.33
694.335	197.8
694.524	181.42
694.713	261.29
694.902	197.8
695.092	136.36
695.281	158.89
695.47	140.46
695.659	142.5
695.848	142.5
696.037	56.49
696.226	195.75
696.415	195.75
696.604	169.13
696.793	220.33
696.982	212.14
697.171	273.57
697.36	175.27
697.549	181.42
697.738	130.22
697.927	128.17
698.116	119.98
698.305	183.46
698.494	171.18
698.683	154.79
698.872	373.92
699.061	169.13
699.25	179.37
699.438	158.89
699.627	142.5
699.816	279.72
700.005	21.67
700.193	191.66
700.382	230.57
700.571	179.37
700.76	169.13
700.948	283.81
701.137	199.85
701.326	218.28
701.514	126.12
701.703	191.66
701.892	208.04
702.08	378.02
702.269	107.69
702.457	173.22
702.646	130.22
702.834	134.31
703.023	183.46
703.212	183.46
703.4	169.13
703.589	95.4
703.777	132.26
703.965	150.7
704.154	136.36
704.342	134.31
704.531	165.03
704.719	173.22
704.907	242.85
705.096	27.82
705.284	83.11
705.472	150.7
705.661	246.95
705.849	173.22
706.037	195.75
706.226	259.24
706.414	167.08
706.602	156.84
706.79	246.95
706.979	38.06
707.167	257.19
707.355	93.35
707.543	236.71
707.731	171.18
707.919	119.98
708.107	134.31
708.296	220.33
708.484	142.5
708.672	191.66
708.86	185.51
709.048	154.79
709.236	158.89
709.424	208.04
709.612	234.66
709.8	64.68
709.988	111.78
710.176	230.57
710.364	326.82
710.551	103.59
710.739	175.27
710.927	128.17
711.115	109.74
711.303	249
711.491	277.67
711.679	93.35
711.866	271.53
712.054	148.65
712.242	185.51
712.43	244.9
712.617	181.42
712.805	275.62
712.993	156.84
713.181	109.74
713.368	218.28
713.556	214.18
713.744	175.27
713.931	353.45
714.119	281.77
714.306	173.22
714.494	232.62
714.682	208.04
714.869	9.39
715.057	91.31
715.244	21.67
715.432	257.19
715.619	130.22
715.807	162.98
715.994	175.27
716.182	185.51
716.369	292.01
716.556	271.53
716.744	124.07
716.931	97.45
717.119	208.04
717.306	134.31
717.493	197.8
717.681	177.32
717.868	179.37
718.055	144.55
718.242	259.24
718.43	212.14
718.617	300.2
718.804	101.55
718.991	304.29
719.179	148.65
719.366	199.85
719.553	183.46
719.74	255.14
719.927	199.85
720.114	294.05
720.301	134.31
720.488	126.12
720.676	83.11
720.863	253.09
721.05	328.87
721.237	162.98
721.424	222.38
721.611	226.47
721.798	146.6
721.985	191.66
722.172	218.28
722.358	214.18
722.545	289.96
722.732	189.61
722.919	257.19
723.106	269.48
723.293	132.26
723.48	132.26
723.667	111.78
723.853	199.85
724.04	224.42
724.227	281.77
724.414	179.37
724.6	271.53
724.787	339.11
724.974	316.58
725.161	203.94
725.347	146.6
725.534	158.89
725.72	197.8
725.907	273.57
726.094	253.09
726.28	187.56
726.467	193.7
726.653	171.18
726.84	277.67
727.027	267.43
727.213	234.66
727.4	267.43
727.586	267.43
727.773	165.03
727.959	242.85
728.145	199.85
728.332	185.51
728.518	156.84
728.705	279.72
728.891	251.05
729.077	199.85
729.264	246.95
729.45	230.57
729.636	324.77
729.823	191.66
730.009	242.85
730.195	267.43
730.382	230.57
730.568	146.6
730.754	273.57
730.94	175.27
731.126	179.37
731.313	249
731.499	214.18
731.685	224.42
731.871	332.97
732.057	253.09
732.243	236.71
732.429	249
732.615	412.84
732.801	228.52
732.987	279.72
733.173	181.42
733.359	220.33
733.545	249
733.731	216.23
733.917	292.01
734.103	271.53
734.289	265.38
734.475	242.85
734.661	355.49
734.847	296.1
735.033	203.94
735.219	261.29
735.404	175.27
735.59	128.17
735.776	138.41
735.962	208.04
736.148	308.39
736.333	275.62
736.519	257.19
736.705	187.56
736.89	246.95
737.076	261.29
737.262	259.24
737.447	99.5
737.633	181.42
737.819	265.38
738.004	187.56
738.19	214.18
738.375	244.9
738.561	281.77
738.747	281.77
738.932	169.13
739.118	322.73
739.303	279.72
739.489	275.62
739.674	191.66
739.859	132.26
740.045	300.2
740.23	240.81
740.416	171.18
740.601	189.61
740.786	236.71
740.972	212.14
741.157	285.86
741.342	105.64
741.528	136.36
741.713	279.72
741.898	208.04
742.084	162.98
742.269	212.14
742.454	287.91
742.639	289.96
742.824	175.27
743.01	353.45
743.195	341.16
743.38	296.1
743.565	187.56
743.75	244.9
743.935	230.57
744.12	240.81
744.305	89.26
744.49	212.14
744.675	130.22
744.86	169.13
745.045	283.81
745.23	167.08
745.415	117.93
745.6	283.81
745.785	160.94
745.97	335.01
746.155	326.82
746.34	238.76
746.525	230.57
746.71	328.87
746.895	160.94
747.079	189.61
747.264	173.22
747.449	271.53
747.634	292.01
747.819	292.01
748.003	171.18
748.188	79.02
748.373	195.75
748.557	232.62
748.742	249
748.927	197.8
749.111	140.46
749.296	214.18
749.481	249
749.665	109.74
749.85	175.27
750.034	183.46
750.219	210.09
750.404	130.22
750.588	285.86
750.773	126.12
750.957	216.23
751.141	136.36
751.326	179.37
751.51	124.07
751.695	115.88
751.879	156.84
752.064	314.53
752.248	193.7
752.432	259.24
752.617	242.85
752.801	197.8
752.985	171.18
753.17	230.57
753.354	249
753.538	218.28
753.722	146.6
753.907	103.59
754.091	62.63
754.275	251.05
754.459	148.65
754.643	117.93
754.828	146.6
755.012	203.94
755.196	158.89
755.38	105.64
755.564	113.83
755.748	142.5
755.932	197.8
756.116	191.66
756.3	175.27
756.484	126.12
756.668	195.75
756.852	-33.62
757.036	44.2
757.22	128.17
757.404	146.6
757.588	97.45
757.772	177.32
757.956	105.64
758.14	230.57
758.323	62.63
758.507	152.74
758.691	134.31
758.875	195.75
759.059	197.8
759.242	38.06
759.426	111.78
759.61	124.07
759.794	3.24
759.977	249
760.161	320.68
760.345	232.62
760.528	140.46
760.712	156.84
760.895	130.22
761.079	23.72
761.263	70.83
761.446	162.98
761.63	117.93
761.813	183.46
761.997	42.15
762.18	152.74
762.364	177.32
762.547	62.63
762.731	66.73
762.914	132.26
763.098	95.4
763.281	81.07
763.464	95.4
763.648	115.88
763.831	136.36
764.015	7.34
764.198	173.22
764.381	70.83
764.564	56.49
764.748	148.65
764.931	113.83
765.114	52.39
765.297	160.94
765.481	17.58
765.664	52.39
765.847	15.53
766.03	222.38
766.213	54.44
766.397	148.65
766.58	-29.52
766.763	171.18
766.946	33.96
767.129	105.64
767.312	62.63
767.495	132.26
767.678	31.91
767.861	-0.85
768.044	91.31
768.227	109.74
768.41	95.4
768.593	103.59
768.776	52.39
768.959	21.67
769.142	68.78
769.324	23.72
769.507	91.31
769.69	25.77
769.873	44.2
770.056	283.81
770.239	119.98
770.421	189.61
770.604	150.7
770.787	74.92
770.97	103.59
771.152	33.96
771.335	89.26
771.518	-11.09
771.7	148.65
771.883	177.32
772.066	81.07
772.248	115.88
772.431	158.89
772.613	72.87
772.796	115.88
772.978	79.02
773.161	167.08
773.343	40.11
773.526	3.24
773.708	-80.72
773.891	27.82
774.073	46.25
774.256	36.01
774.438	201.9
774.621	52.39
774.803	15.53
774.985	74.92
775.168	122.02
775.35	13.48
775.532	140.46
775.715	-88.92
775.897	68.78
776.079	9.39
776.261	99.5
776.444	62.63
776.626	36.01
776.808	103.59
776.99	-39.76
777.173	105.64
777.355	36.01
777.537	134.31
777.719	87.21
777.901	-11.09
778.083	33.96
778.265	-33.62
778.447	144.55
778.629	87.21
778.811	150.7
778.993	74.92
779.175	93.35
779.357	52.39
779.539	38.06
779.721	99.5
779.903	31.91
780.085	91.31
780.267	93.35
780.449	62.63
780.631	156.84
780.812	130.22
780.994	40.11
781.176	36.01
781.358	-27.48
781.54	126.12
781.721	74.92
781.903	91.31
782.085	-0.85
782.267	62.63
782.448	-7
782.63	44.2
782.812	58.54
782.993	138.41
783.175	91.31
783.357	11.43
783.538	148.65
783.72	-4.95
783.901	42.15
784.083	132.26
784.264	113.83
784.446	-7
784.627	3.24
784.809	40.11
784.99	-37.72
785.172	42.15
785.353	58.54
785.535	119.98
785.716	-0.85
785.897	-19.29
786.079	25.77
786.26	48.3
786.441	76.97
786.623	-9.05
786.804	-0.85
786.985	89.26
787.167	17.58
787.348	-11.09
787.529	46.25
787.71	162.98
787.891	38.06
788.073	9.39
788.254	-41.81
788.435	191.66
788.616	33.96
788.797	-95.06
788.978	81.07
789.159	-50
789.34	93.35
789.522	36.01
789.703	-9.05
789.884	62.63
790.065	44.2
790.246	208.04
790.427	5.29
790.607	64.68
790.788	66.73
790.969	-43.86
791.15	52.39
791.331	27.82
791.512	-15.19
791.693	5.29
791.874	64.68
792.054	185.51
792.235	169.13
792.416	-0.85
792.597	11.43
792.778	91.31
792.958	109.74
793.139	46.25
793.32	29.87
793.5	9.39
793.681	70.83
793.862	38.06
794.042	21.67
794.223	-54.1
794.404	74.92
794.584	-74.58
794.765	72.87
794.945	91.31
795.126	3.24
795.306	99.5
795.487	36.01
795.667	-0.85
795.848	29.87
796.028	58.54
796.209	15.53
796.389	52.39
796.57	13.48
796.75	-50
796.93	31.91
797.111	-52.05
797.291	-58.2
797.471	107.69
797.652	19.63
797.832	-21.33
798.012	87.21
798.192	-45.91
798.373	-35.67
798.553	50.35
798.733	85.16
798.913	27.82
799.093	48.3
799.274	56.49
799.454	60.59
799.634	29.87
799.814	87.21
799.994	60.59
800.174	36.01
800.354	-0.85
800.534	-86.87
800.714	144.55
800.894	15.53
801.074	21.67
801.254	23.72
801.434	46.25
801.614	1.19
801.794	-11.09
801.974	1780.88
802.154	9.39
802.334	93.35
802.514	-125.78
802.693	-27.48
802.873	-29.52
803.053	109.74
803.233	-4.95
803.413	-80.72
803.592	-33.62
803.772	-70.48
803.952	56.49
804.131	-45.91
804.311	60.59
804.491	144.55
804.67	9.39
804.85	-99.16
805.03	72.87
805.209	87.21
805.389	9.39
805.568	-7
805.748	-15.19
805.928	79.02
806.107	130.22
806.287	79.02
806.466	29.87
806.646	56.49
806.825	72.87
807.004	31.91
807.184	134.31
807.363	52.39
807.543	38.06
807.722	-19.29
807.901	70.83
808.081	42.15
808.26	-86.87
808.439	19.63
808.619	-4.95
808.798	-31.57
808.977	40.11
809.156	27.82
809.336	15.53
809.515	19.63
809.694	-107.35
809.873	-47.96
810.052	17.58
810.231	107.69
810.411	15.53
810.59	124.07
810.769	-13.14
810.948	76.97
811.127	-31.57
811.306	-25.43
811.485	5.29
811.664	56.49
811.843	99.5
812.022	21.67
812.201	-54.1
812.38	-23.38
812.559	76.97
812.737	101.55
812.916	-99.16
813.095	31.91
813.274	3.24
813.453	76.97
813.632	40.11
813.811	99.5
813.989	-99.16
814.168	89.26
814.347	-0.85
814.526	13.48
814.704	95.4
814.883	76.97
815.062	-25.43
815.24	72.87
815.419	7.34
815.598	29.87
815.776	-138.07
815.955	-86.87
816.133	-115.54
816.312	48.3
816.49	95.4
816.669	52.39
816.847	27.82
817.026	72.87
817.204	-31.57
817.383	44.2
817.561	-41.81
817.74	91.31
817.918	7.34
818.097	-4.95
818.275	29.87
818.453	54.44
818.632	25.77
818.81	-7
818.988	-50
819.167	-0.85
819.345	31.91
819.523	-66.39
819.701	48.3
819.879	52.39
820.058	46.25
820.236	40.11
820.414	50.35
820.592	1.19
820.77	-2.9
820.948	-70.48
821.127	15.53
821.305	68.78
821.483	-37.72
821.661	-41.81
821.839	5.29
822.017	-7
822.195	36.01
822.373	122.02
822.551	11.43
822.729	48.3
822.907	38.06
823.085	56.49
823.262	48.3
823.44	-50
823.618	-9.05
823.796	42.15
823.974	-60.24
824.152	-37.72
824.329	-27.48
824.507	-0.85
824.685	109.74
824.863	-0.85
825.04	1.19
825.218	99.5
825.396	68.78
825.574	-11.09
825.751	68.78
825.929	17.58
826.107	-11.09
826.284	62.63
826.462	29.87
826.639	46.25
826.817	-33.62
826.994	-50
827.172	-95.06
827.349	91.31
827.527	-0.85
827.704	-45.91
827.882	66.73
828.059	-39.76
828.237	-52.05
828.414	33.96
828.591	-103.25
828.769	68.78
828.946	-74.58
829.124	36.01
829.301	136.36
829.478	-25.43
829.655	1.19
829.833	-35.67
830.01	-35.67
830.187	38.06
830.364	40.11
830.542	38.06
830.719	185.51
830.896	76.97
831.073	66.73
831.25	11.43
831.427	46.25
831.604	19.63
831.782	-11.09
831.959	70.83
832.136	-56.15
832.313	46.25
832.49	-103.25
832.667	64.68
832.844	-25.43
833.021	101.55
833.198	40.11
833.374	19.63
833.551	31.91
833.728	11.43
833.905	56.49
834.082	-66.39
834.259	5.29
834.436	36.01
834.612	-11.09
834.789	72.87
834.966	38.06
835.143	42.15
835.319	-43.86
835.496	31.91
835.673	97.45
835.85	93.35
836.026	21.67
836.203	64.68
836.38	-105.3
836.556	36.01
836.733	-50
836.909	79.02
837.086	-82.77
837.262	-123.73
837.439	33.96
837.616	48.3
837.792	38.06
837.968	140.46
838.145	-90.96
838.321	21.67
838.498	3.24
838.674	40.11
838.851	1.19
839.027	-15.19
839.203	-27.48
839.38	101.55
839.556	31.91
839.732	44.2
839.909	-45.91
840.085	-11.09
840.261	46.25
840.437	1.19
840.614	-113.49
840.79	44.2
840.966	62.63
841.142	25.77
841.318	-0.85
841.494	79.02
841.671	46.25
841.847	-27.48
842.023	-4.95
842.199	44.2
842.375	87.21
842.551	-123.73
842.727	-76.63
842.903	162.98
843.079	-50
843.255	46.25
843.431	-47.96
843.607	101.55
843.783	-125.78
843.959	36.01
844.134	-103.25
844.31	52.39
844.486	-33.62
844.662	64.68
844.838	-29.52
845.013	-19.29
845.189	72.87
845.365	64.68
845.541	-54.1
845.716	19.63
845.892	91.31
846.068	9.39
846.244	-82.77
846.419	-21.33
846.595	-56.15
846.77	-31.57
846.946	105.64
847.122	-62.29
847.297	-50
847.473	19.63
847.648	-82.77
847.824	-19.29
847.999	-109.4
848.175	-68.44
848.35	25.77
848.526	140.46
848.701	17.58
848.876	58.54
849.052	113.83
849.227	9.39
849.403	25.77
849.578	5.29
849.753	52.39
849.929	52.39
850.104	-39.76
850.279	42.15
850.454	66.73
850.63	-4.95
850.805	-25.43
850.98	11.43
851.155	50.35
851.33	27.82
851.505	-52.05
851.681	126.12
851.856	-9.05
852.031	72.87
852.206	23.72
852.381	-58.2
852.556	-4.95
852.731	23.72
852.906	89.26
853.081	31.91
853.256	117.93
853.431	-47.96
853.606	11.43
853.781	-15.19
853.956	-103.25
854.131	9.39
854.305	11.43
854.48	-33.62
854.655	-72.53
854.83	23.72
855.005	44.2
855.18	68.78
855.354	-45.91
855.529	54.44
855.704	-4.95
855.879	95.4
856.053	-35.67
856.228	85.16
856.403	-43.86
856.577	33.96
856.752	-107.35
856.926	-39.76
857.101	70.83
857.276	-86.87
857.45	38.06
857.625	87.21
857.799	-25.43
857.974	-13.14
858.148	-125.78
858.323	19.63
858.497	7.34
858.672	-70.48
858.846	-56.15
859.02	42.15
859.195	-13.14
859.369	44.2
859.543	50.35
859.718	-11.09
859.892	13.48
860.066	1.19
860.241	-2.9
860.415	17.58
860.589	9.39
860.763	-76.63
860.938	-37.72
861.112	-29.52
861.286	-7
861.46	29.87
861.634	-47.96
861.808	25.77
861.982	-70.48
862.157	-90.96
862.331	-33.62
862.505	-66.39
862.679	-72.53
862.853	-97.11
863.027	-66.39
863.201	81.07
863.375	-25.43
863.549	-11.09
863.722	144.55
863.896	99.5
864.07	-41.81
864.244	9.39
864.418	-21.33
864.592	64.68
864.766	-45.91
864.939	-29.52
865.113	-58.2
865.287	74.92
865.461	-47.96
865.634	38.06
865.808	-2.9
865.982	38.06
866.156	-54.1
866.329	-93.01
866.503	62.63
866.676	50.35
866.85	19.63
867.024	-33.62
867.197	93.35
867.371	122.02
867.544	48.3
867.718	-125.78
867.891	72.87
868.065	-97.11
868.238	9.39
868.412	132.26
868.585	-103.25
868.759	-29.52
868.932	-9.05
869.105	-58.2
869.279	54.44
869.452	-113.49
869.625	136.36
869.799	-37.72
869.972	-148.31
870.145	-62.29
870.319	25.77
870.492	-105.3
870.665	66.73
870.838	-17.24
871.011	-90.96
871.185	-47.96
871.358	27.82
871.531	66.73
871.704	-109.4
871.877	-37.72
872.05	-41.81
872.223	-27.48
872.396	126.12
872.569	42.15
872.742	-21.33
872.915	113.83
873.088	-88.92
873.261	-115.54
873.434	44.2
873.607	3.24
873.78	167.08
873.953	-158.55
874.126	-84.82
874.299	36.01
874.471	-52.05
874.644	-35.67
874.817	107.69
874.99	74.92
875.163	40.11
875.335	-37.72
875.508	1.19
875.681	136.36
875.853	-19.29
876.026	-39.76
876.199	60.59
876.371	-0.85
876.544	58.54
876.717	1.19
876.889	-23.38
877.062	13.48
877.234	-70.48
877.407	9.39
877.579	31.91
877.752	-17.24
877.924	74.92
878.097	25.77
878.269	-9.05
878.442	40.11
878.614	9.39
878.786	42.15
878.959	9.39
879.131	46.25
879.303	-144.21
879.476	-60.24
879.648	103.59
879.82	58.54
879.993	-13.14
880.165	-19.29
880.337	-78.68
880.509	-31.57
880.681	-121.68
880.854	17.58
881.026	64.68
881.198	117.93
881.37	-50
881.542	-39.76
881.714	-35.67
881.886	1.19
882.058	-19.29
882.23	23.72
882.402	-43.86
882.574	54.44
882.746	11.43
882.918	101.55
883.09	1.19
883.262	-45.91
883.434	5.29
883.606	-162.64
883.778	-19.29
883.95	107.69
884.122	5.29
884.293	171.18
884.465	19.63
884.637	54.44
884.809	-17.24
884.98	31.91
885.152	87.21
885.324	27.82
885.496	-88.92
885.667	-17.24
885.839	-15.19
886.011	64.68
886.182	-37.72
886.354	72.87
886.525	48.3
886.697	42.15
886.869	-47.96
887.04	-11.09
887.212	72.87
887.383	230.57
887.555	9.39
887.726	15.53
887.897	-54.1
888.069	27.82
888.24	72.87
888.412	36.01
888.583	33.96
888.754	7.34
888.926	-111.44
889.097	66.73
889.268	-39.76
889.44	119.98
889.611	-21.33
889.782	-74.58
889.953	-64.34
890.125	144.55
890.296	-29.52
890.467	-41.81
890.638	7.34
890.809	46.25
890.98	-78.68
891.151	38.06
891.323	81.07
891.494	1.19
891.665	44.2
891.836	-50
892.007	-45.91
892.178	-23.38
892.349	40.11
892.52	-45.91
892.691	68.78
892.862	-43.86
893.032	-103.25
893.203	17.58
893.374	44.2
893.545	138.41
893.716	-93.01
893.887	50.35
894.057	-156.5
894.228	-60.24
894.399	-39.76
894.57	48.3
894.74	97.45
894.911	-43.86
895.082	-9.05
895.253	-45.91
895.423	15.53
895.594	50.35
895.764	42.15
895.935	-138.07
896.106	31.91
896.276	-45.91
896.447	-35.67
896.617	9.39
896.788	3.24
896.958	-64.34
897.129	-123.73
897.299	-35.67
897.47	162.98
897.64	83.11
897.81	23.72
897.981	-15.19
898.151	56.49
898.322	54.44
898.492	58.54
898.662	-9.05
898.832	7.34
899.003	3.24
899.173	46.25
899.343	-23.38
899.513	-50
