Data from USB4F104151__16__10-41-52-086.txt Node

Date: Wed Feb 26 10:41:52 EST 2025
User: louis
Spectrometer: USB4F10415
Trigger mode: 4
Integration Time (sec): 1.000000E-1
Scans to average: 1
Electric dark correction enabled: true
Nonlinearity correction enabled: false
Boxcar width: 0
XAxis mode: Wavelengths
Number of Pixels in Spectrum: 3648
>>>>>Begin Spectral Data<<<<<
178.204	-347.47
178.424	-347.47
178.644	-347.47
178.864	-408.91
179.084	-337.23
179.304	10.92
179.524	-42.32
179.744	60.07
179.964	60.07
180.184	31.4
180.404	88.75
180.624	-77.14
180.844	-60.76
181.064	-114
181.283	-52.56
181.503	0.68
181.723	94.89
181.943	6.83
182.163	242.34
182.383	47.79
182.602	94.89
182.822	160.42
183.042	70.31
183.262	62.12
183.482	6.83
183.701	10.92
183.921	-7.51
184.141	37.55
184.361	82.6
184.58	92.84
184.8	76.46
185.02	-109.91
185.239	125.61
185.459	156.33
185.679	105.13
185.898	-97.62
186.118	66.22
186.338	10.92
186.557	43.69
186.777	39.59
186.997	88.75
187.216	23.21
187.436	207.53
187.655	115.37
187.875	90.79
188.095	125.61
188.314	127.66
188.534	123.56
188.753	-58.71
188.973	242.34
189.192	139.94
189.412	103.08
189.631	39.59
189.851	-32.08
190.07	201.38
190.29	-7.51
190.509	-48.47
190.729	78.51
190.948	103.08
191.168	260.77
191.387	107.18
191.607	78.51
191.826	121.51
192.045	19.11
192.265	15.02
192.484	51.88
192.704	41.64
192.923	-42.32
193.142	154.28
193.362	170.66
193.581	172.71
193.8	84.65
194.02	105.13
194.239	29.35
194.458	43.69
194.678	-34.13
194.897	47.79
195.116	70.31
195.335	27.31
195.555	117.42
195.774	-44.37
195.993	205.48
196.212	55.98
196.432	-15.7
196.651	37.55
196.87	17.07
197.089	187.05
197.308	74.41
197.528	8.87
197.747	-1.37
197.966	156.33
198.185	139.94
198.404	-11.61
198.623	80.55
198.842	176.81
199.062	49.83
199.281	98.99
199.5	51.88
199.719	68.27
199.938	21.16
200.157	84.65
200.376	174.76
200.595	82.6
200.814	113.32
201.033	12.97
201.252	152.23
201.471	105.13
201.69	86.7
201.909	-9.56
202.128	160.42
202.347	113.32
202.566	39.59
202.785	-17.75
203.004	39.59
203.223	230.06
203.442	115.37
203.661	-11.61
203.879	55.98
204.098	94.89
204.317	-56.66
204.536	51.88
204.755	88.75
204.974	113.32
205.193	105.13
205.411	101.03
205.63	166.57
205.849	121.51
206.068	27.31
206.287	4.78
206.505	129.7
206.724	58.03
206.943	-13.65
207.162	-64.85
207.381	68.27
207.599	23.21
207.818	88.75
208.037	17.07
208.255	33.45
208.474	23.21
208.693	53.93
208.911	-83.28
209.13	62.12
209.349	92.84
209.567	139.94
209.786	74.41
210.005	107.18
210.223	68.27
210.442	-34.13
210.661	33.45
210.879	92.84
211.098	62.12
211.316	35.5
211.535	47.79
211.753	47.79
211.972	68.27
212.191	-15.7
212.409	35.5
212.628	68.27
212.846	27.31
213.065	55.98
213.283	189.1
213.502	37.55
213.72	80.55
213.938	78.51
214.157	-11.61
214.375	170.66
214.594	68.27
214.812	72.36
215.031	35.5
215.249	15.02
215.467	17.07
215.686	10.92
215.904	23.21
216.122	23.21
216.341	135.85
216.559	115.37
216.778	68.27
216.996	119.46
217.214	33.45
217.432	29.35
217.651	0.68
217.869	39.59
218.087	10.92
218.306	15.02
218.524	19.11
218.742	-23.89
218.96	49.83
219.179	-42.32
219.397	39.59
219.615	297.64
219.833	115.37
220.051	-60.76
220.27	121.51
220.488	101.03
220.706	101.03
220.924	-15.7
221.142	-44.37
221.36	62.12
221.578	78.51
221.796	23.21
222.015	70.31
222.233	107.18
222.451	111.27
222.669	25.26
222.887	64.17
223.105	23.21
223.323	12.97
223.541	-38.23
223.759	92.84
223.977	64.17
224.195	199.34
224.413	68.27
224.631	68.27
224.849	131.75
225.067	158.38
225.285	-7.51
225.503	119.46
225.721	-25.94
225.939	105.13
226.157	55.98
226.375	185
226.592	45.74
226.81	-32.08
227.028	199.34
227.246	101.03
227.464	150.18
227.682	45.74
227.9	12.97
228.117	70.31
228.335	39.59
228.553	103.08
228.771	-21.85
228.989	55.98
229.206	41.64
229.424	101.03
229.642	8.87
229.86	41.64
230.077	152.23
230.295	86.7
230.513	111.27
230.731	94.89
230.948	197.29
231.166	168.62
231.384	-3.41
231.601	-17.75
231.819	199.34
232.037	60.07
232.254	-5.46
232.472	27.31
232.689	70.31
232.907	121.51
233.125	68.27
233.342	-30.04
233.56	88.75
233.777	62.12
233.995	113.32
234.213	195.24
234.43	191.14
234.648	21.16
234.865	-17.75
235.083	127.66
235.3	135.85
235.518	68.27
235.735	96.94
235.953	98.99
236.17	33.45
236.388	64.17
236.605	84.65
236.822	88.75
237.04	70.31
237.257	37.55
237.475	-56.66
237.692	41.64
237.909	70.31
238.127	8.87
238.344	86.7
238.562	39.59
238.779	-27.99
238.996	8.87
239.214	92.84
239.431	129.7
239.648	23.21
239.865	17.07
240.083	58.03
240.3	21.16
240.517	4.78
240.735	-36.18
240.952	137.9
241.169	76.46
241.386	60.07
241.603	19.11
241.821	-1.37
242.038	135.85
242.255	135.85
242.472	0.68
242.689	74.41
242.907	96.94
243.124	98.99
243.341	19.11
243.558	-64.85
243.775	4.78
243.992	-3.41
244.209	133.8
244.426	182.95
244.643	39.59
244.86	-7.51
245.078	103.08
245.295	76.46
245.512	47.79
245.729	6.83
245.946	90.79
246.163	45.74
246.38	10.92
246.597	86.7
246.814	60.07
247.031	21.16
247.248	127.66
247.464	152.23
247.681	25.26
247.898	-9.56
248.115	39.59
248.332	17.07
248.549	101.03
248.766	182.95
248.983	121.51
249.2	66.22
249.417	133.8
249.633	23.21
249.85	29.35
250.067	62.12
250.284	96.94
250.501	88.75
250.717	129.7
250.934	-58.71
251.151	53.93
251.368	70.31
251.585	58.03
251.801	98.99
252.018	-27.99
252.235	51.88
252.451	-32.08
252.668	29.35
252.885	105.13
253.102	117.42
253.318	-30.04
253.535	23.21
253.752	58.03
253.968	35.5
254.185	-21.85
254.401	76.46
254.618	113.32
254.835	-32.08
255.051	60.07
255.268	51.88
255.484	51.88
255.701	4.78
255.917	80.55
256.134	-5.46
256.351	88.75
256.567	-34.13
256.784	39.59
257	-87.38
257.217	111.27
257.433	103.08
257.65	70.31
257.866	205.48
258.082	-34.13
258.299	8.87
258.515	113.32
258.732	-7.51
258.948	-23.89
259.165	70.31
259.381	-7.51
259.597	92.84
259.814	25.26
260.03	31.4
260.246	37.55
260.463	123.56
260.679	131.75
260.895	47.79
261.112	88.75
261.328	35.5
261.544	29.35
261.761	107.18
261.977	62.12
262.193	-17.75
262.409	76.46
262.626	80.55
262.842	76.46
263.058	-50.52
263.274	131.75
263.49	113.32
263.707	139.94
263.923	144.04
264.139	-103.76
264.355	-11.61
264.571	92.84
264.787	107.18
265.004	70.31
265.22	37.55
265.436	-23.89
265.652	25.26
265.868	92.84
266.084	-68.95
266.3	23.21
266.516	33.45
266.732	-3.41
266.948	23.21
267.164	41.64
267.38	199.34
267.596	88.75
267.812	234.15
268.028	70.31
268.244	-3.41
268.46	111.27
268.676	15.02
268.892	98.99
269.108	17.07
269.324	58.03
269.54	19.11
269.756	80.55
269.972	-40.28
270.188	-30.04
270.403	-40.28
270.619	105.13
270.835	133.8
271.051	92.84
271.267	101.03
271.483	-34.13
271.698	82.6
271.914	96.94
272.13	25.26
272.346	-19.8
272.562	27.31
272.777	160.42
272.993	29.35
273.209	39.59
273.425	43.69
273.64	-85.33
273.856	62.12
274.072	-48.47
274.287	-13.65
274.503	15.02
274.719	80.55
274.934	29.35
275.15	8.87
275.366	68.27
275.581	-5.46
275.797	23.21
276.012	101.03
276.228	80.55
276.444	-40.28
276.659	150.18
276.875	-99.67
277.09	55.98
277.306	78.51
277.521	107.18
277.737	6.83
277.952	162.47
278.168	64.17
278.383	43.69
278.599	19.11
278.814	125.61
279.03	33.45
279.245	98.99
279.461	82.6
279.676	82.6
279.892	-34.13
280.107	-23.89
280.322	37.55
280.538	49.83
280.753	-5.46
280.969	115.37
281.184	41.64
281.399	82.6
281.615	125.61
281.83	119.46
282.045	0.68
282.26	33.45
282.476	35.5
282.691	101.03
282.906	96.94
283.122	80.55
283.337	78.51
283.552	144.04
283.767	-36.18
283.983	133.8
284.198	12.97
284.413	127.66
284.628	-73.04
284.843	29.35
285.058	115.37
285.274	64.17
285.489	33.45
285.704	66.22
285.919	60.07
286.134	0.68
286.349	113.32
286.564	49.83
286.779	154.28
286.995	0.68
287.21	-38.23
287.425	2.73
287.64	78.51
287.855	66.22
288.07	-73.04
288.285	82.6
288.5	144.04
288.715	49.83
288.93	84.65
289.145	-13.65
289.36	113.32
289.575	43.69
289.79	113.32
290.004	55.98
290.219	96.94
290.434	-5.46
290.649	17.07
290.864	-52.56
291.079	-42.32
291.294	117.42
291.509	72.36
291.724	68.27
291.938	19.11
292.153	133.8
292.368	6.83
292.583	45.74
292.798	21.16
293.012	49.83
293.227	176.81
293.442	21.16
293.657	68.27
293.871	113.32
294.086	19.11
294.301	232.1
294.516	115.37
294.73	88.75
294.945	15.02
295.16	66.22
295.374	84.65
295.589	131.75
295.804	19.11
296.018	109.22
296.233	129.7
296.447	123.56
296.662	55.98
296.877	139.94
297.091	150.18
297.306	84.65
297.52	12.97
297.735	27.31
297.949	10.92
298.164	58.03
298.378	80.55
298.593	45.74
298.807	-68.95
299.022	51.88
299.236	80.55
299.451	29.35
299.665	21.16
299.88	4.78
300.094	105.13
300.309	-1.37
300.523	64.17
300.737	19.11
300.952	113.32
301.166	82.6
301.381	25.26
301.595	10.92
301.809	103.08
302.024	121.51
302.238	-42.32
302.452	150.18
302.667	19.11
302.881	146.09
303.095	172.71
303.309	123.56
303.524	33.45
303.738	-11.61
303.952	-19.8
304.166	58.03
304.381	-42.32
304.595	182.95
304.809	-25.94
305.023	78.51
305.237	76.46
305.452	51.88
305.666	164.52
305.88	170.66
306.094	115.37
306.308	117.42
306.522	96.94
306.736	92.84
306.95	113.32
307.164	51.88
307.379	33.45
307.593	131.75
307.807	158.38
308.021	123.56
308.235	37.55
308.449	-42.32
308.663	98.99
308.877	137.9
309.091	103.08
309.305	117.42
309.519	-58.71
309.733	144.04
309.947	-68.95
310.161	76.46
310.374	0.68
310.588	219.82
310.802	35.5
311.016	15.02
311.23	113.32
311.444	-34.13
311.658	84.65
311.872	129.7
312.085	66.22
312.299	191.14
312.513	96.94
312.727	62.12
312.941	15.02
313.154	96.94
313.368	82.6
313.582	64.17
313.796	35.5
314.009	8.87
314.223	160.42
314.437	109.22
314.651	88.75
314.864	78.51
315.078	39.59
315.292	-38.23
315.505	19.11
315.719	8.87
315.933	90.79
316.146	-1.37
316.36	-7.51
316.573	90.79
316.787	6.83
317.001	101.03
317.214	-1.37
317.428	17.07
317.641	-64.85
317.855	55.98
318.068	129.7
318.282	70.31
318.495	207.53
318.709	160.42
318.922	64.17
319.136	182.95
319.349	94.89
319.563	27.31
319.776	131.75
319.99	-54.61
320.203	111.27
320.417	-52.56
320.63	139.94
320.843	232.1
321.057	23.21
321.27	8.87
321.483	154.28
321.697	156.33
321.91	74.41
322.124	135.85
322.337	-13.65
322.55	-9.56
322.763	103.08
322.977	66.22
323.19	6.83
323.403	25.26
323.617	96.94
323.83	123.56
324.043	66.22
324.256	68.27
324.469	-101.72
324.683	113.32
324.896	-19.8
325.109	47.79
325.322	0.68
325.535	144.04
325.748	92.84
325.962	-50.52
326.175	12.97
326.388	78.51
326.601	135.85
326.814	58.03
327.027	-38.23
327.24	141.99
327.453	-42.32
327.666	168.62
327.879	180.9
328.092	113.32
328.305	117.42
328.518	35.5
328.731	-52.56
328.944	101.03
329.157	72.36
329.37	17.07
329.583	144.04
329.796	60.07
330.009	-68.95
330.222	152.23
330.435	62.12
330.648	90.79
330.861	66.22
331.073	47.79
331.286	139.94
331.499	109.22
331.712	12.97
331.925	25.26
332.138	78.51
332.35	113.32
332.563	12.97
332.776	180.9
332.989	-68.95
333.202	51.88
333.414	86.7
333.627	111.27
333.84	51.88
334.053	2.73
334.265	-17.75
334.478	-17.75
334.691	86.7
334.903	154.28
335.116	6.83
335.329	88.75
335.541	113.32
335.754	213.67
335.966	19.11
336.179	37.55
336.392	72.36
336.604	90.79
336.817	96.94
337.029	45.74
337.242	96.94
337.454	107.18
337.667	70.31
337.88	144.04
338.092	31.4
338.305	68.27
338.517	45.74
338.729	160.42
338.942	144.04
339.154	-19.8
339.367	-30.04
339.579	45.74
339.792	-66.9
340.004	111.27
340.217	103.08
340.429	68.27
340.641	21.16
340.854	-62.8
341.066	47.79
341.278	98.99
341.491	156.33
341.703	-21.85
341.915	2.73
342.128	178.86
342.34	6.83
342.552	-71
342.764	68.27
342.977	31.4
343.189	41.64
343.401	92.84
343.613	2.73
343.826	51.88
344.038	29.35
344.25	111.27
344.462	-1.37
344.674	96.94
344.886	27.31
345.099	64.17
345.311	127.66
345.523	19.11
345.735	-42.32
345.947	96.94
346.159	84.65
346.371	131.75
346.583	-7.51
346.795	182.95
347.007	64.17
347.219	96.94
347.431	35.5
347.643	88.75
347.855	76.46
348.067	127.66
348.279	49.83
348.491	74.41
348.703	105.13
348.915	51.88
349.127	-7.51
349.339	45.74
349.551	49.83
349.763	76.46
349.975	0.68
350.187	43.69
350.399	185
350.61	162.47
350.822	58.03
351.034	35.5
351.246	-11.61
351.458	74.41
351.669	96.94
351.881	74.41
352.093	154.28
352.305	113.32
352.517	80.55
352.728	144.04
352.94	84.65
353.152	-13.65
353.363	0.68
353.575	-21.85
353.787	228.01
353.999	31.4
354.21	131.75
354.422	-15.7
354.633	-36.18
354.845	10.92
355.057	43.69
355.268	92.84
355.48	109.22
355.692	-36.18
355.903	-36.18
356.115	31.4
356.326	-36.18
356.538	148.14
356.749	74.41
356.961	182.95
357.172	51.88
357.384	-7.51
357.595	223.91
357.807	-48.47
358.018	76.46
358.23	21.16
358.441	225.96
358.653	45.74
358.864	90.79
359.075	33.45
359.287	27.31
359.498	107.18
359.709	23.21
359.921	33.45
360.132	84.65
360.344	98.99
360.555	4.78
360.766	39.59
360.977	35.5
361.189	37.55
361.4	105.13
361.611	92.84
361.823	156.33
362.034	23.21
362.245	23.21
362.456	-7.51
362.667	82.6
362.879	29.35
363.09	80.55
363.301	51.88
363.512	45.74
363.723	-66.9
363.935	39.59
364.146	43.69
364.357	17.07
364.568	98.99
364.779	6.83
364.99	178.86
365.201	-27.99
365.412	119.46
365.623	-9.56
365.834	113.32
366.045	43.69
366.256	80.55
366.467	53.93
366.678	94.89
366.889	88.75
367.1	64.17
367.311	113.32
367.522	37.55
367.733	49.83
367.944	92.84
368.155	17.07
368.366	113.32
368.577	111.27
368.788	121.51
368.999	-7.51
369.209	80.55
369.42	309.93
369.631	215.72
369.842	55.98
370.053	45.74
370.264	109.22
370.474	-19.8
370.685	70.31
370.896	-44.37
371.107	141.99
371.317	96.94
371.528	23.21
371.739	168.62
371.95	51.88
372.16	-19.8
372.371	-36.18
372.582	-1.37
372.792	70.31
373.003	82.6
373.214	80.55
373.424	109.22
373.635	-54.61
373.846	182.95
374.056	60.07
374.267	105.13
374.477	111.27
374.688	10.92
374.898	74.41
375.109	-13.65
375.319	68.27
375.53	172.71
375.74	80.55
375.951	25.26
376.161	62.12
376.372	137.9
376.582	31.4
376.793	60.07
377.003	8.87
377.214	23.21
377.424	129.7
377.635	10.92
377.845	49.83
378.055	164.52
378.266	-34.13
378.476	64.17
378.686	98.99
378.897	76.46
379.107	129.7
379.317	119.46
379.528	-25.94
379.738	66.22
379.948	2.73
380.158	64.17
380.369	103.08
380.579	43.69
380.789	2.73
380.999	41.64
381.21	107.18
381.42	217.77
381.63	72.36
381.84	90.79
382.05	66.22
382.261	150.18
382.471	115.37
382.681	0.68
382.891	172.71
383.101	78.51
383.311	10.92
383.521	43.69
383.731	96.94
383.941	84.65
384.151	92.84
384.361	15.02
384.571	80.55
384.781	-1.37
384.991	209.58
385.201	205.48
385.411	12.97
385.621	94.89
385.831	78.51
386.041	141.99
386.251	-1.37
386.461	195.24
386.671	29.35
386.881	74.41
387.091	113.32
387.301	127.66
387.511	-15.7
387.72	113.32
387.93	158.38
388.14	-40.28
388.35	43.69
388.56	148.14
388.769	94.89
388.979	94.89
389.189	29.35
389.399	19.11
389.609	51.88
389.818	10.92
390.028	117.42
390.238	109.22
390.447	60.07
390.657	17.07
390.867	10.92
391.076	-46.42
391.286	43.69
391.496	90.79
391.705	78.51
391.915	172.71
392.125	101.03
392.334	27.31
392.544	174.76
392.753	109.22
392.963	0.68
393.172	74.41
393.382	-50.52
393.591	187.05
393.801	35.5
394.01	158.38
394.22	82.6
394.429	70.31
394.639	23.21
394.848	86.7
395.058	58.03
395.267	0.68
395.477	45.74
395.686	141.99
395.895	176.81
396.105	254.63
396.314	74.41
396.524	72.36
396.733	43.69
396.942	154.28
397.152	96.94
397.361	72.36
397.57	62.12
397.78	64.17
397.989	148.14
398.198	187.05
398.407	113.32
398.617	88.75
398.826	135.85
399.035	76.46
399.244	182.95
399.453	41.64
399.663	86.7
399.872	117.42
400.081	-38.23
400.29	96.94
400.499	0.68
400.708	111.27
400.917	74.41
401.127	76.46
401.336	-11.61
401.545	182.95
401.754	119.46
401.963	45.74
402.172	12.97
402.381	86.7
402.59	12.97
402.799	53.93
403.008	117.42
403.217	43.69
403.426	127.66
403.635	-5.46
403.844	92.84
404.053	68.27
404.262	76.46
404.471	164.52
404.68	127.66
404.888	12.97
405.097	66.22
405.306	60.07
405.515	131.75
405.724	53.93
405.933	150.18
406.142	25.26
406.35	166.57
406.559	125.61
406.768	109.22
406.977	170.66
407.185	84.65
407.394	88.75
407.603	-25.94
407.812	131.75
408.02	154.28
408.229	125.61
408.438	121.51
408.646	-17.75
408.855	47.79
409.064	74.41
409.272	2.73
409.481	92.84
409.69	-30.04
409.898	98.99
410.107	164.52
410.315	103.08
410.524	-36.18
410.733	58.03
410.941	166.57
411.15	121.51
411.358	58.03
411.567	146.09
411.775	92.84
411.984	113.32
412.192	60.07
412.401	76.46
412.609	166.57
412.818	197.29
413.026	135.85
413.234	98.99
413.443	113.32
413.651	35.5
413.86	51.88
414.068	158.38
414.276	96.94
414.485	27.31
414.693	152.23
414.901	189.1
415.11	146.09
415.318	53.93
415.526	94.89
415.734	117.42
415.943	94.89
416.151	180.9
416.359	12.97
416.567	170.66
416.776	125.61
416.984	49.83
417.192	244.39
417.4	62.12
417.608	49.83
417.817	-68.95
418.025	135.85
418.233	197.29
418.441	-93.52
418.649	-42.32
418.857	111.27
419.065	154.28
419.273	53.93
419.481	131.75
419.689	23.21
419.897	2.73
420.105	-38.23
420.313	213.67
420.521	187.05
420.729	191.14
420.937	0.68
421.145	-25.94
421.353	150.18
421.561	119.46
421.769	15.02
421.977	49.83
422.185	168.62
422.393	37.55
422.601	80.55
422.809	105.13
423.017	66.22
423.224	123.56
423.432	154.28
423.64	84.65
423.848	174.76
424.056	-5.46
424.263	176.81
424.471	96.94
424.679	185
424.887	-17.75
425.094	156.33
425.302	135.85
425.51	90.79
425.718	195.24
425.925	146.09
426.133	-7.51
426.341	168.62
426.548	88.75
426.756	115.37
426.964	135.85
427.171	45.74
427.379	133.8
427.586	123.56
427.794	82.6
428.001	168.62
428.209	197.29
428.417	232.1
428.624	131.75
428.832	174.76
429.039	76.46
429.247	172.71
429.454	121.51
429.662	281.25
429.869	144.04
430.076	215.72
430.284	203.43
430.491	150.18
430.699	205.48
430.906	324.26
431.114	166.57
431.321	223.91
431.528	101.03
431.736	211.62
431.943	258.73
432.15	176.81
432.358	223.91
432.565	236.2
432.772	90.79
432.979	232.1
433.187	141.99
433.394	301.73
433.601	180.9
433.808	248.49
434.016	361.13
434.223	283.3
434.43	285.35
434.637	232.1
434.844	324.26
435.052	285.35
435.259	217.77
435.466	330.41
435.673	330.41
435.88	363.17
436.087	340.65
436.294	410.28
436.501	402.08
436.708	336.55
436.915	348.84
437.122	393.89
437.329	281.25
437.537	373.41
437.743	334.5
437.95	471.72
438.157	410.28
438.364	418.47
438.571	451.24
438.778	490.15
438.985	563.87
439.192	498.34
439.399	441
439.606	631.46
439.813	600.74
440.02	594.59
440.227	729.76
440.433	572.07
440.64	656.03
440.847	553.63
441.054	674.46
441.261	869.02
441.467	768.67
441.674	830.11
441.881	809.63
442.088	719.52
442.294	787.1
442.501	836.25
442.708	912.03
442.914	918.17
443.121	959.13
443.328	996
443.534	1157.78
443.741	1024.67
443.948	1059.48
444.154	1086.11
444.361	1254.04
444.568	1221.27
444.774	1303.19
444.981	1155.74
445.187	1313.43
445.394	1342.1
445.6	1335.96
445.807	1512.08
446.013	1376.92
446.22	1471.12
446.426	1624.72
446.633	1776.27
446.839	1962.64
447.046	1637.01
447.252	1876.62
447.459	1847.95
447.665	2009.74
447.871	2153.1
448.078	2409.09
448.284	2085.51
448.491	2361.99
448.697	2368.13
448.903	2521.73
449.11	2460.29
449.316	2429.57
449.522	2726.53
449.728	2890.37
449.935	2976.38
450.141	2914.94
450.347	3156.6
450.553	3105.4
450.76	3154.55
450.966	3388.02
451.172	3631.73
451.378	3750.51
451.584	3727.99
451.791	4076.14
451.997	4010.61
452.203	4170.35
452.409	4575.84
452.615	4590.18
452.821	4381.29
453.027	4489.83
453.233	5007.97
453.44	4817.51
453.646	5126.75
453.852	5257.82
454.058	5513.81
454.264	5616.21
454.47	6109.77
454.676	6171.21
454.882	6801.99
455.088	6468.17
455.294	6656.58
455.5	7299.64
455.705	7539.26
455.911	7494.2
456.117	7815.73
456.323	8102.45
456.529	7985.71
456.735	9067.04
456.941	8940.07
457.147	9323.04
457.352	9437.72
457.558	9884.18
457.764	10594.82
457.97	10908.16
458.176	11125.25
458.381	11880.95
458.587	11745.78
458.793	12632.55
458.999	12591.59
459.204	14268.88
459.41	14784.97
459.616	14361.04
459.821	15190.47
460.027	15989.17
460.233	16904.62
460.438	16937.38
460.644	17514.91
460.85	17772.96
461.055	18393.49
461.261	19294.6
461.466	18901.39
461.672	19364.23
461.878	21645.66
462.083	21487.97
462.289	21752.16
462.494	22522.19
462.7	22884.69
462.905	23120.2
463.111	25317.67
463.316	26263.83
463.522	26652.95
463.727	27781.38
463.932	28666.1
464.138	29554.92
464.343	30712.02
464.549	30990.55
464.754	33384.62
464.959	33956
465.165	34771.1
465.37	34531.48
465.575	34291.87
465.781	36638.84
465.986	37544.05
466.191	37331.06
466.397	37544.05
466.602	36413.57
466.807	38680.67
467.012	38891.61
467.218	39833.67
467.423	39991.37
467.628	41281.59
467.833	43046.94
468.038	42739.74
468.244	41742.38
468.449	43767.82
468.654	43042.84
468.859	43100.18
469.064	42739.74
469.269	41920.56
469.474	42397.73
469.679	43628.56
469.885	42274.85
470.09	42514.47
470.295	42930.2
470.5	42164.26
470.705	42367.01
470.91	41240.63
471.115	41308.21
471.32	41740.33
471.525	41465.91
471.73	40392.77
471.935	40343.62
472.139	38334.56
472.344	38680.67
472.549	38422.62
472.754	37644.4
472.959	36532.35
473.164	35530.89
473.369	34740.38
473.574	35645.58
473.778	35266.7
473.983	34654.36
474.188	34144.42
474.393	32549.05
474.598	32471.23
474.802	31518.92
475.007	31170.77
475.212	30728.41
475.417	29401.32
475.621	29278.44
475.826	29104.37
476.031	28135.68
476.235	27955.46
476.44	28092.67
476.645	26767.63
476.849	26743.06
477.054	26462.49
477.259	25676.07
477.463	25663.78
477.668	25268.52
477.872	24834.35
478.077	24373.56
478.282	24019.26
478.486	23247.18
478.691	23390.53
478.895	23093.58
479.1	23134.54
479.304	22677.84
479.509	21879.13
479.713	21985.63
479.918	21633.38
480.122	21037.42
480.326	21363.04
480.531	21490.02
480.735	20986.22
480.94	20756.85
481.144	21401.96
481.348	20300.15
481.553	20615.54
481.757	19984.76
481.961	19837.31
482.166	20496.75
482.37	20199.8
482.574	19489.15
482.778	19589.5
482.983	19845.5
483.187	19593.6
483.391	19145.09
483.595	18993.54
483.8	18659.73
484.004	18813.32
484.208	18780.56
484.412	18442.64
484.616	18227.6
484.821	18104.73
485.025	17582.49
485.229	17711.52
485.433	17437.09
485.637	17310.11
485.841	16753.07
486.045	16650.67
486.249	16685.48
486.453	16290.23
486.657	16032.18
486.861	15897.02
487.065	15118.79
487.269	15264.19
487.473	14778.83
487.677	15040.97
487.881	14854.6
488.085	14279.12
488.289	14193.11
488.493	14066.13
488.697	14053.84
488.901	13441.5
489.105	12995.04
489.309	13269.47
489.512	13001.19
489.716	12718.57
489.92	12261.87
490.124	12048.88
490.328	12065.27
490.531	11702.78
490.735	11702.78
490.939	11448.83
491.143	11086.34
491.346	10813.96
491.55	11000.32
491.754	10832.39
491.958	10486.28
492.161	10189.33
492.365	10224.14
492.569	9818.64
492.772	9812.5
492.976	9892.37
493.18	9593.37
493.383	9392.67
493.587	9413.15
493.79	9249.31
493.994	8895.01
494.197	8991.27
494.401	8940.07
494.605	8782.37
494.808	8983.07
495.012	8798.76
495.215	8636.97
495.419	8669.73
495.622	8391.21
495.825	8417.83
496.029	8153.65
496.232	8651.3
496.436	8317.48
496.639	8411.69
496.843	8081.97
497.046	8411.69
497.249	8550.95
497.453	8309.29
497.656	8284.72
497.859	8307.24
498.063	8419.88
498.266	8329.77
498.469	8376.87
498.673	8282.67
498.876	8362.54
499.079	8294.96
499.282	8378.92
499.485	8905.25
499.689	8493.61
499.892	8743.46
500.095	8557.1
500.298	8884.77
500.501	8583.72
500.705	8940.07
500.908	9189.92
501.111	8933.92
501.314	9067.04
501.517	9060.9
501.72	9159.2
501.923	9263.65
502.126	9374.24
502.329	9568.79
502.532	9609.75
502.735	9611.8
502.938	10013.2
503.141	9718.29
503.344	9886.23
503.547	10064.4
503.75	10236.43
503.953	10500.62
504.156	10496.52
504.359	10598.92
504.562	10799.62
504.765	11125.25
504.968	11268.61
505.17	11477.5
505.373	11641.34
505.576	11813.37
505.779	11866.61
505.982	11956.72
506.185	12296.69
506.387	12192.24
506.59	12753.38
506.793	12962.28
506.996	12825.06
507.198	13478.36
507.401	13529.56
507.604	13896.15
507.807	14313.94
508.009	14350.8
508.212	14512.59
508.415	14811.59
508.617	15198.66
508.82	15608.25
509.022	15546.81
509.225	15935.93
509.428	16490.93
509.63	16732.59
509.833	17084.84
510.035	17633.69
510.238	17602.97
510.44	18041.24
510.643	18954.63
510.845	19151.24
511.048	19194.25
511.25	19523.97
511.453	20070.78
511.655	20816.24
511.858	21076.33
512.06	21817.69
512.262	22057.31
512.465	22212.95
512.667	22944.08
512.87	23404.87
513.072	23939.39
513.274	24529.2
513.477	25037.1
513.679	25465.13
513.881	26155.29
514.084	27019.53
514.286	27210
514.488	27744.52
514.69	29243.63
514.893	29413.61
515.095	29602.02
515.297	30439.64
515.499	30947.54
515.701	31377.61
515.904	32590.01
516.106	33239.22
516.308	33626.28
516.51	34480.28
516.712	34863.25
516.914	35537.04
517.116	36092.04
517.318	36751.48
517.52	37185.65
517.722	37859.43
517.925	38815.83
518.127	39598.16
518.329	40763.45
518.531	40476.74
518.733	41513.01
518.935	41904.17
519.136	42324
519.338	43014.17
519.54	43786.25
519.742	44589.06
519.944	45086.71
520.146	45907.95
520.348	46348.26
520.55	46970.85
520.752	47235.03
520.954	48586.69
521.155	48205.77
521.357	49461.18
521.559	50137.01
521.761	50636.71
521.963	50964.39
522.164	51273.63
522.366	51490.71
522.568	51576.73
522.77	52408.2
522.971	52719.49
523.173	52799.36
523.375	52971.39
523.576	53548.92
523.778	53182.34
523.98	54267.76
524.181	54306.67
524.383	54333.29
524.584	55164.77
524.786	54919.01
524.988	54701.93
525.189	55279.46
525.391	55134.05
525.592	55056.23
525.794	55144.29
525.995	54888.29
526.197	55058.27
526.398	55041.89
526.6	55359.33
526.801	54693.74
527.003	54800.23
527.204	54493.04
527.406	54826.85
527.607	54069.11
527.808	54202.22
528.01	52934.53
528.211	53245.82
528.412	53702.52
528.614	53000.07
528.815	52682.63
529.016	52791.17
529.218	51451.8
529.419	51449.75
529.62	51271.58
529.822	50663.33
530.023	50188.2
530.224	49577.91
530.425	48988.1
530.626	48281.55
530.828	47826.9
531.029	48453.58
531.23	47237.08
531.431	46575.59
531.632	46325.74
531.833	46116.84
532.035	45189.11
532.236	44924.93
532.437	44298.25
532.638	43556.88
532.839	43489.3
533.04	43229.21
533.241	41541.68
533.442	42237.99
533.643	41091.13
533.844	40603.71
534.045	40208.45
534.246	39110.74
534.447	39481.42
534.648	38293.6
534.849	37881.96
535.05	37488.75
535.251	37152.88
535.451	36501.63
535.652	36288.64
535.853	35336.34
536.054	34857.11
536.255	34859.16
536.456	33697.96
536.657	34105.51
536.857	33179.82
537.058	32698.55
537.259	32596.15
537.46	32417.98
537.66	31350.99
537.861	31092.94
538.062	30843.09
538.263	30355.68
538.463	29911.27
538.664	29405.42
538.865	29366.51
539.065	29004.02
539.266	28264.7
539.466	28287.23
539.667	27762.95
539.868	27783.43
540.068	27130.12
540.269	26814.74
540.469	26669.33
540.67	26171.68
540.87	25882.91
541.071	25491.75
541.271	25278.76
541.472	25125.16
541.672	24662.32
541.873	24131.9
542.073	23839.04
542.274	23763.26
542.474	23613.76
542.675	23214.41
542.875	23185.74
543.075	22829.39
543.276	22202.71
543.476	22401.36
543.676	22085.98
543.877	21961.05
544.077	21522.79
544.277	21500.26
544.478	20724.08
544.678	20924.78
544.878	20488.56
545.078	20584.82
545.279	19931.51
545.479	19786.11
545.679	19859.84
545.879	19583.36
546.079	19495.3
546.28	19081.61
546.48	18655.63
546.68	18827.66
546.88	18456.98
547.08	18166.17
547.28	18043.29
547.48	17787.29
547.68	17631.65
547.88	17238.44
548.081	17332.64
548.281	17056.17
548.481	16535.98
548.681	16454.06
548.881	16126.39
549.081	15993.27
549.28	15630.78
549.48	15600.06
549.68	15475.13
549.88	15270.34
550.08	14688.71
550.28	14701
550.48	14565.84
550.68	14354.9
550.88	14016.98
551.08	14074.32
551.279	13898.2
551.479	13437.41
551.679	13670.87
551.879	13218.27
552.079	13027.81
552.278	12876.26
552.478	12896.74
552.678	12478.96
552.878	12538.35
553.077	12196.34
553.277	11807.22
553.477	11782.65
553.676	11549.18
553.876	11368.96
554.076	11233.79
554.275	11006.47
554.475	10682.89
554.674	10732.04
554.874	10383.88
555.074	10371.6
555.273	10158.61
555.473	9929.24
555.672	9912.85
555.872	9773.59
556.071	9681.43
556.271	9746.97
556.47	9273.89
556.67	9081.38
556.869	8940.07
557.068	8845.86
557.268	8718.89
557.467	8546.86
557.667	8366.63
557.866	8180.27
558.065	8047.15
558.265	8030.77
558.464	7907.89
558.663	7899.7
558.863	7563.83
559.062	7434.81
559.261	7262.78
559.461	7461.43
559.66	7119.42
559.859	6900.29
560.058	6849.09
560.258	6666.82
560.457	6699.59
560.656	6789.7
560.855	6408.78
561.054	6320.71
561.253	6244.94
561.453	6187.6
561.652	6038.09
561.851	6093.39
562.05	5814.87
562.249	5622.36
562.448	5800.53
562.647	5663.32
562.846	5579.35
563.045	5472.86
563.244	5366.36
563.443	5237.34
563.642	5098.08
563.841	5243.48
564.04	5073.5
564.239	5116.51
564.438	4993.63
564.637	4760.16
564.836	4846.18
565.035	4702.82
565.234	4612.71
565.432	4618.85
565.631	4604.52
565.83	4530.79
566.029	4461.16
566.228	4414.06
566.427	4426.34
566.625	4184.68
566.824	4108.91
567.023	4123.24
567.222	3967.6
567.42	4012.65
567.619	3938.93
567.818	3834.48
568.016	3955.31
568.215	3965.55
568.414	3777.14
568.612	3740.27
568.811	3736.18
569.01	3568.24
569.208	3529.33
569.407	3506.81
569.605	3426.93
569.804	3326.58
570.002	3340.92
570.201	3115.64
570.4	3205.75
570.598	3142.27
570.797	3115.64
570.995	2964.09
571.193	3031.68
571.392	2912.89
571.59	2845.31
571.789	3025.53
571.987	3068.54
572.186	3064.44
572.384	2792.06
572.582	2744.96
572.781	2830.98
572.979	2529.92
573.177	2570.88
573.376	2652.8
573.574	2675.33
573.772	2454.15
573.971	2316.94
574.169	2341.51
574.367	2411.14
574.565	2376.33
574.763	2273.93
574.962	2239.11
575.16	2255.5
575.358	2269.83
575.556	2151.05
575.754	2228.87
575.952	2114.19
576.151	2067.08
576.349	2116.23
576.547	1925.77
576.745	1956.49
576.943	2034.32
577.141	1946.25
577.339	1800.85
577.537	1862.29
577.735	1936.01
577.933	1780.37
578.131	1563.28
578.329	1854.09
578.527	1596.05
578.725	1723.02
578.923	1585.81
579.121	1688.21
579.319	1497.75
579.516	1563.28
579.714	1839.76
579.912	1493.65
580.11	1399.45
580.308	1510.04
580.506	1407.64
580.704	1307.29
580.901	1329.81
581.099	1530.52
581.297	1407.64
581.495	1413.78
581.692	1401.49
581.89	1381.01
582.088	1305.24
582.285	1270.42
582.483	1286.81
582.681	1282.71
582.878	1270.42
583.076	1229.46
583.274	1180.31
583.471	1290.9
583.669	1274.52
583.866	1067.67
584.064	1106.59
584.262	1086.11
584.459	1073.82
584.657	1077.91
584.854	1120.92
585.052	1155.74
585.249	1133.21
585.447	1032.86
585.644	922.27
585.841	1102.49
586.039	1014.43
586.236	1010.33
586.434	854.69
586.631	895.64
586.828	869.02
587.026	936.6
587.223	940.7
587.42	801.44
587.618	977.56
587.815	967.32
588.012	916.12
588.21	897.69
588.407	901.79
588.604	885.41
588.801	852.64
588.999	819.87
589.196	776.86
589.393	737.95
589.59	862.88
589.787	799.39
589.984	817.82
590.182	785.05
590.379	707.23
590.576	828.06
590.773	639.65
590.97	758.43
591.167	797.34
591.364	731.81
591.561	707.23
591.758	885.41
591.955	772.77
592.152	737.95
592.349	690.85
592.546	746.14
592.743	653.98
592.94	731.81
593.137	740
593.334	823.97
593.531	701.09
593.727	803.49
593.924	819.87
594.121	709.28
594.318	770.72
594.515	797.34
594.712	940.7
594.908	918.17
595.105	682.66
595.302	778.91
595.499	842.4
595.696	959.13
595.892	875.17
596.089	895.64
596.286	813.73
596.482	977.56
596.679	879.26
596.876	848.54
597.072	996
597.269	930.46
597.466	971.42
597.662	1010.33
597.859	955.04
598.055	1168.02
598.252	1192.6
598.448	1125.02
598.645	1215.13
598.841	1225.37
599.038	1360.53
599.234	1356.44
599.431	1346.2
599.627	1432.21
599.824	1481.36
600.02	1473.17
600.217	1577.62
600.413	1684.11
600.609	1770.13
600.806	1962.64
601.002	1784.46
601.198	1798.8
601.395	1948.3
601.591	2034.32
601.787	2122.38
601.984	2136.71
602.18	2280.07
602.376	2271.88
602.572	2544.26
602.769	2480.77
602.965	2511.49
603.161	2722.43
603.357	2841.22
603.553	2820.74
603.75	2847.36
603.946	2984.57
604.142	3189.37
604.338	3275.38
604.534	3381.88
604.73	3390.07
604.926	3553.91
605.122	3820.14
605.318	3768.95
605.514	3961.45
605.71	4205.16
605.906	4041.32
606.102	4272.75
606.298	4409.96
606.494	4465.25
606.69	4653.67
606.886	4960.86
607.082	4975.2
607.278	5126.75
607.474	5372.5
607.67	5519.96
607.866	5339.74
608.062	5837.39
608.257	5945.94
608.453	5851.73
608.649	6052.43
608.845	6238.8
609.041	6371.91
609.236	6808.13
609.432	6617.67
609.628	6984.26
609.824	7287.36
610.019	7430.71
610.215	7586.36
610.411	7991.86
610.606	7998
610.802	8100.4
610.998	8399.4
611.193	8794.66
611.389	8784.42
611.584	9071.14
611.78	9120.29
611.976	9521.69
612.171	9839.12
612.367	9984.53
612.562	10398.22
612.758	10320.4
612.953	10498.57
613.149	11112.96
613.344	11348.48
613.539	11606.52
613.735	11883
613.93	12300.78
614.126	12405.23
614.321	13023.72
614.517	13408.73
614.712	13679.07
614.907	13910.49
615.103	14528.97
615.298	14473.68
615.493	15143.36
615.688	15081.92
615.884	15960.5
616.079	16069.05
616.274	16779.69
616.47	16984.49
616.665	17213.86
616.86	17813.91
617.055	18176.41
617.25	18631.05
617.445	19515.78
617.641	19206.53
617.836	19995
618.031	20445.55
618.226	21236.07
618.421	21330.28
618.616	22233.43
618.811	22595.92
619.006	23247.18
619.201	23318.85
619.396	23857.47
619.591	24281.4
619.786	25415.97
619.981	25461.03
620.176	26128.67
620.371	26292.51
620.566	27603.21
620.761	27691.27
620.956	28500.22
621.151	28625.14
621.346	29784.29
621.541	29540.58
621.735	31043.79
621.93	30812.37
622.125	31664.33
622.32	32172.22
622.515	32618.68
622.709	33355.95
622.904	34046.12
623.099	34744.47
623.294	35418.25
623.488	35375.25
623.683	36407.42
623.878	36753.53
624.072	37587.05
624.267	37879.91
624.462	38596.7
624.656	39215.19
624.851	39966.79
625.046	40341.57
625.24	41044.02
625.435	41191.48
625.629	41674.8
625.824	42500.13
626.018	42981.4
626.213	42934.3
626.407	44181.51
626.602	44062.73
626.796	45080.57
626.991	45402.1
627.185	45398.01
627.38	45934.57
627.574	45973.49
627.768	45905.9
627.963	46235.63
628.157	46614.5
628.352	46753.76
628.546	46338.02
628.74	47308.76
628.935	46411.75
629.129	46688.23
629.323	46421.99
629.517	46477.29
629.712	45973.49
629.906	45649.91
630.1	44886.01
630.294	44728.32
630.489	44539.91
630.683	44050.44
630.877	42694.69
631.071	42274.85
631.265	41912.36
631.459	40714.3
631.653	39960.65
631.848	39163.99
632.042	38312.03
632.236	37390.45
632.43	36356.22
632.624	35698.83
632.818	34543.77
633.012	33288.37
633.206	32506.04
633.4	31547.59
633.594	30150.88
633.788	29239.53
633.982	28285.18
634.176	27564.29
634.369	26261.79
634.563	25364.78
634.757	24217.91
634.951	23724.35
635.145	22753.62
635.339	21588.32
635.533	20892.01
635.726	19874.17
635.92	18973.07
636.114	18407.83
636.308	17664.41
636.501	17004.97
636.695	16286.13
636.889	15614.4
637.083	15047.11
637.276	14457.29
637.47	13666.78
637.664	13130.21
637.857	12751.34
638.051	11936.24
638.244	11891.19
638.438	11334.14
638.632	10863.11
638.825	10105.36
639.019	10115.6
639.212	9583.13
639.406	9351.71
639.599	8673.83
639.793	8419.88
639.986	8071.73
640.18	7715.38
640.373	7766.58
640.567	7342.65
640.76	7027.26
640.954	6634.05
641.147	6529.61
641.34	6029.9
641.534	5902.93
641.727	5794.39
641.92	5526.1
642.114	5429.85
642.307	4985.44
642.5	4987.49
642.694	4815.46
642.887	4512.36
643.08	4438.63
643.273	4319.85
643.467	4004.46
643.66	3652.21
643.853	3684.98
644.046	3652.21
644.239	3392.12
644.432	3287.67
644.626	3166.84
644.819	3084.92
645.012	2972.29
645.205	2943.61
645.398	2835.07
645.591	2558.6
645.784	2413.19
645.977	2472.58
646.17	2374.28
646.363	2302.6
646.556	2177.67
646.749	2101.9
646.942	2005.64
647.135	1995.4
647.328	1839.76
647.521	1870.48
647.714	1763.98
647.907	1716.88
648.099	1534.61
648.292	1546.9
648.485	1571.47
648.678	1434.26
648.871	1317.53
649.064	1516.18
649.256	1264.28
649.449	1229.46
649.642	1188.5
649.835	1137.31
650.027	1065.63
650.22	1157.78
650.413	1010.33
650.605	1012.38
650.798	930.46
650.991	993.95
651.183	881.31
651.376	881.31
651.568	840.35
651.761	840.35
651.954	869.02
652.146	766.62
652.339	793.25
652.531	795.29
652.724	701.09
652.916	647.84
653.109	549.54
653.301	813.73
653.494	715.42
653.686	664.22
653.879	787.1
654.071	731.81
654.263	578.21
654.456	518.82
654.648	651.94
654.84	613.03
655.033	438.95
655.225	533.15
655.417	395.94
655.61	527.01
655.802	436.9
655.994	572.07
656.186	512.67
656.379	563.87
656.571	379.56
656.763	336.55
656.955	369.32
657.148	402.08
657.34	527.01
657.532	359.08
657.724	375.46
657.916	424.61
658.108	479.91
658.3	369.32
658.492	428.71
658.684	316.07
658.876	410.28
659.068	254.63
659.26	209.58
659.452	260.77
659.644	348.84
659.836	449.19
660.028	281.25
660.22	291.49
660.412	342.69
660.604	305.83
660.796	342.69
660.988	289.45
661.18	309.93
661.372	330.41
661.563	299.69
661.755	205.48
661.947	203.43
662.139	207.53
662.331	293.54
662.522	209.58
662.714	197.29
662.906	170.66
663.097	244.39
663.289	141.99
663.481	76.46
663.673	293.54
663.864	180.9
664.056	271.01
664.247	170.66
664.439	287.4
664.631	236.2
664.822	271.01
665.014	283.3
665.205	174.76
665.397	148.14
665.588	197.29
665.78	246.44
665.971	311.97
666.163	195.24
666.354	246.44
666.546	119.46
666.737	164.52
666.929	101.03
667.12	139.94
667.311	273.06
667.503	182.95
667.694	256.68
667.885	205.48
668.077	254.63
668.268	146.09
668.459	193.19
668.651	213.67
668.842	228.01
669.033	107.18
669.224	121.51
669.416	369.32
669.607	113.32
669.798	103.08
669.989	289.45
670.18	160.42
670.371	215.72
670.563	90.79
670.754	285.35
670.945	303.78
671.136	180.9
671.327	172.71
671.518	268.97
671.709	320.17
671.9	295.59
672.091	320.17
672.282	182.95
672.473	174.76
672.664	148.14
672.855	199.34
673.046	309.93
673.237	260.77
673.428	252.58
673.619	234.15
673.809	164.52
674	277.16
674.191	215.72
674.382	176.81
674.573	166.57
674.764	182.95
674.954	283.3
675.145	47.79
675.336	185
675.527	119.46
675.717	240.29
675.908	117.42
676.099	182.95
676.289	172.71
676.48	94.89
676.671	191.14
676.861	146.09
677.052	283.3
677.243	271.01
677.433	162.47
677.624	332.45
677.814	246.44
678.005	201.38
678.195	373.41
678.386	223.91
678.576	230.06
678.767	172.71
678.957	260.77
679.148	285.35
679.338	336.55
679.529	293.54
679.719	240.29
679.909	348.84
680.1	287.4
680.29	397.99
680.481	164.52
680.671	289.45
680.861	320.17
681.052	266.92
681.242	199.34
681.432	285.35
681.622	193.19
681.813	113.32
682.003	273.06
682.193	221.86
682.383	277.16
682.573	238.25
682.764	254.63
682.954	346.79
683.144	328.36
683.334	228.01
683.524	301.73
683.714	291.49
683.904	305.83
684.094	277.16
684.284	338.6
684.474	397.99
684.664	397.99
684.854	361.13
685.044	264.87
685.234	191.14
685.424	346.79
685.614	193.19
685.804	481.96
685.994	359.08
686.184	330.41
686.374	348.84
686.564	371.36
686.753	238.25
686.943	223.91
687.133	289.45
687.323	182.95
687.513	371.36
687.702	373.41
687.892	328.36
688.082	326.31
688.272	385.7
688.461	311.97
688.651	402.08
688.841	307.88
689.03	324.26
689.22	273.06
689.41	330.41
689.599	332.45
689.789	258.73
689.979	428.71
690.168	318.12
690.358	305.83
690.547	318.12
690.737	408.23
690.926	277.16
691.116	297.64
691.305	385.7
691.495	342.69
691.684	215.72
691.874	309.93
692.063	225.96
692.252	389.8
692.442	322.21
692.631	285.35
692.82	322.21
693.01	293.54
693.199	228.01
693.388	330.41
693.578	291.49
693.767	318.12
693.956	357.03
694.146	258.73
694.335	342.69
694.524	256.68
694.713	297.64
694.902	213.67
695.092	185
695.281	332.45
695.47	266.92
695.659	238.25
695.848	283.3
696.037	207.53
696.226	297.64
696.415	295.59
696.604	277.16
696.793	365.22
696.982	254.63
697.171	395.94
697.36	207.53
697.549	252.58
697.738	107.18
697.927	273.06
698.116	232.1
698.305	256.68
698.494	320.17
698.683	320.17
698.872	385.7
699.061	219.82
699.25	201.38
699.438	254.63
699.627	277.16
699.816	361.13
700.005	133.8
700.193	289.45
700.382	297.64
700.571	273.06
700.76	271.01
700.948	254.63
701.137	254.63
701.326	281.25
701.514	209.58
701.703	277.16
701.892	303.78
702.08	395.94
702.269	268.97
702.457	277.16
702.646	260.77
702.834	264.87
703.023	301.73
703.212	334.5
703.4	221.86
703.589	281.25
703.777	205.48
703.965	98.99
704.154	168.62
704.342	205.48
704.531	215.72
704.719	287.4
704.907	287.4
705.096	195.24
705.284	152.23
705.472	209.58
705.661	293.54
705.849	361.13
706.037	350.89
706.226	336.55
706.414	246.44
706.602	303.78
706.79	299.69
706.979	232.1
707.167	166.57
707.355	129.7
707.543	256.68
707.731	223.91
707.919	191.14
708.107	318.12
708.296	219.82
708.484	176.81
708.672	266.92
708.86	416.42
709.048	289.45
709.236	230.06
709.424	295.59
709.612	215.72
709.8	230.06
709.988	273.06
710.176	305.83
710.364	367.27
710.551	299.69
710.739	271.01
710.927	258.73
711.115	330.41
711.303	316.07
711.491	357.03
711.679	230.06
711.866	314.02
712.054	225.96
712.242	281.25
712.43	328.36
712.617	262.82
712.805	357.03
712.993	195.24
713.181	201.38
713.368	346.79
713.556	285.35
713.744	199.34
713.931	377.51
714.119	340.65
714.306	277.16
714.494	268.97
714.682	250.53
714.869	176.81
715.057	256.68
715.244	172.71
715.432	350.89
715.619	82.6
715.807	314.02
715.994	215.72
716.182	332.45
716.369	295.59
716.556	311.97
716.744	238.25
716.931	234.15
717.119	197.29
717.306	332.45
717.493	311.97
717.681	203.43
717.868	279.21
718.055	281.25
718.242	324.26
718.43	209.58
718.617	301.73
718.804	273.06
718.991	404.13
719.179	293.54
719.366	285.35
719.553	359.08
719.74	207.53
719.927	324.26
720.114	287.4
720.301	162.47
720.488	297.64
720.676	242.34
720.863	316.07
721.05	416.42
721.237	254.63
721.424	314.02
721.611	250.53
721.798	203.43
721.985	182.95
722.172	283.3
722.358	287.4
722.545	320.17
722.732	281.25
722.919	412.32
723.106	336.55
723.293	320.17
723.48	232.1
723.667	209.58
723.853	389.8
724.04	324.26
724.227	277.16
724.414	246.44
724.6	273.06
724.787	436.9
724.974	406.18
725.161	225.96
725.347	240.29
725.534	303.78
725.72	254.63
725.907	357.03
726.094	457.38
726.28	287.4
726.467	305.83
726.653	311.97
726.84	451.24
727.027	328.36
727.213	338.6
727.4	314.02
727.586	338.6
727.773	258.73
727.959	367.27
728.145	303.78
728.332	342.69
728.518	211.62
728.705	426.66
728.891	365.22
729.077	338.6
729.264	283.3
729.45	328.36
729.636	379.56
729.823	361.13
730.009	416.42
730.195	344.74
730.382	326.31
730.568	330.41
730.754	326.31
730.94	307.88
731.126	266.92
731.313	322.21
731.499	311.97
731.685	404.13
731.871	381.6
732.057	342.69
732.243	430.76
732.429	322.21
732.615	479.91
732.801	346.79
732.987	314.02
733.173	453.28
733.359	318.12
733.545	291.49
733.731	293.54
733.917	418.47
734.103	346.79
734.289	383.65
734.475	283.3
734.661	467.62
734.847	424.61
735.033	314.02
735.219	363.17
735.404	318.12
735.59	252.58
735.776	299.69
735.962	311.97
736.148	385.7
736.333	373.41
736.519	324.26
736.705	359.08
736.89	336.55
737.076	279.21
737.262	309.93
737.447	293.54
737.633	262.82
737.819	436.9
738.004	359.08
738.19	291.49
738.375	330.41
738.561	428.71
738.747	359.08
738.932	363.17
739.118	588.45
739.303	414.37
739.489	363.17
739.674	299.69
739.859	305.83
740.045	414.37
740.23	408.23
740.416	203.43
740.601	258.73
740.786	307.88
740.972	260.77
741.157	340.65
741.342	293.54
741.528	301.73
741.713	410.28
741.898	350.89
742.084	381.6
742.269	250.53
742.454	373.41
742.639	381.6
742.824	301.73
743.01	443.04
743.195	479.91
743.38	342.69
743.565	291.49
743.75	375.46
743.935	359.08
744.12	414.37
744.305	232.1
744.49	289.45
744.675	303.78
744.86	311.97
745.045	354.98
745.23	397.99
745.415	342.69
745.6	441
745.785	293.54
745.97	363.17
746.155	322.21
746.34	363.17
746.525	273.06
746.71	397.99
746.895	185
747.079	303.78
747.264	287.4
747.449	430.76
747.634	352.93
747.819	281.25
748.003	230.06
748.188	217.77
748.373	365.22
748.557	326.31
748.742	363.17
748.927	256.68
749.111	326.31
749.296	238.25
749.481	297.64
749.665	232.1
749.85	252.58
750.034	311.97
750.219	289.45
750.404	223.91
750.588	223.91
750.773	330.41
750.957	232.1
751.141	309.93
751.326	344.74
751.51	191.14
751.695	244.39
751.879	246.44
752.064	377.51
752.248	211.62
752.432	309.93
752.617	318.12
752.801	363.17
752.985	215.72
753.17	338.6
753.354	301.73
753.538	264.87
753.722	207.53
753.907	281.25
754.091	33.45
754.275	293.54
754.459	201.38
754.643	225.96
754.828	299.69
755.012	295.59
755.196	158.38
755.38	258.73
755.564	146.09
755.748	254.63
755.932	236.2
756.116	303.78
756.3	252.58
756.484	170.66
756.668	240.29
756.852	170.66
757.036	228.01
757.22	342.69
757.404	172.71
757.588	193.19
757.772	230.06
757.956	174.76
758.14	367.27
758.323	148.14
758.507	223.91
758.691	146.09
758.875	260.77
759.059	287.4
759.242	117.42
759.426	180.9
759.61	197.29
759.794	90.79
759.977	162.47
760.161	318.12
760.345	344.74
760.528	248.49
760.712	139.94
760.895	187.05
761.079	170.66
761.263	78.51
761.446	109.22
761.63	180.9
761.813	275.11
761.997	98.99
762.18	197.29
762.364	174.76
762.547	47.79
762.731	129.7
762.914	203.43
763.098	254.63
763.281	72.36
763.464	168.62
763.648	262.82
763.831	113.32
764.015	60.07
764.198	217.77
764.381	74.41
764.564	133.8
764.748	203.43
764.931	197.29
765.114	164.52
765.297	187.05
765.481	129.7
765.664	90.79
765.847	129.7
766.03	324.26
766.213	76.46
766.397	146.09
766.58	39.59
766.763	240.29
766.946	180.9
767.129	41.64
767.312	49.83
767.495	187.05
767.678	90.79
767.861	182.95
768.044	68.27
768.227	98.99
768.41	88.75
768.593	156.33
768.776	105.13
768.959	170.66
769.142	240.29
769.324	8.87
769.507	141.99
769.69	55.98
769.873	172.71
770.056	189.1
770.239	101.03
770.421	250.53
770.604	174.76
770.787	160.42
770.97	96.94
771.152	53.93
771.335	201.38
771.518	70.31
771.7	168.62
771.883	217.77
772.066	37.55
772.248	127.66
772.431	203.43
772.613	197.29
772.796	72.36
772.978	105.13
773.161	148.14
773.343	74.41
773.526	66.22
773.708	8.87
773.891	15.02
774.073	141.99
774.256	68.27
774.438	170.66
774.621	103.08
774.803	82.6
774.985	94.89
775.168	197.29
775.35	94.89
775.532	211.62
775.715	47.79
775.897	139.94
776.079	35.5
776.261	113.32
776.444	66.22
776.626	127.66
776.808	37.55
776.99	2.73
777.173	53.93
777.355	12.97
777.537	66.22
777.719	94.89
777.901	109.22
778.083	68.27
778.265	-30.04
778.447	240.29
778.629	6.83
778.811	92.84
778.993	152.23
779.175	123.56
779.357	144.04
779.539	-46.42
779.721	23.21
779.903	92.84
780.085	47.79
780.267	70.31
780.449	51.88
780.631	123.56
780.812	113.32
780.994	39.59
781.176	84.65
781.358	-23.89
781.54	137.9
781.721	90.79
781.903	211.62
782.085	35.5
782.267	174.76
782.448	10.92
782.63	37.55
782.812	86.7
782.993	111.27
783.175	64.17
783.357	72.36
783.538	92.84
783.72	27.31
783.901	55.98
784.083	168.62
784.264	90.79
784.446	-52.56
784.627	76.46
784.809	125.61
784.99	4.78
785.172	146.09
785.353	33.45
785.535	98.99
785.716	17.07
785.897	-42.32
786.079	58.03
786.26	55.98
786.441	86.7
786.623	-3.41
786.804	45.74
786.985	-1.37
787.167	119.46
787.348	51.88
787.529	60.07
787.71	135.85
787.891	152.23
788.073	80.55
788.254	-32.08
788.435	133.8
788.616	111.27
788.797	51.88
788.978	51.88
789.159	4.78
789.34	0.68
789.522	43.69
789.703	6.83
789.884	78.51
790.065	6.83
790.246	217.77
790.427	-46.42
790.607	180.9
790.788	133.8
790.969	-17.75
791.15	74.41
791.331	-40.28
791.512	17.07
791.693	-77.14
791.874	49.83
792.054	191.14
792.235	84.65
792.416	-50.52
792.597	-50.52
792.778	98.99
792.958	156.33
793.139	25.26
793.32	62.12
793.5	-38.23
793.681	178.86
793.862	160.42
794.042	23.21
794.223	19.11
794.404	60.07
794.584	-105.81
794.765	55.98
794.945	94.89
795.126	92.84
795.306	123.56
795.487	-34.13
795.667	-81.24
795.848	39.59
796.028	6.83
796.209	51.88
796.389	62.12
796.57	72.36
796.75	-1.37
796.93	31.4
797.111	-64.85
797.291	25.26
797.471	117.42
797.652	58.03
797.832	-3.41
798.012	113.32
798.192	6.83
798.373	-73.04
798.553	-1.37
798.733	41.64
798.913	2.73
799.093	-15.7
799.274	92.84
799.454	64.17
799.634	94.89
799.814	35.5
799.994	35.5
800.174	109.22
800.354	70.31
800.534	-34.13
800.714	66.22
800.894	-38.23
801.074	-46.42
801.254	-25.94
801.434	92.84
801.614	27.31
801.794	-42.32
801.974	1850
802.154	19.11
802.334	76.46
802.514	0.68
802.693	-5.46
802.873	4.78
803.053	72.36
803.233	92.84
803.413	66.22
803.592	-38.23
803.772	-1.37
803.952	-32.08
804.131	-11.61
804.311	111.27
804.491	107.18
804.67	29.35
804.85	21.16
805.03	55.98
805.209	66.22
805.389	-19.8
805.568	-1.37
805.748	23.21
805.928	-13.65
806.107	88.75
806.287	60.07
806.466	31.4
806.646	49.83
806.825	37.55
807.004	43.69
807.184	98.99
807.363	90.79
807.543	-5.46
807.722	-60.76
807.901	62.12
808.081	139.94
808.26	-99.67
808.439	47.79
808.619	51.88
808.798	84.65
808.977	55.98
809.156	129.7
809.336	88.75
809.515	76.46
809.694	-77.14
809.873	-9.56
810.052	35.5
810.231	109.22
810.411	27.31
810.59	88.75
810.769	-17.75
810.948	49.83
811.127	-87.38
811.306	8.87
811.485	-46.42
811.664	158.38
811.843	39.59
812.022	37.55
812.201	-17.75
812.38	-34.13
812.559	6.83
812.737	33.45
812.916	-32.08
813.095	-30.04
813.274	88.75
813.453	49.83
813.632	78.51
813.811	45.74
813.989	-73.04
814.168	31.4
814.347	-46.42
814.526	49.83
814.704	119.46
814.883	172.71
815.062	58.03
815.24	135.85
815.419	-152.92
815.598	21.16
815.776	-50.52
815.955	127.66
816.133	-75.09
816.312	-19.8
816.49	31.4
816.669	39.59
816.847	-36.18
817.026	35.5
817.204	12.97
817.383	-77.14
817.561	-97.62
817.74	121.51
817.918	35.5
818.097	19.11
818.275	-81.24
818.453	41.64
818.632	37.55
818.81	6.83
818.988	21.16
819.167	2.73
819.345	27.31
819.523	-64.85
819.701	-25.94
819.879	68.27
820.058	0.68
820.236	12.97
820.414	-9.56
820.592	45.74
820.77	-60.76
820.948	-52.56
821.127	2.73
821.305	86.7
821.483	-25.94
821.661	94.89
821.839	15.02
822.017	-60.76
822.195	-17.75
822.373	43.69
822.551	37.55
822.729	23.21
822.907	6.83
823.085	109.22
823.262	58.03
823.44	76.46
823.618	-23.89
823.796	-25.94
823.974	-32.08
824.152	-48.47
824.329	10.92
824.507	-17.75
824.685	27.31
824.863	-23.89
825.04	64.17
825.218	41.64
825.396	68.27
825.574	115.37
825.751	2.73
825.929	94.89
826.107	-105.81
826.284	-21.85
826.462	58.03
826.639	92.84
826.817	-66.9
826.994	49.83
827.172	-40.28
827.349	197.29
827.527	6.83
827.704	27.31
827.882	43.69
828.059	4.78
828.237	-52.56
828.414	72.36
828.591	-87.38
828.769	62.12
828.946	-19.8
829.124	68.27
829.301	35.5
829.478	17.07
829.655	25.26
829.833	64.17
830.01	-85.33
830.187	-42.32
830.364	-11.61
830.542	4.78
830.719	43.69
830.896	109.22
831.073	45.74
831.25	68.27
831.427	125.61
831.604	2.73
831.782	10.92
831.959	35.5
832.136	29.35
832.313	10.92
832.49	-1.37
832.667	-7.51
832.844	-15.7
833.021	31.4
833.198	78.51
833.374	8.87
833.551	41.64
833.728	-27.99
833.905	45.74
834.082	-71
834.259	64.17
834.436	146.09
834.612	-23.89
834.789	23.21
834.966	-25.94
835.143	78.51
835.319	-30.04
835.496	64.17
835.673	53.93
835.85	127.66
836.026	90.79
836.203	121.51
836.38	17.07
836.556	-5.46
836.733	12.97
836.909	74.41
837.086	-7.51
837.262	-103.76
837.439	86.7
837.616	-9.56
837.792	-66.9
837.968	62.12
838.145	-52.56
838.321	25.26
838.498	141.99
838.674	35.5
838.851	55.98
839.027	-13.65
839.203	62.12
839.38	80.55
839.556	-7.51
839.732	80.55
839.909	31.4
840.085	-30.04
840.261	-48.47
840.437	88.75
840.614	6.83
840.79	43.69
840.966	58.03
841.142	51.88
841.318	31.4
841.494	21.16
841.671	88.75
841.847	2.73
842.023	-62.8
842.199	64.17
842.375	64.17
842.551	-79.19
842.727	-81.24
842.903	144.04
843.079	-21.85
843.255	64.17
843.431	-5.46
843.607	55.98
843.783	-66.9
843.959	31.4
844.134	41.64
844.31	82.6
844.486	33.45
844.662	-36.18
844.838	23.21
845.013	62.12
845.189	86.7
845.365	76.46
845.541	37.55
845.716	-40.28
845.892	84.65
846.068	2.73
846.244	-87.38
846.419	76.46
846.595	-1.37
846.77	-46.42
846.946	55.98
847.122	68.27
847.297	-13.65
847.473	148.14
847.648	-103.76
847.824	-5.46
847.999	-109.91
848.175	60.07
848.35	21.16
848.526	88.75
848.701	76.46
848.876	117.42
849.052	90.79
849.227	17.07
849.403	-25.94
849.578	62.12
849.753	-42.32
849.929	41.64
850.104	-38.23
850.279	62.12
850.454	74.41
850.63	76.46
850.805	-11.61
850.98	0.68
851.155	55.98
851.33	68.27
851.505	-132.44
851.681	68.27
851.856	-58.71
852.031	35.5
852.206	29.35
852.381	-50.52
852.556	19.11
852.731	-32.08
852.906	39.59
853.081	64.17
853.256	166.57
853.431	-30.04
853.606	47.79
853.781	-71
853.956	-95.57
854.131	-15.7
854.305	-111.96
854.48	29.35
854.655	-64.85
854.83	-11.61
855.005	-3.41
855.18	45.74
855.354	-85.33
855.529	37.55
855.704	-1.37
855.879	-5.46
856.053	-42.32
856.228	-7.51
856.403	-68.95
856.577	37.55
856.752	-107.86
856.926	-54.61
857.101	55.98
857.276	-152.92
857.45	76.46
857.625	41.64
857.799	17.07
857.974	23.21
858.148	-118.1
858.323	2.73
858.497	6.83
858.672	-89.43
858.846	-5.46
859.02	141.99
859.195	-3.41
859.369	-5.46
859.543	76.46
859.718	62.12
859.892	17.07
860.066	-21.85
860.241	-17.75
860.415	41.64
860.589	-17.75
860.763	0.68
860.938	-56.66
861.112	15.02
861.286	-11.61
861.46	-44.37
861.634	17.07
861.808	113.32
861.982	-34.13
862.157	-36.18
862.331	-60.76
862.505	-56.66
862.679	-73.04
862.853	51.88
863.027	-66.9
863.201	105.13
863.375	-3.41
863.549	51.88
863.722	31.4
863.896	6.83
864.07	-89.43
864.244	-30.04
864.418	45.74
864.592	64.17
864.766	49.83
864.939	-64.85
865.113	-32.08
865.287	101.03
865.461	-111.96
865.634	2.73
865.808	-21.85
865.982	-32.08
866.156	-30.04
866.329	-109.91
866.503	-36.18
866.676	39.59
866.85	35.5
867.024	15.02
867.197	92.84
867.371	-5.46
867.544	39.59
867.718	-46.42
867.891	96.94
868.065	-183.63
868.238	17.07
868.412	109.22
868.585	27.31
868.759	-95.57
868.932	12.97
869.105	-79.19
869.279	15.02
869.452	-93.52
869.625	55.98
869.799	49.83
869.972	-79.19
870.145	-19.8
870.319	129.7
870.492	27.31
870.665	-32.08
870.838	-50.52
871.011	-116.05
871.185	19.11
871.358	0.68
871.531	-7.51
871.704	-15.7
871.877	15.02
872.05	31.4
872.223	-62.8
872.396	29.35
872.569	58.03
872.742	-62.8
872.915	31.4
873.088	-25.94
873.261	-13.65
873.434	80.55
873.607	-62.8
873.78	25.26
873.953	-54.61
874.126	-27.99
874.299	-13.65
874.471	0.68
874.644	8.87
874.817	45.74
874.99	125.61
875.163	-36.18
875.335	37.55
875.508	6.83
875.681	101.03
875.853	-5.46
876.026	4.78
876.199	131.75
876.371	-40.28
876.544	-30.04
876.717	2.73
876.889	-32.08
877.062	107.18
877.234	-36.18
877.407	-62.8
877.579	80.55
877.752	27.31
877.924	62.12
878.097	51.88
878.269	35.5
878.442	55.98
878.614	-15.7
878.786	-40.28
878.959	45.74
879.131	25.26
879.303	-83.28
879.476	-48.47
879.648	45.74
879.82	17.07
879.993	-34.13
880.165	-36.18
880.337	-95.57
880.509	55.98
880.681	-9.56
880.854	29.35
881.026	141.99
881.198	178.86
881.37	21.16
881.542	51.88
881.714	-21.85
881.886	-77.14
882.058	51.88
882.23	-19.8
882.402	21.16
882.574	64.17
882.746	129.7
882.918	148.14
883.09	51.88
883.262	39.59
883.434	101.03
883.606	-114
883.778	-21.85
883.95	62.12
884.122	-13.65
884.293	21.16
884.465	25.26
884.637	12.97
884.809	-48.47
884.98	19.11
885.152	72.36
885.324	92.84
885.496	-17.75
885.667	-44.37
885.839	-11.61
886.011	60.07
886.182	43.69
886.354	25.26
886.525	88.75
886.697	15.02
886.869	-13.65
887.04	-30.04
887.212	107.18
887.383	174.76
887.555	88.75
887.726	-48.47
887.897	-36.18
888.069	88.75
888.24	55.98
888.412	-34.13
888.583	-71
888.754	35.5
888.926	-148.82
889.097	-25.94
889.268	-146.77
889.44	-66.9
889.611	-73.04
889.782	-95.57
889.953	-54.61
890.125	78.51
890.296	6.83
890.467	-56.66
890.638	-44.37
890.809	66.22
890.98	-36.18
891.151	43.69
891.323	15.02
891.494	2.73
891.665	21.16
891.836	-40.28
892.007	2.73
892.178	-23.89
892.349	23.21
892.52	-64.85
892.691	66.22
892.862	-48.47
893.032	-60.76
893.203	-1.37
893.374	-7.51
893.545	55.98
893.716	23.21
893.887	60.07
894.057	-34.13
894.228	15.02
894.399	-32.08
894.57	27.31
894.74	-5.46
894.911	84.65
895.082	-32.08
895.253	-81.24
895.423	8.87
895.594	19.11
895.764	-17.75
895.935	-46.42
896.106	19.11
896.276	-71
896.447	43.69
896.617	-83.28
896.788	-36.18
896.958	-15.7
897.129	25.26
897.299	-54.61
897.47	178.86
897.64	47.79
897.81	23.21
897.981	19.11
898.151	-91.48
898.322	-21.85
898.492	17.07
898.662	-79.19
898.832	17.07
899.003	-38.23
899.173	51.88
899.343	-44.37
899.513	-3.41
