Data from USB4F104151__289__11-21-10-128.txt Node

Date: Wed Feb 26 11:21:10 EST 2025
User: louis
Spectrometer: USB4F10415
Trigger mode: 4
Integration Time (sec): 1.000000E-1
Scans to average: 1
Electric dark correction enabled: true
Nonlinearity correction enabled: false
Boxcar width: 0
XAxis mode: Wavelengths
Number of Pixels in Spectrum: 3648
>>>>>Begin Spectral Data<<<<<
178.204	-369.15
178.424	-369.15
178.644	-369.15
178.864	-506.36
179.084	-383.48
179.304	-27.14
179.524	-4.61
179.744	62.98
179.964	38.4
180.184	75.26
180.404	34.3
180.624	-86.53
180.844	-61.95
181.064	-29.18
181.283	34.3
181.503	-76.29
181.723	40.45
181.943	-64
182.163	103.93
182.383	-39.42
182.602	91.65
182.822	122.37
183.042	103.93
183.262	56.83
183.482	-45.57
183.701	11.78
183.921	69.12
184.141	11.78
184.361	163.33
184.58	52.74
184.8	24.06
185.02	38.4
185.239	77.31
185.459	81.41
185.679	204.28
185.898	-94.72
186.118	13.82
186.338	15.87
186.557	128.51
186.777	-74.24
186.997	9.73
187.216	-29.18
187.436	181.76
187.655	128.51
187.875	114.17
188.095	58.88
188.314	136.7
188.534	130.56
188.753	-74.24
188.973	75.26
189.192	187.9
189.412	22.02
189.631	17.92
189.851	124.41
190.07	126.46
190.29	19.97
190.509	44.54
190.729	93.69
190.948	105.98
191.168	222.72
191.387	34.3
191.607	17.92
191.826	81.41
192.045	-23.04
192.265	13.82
192.484	56.83
192.704	42.5
192.923	-0.51
193.142	171.52
193.362	144.89
193.581	81.41
193.8	128.51
194.02	87.55
194.239	34.3
194.458	62.98
194.678	-16.9
194.897	38.4
195.116	62.98
195.335	13.82
195.555	28.16
195.774	36.35
195.993	105.98
196.212	75.26
196.432	-53.76
196.651	-29.18
196.87	93.69
197.089	275.96
197.308	112.13
197.528	65.02
197.747	-115.2
197.966	7.68
198.185	105.98
198.404	-2.56
198.623	187.9
198.842	108.03
199.062	87.55
199.281	140.8
199.5	-35.33
199.719	101.89
199.938	11.78
200.157	128.51
200.376	56.83
200.595	69.12
200.814	93.69
201.033	9.73
201.252	134.65
201.471	46.59
201.69	26.11
201.909	89.6
202.128	77.31
202.347	69.12
202.566	44.54
202.785	-45.57
203.004	-14.85
203.223	257.53
203.442	26.11
203.661	-31.23
203.879	161.28
204.098	95.74
204.317	-14.85
204.536	128.51
204.755	56.83
204.974	69.12
205.193	118.27
205.411	138.75
205.63	142.85
205.849	19.97
206.068	-31.23
206.287	-31.23
206.505	91.65
206.724	-2.56
206.943	-8.7
207.162	-20.99
207.381	26.11
207.599	17.92
207.818	50.69
208.037	-98.81
208.255	46.59
208.474	19.97
208.693	71.17
208.911	56.83
209.13	83.45
209.349	101.89
209.567	83.45
209.786	56.83
210.005	71.17
210.223	-12.8
210.442	-104.96
210.661	81.41
210.879	52.74
211.098	7.68
211.316	7.68
211.535	-41.47
211.753	87.55
211.972	132.61
212.191	54.78
212.409	-20.99
212.628	83.45
212.846	1.54
213.065	54.78
213.283	77.31
213.502	17.92
213.72	15.87
213.938	58.88
214.157	-18.94
214.375	151.04
214.594	65.02
214.812	83.45
215.031	-18.94
215.249	7.68
215.467	-8.7
215.686	128.51
215.904	71.17
216.122	69.12
216.341	93.69
216.559	46.59
216.778	48.64
216.996	114.17
217.214	89.6
217.432	36.35
217.651	19.97
217.869	-6.66
218.087	65.02
218.306	-2.56
218.524	28.16
218.742	58.88
218.96	62.98
219.179	22.02
219.397	40.45
219.615	232.96
219.833	81.41
220.051	-0.51
220.27	97.79
220.488	83.45
220.706	81.41
220.924	38.4
221.142	-12.8
221.36	1.54
221.578	36.35
221.796	15.87
222.015	97.79
222.233	48.64
222.451	179.71
222.669	-55.81
222.887	40.45
223.105	54.78
223.323	48.64
223.541	-72.19
223.759	36.35
223.977	22.02
224.195	171.52
224.413	110.08
224.631	9.73
224.849	118.27
225.067	204.28
225.285	-16.9
225.503	-43.52
225.721	-123.39
225.939	69.12
226.157	34.3
226.375	224.76
226.592	32.26
226.81	38.4
227.028	67.07
227.246	138.75
227.464	13.82
227.682	97.79
227.9	73.21
228.117	52.74
228.335	110.08
228.553	-14.85
228.771	65.02
228.989	13.82
229.206	89.6
229.424	75.26
229.642	13.82
229.86	-10.75
230.077	146.94
230.295	75.26
230.513	93.69
230.731	11.78
230.948	177.66
231.166	120.32
231.384	9.73
231.601	15.87
231.819	228.86
232.037	-10.75
232.254	13.82
232.472	-18.94
232.689	9.73
232.907	110.08
233.125	22.02
233.342	-14.85
233.56	-20.99
233.777	5.63
233.995	-14.85
234.213	79.36
234.43	36.35
234.648	50.69
234.865	24.06
235.083	97.79
235.3	69.12
235.518	56.83
235.735	157.18
235.953	122.37
236.17	60.93
236.388	77.31
236.605	83.45
236.822	136.7
237.04	181.76
237.257	85.5
237.475	52.74
237.692	83.45
237.909	60.93
238.127	-10.75
238.344	165.37
238.562	108.03
238.779	11.78
238.996	-51.71
239.214	-0.51
239.431	132.61
239.648	24.06
239.865	28.16
240.083	87.55
240.3	-6.66
240.517	103.93
240.735	46.59
240.952	120.32
241.169	3.58
241.386	118.27
241.603	-27.14
241.821	1.54
242.038	62.98
242.255	165.37
242.472	-55.81
242.689	118.27
242.907	26.11
243.124	83.45
243.341	75.26
243.558	50.69
243.775	-10.75
243.992	-37.38
244.209	122.37
244.426	185.85
244.643	71.17
244.86	105.98
245.078	67.07
245.295	28.16
245.512	32.26
245.729	-0.51
245.946	101.89
246.163	-20.99
246.38	36.35
246.597	26.11
246.814	38.4
247.031	73.21
247.248	54.78
247.464	155.13
247.681	48.64
247.898	93.69
248.115	67.07
248.332	-29.18
248.549	110.08
248.766	126.46
248.983	60.93
249.2	99.84
249.417	101.89
249.633	13.82
249.85	110.08
250.067	-8.7
250.284	40.45
250.501	163.33
250.717	118.27
250.934	5.63
251.151	58.88
251.368	-4.61
251.585	26.11
251.801	73.21
252.018	-29.18
252.235	97.79
252.451	19.97
252.668	69.12
252.885	124.41
253.102	101.89
253.318	1.54
253.535	-57.86
253.752	-37.38
253.968	-16.9
254.185	-154.11
254.401	15.87
254.618	93.69
254.835	11.78
255.051	226.81
255.268	130.56
255.484	24.06
255.701	-10.75
255.917	65.02
256.134	60.93
256.351	22.02
256.567	132.61
256.784	122.37
257	11.78
257.217	91.65
257.433	95.74
257.65	118.27
257.866	138.75
258.082	-29.18
258.299	30.21
258.515	17.92
258.732	-33.28
258.948	-2.56
259.165	22.02
259.381	28.16
259.597	50.69
259.814	9.73
260.03	-10.75
260.246	-76.29
260.463	116.22
260.679	151.04
260.895	75.26
261.112	69.12
261.328	-25.09
261.544	11.78
261.761	146.94
261.977	-20.99
262.193	77.31
262.409	103.93
262.626	89.6
262.842	69.12
263.058	85.5
263.274	114.17
263.49	28.16
263.707	34.3
263.923	138.75
264.139	13.82
264.355	75.26
264.571	124.41
264.787	52.74
265.004	99.84
265.22	1.54
265.436	-12.8
265.652	-6.66
265.868	-8.7
266.084	-4.61
266.3	9.73
266.516	-43.52
266.732	28.16
266.948	-31.23
267.164	-25.09
267.38	97.79
267.596	56.83
267.812	218.62
268.028	32.26
268.244	77.31
268.46	60.93
268.676	-16.9
268.892	38.4
269.108	-64
269.324	-2.56
269.54	11.78
269.756	108.03
269.972	-74.24
270.188	73.21
270.403	-35.33
270.619	-84.48
270.835	85.5
271.051	-2.56
271.267	26.11
271.483	-45.57
271.698	54.78
271.914	56.83
272.13	58.88
272.346	11.78
272.562	19.97
272.777	142.85
272.993	89.6
273.209	11.78
273.425	48.64
273.64	-6.66
273.856	58.88
274.072	3.58
274.287	19.97
274.503	50.69
274.719	54.78
274.934	54.78
275.15	-8.7
275.366	83.45
275.581	-25.09
275.797	22.02
276.012	52.74
276.228	40.45
276.444	54.78
276.659	71.17
276.875	28.16
277.09	42.5
277.306	81.41
277.521	81.41
277.737	81.41
277.952	56.83
278.168	-41.47
278.383	9.73
278.599	19.97
278.814	1.54
279.03	-10.75
279.245	153.09
279.461	30.21
279.676	77.31
279.892	26.11
280.107	-16.9
280.322	17.92
280.538	81.41
280.753	-10.75
280.969	38.4
281.184	44.54
281.399	71.17
281.615	42.5
281.83	32.26
282.045	-70.14
282.26	-8.7
282.476	1.54
282.691	175.61
282.906	56.83
283.122	-10.75
283.337	-4.61
283.552	56.83
283.767	-6.66
283.983	38.4
284.198	3.58
284.413	36.35
284.628	-31.23
284.843	24.06
285.058	128.51
285.274	56.83
285.489	7.68
285.704	110.08
285.919	62.98
286.134	5.63
286.349	155.13
286.564	28.16
286.779	212.48
286.995	19.97
287.21	-61.95
287.425	62.98
287.64	-8.7
287.855	93.69
288.07	-43.52
288.285	122.37
288.5	132.61
288.715	112.13
288.93	42.5
289.145	9.73
289.36	83.45
289.575	42.5
289.79	67.07
290.004	-47.62
290.219	91.65
290.434	60.93
290.649	28.16
290.864	-8.7
291.079	-25.09
291.294	34.3
291.509	108.03
291.724	24.06
291.938	-64
292.153	13.82
292.368	81.41
292.583	93.69
292.798	159.23
293.012	52.74
293.227	60.93
293.442	50.69
293.657	95.74
293.871	110.08
294.086	169.47
294.301	232.96
294.516	159.23
294.73	30.21
294.945	-33.28
295.16	56.83
295.374	118.27
295.589	99.84
295.804	30.21
296.018	81.41
296.233	118.27
296.447	108.03
296.662	50.69
296.877	142.85
297.091	87.55
297.306	9.73
297.52	5.63
297.735	56.83
297.949	105.98
298.164	95.74
298.378	46.59
298.593	13.82
298.807	9.73
299.022	28.16
299.236	142.85
299.451	62.98
299.665	58.88
299.88	-55.81
300.094	15.87
300.309	-16.9
300.523	91.65
300.737	-29.18
300.952	136.7
301.166	56.83
301.381	-33.28
301.595	-25.09
301.809	118.27
302.024	-25.09
302.238	-29.18
302.452	136.7
302.667	101.89
302.881	103.93
303.095	87.55
303.309	56.83
303.524	69.12
303.738	26.11
303.952	24.06
304.166	58.88
304.381	-98.81
304.595	187.9
304.809	9.73
305.023	114.17
305.237	-35.33
305.452	103.93
305.666	120.32
305.88	67.07
306.094	112.13
306.308	103.93
306.522	81.41
306.736	65.02
306.95	52.74
307.164	65.02
307.379	101.89
307.593	224.76
307.807	69.12
308.021	97.79
308.235	69.12
308.449	-88.57
308.663	-25.09
308.877	185.85
309.091	46.59
309.305	83.45
309.519	-27.14
309.733	93.69
309.947	-14.85
310.161	56.83
310.374	79.36
310.588	108.03
310.802	-33.28
311.016	-2.56
311.23	142.85
311.444	-20.99
311.658	11.78
311.872	93.69
312.085	114.17
312.299	169.47
312.513	99.84
312.727	101.89
312.941	-27.14
313.154	87.55
313.368	-20.99
313.582	44.54
313.796	73.21
314.009	28.16
314.223	62.98
314.437	79.36
314.651	95.74
314.864	-6.66
315.078	91.65
315.292	-8.7
315.505	40.45
315.719	32.26
315.933	71.17
316.146	15.87
316.36	81.41
316.573	132.61
316.787	101.89
317.001	103.93
317.214	-37.38
317.428	56.83
317.641	-55.81
317.855	28.16
318.068	50.69
318.282	22.02
318.495	126.46
318.709	101.89
318.922	71.17
319.136	175.61
319.349	26.11
319.563	-47.62
319.776	67.07
319.99	-88.57
320.203	46.59
320.417	50.69
320.63	65.02
320.843	159.23
321.057	95.74
321.27	22.02
321.483	22.02
321.697	224.76
321.91	3.58
322.124	13.82
322.337	120.32
322.55	7.68
322.763	58.88
322.977	54.78
323.19	-0.51
323.403	-4.61
323.617	83.45
323.83	79.36
324.043	11.78
324.256	122.37
324.469	3.58
324.683	79.36
324.896	36.35
325.109	60.93
325.322	-51.71
325.535	165.37
325.748	148.99
325.962	36.35
326.175	13.82
326.388	126.46
326.601	151.04
326.814	81.41
327.027	-18.94
327.24	196.09
327.453	-6.66
327.666	38.4
327.879	130.56
328.092	56.83
328.305	56.83
328.518	-10.75
328.731	13.82
328.944	32.26
329.157	83.45
329.37	54.78
329.583	187.9
329.796	30.21
330.009	-33.28
330.222	95.74
330.435	95.74
330.648	30.21
330.861	138.75
331.073	36.35
331.286	110.08
331.499	50.69
331.712	17.92
331.925	-43.52
332.138	81.41
332.35	54.78
332.563	52.74
332.776	101.89
332.989	1.54
333.202	75.26
333.414	83.45
333.627	40.45
333.84	15.87
334.053	17.92
334.265	-20.99
334.478	-33.28
334.691	19.97
334.903	26.11
335.116	-49.66
335.329	-45.57
335.541	44.54
335.754	230.91
335.966	54.78
336.179	1.54
336.392	52.74
336.604	40.45
336.817	81.41
337.029	83.45
337.242	48.64
337.454	69.12
337.667	13.82
337.88	140.8
338.092	73.21
338.305	71.17
338.517	-96.77
338.729	40.45
338.942	91.65
339.154	-31.23
339.367	-72.19
339.579	81.41
339.792	-76.29
340.004	22.02
340.217	11.78
340.429	97.79
340.641	-90.62
340.854	-20.99
341.066	9.73
341.278	91.65
341.491	177.66
341.703	44.54
341.915	-33.28
342.128	194.05
342.34	58.88
342.552	-37.38
342.764	65.02
342.977	71.17
343.189	122.37
343.401	48.64
343.613	-82.43
343.826	5.63
344.038	32.26
344.25	73.21
344.462	13.82
344.674	128.51
344.886	97.79
345.099	77.31
345.311	67.07
345.523	-92.67
345.735	5.63
345.947	67.07
346.159	-8.7
346.371	71.17
346.583	58.88
346.795	232.96
347.007	26.11
347.219	71.17
347.431	50.69
347.643	89.6
347.855	24.06
348.067	118.27
348.279	-94.72
348.491	-2.56
348.703	108.03
348.915	-8.7
349.127	-23.04
349.339	114.17
349.551	17.92
349.763	91.65
349.975	-6.66
350.187	89.6
350.399	120.32
350.61	134.65
350.822	44.54
351.034	116.22
351.246	91.65
351.458	89.6
351.669	48.64
351.881	155.13
352.093	126.46
352.305	95.74
352.517	155.13
352.728	89.6
352.94	56.83
353.152	89.6
353.363	1.54
353.575	85.5
353.787	202.24
353.999	30.21
354.21	214.52
354.422	-33.28
354.633	38.4
354.845	44.54
355.057	85.5
355.268	56.83
355.48	67.07
355.692	-25.09
355.903	-16.9
356.115	13.82
356.326	-57.86
356.538	140.8
356.749	54.78
356.961	153.09
357.172	17.92
357.384	17.92
357.595	259.58
357.807	40.45
358.018	56.83
358.23	54.78
358.441	210.43
358.653	87.55
358.864	67.07
359.075	-98.81
359.287	114.17
359.498	144.89
359.709	112.13
359.921	-0.51
360.132	93.69
360.344	54.78
360.555	-66.05
360.766	124.41
360.977	-4.61
361.189	194.05
361.4	11.78
361.611	56.83
361.823	165.37
362.034	-39.42
362.245	22.02
362.456	60.93
362.667	77.31
362.879	-8.7
363.09	83.45
363.301	83.45
363.512	-4.61
363.723	15.87
363.935	32.26
364.146	114.17
364.357	1.54
364.568	-12.8
364.779	-39.42
364.99	146.94
365.201	11.78
365.412	62.98
365.623	-100.86
365.834	67.07
366.045	99.84
366.256	69.12
366.467	79.36
366.678	46.59
366.889	48.64
367.1	-29.18
367.311	148.99
367.522	32.26
367.733	108.03
367.944	48.64
368.155	60.93
368.366	81.41
368.577	124.41
368.788	108.03
368.999	7.68
369.209	73.21
369.42	181.76
369.631	202.24
369.842	17.92
370.053	75.26
370.264	146.94
370.474	-84.48
370.685	81.41
370.896	54.78
371.107	157.18
371.317	13.82
371.528	54.78
371.739	159.23
371.95	60.93
372.16	126.46
372.371	52.74
372.582	17.92
372.792	69.12
373.003	19.97
373.214	44.54
373.424	36.35
373.635	19.97
373.846	146.94
374.056	-20.99
374.267	108.03
374.477	83.45
374.688	46.59
374.898	89.6
375.109	75.26
375.319	46.59
375.53	130.56
375.74	124.41
375.951	65.02
376.161	13.82
376.372	58.88
376.582	13.82
376.793	120.32
377.003	-4.61
377.214	-33.28
377.424	128.51
377.635	32.26
377.845	-18.94
378.055	120.32
378.266	-57.86
378.476	79.36
378.686	44.54
378.897	110.08
379.107	85.5
379.317	112.13
379.528	9.73
379.738	136.7
379.948	19.97
380.158	202.24
380.369	28.16
380.579	28.16
380.789	60.93
380.999	157.18
381.21	95.74
381.42	165.37
381.63	77.31
381.84	126.46
382.05	114.17
382.261	142.85
382.471	189.95
382.681	-41.47
382.891	208.38
383.101	95.74
383.311	-49.66
383.521	24.06
383.731	73.21
383.941	146.94
384.151	116.22
384.361	60.93
384.571	148.99
384.781	83.45
384.991	200.19
385.201	200.19
385.411	136.7
385.621	91.65
385.831	38.4
386.041	-23.04
386.251	40.45
386.461	112.13
386.671	-4.61
386.881	108.03
387.091	36.35
387.301	34.3
387.511	81.41
387.72	91.65
387.93	73.21
388.14	-39.42
388.35	46.59
388.56	71.17
388.769	79.36
388.979	-39.42
389.189	-6.66
389.399	77.31
389.609	44.54
389.818	97.79
390.028	-12.8
390.238	44.54
390.447	38.4
390.657	54.78
390.867	148.99
391.076	-8.7
391.286	28.16
391.496	50.69
391.705	17.92
391.915	126.46
392.125	132.61
392.334	42.5
392.544	163.33
392.753	44.54
392.963	-66.05
393.172	114.17
393.382	-25.09
393.591	194.05
393.801	26.11
394.01	157.18
394.22	95.74
394.429	89.6
394.639	19.97
394.848	93.69
395.058	87.55
395.267	42.5
395.477	142.85
395.686	71.17
395.895	161.28
396.105	114.17
396.314	36.35
396.524	144.89
396.733	-39.42
396.942	161.28
397.152	42.5
397.361	165.37
397.57	48.64
397.78	36.35
397.989	114.17
398.198	110.08
398.407	75.26
398.617	79.36
398.826	13.82
399.035	22.02
399.244	89.6
399.453	-39.42
399.663	58.88
399.872	52.74
400.081	-29.18
400.29	161.28
400.499	-12.8
400.708	101.89
400.917	34.3
401.127	30.21
401.336	17.92
401.545	155.13
401.754	239.1
401.963	118.27
402.172	-2.56
402.381	-27.14
402.59	1.54
402.799	52.74
403.008	155.13
403.217	-6.66
403.426	50.69
403.635	15.87
403.844	40.45
404.053	19.97
404.262	56.83
404.471	169.47
404.68	97.79
404.888	1.54
405.097	99.84
405.306	30.21
405.515	83.45
405.724	40.45
405.933	103.93
406.142	89.6
406.35	105.98
406.559	-2.56
406.768	52.74
406.977	187.9
407.185	67.07
407.394	95.74
407.603	-70.14
407.812	101.89
408.02	159.23
408.229	11.78
408.438	24.06
408.646	-68.09
408.855	138.75
409.064	95.74
409.272	153.09
409.481	146.94
409.69	-10.75
409.898	-18.94
410.107	116.22
410.315	142.85
410.524	3.58
410.733	38.4
410.941	32.26
411.15	138.75
411.358	85.5
411.567	161.28
411.775	28.16
411.984	79.36
412.192	112.13
412.401	-41.47
412.609	140.8
412.818	167.42
413.026	116.22
413.234	65.02
413.443	97.79
413.651	-27.14
413.86	46.59
414.068	196.09
414.276	144.89
414.485	-10.75
414.693	97.79
414.901	198.14
415.11	91.65
415.318	62.98
415.526	52.74
415.734	126.46
415.943	44.54
416.151	142.85
416.359	79.36
416.567	9.73
416.776	155.13
416.984	110.08
417.192	243.2
417.4	28.16
417.608	-14.85
417.817	22.02
418.025	163.33
418.233	220.67
418.441	44.54
418.649	30.21
418.857	122.37
419.065	142.85
419.273	52.74
419.481	146.94
419.689	83.45
419.897	52.74
420.105	5.63
420.313	140.8
420.521	239.1
420.729	153.09
420.937	-51.71
421.145	15.87
421.353	157.18
421.561	155.13
421.769	75.26
421.977	-8.7
422.185	62.98
422.393	56.83
422.601	185.85
422.809	30.21
423.017	67.07
423.224	114.17
423.432	136.7
423.64	114.17
423.848	202.24
424.056	40.45
424.263	73.21
424.471	30.21
424.679	204.28
424.887	-10.75
425.094	163.33
425.302	95.74
425.51	62.98
425.718	114.17
425.925	77.31
426.133	1.54
426.341	132.61
426.548	103.93
426.756	89.6
426.964	87.55
427.171	40.45
427.379	54.78
427.586	77.31
427.794	110.08
428.001	181.76
428.209	157.18
428.417	161.28
428.624	146.94
428.832	183.81
429.039	97.79
429.247	163.33
429.454	120.32
429.662	286.2
429.869	116.22
430.076	32.26
430.284	230.91
430.491	204.28
430.699	171.52
430.906	292.35
431.114	208.38
431.321	177.66
431.528	189.95
431.736	167.42
431.943	175.61
432.15	239.1
432.358	200.19
432.565	296.44
432.772	32.26
432.979	275.96
433.187	194.05
433.394	286.2
433.601	138.75
433.808	271.87
434.016	271.87
434.223	343.55
434.43	294.4
434.637	323.07
434.844	339.45
435.052	249.34
435.259	398.84
435.466	437.75
435.673	335.35
435.88	347.64
436.087	396.79
436.294	441.85
436.501	413.18
436.708	302.59
436.915	394.75
437.122	480.76
437.329	286.2
437.537	429.56
437.743	456.19
437.95	570.87
438.157	435.71
438.364	470.52
438.571	372.22
438.778	544.25
438.985	521.72
439.192	579.06
439.399	564.73
439.606	523.77
439.813	626.17
440.02	798.2
440.227	755.19
440.433	693.75
440.64	706.04
440.847	634.36
441.054	691.7
441.261	830.96
441.467	726.52
441.674	804.34
441.881	957.94
442.088	804.34
442.294	912.88
442.501	974.32
442.708	1002.99
442.914	933.36
443.121	1109.49
443.328	1103.34
443.534	1132.01
443.741	1175.02
443.948	1070.58
444.154	1295.85
444.361	1299.95
444.568	1269.23
444.774	1312.24
444.981	1162.73
445.187	1490.41
445.394	1478.12
445.6	1422.83
445.807	1697.25
446.013	1631.72
446.22	1652.2
446.426	1691.11
446.633	1711.59
446.839	1932.77
447.046	1764.84
447.252	2022.88
447.459	1994.21
447.665	2061.79
447.871	2295.26
448.078	2498.01
448.284	2434.52
448.491	2500.06
448.697	2575.83
448.903	2700.76
449.11	2727.38
449.316	2639.32
449.522	2872.79
449.728	3116.5
449.935	3024.34
450.141	3309.01
450.347	3474.89
450.553	3349.96
450.76	3415.5
450.966	3626.44
451.172	3757.51
451.378	4015.55
451.584	4031.94
451.791	4287.93
451.997	4412.86
452.203	4447.68
452.409	4746.68
452.615	4849.08
452.821	4720.06
453.027	4935.09
453.233	5426.61
453.44	5299.63
453.646	5580.2
453.852	5739.94
454.058	5979.56
454.264	6184.35
454.47	6622.62
454.676	6624.67
454.882	7081.36
455.088	7056.79
455.294	7163.28
455.5	8000.9
455.705	8076.68
455.911	8213.89
456.117	8621.44
456.323	9008.5
456.529	8713.6
456.735	9665.9
456.941	9749.87
457.147	10337.63
457.352	10536.29
457.558	10911.07
457.764	11380.05
457.97	11623.76
458.176	12215.62
458.381	12604.74
458.587	13112.63
458.793	13909.29
458.999	13602.1
459.204	15666.45
459.41	15987.98
459.616	15600.91
459.821	16696.58
460.027	17401.08
460.233	18181.35
460.438	18175.21
460.644	19125.47
460.85	19164.38
461.055	20151.5
461.261	21146.81
461.466	20434.12
461.672	21050.56
461.878	23671.96
462.083	23217.31
462.289	23825.56
462.494	24857.73
462.7	24923.27
462.905	25226.37
463.111	27556.96
463.316	28677.19
463.522	29252.67
463.727	30084.15
463.932	31231.01
464.138	32568.34
464.343	33803.26
464.549	34010.11
464.754	35742.69
464.959	37227.46
465.165	37897.15
465.37	37188.55
465.575	37520.32
465.781	39803.81
465.986	41577.35
466.191	40903.57
466.397	40717.2
466.602	40031.13
466.807	42476.41
467.012	43084.65
467.218	43967.33
467.423	43952.99
467.628	45116.24
467.833	47049.52
468.038	46201.66
468.244	45814.6
468.449	48104.23
468.654	46551.87
468.859	46797.62
469.064	47264.56
469.269	45892.42
469.474	46459.71
469.679	47661.86
469.885	46129.98
470.09	46758.71
470.295	47248.18
470.5	45822.79
470.705	46183.23
470.91	44757.85
471.115	45257.55
471.32	45306.7
471.525	45251.41
471.73	44157.79
471.935	43627.37
472.139	42034.05
472.344	42574.71
472.549	41522.05
472.754	40997.77
472.959	40428.44
473.164	38732.72
473.369	38257.59
473.574	39895.97
473.778	38546.36
473.983	37700.54
474.188	37264.33
474.393	35607.52
474.598	35656.67
474.802	34573.3
475.007	34319.35
475.212	33971.19
475.417	32654.35
475.621	32037.91
475.826	32240.66
476.031	30954.54
476.235	30680.11
476.44	30876.71
476.645	30170.16
476.849	29617.21
477.054	29066.31
477.259	28197.97
477.463	28365.9
477.668	27479.13
477.872	27495.52
478.077	27184.23
478.282	26014.84
478.486	25779.32
478.691	25488.51
478.895	25146.5
479.1	25023.62
479.304	25017.47
479.509	24589.45
479.713	24644.74
479.918	24081.55
480.122	23194.78
480.326	23532.7
480.531	23518.36
480.735	23114.91
480.94	22781.09
481.144	23575.7
481.348	22336.68
481.553	22744.23
481.757	21783.73
481.961	22162.61
482.166	22092.97
482.37	22158.51
482.574	21404.86
482.778	20956.35
482.983	21714.1
483.187	21171.39
483.391	21159.1
483.595	20862.15
483.8	20100.3
484.004	20874.43
484.208	20749.51
484.412	19928.27
484.616	20094.16
484.821	19995.85
485.025	19268.83
485.229	19270.87
485.433	18871.52
485.637	19084.51
485.841	18193.64
486.045	18216.17
486.249	18214.12
486.453	17734.9
486.657	17759.47
486.861	17487.09
487.065	16579.84
487.269	16942.33
487.473	16325.89
487.677	16661.76
487.881	16418.05
488.085	15607.06
488.289	15787.28
488.493	15164.7
488.697	15250.71
488.901	14869.79
489.105	14484.77
489.309	14279.97
489.512	14200.1
489.716	13761.84
489.92	13464.88
490.124	13356.34
490.328	13499.7
490.531	12631.36
490.735	12694.85
490.939	12508.48
491.143	12127.56
491.346	11908.43
491.55	11943.24
491.754	11865.42
491.958	11668.81
492.161	11228.5
492.365	11148.63
492.569	11046.23
492.772	10732.89
492.976	10677.6
493.18	10583.39
493.383	10483.04
493.587	10280.29
493.79	10149.22
493.994	10059.11
494.197	9891.18
494.401	9942.38
494.605	9659.76
494.808	9739.63
495.012	9715.05
495.215	9534.83
495.419	9481.58
495.622	9264.5
495.825	9239.92
496.029	9284.98
496.232	9452.91
496.436	9117.04
496.639	9227.64
496.843	9115
497.046	9053.56
497.249	9436.53
497.453	9106.81
497.656	9108.85
497.859	9096.57
498.063	9215.35
498.266	9309.55
498.469	9069.94
498.673	9418.1
498.876	9233.78
499.079	9321.84
499.282	9237.88
499.485	9696.62
499.689	9346.42
499.892	9325.94
500.095	9581.93
500.298	9686.38
500.501	9508.21
500.705	9833.83
500.908	9758.06
501.111	9862.51
501.314	10284.39
501.517	10069.35
501.72	10106.21
501.923	10270.05
502.126	10294.63
502.329	10595.68
502.532	10687.84
502.735	10739.04
502.938	10560.86
503.141	10896.73
503.344	10962.26
503.547	11154.77
503.75	11287.89
503.953	11347.28
504.156	11519.31
504.359	11693.39
504.562	11863.37
504.765	11920.71
504.968	12369.22
505.17	12559.68
505.373	12442.95
505.576	12889.4
505.779	13241.65
505.982	13229.37
506.185	13444.4
506.387	13643.06
506.59	13987.11
506.793	14124.33
506.996	14286.12
507.198	14552.35
507.401	14523.68
507.604	15230.23
507.807	15461.65
508.009	15559.95
508.212	15848.72
508.415	16422.15
508.617	16745.73
508.82	16866.56
509.022	17100.03
509.225	17849.58
509.428	17786.1
509.63	18132.2
509.833	18330.86
510.035	19332.31
510.238	19475.67
510.44	19975.38
510.643	20296.91
510.845	20980.93
511.048	20710.6
511.25	21677.24
511.453	21769.4
511.655	22955.17
511.858	22832.29
512.06	23725.21
512.262	23864.47
512.465	24112.27
512.667	25095.3
512.87	25375.87
513.072	26258.54
513.274	26678.38
513.477	27368.54
513.679	27976.79
513.881	28808.26
514.084	29297.73
514.286	29944.89
514.488	30411.82
514.69	31507.49
514.893	31646.75
515.095	32482.32
515.297	33278.98
515.499	33459.2
515.701	34214.9
515.904	34907.12
516.106	35664.86
516.308	36631.51
516.51	36957.13
516.712	37825.47
516.914	38462.39
517.116	39371.69
517.318	39848.86
517.52	40532.89
517.722	40795.03
517.925	42011.52
518.127	42636.15
518.329	43733.86
518.531	43754.34
518.733	45126.48
518.935	45144.91
519.136	45851.46
519.338	46822.2
519.54	47461.16
519.742	48020.26
519.944	48947.99
520.146	50043.65
520.348	50359.04
520.55	50860.79
520.752	51297.01
520.954	52536.03
521.155	52480.74
521.357	53123.8
521.559	53615.31
521.761	55145.14
521.963	54383.3
522.164	55173.81
522.366	55462.58
522.568	56099.5
522.77	56421.03
522.971	57471.64
523.173	57074.33
523.375	57668.24
523.576	57422.48
523.778	57602.71
523.98	58497.67
524.181	58241.67
524.383	58749.57
524.584	58950.27
524.786	58552.96
524.988	58550.91
525.189	59712.11
525.391	59302.52
525.592	59292.28
525.794	59650.67
525.995	59167.35
526.197	59267.7
526.398	59275.9
526.6	59110.01
526.801	58856.06
527.003	58980.99
527.204	58774.14
527.406	58675.84
527.607	58342.02
527.808	58380.93
528.01	57115.29
528.211	57119.38
528.412	57963.15
528.614	57070.23
528.815	56552.1
529.016	56988.31
529.218	55556.78
529.419	55388.85
529.62	55399.09
529.822	54424.26
530.023	53908.17
530.224	53924.55
530.425	53281.49
530.626	52320.99
530.828	51688.17
531.029	52261.6
531.23	50789.11
531.431	50273.02
531.632	49857.29
531.833	49713.93
532.035	48831.25
532.236	48513.82
532.437	48288.54
532.638	47252.27
532.839	46695.22
533.04	46054.21
533.241	44858.2
533.442	45284.17
533.643	44434.27
533.844	44016.48
534.045	43600.74
534.246	42142.59
534.447	42611.57
534.648	41675.65
534.849	41040.78
535.05	40287.13
535.251	40006.56
535.451	39076.78
535.652	39246.76
535.853	38423.48
536.054	38046.65
536.255	37237.7
536.456	36711.38
536.657	37061.58
536.857	35970.01
537.058	35304.42
537.259	35265.51
537.46	34653.17
537.66	33928.19
537.861	33803.26
538.062	33276.93
538.263	32670.73
538.463	32371.73
538.664	32050.2
538.865	31390.75
539.065	31700
539.266	30780.46
539.466	30944.3
539.667	29871.16
539.868	29832.25
540.068	29424.7
540.269	29082.69
540.469	28875.85
540.67	28431.44
540.87	27870.29
541.071	27784.28
541.271	27343.97
541.472	27397.21
541.672	26604.65
541.873	26553.45
542.073	25894
542.274	25912.44
542.474	25652.34
542.675	25009.28
542.875	25156.74
543.075	24745.09
543.276	24122.51
543.476	24300.69
543.676	23919.76
543.877	23823.51
544.077	23475.35
544.277	23184.54
544.478	22660.26
544.678	22936.74
544.878	22162.61
545.078	22265
545.279	21636.28
545.479	21511.35
545.679	21603.51
545.879	21114.05
546.079	21036.22
546.28	20669.64
546.48	20036.81
546.68	20053.2
546.88	19950.8
547.08	19674.32
547.28	19436.76
547.48	18863.33
547.68	19303.64
547.88	18642.15
548.081	18779.36
548.281	18330.86
548.481	18310.38
548.681	17839.34
548.881	17470.71
549.081	17423.61
549.28	17192.19
549.48	17005.82
549.68	16731.39
549.88	16577.8
550.08	16133.39
550.28	15967.5
550.48	15877.39
550.68	15551.76
550.88	15455.51
551.08	15072.54
551.279	15121.69
551.479	14695.71
551.679	14724.38
551.879	14329.13
552.079	14034.22
552.278	13833.52
552.478	14003.5
552.678	13663.54
552.878	13473.07
553.077	13249.85
553.277	12950.84
553.477	12827.96
553.676	12672.32
553.876	12428.61
554.076	12027.21
554.275	11885.9
554.475	11588.94
554.674	11666.77
554.874	11556.18
555.074	11162.97
555.273	11281.75
555.473	10796.38
555.672	10761.56
555.872	10599.77
556.071	10384.74
556.271	10378.59
556.47	10149.22
556.67	9854.31
556.869	9538.93
557.068	9702.76
557.268	9469.3
557.467	9180.53
557.667	9147.76
557.866	8977.78
558.065	8795.51
558.265	8543.61
558.464	8609.15
558.663	8580.48
558.863	8398.21
559.062	8197.51
559.261	7994.76
559.461	8082.82
559.66	7802.25
559.859	7652.75
560.058	7437.71
560.258	7296.4
560.457	7312.78
560.656	7257.49
560.855	6909.33
561.054	7071.12
561.253	6962.58
561.453	6665.63
561.652	6749.59
561.851	6649.24
562.05	6458.78
562.249	6364.57
562.448	6415.77
562.647	6180.26
562.846	5922.21
563.045	5981.6
563.244	5803.43
563.443	5873.06
563.642	5645.74
563.841	5672.36
564.04	5625.26
564.239	5268.91
564.438	5434.8
564.637	5311.92
564.836	5109.17
565.035	5174.71
565.234	5139.89
565.432	4920.76
565.631	5006.77
565.83	4885.94
566.029	4767.16
566.228	4738.49
566.427	4769.21
566.625	4560.31
566.824	4511.16
567.023	4386.24
567.222	4312.51
567.42	4412.86
567.619	4259.26
567.818	4275.65
568.016	4359.61
568.215	4070.85
568.414	4036.03
568.612	4091.33
568.811	4038.08
569.01	3935.68
569.208	3741.13
569.407	3947.97
569.605	3810.76
569.804	3698.12
570.002	3691.98
570.201	3612.1
570.4	3583.43
570.598	3519.95
570.797	3347.92
570.995	3278.29
571.193	3222.99
571.392	3399.12
571.59	3096.02
571.789	3169.74
571.987	3173.84
572.186	3065.3
572.384	2975.19
572.582	2958.8
572.781	2969.04
572.979	2850.26
573.177	2928.08
573.376	2764.25
573.574	2797.01
573.772	2713.05
573.971	2559.45
574.169	2657.75
574.367	2690.52
574.565	2557.4
574.763	2495.96
574.962	2473.43
575.16	2450.91
575.358	2366.94
575.556	2280.93
575.754	2401.76
575.952	2287.07
576.151	2213.34
576.349	2321.88
576.547	2035.17
576.745	2051.55
576.943	2156
577.141	2098.66
577.339	2094.56
577.537	2055.65
577.735	2043.36
577.933	1986.02
578.131	1887.72
578.329	2024.93
578.527	1859.04
578.725	1996.26
578.923	1707.49
579.121	1830.37
579.319	1730.02
579.516	1830.37
579.714	1883.62
579.912	1607.14
580.11	1615.34
580.308	1684.97
580.506	1592.81
580.704	1426.92
580.901	1410.54
581.099	1752.55
581.297	1539.56
581.495	1547.75
581.692	1363.44
581.89	1609.19
582.088	1478.12
582.285	1490.41
582.483	1365.48
582.681	1414.63
582.878	1320.43
583.076	1316.33
583.274	1363.44
583.471	1373.68
583.669	1263.08
583.866	1052.14
584.064	1244.65
584.262	1203.69
584.459	1140.21
584.657	1222.13
584.854	1230.32
585.052	1146.35
585.249	1261.04
585.447	1191.41
585.644	1105.39
585.841	1082.86
586.039	1050.1
586.236	1279.47
586.434	1046
586.631	1043.95
586.828	1041.9
587.026	1025.52
587.223	1011.18
587.42	988.66
587.618	1023.47
587.815	1064.43
588.012	982.51
588.21	1005.04
588.407	904.69
588.604	1011.18
588.801	865.78
588.999	921.07
589.196	1015.28
589.393	830.96
589.59	888.31
589.787	949.75
589.984	929.27
590.182	861.68
590.379	751.09
590.576	888.31
590.773	826.87
590.97	890.35
591.167	884.21
591.364	882.16
591.561	851.44
591.758	898.55
591.955	851.44
592.152	843.25
592.349	814.58
592.546	849.4
592.743	798.2
592.94	736.76
593.137	820.72
593.334	880.11
593.531	906.74
593.727	814.58
593.924	830.96
594.121	873.97
594.318	769.52
594.515	896.5
594.712	1000.94
594.908	970.23
595.105	751.09
595.302	921.07
595.499	931.31
595.696	1005.04
595.892	900.59
596.089	1052.14
596.286	890.35
596.482	990.7
596.679	908.79
596.876	878.07
597.072	1050.1
597.269	943.6
597.466	1115.63
597.662	1082.86
597.859	1146.35
598.055	1185.26
598.252	1242.61
598.448	1304.04
598.645	1326.57
598.841	1402.35
599.038	1463.79
599.234	1535.46
599.431	1584.62
599.627	1467.88
599.824	1646.05
600.02	1564.14
600.217	1705.45
600.413	1852.9
600.609	1928.67
600.806	2172.38
601.002	2196.96
601.198	2014.69
601.395	2199.01
601.591	2104.8
601.787	2291.17
601.984	2434.52
602.18	2495.96
602.376	2538.97
602.572	2561.5
602.769	2823.64
602.965	2835.92
603.161	3001.81
603.357	3093.97
603.553	3343.82
603.75	3112.4
603.946	3468.75
604.142	3622.34
604.338	3786.18
604.534	3681.74
604.73	3913.16
604.926	4093.38
605.122	4124.1
605.318	4326.85
605.514	4302.27
605.71	4507.07
605.906	4763.06
606.102	4799.93
606.298	4916.66
606.494	5115.31
606.69	5391.79
606.886	5336.49
607.082	5504.43
607.278	5701.03
607.474	5746.09
607.67	5942.69
607.866	6057.38
608.062	6509.98
608.257	6618.52
608.453	6645.15
608.649	6849.94
608.845	7056.79
609.041	7226.77
609.236	7503.25
609.432	7775.63
609.628	7867.78
609.824	8185.22
610.019	8310.15
610.215	8541.57
610.411	8926.58
610.606	8916.34
610.802	9172.34
610.998	9399.66
611.193	9792.87
611.389	9915.75
611.584	10374.5
611.78	10450.27
611.976	10952.02
612.171	11117.91
612.367	11253.08
612.562	11617.61
612.758	11724.11
612.953	11992.39
613.149	12590.4
613.344	12584.26
613.539	13395.25
613.735	13589.81
613.93	14015.79
614.126	14064.94
614.321	14888.22
614.517	15076.63
614.712	15375.64
614.907	15754.51
615.103	16549.12
615.298	16553.22
615.493	17081.6
615.688	17542.39
615.884	18228.46
616.079	18136.3
616.274	19043.55
616.47	19115.23
616.665	19756.24
616.86	20223.18
617.055	20673.73
617.25	21226.68
617.445	22027.44
617.641	22156.46
617.836	22916.26
618.031	23299.23
618.226	23968.91
618.421	24499.34
618.616	25214.08
618.811	25382.01
619.006	26504.3
619.201	26627.18
619.396	27909.21
619.591	27442.27
619.786	29162.56
619.981	28943.43
620.176	30135.35
620.371	30223.41
620.566	30925.86
620.761	31753.24
620.956	32707.6
621.151	32855.05
621.346	33876.99
621.541	34044.92
621.735	35378.15
621.93	35365.86
622.125	36443.09
622.32	36342.74
622.515	37657.54
622.709	38077.37
622.904	38894.51
623.099	39691.17
623.294	40344.47
623.488	40381.34
623.683	41649.03
623.878	41849.73
624.072	43107.18
624.267	43467.62
624.462	44376.92
624.656	44092.26
624.851	45429.58
625.046	46097.22
625.24	46594.87
625.435	46811.96
625.629	48061.22
625.824	48450.33
626.018	49163.03
626.213	48802.58
626.407	50166.53
626.602	50318.08
626.796	51303.15
626.991	51847.91
627.185	52019.94
627.38	52091.62
627.574	52687.58
627.768	52663
627.963	53416.66
628.157	53056.21
628.352	53863.11
628.546	52835.03
628.74	54072.01
628.935	53101.27
629.129	53852.87
629.323	53330.64
629.517	53158.61
629.712	53048.02
629.906	52781.79
630.1	51933.93
630.294	51942.12
630.489	50746.11
630.683	50688.76
630.877	49312.53
631.071	49060.63
631.265	48431.9
631.459	47403.82
631.653	46617.4
631.848	45843.27
632.042	44354.4
632.236	43549.54
632.43	42380.15
632.624	41685.89
632.818	39984.03
633.012	38781.87
633.206	37536.71
633.4	36592.59
633.594	34966.51
633.788	34724.85
633.982	33625.09
634.176	31994.9
634.369	30532.65
634.563	29615.16
634.757	28591.18
634.951	27472.99
635.145	26539.12
635.339	25650.3
635.533	24599.69
635.726	23770.26
635.92	22447.27
636.114	21875.89
636.308	20571.33
636.501	20067.53
636.695	19135.71
636.889	18314.47
637.083	17521.91
637.276	16801.02
637.47	16063.75
637.664	15410.45
637.857	14964
638.051	14232.87
638.244	13888.81
638.438	13374.77
638.632	12893.5
638.825	12203.33
639.019	11937.1
639.212	11142.49
639.406	10769.76
639.599	10325.35
639.793	9901.42
639.986	9670
640.18	9633.13
640.373	8930.68
640.567	8453.5
640.76	8129.92
640.954	8095.11
641.147	7540.11
641.34	7273.87
641.534	6921.62
641.727	6944.15
641.92	6473.12
642.114	6372.77
642.307	6143.39
642.5	5942.69
642.694	5459.37
642.887	5504.43
643.08	5344.69
643.273	4978.1
643.467	4834.74
643.66	4554.17
643.853	4431.29
644.046	4271.55
644.239	4208.06
644.432	3884.48
644.626	3737.03
644.819	3665.35
645.012	3528.14
645.205	3550.67
645.398	3292.62
645.591	3110.35
645.784	3014.1
645.977	2776.53
646.17	2792.92
646.363	2725.33
646.556	2545.11
646.749	2442.71
646.942	2371.04
647.135	2270.69
647.328	2196.96
647.521	2112.99
647.714	2020.83
647.907	2084.32
648.099	1727.97
648.292	1916.39
648.485	1779.17
648.678	1740.26
648.871	1494.51
649.064	1576.42
649.256	1445.35
649.449	1451.5
649.642	1232.37
649.835	1244.65
650.027	1375.72
650.22	1342.96
650.413	1242.61
650.605	1175.02
650.798	1074.67
650.991	1127.92
651.183	1109.49
651.376	1115.63
651.568	1043.95
651.761	919.03
651.954	1080.82
652.146	927.22
652.339	945.65
652.531	892.4
652.724	757.24
652.916	773.62
653.109	663.03
653.301	769.52
653.494	747
653.686	732.66
653.879	790
654.071	728.56
654.263	626.17
654.456	601.59
654.648	675.32
654.84	644.6
655.033	523.77
655.225	681.46
655.417	527.86
655.61	691.7
655.802	642.55
655.994	622.07
656.186	439.8
656.379	527.86
656.571	447.99
656.763	454.14
656.955	450.04
657.148	452.09
657.34	527.86
657.532	417.27
657.724	421.37
657.916	431.61
658.108	566.78
658.3	419.32
658.492	439.8
658.684	321.02
658.876	474.62
659.068	298.49
659.26	323.07
659.452	331.26
659.644	390.65
659.836	419.32
660.028	302.59
660.22	278.01
660.412	310.78
660.604	261.63
660.796	314.88
660.988	382.46
661.18	300.54
661.372	312.83
661.563	318.97
661.755	222.72
661.947	278.01
662.139	278.01
662.331	232.96
662.522	294.4
662.714	228.86
662.906	187.9
663.097	306.68
663.289	161.28
663.481	103.93
663.673	316.92
663.864	239.1
664.056	257.53
664.247	189.95
664.439	323.07
664.631	202.24
664.822	267.77
665.014	218.62
665.205	167.42
665.397	128.51
665.588	245.24
665.78	257.53
665.971	278.01
666.163	114.17
666.354	265.72
666.546	136.7
666.737	155.13
666.929	151.04
667.12	85.5
667.311	259.58
667.503	87.55
667.694	136.7
667.885	163.33
668.077	257.53
668.268	79.36
668.459	220.67
668.651	247.29
668.842	112.13
669.033	144.89
669.224	112.13
669.416	269.82
669.607	159.23
669.798	95.74
669.989	280.06
670.18	130.56
670.371	140.8
670.563	30.21
670.754	368.12
670.945	210.43
671.136	241.15
671.327	101.89
671.518	255.48
671.709	343.55
671.9	189.95
672.091	269.82
672.282	124.41
672.473	263.68
672.664	101.89
672.855	212.48
673.046	269.82
673.237	247.29
673.428	216.57
673.619	263.68
673.809	144.89
674	370.17
674.191	298.49
674.382	175.61
674.573	192
674.764	292.35
674.954	200.19
675.145	151.04
675.336	212.48
675.527	204.28
675.717	93.69
675.908	167.42
676.099	167.42
676.289	165.37
676.48	112.13
676.671	259.58
676.861	79.36
677.052	237.05
677.243	161.28
677.433	163.33
677.624	257.53
677.814	247.29
678.005	155.13
678.195	275.96
678.386	136.7
678.576	159.23
678.767	159.23
678.957	257.53
679.148	286.2
679.338	288.25
679.529	331.26
679.719	235
679.909	392.7
680.1	323.07
680.29	275.96
680.481	206.33
680.671	271.87
680.861	273.92
681.052	261.63
681.242	173.57
681.432	286.2
681.622	239.1
681.813	237.05
682.003	251.39
682.193	167.42
682.383	376.31
682.573	183.81
682.764	259.58
682.954	257.53
683.144	278.01
683.334	232.96
683.524	251.39
683.714	304.64
683.904	355.83
684.094	208.38
684.284	273.92
684.474	390.65
684.664	321.02
684.854	271.87
685.044	382.46
685.234	243.2
685.424	327.16
685.614	144.89
685.804	368.12
685.994	364.03
686.184	327.16
686.374	245.24
686.564	308.73
686.753	304.64
686.943	183.81
687.133	259.58
687.323	267.77
687.513	372.22
687.702	353.79
687.892	210.43
688.082	310.78
688.272	312.83
688.461	286.2
688.651	454.14
688.841	302.59
689.03	255.48
689.22	224.76
689.41	267.77
689.599	144.89
689.789	185.85
689.979	435.71
690.168	294.4
690.358	316.92
690.547	259.58
690.737	275.96
690.926	321.02
691.116	265.72
691.305	321.02
691.495	298.49
691.684	204.28
691.874	196.09
692.063	243.2
692.252	271.87
692.442	269.82
692.631	189.95
692.82	218.62
693.01	232.96
693.199	187.9
693.388	204.28
693.578	273.92
693.767	261.63
693.956	278.01
694.146	214.52
694.335	206.33
694.524	185.85
694.713	280.06
694.902	241.15
695.092	286.2
695.281	325.12
695.47	275.96
695.659	118.27
695.848	280.06
696.037	237.05
696.226	267.77
696.415	226.81
696.604	325.12
696.793	239.1
696.982	198.14
697.171	425.47
697.36	261.63
697.549	306.68
697.738	110.08
697.927	224.76
698.116	136.7
698.305	304.64
698.494	222.72
698.683	198.14
698.872	398.84
699.061	222.72
699.25	214.52
699.438	204.28
699.627	151.04
699.816	359.93
700.005	185.85
700.193	232.96
700.382	257.53
700.571	280.06
700.76	265.72
700.948	284.16
701.137	241.15
701.326	275.96
701.514	155.13
701.703	316.92
701.892	253.44
702.08	398.84
702.269	173.57
702.457	138.75
702.646	327.16
702.834	198.14
703.023	237.05
703.212	245.24
703.4	228.86
703.589	163.33
703.777	232.96
703.965	194.05
704.154	273.92
704.342	155.13
704.531	226.81
704.719	265.72
704.907	267.77
705.096	89.6
705.284	140.8
705.472	278.01
705.661	273.92
705.849	245.24
706.037	316.92
706.226	280.06
706.414	257.53
706.602	157.18
706.79	308.73
706.979	138.75
707.167	249.34
707.355	52.74
707.543	208.38
707.731	249.34
707.919	245.24
708.107	247.29
708.296	136.7
708.484	122.37
708.672	265.72
708.86	235
709.048	179.71
709.236	163.33
709.424	292.35
709.612	222.72
709.8	181.76
709.988	314.88
710.176	294.4
710.364	351.74
710.551	278.01
710.739	235
710.927	189.95
711.115	235
711.303	300.54
711.491	243.2
711.679	206.33
711.866	302.59
712.054	230.91
712.242	249.34
712.43	372.22
712.617	232.96
712.805	310.78
712.993	148.99
713.181	216.57
713.368	202.24
713.556	302.59
713.744	153.09
713.931	308.73
714.119	249.34
714.306	269.82
714.494	171.52
714.682	247.29
714.869	175.61
715.057	216.57
715.244	122.37
715.432	261.63
715.619	144.89
715.807	243.2
715.994	192
716.182	247.29
716.369	327.16
716.556	280.06
716.744	165.37
716.931	196.09
717.119	249.34
717.306	202.24
717.493	294.4
717.681	128.51
717.868	290.3
718.055	232.96
718.242	275.96
718.43	314.88
718.617	278.01
718.804	192
718.991	267.77
719.179	290.3
719.366	300.54
719.553	267.77
719.74	251.39
719.927	226.81
720.114	343.55
720.301	280.06
720.488	97.79
720.676	214.52
720.863	370.17
721.05	321.02
721.237	321.02
721.424	351.74
721.611	298.49
721.798	218.62
721.985	235
722.172	210.43
722.358	243.2
722.545	341.5
722.732	278.01
722.919	314.88
723.106	327.16
723.293	245.24
723.48	290.3
723.667	257.53
723.853	396.79
724.04	271.87
724.227	417.27
724.414	185.85
724.6	302.59
724.787	417.27
724.974	353.79
725.161	390.65
725.347	235
725.534	355.83
725.72	353.79
725.907	353.79
726.094	478.71
726.28	261.63
726.467	345.59
726.653	222.72
726.84	364.03
727.027	333.31
727.213	216.57
727.4	302.59
727.586	306.68
727.773	314.88
727.959	290.3
728.145	323.07
728.332	220.67
728.518	243.2
728.705	368.12
728.891	308.73
729.077	368.12
729.264	169.47
729.45	226.81
729.636	347.64
729.823	294.4
730.009	349.69
730.195	294.4
730.382	314.88
730.568	251.39
730.754	296.44
730.94	255.48
731.126	243.2
731.313	261.63
731.499	269.82
731.685	368.12
731.871	327.16
732.057	361.98
732.243	382.46
732.429	382.46
732.615	392.7
732.801	269.82
732.987	327.16
733.173	321.02
733.359	271.87
733.545	302.59
733.731	185.85
733.917	538.1
734.103	331.26
734.289	267.77
734.475	216.57
734.661	531.96
734.847	366.07
735.033	263.68
735.219	337.4
735.404	304.64
735.59	280.06
735.776	280.06
735.962	366.07
736.148	380.41
736.333	478.71
736.519	290.3
736.705	255.48
736.89	306.68
737.076	339.45
737.262	222.72
737.447	261.63
737.633	263.68
737.819	480.76
738.004	261.63
738.19	273.92
738.375	333.31
738.561	376.31
738.747	351.74
738.932	298.49
739.118	429.56
739.303	376.31
739.489	374.27
739.674	210.43
739.859	232.96
740.045	372.22
740.23	269.82
740.416	232.96
740.601	335.35
740.786	318.97
740.972	204.28
741.157	267.77
741.342	230.91
741.528	255.48
741.713	421.37
741.898	261.63
742.084	288.25
742.269	249.34
742.454	364.03
742.639	419.32
742.824	284.16
743.01	378.36
743.195	423.42
743.38	318.97
743.565	280.06
743.75	267.77
743.935	300.54
744.12	433.66
744.305	271.87
744.49	255.48
744.675	216.57
744.86	345.59
745.045	388.6
745.23	245.24
745.415	275.96
745.6	390.65
745.785	241.15
745.97	327.16
746.155	228.86
746.34	357.88
746.525	312.83
746.71	409.08
746.895	284.16
747.079	245.24
747.264	310.78
747.449	269.82
747.634	390.65
747.819	333.31
748.003	247.29
748.188	230.91
748.373	357.88
748.557	271.87
748.742	280.06
748.927	257.53
749.111	226.81
749.296	265.72
749.481	224.76
749.665	282.11
749.85	198.14
750.034	374.27
750.219	228.86
750.404	243.2
750.588	228.86
750.773	212.48
750.957	206.33
751.141	208.38
751.326	265.72
751.51	218.62
751.695	200.19
751.879	271.87
752.064	396.79
752.248	159.23
752.432	404.99
752.617	263.68
752.801	316.92
752.985	255.48
753.17	310.78
753.354	218.62
753.538	292.35
753.722	151.04
753.907	202.24
754.091	130.56
754.275	337.4
754.459	185.85
754.643	130.56
754.828	312.83
755.012	284.16
755.196	161.28
755.38	327.16
755.564	206.33
755.748	151.04
755.932	206.33
756.116	120.32
756.3	243.2
756.484	177.66
756.668	196.09
756.852	85.5
757.036	163.33
757.22	116.22
757.404	103.93
757.588	159.23
757.772	206.33
757.956	120.32
758.14	323.07
758.323	151.04
758.507	210.43
758.691	89.6
758.875	294.4
759.059	241.15
759.242	148.99
759.426	181.76
759.61	247.29
759.794	89.6
759.977	243.2
760.161	390.65
760.345	224.76
760.528	169.47
760.712	159.23
760.895	204.28
761.079	171.52
761.263	110.08
761.446	187.9
761.63	93.69
761.813	169.47
761.997	89.6
762.18	120.32
762.364	224.76
762.547	114.17
762.731	60.93
762.914	93.69
763.098	124.41
763.281	87.55
763.464	103.93
763.648	79.36
763.831	151.04
764.015	114.17
764.198	216.57
764.381	138.75
764.564	175.61
764.748	206.33
764.931	204.28
765.114	214.52
765.297	239.1
765.481	79.36
765.664	120.32
765.847	110.08
766.03	183.81
766.213	75.26
766.397	179.71
766.58	58.88
766.763	206.33
766.946	116.22
767.129	73.21
767.312	122.37
767.495	52.74
767.678	28.16
767.861	101.89
768.044	159.23
768.227	146.94
768.41	144.89
768.593	118.27
768.776	118.27
768.959	42.5
769.142	212.48
769.324	19.97
769.507	32.26
769.69	60.93
769.873	132.61
770.056	304.64
770.239	103.93
770.421	183.81
770.604	89.6
770.787	87.55
770.97	122.37
771.152	83.45
771.335	161.28
771.518	67.07
771.7	124.41
771.883	171.52
772.066	22.02
772.248	136.7
772.431	257.53
772.613	187.9
772.796	73.21
772.978	138.75
773.161	171.52
773.343	105.98
773.526	71.17
773.708	-2.56
773.891	-66.05
774.073	93.69
774.256	50.69
774.438	278.01
774.621	5.63
774.803	116.22
774.985	54.78
775.168	214.52
775.35	122.37
775.532	83.45
775.715	32.26
775.897	161.28
776.079	15.87
776.261	153.09
776.444	58.88
776.626	48.64
776.808	77.31
776.99	-25.09
777.173	155.13
777.355	75.26
777.537	151.04
777.719	114.17
777.901	103.93
778.083	-25.09
778.265	73.21
778.447	163.33
778.629	-18.94
778.811	120.32
778.993	136.7
779.175	130.56
779.357	40.45
779.539	46.59
779.721	73.21
779.903	52.74
780.085	13.82
780.267	122.37
780.449	73.21
780.631	95.74
780.812	132.61
780.994	124.41
781.176	93.69
781.358	-23.04
781.54	38.4
781.721	165.37
781.903	183.81
782.085	56.83
782.267	192
782.448	-53.76
782.63	60.93
782.812	108.03
782.993	110.08
783.175	71.17
783.357	34.3
783.538	50.69
783.72	-33.28
783.901	3.58
784.083	83.45
784.264	120.32
784.446	-39.42
784.627	-49.66
784.809	132.61
784.99	50.69
785.172	114.17
785.353	159.23
785.535	30.21
785.716	-18.94
785.897	5.63
786.079	46.59
786.26	87.55
786.441	-18.94
786.623	-115.2
786.804	52.74
786.985	48.64
787.167	85.5
787.348	28.16
787.529	36.35
787.71	198.14
787.891	81.41
788.073	62.98
788.254	5.63
788.435	163.33
788.616	75.26
788.797	7.68
788.978	36.35
789.159	-0.51
789.34	95.74
789.522	9.73
789.703	32.26
789.884	-12.8
790.065	85.5
790.246	114.17
790.427	11.78
790.607	118.27
790.788	85.5
790.969	36.35
791.15	58.88
791.331	13.82
791.512	26.11
791.693	-111.1
791.874	-25.09
792.054	185.85
792.235	108.03
792.416	5.63
792.597	-23.04
792.778	105.98
792.958	85.5
793.139	79.36
793.32	17.92
793.5	-8.7
793.681	110.08
793.862	126.46
794.042	44.54
794.223	-72.19
794.404	15.87
794.584	-61.95
794.765	87.55
794.945	-2.56
795.126	19.97
795.306	91.65
795.487	22.02
795.667	-47.62
795.848	77.31
796.028	17.92
796.209	62.98
796.389	77.31
796.57	26.11
796.75	-12.8
796.93	60.93
797.111	-20.99
797.291	-20.99
797.471	54.78
797.652	-14.85
797.832	5.63
798.012	103.93
798.192	11.78
798.373	-27.14
798.553	32.26
798.733	30.21
798.913	-55.81
799.093	-4.61
799.274	73.21
799.454	95.74
799.634	118.27
799.814	36.35
799.994	69.12
800.174	73.21
800.354	15.87
800.534	-111.1
800.714	-14.85
800.894	-29.18
801.074	-74.24
801.254	-78.33
801.434	85.5
801.614	36.35
801.794	5.63
801.974	1850.85
802.154	-8.7
802.334	58.88
802.514	7.68
802.693	24.06
802.873	60.93
803.053	89.6
803.233	65.02
803.413	3.58
803.592	26.11
803.772	-39.42
803.952	-0.51
804.131	-55.81
804.311	161.28
804.491	22.02
804.67	-43.52
804.85	-23.04
805.03	11.78
805.209	165.37
805.389	67.07
805.568	44.54
805.748	24.06
805.928	-33.28
806.107	11.78
806.287	32.26
806.466	-2.56
806.646	52.74
806.825	3.58
807.004	3.58
807.184	60.93
807.363	30.21
807.543	9.73
807.722	-53.76
807.901	155.13
808.081	75.26
808.26	-113.15
808.439	67.07
808.619	22.02
808.798	-96.77
808.977	120.32
809.156	75.26
809.336	67.07
809.515	134.65
809.694	-6.66
809.873	3.58
810.052	19.97
810.231	144.89
810.411	103.93
810.59	26.11
810.769	48.64
810.948	36.35
811.127	-49.66
811.306	-16.9
811.485	-20.99
811.664	130.56
811.843	77.31
812.022	-16.9
812.201	-10.75
812.38	42.5
812.559	-0.51
812.737	89.6
812.916	-16.9
813.095	-29.18
813.274	87.55
813.453	-18.94
813.632	38.4
813.811	44.54
813.989	-70.14
814.168	48.64
814.347	-37.38
814.526	34.3
814.704	91.65
814.883	87.55
815.062	-86.53
815.24	110.08
815.419	-51.71
815.598	79.36
815.776	-61.95
815.955	-39.42
816.133	-121.34
816.312	13.82
816.49	36.35
816.669	-2.56
816.847	32.26
817.026	1.54
817.204	-8.7
817.383	24.06
817.561	-51.71
817.74	-20.99
817.918	79.36
818.097	-55.81
818.275	-51.71
818.453	19.97
818.632	75.26
818.81	-43.52
818.988	-16.9
819.167	-64
819.345	54.78
819.523	71.17
819.701	40.45
819.879	87.55
820.058	3.58
820.236	124.41
820.414	36.35
820.592	9.73
820.77	-20.99
820.948	-12.8
821.127	9.73
821.305	7.68
821.483	-8.7
821.661	11.78
821.839	28.16
822.017	-45.57
822.195	-39.42
822.373	-8.7
822.551	-0.51
822.729	144.89
822.907	5.63
823.085	11.78
823.262	71.17
823.44	13.82
823.618	-8.7
823.796	17.92
823.974	-12.8
824.152	-0.51
824.329	-55.81
824.507	24.06
824.685	34.3
824.863	32.26
825.04	50.69
825.218	75.26
825.396	40.45
825.574	-12.8
825.751	38.4
825.929	93.69
826.107	-125.44
826.284	62.98
826.462	65.02
826.639	-72.19
826.817	15.87
826.994	-35.33
827.172	-12.8
827.349	91.65
827.527	36.35
827.704	-4.61
827.882	81.41
828.059	9.73
828.237	-51.71
828.414	58.88
828.591	-170.49
828.769	-10.75
828.946	-18.94
829.124	5.63
829.301	108.03
829.478	24.06
829.655	50.69
829.833	-12.8
830.01	-164.35
830.187	48.64
830.364	32.26
830.542	1.54
830.719	112.13
830.896	71.17
831.073	5.63
831.25	-16.9
831.427	-6.66
831.604	-16.9
831.782	-47.62
831.959	50.69
832.136	-12.8
832.313	56.83
832.49	34.3
832.667	54.78
832.844	-39.42
833.021	73.21
833.198	-33.28
833.374	-53.76
833.551	3.58
833.728	-25.09
833.905	32.26
834.082	-188.93
834.259	44.54
834.436	114.17
834.612	-94.72
834.789	60.93
834.966	7.68
835.143	26.11
835.319	-113.15
835.496	95.74
835.673	44.54
835.85	114.17
836.026	-14.85
836.203	32.26
836.38	-57.86
836.556	-16.9
836.733	-37.38
836.909	73.21
837.086	3.58
837.262	-88.57
837.439	-43.52
837.616	-29.18
837.792	28.16
837.968	3.58
838.145	-152.06
838.321	-94.72
838.498	40.45
838.674	32.26
838.851	-12.8
839.027	-78.33
839.203	69.12
839.38	42.5
839.556	22.02
839.732	114.17
839.909	-0.51
840.085	34.3
840.261	-14.85
840.437	44.54
840.614	1.54
840.79	19.97
840.966	85.5
841.142	75.26
841.318	1.54
841.494	-14.85
841.671	54.78
841.847	-59.9
842.023	-90.62
842.199	52.74
842.375	28.16
842.551	-55.81
842.727	-23.04
842.903	69.12
843.079	-78.33
843.255	17.92
843.431	-76.29
843.607	-16.9
843.783	-135.68
843.959	48.64
844.134	-4.61
844.31	46.59
844.486	-4.61
844.662	22.02
844.838	30.21
845.013	81.41
845.189	24.06
845.365	114.17
845.541	-47.62
845.716	56.83
845.892	17.92
846.068	-14.85
846.244	46.59
846.419	13.82
846.595	-31.23
846.77	-53.76
846.946	69.12
847.122	26.11
847.297	-80.38
847.473	146.94
847.648	-43.52
847.824	30.21
847.999	-72.19
848.175	-29.18
848.35	71.17
848.526	50.69
848.701	89.6
848.876	134.65
849.052	146.94
849.227	22.02
849.403	17.92
849.578	-20.99
849.753	34.3
849.929	-4.61
850.104	-84.48
850.279	22.02
850.454	19.97
850.63	85.5
850.805	3.58
850.98	28.16
851.155	-16.9
851.33	19.97
851.505	-70.14
851.681	173.57
851.856	-29.18
852.031	26.11
852.206	40.45
852.381	-121.34
852.556	-43.52
852.731	112.13
852.906	73.21
853.081	69.12
853.256	146.94
853.431	-74.24
853.606	-37.38
853.781	-72.19
853.956	-137.73
854.131	15.87
854.305	-84.48
854.48	48.64
854.655	77.31
854.83	-43.52
855.005	-37.38
855.18	-6.66
855.354	34.3
855.529	28.16
855.704	-39.42
855.879	24.06
856.053	-0.51
856.228	44.54
856.403	-33.28
856.577	36.35
856.752	-68.09
856.926	-100.86
857.101	30.21
857.276	-88.57
857.45	-18.94
857.625	26.11
857.799	101.89
857.974	-102.91
858.148	-86.53
858.323	65.02
858.497	38.4
858.672	-78.33
858.846	-70.14
859.02	118.27
859.195	-4.61
859.369	-25.09
859.543	28.16
859.718	38.4
859.892	5.63
860.066	9.73
860.241	-35.33
860.415	-76.29
860.589	-43.52
860.763	42.5
860.938	5.63
861.112	42.5
861.286	-88.57
861.46	24.06
861.634	-33.28
861.808	54.78
861.982	-25.09
862.157	-84.48
862.331	3.58
862.505	-115.2
862.679	-107.01
862.853	1.54
863.027	5.63
863.201	153.09
863.375	-25.09
863.549	95.74
863.722	40.45
863.896	71.17
864.07	-90.62
864.244	17.92
864.418	97.79
864.592	-41.47
864.766	-8.7
864.939	-33.28
865.113	-76.29
865.287	52.74
865.461	-55.81
865.634	65.02
865.808	5.63
865.982	-104.96
866.156	-4.61
866.329	-39.42
866.503	56.83
866.676	103.93
866.85	19.97
867.024	-6.66
867.197	60.93
867.371	-10.75
867.544	26.11
867.718	-74.24
867.891	65.02
868.065	-41.47
868.238	22.02
868.412	110.08
868.585	48.64
868.759	-152.06
868.932	-8.7
869.105	-39.42
869.279	-33.28
869.452	-117.25
869.625	89.6
869.799	71.17
869.972	-76.29
870.145	-35.33
870.319	91.65
870.492	-14.85
870.665	-39.42
870.838	-96.77
871.011	-121.34
871.185	-121.34
871.358	-47.62
871.531	56.83
871.704	-18.94
871.877	3.58
872.05	-31.23
872.223	5.63
872.396	52.74
872.569	-6.66
872.742	-25.09
872.915	-6.66
873.088	-35.33
873.261	-23.04
873.434	93.69
873.607	-14.85
873.78	112.13
873.953	-12.8
874.126	-80.38
874.299	17.92
874.471	-14.85
874.644	-27.14
874.817	71.17
874.99	71.17
875.163	-37.38
875.335	38.4
875.508	-33.28
875.681	108.03
875.853	-4.61
876.026	-35.33
876.199	-10.75
876.371	19.97
876.544	-6.66
876.717	-57.86
876.889	-47.62
877.062	5.63
877.234	-84.48
877.407	-107.01
877.579	7.68
877.752	-70.14
877.924	38.4
878.097	85.5
878.269	-18.94
878.442	28.16
878.614	38.4
878.786	38.4
878.959	-12.8
879.131	28.16
879.303	-137.73
879.476	-8.7
879.648	44.54
879.82	-39.42
879.993	-59.9
880.165	-64
880.337	-113.15
880.509	13.82
880.681	-100.86
880.854	-43.52
881.026	-12.8
881.198	196.09
881.37	-37.38
881.542	-41.47
881.714	-25.09
881.886	-31.23
882.058	40.45
882.23	-39.42
882.402	44.54
882.574	5.63
882.746	151.04
882.918	73.21
883.09	44.54
883.262	-76.29
883.434	15.87
883.606	-94.72
883.778	30.21
883.95	134.65
884.122	-49.66
884.293	48.64
884.465	-14.85
884.637	40.45
884.809	11.78
884.98	69.12
885.152	71.17
885.324	95.74
885.496	-10.75
885.667	-74.24
885.839	-76.29
886.011	103.93
886.182	32.26
886.354	15.87
886.525	52.74
886.697	-31.23
886.869	-43.52
887.04	-4.61
887.212	132.61
887.383	95.74
887.555	40.45
887.726	-59.9
887.897	-25.09
888.069	34.3
888.24	60.93
888.412	-18.94
888.583	58.88
888.754	-20.99
888.926	-115.2
889.097	-35.33
889.268	-78.33
889.44	-51.71
889.611	-47.62
889.782	-51.71
889.953	-53.76
890.125	124.41
890.296	15.87
890.467	9.73
890.638	-51.71
890.809	-70.14
890.98	-2.56
891.151	73.21
891.323	118.27
891.494	-31.23
891.665	-45.57
891.836	-61.95
892.007	-57.86
892.178	28.16
892.349	-6.66
892.52	-84.48
892.691	-16.9
892.862	-18.94
893.032	-53.76
893.203	-12.8
893.374	44.54
893.545	101.89
893.716	5.63
893.887	52.74
894.057	-12.8
894.228	-16.9
894.399	-94.72
894.57	153.09
894.74	-10.75
894.911	62.98
895.082	19.97
895.253	24.06
895.423	5.63
895.594	60.93
895.764	-25.09
895.935	-94.72
896.106	-29.18
896.276	-51.71
896.447	9.73
896.617	-119.29
896.788	-117.25
896.958	-109.05
897.129	-53.76
897.299	-53.76
897.47	50.69
897.64	38.4
897.81	9.73
897.981	40.45
898.151	-39.42
898.322	22.02
898.492	22.02
898.662	-27.14
898.832	11.78
899.003	-139.77
899.173	67.07
899.343	-61.95
899.513	-84.48
