Data from USB4F104151__135__10-46-49-653.txt Node

Date: Wed Feb 26 10:46:49 EST 2025
User: louis
Spectrometer: USB4F10415
Trigger mode: 4
Integration Time (sec): 1.000000E-1
Scans to average: 1
Electric dark correction enabled: true
Nonlinearity correction enabled: false
Boxcar width: 0
XAxis mode: Wavelengths
Number of Pixels in Spectrum: 3648
>>>>>Begin Spectral Data<<<<<
178.204	-377.17
178.424	-377.17
178.644	-377.17
178.864	-375.12
179.084	-428.37
179.304	3.75
179.524	-4.44
179.744	-72.02
179.964	-4.44
180.184	77.48
180.404	38.57
180.624	1.71
180.844	-129.36
181.064	-18.77
181.283	59.05
181.503	-29.01
181.723	77.48
181.943	-104.79
182.163	128.68
182.383	59.05
182.602	3.75
182.822	140.97
183.042	44.71
183.262	-20.82
183.482	-47.44
183.701	22.19
183.921	52.91
184.141	-33.11
184.361	59.05
184.58	52.91
184.8	71.34
185.02	-33.11
185.239	100.01
185.459	97.96
185.679	112.3
185.898	-82.26
186.118	16.04
186.338	42.67
186.557	110.25
186.777	-53.59
186.997	-43.35
187.216	-37.2
187.436	183.98
187.655	81.58
187.875	120.49
188.095	59.05
188.314	202.41
188.534	128.68
188.753	-49.49
188.973	134.82
189.192	212.65
189.412	26.28
189.631	46.76
189.851	91.82
190.07	183.98
190.29	46.76
190.509	5.8
190.729	20.14
190.948	143.02
191.168	124.58
191.387	104.11
191.607	26.28
191.826	1.71
192.045	20.14
192.265	1.71
192.484	161.45
192.704	-10.58
192.923	-119.12
193.142	134.82
193.362	100.01
193.581	91.82
193.8	104.11
194.02	54.95
194.239	5.8
194.458	116.39
194.678	38.57
194.897	22.19
195.116	38.57
195.335	116.39
195.555	52.91
195.774	-0.34
195.993	104.11
196.212	79.53
196.432	18.09
196.651	28.33
196.87	59.05
197.089	296.61
197.308	65.19
197.528	11.95
197.747	-43.35
197.966	85.67
198.185	126.63
198.404	1.71
198.623	175.78
198.842	181.93
199.062	143.02
199.281	-0.34
199.5	67.24
199.719	73.39
199.938	77.48
200.157	108.2
200.376	67.24
200.595	126.63
200.814	71.34
201.033	40.62
201.252	175.78
201.471	24.23
201.69	57
201.909	22.19
202.128	85.67
202.347	112.3
202.566	-16.73
202.785	-65.88
203.004	-31.06
203.223	233.13
203.442	-4.44
203.661	-24.92
203.879	71.34
204.098	130.73
204.317	-39.25
204.536	128.68
204.755	46.76
204.974	169.64
205.193	59.05
205.411	110.25
205.63	147.11
205.849	130.73
206.068	-22.87
206.287	-33.11
206.505	67.24
206.724	97.96
206.943	-35.16
207.162	-29.01
207.381	50.86
207.599	46.76
207.818	-2.39
208.037	-59.73
208.255	89.77
208.474	24.23
208.693	102.06
208.911	18.09
209.13	110.25
209.349	83.63
209.567	69.29
209.786	5.8
210.005	46.76
210.223	52.91
210.442	-172.37
210.661	59.05
210.879	73.39
211.098	-24.92
211.316	71.34
211.535	18.09
211.753	65.19
211.972	16.04
212.191	-57.68
212.409	18.09
212.628	102.06
212.846	-39.25
213.065	83.63
213.283	73.39
213.502	30.38
213.72	97.96
213.938	18.09
214.157	-29.01
214.375	114.34
214.594	-8.53
214.812	36.52
215.031	-90.45
215.249	69.29
215.467	13.99
215.686	30.38
215.904	61.1
216.122	28.33
216.341	188.07
216.559	-8.53
216.778	63.15
216.996	89.77
217.214	46.76
217.432	-0.34
217.651	-61.78
217.869	63.15
218.087	-10.58
218.306	-31.06
218.524	9.9
218.742	-10.58
218.96	106.15
219.179	61.1
219.397	38.57
219.615	169.64
219.833	128.68
220.051	-106.84
220.27	83.63
220.488	93.87
220.706	73.39
220.924	-12.63
221.142	-43.35
221.36	122.54
221.578	20.14
221.796	-26.96
222.015	9.9
222.233	36.52
222.451	122.54
222.669	32.43
222.887	30.38
223.105	24.23
223.323	24.23
223.541	-74.07
223.759	7.85
223.977	59.05
224.195	97.96
224.413	59.05
224.631	3.75
224.849	-12.63
225.067	251.56
225.285	7.85
225.503	26.28
225.721	-88.4
225.939	50.86
226.157	57
226.375	179.88
226.592	-55.64
226.81	20.14
227.028	128.68
227.246	106.15
227.464	104.11
227.682	136.87
227.9	87.72
228.117	38.57
228.335	7.85
228.553	36.52
228.771	-18.77
228.989	67.24
229.206	95.91
229.424	-10.58
229.642	28.33
229.86	-22.87
230.077	106.15
230.295	75.43
230.513	50.86
230.731	22.19
230.948	118.44
231.166	128.68
231.384	-12.63
231.601	-43.35
231.819	118.44
232.037	30.38
232.254	-14.68
232.472	26.28
232.689	32.43
232.907	140.97
233.125	16.04
233.342	-53.59
233.56	-31.06
233.777	18.09
233.995	36.52
234.213	155.3
234.43	100.01
234.648	40.62
234.865	40.62
235.083	110.25
235.3	28.33
235.518	112.3
235.735	24.23
235.953	177.83
236.17	48.81
236.388	16.04
236.605	106.15
236.822	50.86
237.04	79.53
237.257	-18.77
237.475	-39.25
237.692	75.43
237.909	97.96
238.127	40.62
238.344	50.86
238.562	30.38
238.779	-80.21
238.996	-49.49
239.214	38.57
239.431	93.87
239.648	-2.39
239.865	52.91
240.083	85.67
240.3	38.57
240.517	5.8
240.735	87.72
240.952	220.84
241.169	-0.34
241.386	132.78
241.603	32.43
241.821	-88.4
242.038	87.72
242.255	173.74
242.472	-2.39
242.689	40.62
242.907	97.96
243.124	32.43
243.341	30.38
243.558	7.85
243.775	-61.78
243.992	-119.12
244.209	120.49
244.426	165.54
244.643	93.87
244.86	-39.25
245.078	145.06
245.295	147.11
245.512	9.9
245.729	-22.87
245.946	81.58
246.163	50.86
246.38	22.19
246.597	50.86
246.814	59.05
247.031	-12.63
247.248	36.52
247.464	91.82
247.681	110.25
247.898	52.91
248.115	-0.34
248.332	-104.79
248.549	67.24
248.766	224.94
248.983	13.99
249.2	100.01
249.417	1.71
249.633	-4.44
249.85	138.92
250.067	9.9
250.284	81.58
250.501	81.58
250.717	71.34
250.934	-12.63
251.151	46.76
251.368	52.91
251.585	67.24
251.801	81.58
252.018	11.95
252.235	140.97
252.451	-57.68
252.668	-78.16
252.885	145.06
253.102	69.29
253.318	3.75
253.535	16.04
253.752	16.04
253.968	52.91
254.185	-76.12
254.401	75.43
254.618	116.39
254.835	-35.16
255.051	116.39
255.268	69.29
255.484	57
255.701	18.09
255.917	95.91
256.134	48.81
256.351	-8.53
256.567	-10.58
256.784	-24.92
257	-80.21
257.217	110.25
257.433	138.92
257.65	54.95
257.866	179.88
258.082	-65.88
258.299	18.09
258.515	106.15
258.732	83.63
258.948	-4.44
259.165	52.91
259.381	-61.78
259.597	63.15
259.814	-69.97
260.03	38.57
260.246	77.48
260.463	75.43
260.679	140.97
260.895	89.77
261.112	91.82
261.328	1.71
261.544	-33.11
261.761	147.11
261.977	13.99
262.193	-86.36
262.409	67.24
262.626	100.01
262.842	-26.96
263.058	-61.78
263.274	20.14
263.49	40.62
263.707	63.15
263.923	81.58
264.139	-82.26
264.355	11.95
264.571	106.15
264.787	126.63
265.004	106.15
265.22	75.43
265.436	-41.3
265.652	-33.11
265.868	120.49
266.084	-37.2
266.3	26.28
266.516	40.62
266.732	46.76
266.948	40.62
267.164	-2.39
267.38	118.44
267.596	97.96
267.812	196.26
268.028	91.82
268.244	5.8
268.46	97.96
268.676	-78.16
268.892	18.09
269.108	5.8
269.324	-24.92
269.54	-96.6
269.756	91.82
269.972	-84.31
270.188	13.99
270.403	24.23
270.619	75.43
270.835	63.15
271.051	42.67
271.267	24.23
271.483	-16.73
271.698	36.52
271.914	20.14
272.13	59.05
272.346	28.33
272.562	97.96
272.777	26.28
272.993	57
273.209	-37.2
273.425	52.91
273.64	-92.5
273.856	63.15
274.072	1.71
274.287	-41.3
274.503	77.48
274.719	75.43
274.934	24.23
275.15	-39.25
275.366	93.87
275.581	-33.11
275.797	38.57
276.012	36.52
276.228	81.58
276.444	61.1
276.659	75.43
276.875	-20.82
277.09	22.19
277.306	9.9
277.521	67.24
277.737	130.73
277.952	106.15
278.168	20.14
278.383	42.67
278.599	85.67
278.814	36.52
279.03	112.3
279.245	147.11
279.461	61.1
279.676	108.2
279.892	13.99
280.107	-72.02
280.322	-16.73
280.538	95.91
280.753	-57.68
280.969	73.39
281.184	16.04
281.399	108.2
281.615	1.71
281.83	77.48
282.045	-102.74
282.26	-2.39
282.476	28.33
282.691	87.72
282.906	73.39
283.122	79.53
283.337	-2.39
283.552	16.04
283.767	7.85
283.983	77.48
284.198	18.09
284.413	122.54
284.628	-53.59
284.843	57
285.058	38.57
285.274	52.91
285.489	-20.82
285.704	118.44
285.919	-10.58
286.134	104.11
286.349	95.91
286.564	32.43
286.779	171.69
286.995	-16.73
287.21	-14.68
287.425	59.05
287.64	48.81
287.855	50.86
288.07	-35.16
288.285	75.43
288.5	132.78
288.715	83.63
288.93	-16.73
289.145	28.33
289.36	104.11
289.575	34.47
289.79	67.24
290.004	-16.73
290.219	48.81
290.434	54.95
290.649	-33.11
290.864	-45.4
291.079	-16.73
291.294	42.67
291.509	124.58
291.724	-31.06
291.938	-35.16
292.153	95.91
292.368	-22.87
292.583	32.43
292.798	77.48
293.012	-4.44
293.227	67.24
293.442	36.52
293.657	138.92
293.871	161.45
294.086	69.29
294.301	167.59
294.516	130.73
294.73	69.29
294.945	-20.82
295.16	54.95
295.374	118.44
295.589	65.19
295.804	24.23
296.018	38.57
296.233	50.86
296.447	38.57
296.662	67.24
296.877	75.43
297.091	69.29
297.306	48.81
297.52	-6.49
297.735	52.91
297.949	79.53
298.164	138.92
298.378	61.1
298.593	1.71
298.807	-2.39
299.022	-61.78
299.236	97.96
299.451	9.9
299.665	9.9
299.88	48.81
300.094	108.2
300.309	32.43
300.523	81.58
300.737	30.38
300.952	46.76
301.166	38.57
301.381	3.75
301.595	-94.55
301.809	26.28
302.024	-16.73
302.238	24.23
302.452	100.01
302.667	48.81
302.881	106.15
303.095	106.15
303.309	134.82
303.524	-14.68
303.738	7.85
303.952	-69.97
304.166	38.57
304.381	-69.97
304.595	85.67
304.809	9.9
305.023	61.1
305.237	-33.11
305.452	87.72
305.666	77.48
305.88	-8.53
306.094	145.06
306.308	57
306.522	83.63
306.736	69.29
306.95	126.63
307.164	65.19
307.379	-10.58
307.593	136.87
307.807	63.15
308.021	46.76
308.235	95.91
308.449	-59.73
308.663	91.82
308.877	249.51
309.091	93.87
309.305	100.01
309.519	-49.49
309.733	200.36
309.947	-47.44
310.161	122.54
310.374	181.93
310.588	104.11
310.802	-14.68
311.016	-16.73
311.23	28.33
311.444	-106.84
311.658	-37.2
311.872	85.67
312.085	175.78
312.299	100.01
312.513	171.69
312.727	7.85
312.941	7.85
313.154	147.11
313.368	81.58
313.582	44.71
313.796	102.06
314.009	-0.34
314.223	112.3
314.437	54.95
314.651	124.58
314.864	71.34
315.078	52.91
315.292	-67.92
315.505	5.8
315.719	59.05
315.933	63.15
316.146	-8.53
316.36	-33.11
316.573	175.78
316.787	97.96
317.001	61.1
317.214	-49.49
317.428	79.53
317.641	-53.59
317.855	44.71
318.068	93.87
318.282	-2.39
318.495	179.88
318.709	114.34
318.922	-53.59
319.136	143.02
319.349	85.67
319.563	30.38
319.776	118.44
319.99	-49.49
320.203	24.23
320.417	79.53
320.63	112.3
320.843	222.89
321.057	59.05
321.27	13.99
321.483	18.09
321.697	143.02
321.91	100.01
322.124	65.19
322.337	24.23
322.55	-26.96
322.763	13.99
322.977	30.38
323.19	3.75
323.403	44.71
323.617	67.24
323.83	59.05
324.043	48.81
324.256	52.91
324.469	-33.11
324.683	85.67
324.896	-51.54
325.109	79.53
325.322	-24.92
325.535	120.49
325.748	122.54
325.962	61.1
326.175	-16.73
326.388	140.97
326.601	95.91
326.814	63.15
327.027	36.52
327.24	87.72
327.453	-41.3
327.666	48.81
327.879	65.19
328.092	104.11
328.305	-4.44
328.518	38.57
328.731	38.57
328.944	-0.34
329.157	81.58
329.37	9.9
329.583	136.87
329.796	106.15
330.009	-129.36
330.222	116.39
330.435	100.01
330.648	-4.44
330.861	91.82
331.073	-4.44
331.286	165.54
331.499	75.43
331.712	-37.2
331.925	-33.11
332.138	1.71
332.35	54.95
332.563	63.15
332.776	91.82
332.989	-96.6
333.202	3.75
333.414	79.53
333.627	93.87
333.84	46.76
334.053	-0.34
334.265	-37.2
334.478	34.47
334.691	77.48
334.903	9.9
335.116	46.76
335.329	-20.82
335.541	50.86
335.754	124.58
335.966	-20.82
336.179	18.09
336.392	-41.3
336.604	-2.39
336.817	73.39
337.029	75.43
337.242	63.15
337.454	118.44
337.667	9.9
337.88	95.91
338.092	-8.53
338.305	97.96
338.517	-2.39
338.729	57
338.942	112.3
339.154	3.75
339.367	-74.07
339.579	136.87
339.792	22.19
340.004	63.15
340.217	1.71
340.429	71.34
340.641	-20.82
340.854	-22.87
341.066	13.99
341.278	157.35
341.491	132.78
341.703	-16.73
341.915	-6.49
342.128	132.78
342.34	44.71
342.552	-67.92
342.764	-37.2
342.977	3.75
343.189	132.78
343.401	40.62
343.613	11.95
343.826	32.43
344.038	40.62
344.25	38.57
344.462	-8.53
344.674	40.62
344.886	50.86
345.099	30.38
345.311	73.39
345.523	52.91
345.735	-4.44
345.947	61.1
346.159	136.87
346.371	28.33
346.583	-10.58
346.795	155.3
347.007	32.43
347.219	24.23
347.431	50.86
347.643	134.82
347.855	36.52
348.067	81.58
348.279	-90.45
348.491	-41.3
348.703	116.39
348.915	-24.92
349.127	59.05
349.339	-29.01
349.551	50.86
349.763	147.11
349.975	5.8
350.187	114.34
350.399	118.44
350.61	69.29
350.822	18.09
351.034	13.99
351.246	102.06
351.458	54.95
351.669	73.39
351.881	52.91
352.093	61.1
352.305	59.05
352.517	124.58
352.728	106.15
352.94	100.01
353.152	91.82
353.363	65.19
353.575	54.95
353.787	147.11
353.999	48.81
354.21	214.7
354.422	-31.06
354.633	32.43
354.845	46.76
355.057	40.62
355.268	138.92
355.48	89.77
355.692	30.38
355.903	-14.68
356.115	-24.92
356.326	-61.78
356.538	104.11
356.749	89.77
356.961	145.06
357.172	7.85
357.384	11.95
357.595	257.7
357.807	-59.73
358.018	7.85
358.23	48.81
358.441	140.97
358.653	87.72
358.864	52.91
359.075	-26.96
359.287	97.96
359.498	169.64
359.709	108.2
359.921	-24.92
360.132	-26.96
360.344	18.09
360.555	28.33
360.766	40.62
360.977	7.85
361.189	61.1
361.4	-63.83
361.611	75.43
361.823	108.2
362.034	-33.11
362.245	-69.97
362.456	40.62
362.667	26.28
362.879	-112.98
363.09	26.28
363.301	1.71
363.512	36.52
363.723	-16.73
363.935	1.71
364.146	69.29
364.357	-26.96
364.568	9.9
364.779	-76.12
364.99	210.6
365.201	26.28
365.412	87.72
365.623	-45.4
365.834	112.3
366.045	-4.44
366.256	91.82
366.467	67.24
366.678	-61.78
366.889	7.85
367.1	-65.88
367.311	149.16
367.522	18.09
367.733	52.91
367.944	73.39
368.155	11.95
368.366	77.48
368.577	46.76
368.788	57
368.999	-69.97
369.209	57
369.42	192.17
369.631	208.55
369.842	18.09
370.053	-59.73
370.264	181.93
370.474	11.95
370.685	102.06
370.896	7.85
371.107	138.92
371.317	59.05
371.528	71.34
371.739	143.02
371.95	48.81
372.16	20.14
372.371	-49.49
372.582	-16.73
372.792	110.25
373.003	81.58
373.214	95.91
373.424	71.34
373.635	-8.53
373.846	118.44
374.056	63.15
374.267	57
374.477	91.82
374.688	-22.87
374.898	100.01
375.109	46.76
375.319	48.81
375.53	89.77
375.74	183.98
375.951	42.67
376.161	71.34
376.372	159.4
376.582	-6.49
376.793	79.53
377.003	-10.58
377.214	32.43
377.424	36.52
377.635	52.91
377.845	13.99
378.055	104.11
378.266	-100.69
378.476	-16.73
378.686	110.25
378.897	-12.63
379.107	89.77
379.317	32.43
379.528	61.1
379.738	116.39
379.948	-76.12
380.158	42.67
380.369	-22.87
380.579	108.2
380.789	24.23
380.999	106.15
381.21	59.05
381.42	194.22
381.63	50.86
381.84	120.49
382.05	46.76
382.261	32.43
382.471	122.54
382.681	11.95
382.891	77.48
383.101	85.67
383.311	-78.16
383.521	7.85
383.731	50.86
383.941	104.11
384.151	40.62
384.361	13.99
384.571	20.14
384.781	155.3
384.991	128.68
385.201	159.4
385.411	151.21
385.621	85.67
385.831	67.24
386.041	-12.63
386.251	16.04
386.461	87.72
386.671	-45.4
386.881	102.06
387.091	-2.39
387.301	163.5
387.511	24.23
387.72	13.99
387.93	106.15
388.14	11.95
388.35	89.77
388.56	181.93
388.769	87.72
388.979	32.43
389.189	-16.73
389.399	67.24
389.609	57
389.818	32.43
390.028	83.63
390.238	163.5
390.447	-43.35
390.657	46.76
390.867	26.28
391.076	-6.49
391.286	13.99
391.496	28.33
391.705	52.91
391.915	40.62
392.125	128.68
392.334	36.52
392.544	128.68
392.753	24.23
392.963	-16.73
393.172	24.23
393.382	9.9
393.591	136.87
393.801	-51.54
394.01	120.49
394.22	83.63
394.429	79.53
394.639	81.58
394.848	11.95
395.058	48.81
395.267	7.85
395.477	136.87
395.686	54.95
395.895	226.98
396.105	173.74
396.314	26.28
396.524	-45.4
396.733	-0.34
396.942	153.26
397.152	87.72
397.361	104.11
397.57	114.34
397.78	95.91
397.989	75.43
398.198	198.31
398.407	32.43
398.617	75.43
398.826	57
399.035	71.34
399.244	89.77
399.453	34.47
399.663	28.33
399.872	-0.34
400.081	-12.63
400.29	102.06
400.499	-2.39
400.708	85.67
400.917	-2.39
401.127	-4.44
401.336	-39.25
401.545	114.34
401.754	-0.34
401.963	85.67
402.172	24.23
402.381	-14.68
402.59	-16.73
402.799	-18.77
403.008	18.09
403.217	97.96
403.426	69.29
403.635	-41.3
403.844	73.39
404.053	9.9
404.262	87.72
404.471	167.59
404.68	73.39
404.888	1.71
405.097	71.34
405.306	28.33
405.515	54.95
405.724	-0.34
405.933	124.58
406.142	69.29
406.35	75.43
406.559	36.52
406.768	83.63
406.977	163.5
407.185	89.77
407.394	97.96
407.603	-0.34
407.812	7.85
408.02	52.91
408.229	5.8
408.438	1.71
408.646	-63.83
408.855	108.2
409.064	36.52
409.272	40.62
409.481	91.82
409.69	-43.35
409.898	-12.63
410.107	26.28
410.315	130.73
410.524	-14.68
410.733	26.28
410.941	48.81
411.15	83.63
411.358	147.11
411.567	104.11
411.775	89.77
411.984	50.86
412.192	93.87
412.401	-43.35
412.609	130.73
412.818	220.84
413.026	20.14
413.234	16.04
413.443	85.67
413.651	-2.39
413.86	48.81
414.068	61.1
414.276	192.17
414.485	-12.63
414.693	153.26
414.901	69.29
415.11	22.19
415.318	67.24
415.526	7.85
415.734	147.11
415.943	54.95
416.151	140.97
416.359	57
416.567	61.1
416.776	59.05
416.984	93.87
417.192	124.58
417.4	26.28
417.608	-43.35
417.817	28.33
418.025	169.64
418.233	102.06
418.441	9.9
418.649	36.52
418.857	65.19
419.065	91.82
419.273	24.23
419.481	-4.44
419.689	50.86
419.897	61.1
420.105	26.28
420.313	67.24
420.521	173.74
420.729	114.34
420.937	34.47
421.145	-78.16
421.353	75.43
421.561	163.5
421.769	75.43
421.977	3.75
422.185	147.11
422.393	30.38
422.601	122.54
422.809	108.2
423.017	108.2
423.224	5.8
423.432	128.68
423.64	42.67
423.848	97.96
424.056	-20.82
424.263	106.15
424.471	28.33
424.679	138.92
424.887	-26.96
425.094	192.17
425.302	104.11
425.51	81.58
425.718	54.95
425.925	38.57
426.133	-24.92
426.341	167.59
426.548	-43.35
426.756	-0.34
426.964	118.44
427.171	59.05
427.379	149.16
427.586	83.63
427.794	75.43
428.001	214.7
428.209	85.67
428.417	202.41
428.624	93.87
428.832	175.78
429.039	97.96
429.247	71.34
429.454	122.54
429.662	206.5
429.869	50.86
430.076	192.17
430.284	186.02
430.491	143.02
430.699	157.35
430.906	140.97
431.114	145.06
431.321	153.26
431.528	136.87
431.736	179.88
431.943	155.3
432.15	63.15
432.358	202.41
432.565	247.46
432.772	52.91
432.979	175.78
433.187	106.15
433.394	259.75
433.601	32.43
433.808	247.46
434.016	233.13
434.223	202.41
434.43	222.89
434.637	267.94
434.844	140.97
435.052	214.7
435.259	315.05
435.466	278.18
435.673	194.22
435.88	251.56
436.087	292.52
436.294	278.18
436.501	278.18
436.708	214.7
436.915	351.91
437.122	403.11
437.329	288.42
437.537	339.62
437.743	267.94
437.95	411.3
438.157	366.25
438.364	345.77
438.571	339.62
438.778	396.96
438.985	421.54
439.192	577.19
439.399	415.4
439.606	429.73
439.813	513.7
440.02	626.34
440.227	657.06
440.433	585.38
440.64	552.61
440.847	474.79
441.054	511.65
441.261	687.78
441.467	581.28
441.674	542.37
441.881	673.44
442.088	601.76
442.294	806.56
442.501	681.63
442.708	808.61
442.914	800.41
443.121	911
443.328	806.56
443.534	933.53
443.741	861.85
443.948	800.41
444.154	921.24
444.361	1173.14
444.568	1007.26
444.774	1056.41
444.981	917.15
445.187	1185.43
445.394	1248.92
445.6	1162.9
445.807	1259.16
446.013	1183.38
446.22	1164.95
446.426	1345.17
446.633	1394.33
446.839	1650.32
447.046	1396.37
447.252	1552.02
447.459	1611.41
447.665	1666.71
447.871	1783.44
448.078	1928.85
448.284	1846.93
448.491	1975.95
448.697	2023.05
448.903	2135.69
449.11	2055.82
449.316	2258.57
449.522	2360.97
449.728	2440.84
449.935	2451.08
450.141	2545.28
450.347	2680.45
450.553	2682.5
450.76	2780.8
450.966	2975.36
451.172	2975.36
451.378	3106.43
451.584	3063.42
451.791	3440.25
451.997	3499.64
452.203	3458.68
452.409	3585.65
452.615	4009.58
452.821	3737.2
453.027	3808.88
453.233	4269.67
453.44	4316.78
453.646	4365.93
453.852	4540.01
454.058	4761.19
454.264	4787.81
454.47	5185.12
454.676	5418.58
454.882	5764.69
455.088	5598.81
455.294	5537.37
455.5	6067.79
455.705	6413.9
455.911	6356.55
456.117	6628.93
456.323	6897.22
456.529	6934.08
456.735	7431.74
456.941	7769.65
457.147	8023.6
457.352	8189.49
457.558	8341.04
457.764	8953.38
457.97	9131.55
458.176	9498.14
458.381	10159.63
458.587	10026.51
458.793	10731.01
458.999	10794.5
459.204	12113.39
459.41	12420.59
459.616	12232.18
459.821	12815.85
460.027	13497.82
460.233	14185.94
460.438	14167.51
460.644	14951.88
460.85	14970.31
461.055	15486.4
461.261	16682.41
461.466	16289.2
461.672	16252.34
461.878	18511.25
462.083	18105.75
462.289	18240.92
462.494	19357.06
462.7	19402.11
462.905	19836.28
463.111	21001.58
463.316	22465.88
463.522	22760.78
463.727	23551.3
463.932	24491.32
464.138	24948.01
464.343	26135.84
464.549	26137.88
464.754	28392.7
464.959	28931.31
465.165	29863.14
465.37	29172.97
465.575	29093.1
465.781	31059.15
465.986	32017.6
466.191	31222.99
466.397	31950.02
466.602	31229.13
466.807	33055.92
467.012	33625.26
467.218	33944.74
467.423	34358.43
467.628	34886.81
467.833	36750.46
468.038	35925.13
468.244	35873.93
468.449	37422.19
468.654	36662.4
468.859	36881.53
469.064	36770.94
469.269	35910.79
469.474	35865.74
469.679	37127.28
469.885	36009.09
470.09	36555.9
470.295	36807.8
470.5	36365.44
470.705	35976.33
470.91	35243.15
471.115	34610.33
471.32	35214.48
471.525	35054.74
471.73	34081.95
471.935	34215.07
472.139	32758.97
472.344	32617.66
472.549	32709.82
472.754	31890.63
472.959	31241.42
473.164	30235.87
473.369	29775.08
473.574	30366.94
473.778	30031.07
473.983	29478.12
474.188	28833.01
474.393	27303.18
474.598	27516.17
474.802	26922.26
475.007	26473.75
475.212	26483.99
475.417	25118
475.621	24689.97
475.826	24597.81
476.031	24096.06
476.235	23467.33
476.44	23649.6
476.645	22938.96
476.849	22740.3
477.054	22517.08
477.259	21738.85
477.463	21980.51
477.668	21130.6
477.872	21134.7
478.077	20747.63
478.282	20315.51
478.486	19764.61
478.691	19443.07
478.895	19533.18
479.1	19346.82
479.304	19008.9
479.509	18523.54
479.713	18888.07
479.918	18644.37
480.122	18050.46
480.326	18273.68
480.531	18052.5
480.735	17931.67
480.94	17352.1
481.144	17921.43
481.348	17139.11
481.553	17182.12
481.757	16696.75
481.961	17083.81
482.166	16930.22
482.37	16897.45
482.574	16346.55
482.778	16352.69
482.983	16821.67
483.187	16188.85
483.391	16205.24
483.595	15644.09
483.8	15461.82
484.004	15547.84
484.208	15556.03
484.412	15472.06
484.616	15445.44
484.821	15023.56
485.025	14697.93
485.229	14833.1
485.433	14388.69
485.637	14523.85
485.841	14099.92
486.045	13987.29
486.249	13794.78
486.453	13440.48
486.657	13575.64
486.861	13213.15
487.065	12686.83
487.269	12850.66
487.473	12355.05
487.677	12604.91
487.881	12565.99
488.085	11943.41
488.289	12150.26
488.493	11523.58
488.697	11621.88
488.901	11273.73
489.105	11081.22
489.309	10919.43
489.512	10540.55
489.716	10610.18
489.92	10247.69
490.124	10051.09
490.328	10128.91
490.531	9786.9
490.735	9733.65
490.939	9629.21
491.143	9219.61
491.346	9141.79
491.55	9139.74
491.754	9000.48
491.958	8676.9
492.161	8658.47
492.365	8506.92
492.569	8398.38
492.772	8207.92
492.976	8216.11
493.18	8027.7
493.383	7898.67
493.587	7935.54
493.79	7845.43
493.994	7657.01
494.197	7564.86
494.401	7560.76
494.605	7265.85
494.808	7534.14
495.012	7419.45
495.215	7247.42
495.419	7345.72
495.622	7110.21
495.825	7200.32
496.029	7001.66
496.232	7198.27
496.436	6993.47
496.639	7269.95
496.843	7034.43
497.046	6948.42
497.249	7065.15
497.453	7071.29
497.656	6889.03
497.859	7142.97
498.063	7052.86
498.266	7226.94
498.469	6817.35
498.673	6989.38
498.876	7179.84
499.079	7161.41
499.282	7091.77
499.485	7317.05
499.689	7233.08
499.892	7409.21
500.095	7175.74
500.298	7398.97
500.501	7249.47
500.705	7517.75
500.908	7415.35
501.111	7568.95
501.314	7769.65
501.517	7929.39
501.72	7898.67
501.923	7865.91
502.126	8054.32
502.329	8152.62
502.532	8173.1
502.735	8056.37
502.938	8425
503.141	8334.89
503.344	8525.35
503.547	8543.78
503.75	8582.7
503.953	8873.51
504.156	8893.99
504.359	8990.24
504.562	9086.5
504.765	9270.81
504.968	9475.61
505.17	9627.16
505.373	9739.8
505.576	10212.88
505.779	10128.91
505.982	10130.96
506.185	10647.05
506.387	10509.83
506.59	10829.32
506.793	10929.67
506.996	11111.94
507.198	11656.7
507.401	11519.48
507.604	12035.57
507.807	11888.12
508.009	12215.79
508.212	12629.48
508.415	12674.54
508.617	12977.64
508.82	12989.92
509.022	13202.91
509.225	13802.97
509.428	13901.27
509.63	14349.78
509.833	14720.46
510.035	15330.75
510.238	15345.09
510.44	15621.56
510.643	16012.73
510.845	16180.66
511.048	16534.96
511.25	17016.23
511.453	17245.6
511.655	18062.74
511.858	17872.28
512.06	18566.54
512.262	18765.2
512.465	18929.03
512.667	19838.33
512.87	20043.13
513.072	20786.54
513.274	21058.92
513.477	21806.43
513.679	21923.16
513.881	22613.33
514.084	22981.96
514.286	23649.6
514.488	24005.95
514.69	24907.05
514.893	25079.08
515.095	25773.35
515.297	26348.82
515.499	26696.98
515.701	27041.04
515.904	27854.08
516.106	28591.35
516.308	28714.23
516.51	29453.55
516.712	29875.43
516.914	30631.13
517.116	31745.22
517.318	31610.06
517.52	32324.8
517.722	32859.32
517.925	33744.04
518.127	34417.82
518.329	35204.24
518.531	35028.12
518.733	36134.02
518.935	36072.58
519.136	37123.19
519.338	37850.22
519.54	38497.38
519.742	39027.8
519.944	39554.13
520.146	40315.97
520.348	41028.66
520.55	41020.47
520.752	41409.59
520.954	42640.42
521.155	42368.04
521.357	42861.6
521.559	43342.87
521.761	44653.57
521.963	44456.96
522.164	45020.16
522.366	45292.54
522.568	45564.92
522.77	46111.72
522.971	46752.74
523.173	46433.25
523.375	46875.62
523.576	47518.68
523.778	47199.19
523.98	47956.94
524.181	48174.03
524.383	48354.25
524.584	48890.82
524.786	48581.57
524.988	48436.17
525.189	48724.93
525.391	49019.84
525.592	48858.05
525.794	49017.79
525.995	48636.87
526.197	49138.62
526.398	48679.88
526.6	48960.45
526.801	48954.3
527.003	48849.86
527.204	48542.66
527.406	48692.16
527.607	48198.6
527.808	48239.56
528.01	47113.18
528.211	47018.97
528.412	47887.31
528.614	46973.92
528.815	46740.45
529.016	47090.65
529.218	45519.86
529.419	46003.18
529.62	45253.62
529.822	44987.39
530.023	44360.71
530.224	43975.69
530.425	43856.91
530.626	43011.1
530.828	42441.76
531.029	43062.3
531.23	41772.08
531.431	41661.49
531.632	41059.38
531.833	40940.6
532.035	40262.72
532.236	39982.15
532.437	39509.07
532.638	38675.55
532.839	38454.37
533.04	38360.16
533.241	37303.41
533.442	37411.95
533.643	36525.18
533.844	36119.68
534.045	36017.29
534.246	34688.15
534.447	34610.33
534.648	34413.73
534.849	33891.49
535.05	33238.19
535.251	32928.95
535.451	32562.36
535.652	32009.41
535.853	31669.45
536.054	31505.61
536.255	30776.53
536.456	30000.35
536.657	30270.68
536.857	29533.42
537.058	28992.75
537.259	28880.11
537.46	28224.76
537.66	28013.82
537.861	27712.77
538.062	27028.75
538.263	26905.87
538.463	26463.51
538.664	26488.09
538.865	25879.84
539.065	25394.47
539.266	25351.46
539.466	25036.08
539.667	24620.34
539.868	24388.92
540.068	24096.06
540.269	23962.94
540.469	23723.33
540.67	23397.7
540.87	23047.5
541.071	22664.53
541.271	22898
541.472	22261.08
541.672	21794.14
541.873	21712.22
542.073	21233
542.274	21331.3
542.474	20907.37
542.675	20630.9
542.875	20639.09
543.075	20051.32
543.276	19670.4
543.476	19881.34
543.676	19314.05
543.877	19185.03
544.077	19215.75
544.277	18924.94
544.478	18449.81
544.678	18603.41
544.878	18337.17
545.078	18089.37
545.279	17802.65
545.479	17653.15
545.679	17626.53
545.879	17198.5
546.079	17114.53
546.28	16795.05
546.48	16407.98
546.68	16864.68
546.88	16631.21
547.08	16065.97
547.28	15926.71
547.48	15404.48
547.68	15658.43
547.88	15265.22
548.081	15277.51
548.281	14812.62
548.481	15111.62
548.681	14683.59
548.881	14300.62
549.081	14298.58
549.28	14001.62
549.48	13872.6
549.68	13690.33
549.88	13567.45
550.08	13311.46
550.28	13084.13
550.48	12854.76
550.68	12975.59
550.88	12512.75
551.08	12393.97
551.279	12359.15
551.479	12174.83
551.679	11822.58
551.879	11615.74
552.079	11509.24
552.278	11247.1
552.478	11345.41
552.678	11042.31
552.878	11116.03
553.077	10616.33
553.277	10352.14
553.477	10386.96
553.676	10221.07
553.876	10087.95
554.076	10014.23
554.275	9733.65
554.475	9485.85
554.674	9661.98
554.874	9354.78
555.074	9121.31
555.273	9184.8
555.473	9084.45
555.672	8486.44
555.872	8597.03
556.071	8568.36
556.271	8564.26
556.47	8261.16
556.67	8048.18
556.869	7939.63
557.068	7925.3
557.268	7661.11
557.467	7517.75
557.667	7433.79
557.866	7333.43
558.065	7190.08
558.265	6852.16
558.464	6843.97
558.663	6929.98
558.863	6571.59
559.062	6696.52
559.261	6436.42
559.461	6532.68
559.66	6202.96
559.859	6340.17
560.058	6045.26
560.258	5750.35
560.457	5772.88
560.656	5973.58
560.855	5574.23
561.054	5740.12
561.253	5437.02
561.453	5563.99
561.652	5365.34
561.851	5385.82
562.05	4961.89
562.249	5043.81
562.448	5154.4
562.647	4892.26
562.846	4943.46
563.045	4888.16
563.244	4744.8
563.443	4681.32
563.642	4568.68
563.841	4716.13
564.04	4372.07
564.239	4380.26
564.438	4322.92
564.637	4222.57
564.836	4259.43
565.035	3974.77
565.234	4023.92
565.432	3862.13
565.631	3966.57
565.83	3948.14
566.029	3849.84
566.228	3694.19
566.427	3825.26
566.625	3501.69
566.824	3690.1
567.023	3464.82
567.222	3513.97
567.42	3452.53
567.619	3542.64
567.818	3499.64
568.016	3489.4
568.215	3434.1
568.414	3163.77
568.612	3425.91
568.811	3194.49
569.01	3081.85
569.208	2909.82
569.407	3137.15
569.605	2977.41
569.804	2995.84
570.002	2856.58
570.201	2920.06
570.4	2852.48
570.598	2707.07
570.797	2827.9
570.995	2700.93
571.193	2674.31
571.392	2598.53
571.59	2438.79
571.789	2516.61
571.987	2500.23
572.186	2578.05
572.384	2367.11
572.582	2330.25
572.781	2459.27
572.979	2203.27
573.177	2186.89
573.376	2279.05
573.574	2346.63
573.772	2123.4
573.971	2059.92
574.169	1869.45
574.367	2123.4
574.565	1957.52
574.763	1930.89
574.962	1912.46
575.16	1881.74
575.358	1760.91
575.556	1883.79
575.754	1891.98
575.952	1930.89
576.151	1894.03
576.349	1867.41
576.547	1691.28
576.745	1654.42
576.943	1793.68
577.141	1633.94
577.339	1502.87
577.537	1605.27
577.735	1672.85
577.933	1523.35
578.131	1296.02
578.329	1660.56
578.527	1492.63
578.725	1439.38
578.923	1382.04
579.121	1392.28
579.319	1287.83
579.516	1302.17
579.714	1650.32
579.912	1320.6
580.11	1187.48
580.308	1287.83
580.506	1246.87
580.704	1142.43
580.901	1187.48
581.099	1242.78
581.297	1244.82
581.495	1107.61
581.692	1083.03
581.89	1224.34
582.088	1068.7
582.285	1062.55
582.483	1185.43
582.681	1103.51
582.878	1025.69
583.076	1023.64
583.274	1121.95
583.471	1156.76
583.669	937.63
583.866	958.11
584.064	1019.55
584.262	859.81
584.459	857.76
584.657	855.71
584.854	990.88
585.052	933.53
585.249	892.57
585.447	892.57
585.644	851.61
585.841	911
586.039	913.05
586.236	919.2
586.434	845.47
586.631	792.22
586.828	736.93
587.026	908.96
587.223	607.91
587.42	745.12
587.618	708.26
587.815	784.03
588.012	771.74
588.21	753.31
588.407	769.69
588.604	695.97
588.801	583.33
588.999	691.87
589.196	730.78
589.393	683.68
589.59	706.21
589.787	679.58
589.984	751.26
590.182	689.82
590.379	587.43
590.576	628.39
590.773	685.73
590.97	587.43
591.167	728.74
591.364	667.3
591.561	655.01
591.758	718.5
591.955	618.15
592.152	710.3
592.349	552.61
592.546	646.82
592.743	478.88
592.94	536.23
593.137	673.44
593.334	704.16
593.531	728.74
593.727	605.86
593.924	554.66
594.121	568.99
594.318	612
594.515	683.68
594.712	757.41
594.908	652.96
595.105	591.52
595.302	642.72
595.499	642.72
595.696	775.84
595.892	648.86
596.089	755.36
596.286	612
596.482	773.79
596.679	784.03
596.876	650.91
597.072	792.22
597.269	730.78
597.466	868
597.662	859.81
597.859	919.2
598.055	945.82
598.252	872.09
598.448	933.53
598.645	1009.31
598.841	1025.69
599.038	1113.75
599.234	1171.1
599.431	1119.9
599.627	1134.23
599.824	1248.92
600.02	1201.82
600.217	1255.06
600.413	1216.15
600.609	1267.35
600.806	1625.75
601.002	1451.67
601.198	1400.47
601.395	1560.21
601.591	1703.57
601.787	1687.18
601.984	1769.1
602.18	1918.61
602.376	1777.3
602.572	2035.34
602.769	2029.2
602.965	2061.96
603.161	2129.55
603.357	2281.1
603.553	2414.21
603.75	2367.11
603.946	2449.03
604.142	2492.04
604.338	2733.7
604.534	2760.32
604.73	2739.84
604.926	2827.9
605.122	3120.76
605.318	3020.41
605.514	3151.48
605.71	3147.39
605.906	3505.78
606.102	3341.94
606.298	3688.05
606.494	3669.62
606.69	3886.7
606.886	3937.9
607.082	3944.05
607.278	4054.64
607.474	4148.84
607.67	4312.68
607.866	4394.6
608.062	4750.95
608.257	4769.38
608.453	4851.3
608.649	4951.65
608.845	5054.05
609.041	5168.73
609.236	5400.15
609.432	5537.37
609.628	5822.03
609.824	5877.33
610.019	6065.74
610.215	6012.49
610.411	6325.83
610.606	6559.3
610.802	6553.16
610.998	6981.18
611.193	7155.26
611.389	6997.57
611.584	7226.94
611.78	7351.87
611.976	7722.55
612.171	7964.21
612.367	8019.5
612.562	8279.6
612.758	8490.54
612.953	8695.33
613.149	9127.46
613.344	9305.63
613.539	9371.16
613.735	9598.49
613.93	10231.31
614.126	9887.25
614.321	10454.54
614.517	10817.03
614.712	10898.95
614.907	11355.65
615.103	11542.01
615.298	11687.42
615.493	12244.46
615.688	12504.56
615.884	12946.92
616.079	13164
616.274	13303.26
616.47	13534.68
616.665	13833.69
616.86	14132.69
617.055	14648.78
617.25	14751.18
617.445	15590.84
617.641	15480.25
617.836	16074.17
618.031	16313.78
618.226	16973.22
618.421	17233.32
618.616	17796.51
618.811	17823.13
619.006	18789.77
619.201	18879.88
619.396	19361.16
619.591	19420.55
619.786	20108.66
619.981	20407.67
620.176	20827.5
620.371	21222.76
620.566	21796.19
620.761	22170.97
620.956	22646.1
621.151	22914.38
621.346	23987.52
621.541	23780.67
621.735	25013.55
621.93	24431.93
622.125	25550.12
622.32	25472.29
622.515	26225.95
622.709	26461.46
622.904	27528.45
623.099	27501.83
623.294	28165.37
623.488	28394.75
623.683	29203.69
623.878	29340.91
624.072	30250.21
624.267	30256.35
624.462	30786.77
624.656	31065.3
624.851	32021.7
625.046	32310.46
625.24	32441.53
625.435	32969.91
625.629	33557.67
625.824	34104.48
626.018	34534.56
626.213	34141.35
626.407	34940.05
626.602	35239.06
626.796	35703.95
626.991	36134.02
627.185	36420.73
627.38	36508.8
627.574	36949.11
627.768	36631.68
627.963	37067.89
628.157	37256.31
628.352	37604.46
628.546	36848.76
628.74	37581.93
628.935	37215.35
629.129	37487.73
629.323	37229.68
629.517	36584.57
629.712	36623.48
629.906	36398.21
630.1	35982.47
630.294	35894.41
630.489	35191.95
630.683	35101.84
630.877	34354.33
631.071	33950.88
631.265	33399.98
631.459	32285.89
631.653	31841.48
631.848	31364.3
632.042	30393.56
632.236	29820.13
632.43	28718.32
632.624	28591.35
632.818	27227.4
633.012	26354.97
633.206	25736.48
633.4	25382.18
633.594	24087.87
633.788	23428.42
633.982	22771.02
634.176	22025.56
634.369	21022.06
634.563	20491.63
634.757	19250.56
634.951	18814.35
635.145	18247.06
635.339	17143.21
635.533	16483.76
635.726	16002.49
635.92	14982.6
636.114	14845.38
636.308	14144.98
636.501	13321.7
636.695	13016.55
636.889	12299.76
637.083	11959.8
637.276	11546.11
637.47	10821.13
637.664	10561.03
637.857	9965.07
638.051	9694.74
638.244	9373.21
638.438	8822.31
638.632	8732.2
638.825	8179.25
639.019	8052.27
639.212	7429.69
639.406	7233.08
639.599	7042.62
639.793	6710.85
639.986	6547.01
640.18	6184.52
640.373	5910.1
640.567	5531.22
640.76	5611.09
640.954	5351
641.147	5013.09
641.34	4832.86
641.534	4812.39
641.727	4619.88
641.92	4310.63
642.114	4206.19
642.307	4009.58
642.5	3942
642.694	3722.87
642.887	3602.04
643.08	3565.17
643.273	3501.69
643.467	3116.67
643.66	3042.94
643.853	2961.02
644.046	2915.97
644.239	2729.6
644.432	2551.43
644.626	2422.41
644.819	2459.27
645.012	2401.93
645.205	2233.99
645.398	2346.63
645.591	2004.62
645.784	2016.91
645.977	1898.13
646.17	1734.29
646.363	1713.81
646.556	1658.51
646.749	1541.78
646.942	1506.96
647.135	1566.35
647.328	1433.24
647.521	1332.89
647.714	1306.26
647.907	1339.03
648.099	1232.54
648.292	1236.63
648.485	1195.67
648.678	1025.69
648.871	1037.98
649.064	1044.12
649.256	943.77
649.449	882.33
649.642	943.77
649.835	806.56
650.027	802.46
650.22	917.15
650.413	824.99
650.605	759.46
650.798	794.27
650.991	687.78
651.183	704.16
651.376	655.01
651.568	591.52
651.761	536.23
651.954	630.43
652.146	663.2
652.339	595.62
652.531	648.86
652.724	468.64
652.916	540.32
653.109	286.37
653.301	493.22
653.494	591.52
653.686	478.88
653.879	517.79
654.071	509.6
654.263	392.87
654.456	378.53
654.648	435.88
654.84	431.78
655.033	409.25
655.225	536.23
655.417	302.76
655.61	491.17
655.802	466.6
655.994	464.55
656.186	317.09
656.379	351.91
656.571	216.74
656.763	304.81
656.955	263.85
657.148	251.56
657.34	431.78
657.532	237.22
657.724	290.47
657.916	235.18
658.108	347.81
658.3	308.9
658.492	269.99
658.684	77.48
658.876	308.9
659.068	126.63
659.26	114.34
659.452	179.88
659.644	245.41
659.836	310.95
660.028	294.57
660.22	186.02
660.412	216.74
660.604	183.98
660.796	202.41
660.988	257.7
661.18	263.85
661.372	239.27
661.563	116.39
661.755	237.22
661.947	161.45
662.139	163.5
662.331	151.21
662.522	155.3
662.714	69.29
662.906	186.02
663.097	155.3
663.289	151.21
663.481	71.34
663.673	202.41
663.864	134.82
664.056	202.41
664.247	63.15
664.439	245.41
664.631	126.63
664.822	224.94
665.014	145.06
665.205	73.39
665.397	140.97
665.588	128.68
665.78	138.92
665.971	216.74
666.163	97.96
666.354	151.21
666.546	104.11
666.737	116.39
666.929	36.52
667.12	114.34
667.311	143.02
667.503	118.44
667.694	155.3
667.885	188.07
668.077	124.58
668.268	67.24
668.459	167.59
668.651	171.69
668.842	95.91
669.033	36.52
669.224	44.71
669.416	222.89
669.607	67.24
669.798	48.81
669.989	192.17
670.18	91.82
670.371	163.5
670.563	34.47
670.754	249.51
670.945	175.78
671.136	151.21
671.327	91.82
671.518	175.78
671.709	181.93
671.9	151.21
672.091	235.18
672.282	102.06
672.473	91.82
672.664	28.33
672.855	63.15
673.046	165.54
673.237	173.74
673.428	206.5
673.619	196.26
673.809	124.58
674	231.08
674.191	198.31
674.382	169.64
674.573	175.78
674.764	126.63
674.954	290.47
675.145	79.53
675.336	97.96
675.527	116.39
675.717	30.38
675.908	87.72
676.099	85.67
676.289	186.02
676.48	26.28
676.671	145.06
676.861	192.17
677.052	136.87
677.243	40.62
677.433	106.15
677.624	229.03
677.814	179.88
678.005	93.87
678.195	226.98
678.386	28.33
678.576	202.41
678.767	36.52
678.957	175.78
679.148	269.99
679.338	231.08
679.529	138.92
679.719	169.64
679.909	233.13
680.1	253.61
680.29	200.36
680.481	100.01
680.671	206.5
680.861	186.02
681.052	183.98
681.242	104.11
681.432	218.79
681.622	138.92
681.813	114.34
682.003	138.92
682.193	151.21
682.383	214.7
682.573	112.3
682.764	175.78
682.954	292.52
683.144	323.24
683.334	167.59
683.524	136.87
683.714	317.09
683.904	110.25
684.094	159.4
684.284	198.31
684.474	362.15
684.664	247.46
684.854	208.55
685.044	212.65
685.234	177.83
685.424	159.4
685.614	102.06
685.804	343.72
685.994	298.66
686.184	175.78
686.374	198.31
686.564	157.35
686.753	290.47
686.943	145.06
687.133	173.74
687.323	210.6
687.513	196.26
687.702	239.27
687.892	136.87
688.082	284.33
688.272	263.85
688.461	138.92
688.651	364.2
688.841	290.47
689.03	159.4
689.22	210.6
689.41	255.65
689.599	224.94
689.789	171.69
689.979	280.23
690.168	222.89
690.358	267.94
690.547	224.94
690.737	159.4
690.926	233.13
691.116	216.74
691.305	214.7
691.495	263.85
691.684	147.11
691.874	202.41
692.063	257.7
692.252	212.65
692.442	206.5
692.631	163.5
692.82	145.06
693.01	247.46
693.199	104.11
693.388	188.07
693.578	200.36
693.767	206.5
693.956	186.02
694.146	183.98
694.335	186.02
694.524	147.11
694.713	226.98
694.902	136.87
695.092	194.22
695.281	165.54
695.47	257.7
695.659	143.02
695.848	81.58
696.037	210.6
696.226	249.51
696.415	196.26
696.604	265.89
696.793	247.46
696.982	108.2
697.171	229.03
697.36	188.07
697.549	126.63
697.738	83.63
697.927	183.98
698.116	69.29
698.305	220.84
698.494	183.98
698.683	85.67
698.872	286.37
699.061	81.58
699.25	206.5
699.438	198.31
699.627	159.4
699.816	345.77
700.005	16.04
700.193	167.59
700.382	216.74
700.571	118.44
700.76	220.84
700.948	280.23
701.137	179.88
701.326	259.75
701.514	110.25
701.703	167.59
701.892	159.4
702.08	313
702.269	194.22
702.457	93.87
702.646	188.07
702.834	167.59
703.023	159.4
703.212	208.55
703.4	179.88
703.589	143.02
703.777	216.74
703.965	165.54
704.154	140.97
704.342	30.38
704.531	132.78
704.719	155.3
704.907	210.6
705.096	61.1
705.284	104.11
705.472	175.78
705.661	181.93
705.849	274.09
706.037	253.61
706.226	177.83
706.414	204.46
706.602	163.5
706.79	294.57
706.979	114.34
707.167	237.22
707.355	18.09
707.543	167.59
707.731	175.78
707.919	114.34
708.107	97.96
708.296	18.09
708.484	112.3
708.672	169.64
708.86	251.56
709.048	155.3
709.236	151.21
709.424	212.65
709.612	229.03
709.8	85.67
709.988	188.07
710.176	196.26
710.364	302.76
710.551	118.44
710.739	204.46
710.927	136.87
711.115	175.78
711.303	284.33
711.491	220.84
711.679	75.43
711.866	253.61
712.054	151.21
712.242	259.75
712.43	216.74
712.617	186.02
712.805	239.27
712.993	114.34
713.181	73.39
713.368	247.46
713.556	235.18
713.744	128.68
713.931	396.96
714.119	249.51
714.306	175.78
714.494	140.97
714.682	216.74
714.869	118.44
715.057	163.5
715.244	71.34
715.432	233.13
715.619	194.22
715.807	165.54
715.994	124.58
716.182	265.89
716.369	257.7
716.556	278.18
716.744	153.26
716.931	224.94
717.119	157.35
717.306	175.78
717.493	235.18
717.681	216.74
717.868	192.17
718.055	226.98
718.242	149.16
718.43	302.76
718.617	257.7
718.804	212.65
718.991	331.43
719.179	229.03
719.366	306.85
719.553	292.52
719.74	128.68
719.927	165.54
720.114	278.18
720.301	128.68
720.488	120.49
720.676	186.02
720.863	259.75
721.05	337.57
721.237	253.61
721.424	280.23
721.611	216.74
721.798	136.87
721.985	140.97
722.172	194.22
722.358	188.07
722.545	261.8
722.732	208.55
722.919	265.89
723.106	188.07
723.293	171.69
723.48	259.75
723.667	161.45
723.853	286.37
724.04	243.37
724.227	261.8
724.414	194.22
724.6	272.04
724.787	276.13
724.974	396.96
725.161	239.27
725.347	143.02
725.534	261.8
725.72	278.18
725.907	319.14
726.094	226.98
726.28	183.98
726.467	212.65
726.653	155.3
726.84	255.65
727.027	321.19
727.213	175.78
727.4	302.76
727.586	206.5
727.773	161.45
727.959	263.85
728.145	212.65
728.332	261.8
728.518	147.11
728.705	251.56
728.891	212.65
729.077	186.02
729.264	188.07
729.45	136.87
729.636	267.94
729.823	300.71
730.009	286.37
730.195	263.85
730.382	220.84
730.568	188.07
730.754	198.31
730.94	265.89
731.126	306.85
731.313	310.95
731.499	237.22
731.685	372.39
731.871	165.54
732.057	282.28
732.243	292.52
732.429	327.33
732.615	319.14
732.801	296.61
732.987	138.92
733.173	272.04
733.359	214.7
733.545	253.61
733.731	186.02
733.917	243.37
734.103	261.8
734.289	292.52
734.475	112.3
734.661	343.72
734.847	263.85
735.033	202.41
735.219	298.66
735.404	247.46
735.59	163.5
735.776	132.78
735.962	278.18
736.148	292.52
736.333	368.29
736.519	255.65
736.705	274.09
736.89	294.57
737.076	206.5
737.262	153.26
737.447	169.64
737.633	163.5
737.819	364.2
738.004	229.03
738.19	175.78
738.375	239.27
738.561	290.47
738.747	302.76
738.932	212.65
739.118	460.45
739.303	269.99
739.489	292.52
739.674	249.51
739.859	159.4
740.045	319.14
740.23	296.61
740.416	110.25
740.601	208.55
740.786	206.5
740.972	149.16
741.157	284.33
741.342	143.02
741.528	214.7
741.713	300.71
741.898	243.37
742.084	226.98
742.269	243.37
742.454	278.18
742.639	329.38
742.824	237.22
743.01	376.48
743.195	347.81
743.38	196.26
743.565	192.17
743.75	224.94
743.935	288.42
744.12	288.42
744.305	128.68
744.49	159.4
744.675	259.75
744.86	175.78
745.045	251.56
745.23	278.18
745.415	233.13
745.6	276.13
745.785	173.74
745.97	356.01
746.155	276.13
746.34	286.37
746.525	274.09
746.71	290.47
746.895	100.01
747.079	151.21
747.264	241.32
747.449	286.37
747.634	241.32
747.819	288.42
748.003	251.56
748.188	165.54
748.373	274.09
748.557	290.47
748.742	165.54
748.927	169.64
749.111	183.98
749.296	138.92
749.481	288.42
749.665	224.94
749.85	140.97
750.034	237.22
750.219	159.4
750.404	247.46
750.588	198.31
750.773	118.44
750.957	136.87
751.141	224.94
751.326	224.94
751.51	77.48
751.695	249.51
751.879	188.07
752.064	284.33
752.248	239.27
752.432	183.98
752.617	245.41
752.801	224.94
752.985	114.34
753.17	208.55
753.354	200.36
753.538	122.54
753.722	63.15
753.907	91.82
754.091	42.67
754.275	161.45
754.459	140.97
754.643	114.34
754.828	93.87
755.012	226.98
755.196	124.58
755.38	220.84
755.564	159.4
755.748	126.63
755.932	194.22
756.116	198.31
756.3	155.3
756.484	147.11
756.668	155.3
756.852	28.33
757.036	173.74
757.22	190.12
757.404	134.82
757.588	163.5
757.772	167.59
757.956	122.54
758.14	239.27
758.323	75.43
758.507	163.5
758.691	118.44
758.875	143.02
759.059	261.8
759.242	63.15
759.426	124.58
759.61	159.4
759.794	188.07
759.977	138.92
760.161	278.18
760.345	183.98
760.528	200.36
760.712	147.11
760.895	77.48
761.079	116.39
761.263	50.86
761.446	26.28
761.63	89.77
761.813	210.6
761.997	77.48
762.18	79.53
762.364	214.7
762.547	32.43
762.731	102.06
762.914	77.48
763.098	108.2
763.281	81.58
763.464	169.64
763.648	24.23
763.831	122.54
764.015	75.43
764.198	167.59
764.381	67.24
764.564	130.73
764.748	132.78
764.931	97.96
765.114	73.39
765.297	208.55
765.481	44.71
765.664	65.19
765.847	-4.44
766.03	220.84
766.213	42.67
766.397	87.72
766.58	95.91
766.763	75.43
766.946	48.81
767.129	44.71
767.312	71.34
767.495	9.9
767.678	-37.2
767.861	181.93
768.044	87.72
768.227	48.81
768.41	106.15
768.593	112.3
768.776	91.82
768.959	136.87
769.142	147.11
769.324	136.87
769.507	83.63
769.69	22.19
769.873	65.19
770.056	220.84
770.239	69.29
770.421	151.21
770.604	157.35
770.787	61.1
770.97	85.67
771.152	18.09
771.335	83.63
771.518	-26.96
771.7	173.74
771.883	212.65
772.066	26.28
772.248	128.68
772.431	112.3
772.613	118.44
772.796	38.57
772.978	67.24
773.161	157.35
773.343	-33.11
773.526	11.95
773.708	-86.36
773.891	36.52
774.073	110.25
774.256	20.14
774.438	208.55
774.621	73.39
774.803	75.43
774.985	42.67
775.168	91.82
775.35	30.38
775.532	52.91
775.715	-16.73
775.897	67.24
776.079	71.34
776.261	52.91
776.444	97.96
776.626	22.19
776.808	93.87
776.99	48.81
777.173	46.76
777.355	-24.92
777.537	79.53
777.719	114.34
777.901	73.39
778.083	11.95
778.265	65.19
778.447	89.77
778.629	46.76
778.811	48.81
778.993	116.39
779.175	149.16
779.357	11.95
779.539	3.75
779.721	97.96
779.903	89.77
780.085	-18.77
780.267	57
780.449	36.52
780.631	114.34
780.812	116.39
780.994	38.57
781.176	-20.82
781.358	5.8
781.54	63.15
781.721	126.63
781.903	136.87
782.085	-4.44
782.267	122.54
782.448	-2.39
782.63	7.85
782.812	69.29
782.993	85.67
783.175	116.39
783.357	-8.53
783.538	16.04
783.72	18.09
783.901	122.54
784.083	67.24
784.264	89.77
784.446	-24.92
784.627	28.33
784.809	40.62
784.99	-72.02
785.172	67.24
785.353	-18.77
785.535	24.23
785.716	30.38
785.897	-47.44
786.079	-6.49
786.26	50.86
786.441	26.28
786.623	-61.78
786.804	-2.39
786.985	-8.53
787.167	110.25
787.348	-29.01
787.529	85.67
787.71	110.25
787.891	57
788.073	-4.44
788.254	-35.16
788.435	161.45
788.616	77.48
788.797	-18.77
788.978	54.95
789.159	-41.3
789.34	73.39
789.522	36.52
789.703	18.09
789.884	40.62
790.065	22.19
790.246	161.45
790.427	16.04
790.607	50.86
790.788	59.05
790.969	-6.49
791.15	122.54
791.331	-12.63
791.512	-55.64
791.693	44.71
791.874	-49.49
792.054	177.83
792.235	73.39
792.416	-33.11
792.597	-45.4
792.778	-29.01
792.958	71.34
793.139	26.28
793.32	69.29
793.5	-53.59
793.681	83.63
793.862	-10.58
794.042	-20.82
794.223	-96.6
794.404	13.99
794.584	-69.97
794.765	-6.49
794.945	38.57
795.126	95.91
795.306	106.15
795.487	3.75
795.667	9.9
795.848	26.28
796.028	32.43
796.209	5.8
796.389	63.15
796.57	22.19
796.75	13.99
796.93	-37.2
797.111	-31.06
797.291	32.43
797.471	102.06
797.652	18.09
797.832	-26.96
798.012	28.33
798.192	-53.59
798.373	-100.69
798.553	26.28
798.733	40.62
798.913	34.47
799.093	-57.68
799.274	-88.4
799.454	85.67
799.634	18.09
799.814	38.57
799.994	28.33
800.174	38.57
800.354	-14.68
800.534	-65.88
800.714	97.96
800.894	-41.3
801.074	-104.79
801.254	-45.4
801.434	112.3
801.614	18.09
801.794	-55.64
801.974	1660.56
802.154	-33.11
802.334	63.15
802.514	-2.39
802.693	-2.39
802.873	-4.44
803.053	67.24
803.233	32.43
803.413	-61.78
803.592	-18.77
803.772	-41.3
803.952	16.04
804.131	-35.16
804.311	32.43
804.491	77.48
804.67	-16.73
804.85	-61.78
805.03	32.43
805.209	112.3
805.389	30.38
805.568	-39.25
805.748	-24.92
805.928	16.04
806.107	26.28
806.287	11.95
806.466	42.67
806.646	-51.54
806.825	5.8
807.004	-90.45
807.184	114.34
807.363	28.33
807.543	-16.73
807.722	-29.01
807.901	77.48
808.081	54.95
808.26	-117.08
808.439	-10.58
808.619	20.14
808.798	26.28
808.977	40.62
809.156	83.63
809.336	46.76
809.515	106.15
809.694	-96.6
809.873	-16.73
810.052	30.38
810.231	-49.49
810.411	-18.77
810.59	87.72
810.769	-29.01
810.948	79.53
811.127	-104.79
811.306	24.23
811.485	32.43
811.664	87.72
811.843	-6.49
812.022	7.85
812.201	-78.16
812.38	-57.68
812.559	-41.3
812.737	52.91
812.916	-53.59
813.095	-149.84
813.274	28.33
813.453	44.71
813.632	16.04
813.811	9.9
813.989	-82.26
814.168	-80.21
814.347	-100.69
814.526	20.14
814.704	79.53
814.883	108.2
815.062	-80.21
815.24	13.99
815.419	-98.64
815.598	65.19
815.776	-53.59
815.955	-29.01
816.133	-76.12
816.312	-0.34
816.49	11.95
816.669	54.95
816.847	11.95
817.026	65.19
817.204	-14.68
817.383	-12.63
817.561	-39.25
817.74	73.39
817.918	104.11
818.097	-37.2
818.275	-18.77
818.453	32.43
818.632	97.96
818.81	9.9
818.988	-24.92
819.167	-8.53
819.345	-55.64
819.523	7.85
819.701	-37.2
819.879	48.81
820.058	28.33
820.236	46.76
820.414	28.33
820.592	-2.39
820.77	-39.25
820.948	-104.79
821.127	-8.53
821.305	-55.64
821.483	-47.44
821.661	11.95
821.839	-29.01
822.017	16.04
822.195	32.43
822.373	112.3
822.551	-69.97
822.729	44.71
822.907	11.95
823.085	9.9
823.262	48.81
823.44	-72.02
823.618	-39.25
823.796	32.43
823.974	-24.92
824.152	-35.16
824.329	30.38
824.507	34.47
824.685	-12.63
824.863	-24.92
825.04	26.28
825.218	54.95
825.396	-6.49
825.574	13.99
825.751	-84.31
825.929	11.95
826.107	-110.93
826.284	67.24
826.462	38.57
826.639	-76.12
826.817	-59.73
826.994	13.99
827.172	-82.26
827.349	116.39
827.527	32.43
827.704	24.23
827.882	34.47
828.059	16.04
828.237	11.95
828.414	16.04
828.591	-108.88
828.769	-72.02
828.946	-31.06
829.124	91.82
829.301	147.11
829.478	-20.82
829.655	22.19
829.833	-31.06
830.01	-145.75
830.187	26.28
830.364	18.09
830.542	-10.58
830.719	91.82
830.896	9.9
831.073	91.82
831.25	5.8
831.427	61.1
831.604	-14.68
831.782	9.9
831.959	-4.44
832.136	-31.06
832.313	42.67
832.49	16.04
832.667	24.23
832.844	-67.92
833.021	44.71
833.198	-61.78
833.374	34.47
833.551	-65.88
833.728	-12.63
833.905	61.1
834.082	-98.64
834.259	-8.53
834.436	93.87
834.612	-65.88
834.789	118.44
834.966	54.95
835.143	73.39
835.319	-88.4
835.496	57
835.673	67.24
835.85	-33.11
836.026	-29.01
836.203	112.3
836.38	-57.68
836.556	-67.92
836.733	-57.68
836.909	73.39
837.086	-51.54
837.262	-90.45
837.439	-33.11
837.616	-18.77
837.792	18.09
837.968	20.14
838.145	-61.78
838.321	-47.44
838.498	52.91
838.674	32.43
838.851	73.39
839.027	-4.44
839.203	-47.44
839.38	-8.53
839.556	-4.44
839.732	-41.3
839.909	1.71
840.085	28.33
840.261	-18.77
840.437	7.85
840.614	-57.68
840.79	40.62
840.966	44.71
841.142	-31.06
841.318	-41.3
841.494	-14.68
841.671	77.48
841.847	22.19
842.023	-74.07
842.199	63.15
842.375	87.72
842.551	-72.02
842.727	-72.02
842.903	108.2
843.079	-29.01
843.255	32.43
843.431	48.81
843.607	34.47
843.783	-145.75
843.959	-0.34
844.134	-49.49
844.31	112.3
844.486	-41.3
844.662	-53.59
844.838	-102.74
845.013	22.19
845.189	124.58
845.365	63.15
845.541	11.95
845.716	-8.53
845.892	77.48
846.068	-72.02
846.244	-31.06
846.419	-14.68
846.595	-80.21
846.77	-33.11
846.946	95.91
847.122	-10.58
847.297	38.57
847.473	112.3
847.648	-65.88
847.824	-26.96
847.999	-90.45
848.175	-65.88
848.35	67.24
848.526	83.63
848.701	16.04
848.876	46.76
849.052	69.29
849.227	7.85
849.403	-43.35
849.578	-47.44
849.753	-4.44
849.929	42.67
850.104	-86.36
850.279	44.71
850.454	46.76
850.63	-16.73
850.805	-26.96
850.98	18.09
851.155	3.75
851.33	40.62
851.505	-59.73
851.681	108.2
851.856	-135.51
852.031	32.43
852.206	9.9
852.381	22.19
852.556	-33.11
852.731	16.04
852.906	26.28
853.081	16.04
853.256	128.68
853.431	-18.77
853.606	-49.49
853.781	-55.64
853.956	-125.27
854.131	-2.39
854.305	-6.49
854.48	11.95
854.655	-84.31
854.83	-43.35
855.005	-35.16
855.18	-98.64
855.354	3.75
855.529	1.71
855.704	-98.64
855.879	83.63
856.053	-35.16
856.228	-10.58
856.403	16.04
856.577	79.53
856.752	-182.61
856.926	-43.35
857.101	-12.63
857.276	-69.97
857.45	16.04
857.625	73.39
857.799	-51.54
857.974	38.57
858.148	-74.07
858.323	-53.59
858.497	18.09
858.672	-24.92
858.846	-26.96
859.02	54.95
859.195	-96.6
859.369	-86.36
859.543	-24.92
859.718	30.38
859.892	-4.44
860.066	-6.49
860.241	-59.73
860.415	-72.02
860.589	3.75
860.763	-0.34
860.938	-24.92
861.112	57
861.286	-14.68
861.46	1.71
861.634	-8.53
861.808	32.43
861.982	-37.2
862.157	-80.21
862.331	-43.35
862.505	-63.83
862.679	-104.79
862.853	-61.78
863.027	-39.25
863.201	165.54
863.375	-35.16
863.549	13.99
863.722	50.86
863.896	112.3
864.07	-43.35
864.244	-2.39
864.418	85.67
864.592	-55.64
864.766	-45.4
864.939	9.9
865.113	-20.82
865.287	67.24
865.461	-80.21
865.634	-24.92
865.808	-26.96
865.982	-31.06
866.156	-53.59
866.329	-117.08
866.503	-4.44
866.676	54.95
866.85	75.43
867.024	7.85
867.197	30.38
867.371	32.43
867.544	18.09
867.718	-18.77
867.891	106.15
868.065	-61.78
868.238	-6.49
868.412	134.82
868.585	-110.93
868.759	-26.96
868.932	-2.39
869.105	-59.73
869.279	-65.88
869.452	-59.73
869.625	5.8
869.799	16.04
869.972	-78.16
870.145	-78.16
870.319	97.96
870.492	18.09
870.665	-82.26
870.838	-10.58
871.011	-153.94
871.185	-31.06
871.358	-90.45
871.531	20.14
871.704	7.85
871.877	7.85
872.05	-18.77
872.223	1.71
872.396	20.14
872.569	159.4
872.742	-84.31
872.915	13.99
873.088	-10.58
873.261	-112.98
873.434	22.19
873.607	16.04
873.78	63.15
873.953	-112.98
874.126	61.1
874.299	69.29
874.471	-22.87
874.644	-104.79
874.817	1.71
874.99	89.77
875.163	-117.08
875.335	-84.31
875.508	-80.21
875.681	48.81
875.853	36.52
876.026	-14.68
876.199	-8.53
876.371	28.33
876.544	-22.87
876.717	-69.97
876.889	-12.63
877.062	-18.77
877.234	-125.27
877.407	-80.21
877.579	-49.49
877.752	57
877.924	3.75
878.097	36.52
878.269	9.9
878.442	-8.53
878.614	16.04
878.786	1.71
878.959	-72.02
879.131	28.33
879.303	-121.17
879.476	-35.16
879.648	118.44
879.82	9.9
879.993	-59.73
880.165	-33.11
880.337	-112.98
880.509	-39.25
880.681	-125.27
880.854	-84.31
881.026	22.19
881.198	100.01
881.37	11.95
881.542	67.24
881.714	16.04
881.886	-63.83
882.058	-14.68
882.23	7.85
882.402	-49.49
882.574	30.38
882.746	44.71
882.918	79.53
883.09	44.71
883.262	-92.5
883.434	-12.63
883.606	-135.51
883.778	-22.87
883.95	104.11
884.122	-49.49
884.293	11.95
884.465	-16.73
884.637	93.87
884.809	-67.92
884.98	34.47
885.152	-6.49
885.324	11.95
885.496	-145.75
885.667	50.86
885.839	-39.25
886.011	126.63
886.182	5.8
886.354	34.47
886.525	22.19
886.697	34.47
886.869	-22.87
887.04	-31.06
887.212	112.3
887.383	71.34
887.555	-6.49
887.726	-45.4
887.897	-82.26
888.069	-10.58
888.24	1.71
888.412	-37.2
888.583	-37.2
888.754	-63.83
888.926	-110.93
889.097	-39.25
889.268	-115.03
889.44	11.95
889.611	-76.12
889.782	46.76
889.953	-90.45
890.125	54.95
890.296	-78.16
890.467	3.75
890.638	-63.83
890.809	-35.16
890.98	-139.6
891.151	-35.16
891.323	97.96
891.494	-119.12
891.665	-22.87
891.836	-69.97
892.007	79.53
892.178	-0.34
892.349	-67.92
892.52	-55.64
892.691	22.19
892.862	3.75
893.032	-151.89
893.203	-117.08
893.374	26.28
893.545	69.29
893.716	-55.64
893.887	85.67
894.057	-76.12
894.228	30.38
894.399	-76.12
894.57	59.05
894.74	-10.58
894.911	11.95
895.082	-43.35
895.253	-104.79
895.423	-65.88
895.594	85.67
895.764	-24.92
895.935	-69.97
896.106	-6.49
896.276	-20.82
896.447	-6.49
896.617	-53.59
896.788	-96.6
896.958	-57.68
897.129	-63.83
897.299	-35.16
897.47	46.76
897.64	73.39
897.81	85.67
897.981	-2.39
898.151	-106.84
898.322	-39.25
898.492	-45.4
898.662	-29.01
898.832	5.8
899.003	-37.2
899.173	-26.96
899.343	16.04
899.513	20.14
