Data from USB4F104151__63__10-43-51-674.txt Node

Date: Wed Feb 26 10:43:51 EST 2025
User: louis
Spectrometer: USB4F10415
Trigger mode: 4
Integration Time (sec): 1.000000E-1
Scans to average: 1
Electric dark correction enabled: true
Nonlinearity correction enabled: false
Boxcar width: 0
XAxis mode: Wavelengths
Number of Pixels in Spectrum: 3648
>>>>>Begin Spectral Data<<<<<
178.204	-457.89
178.424	-457.89
178.644	-457.89
178.864	-330.92
179.084	-402.6
179.304	-19.63
179.524	-29.87
179.744	56.15
179.964	29.52
180.184	31.57
180.404	43.86
180.624	27.48
180.844	37.72
181.064	-91.31
181.283	-44.2
181.503	-105.64
181.723	64.34
181.943	-81.07
182.163	219.99
182.383	-44.2
182.602	45.91
182.822	189.27
183.042	115.54
183.262	-72.87
183.482	-7.34
183.701	93.01
183.921	136.02
184.141	23.38
184.361	64.34
184.58	125.78
184.8	111.44
185.02	-23.72
185.239	113.49
185.459	52.05
185.679	140.12
185.898	-119.98
186.118	68.44
186.338	90.96
186.557	148.31
186.777	-40.11
186.997	2.9
187.216	13.14
187.436	209.75
187.655	97.11
187.875	179.03
188.095	99.16
188.314	133.97
188.534	140.12
188.753	-52.39
188.973	185.17
189.192	164.69
189.412	-52.39
189.631	109.4
189.851	35.67
190.07	250.71
190.29	31.57
190.509	-15.53
190.729	37.72
190.948	179.03
191.168	185.17
191.387	125.78
191.607	17.24
191.826	25.43
192.045	133.97
192.265	54.1
192.484	105.3
192.704	13.14
192.923	-60.59
193.142	144.21
193.362	56.15
193.581	168.79
193.8	9.05
194.02	162.64
194.239	35.67
194.458	21.33
194.678	41.81
194.897	60.24
195.116	101.2
195.335	138.07
195.555	-21.67
195.774	-27.82
195.993	133.97
196.212	52.05
196.432	-13.48
196.651	-50.35
196.87	-23.72
197.089	248.66
197.308	56.15
197.528	82.77
197.747	-36.01
197.966	25.43
198.185	168.79
198.404	37.72
198.623	199.51
198.842	138.07
199.062	39.76
199.281	41.81
199.5	76.63
199.719	9.05
199.938	-11.43
200.157	109.4
200.376	107.35
200.595	107.35
200.814	99.16
201.033	11.09
201.252	189.27
201.471	-25.77
201.69	111.44
201.909	78.68
202.128	158.55
202.347	136.02
202.566	45.91
202.785	-29.87
203.004	13.14
203.223	285.52
203.442	-15.53
203.661	-3.24
203.879	129.88
204.098	148.31
204.317	-87.21
204.536	113.49
204.755	90.96
204.974	129.88
205.193	76.63
205.411	166.74
205.63	70.48
205.849	52.05
206.068	27.48
206.287	-27.82
206.505	209.75
206.724	74.58
206.943	-50.35
207.162	-13.48
207.381	19.29
207.599	64.34
207.818	72.53
208.037	-9.39
208.255	9.05
208.474	136.02
208.693	-9.39
208.911	117.59
209.13	144.21
209.349	107.35
209.567	107.35
209.786	84.82
210.005	158.55
210.223	90.96
210.442	-66.73
210.661	23.38
210.879	74.58
211.098	84.82
211.316	76.63
211.535	60.24
211.753	101.2
211.972	97.11
212.191	19.29
212.409	54.1
212.628	90.96
212.846	-58.54
213.065	109.4
213.283	123.73
213.502	31.57
213.72	119.64
213.938	90.96
214.157	-11.43
214.375	76.63
214.594	76.63
214.812	148.31
215.031	13.14
215.249	64.34
215.467	50
215.686	95.06
215.904	58.2
216.122	21.33
216.341	197.46
216.559	27.48
216.778	138.07
216.996	142.16
217.214	-15.53
217.432	33.62
217.651	-60.59
217.869	-3.24
218.087	68.44
218.306	41.81
218.524	11.09
218.742	-44.2
218.96	121.68
219.179	17.24
219.397	74.58
219.615	211.79
219.833	142.16
220.051	-79.02
220.27	103.25
220.488	101.2
220.706	27.48
220.924	-11.43
221.142	13.14
221.36	123.73
221.578	95.06
221.796	54.1
222.015	56.15
222.233	-44.2
222.451	115.54
222.669	-56.49
222.887	99.16
223.105	25.43
223.323	93.01
223.541	-50.35
223.759	95.06
223.977	52.05
224.195	125.78
224.413	13.14
224.631	9.05
224.849	11.09
225.067	254.8
225.285	-42.15
225.503	-36.01
225.721	-56.49
225.939	133.97
226.157	-3.24
226.375	242.51
226.592	19.29
226.81	35.67
227.028	146.26
227.246	129.88
227.464	84.82
227.682	95.06
227.9	62.29
228.117	93.01
228.335	35.67
228.553	189.27
228.771	119.64
228.989	35.67
229.206	90.96
229.424	78.68
229.642	45.91
229.86	11.09
230.077	187.22
230.295	54.1
230.513	144.21
230.731	43.86
230.948	176.98
231.166	150.36
231.384	74.58
231.601	4.95
231.819	199.51
232.037	-9.39
232.254	-7.34
232.472	41.81
232.689	17.24
232.907	129.88
233.125	60.24
233.342	2.9
233.56	-11.43
233.777	13.14
233.995	58.2
234.213	107.35
234.43	19.29
234.648	43.86
234.865	-58.54
235.083	54.1
235.3	-1.19
235.518	103.25
235.735	105.3
235.953	64.34
236.17	-11.43
236.388	-7.34
236.605	50
236.822	86.87
237.04	78.68
237.257	52.05
237.475	-54.44
237.692	52.05
237.909	189.27
238.127	72.53
238.344	70.48
238.562	37.72
238.779	-85.16
238.996	-7.34
239.214	64.34
239.431	45.91
239.648	-36.01
239.865	105.3
240.083	58.2
240.3	93.01
240.517	-33.96
240.735	-27.82
240.952	226.13
241.169	25.43
241.386	54.1
241.603	-31.91
241.821	-29.87
242.038	107.35
242.255	82.77
242.472	19.29
242.689	47.96
242.907	72.53
243.124	88.92
243.341	54.1
243.558	-25.77
243.775	-7.34
243.992	-44.2
244.209	136.02
244.426	248.66
244.643	78.68
244.86	4.95
245.078	107.35
245.295	107.35
245.512	41.81
245.729	-15.53
245.946	62.29
246.163	129.88
246.38	45.91
246.597	103.25
246.814	68.44
247.031	62.29
247.248	84.82
247.464	50
247.681	68.44
247.898	21.33
248.115	88.92
248.332	7
248.549	189.27
248.766	170.83
248.983	76.63
249.2	201.55
249.417	93.01
249.633	54.1
249.85	127.83
250.067	47.96
250.284	37.72
250.501	11.09
250.717	154.45
250.934	-15.53
251.151	103.25
251.368	74.58
251.585	52.05
251.801	74.58
252.018	4.95
252.235	95.06
252.451	23.38
252.668	33.62
252.885	152.4
253.102	54.1
253.318	11.09
253.535	58.2
253.752	74.58
253.968	-40.11
254.185	0.85
254.401	70.48
254.618	70.48
254.835	23.38
255.051	154.45
255.268	-5.29
255.484	-15.53
255.701	4.95
255.917	33.62
256.134	-113.83
256.351	29.52
256.567	-13.48
256.784	43.86
257	-109.74
257.217	164.69
257.433	74.58
257.65	33.62
257.866	144.21
258.082	-15.53
258.299	-62.63
258.515	15.19
258.732	-33.96
258.948	9.05
259.165	25.43
259.381	-15.53
259.597	121.68
259.814	-23.72
260.03	-44.2
260.246	-1.19
260.463	140.12
260.679	56.15
260.895	113.49
261.112	93.01
261.328	88.92
261.544	-62.63
261.761	209.75
261.977	50
262.193	35.67
262.409	133.97
262.626	54.1
262.842	-11.43
263.058	31.57
263.274	115.54
263.49	45.91
263.707	41.81
263.923	70.48
264.139	-56.49
264.355	62.29
264.571	101.2
264.787	90.96
265.004	133.97
265.22	54.1
265.436	33.62
265.652	7
265.868	125.78
266.084	-7.34
266.3	105.3
266.516	-79.02
266.732	78.68
266.948	33.62
267.164	4.95
267.38	146.26
267.596	156.5
267.812	97.11
268.028	119.64
268.244	7
268.46	88.92
268.676	95.06
268.892	15.19
269.108	64.34
269.324	31.57
269.54	-15.53
269.756	31.57
269.972	-40.11
270.188	-54.44
270.403	-9.39
270.619	50
270.835	119.64
271.051	-13.48
271.267	-7.34
271.483	56.15
271.698	158.55
271.914	117.59
272.13	101.2
272.346	-44.2
272.562	41.81
272.777	191.31
272.993	11.09
273.209	47.96
273.425	76.63
273.64	13.14
273.856	133.97
274.072	-13.48
274.287	70.48
274.503	144.21
274.719	133.97
274.934	56.15
275.15	-15.53
275.366	54.1
275.581	-25.77
275.797	88.92
276.012	-74.92
276.228	-9.39
276.444	17.24
276.659	148.31
276.875	-7.34
277.09	37.72
277.306	62.29
277.521	82.77
277.737	27.48
277.952	62.29
278.168	76.63
278.383	35.67
278.599	82.77
278.814	162.64
279.03	39.76
279.245	140.12
279.461	88.92
279.676	121.68
279.892	25.43
280.107	-11.43
280.322	74.58
280.538	136.02
280.753	13.14
280.969	31.57
281.184	72.53
281.399	160.59
281.615	119.64
281.83	54.1
282.045	-17.58
282.26	11.09
282.476	-1.19
282.691	74.58
282.906	93.01
283.122	76.63
283.337	-7.34
283.552	152.4
283.767	60.24
283.983	-40.11
284.198	23.38
284.413	7
284.628	-91.31
284.843	117.59
285.058	117.59
285.274	56.15
285.489	-36.01
285.704	72.53
285.919	62.29
286.134	47.96
286.349	76.63
286.564	11.09
286.779	68.44
286.995	52.05
287.21	-7.34
287.425	90.96
287.64	-11.43
287.855	88.92
288.07	-60.59
288.285	234.32
288.5	115.54
288.715	136.02
288.93	-36.01
289.145	21.33
289.36	156.5
289.575	47.96
289.79	195.41
290.004	-13.48
290.219	131.92
290.434	9.05
290.649	52.05
290.864	2.9
291.079	17.24
291.294	86.87
291.509	166.74
291.724	45.91
291.938	70.48
292.153	74.58
292.368	66.39
292.583	37.72
292.798	125.78
293.012	47.96
293.227	76.63
293.442	25.43
293.657	101.2
293.871	111.44
294.086	68.44
294.301	187.22
294.516	45.91
294.73	58.2
294.945	-11.43
295.16	80.72
295.374	123.73
295.589	185.17
295.804	62.29
296.018	60.24
296.233	168.79
296.447	41.81
296.662	-25.77
296.877	107.35
297.091	56.15
297.306	23.38
297.52	11.09
297.735	25.43
297.949	123.73
298.164	66.39
298.378	107.35
298.593	-17.58
298.807	-36.01
299.022	64.34
299.236	207.7
299.451	19.29
299.665	7
299.88	23.38
300.094	64.34
300.309	66.39
300.523	11.09
300.737	-15.53
300.952	105.3
301.166	103.25
301.381	-17.58
301.595	45.91
301.809	58.2
302.024	-19.63
302.238	-97.45
302.452	123.73
302.667	52.05
302.881	185.17
303.095	140.12
303.309	-31.91
303.524	11.09
303.738	35.67
303.952	-42.15
304.166	56.15
304.381	-105.64
304.595	191.31
304.809	33.62
305.023	66.39
305.237	66.39
305.452	39.76
305.666	0.85
305.88	131.92
306.094	183.12
306.308	133.97
306.522	133.97
306.736	35.67
306.95	56.15
307.164	11.09
307.379	101.2
307.593	148.31
307.807	93.01
308.021	158.55
308.235	158.55
308.449	-31.91
308.663	33.62
308.877	154.45
309.091	88.92
309.305	90.96
309.519	-23.72
309.733	138.07
309.947	-58.54
310.161	70.48
310.374	64.34
310.588	123.73
310.802	-5.29
311.016	13.14
311.23	133.97
311.444	17.24
311.658	-23.72
311.872	121.68
312.085	183.12
312.299	154.45
312.513	127.83
312.727	45.91
312.941	-3.24
313.154	154.45
313.368	101.2
313.582	76.63
313.796	70.48
314.009	58.2
314.223	142.16
314.437	107.35
314.651	72.53
314.864	-11.43
315.078	56.15
315.292	-152.74
315.505	-19.63
315.719	29.52
315.933	97.11
316.146	41.81
316.36	78.68
316.573	123.73
316.787	74.58
317.001	52.05
317.214	-87.21
317.428	27.48
317.641	-21.67
317.855	-64.68
318.068	31.57
318.282	39.76
318.495	166.74
318.709	117.59
318.922	15.19
319.136	103.25
319.349	164.69
319.563	-3.24
319.776	72.53
319.99	-29.87
320.203	47.96
320.417	60.24
320.63	140.12
320.843	213.84
321.057	9.05
321.27	17.24
321.483	64.34
321.697	101.2
321.91	56.15
322.124	64.34
322.337	60.24
322.55	9.05
322.763	70.48
322.977	23.38
323.19	33.62
323.403	2.9
323.617	107.35
323.83	176.98
324.043	-11.43
324.256	76.63
324.469	-19.63
324.683	117.59
324.896	93.01
325.109	15.19
325.322	-72.87
325.535	133.97
325.748	45.91
325.962	68.44
326.175	138.07
326.388	2.9
326.601	170.83
326.814	2.9
327.027	-40.11
327.24	183.12
327.453	-23.72
327.666	82.77
327.879	185.17
328.092	119.64
328.305	111.44
328.518	43.86
328.731	19.29
328.944	7
329.157	66.39
329.37	31.57
329.583	293.71
329.796	119.64
330.009	-44.2
330.222	66.39
330.435	101.2
330.648	25.43
330.861	66.39
331.073	15.19
331.286	111.44
331.499	95.06
331.712	11.09
331.925	33.62
332.138	-17.58
332.35	123.73
332.563	60.24
332.776	84.82
332.989	25.43
333.202	-21.67
333.414	4.95
333.627	31.57
333.84	39.76
334.053	-3.24
334.265	-13.48
334.478	-58.54
334.691	52.05
334.903	70.48
335.116	15.19
335.329	93.01
335.541	35.67
335.754	148.31
335.966	-13.48
336.179	109.4
336.392	86.87
336.604	74.58
336.817	138.07
337.029	88.92
337.242	27.48
337.454	74.58
337.667	-13.48
337.88	119.64
338.092	76.63
338.305	74.58
338.517	35.67
338.729	82.77
338.942	238.42
339.154	-46.25
339.367	-76.97
339.579	95.06
339.792	-115.88
340.004	78.68
340.217	66.39
340.429	105.3
340.641	-38.06
340.854	64.34
341.066	-19.63
341.278	82.77
341.491	125.78
341.703	82.77
341.915	-3.24
342.128	90.96
342.34	72.53
342.552	23.38
342.764	29.52
342.977	125.78
343.189	82.77
343.401	72.53
343.613	-15.53
343.826	33.62
344.038	-19.63
344.25	47.96
344.462	88.92
344.674	101.2
344.886	-27.82
345.099	142.16
345.311	127.83
345.523	-13.48
345.735	-140.46
345.947	111.44
346.159	131.92
346.371	80.72
346.583	-19.63
346.795	146.26
347.007	7
347.219	41.81
347.431	56.15
347.643	193.36
347.855	31.57
348.067	189.27
348.279	15.19
348.491	-3.24
348.703	115.54
348.915	29.52
349.127	-7.34
349.339	56.15
349.551	-19.63
349.763	150.36
349.975	64.34
350.187	146.26
350.399	97.11
350.61	101.2
350.822	50
351.034	-13.48
351.246	76.63
351.458	25.43
351.669	78.68
351.881	107.35
352.093	131.92
352.305	174.93
352.517	95.06
352.728	148.31
352.94	80.72
353.152	80.72
353.363	-40.11
353.575	86.87
353.787	193.36
353.999	56.15
354.21	170.83
354.422	43.86
354.633	66.39
354.845	72.53
355.057	17.24
355.268	62.29
355.48	105.3
355.692	-25.77
355.903	56.15
356.115	-33.96
356.326	-83.11
356.538	138.07
356.749	127.83
356.961	164.69
357.172	43.86
357.384	-76.97
357.595	179.03
357.807	58.2
358.018	-44.2
358.23	52.05
358.441	142.16
358.653	99.16
358.864	107.35
359.075	-17.58
359.287	29.52
359.498	144.21
359.709	172.88
359.921	-1.19
360.132	93.01
360.344	31.57
360.555	54.1
360.766	47.96
360.977	-31.91
361.189	142.16
361.4	107.35
361.611	150.36
361.823	146.26
362.034	56.15
362.245	-68.78
362.456	72.53
362.667	45.91
362.879	-15.53
363.09	70.48
363.301	72.53
363.512	121.68
363.723	37.72
363.935	21.33
364.146	144.21
364.357	41.81
364.568	95.06
364.779	-33.96
364.99	187.22
365.201	-38.06
365.412	37.72
365.623	19.29
365.834	101.2
366.045	50
366.256	56.15
366.467	93.01
366.678	74.58
366.889	33.62
367.1	43.86
367.311	131.92
367.522	-7.34
367.733	164.69
367.944	80.72
368.155	4.95
368.366	103.25
368.577	144.21
368.788	117.59
368.999	33.62
369.209	74.58
369.42	244.56
369.631	203.6
369.842	140.12
370.053	95.06
370.264	62.29
370.474	41.81
370.685	121.68
370.896	72.53
371.107	129.88
371.317	131.92
371.528	-29.87
371.739	129.88
371.95	41.81
372.16	162.64
372.371	-113.83
372.582	90.96
372.792	119.64
373.003	78.68
373.214	37.72
373.424	111.44
373.635	31.57
373.846	183.12
374.056	43.86
374.267	88.92
374.477	103.25
374.688	23.38
374.898	74.58
375.109	86.87
375.319	27.48
375.53	86.87
375.74	136.02
375.951	21.33
376.161	52.05
376.372	70.48
376.582	39.76
376.793	21.33
377.003	33.62
377.214	25.43
377.424	54.1
377.635	64.34
377.845	-54.44
378.055	125.78
378.266	-31.91
378.476	70.48
378.686	17.24
378.897	43.86
379.107	148.31
379.317	70.48
379.528	86.87
379.738	109.4
379.948	35.67
380.158	119.64
380.369	90.96
380.579	54.1
380.789	66.39
380.999	119.64
381.21	93.01
381.42	228.18
381.63	60.24
381.84	133.97
382.05	56.15
382.261	127.83
382.471	105.3
382.681	-40.11
382.891	234.32
383.101	93.01
383.311	-76.97
383.521	7
383.731	129.88
383.941	60.24
384.151	78.68
384.361	84.82
384.571	-15.53
384.781	17.24
384.991	109.4
385.201	146.26
385.411	140.12
385.621	125.78
385.831	45.91
386.041	27.48
386.251	0.85
386.461	88.92
386.671	66.39
386.881	95.06
387.091	115.54
387.301	148.31
387.511	86.87
387.72	105.3
387.93	115.54
388.14	-54.44
388.35	93.01
388.56	90.96
388.769	154.45
388.979	52.05
389.189	-72.87
389.399	62.29
389.609	148.31
389.818	142.16
390.028	101.2
390.238	29.52
390.447	66.39
390.657	123.73
390.867	21.33
391.076	-17.58
391.286	80.72
391.496	140.12
391.705	95.06
391.915	58.2
392.125	174.93
392.334	31.57
392.544	191.31
392.753	25.43
392.963	39.76
393.172	93.01
393.382	21.33
393.591	258.9
393.801	-11.43
394.01	164.69
394.22	121.68
394.429	17.24
394.639	7
394.848	4.95
395.058	11.09
395.267	82.77
395.477	86.87
395.686	52.05
395.895	217.94
396.105	250.71
396.314	179.03
396.524	99.16
396.733	60.24
396.942	181.07
397.152	140.12
397.361	41.81
397.57	84.82
397.78	131.92
397.989	84.82
398.198	199.51
398.407	52.05
398.617	37.72
398.826	95.06
399.035	107.35
399.244	131.92
399.453	60.24
399.663	52.05
399.872	-9.39
400.081	-7.34
400.29	205.65
400.499	19.29
400.708	133.97
400.917	47.96
401.127	107.35
401.336	56.15
401.545	172.88
401.754	138.07
401.963	154.45
402.172	-25.77
402.381	-5.29
402.59	52.05
402.799	88.92
403.008	174.93
403.217	39.76
403.426	152.4
403.635	-56.49
403.844	80.72
404.053	43.86
404.262	41.81
404.471	179.03
404.68	41.81
404.888	33.62
405.097	66.39
405.306	90.96
405.515	213.84
405.724	17.24
405.933	121.68
406.142	133.97
406.35	47.96
406.559	-29.87
406.768	127.83
406.977	238.42
407.185	23.38
407.394	103.25
407.603	-5.29
407.812	107.35
408.02	181.07
408.229	82.77
408.438	54.1
408.646	-29.87
408.855	90.96
409.064	109.4
409.272	-1.19
409.481	150.36
409.69	25.43
409.898	-42.15
410.107	74.58
410.315	129.88
410.524	21.33
410.733	19.29
410.941	64.34
411.15	123.73
411.358	70.48
411.567	154.45
411.775	66.39
411.984	115.54
412.192	56.15
412.401	99.16
412.609	154.45
412.818	176.98
413.026	68.44
413.234	-36.01
413.443	-5.29
413.651	19.29
413.86	93.01
414.068	201.55
414.276	224.08
414.485	-44.2
414.693	123.73
414.901	179.03
415.11	80.72
415.318	78.68
415.526	80.72
415.734	185.17
415.943	80.72
416.151	136.02
416.359	62.29
416.567	27.48
416.776	160.59
416.984	123.73
417.192	240.47
417.4	125.78
417.608	15.19
417.817	-40.11
418.025	125.78
418.233	154.45
418.441	0.85
418.649	-52.39
418.857	125.78
419.065	148.31
419.273	95.06
419.481	93.01
419.689	127.83
419.897	-3.24
420.105	-64.68
420.313	217.94
420.521	222.03
420.729	181.07
420.937	11.09
421.145	21.33
421.353	66.39
421.561	119.64
421.769	136.02
421.977	27.48
422.185	217.94
422.393	23.38
422.601	183.12
422.809	47.96
423.017	127.83
423.224	99.16
423.432	136.02
423.64	43.86
423.848	125.78
424.056	93.01
424.263	203.6
424.471	50
424.679	203.6
424.887	31.57
425.094	127.83
425.302	179.03
425.51	107.35
425.718	168.79
425.925	144.21
426.133	70.48
426.341	242.51
426.548	142.16
426.756	125.78
426.964	191.31
427.171	7
427.379	150.36
427.586	140.12
427.794	189.27
428.001	152.4
428.209	185.17
428.417	183.12
428.624	174.93
428.832	133.97
429.039	154.45
429.247	107.35
429.454	125.78
429.662	193.36
429.869	199.51
430.076	172.88
430.284	203.6
430.491	293.71
430.699	201.55
430.906	222.03
431.114	101.2
431.321	144.21
431.528	103.25
431.736	217.94
431.943	183.12
432.15	187.22
432.358	185.17
432.565	271.19
432.772	9.05
432.979	230.23
433.187	125.78
433.394	277.33
433.601	174.93
433.808	338.77
434.016	289.62
434.223	316.24
434.43	330.58
434.637	291.66
434.844	330.58
435.052	332.62
435.259	267.09
435.466	402.26
435.673	301.9
435.88	322.38
436.087	389.97
436.294	389.97
436.501	396.11
436.708	349.01
436.915	414.54
437.122	416.59
437.329	461.65
437.537	389.97
437.743	365.39
437.95	455.5
438.157	418.64
438.364	363.34
438.571	404.3
438.778	523.09
438.985	496.46
439.192	594.76
439.399	512.85
439.606	508.75
439.813	660.3
440.02	635.72
440.227	742.22
440.433	668.49
440.64	650.06
440.847	576.33
441.054	721.74
441.261	926.54
441.467	715.59
441.674	621.39
441.881	885.58
442.088	742.22
442.294	834.38
442.501	932.68
442.708	1000.26
442.914	953.16
443.121	1067.85
443.328	1088.32
443.534	1049.41
443.741	1047.37
443.948	875.34
444.154	1092.42
444.361	1372.99
444.568	1250.11
444.774	1241.92
444.981	1190.72
445.187	1411.9
445.394	1420.1
445.6	1424.19
445.807	1620.8
446.013	1516.35
446.22	1481.53
446.426	1669.95
446.633	1755.96
446.839	1952.57
447.046	1739.58
447.252	1913.66
447.459	1809.21
447.665	1891.13
447.871	2188.08
448.078	2261.81
448.284	2368.31
448.491	2435.89
448.697	2437.94
448.903	2444.08
449.11	2644.78
449.316	2540.33
449.522	2827.05
449.728	2966.31
449.935	3101.48
450.141	3001.13
450.347	3328.8
450.553	3183.4
450.76	3388.19
450.966	3425.06
451.172	3674.91
451.378	3679.01
451.584	3777.31
451.791	4041.5
451.997	4086.55
452.203	4260.63
452.409	4485.9
452.615	4649.74
452.821	4428.56
453.027	4692.75
453.233	5270.28
453.44	5108.49
453.646	5188.36
453.852	5507.84
454.058	5634.82
454.264	5974.78
454.47	6232.82
454.676	6335.22
454.882	6873.84
455.088	6589.17
455.294	7047.91
455.5	7441.12
455.705	7992.03
455.911	7906.01
456.117	8078.04
456.323	8401.62
456.529	8311.51
456.735	9122.51
456.941	9396.93
457.147	9743.04
457.352	9880.25
457.558	10242.75
457.764	10807.98
457.97	11061.93
458.176	11608.74
458.381	12112.54
458.587	12296.86
458.793	13005.45
458.999	12946.06
459.204	14766.71
459.41	14918.26
459.616	15057.52
459.821	15829.6
460.027	16306.78
460.233	17187.41
460.438	17422.92
460.644	18113.09
460.85	18283.07
461.055	19159.6
461.261	20097.57
461.466	19401.26
461.672	19800.62
461.878	22368.77
462.083	22274.56
462.289	22653.44
462.494	23175.67
462.7	23790.06
462.905	23945.7
463.111	26184.13
463.316	27222.45
463.522	27810.22
463.727	28658.08
463.932	29718.93
464.138	30609.79
464.343	31902.06
464.549	32244.07
464.754	34414.92
464.959	35270.97
465.165	35973.42
465.37	35674.42
465.575	35410.23
465.781	38091.02
465.986	39209.22
466.191	38707.46
466.397	39121.15
466.602	38463.75
466.807	40241.39
467.012	40925.41
467.218	41390.3
467.423	41654.49
467.628	42821.83
467.833	44900.52
468.038	44030.13
468.244	43165.89
468.449	45342.88
468.654	44609.71
468.859	44798.12
469.064	44816.55
469.269	44013.75
469.474	43911.35
469.679	44826.79
469.885	44126.39
470.09	44781.74
470.295	44548.27
470.5	43667.64
470.705	43899.06
470.91	43075.78
471.115	42440.91
471.32	43178.18
471.525	42834.12
471.73	41920.73
471.935	41533.66
472.139	40044.79
472.344	39678.2
472.549	39938.29
472.754	38795.53
472.959	38187.28
473.164	37153.05
473.369	36606.25
473.574	37450.01
473.778	36606.25
473.983	36172.08
474.188	35447.1
474.393	33874.26
474.598	33786.19
474.802	33046.88
475.007	32567.65
475.212	32366.95
475.417	30896.51
475.621	30818.69
475.826	30144.91
476.031	29534.61
476.235	28869.02
476.44	29047.19
476.645	28432.8
476.849	28043.69
477.054	27740.59
477.259	26868.16
477.463	26964.41
477.668	26266.05
477.872	25946.57
478.077	25539.02
478.282	24807.9
478.486	24472.03
478.691	24154.6
478.895	23957.99
479.1	23767.53
479.304	23554.54
479.509	22747.64
479.713	23273.97
479.918	22843.9
480.122	22415.87
480.326	22460.93
480.531	22311.42
480.735	22020.61
480.94	22051.33
481.144	22311.42
481.348	21400.08
481.553	21398.03
481.757	20707.87
481.961	20963.86
482.166	21404.17
482.37	20890.13
482.574	20023.84
482.778	20408.86
482.983	20609.56
483.187	20202.02
483.391	20134.43
483.595	19905.06
483.8	19395.12
484.004	19536.43
484.208	19909.16
484.412	19216.94
484.616	19227.18
484.821	18553.4
485.025	18364.99
485.229	18410.04
485.433	17979.97
485.637	17977.92
485.841	17488.46
486.045	17476.17
486.249	17287.76
486.453	17074.77
486.657	16706.13
486.861	16781.91
487.065	16128.61
487.269	16015.97
487.473	15532.65
487.677	15655.53
487.881	15497.83
488.085	15080.05
488.289	15080.05
488.493	14500.47
488.697	14688.89
488.901	14299.77
489.105	14088.83
489.309	13644.42
489.512	13458.06
489.716	13240.97
489.92	13058.7
490.124	12550.81
490.328	12896.91
490.531	12278.43
490.735	12360.34
490.939	11721.38
491.143	11719.33
491.346	11453.09
491.55	11485.86
491.754	11025.07
491.958	10873.52
492.161	10627.76
492.365	10832.56
492.569	10468.02
492.772	10427.06
492.976	10138.3
493.18	10242.75
493.383	10113.72
493.587	9943.74
493.79	9747.14
493.994	9452.23
494.197	9282.25
494.401	9456.33
494.605	9278.15
494.808	9349.83
495.012	9140.94
495.215	9439.94
495.419	9358.02
495.622	8905.42
495.825	8925.9
496.029	8731.34
496.232	9020.11
496.436	8995.53
496.639	8954.57
496.843	8837.84
497.046	8755.92
497.249	8850.13
497.453	8706.77
497.656	8909.52
497.859	8864.46
498.063	8911.57
498.266	9048.78
498.469	8886.99
498.673	8714.96
498.876	8936.14
499.079	8993.48
499.282	8803.02
499.485	9485
499.689	9083.59
499.892	9224.9
500.095	9241.29
500.298	9251.53
500.501	9050.83
500.705	9491.14
500.908	9616.07
501.111	9566.92
501.314	9730.75
501.517	9988.8
501.72	9810.62
501.923	9788.1
502.126	9956.03
502.329	10351.29
502.532	10328.76
502.735	10480.31
502.938	10644.15
503.141	10478.26
503.344	10662.58
503.547	11070.12
503.75	10826.42
503.953	11264.68
504.156	11303.59
504.359	11301.54
504.562	11590.31
504.765	11829.92
504.968	11883.17
505.17	12249.75
505.373	12255.9
505.576	12540.57
505.779	12731.03
505.982	12847.76
506.185	13073.04
506.387	13218.44
506.59	13587.08
506.793	13738.63
506.996	13937.28
507.198	14652.02
507.401	14434.94
507.604	14822
507.807	15084.14
508.009	15602.28
508.212	15592.04
508.415	15962.72
508.617	16435.8
508.82	16536.15
509.022	16734.81
509.225	17429.07
509.428	17830.47
509.63	17961.54
509.833	18221.63
510.035	19003.96
510.238	18963
510.44	19653.16
510.643	19972.64
510.845	20689.43
511.048	20591.13
511.25	21293.58
511.453	21805.58
511.655	22649.34
511.858	23005.69
512.06	23310.83
512.262	23996.9
512.465	24074.73
512.667	24672.73
512.87	25276.88
513.072	25561.55
513.274	26423.75
513.477	27070.9
513.679	27617.71
513.881	28572.07
514.084	28944.8
514.286	29104.54
514.488	29917.58
514.69	30968.19
514.893	31318.39
515.095	31977.84
515.297	32774.5
515.499	33392.98
515.701	34048.33
515.904	34859.33
516.106	35488.06
516.308	36204.84
516.51	37138.72
516.712	37005.6
516.914	37990.67
517.116	39166.21
517.318	39524.6
517.52	40120.56
517.722	40712.42
517.925	42053.84
518.127	42494.16
518.329	43272.39
518.531	43122.88
518.733	44566.7
518.935	45381.79
519.136	45861.02
519.338	46721.16
519.54	47218.82
519.742	48005.24
519.944	48640.11
520.146	49483.87
520.348	49680.48
520.55	50120.79
520.752	50980.94
520.954	52103.23
521.155	52322.36
521.357	52955.18
521.559	53516.32
521.761	54704.15
521.963	54683.67
522.164	54732.82
522.366	55300.11
522.568	55939.07
522.77	56338.43
522.971	57253.87
523.173	56944.62
523.375	57096.17
523.576	57092.08
523.778	57290.73
523.98	58097.63
524.181	58202.08
524.383	58378.2
524.584	58992.59
524.786	58830.8
524.988	58701.78
525.189	59054.03
525.391	59201.49
525.592	59158.48
525.794	59283.4
525.995	59062.22
526.197	58773.46
526.398	58578.9
526.6	58972.11
526.801	58759.12
527.003	58642.39
527.204	58322.91
527.406	58494.94
527.607	58105.82
527.808	58353.63
528.01	57010.16
528.211	56954.86
528.412	57614.31
528.614	56485.88
528.815	56272.89
529.016	56784.88
529.218	55599.11
529.419	55750.66
529.62	54546.45
529.822	54251.55
530.023	53999.65
530.224	53096.49
530.425	52772.91
530.626	52074.55
530.828	51466.31
531.029	52029.5
531.23	50448.47
531.431	49932.38
531.632	49715.29
531.833	49428.58
532.035	48705.65
532.236	47992.95
532.437	47546.5
532.638	46315.67
532.839	46403.73
533.04	46153.88
533.241	45222.05
533.442	45256.87
533.643	43964.6
533.844	43866.3
534.045	43370.69
534.246	42033.36
534.447	41879.77
534.648	41507.04
534.849	40917.22
535.05	39989.49
535.251	40034.55
535.451	39106.82
535.652	38828.29
535.853	37984.53
536.054	37824.79
536.255	37626.14
536.456	36460.84
536.657	36661.54
536.857	35911.99
537.058	34998.59
537.259	35014.98
537.46	34732.36
537.66	34060.62
537.861	33640.79
538.062	33050.97
538.263	32344.42
538.463	32246.12
538.664	32020.84
538.865	31594.87
539.065	31132.03
539.266	30728.58
539.466	30564.74
539.667	29802.89
539.868	29639.06
540.068	29063.58
540.269	28527.01
540.469	28465.57
540.67	28332.45
540.87	27863.47
541.071	27394.48
541.271	27347.38
541.472	27064.76
541.672	26270.15
541.873	26169.8
542.073	25391.57
542.274	26212.81
542.474	25364.95
542.675	25080.28
542.875	24857.05
543.075	24558.05
543.276	24177.12
543.476	24365.54
543.676	23792.11
543.877	23581.17
544.077	23460.34
544.277	23106.04
544.478	22786.55
544.678	22759.93
544.878	22383.1
545.078	22094.34
545.279	21604.88
545.479	21275.15
545.679	21279.25
545.879	20898.33
546.079	20826.65
546.28	20513.31
546.48	19864.1
546.68	20019.75
546.88	20054.56
547.08	19857.96
547.28	19388.97
547.48	18711.1
547.68	18973.24
547.88	18588.22
548.081	18510.39
548.281	17945.16
548.481	17707.59
548.681	17848.9
548.881	17713.74
549.081	17341
549.28	17146.45
549.48	16902.74
549.68	16761.43
549.88	16679.51
550.08	16206.43
550.28	16005.73
550.48	15950.43
550.68	15577.7
550.88	15184.49
551.08	15133.29
551.279	14996.08
551.479	14742.13
551.679	14502.52
551.879	14164.61
552.079	14285.44
552.278	13945.47
552.478	13865.6
552.678	13449.86
552.878	13531.78
553.077	13331.08
553.277	13046.41
553.477	12810.9
553.676	12485.27
553.876	12262.04
554.076	12219.03
554.275	12069.53
554.475	11623.08
554.674	11645.6
554.874	11524.77
555.074	11135.66
555.273	11068.08
555.473	10863.28
555.672	10566.32
555.872	10271.42
556.071	10500.79
556.271	10328.76
556.47	9953.98
556.67	9818.82
556.869	9882.3
557.068	9587.4
557.268	9466.56
557.467	9192.14
557.667	9061.07
557.866	8936.14
558.065	8590.03
558.265	8618.71
558.464	8315.61
558.663	8481.49
558.863	8196.82
559.062	8291.03
559.261	7893.72
559.461	8082.14
559.66	7764.7
559.859	7551.71
560.058	7561.95
560.258	7127.78
560.457	7410.4
560.656	7322.34
560.855	6900.46
561.054	6925.04
561.253	6849.26
561.453	6884.08
561.652	6509.3
561.851	6654.7
562.05	6540.02
562.249	6331.12
562.448	6275.83
562.647	6150.9
562.846	6161.14
563.045	6111.99
563.244	5837.56
563.443	5843.71
563.642	5667.58
563.841	5788.41
564.04	5606.14
564.239	5550.85
564.438	5262.09
564.637	5317.38
564.836	5286.66
565.035	5100.3
565.234	5096.2
565.432	5001.99
565.631	5085.96
565.83	4936.46
566.029	4713.23
566.228	4772.62
566.427	4764.43
566.625	4533.01
566.824	4526.86
567.023	4500.24
567.222	4481.81
567.42	4266.77
567.619	4254.48
567.818	4115.22
568.016	4373.27
568.215	4244.24
568.414	4143.89
568.612	4039.45
568.811	3896.09
569.01	3969.82
569.208	3824.41
569.407	3902.23
569.605	3785.5
569.804	3650.33
570.002	3711.77
570.201	3539.74
570.4	3681.05
570.598	3488.54
570.797	3343.14
570.995	3371.81
571.193	3363.62
571.392	3396.39
571.59	3195.68
571.789	3189.54
571.987	3115.81
572.186	3300.13
572.384	3056.42
572.582	3013.42
572.781	3048.23
572.979	2749.23
573.177	2800.43
573.376	2853.67
573.574	2812.71
573.772	2663.21
573.971	2593.58
574.169	2532.14
574.367	2657.07
574.565	2597.68
574.763	2507.57
574.962	2450.22
575.16	2349.87
575.358	2362.16
575.556	2349.87
575.754	2368.31
575.952	2227
576.151	2222.9
576.349	2267.95
576.547	2022.2
576.745	2216.76
576.943	2179.89
577.141	2036.53
577.339	2102.07
577.537	2014.01
577.735	1950.52
577.933	1973.05
578.131	1891.13
578.329	2069.3
578.527	1815.35
578.725	1925.94
578.923	1721.15
579.121	1872.7
579.319	1628.99
579.516	1725.24
579.714	1860.41
579.912	1778.49
580.11	1571.65
580.308	1606.46
580.506	1512.25
580.704	1467.2
580.901	1534.78
581.099	1643.32
581.297	1499.97
581.495	1526.59
581.692	1467.2
581.89	1592.13
582.088	1487.68
582.285	1325.89
582.483	1461.06
582.681	1409.86
582.878	1397.57
583.076	1346.37
583.274	1389.38
583.471	1454.91
583.669	1225.54
583.866	1219.39
584.064	1256.26
584.262	1092.42
584.459	1166.15
584.657	1258.31
584.854	1170.24
585.052	1194.82
585.249	1149.76
585.447	1133.38
585.644	955.21
585.841	1221.44
586.039	1164.1
586.236	1067.85
586.434	1071.94
586.631	963.4
586.828	1033.03
587.026	961.35
587.223	990.02
587.42	906.06
587.618	1076.04
587.815	1123.14
588.012	914.25
588.21	957.25
588.407	998.21
588.604	996.17
588.801	861
588.999	996.17
589.196	987.97
589.393	899.91
589.59	944.97
589.787	908.1
589.984	846.66
590.182	947.01
590.379	840.52
590.576	867.14
590.773	846.66
590.97	805.71
591.167	940.87
591.364	910.15
591.561	813.9
591.758	983.88
591.955	863.05
592.152	811.85
592.349	791.37
592.546	721.74
592.743	746.31
592.94	815.94
593.137	848.71
593.334	826.18
593.531	848.71
593.727	889.67
593.924	801.61
594.121	764.75
594.318	738.12
594.515	813.9
594.712	981.83
594.908	963.4
595.105	789.32
595.302	906.06
595.499	875.34
595.696	967.49
595.892	873.29
596.089	1008.45
596.286	910.15
596.482	1045.32
596.679	1047.37
596.876	910.15
597.072	1043.27
597.269	1026.89
597.466	1250.11
597.662	1135.43
597.859	1026.89
598.055	1030.98
598.252	1229.63
598.448	1274.69
598.645	1397.57
598.841	1342.27
599.038	1491.77
599.234	1487.68
599.431	1565.5
599.627	1465.15
599.824	1577.79
600.02	1563.45
600.217	1737.53
600.413	1694.52
600.609	1778.49
600.806	2222.9
601.002	2087.73
601.198	1968.95
601.395	2294.58
601.591	2159.41
601.787	2202.42
601.984	2429.74
602.18	2335.54
602.376	2444.08
602.572	2669.36
602.769	2882.35
602.965	2892.59
603.161	2933.54
603.357	2933.54
603.553	3304.23
603.75	3195.68
603.946	3259.17
604.142	3449.63
604.338	3674.91
604.534	3691.29
604.73	3881.75
604.926	3828.51
605.122	4072.22
605.318	4152.09
605.514	4340.5
605.71	4403.99
605.906	4723.47
606.102	4453.14
606.298	4920.07
606.494	5083.91
606.69	5255.94
606.886	5174.02
607.082	5440.26
607.278	5571.33
607.474	5677.82
607.67	5872.38
607.866	5862.14
608.062	6294.26
608.257	6367.99
608.453	6546.16
608.649	6779.63
608.845	6841.07
609.041	7095.02
609.236	7303.91
609.432	7484.13
609.628	7678.69
609.824	8012.51
610.019	7938.78
610.215	8270.55
610.411	8608.47
610.606	8811.21
610.802	8839.89
610.998	9251.53
611.193	9513.67
611.389	9401.03
611.584	10040
611.78	10091.2
611.976	10373.82
612.171	10885.81
612.367	11102.89
612.562	11217.58
612.758	11446.95
612.953	11874.98
613.149	12251.8
613.344	12413.59
613.539	13073.04
613.735	13271.69
613.93	13656.71
614.126	13556.36
614.321	14475.9
614.517	14668.41
614.712	14920.31
614.907	15260.27
615.103	15909.47
615.298	16149.09
615.493	16487
615.688	16722.52
615.884	17545.8
616.079	17816.13
616.274	18573.88
616.47	18524.73
616.665	19311.15
616.86	19481.13
617.055	20265.5
617.25	20683.29
617.445	21283.34
617.641	21457.42
617.836	22221.31
618.031	22536.7
618.226	23230.96
618.421	23835.11
618.616	24039.91
618.811	24549.85
619.006	25616.85
619.201	25668.05
619.396	26962.36
619.591	26665.41
619.786	27668.91
619.981	28060.07
620.176	28596.64
620.371	29276.57
620.566	30538.12
620.761	30564.74
620.956	31639.92
621.151	31455.61
621.346	32600.42
621.541	32436.58
621.735	34154.83
621.93	33790.29
622.125	34879.81
622.32	35252.54
622.515	36444.46
622.709	36591.91
622.904	37366.04
623.099	37984.53
623.294	38897.92
623.488	39033.09
623.683	40179.95
623.878	40225.01
624.072	41244.9
624.267	41822.42
624.462	42586.32
624.656	42934.47
624.851	43516.09
625.046	44091.57
625.24	44912.81
625.435	45316.26
625.629	46362.77
625.824	46162.07
626.018	47233.16
626.213	47079.56
626.407	48382.07
626.602	48197.75
626.796	49549.41
626.991	49522.79
627.185	49875.04
627.38	50393.17
627.574	50550.87
627.768	50663.5
627.963	51265.61
628.157	50997.32
628.352	51691.58
628.546	50907.21
628.74	51667.01
628.935	51351.62
629.129	51497.03
629.323	50976.84
629.517	50825.29
629.712	51025.99
629.906	50337.88
630.1	49604.7
630.294	49809.5
630.489	48748.65
630.683	49254.5
630.877	47327.36
631.071	47001.74
631.265	46348.43
631.459	45754.52
631.653	44251.31
631.848	43346.11
632.042	42158.29
632.236	41820.38
632.43	40681.7
632.624	39409.92
632.818	37998.87
633.012	36811.04
633.206	35846.45
633.4	35178.81
633.594	32960.86
633.788	32645.48
633.982	31811.95
634.176	30589.31
634.369	29305.24
634.563	28285.35
634.757	27197.88
634.951	26438.08
635.145	25237.97
635.339	24556
635.533	22997.49
635.726	22473.21
635.92	21223.95
636.114	20601.37
636.308	19806.76
636.501	18926.13
636.695	18358.85
636.889	17304.14
637.083	16835.16
637.276	15913.57
637.47	15161.97
637.664	14862.96
637.857	14373.5
638.051	13722.24
638.244	13091.47
638.438	12501.65
638.632	12243.61
638.825	11346.6
639.019	11190.95
639.212	10850.99
639.406	10201.79
639.599	9896.64
639.793	9360.07
639.986	8952.52
640.18	8934.09
640.373	8403.67
640.567	7922.4
640.76	7906.01
640.954	7535.33
641.147	7135.98
641.34	6900.46
641.534	6662.9
641.727	6445.81
641.92	6351.6
642.114	5985.02
642.307	5765.89
642.5	5628.67
642.694	5266.18
642.887	5249.8
643.08	5012.23
643.273	4858.64
643.467	4551.44
643.66	4342.55
643.853	4207.38
644.046	3945.24
644.239	3988.25
644.432	3633.95
644.626	3506.98
644.819	3484.45
645.012	3359.52
645.205	3283.75
645.398	3066.66
645.591	2878.25
645.784	2880.3
645.977	2609.97
646.17	2673.45
646.363	2442.03
646.556	2351.92
646.749	2292.53
646.942	2319.15
647.135	2270
647.328	2134.84
647.521	2061.11
647.714	1811.26
647.907	2016.05
648.099	1672
648.292	1868.6
648.485	1643.32
648.678	1610.56
648.871	1491.77
649.064	1549.12
649.256	1377.09
649.449	1405.76
649.642	1289.03
649.835	1225.54
650.027	1200.96
650.22	1239.87
650.413	1209.15
650.605	1284.93
650.798	1018.69
650.991	1059.65
651.183	1004.36
651.376	1010.5
651.568	1037.13
651.761	875.34
651.954	912.2
652.146	815.94
652.339	797.51
652.531	789.32
652.724	682.83
652.916	781.13
653.109	533.33
653.301	867.14
653.494	830.28
653.686	672.59
653.879	715.59
654.071	713.55
654.263	736.07
654.456	617.29
654.648	658.25
654.84	592.72
655.033	562
655.225	613.2
655.417	463.69
655.61	652.11
655.802	531.28
655.994	645.96
656.186	381.78
656.379	514.89
656.571	396.11
656.763	404.3
656.955	418.64
657.148	437.07
657.34	482.13
657.532	287.57
657.724	420.69
657.916	383.82
658.108	455.5
658.3	502.61
658.492	404.3
658.684	367.44
658.876	420.69
659.068	273.23
659.26	310.1
659.452	217.94
659.644	275.28
659.836	377.68
660.028	357.2
660.22	197.46
660.412	342.86
660.604	318.29
660.796	392.02
660.988	375.63
661.18	222.03
661.372	316.24
661.563	222.03
661.755	283.47
661.947	140.12
662.139	162.64
662.331	199.51
662.522	232.27
662.714	162.64
662.906	152.4
663.097	306
663.289	211.79
663.481	95.06
663.673	240.47
663.864	162.64
664.056	203.6
664.247	189.27
664.439	338.77
664.631	203.6
664.822	195.41
665.014	131.92
665.205	174.93
665.397	162.64
665.588	230.23
665.78	240.47
665.971	176.98
666.163	127.83
666.354	275.28
666.546	129.88
666.737	232.27
666.929	78.68
667.12	195.41
667.311	293.71
667.503	219.99
667.694	191.31
667.885	258.9
668.077	228.18
668.268	111.44
668.459	154.45
668.651	207.7
668.842	222.03
669.033	95.06
669.224	-3.24
669.416	371.54
669.607	168.79
669.798	187.22
669.989	226.13
670.18	183.12
670.371	267.09
670.563	-11.43
670.754	240.47
670.945	201.55
671.136	273.23
671.327	47.96
671.518	168.79
671.709	324.43
671.9	267.09
672.091	242.51
672.282	166.74
672.473	224.08
672.664	117.59
672.855	209.75
673.046	197.46
673.237	240.47
673.428	154.45
673.619	234.32
673.809	160.59
674	230.23
674.191	248.66
674.382	144.21
674.573	138.07
674.764	179.03
674.954	203.6
675.145	166.74
675.336	138.07
675.527	111.44
675.717	142.16
675.908	148.31
676.099	125.78
676.289	179.03
676.48	68.44
676.671	162.64
676.861	187.22
677.052	148.31
677.243	86.87
677.433	127.83
677.624	195.41
677.814	191.31
678.005	156.5
678.195	271.19
678.386	66.39
678.576	185.17
678.767	133.97
678.957	162.64
679.148	246.61
679.338	230.23
679.529	275.28
679.719	158.55
679.909	310.1
680.1	230.23
680.29	344.91
680.481	78.68
680.671	234.32
680.861	312.14
681.052	176.98
681.242	230.23
681.432	283.47
681.622	138.07
681.813	140.12
682.003	199.51
682.193	193.36
682.383	269.14
682.573	189.27
682.764	193.36
682.954	258.9
683.144	289.62
683.334	168.79
683.524	232.27
683.714	269.14
683.904	213.84
684.094	199.51
684.284	248.66
684.474	353.1
684.664	312.14
684.854	215.89
685.044	277.33
685.234	197.46
685.424	174.93
685.614	197.46
685.804	349.01
685.994	232.27
686.184	181.07
686.374	252.75
686.564	236.37
686.753	183.12
686.943	158.55
687.133	193.36
687.323	246.61
687.513	265.04
687.702	289.62
687.892	267.09
688.082	262.99
688.272	322.38
688.461	293.71
688.651	344.91
688.841	359.25
689.03	162.64
689.22	166.74
689.41	301.9
689.599	205.65
689.789	201.55
689.979	344.91
690.168	248.66
690.358	297.81
690.547	209.75
690.737	262.99
690.926	244.56
691.116	275.28
691.305	234.32
691.495	262.99
691.684	138.07
691.874	158.55
692.063	262.99
692.252	228.18
692.442	383.82
692.631	250.71
692.82	269.14
693.01	273.23
693.199	244.56
693.388	283.47
693.578	215.89
693.767	342.86
693.956	258.9
694.146	215.89
694.335	232.27
694.524	224.08
694.713	258.9
694.902	142.16
695.092	211.79
695.281	219.99
695.47	168.79
695.659	174.93
695.848	176.98
696.037	125.78
696.226	320.34
696.415	205.65
696.604	359.25
696.793	267.09
696.982	152.4
697.171	357.2
697.36	148.31
697.549	236.37
697.738	146.26
697.927	162.64
698.116	138.07
698.305	252.75
698.494	174.93
698.683	191.31
698.872	404.3
699.061	273.23
699.25	201.55
699.438	78.68
699.627	146.26
699.816	342.86
700.005	158.55
700.193	170.83
700.382	342.86
700.571	252.75
700.76	207.7
700.948	324.43
701.137	260.95
701.326	275.28
701.514	168.79
701.703	199.51
701.892	226.13
702.08	287.57
702.269	213.84
702.457	170.83
702.646	201.55
702.834	222.03
703.023	287.57
703.212	193.36
703.4	238.42
703.589	185.17
703.777	146.26
703.965	119.64
704.154	131.92
704.342	107.35
704.531	183.12
704.719	209.75
704.907	265.04
705.096	119.64
705.284	123.73
705.472	244.56
705.661	170.83
705.849	262.99
706.037	289.62
706.226	230.23
706.414	269.14
706.602	142.16
706.79	314.19
706.979	195.41
707.167	222.03
707.355	111.44
707.543	164.69
707.731	287.57
707.919	170.83
708.107	189.27
708.296	146.26
708.484	107.35
708.672	201.55
708.86	172.88
709.048	193.36
709.236	144.21
709.424	267.09
709.612	289.62
709.8	133.97
709.988	162.64
710.176	232.27
710.364	369.49
710.551	213.84
710.739	205.65
710.927	199.51
711.115	217.94
711.303	269.14
711.491	232.27
711.679	129.88
711.866	209.75
712.054	262.99
712.242	209.75
712.43	326.48
712.617	172.88
712.805	279.38
712.993	226.13
713.181	113.49
713.368	291.66
713.556	154.45
713.744	213.84
713.931	351.06
714.119	250.71
714.306	244.56
714.494	201.55
714.682	201.55
714.869	107.35
715.057	228.18
715.244	136.02
715.432	258.9
715.619	117.59
715.807	185.17
715.994	150.36
716.182	215.89
716.369	322.38
716.556	183.12
716.744	88.92
716.931	193.36
717.119	308.05
717.306	195.41
717.493	246.61
717.681	195.41
717.868	213.84
718.055	244.56
718.242	172.88
718.43	334.67
718.617	250.71
718.804	185.17
718.991	312.14
719.179	320.34
719.366	207.7
719.553	219.99
719.74	265.04
719.927	240.47
720.114	168.79
720.301	152.4
720.488	209.75
720.676	127.83
720.863	260.95
721.05	371.54
721.237	244.56
721.424	295.76
721.611	314.19
721.798	156.5
721.985	236.37
722.172	168.79
722.358	232.27
722.545	299.86
722.732	303.95
722.919	353.1
723.106	283.47
723.293	285.52
723.48	193.36
723.667	154.45
723.853	281.43
724.04	295.76
724.227	359.25
724.414	191.31
724.6	203.6
724.787	351.06
724.974	312.14
725.161	275.28
725.347	148.31
725.534	203.6
725.72	193.36
725.907	303.95
726.094	283.47
726.28	209.75
726.467	207.7
726.653	158.55
726.84	320.34
727.027	412.5
727.213	262.99
727.4	285.52
727.586	410.45
727.773	258.9
727.959	256.85
728.145	201.55
728.332	248.66
728.518	133.97
728.705	281.43
728.891	189.27
729.077	269.14
729.264	195.41
729.45	277.33
729.636	338.77
729.823	287.57
730.009	283.47
730.195	285.52
730.382	271.19
730.568	76.63
730.754	318.29
730.94	269.14
731.126	164.69
731.313	256.85
731.499	269.14
731.685	301.9
731.871	332.62
732.057	322.38
732.243	217.94
732.429	254.8
732.615	385.87
732.801	252.75
732.987	234.32
733.173	355.15
733.359	248.66
733.545	283.47
733.731	277.33
733.917	410.45
734.103	359.25
734.289	244.56
734.475	271.19
734.661	349.01
734.847	248.66
735.033	293.71
735.219	285.52
735.404	213.84
735.59	191.31
735.776	129.88
735.962	340.82
736.148	396.11
736.333	357.2
736.519	273.23
736.705	297.81
736.89	334.67
737.076	308.05
737.262	273.23
737.447	207.7
737.633	285.52
737.819	328.53
738.004	275.28
738.19	310.1
738.375	234.32
738.561	332.62
738.747	306
738.932	181.07
739.118	316.24
739.303	291.66
739.489	289.62
739.674	308.05
739.859	293.71
740.045	275.28
740.23	330.58
740.416	144.21
740.601	328.53
740.786	265.04
740.972	244.56
741.157	291.66
741.342	207.7
741.528	191.31
741.713	353.1
741.898	213.84
742.084	244.56
742.269	262.99
742.454	373.58
742.639	344.91
742.824	275.28
743.01	346.96
743.195	326.48
743.38	230.23
743.565	301.9
743.75	277.33
743.935	334.67
744.12	334.67
744.305	207.7
744.49	226.13
744.675	201.55
744.86	203.6
745.045	340.82
745.23	260.95
745.415	256.85
745.6	314.19
745.785	187.22
745.97	312.14
746.155	256.85
746.34	336.72
746.525	316.24
746.71	387.92
746.895	185.17
747.079	142.16
747.264	291.66
747.449	285.52
747.634	250.71
747.819	260.95
748.003	154.45
748.188	179.03
748.373	250.71
748.557	176.98
748.742	277.33
748.927	303.95
749.111	164.69
749.296	222.03
749.481	236.37
749.665	271.19
749.85	205.65
750.034	320.34
750.219	201.55
750.404	164.69
750.588	250.71
750.773	179.03
750.957	271.19
751.141	166.74
751.326	238.42
751.51	133.97
751.695	189.27
751.879	187.22
752.064	269.14
752.248	224.08
752.432	308.05
752.617	303.95
752.801	369.49
752.985	179.03
753.17	236.37
753.354	103.25
753.538	183.12
753.722	136.02
753.907	201.55
754.091	133.97
754.275	248.66
754.459	52.05
754.643	29.52
754.828	213.84
755.012	195.41
755.196	109.4
755.38	238.42
755.564	160.59
755.748	101.2
755.932	213.84
756.116	232.27
756.3	179.03
756.484	129.88
756.668	199.51
756.852	43.86
757.036	115.54
757.22	152.4
757.404	140.12
757.588	39.76
757.772	181.07
757.956	162.64
758.14	201.55
758.323	127.83
758.507	152.4
758.691	129.88
758.875	228.18
759.059	168.79
759.242	183.12
759.426	121.68
759.61	205.65
759.794	123.73
759.977	138.07
760.161	295.76
760.345	267.09
760.528	262.99
760.712	166.74
760.895	187.22
761.079	179.03
761.263	68.44
761.446	99.16
761.63	156.5
761.813	242.51
761.997	47.96
762.18	99.16
762.364	187.22
762.547	31.57
762.731	86.87
762.914	209.75
763.098	160.59
763.281	84.82
763.464	109.4
763.648	119.64
763.831	82.77
764.015	52.05
764.198	179.03
764.381	76.63
764.564	109.4
764.748	166.74
764.931	170.83
765.114	105.3
765.297	107.35
765.481	45.91
765.664	129.88
765.847	84.82
766.03	191.31
766.213	82.77
766.397	164.69
766.58	50
766.763	185.17
766.946	90.96
767.129	60.24
767.312	160.59
767.495	152.4
767.678	-1.19
767.861	101.2
768.044	136.02
768.227	52.05
768.41	121.68
768.593	95.06
768.776	76.63
768.959	107.35
769.142	222.03
769.324	117.59
769.507	144.21
769.69	50
769.873	84.82
770.056	316.24
770.239	162.64
770.421	125.78
770.604	172.88
770.787	35.67
770.97	168.79
771.152	25.43
771.335	113.49
771.518	-5.29
771.7	142.16
771.883	185.17
772.066	138.07
772.248	154.45
772.431	146.26
772.613	217.94
772.796	115.54
772.978	93.01
773.161	215.89
773.343	23.38
773.526	70.48
773.708	-68.78
773.891	27.48
774.073	21.33
774.256	41.81
774.438	144.21
774.621	95.06
774.803	56.15
774.985	74.58
775.168	11.09
775.35	121.68
775.532	101.2
775.715	82.77
775.897	166.74
776.079	111.44
776.261	193.36
776.444	-13.48
776.626	15.19
776.808	107.35
776.99	56.15
777.173	138.07
777.355	68.44
777.537	78.68
777.719	70.48
777.901	95.06
778.083	0.85
778.265	50
778.447	117.59
778.629	-19.63
778.811	107.35
778.993	115.54
779.175	140.12
779.357	127.83
779.539	-7.34
779.721	76.63
779.903	176.98
780.085	33.62
780.267	60.24
780.449	29.52
780.631	142.16
780.812	127.83
780.994	33.62
781.176	58.2
781.358	56.15
781.54	29.52
781.721	97.11
781.903	121.68
782.085	41.81
782.267	148.31
782.448	-119.98
782.63	9.05
782.812	105.3
782.993	103.25
783.175	78.68
783.357	-31.91
783.538	90.96
783.72	-31.91
783.901	93.01
784.083	37.72
784.264	136.02
784.446	-3.24
784.627	-9.39
784.809	62.29
784.99	-21.67
785.172	62.29
785.353	-58.54
785.535	66.39
785.716	29.52
785.897	-50.35
786.079	-21.67
786.26	117.59
786.441	99.16
786.623	-101.55
786.804	-1.19
786.985	7
787.167	107.35
787.348	64.34
787.529	-19.63
787.71	152.4
787.891	35.67
788.073	17.24
788.254	-25.77
788.435	140.12
788.616	39.76
788.797	17.24
788.978	127.83
789.159	-17.58
789.34	62.29
789.522	21.33
789.703	-97.45
789.884	9.05
790.065	78.68
790.246	80.72
790.427	7
790.607	133.97
790.788	125.78
790.969	43.86
791.15	119.64
791.331	58.2
791.512	-40.11
791.693	-50.35
791.874	23.38
792.054	207.7
792.235	131.92
792.416	15.19
792.597	-40.11
792.778	140.12
792.958	90.96
793.139	74.58
793.32	66.39
793.5	-76.97
793.681	164.69
793.862	54.1
794.042	80.72
794.223	-31.91
794.404	21.33
794.584	50
794.765	-17.58
794.945	19.29
795.126	119.64
795.306	88.92
795.487	15.19
795.667	95.06
795.848	29.52
796.028	68.44
796.209	31.57
796.389	72.53
796.57	33.62
796.75	-93.35
796.93	-50.35
797.111	11.09
797.291	45.91
797.471	121.68
797.652	-25.77
797.832	-40.11
798.012	7
798.192	37.72
798.373	-68.78
798.553	-13.48
798.733	52.05
798.913	-31.91
799.093	4.95
799.274	88.92
799.454	113.49
799.634	0.85
799.814	127.83
799.994	39.76
800.174	66.39
800.354	54.1
800.534	-7.34
800.714	172.88
800.894	-15.53
801.074	-91.31
801.254	-19.63
801.434	185.17
801.614	9.05
801.794	-5.29
801.974	1606.46
802.154	31.57
802.334	113.49
802.514	-64.68
802.693	-29.87
802.873	-15.53
803.053	158.55
803.233	88.92
803.413	70.48
803.592	17.24
803.772	-27.82
803.952	43.86
804.131	-50.35
804.311	43.86
804.491	164.69
804.67	-11.43
804.85	-33.96
805.03	105.3
805.209	37.72
805.389	-36.01
805.568	-42.15
805.748	-64.68
805.928	78.68
806.107	97.11
806.287	-3.24
806.466	62.29
806.646	-5.29
806.825	25.43
807.004	-42.15
807.184	43.86
807.363	50
807.543	54.1
807.722	-40.11
807.901	97.11
808.081	11.09
808.26	-40.11
808.439	60.24
808.619	-9.39
808.798	-66.73
808.977	58.2
809.156	78.68
809.336	56.15
809.515	113.49
809.694	-62.63
809.873	-9.39
810.052	43.86
810.231	183.12
810.411	-19.63
810.59	158.55
810.769	-19.63
810.948	45.91
811.127	-52.39
811.306	33.62
811.485	56.15
811.664	164.69
811.843	70.48
812.022	41.81
812.201	27.48
812.38	-36.01
812.559	-29.87
812.737	74.58
812.916	-91.31
813.095	-25.77
813.274	17.24
813.453	-33.96
813.632	66.39
813.811	76.63
813.989	-85.16
814.168	-23.72
814.347	17.24
814.526	41.81
814.704	152.4
814.883	107.35
815.062	-17.58
815.24	90.96
815.419	11.09
815.598	31.57
815.776	-81.07
815.955	-11.43
816.133	-54.44
816.312	0.85
816.49	-144.55
816.669	0.85
816.847	-13.48
817.026	21.33
817.204	-89.26
817.383	19.29
817.561	27.48
817.74	9.05
817.918	111.44
818.097	-76.97
818.275	21.33
818.453	62.29
818.632	9.05
818.81	45.91
818.988	13.14
819.167	-11.43
819.345	99.16
819.523	4.95
819.701	-9.39
819.879	103.25
820.058	39.76
820.236	56.15
820.414	9.05
820.592	25.43
820.77	35.67
820.948	-3.24
821.127	-29.87
821.305	-15.53
821.483	-111.78
821.661	156.5
821.839	43.86
822.017	-21.67
822.195	-52.39
822.373	4.95
822.551	31.57
822.729	52.05
822.907	-11.43
823.085	127.83
823.262	45.91
823.44	27.48
823.618	17.24
823.796	35.67
823.974	-44.2
824.152	27.48
824.329	11.09
824.507	4.95
824.685	25.43
824.863	58.2
825.04	56.15
825.218	68.44
825.396	2.9
825.574	-40.11
825.751	43.86
825.929	-19.63
826.107	-87.21
826.284	70.48
826.462	62.29
826.639	52.05
826.817	-40.11
826.994	23.38
827.172	-89.26
827.349	142.16
827.527	54.1
827.704	56.15
827.882	31.57
828.059	60.24
828.237	-5.29
828.414	109.4
828.591	-111.78
828.769	23.38
828.946	-15.53
829.124	37.72
829.301	121.68
829.478	-91.31
829.655	19.29
829.833	-3.24
830.01	-13.48
830.187	4.95
830.364	45.91
830.542	58.2
830.719	54.1
830.896	117.59
831.073	-7.34
831.25	90.96
831.427	56.15
831.604	-85.16
831.782	-56.49
831.959	88.92
832.136	-9.39
832.313	7
832.49	-64.68
832.667	70.48
832.844	-1.19
833.021	43.86
833.198	50
833.374	2.9
833.551	-7.34
833.728	-31.91
833.905	70.48
834.082	-173.22
834.259	68.44
834.436	62.29
834.612	-68.78
834.789	66.39
834.966	-3.24
835.143	-52.39
835.319	-3.24
835.496	21.33
835.673	29.52
835.85	123.73
836.026	66.39
836.203	170.83
836.38	-72.87
836.556	-46.25
836.733	-107.69
836.909	127.83
837.086	9.05
837.262	-58.54
837.439	15.19
837.616	-85.16
837.792	-5.29
837.968	93.01
838.145	-128.17
838.321	4.95
838.498	90.96
838.674	21.33
838.851	47.96
839.027	-38.06
839.203	-1.19
839.38	31.57
839.556	-107.69
839.732	99.16
839.909	19.29
840.085	105.3
840.261	-72.87
840.437	-3.24
840.614	-31.91
840.79	66.39
840.966	60.24
841.142	-5.29
841.318	37.72
841.494	-21.67
841.671	64.34
841.847	50
842.023	2.9
842.199	54.1
842.375	78.68
842.551	-9.39
842.727	-115.88
842.903	121.68
843.079	0.85
843.255	97.11
843.431	-13.48
843.607	31.57
843.783	-115.88
843.959	19.29
844.134	-64.68
844.31	148.31
844.486	-13.48
844.662	33.62
844.838	54.1
845.013	9.05
845.189	45.91
845.365	66.39
845.541	-3.24
845.716	54.1
845.892	123.73
846.068	37.72
846.244	45.91
846.419	-36.01
846.595	-56.49
846.77	-44.2
846.946	33.62
847.122	4.95
847.297	-11.43
847.473	150.36
847.648	-40.11
847.824	35.67
847.999	-76.97
848.175	90.96
848.35	23.38
848.526	123.73
848.701	64.34
848.876	84.82
849.052	62.29
849.227	-27.82
849.403	47.96
849.578	-7.34
849.753	43.86
849.929	21.33
850.104	-62.63
850.279	15.19
850.454	23.38
850.63	133.97
850.805	27.48
850.98	-23.72
851.155	17.24
851.33	31.57
851.505	-66.73
851.681	115.54
851.856	35.67
852.031	-87.21
852.206	-87.21
852.381	-70.83
852.556	-68.78
852.731	56.15
852.906	62.29
853.081	76.63
853.256	174.93
853.431	-36.01
853.606	-48.3
853.781	-17.58
853.956	-68.78
854.131	-15.53
854.305	-40.11
854.48	-52.39
854.655	-113.83
854.83	-11.43
855.005	31.57
855.18	-31.91
855.354	-54.44
855.529	35.67
855.704	-89.26
855.879	37.72
856.053	-107.69
856.228	0.85
856.403	33.62
856.577	-9.39
856.752	-5.29
856.926	-3.24
857.101	-1.19
857.276	-66.73
857.45	41.81
857.625	52.05
857.799	-1.19
857.974	-7.34
858.148	-218.28
858.323	-42.15
858.497	-19.63
858.672	-70.83
858.846	4.95
859.02	99.16
859.195	-48.3
859.369	23.38
859.543	-7.34
859.718	13.14
859.892	136.02
860.066	-1.19
860.241	15.19
860.415	27.48
860.589	47.96
860.763	-21.67
860.938	-25.77
861.112	56.15
861.286	-48.3
861.46	33.62
861.634	-29.87
861.808	97.11
861.982	-15.53
862.157	-134.31
862.331	-25.77
862.505	-66.73
862.679	-101.55
862.853	2.9
863.027	-72.87
863.201	162.64
863.375	-11.43
863.549	43.86
863.722	39.76
863.896	113.49
864.07	-23.72
864.244	17.24
864.418	2.9
864.592	-44.2
864.766	144.21
864.939	47.96
865.113	-27.82
865.287	95.06
865.461	-95.4
865.634	-72.87
865.808	-31.91
865.982	-50.35
866.156	-3.24
866.329	-70.83
866.503	31.57
866.676	129.88
866.85	68.44
867.024	-60.59
867.197	37.72
867.371	17.24
867.544	39.76
867.718	-25.77
867.891	99.16
868.065	-101.55
868.238	35.67
868.412	60.24
868.585	66.39
868.759	-5.29
868.932	-40.11
869.105	-119.98
869.279	21.33
869.452	-21.67
869.625	45.91
869.799	-48.3
869.972	-85.16
870.145	-9.39
870.319	109.4
870.492	-31.91
870.665	-60.59
870.838	-7.34
871.011	-136.36
871.185	33.62
871.358	-19.63
871.531	-48.3
871.704	-15.53
871.877	64.34
872.05	-9.39
872.223	-148.65
872.396	33.62
872.569	29.52
872.742	-48.3
872.915	-50.35
873.088	-40.11
873.261	-146.6
873.434	29.52
873.607	-13.48
873.78	9.05
873.953	-60.59
874.126	-5.29
874.299	127.83
874.471	-95.4
874.644	37.72
874.817	86.87
874.99	146.26
875.163	-140.46
875.335	35.67
875.508	-19.63
875.681	119.64
875.853	-38.06
876.026	107.35
876.199	47.96
876.371	0.85
876.544	52.05
876.717	-27.82
876.889	-40.11
877.062	31.57
877.234	-91.31
877.407	-50.35
877.579	-27.82
877.752	35.67
877.924	88.92
878.097	31.57
878.269	17.24
878.442	33.62
878.614	47.96
878.786	11.09
878.959	-11.43
879.131	17.24
879.303	-42.15
879.476	25.43
879.648	84.82
879.82	-15.53
879.993	-46.25
880.165	47.96
880.337	-97.45
880.509	27.48
880.681	-58.54
880.854	-31.91
881.026	93.01
881.198	164.69
881.37	13.14
881.542	-50.35
881.714	15.19
881.886	-54.44
882.058	-15.53
882.23	-31.91
882.402	-97.45
882.574	-3.24
882.746	123.73
882.918	101.2
883.09	113.49
883.262	-19.63
883.434	-21.67
883.606	-122.02
883.778	2.9
883.95	136.02
884.122	-7.34
884.293	133.97
884.465	-3.24
884.637	45.91
884.809	11.09
884.98	13.14
885.152	41.81
885.324	82.77
885.496	-62.63
885.667	-54.44
885.839	-31.91
886.011	78.68
886.182	13.14
886.354	31.57
886.525	43.86
886.697	37.72
886.869	-97.45
887.04	-31.91
887.212	52.05
887.383	88.92
887.555	54.1
887.726	-40.11
887.897	-33.96
888.069	-36.01
888.24	119.64
888.412	-36.01
888.583	41.81
888.754	9.05
888.926	-62.63
889.097	-33.96
889.268	-91.31
889.44	19.29
889.611	-70.83
889.782	-64.68
889.953	-27.82
890.125	101.2
890.296	-93.35
890.467	9.05
890.638	23.38
890.809	64.34
890.98	-17.58
891.151	-13.48
891.323	86.87
891.494	27.48
891.665	56.15
891.836	-29.87
892.007	35.67
892.178	-13.48
892.349	29.52
892.52	-5.29
892.691	-11.43
892.862	-79.02
893.032	-119.98
893.203	-7.34
893.374	62.29
893.545	68.44
893.716	-13.48
893.887	39.76
894.057	-11.43
894.228	21.33
894.399	-70.83
894.57	101.2
894.74	-21.67
894.911	4.95
895.082	-17.58
895.253	-7.34
895.423	-5.29
895.594	95.06
895.764	4.95
895.935	-66.73
896.106	39.76
896.276	-52.39
896.447	78.68
896.617	-52.39
896.788	0.85
896.958	-21.67
897.129	-109.74
897.299	-91.31
897.47	72.53
897.64	101.2
897.81	-15.53
897.981	-13.48
898.151	-29.87
898.322	0.85
898.492	11.09
898.662	-54.44
898.832	-89.26
899.003	11.09
899.173	35.67
899.343	-29.87
899.513	-68.78
