Data from USB4F104151__13__10-41-46-487.txt Node

Date: Wed Feb 26 10:41:46 EST 2025
User: louis
Spectrometer: USB4F10415
Trigger mode: 4
Integration Time (sec): 1.000000E-1
Scans to average: 1
Electric dark correction enabled: true
Nonlinearity correction enabled: false
Boxcar width: 0
XAxis mode: Wavelengths
Number of Pixels in Spectrum: 3648
>>>>>Begin Spectral Data<<<<<
178.204	-349.52
178.424	-349.52
178.644	-349.52
178.864	-316.75
179.084	-427.34
179.304	-87.38
179.524	-25.94
179.744	-15.7
179.964	86.7
180.184	0.68
180.404	76.46
180.624	-7.51
180.844	-1.37
181.064	-95.57
181.283	0.68
181.503	-17.75
181.723	86.7
181.943	-38.23
182.163	178.86
182.383	47.79
182.602	33.45
182.822	109.22
183.042	53.93
183.262	-46.42
183.482	21.16
183.701	-11.61
183.921	47.79
184.141	-13.65
184.361	15.02
184.58	101.03
184.8	10.92
185.02	12.97
185.239	58.03
185.459	148.14
185.679	164.52
185.898	10.92
186.118	55.98
186.338	113.32
186.557	66.22
186.777	10.92
186.997	4.78
187.216	109.22
187.436	187.05
187.655	88.75
187.875	115.37
188.095	43.69
188.314	68.27
188.534	109.22
188.753	-126.29
188.973	135.85
189.192	113.32
189.412	27.31
189.631	-1.37
189.851	146.09
190.07	123.56
190.29	-71
190.509	-75.09
190.729	51.88
190.948	193.19
191.168	342.69
191.387	64.17
191.607	6.83
191.826	90.79
192.045	70.31
192.265	45.74
192.484	96.94
192.704	-27.99
192.923	-46.42
193.142	213.67
193.362	133.8
193.581	166.57
193.8	98.99
194.02	113.32
194.239	49.83
194.458	105.13
194.678	86.7
194.897	109.22
195.116	103.08
195.335	21.16
195.555	74.41
195.774	66.22
195.993	213.67
196.212	-38.23
196.432	53.93
196.651	98.99
196.87	92.84
197.089	246.44
197.308	80.55
197.528	113.32
197.747	-32.08
197.966	58.03
198.185	195.24
198.404	8.87
198.623	127.66
198.842	191.14
199.062	131.75
199.281	146.09
199.5	21.16
199.719	107.18
199.938	117.42
200.157	43.69
200.376	158.38
200.595	49.83
200.814	144.04
201.033	10.92
201.252	131.75
201.471	88.75
201.69	19.11
201.909	47.79
202.128	135.85
202.347	84.65
202.566	0.68
202.785	-32.08
203.004	86.7
203.223	168.62
203.442	109.22
203.661	-5.46
203.879	121.51
204.098	148.14
204.317	-44.37
204.536	119.46
204.755	144.04
204.974	131.75
205.193	-7.51
205.411	199.34
205.63	39.59
205.849	152.23
206.068	49.83
206.287	-50.52
206.505	115.37
206.724	119.46
206.943	21.16
207.162	8.87
207.381	55.98
207.599	117.42
207.818	6.83
208.037	4.78
208.255	-38.23
208.474	62.12
208.693	68.27
208.911	-25.94
209.13	146.09
209.349	92.84
209.567	109.22
209.786	117.42
210.005	127.66
210.223	125.61
210.442	-87.38
210.661	23.21
210.879	68.27
211.098	70.31
211.316	98.99
211.535	154.28
211.753	84.65
211.972	150.18
212.191	74.41
212.409	-7.51
212.628	150.18
212.846	-5.46
213.065	144.04
213.283	162.47
213.502	117.42
213.72	43.69
213.938	60.07
214.157	35.5
214.375	109.22
214.594	80.55
214.812	178.86
215.031	33.45
215.249	60.07
215.467	135.85
215.686	125.61
215.904	127.66
216.122	53.93
216.341	191.14
216.559	105.13
216.778	137.9
216.996	121.51
217.214	70.31
217.432	43.69
217.651	8.87
217.869	66.22
218.087	72.36
218.306	21.16
218.524	29.35
218.742	60.07
218.96	127.66
219.179	-36.18
219.397	111.27
219.615	266.92
219.833	135.85
220.051	64.17
220.27	90.79
220.488	144.04
220.706	92.84
220.924	12.97
221.142	49.83
221.36	133.8
221.578	117.42
221.796	68.27
222.015	27.31
222.233	0.68
222.451	172.71
222.669	49.83
222.887	15.02
223.105	19.11
223.323	-7.51
223.541	-36.18
223.759	96.94
223.977	39.59
224.195	74.41
224.413	207.53
224.631	80.55
224.849	127.66
225.067	213.67
225.285	31.4
225.503	76.46
225.721	53.93
225.939	76.46
226.157	51.88
226.375	244.39
226.592	60.07
226.81	62.12
227.028	96.94
227.246	162.47
227.464	31.4
227.682	125.61
227.9	111.27
228.117	49.83
228.335	109.22
228.553	90.79
228.771	33.45
228.989	68.27
229.206	62.12
229.424	129.7
229.642	-7.51
229.86	-9.56
230.077	160.42
230.295	70.31
230.513	137.9
230.731	105.13
230.948	164.52
231.166	139.94
231.384	70.31
231.601	15.02
231.819	203.43
232.037	-40.28
232.254	-15.7
232.472	-17.75
232.689	-11.61
232.907	166.57
233.125	78.51
233.342	-5.46
233.56	8.87
233.777	-9.56
233.995	58.03
234.213	103.08
234.43	133.8
234.648	-32.08
234.865	47.79
235.083	107.18
235.3	98.99
235.518	105.13
235.735	152.23
235.953	66.22
236.17	80.55
236.388	6.83
236.605	115.37
236.822	129.7
237.04	156.33
237.257	105.13
237.475	33.45
237.692	76.46
237.909	131.75
238.127	4.78
238.344	94.89
238.562	105.13
238.779	55.98
238.996	27.31
239.214	88.75
239.431	53.93
239.648	27.31
239.865	121.51
240.083	174.76
240.3	29.35
240.517	94.89
240.735	15.02
240.952	127.66
241.169	90.79
241.386	98.99
241.603	84.65
241.821	-71
242.038	68.27
242.255	172.71
242.472	25.26
242.689	70.31
242.907	176.81
243.124	86.7
243.341	29.35
243.558	6.83
243.775	6.83
243.992	-77.14
244.209	84.65
244.426	193.19
244.643	92.84
244.86	62.12
245.078	129.7
245.295	86.7
245.512	72.36
245.729	-1.37
245.946	82.6
246.163	78.51
246.38	17.07
246.597	121.51
246.814	62.12
247.031	53.93
247.248	51.88
247.464	58.03
247.681	170.66
247.898	80.55
248.115	58.03
248.332	39.59
248.549	70.31
248.766	172.71
248.983	47.79
249.2	109.22
249.417	123.56
249.633	45.74
249.85	12.97
250.067	88.75
250.284	101.03
250.501	70.31
250.717	45.74
250.934	-54.61
251.151	-25.94
251.368	2.73
251.585	94.89
251.801	92.84
252.018	43.69
252.235	131.75
252.451	-9.56
252.668	78.51
252.885	178.86
253.102	29.35
253.318	70.31
253.535	35.5
253.752	43.69
253.968	-71
254.185	-21.85
254.401	60.07
254.618	58.03
254.835	-5.46
255.051	129.7
255.268	152.23
255.484	98.99
255.701	68.27
255.917	101.03
256.134	19.11
256.351	25.26
256.567	-73.04
256.784	92.84
257	19.11
257.217	178.86
257.433	141.99
257.65	31.4
257.866	162.47
258.082	-5.46
258.299	31.4
258.515	135.85
258.732	6.83
258.948	23.21
259.165	125.61
259.381	23.21
259.597	127.66
259.814	66.22
260.03	82.6
260.246	33.45
260.463	92.84
260.679	197.29
260.895	6.83
261.112	84.65
261.328	33.45
261.544	33.45
261.761	271.01
261.977	39.59
262.193	35.5
262.409	98.99
262.626	86.7
262.842	76.46
263.058	-44.37
263.274	68.27
263.49	78.51
263.707	62.12
263.923	121.51
264.139	-3.41
264.355	76.46
264.571	78.51
264.787	133.8
265.004	141.99
265.22	-7.51
265.436	45.74
265.652	-5.46
265.868	60.07
266.084	-5.46
266.3	80.55
266.516	25.26
266.732	94.89
266.948	49.83
267.164	60.07
267.38	160.42
267.596	62.12
267.812	135.85
268.028	82.6
268.244	35.5
268.46	84.65
268.676	6.83
268.892	80.55
269.108	17.07
269.324	10.92
269.54	-15.7
269.756	78.51
269.972	43.69
270.188	101.03
270.403	-1.37
270.619	98.99
270.835	154.28
271.051	92.84
271.267	-3.41
271.483	-40.28
271.698	123.56
271.914	84.65
272.13	64.17
272.346	43.69
272.562	98.99
272.777	240.3
272.993	-38.23
273.209	-23.89
273.425	51.88
273.64	0.68
273.856	80.55
274.072	6.83
274.287	17.07
274.503	78.51
274.719	164.52
274.934	49.83
275.15	-21.85
275.366	66.22
275.581	-3.41
275.797	72.36
276.012	51.88
276.228	45.74
276.444	47.79
276.659	156.33
276.875	-34.13
277.09	47.79
277.306	29.35
277.521	72.36
277.737	25.26
277.952	160.42
278.168	72.36
278.383	78.51
278.599	125.61
278.814	152.23
279.03	103.08
279.245	117.42
279.461	33.45
279.676	35.5
279.892	43.69
280.107	37.55
280.322	45.74
280.538	176.81
280.753	10.92
280.969	105.13
281.184	86.7
281.399	215.72
281.615	39.59
281.83	182.95
282.045	-62.8
282.26	103.08
282.476	70.31
282.691	53.93
282.906	162.47
283.122	92.84
283.337	64.17
283.552	58.03
283.767	98.99
283.983	111.27
284.198	37.55
284.413	33.45
284.628	6.83
284.843	94.89
285.058	201.38
285.274	-44.37
285.489	35.5
285.704	33.45
285.919	82.6
286.134	53.93
286.349	119.46
286.564	51.88
286.779	170.66
286.995	70.31
287.21	58.03
287.425	125.61
287.64	25.26
287.855	72.36
288.07	-9.56
288.285	129.7
288.5	203.43
288.715	68.27
288.93	17.07
289.145	-50.52
289.36	174.76
289.575	-17.75
289.79	146.09
290.004	-56.66
290.219	158.38
290.434	10.92
290.649	94.89
290.864	62.12
291.079	41.64
291.294	103.08
291.509	78.51
291.724	17.07
291.938	60.07
292.153	66.22
292.368	80.55
292.583	49.83
292.798	131.75
293.012	123.56
293.227	158.38
293.442	119.46
293.657	166.57
293.871	135.85
294.086	101.03
294.301	172.71
294.516	191.14
294.73	43.69
294.945	23.21
295.16	27.31
295.374	164.52
295.589	131.75
295.804	-1.37
296.018	96.94
296.233	217.77
296.447	27.31
296.662	25.26
296.877	207.53
297.091	88.75
297.306	35.5
297.52	33.45
297.735	109.22
297.949	39.59
298.164	45.74
298.378	47.79
298.593	-13.65
298.807	-15.7
299.022	76.46
299.236	215.72
299.451	4.78
299.665	80.55
299.88	76.46
300.094	121.51
300.309	17.07
300.523	90.79
300.737	-9.56
300.952	152.23
301.166	86.7
301.381	90.79
301.595	-11.61
301.809	58.03
302.024	88.75
302.238	-17.75
302.452	129.7
302.667	21.16
302.881	176.81
303.095	111.27
303.309	66.22
303.524	-38.23
303.738	103.08
303.952	55.98
304.166	51.88
304.381	-56.66
304.595	146.09
304.809	-11.61
305.023	47.79
305.237	21.16
305.452	101.03
305.666	49.83
305.88	137.9
306.094	152.23
306.308	144.04
306.522	127.66
306.736	80.55
306.95	127.66
307.164	31.4
307.379	33.45
307.593	111.27
307.807	162.47
308.021	82.6
308.235	60.07
308.449	-68.95
308.663	35.5
308.877	250.53
309.091	72.36
309.305	92.84
309.519	-23.89
309.733	219.82
309.947	-87.38
310.161	29.35
310.374	119.46
310.588	217.77
310.802	-9.56
311.016	92.84
311.23	109.22
311.444	27.31
311.658	88.75
311.872	101.03
312.085	166.57
312.299	225.96
312.513	166.57
312.727	68.27
312.941	-3.41
313.154	98.99
313.368	80.55
313.582	105.13
313.796	74.41
314.009	43.69
314.223	131.75
314.437	123.56
314.651	154.28
314.864	-5.46
315.078	84.65
315.292	-101.72
315.505	-25.94
315.719	158.38
315.933	90.79
316.146	58.03
316.36	-19.8
316.573	137.9
316.787	98.99
317.001	41.64
317.214	-52.56
317.428	86.7
317.641	6.83
317.855	43.69
318.068	53.93
318.282	66.22
318.495	277.16
318.709	51.88
318.922	27.31
319.136	139.94
319.349	109.22
319.563	60.07
319.776	203.43
319.99	-54.61
320.203	141.99
320.417	96.94
320.63	125.61
320.843	260.77
321.057	127.66
321.27	96.94
321.483	182.95
321.697	191.14
321.91	125.61
322.124	27.31
322.337	154.28
322.55	23.21
322.763	2.73
322.977	47.79
323.19	-25.94
323.403	86.7
323.617	121.51
323.83	174.76
324.043	78.51
324.256	27.31
324.469	-19.8
324.683	125.61
324.896	84.65
325.109	12.97
325.322	-66.9
325.535	117.42
325.748	154.28
325.962	84.65
326.175	66.22
326.388	115.37
326.601	176.81
326.814	74.41
327.027	162.47
327.24	180.9
327.453	-68.95
327.666	148.14
327.879	111.27
328.092	103.08
328.305	88.75
328.518	66.22
328.731	2.73
328.944	78.51
329.157	88.75
329.37	64.17
329.583	187.05
329.796	144.04
330.009	-34.13
330.222	139.94
330.435	107.18
330.648	12.97
330.861	78.51
331.073	12.97
331.286	125.61
331.499	53.93
331.712	-9.56
331.925	98.99
332.138	47.79
332.35	84.65
332.563	0.68
332.776	174.76
332.989	23.21
333.202	51.88
333.414	12.97
333.627	80.55
333.84	82.6
334.053	29.35
334.265	35.5
334.478	58.03
334.691	70.31
334.903	158.38
335.116	78.51
335.329	-23.89
335.541	144.04
335.754	180.9
335.966	94.89
336.179	101.03
336.392	84.65
336.604	55.98
336.817	152.23
337.029	49.83
337.242	76.46
337.454	111.27
337.667	78.51
337.88	185
338.092	98.99
338.305	76.46
338.517	103.08
338.729	137.9
338.942	213.67
339.154	-3.41
339.367	45.74
339.579	45.74
339.792	27.31
340.004	70.31
340.217	53.93
340.429	119.46
340.641	80.55
340.854	31.4
341.066	35.5
341.278	115.37
341.491	109.22
341.703	82.6
341.915	-11.61
342.128	164.52
342.34	146.09
342.552	-62.8
342.764	-30.04
342.977	60.07
343.189	88.75
343.401	80.55
343.613	-58.71
343.826	90.79
344.038	-30.04
344.25	150.18
344.462	-7.51
344.674	111.27
344.886	84.65
345.099	101.03
345.311	51.88
345.523	41.64
345.735	-62.8
345.947	43.69
346.159	117.42
346.371	23.21
346.583	66.22
346.795	248.49
347.007	109.22
347.219	-23.89
347.431	6.83
347.643	172.71
347.855	47.79
348.067	193.19
348.279	4.78
348.491	6.83
348.703	107.18
348.915	2.73
349.127	29.35
349.339	53.93
349.551	55.98
349.763	60.07
349.975	60.07
350.187	131.75
350.399	80.55
350.61	131.75
350.822	43.69
351.034	117.42
351.246	88.75
351.458	94.89
351.669	94.89
351.881	86.7
352.093	141.99
352.305	35.5
352.517	84.65
352.728	193.19
352.94	64.17
353.152	141.99
353.363	76.46
353.575	131.75
353.787	154.28
353.999	66.22
354.21	254.63
354.422	31.4
354.633	-13.65
354.845	31.4
355.057	123.56
355.268	76.46
355.48	96.94
355.692	15.02
355.903	25.26
356.115	-48.47
356.326	-50.52
356.538	109.22
356.749	135.85
356.961	123.56
357.172	23.21
357.384	-7.51
357.595	209.58
357.807	64.17
358.018	64.17
358.23	29.35
358.441	240.3
358.653	60.07
358.864	96.94
359.075	-7.51
359.287	152.23
359.498	164.52
359.709	103.08
359.921	8.87
360.132	113.32
360.344	37.55
360.555	66.22
360.766	37.55
360.977	2.73
361.189	115.37
361.4	72.36
361.611	174.76
361.823	223.91
362.034	86.7
362.245	-68.95
362.456	15.02
362.667	133.8
362.879	35.5
363.09	15.02
363.301	43.69
363.512	-17.75
363.723	35.5
363.935	68.27
364.146	152.23
364.357	125.61
364.568	121.51
364.779	-46.42
364.99	160.42
365.201	-30.04
365.412	174.76
365.623	-9.56
365.834	37.55
366.045	29.35
366.256	187.05
366.467	129.7
366.678	68.27
366.889	62.12
367.1	51.88
367.311	96.94
367.522	29.35
367.733	53.93
367.944	92.84
368.155	94.89
368.366	185
368.577	123.56
368.788	141.99
368.999	33.45
369.209	94.89
369.42	244.39
369.631	287.4
369.842	168.62
370.053	68.27
370.264	185
370.474	17.07
370.685	76.46
370.896	31.4
371.107	205.48
371.317	127.66
371.528	-1.37
371.739	189.1
371.95	109.22
372.16	107.18
372.371	-1.37
372.582	25.26
372.792	127.66
373.003	115.37
373.214	80.55
373.424	121.51
373.635	68.27
373.846	172.71
374.056	27.31
374.267	105.13
374.477	119.46
374.688	58.03
374.898	53.93
375.109	84.65
375.319	94.89
375.53	131.75
375.74	154.28
375.951	33.45
376.161	139.94
376.372	135.85
376.582	58.03
376.793	82.6
377.003	21.16
377.214	60.07
377.424	123.56
377.635	66.22
377.845	53.93
378.055	213.67
378.266	4.78
378.476	47.79
378.686	113.32
378.897	135.85
379.107	170.66
379.317	154.28
379.528	45.74
379.738	137.9
379.948	-25.94
380.158	166.57
380.369	-15.7
380.579	197.29
380.789	15.02
380.999	92.84
381.21	119.46
381.42	215.72
381.63	15.02
381.84	125.61
382.05	127.66
382.261	109.22
382.471	123.56
382.681	43.69
382.891	199.34
383.101	154.28
383.311	10.92
383.521	35.5
383.731	166.57
383.941	199.34
384.151	131.75
384.361	31.4
384.571	74.41
384.781	96.94
384.991	260.77
385.201	166.57
385.411	107.18
385.621	84.65
385.831	82.6
386.041	139.94
386.251	62.12
386.461	168.62
386.671	53.93
386.881	74.41
387.091	21.16
387.301	103.08
387.511	2.73
387.72	94.89
387.93	117.42
388.14	64.17
388.35	103.08
388.56	185
388.769	148.14
388.979	37.55
389.189	33.45
389.399	58.03
389.609	92.84
389.818	197.29
390.028	60.07
390.238	105.13
390.447	-15.7
390.657	109.22
390.867	68.27
391.076	-79.19
391.286	115.37
391.496	103.08
391.705	41.64
391.915	125.61
392.125	182.95
392.334	60.07
392.544	178.86
392.753	129.7
392.963	33.45
393.172	55.98
393.382	66.22
393.591	248.49
393.801	23.21
394.01	189.1
394.22	109.22
394.429	68.27
394.639	68.27
394.848	152.23
395.058	139.94
395.267	162.47
395.477	105.13
395.686	94.89
395.895	203.43
396.105	193.19
396.314	107.18
396.524	27.31
396.733	185
396.942	170.66
397.152	37.55
397.361	215.72
397.57	111.27
397.78	156.33
397.989	96.94
398.198	228.01
398.407	135.85
398.617	92.84
398.826	109.22
399.035	133.8
399.244	41.64
399.453	90.79
399.663	98.99
399.872	150.18
400.081	-25.94
400.29	205.48
400.499	-36.18
400.708	197.29
400.917	43.69
401.127	72.36
401.336	29.35
401.545	250.53
401.754	82.6
401.963	185
402.172	2.73
402.381	-5.46
402.59	51.88
402.799	23.21
403.008	230.06
403.217	88.75
403.426	191.14
403.635	6.83
403.844	125.61
404.053	17.07
404.262	58.03
404.471	199.34
404.68	166.57
404.888	70.31
405.097	43.69
405.306	82.6
405.515	172.71
405.724	90.79
405.933	137.9
406.142	125.61
406.35	113.32
406.559	74.41
406.768	64.17
406.977	162.47
407.185	133.8
407.394	131.75
407.603	10.92
407.812	96.94
408.02	162.47
408.229	105.13
408.438	60.07
408.646	6.83
408.855	121.51
409.064	58.03
409.272	15.02
409.481	162.47
409.69	-21.85
409.898	-13.65
410.107	86.7
410.315	123.56
410.524	-9.56
410.733	62.12
410.941	92.84
411.15	113.32
411.358	64.17
411.567	148.14
411.775	53.93
411.984	137.9
412.192	154.28
412.401	17.07
412.609	258.73
412.818	156.33
413.026	109.22
413.234	70.31
413.443	101.03
413.651	19.11
413.86	74.41
414.068	213.67
414.276	205.48
414.485	53.93
414.693	166.57
414.901	189.1
415.11	137.9
415.318	51.88
415.526	60.07
415.734	205.48
415.943	92.84
416.151	182.95
416.359	105.13
416.567	125.61
416.776	119.46
416.984	119.46
417.192	135.85
417.4	113.32
417.608	29.35
417.817	49.83
418.025	154.28
418.233	185
418.441	15.02
418.649	-21.85
418.857	105.13
419.065	250.53
419.273	96.94
419.481	82.6
419.689	90.79
419.897	19.11
420.105	25.26
420.313	180.9
420.521	176.81
420.729	158.38
420.937	94.89
421.145	-40.28
421.353	174.76
421.561	287.4
421.769	156.33
421.977	49.83
422.185	164.52
422.393	39.59
422.601	180.9
422.809	213.67
423.017	146.09
423.224	72.36
423.432	119.46
423.64	96.94
423.848	189.1
424.056	72.36
424.263	203.43
424.471	101.03
424.679	166.57
424.887	37.55
425.094	215.72
425.302	88.75
425.51	148.14
425.718	125.61
425.925	135.85
426.133	64.17
426.341	193.19
426.548	111.27
426.756	189.1
426.964	125.61
427.171	127.66
427.379	129.7
427.586	176.81
427.794	189.1
428.001	205.48
428.209	146.09
428.417	287.4
428.624	217.77
428.832	62.12
429.039	96.94
429.247	154.28
429.454	189.1
429.662	238.25
429.869	213.67
430.076	193.19
430.284	174.76
430.491	283.3
430.699	303.78
430.906	221.86
431.114	168.62
431.321	150.18
431.528	189.1
431.736	180.9
431.943	209.58
432.15	242.34
432.358	217.77
432.565	342.69
432.772	115.37
432.979	234.15
433.187	176.81
433.394	248.49
433.601	223.91
433.808	219.82
434.016	316.07
434.223	342.69
434.43	250.53
434.637	365.22
434.844	326.31
435.052	281.25
435.259	344.74
435.466	309.93
435.673	318.12
435.88	449.19
436.087	514.72
436.294	387.75
436.501	412.32
436.708	320.17
436.915	363.17
437.122	457.38
437.329	428.71
437.537	451.24
437.743	371.36
437.95	658.08
438.157	496.29
438.364	496.29
438.571	473.76
438.778	604.83
438.985	639.65
439.192	617.12
439.399	615.07
439.606	629.41
439.813	672.42
440.02	764.57
440.227	869.02
440.433	733.86
440.64	715.42
440.847	625.31
441.054	768.67
441.261	965.28
441.467	776.86
441.674	727.71
441.881	924.32
442.088	830.11
442.294	922.27
442.501	961.18
442.708	1084.06
442.914	1018.52
443.121	1098.39
443.328	1127.07
443.534	1254.04
443.741	1157.78
443.948	1186.46
444.154	1260.18
444.361	1495.7
444.568	1309.33
444.774	1315.48
444.981	1417.88
445.187	1577.62
445.394	1536.66
445.6	1505.94
445.807	1655.44
446.013	1747.6
446.22	1700.5
446.426	1882.77
446.633	1985.16
446.839	2138.76
447.046	1880.72
447.252	2138.76
447.459	2103.95
447.665	2239.11
447.871	2339.46
448.078	2466.44
448.284	2448.01
448.491	2742.91
448.697	2724.48
448.903	2775.68
449.11	2800.26
449.316	2855.55
449.522	3166.84
449.728	3195.51
449.935	3410.55
450.141	3215.99
450.347	3564.15
450.553	3484.28
450.76	3746.42
450.966	3883.63
451.172	3938.93
451.378	4233.83
451.584	4291.18
451.791	4627.04
451.997	4627.04
452.203	4727.39
452.409	4971.1
452.615	5114.46
452.821	5032.54
453.027	5106.27
453.233	5544.53
453.44	5597.78
453.646	5872.21
453.852	6042.19
454.058	6398.54
454.264	6578.76
454.47	7025.22
454.676	7033.41
454.882	7508.54
455.088	7342.65
455.294	7684.66
455.5	8155.69
455.705	8436.27
455.911	8602.15
456.117	8614.44
456.323	9396.76
456.529	9255.45
456.735	10193.42
456.941	10363.4
457.147	10584.59
457.352	10881.54
457.558	11188.74
457.764	11901.43
457.97	12284.4
458.176	12861.93
458.381	13474.27
458.587	13564.38
458.793	14272.98
458.999	14143.95
459.204	16234.93
459.41	16544.17
459.616	16382.38
459.821	17396.13
460.027	18102.68
460.233	18698.64
460.438	19091.85
460.644	20078.97
460.85	20287.86
461.055	21295.46
461.261	21948.76
461.466	21756.25
461.672	22073.69
461.878	24629.55
462.083	24316.22
462.289	25229.61
462.494	25817.38
462.7	25907.49
462.905	26603.8
463.111	28733.68
463.316	29890.79
463.522	30404.83
463.727	31621.32
463.932	32456.89
464.138	33595.56
464.343	35354.77
464.549	35274.9
464.754	37496.94
464.959	38361.19
465.165	39118.93
465.37	39333.97
465.575	39192.66
465.781	41234.49
465.986	43094.04
466.191	42289.19
466.397	42373.16
466.602	41844.78
466.807	43950.09
467.012	44603.39
467.218	45576.18
467.423	45592.56
467.628	46798.82
467.833	49293.24
468.038	48115.66
468.244	47454.17
468.449	49627.06
468.654	48439.24
468.859	48791.49
469.064	49037.25
469.269	47796.18
469.474	47853.52
469.679	49792.95
469.885	48160.72
470.09	48744.39
470.295	48650.18
470.5	47910.86
470.705	48185.29
470.91	46604.26
471.115	46481.38
471.32	47345.62
471.525	46637.03
471.73	45490.16
471.935	45610.99
472.139	43892.75
472.344	43698.19
472.549	43565.07
472.754	42631.2
472.959	42039.34
473.164	40695.87
473.369	39983.18
473.574	40837.18
473.778	40106.05
473.983	39385.17
474.188	38457.44
474.393	37169.27
474.598	37048.44
474.802	36401.28
475.007	35825.8
475.212	35313.81
475.417	33941.67
475.621	33648.81
475.826	33171.63
476.031	32245.95
476.235	31813.83
476.44	31971.52
476.645	31295.69
476.849	30892.24
477.054	30370.01
477.259	29503.72
477.463	29645.03
477.668	28745.97
477.872	28436.73
478.077	28012.8
478.282	26945.81
478.486	26777.87
478.691	26968.34
478.895	26341.66
479.1	26284.31
479.304	25979.17
479.509	25375.02
479.713	25489.7
479.918	25215.27
480.122	24549.68
480.326	24652.08
480.531	24521.01
480.735	24314.17
480.94	23853.37
481.144	24578.36
481.348	23333.19
481.553	23439.68
481.757	22901.07
481.961	23103.82
482.166	23355.72
482.37	22886.73
482.574	22348.12
482.778	22393.17
482.983	22462.8
483.187	21971.29
483.391	22458.71
483.595	21522.79
483.8	21465.44
484.004	21469.54
484.208	21285.22
484.412	20982.12
484.616	20943.21
484.821	20738.41
485.025	19904.89
485.229	20351.35
485.433	19904.89
485.637	19620.22
485.841	19132.81
486.045	19020.17
486.249	18917.77
486.453	18518.42
486.657	18153.88
486.861	18203.03
487.065	17605.02
487.269	17605.02
487.473	16828.84
487.677	17394.08
487.881	17185.19
488.085	16470.45
488.289	16370.1
488.493	15790.52
488.697	15860.15
488.901	15548.86
489.105	14909.9
489.309	15043.01
489.512	14858.7
489.716	14383.57
489.92	14096.85
490.124	13787.61
490.328	13853.14
490.531	13464.03
490.735	13464.03
490.939	12941.8
491.143	12857.83
491.346	12640.75
491.55	12460.52
491.754	12435.95
491.958	12171.76
492.161	11745.78
492.365	11586.04
492.569	11227.65
492.772	11248.13
492.976	11135.49
493.18	11086.34
493.383	11108.87
493.587	10676.74
493.79	10818.05
493.994	10455.56
494.197	10230.29
494.401	10443.28
494.605	10232.33
494.808	10185.23
495.012	10168.85
495.215	9861.65
495.419	10009.11
495.622	9710.1
495.825	10007.06
496.029	9576.98
496.232	9869.84
496.436	9415.19
496.639	9878.04
496.843	9482.78
497.046	9773.59
497.249	9718.29
497.453	9648.66
497.656	9564.7
497.859	9458.2
498.063	9640.47
498.266	9783.83
498.469	9486.87
498.673	9609.75
498.876	9943.57
499.079	9716.25
499.282	9566.74
499.485	10111.5
499.689	9804.31
499.892	10050.07
500.095	9957.91
500.298	10390.03
500.501	9861.65
500.705	10277.39
500.908	10291.73
501.111	10357.26
501.314	10517
501.517	10588.68
501.72	10467.85
501.923	10748.42
502.126	10680.84
502.329	11104.77
502.532	11143.68
502.735	11207.17
502.938	11457.02
503.141	11422.2
503.344	11555.32
503.547	11833.85
503.75	11842.04
503.953	12022.26
504.156	12251.63
504.359	12501.48
504.562	12315.12
504.765	12835.3
504.968	12806.63
505.17	13195.75
505.373	13287.9
505.576	13562.33
505.779	13801.94
505.982	13832.66
506.185	14182.87
506.387	14467.53
506.59	14582.22
506.793	14858.7
506.996	14660.04
507.198	15628.73
507.401	15608.25
507.604	15921.59
507.807	16245.17
508.009	16386.48
508.212	16748.97
508.415	17371.55
508.617	17414.56
508.82	17662.37
509.022	18063.77
509.225	18569.62
509.428	18803.08
509.63	19407.23
509.833	19366.28
510.035	20244.85
510.238	20535.67
510.44	20877.68
510.643	21786.97
510.845	22055.26
511.048	22079.83
511.25	22845.77
511.453	23056.71
511.655	24049.98
511.858	24555.83
512.06	24832.3
512.262	25608.48
512.465	25608.48
512.667	26282.27
512.87	27183.37
513.072	27808
513.274	28297.47
513.477	28846.32
513.679	29194.48
513.881	30230.75
514.084	30882
514.286	31113.42
514.488	31834.31
514.69	33296.56
514.893	33435.82
515.095	34185.38
515.297	35145.87
515.499	35455.12
515.701	36354.18
515.904	36774.01
516.106	37781.61
516.308	38441.06
516.51	39229.52
516.712	39938.12
516.914	40523.84
517.116	41535.54
517.318	42102.82
517.52	42827.81
517.722	43223.06
517.925	44376.07
518.127	45031.42
518.329	46069.74
518.531	46350.31
518.733	47165.4
518.935	47808.47
519.136	48553.93
519.338	49514.42
519.54	50081.71
519.742	50773.92
519.944	51306.4
520.146	52189.07
520.348	53184.38
520.55	53464.95
520.752	54087.54
520.954	54880.1
521.155	54955.88
521.357	56368.97
521.559	56522.57
521.761	57450.3
521.963	57896.76
522.164	58091.32
522.366	57935.67
522.568	58783.53
522.77	59137.83
522.971	59764.51
523.173	59721.5
523.375	60426
523.576	60114.71
523.778	60542.73
523.98	61120.26
524.181	61529.86
524.383	61232.9
524.584	61714.17
524.786	61800.19
524.988	61368.07
525.189	62144.25
525.391	62013.18
525.592	62211.83
525.794	62539.5
525.995	62031.61
526.197	61951.74
526.398	62015.22
526.6	61970.17
526.801	61970.17
527.003	61775.61
527.204	61232.9
527.406	61800.19
527.607	61153.03
527.808	61415.17
528.01	59928.34
528.211	59877.14
528.412	60446.48
528.614	60059.41
528.815	59485.98
529.016	59639.58
529.218	58621.74
529.419	58369.84
529.62	57552.7
529.822	56725.32
530.023	56467.28
530.224	56330.06
530.425	55598.94
530.626	54943.59
530.828	54058.87
531.029	54638.44
531.23	53675.9
531.431	52440.97
531.632	52172.69
531.833	52459.4
532.035	51212.19
532.236	50548.65
532.437	50321.32
532.638	49233.85
532.839	49229.76
533.04	48682.95
533.241	47261.66
533.442	47609.81
533.643	46972.89
533.844	46018.54
534.045	45846.51
534.246	44347.4
534.447	44402.69
534.648	43751.44
534.849	42911.77
535.05	42162.22
535.251	41875.5
535.451	41041.98
535.652	40958.01
535.853	40403.01
536.054	39815.24
536.255	39356.5
536.456	38600.8
536.657	38781.02
536.857	37265.52
537.058	37146.74
537.259	37048.44
537.46	36393.09
537.66	35602.57
537.861	35352.72
538.062	34924.69
538.263	34459.8
538.463	33841.32
538.664	33640.62
538.865	32893.11
539.065	32913.59
539.266	32217.28
539.466	32231.61
539.667	31080.66
539.868	31357.13
540.068	30640.34
540.269	30390.49
540.469	30671.06
540.67	30021.86
540.87	29524.2
541.071	28670.2
541.271	28913.91
541.472	28528.89
541.672	28076.29
541.873	28213.5
542.073	26910.99
542.274	27597.06
542.474	27103.5
542.675	26919.18
542.875	26382.62
543.075	25956.64
543.276	25651.49
543.476	25430.31
543.676	25241.9
543.877	24899.89
544.077	24652.08
544.277	24142.14
544.478	23992.64
544.678	24203.58
544.878	23447.88
545.078	23195.98
545.279	22841.68
545.479	22591.83
545.679	22673.74
545.879	22051.16
546.079	22247.77
546.28	21819.74
546.48	21367.14
546.68	21369.19
546.88	21102.95
547.08	20758.89
547.28	20492.66
547.48	20109.69
547.68	20191.61
547.88	19865.98
548.081	19474.82
548.281	19259.78
548.481	18919.82
548.681	18680.21
548.881	18538.9
549.081	18176.41
549.28	18053.53
549.48	18112.92
549.68	17568.16
549.88	17680.8
550.08	16759.21
550.28	16839.08
550.48	16564.65
550.68	16249.27
550.88	15991.22
551.08	16042.42
551.279	15894.97
551.479	15546.81
551.679	15413.7
551.879	14907.85
552.079	14967.24
552.278	14592.46
552.478	14287.31
552.678	14139.86
552.878	14107.09
553.077	13709.79
553.277	13537.76
553.477	13400.54
553.676	13017.57
553.876	12949.99
554.076	12655.08
554.275	12403.18
554.475	12151.28
554.674	12079.6
554.874	12124.66
555.074	11698.68
555.273	11676.15
555.473	11418.11
555.672	11258.37
555.872	11186.69
556.071	11024.9
556.271	11018.75
556.47	10813.96
556.67	10435.08
556.869	10363.4
557.068	9994.77
557.268	9804.31
557.467	9734.68
557.667	9619.99
557.866	9476.63
558.065	9232.93
558.265	9099.81
558.464	8964.64
558.663	8778.28
558.863	8673.83
559.062	8575.53
559.261	8231.47
559.461	8286.76
559.66	8065.58
559.859	7893.55
560.058	7850.55
560.258	7844.4
560.457	7555.64
560.656	7727.67
560.855	7230.01
561.054	7344.7
561.253	7283.26
561.453	7174.72
561.652	6984.26
561.851	6863.43
562.05	6826.56
562.249	6464.07
562.448	6666.82
562.647	6330.95
562.846	6314.57
563.045	6246.99
563.244	6099.53
563.443	6199.88
563.642	5890.64
563.841	6013.52
564.04	5778
564.239	5831.25
564.438	5479
564.637	5597.78
564.836	5661.27
565.035	5302.87
565.234	5366.36
565.432	5284.44
565.631	5309.02
565.83	5294.68
566.029	5034.59
566.228	5005.92
566.427	4911.71
566.625	4825.7
566.824	4799.07
567.023	4743.78
567.222	4506.21
567.42	4553.32
567.619	4604.52
567.818	4481.64
568.016	4553.32
568.215	4354.66
568.414	4391.53
568.612	4301.42
568.811	3981.93
569.01	4051.56
569.208	3975.79
569.407	4192.87
569.605	3965.55
569.804	3873.39
570.002	3885.68
570.201	3635.83
570.4	3684.98
570.598	3594.87
570.797	3549.81
570.995	3590.77
571.193	3490.42
571.392	3574.39
571.59	3377.78
571.789	3441.27
571.987	3455.61
572.186	3297.91
572.384	3183.23
572.582	3097.21
572.781	3199.61
572.979	2949.76
573.177	3074.68
573.376	2894.46
573.574	2980.48
573.772	2839.17
573.971	2925.18
574.169	2693.76
574.367	2740.86
574.565	2747.01
574.763	2675.33
574.962	2722.43
575.16	2566.79
575.358	2550.4
575.556	2462.34
575.754	2523.78
575.952	2343.56
576.151	2331.27
576.349	2390.66
576.547	2087.56
576.745	2310.79
576.943	2316.94
577.141	2192.01
577.339	2126.47
577.537	2290.31
577.735	2130.57
577.933	2161.29
578.131	1921.68
578.329	2230.92
578.527	2028.17
578.725	2062.99
578.923	1833.61
579.121	2017.93
579.319	1796.75
579.516	1895.05
579.714	2114.19
579.912	1784.46
580.11	1585.81
580.308	1727.12
580.506	1792.66
580.704	1596.05
580.901	1663.63
581.099	1753.74
581.297	1581.71
581.495	1538.71
581.692	1505.94
581.89	1616.53
582.088	1565.33
582.285	1442.45
582.483	1452.69
582.681	1467.03
582.878	1442.45
583.076	1413.78
583.274	1362.58
583.471	1567.38
583.669	1428.12
583.866	1288.86
584.064	1378.97
584.262	1245.85
584.459	1266.33
584.657	1200.79
584.854	1338.01
585.052	1297.05
585.249	1348.25
585.447	1333.91
585.644	1118.87
585.841	1182.36
586.039	1274.52
586.236	1202.84
586.434	1063.58
586.631	1077.91
586.828	1084.06
587.026	1129.11
587.223	973.47
587.42	969.37
587.618	1114.78
587.815	1059.48
588.012	901.79
588.21	983.71
588.407	1122.97
588.604	1061.53
588.801	883.36
588.999	942.75
589.196	987.8
589.393	989.85
589.59	932.51
589.787	950.94
589.984	942.75
590.182	848.54
590.379	903.84
590.576	942.75
590.773	918.17
590.97	940.7
591.167	897.69
591.364	967.32
591.561	854.69
591.758	1020.57
591.955	955.04
592.152	916.12
592.349	909.98
592.546	795.29
592.743	832.16
592.94	832.16
593.137	877.21
593.334	1034.91
593.531	828.06
593.727	848.54
593.924	848.54
594.121	912.03
594.318	850.59
594.515	971.42
594.712	983.71
594.908	1004.19
595.105	826.01
595.302	948.89
595.499	873.12
595.696	1028.76
595.892	971.42
596.089	1131.16
596.286	1034.91
596.482	1053.34
596.679	1036.95
596.876	1108.63
597.072	1082.01
597.269	1149.59
597.466	1182.36
597.662	1153.69
597.859	1157.78
598.055	1237.66
598.252	1372.82
598.448	1415.83
598.645	1409.69
598.841	1374.87
599.038	1512.08
599.234	1647.25
599.431	1718.93
599.627	1671.83
599.824	1766.03
600.02	1673.87
600.217	1839.76
600.413	1958.54
600.609	1964.68
600.806	2235.02
601.002	2101.9
601.198	2028.17
601.395	2192.01
601.591	2359.94
601.787	2400.9
601.984	2579.08
602.18	2597.51
602.376	2671.23
602.572	2740.86
602.769	3015.29
602.965	2814.59
603.161	3099.26
603.357	3256.95
603.553	3467.89
603.75	3322.49
603.946	3539.57
604.142	3742.32
604.338	4000.37
604.534	3871.34
604.73	4024.94
604.926	4156.01
605.122	4293.23
605.318	4414.06
605.514	4625
605.71	4747.87
605.906	4809.31
606.102	5032.54
606.298	5216.86
606.494	5472.86
606.69	5554.77
606.886	5591.64
607.082	5804.63
607.278	5923.41
607.474	6128.21
607.67	6271.56
607.866	6298.19
608.062	6793.8
608.257	6959.68
608.453	6906.43
608.649	7322.17
608.845	7270.97
609.041	7531.06
609.236	7854.64
609.432	7944.75
609.628	8262.19
609.824	8526.38
610.019	8761.89
610.215	8981.03
610.411	9224.73
610.606	9462.3
610.802	9552.41
610.998	9880.08
611.193	9990.67
611.389	10416.65
611.584	10816.01
611.78	10703.37
611.976	11209.22
612.171	11514.36
612.367	11983.35
612.562	12194.29
612.758	12278.26
612.953	12716.52
613.149	12993
613.344	13347.3
613.539	13990.36
613.735	14135.76
613.93	14733.77
614.126	14911.94
614.321	15374.78
614.517	15970.74
614.712	15983.03
614.907	16626.09
615.103	17011.11
615.298	17336.74
615.493	17656.22
615.688	17947.03
615.884	18620.81
616.079	18846.09
616.274	19716.48
616.47	19888.51
616.665	20580.72
616.86	21291.37
617.055	21694.82
617.25	22184.28
617.445	22860.11
617.641	23378.25
617.836	23992.64
618.031	24195.39
618.226	25174.31
618.421	25639.2
618.616	26100
618.811	26706.2
619.006	27527.43
619.201	27611.4
619.396	28770.55
619.591	29227.24
619.786	30099.68
619.981	30214.37
620.176	31396.04
620.371	31563.98
620.566	32389.31
620.761	33132.72
620.956	34076.83
621.151	34138.27
621.346	35315.86
621.541	34914.45
621.735	36663.42
621.93	36687.99
622.125	37693.55
622.32	38285.41
622.515	39231.57
622.709	39503.95
622.904	40845.37
623.099	41173.05
623.294	42063.91
623.488	42188.84
623.683	43464.72
623.878	43556.88
624.072	44851.2
624.267	45381.62
624.462	46002.16
624.656	46501.86
624.851	47316.95
625.046	47448.02
625.24	48412.62
625.435	48992.19
625.629	49887.15
625.824	50302.89
626.018	50937.76
626.213	50655.14
626.407	52320.14
626.602	52215.69
626.796	53411.71
626.991	53895.03
627.185	54445.93
627.38	54173.55
627.574	54404.97
627.768	54878.05
627.963	55029.6
628.157	54759.27
628.352	55390.05
628.546	54982.5
628.74	55428.96
628.935	55322.46
629.129	55680.86
629.323	55142.24
629.517	55086.95
629.712	55398.24
629.906	54146.93
630.1	53530.49
630.294	53673.85
630.489	52875.14
630.683	52608.9
630.877	51216.29
631.071	50438.06
631.265	50288.56
631.459	48908.22
631.653	48193.48
631.848	47095.77
632.042	45885.42
632.236	44980.22
632.43	43421.72
632.624	42768.41
632.818	41214.01
633.012	40149.06
633.206	39090.26
633.4	37892.2
633.594	36069.51
633.788	35260.56
633.982	34488.48
634.176	33271.98
634.369	31641.8
634.563	30626.01
634.757	29327.6
634.951	28571.89
635.145	27373.83
635.339	26390.81
635.533	25262.38
635.726	24666.42
635.92	22987.08
636.114	22366.55
636.308	21373.28
636.501	20476.27
636.695	19755.39
636.889	18854.28
637.083	18000.28
637.276	17394.08
637.47	16638.38
637.664	15872.44
637.857	15393.22
638.051	14719.43
638.244	14229.97
638.438	13638.11
638.632	13146.59
638.825	12444.14
639.019	12122.61
639.212	11430.4
639.406	11317.76
639.599	10830.34
639.793	10496.52
639.986	9847.32
640.18	9630.23
640.373	9296.41
640.567	8780.32
640.76	8518.18
640.954	8235.56
641.147	7936.56
641.34	7473.72
641.534	7352.89
641.727	7031.36
641.92	6791.75
642.114	6554.18
642.307	6171.21
642.5	6203.98
642.694	5732.95
642.887	5673.56
643.08	5552.73
643.273	5110.36
643.467	4913.76
643.66	4727.39
643.853	4541.03
644.046	4463.21
644.239	4270.7
644.432	3963.5
644.626	3943.02
644.819	3764.85
645.012	3598.96
645.205	3474.04
645.398	3482.23
645.591	3279.48
645.784	3189.37
645.977	3029.63
646.17	2955.9
646.363	2722.43
646.556	2660.99
646.749	2656.9
646.942	2589.32
647.135	2472.58
647.328	2235.02
647.521	2300.55
647.714	2099.85
647.907	2122.38
648.099	1987.21
648.292	2050.7
648.485	1899.15
648.678	1741.46
648.871	1655.44
649.064	1690.26
649.256	1501.84
649.449	1518.23
649.642	1417.88
649.835	1362.58
650.027	1364.63
650.22	1432.21
650.413	1305.24
650.605	1249.94
650.798	1116.83
650.991	1223.32
651.183	1100.44
651.376	1051.29
651.568	1069.72
651.761	1032.86
651.954	1008.28
652.146	998.04
652.339	1043.1
652.531	948.89
652.724	967.32
652.916	701.09
653.109	729.76
653.301	862.88
653.494	883.36
653.686	766.62
653.879	811.68
654.071	791.2
654.263	678.56
654.456	580.26
654.648	662.18
654.84	729.76
655.033	578.21
655.225	750.24
655.417	529.06
655.61	631.46
655.802	666.27
655.994	594.59
656.186	479.91
656.379	602.79
656.571	461.48
656.763	543.39
656.955	471.72
657.148	469.67
657.34	563.87
657.532	455.33
657.724	473.76
657.916	430.76
658.108	496.29
658.3	479.91
658.492	414.37
658.684	389.8
658.876	461.48
659.068	334.5
659.26	352.93
659.452	342.69
659.644	326.31
659.836	500.39
660.028	346.79
660.22	271.01
660.412	332.45
660.604	361.13
660.796	293.54
660.988	447.14
661.18	301.73
661.372	375.46
661.563	287.4
661.755	346.79
661.947	242.34
662.139	219.82
662.331	365.22
662.522	299.69
662.714	158.38
662.906	225.96
663.097	178.86
663.289	199.34
663.481	178.86
663.673	328.36
663.864	338.6
664.056	336.55
664.247	248.49
664.439	336.55
664.631	244.39
664.822	238.25
665.014	230.06
665.205	230.06
665.397	293.54
665.588	230.06
665.78	252.58
665.971	279.21
666.163	187.05
666.354	187.05
666.546	185
666.737	182.95
666.929	193.19
667.12	211.62
667.311	154.28
667.503	215.72
667.694	260.77
667.885	232.1
668.077	287.4
668.268	146.09
668.459	217.77
668.651	209.58
668.842	246.44
669.033	125.61
669.224	168.62
669.416	338.6
669.607	205.48
669.798	152.23
669.989	340.65
670.18	289.45
670.371	223.91
670.563	80.55
670.754	301.73
670.945	299.69
671.136	240.3
671.327	193.19
671.518	228.01
671.709	369.32
671.9	258.73
672.091	301.73
672.282	225.96
672.473	256.68
672.664	60.07
672.855	254.63
673.046	271.01
673.237	309.93
673.428	139.94
673.619	309.93
673.809	246.44
674	326.31
674.191	279.21
674.382	205.48
674.573	230.06
674.764	275.11
674.954	230.06
675.145	170.66
675.336	125.61
675.527	240.3
675.717	193.19
675.908	154.28
676.099	199.34
676.289	311.97
676.48	141.99
676.671	107.18
676.861	205.48
677.052	268.97
677.243	219.82
677.433	174.76
677.624	277.16
677.814	215.72
678.005	217.77
678.195	385.7
678.386	162.47
678.576	211.62
678.767	182.95
678.957	225.96
679.148	260.77
679.338	373.41
679.529	301.73
679.719	266.92
679.909	252.58
680.1	305.83
680.29	258.73
680.481	221.86
680.671	264.87
680.861	369.32
681.052	277.16
681.242	205.48
681.432	348.84
681.622	320.17
681.813	287.4
682.003	281.25
682.193	195.24
682.383	225.96
682.573	338.6
682.764	266.92
682.954	389.8
683.144	320.17
683.334	225.96
683.524	342.69
683.714	297.64
683.904	367.27
684.094	295.59
684.284	197.29
684.474	443.04
684.664	373.41
684.854	309.93
685.044	320.17
685.234	316.07
685.424	252.58
685.614	230.06
685.804	498.34
685.994	344.74
686.184	277.16
686.374	359.08
686.564	375.46
686.753	287.4
686.943	238.25
687.133	342.69
687.323	246.44
687.513	338.6
687.702	285.35
687.892	279.21
688.082	307.88
688.272	369.32
688.461	354.98
688.651	414.37
688.841	338.6
689.03	332.45
689.22	271.01
689.41	338.6
689.599	277.16
689.789	262.82
689.979	414.37
690.168	283.3
690.358	387.75
690.547	246.44
690.737	338.6
690.926	320.17
691.116	322.21
691.305	326.31
691.495	350.89
691.684	193.19
691.874	281.25
692.063	252.58
692.252	246.44
692.442	330.41
692.631	322.21
692.82	330.41
693.01	295.59
693.199	266.92
693.388	295.59
693.578	277.16
693.767	301.73
693.956	395.94
694.146	252.58
694.335	371.36
694.524	266.92
694.713	283.3
694.902	318.12
695.092	256.68
695.281	305.83
695.47	293.54
695.659	230.06
695.848	266.92
696.037	180.9
696.226	342.69
696.415	193.19
696.604	410.28
696.793	316.07
696.982	172.71
697.171	363.17
697.36	174.76
697.549	277.16
697.738	154.28
697.927	234.15
698.116	201.38
698.305	246.44
698.494	268.97
698.683	234.15
698.872	436.9
699.061	295.59
699.25	266.92
699.438	209.58
699.627	240.3
699.816	375.46
700.005	121.51
700.193	264.87
700.382	328.36
700.571	354.98
700.76	262.82
700.948	309.93
701.137	354.98
701.326	391.84
701.514	178.86
701.703	309.93
701.892	238.25
702.08	404.13
702.269	271.01
702.457	160.42
702.646	361.13
702.834	201.38
703.023	318.12
703.212	314.02
703.4	258.73
703.589	260.77
703.777	250.53
703.965	219.82
704.154	240.3
704.342	158.38
704.531	281.25
704.719	195.24
704.907	279.21
705.096	248.49
705.284	182.95
705.472	217.77
705.661	348.84
705.849	326.31
706.037	318.12
706.226	295.59
706.414	279.21
706.602	193.19
706.79	252.58
706.979	246.44
707.167	193.19
707.355	137.9
707.543	262.82
707.731	273.06
707.919	297.64
708.107	328.36
708.296	293.54
708.484	223.91
708.672	242.34
708.86	367.27
709.048	320.17
709.236	240.3
709.424	293.54
709.612	240.3
709.8	148.14
709.988	228.01
710.176	412.32
710.364	316.07
710.551	252.58
710.739	299.69
710.927	277.16
711.115	248.49
711.303	350.89
711.491	361.13
711.679	205.48
711.866	328.36
712.054	266.92
712.242	311.97
712.43	330.41
712.617	254.63
712.805	291.49
712.993	271.01
713.181	150.18
713.368	348.84
713.556	195.24
713.744	135.85
713.931	424.61
714.119	254.63
714.306	211.62
714.494	215.72
714.682	289.45
714.869	254.63
715.057	178.86
715.244	182.95
715.432	185
715.619	189.1
715.807	285.35
715.994	203.43
716.182	324.26
716.369	328.36
716.556	344.74
716.744	174.76
716.931	193.19
717.119	262.82
717.306	240.3
717.493	287.4
717.681	275.11
717.868	219.82
718.055	307.88
718.242	275.11
718.43	295.59
718.617	299.69
718.804	170.66
718.991	322.21
719.179	334.5
719.366	305.83
719.553	352.93
719.74	293.54
719.927	240.3
720.114	305.83
720.301	199.34
720.488	246.44
720.676	197.29
720.863	393.89
721.05	447.14
721.237	324.26
721.424	328.36
721.611	311.97
721.798	277.16
721.985	283.3
722.172	219.82
722.358	354.98
722.545	373.41
722.732	301.73
722.919	389.8
723.106	320.17
723.293	281.25
723.48	256.68
723.667	283.3
723.853	357.03
724.04	309.93
724.227	305.83
724.414	219.82
724.6	307.88
724.787	461.48
724.974	441
725.161	303.78
725.347	232.1
725.534	354.98
725.72	414.37
725.907	334.5
726.094	338.6
726.28	285.35
726.467	260.77
726.653	285.35
726.84	430.76
727.027	418.47
727.213	379.56
727.4	367.27
727.586	309.93
727.773	307.88
727.959	420.52
728.145	277.16
728.332	303.78
728.518	301.73
728.705	463.52
728.891	268.97
729.077	260.77
729.264	271.01
729.45	299.69
729.636	516.77
729.823	262.82
730.009	350.89
730.195	381.6
730.382	352.93
730.568	232.1
730.754	340.65
730.94	293.54
731.126	311.97
731.313	406.18
731.499	336.55
731.685	314.02
731.871	391.84
732.057	346.79
732.243	348.84
732.429	402.08
732.615	471.72
732.801	410.28
732.987	299.69
733.173	309.93
733.359	254.63
733.545	383.65
733.731	342.69
733.917	469.67
734.103	428.71
734.289	404.13
734.475	309.93
734.661	484
734.847	367.27
735.033	354.98
735.219	354.98
735.404	326.31
735.59	346.79
735.776	328.36
735.962	420.52
736.148	375.46
736.333	461.48
736.519	309.93
736.705	322.21
736.89	324.26
737.076	342.69
737.262	266.92
737.447	297.64
737.633	359.08
737.819	397.99
738.004	397.99
738.19	244.39
738.375	412.32
738.561	395.94
738.747	350.89
738.932	256.68
739.118	567.97
739.303	359.08
739.489	395.94
739.674	338.6
739.859	289.45
740.045	410.28
740.23	397.99
740.416	219.82
740.601	301.73
740.786	371.36
740.972	260.77
741.157	311.97
741.342	320.17
741.528	268.97
741.713	369.32
741.898	291.49
742.084	369.32
742.269	420.52
742.454	381.6
742.639	387.75
742.824	330.41
743.01	441
743.195	522.91
743.38	346.79
743.565	318.12
743.75	334.5
743.935	324.26
744.12	377.51
744.305	211.62
744.49	301.73
744.675	307.88
744.86	295.59
745.045	309.93
745.23	371.36
745.415	324.26
745.6	404.13
745.785	287.4
745.97	412.32
746.155	385.7
746.34	434.85
746.525	289.45
746.71	455.33
746.895	268.97
747.079	180.9
747.264	352.93
747.449	408.23
747.634	346.79
747.819	326.31
748.003	244.39
748.188	291.49
748.373	297.64
748.557	363.17
748.742	287.4
748.927	318.12
749.111	228.01
749.296	301.73
749.481	369.32
749.665	283.3
749.85	189.1
750.034	400.04
750.219	361.13
750.404	246.44
750.588	219.82
750.773	213.67
750.957	238.25
751.141	246.44
751.326	266.92
751.51	166.57
751.695	166.57
751.879	221.86
752.064	383.65
752.248	258.73
752.432	285.35
752.617	242.34
752.801	334.5
752.985	185
753.17	305.83
753.354	256.68
753.538	299.69
753.722	199.34
753.907	205.48
754.091	158.38
754.275	303.78
754.459	230.06
754.643	221.86
754.828	275.11
755.012	322.21
755.196	133.8
755.38	297.64
755.564	211.62
755.748	193.19
755.932	379.56
756.116	275.11
756.3	324.26
756.484	137.9
756.668	277.16
756.852	152.23
757.036	191.14
757.22	223.91
757.404	187.05
757.588	180.9
757.772	258.73
757.956	121.51
758.14	271.01
758.323	152.23
758.507	252.58
758.691	158.38
758.875	221.86
759.059	332.45
759.242	168.62
759.426	277.16
759.61	285.35
759.794	232.1
759.977	244.39
760.161	357.03
760.345	303.78
760.528	266.92
760.712	240.3
760.895	211.62
761.079	141.99
761.263	74.41
761.446	84.65
761.63	205.48
761.813	303.78
761.997	135.85
762.18	139.94
762.364	262.82
762.547	156.33
762.731	109.22
762.914	158.38
763.098	131.75
763.281	141.99
763.464	129.7
763.648	170.66
763.831	158.38
764.015	72.36
764.198	199.34
764.381	205.48
764.564	178.86
764.748	205.48
764.931	211.62
765.114	144.04
765.297	213.67
765.481	74.41
765.664	84.65
765.847	113.32
766.03	248.49
766.213	152.23
766.397	199.34
766.58	86.7
766.763	203.43
766.946	107.18
767.129	6.83
767.312	205.48
767.495	164.52
767.678	135.85
767.861	205.48
768.044	121.51
768.227	133.8
768.41	158.38
768.593	199.34
768.776	180.9
768.959	127.66
769.142	213.67
769.324	150.18
769.507	66.22
769.69	107.18
769.873	162.47
770.056	311.97
770.239	174.76
770.421	193.19
770.604	234.15
770.787	82.6
770.97	221.86
771.152	64.17
771.335	187.05
771.518	27.31
771.7	187.05
771.883	193.19
772.066	74.41
772.248	172.71
772.431	178.86
772.613	242.34
772.796	107.18
772.978	170.66
773.161	197.29
773.343	88.75
773.526	68.27
773.708	-32.08
773.891	6.83
774.073	139.94
774.256	131.75
774.438	189.1
774.621	74.41
774.803	146.09
774.985	82.6
775.168	96.94
775.35	117.42
775.532	178.86
775.715	27.31
775.897	246.44
776.079	80.55
776.261	191.14
776.444	35.5
776.626	92.84
776.808	64.17
776.99	78.51
777.173	90.79
777.355	58.03
777.537	137.9
777.719	129.7
777.901	92.84
778.083	82.6
778.265	-25.94
778.447	156.33
778.629	33.45
778.811	152.23
778.993	101.03
779.175	193.19
779.357	25.26
779.539	146.09
779.721	96.94
779.903	94.89
780.085	70.31
780.267	162.47
780.449	76.46
780.631	78.51
780.812	211.62
780.994	135.85
781.176	74.41
781.358	90.79
781.54	109.22
781.721	168.62
781.903	127.66
782.085	68.27
782.267	180.9
782.448	78.51
782.63	64.17
782.812	55.98
782.993	199.34
783.175	137.9
783.357	31.4
783.538	76.46
783.72	15.02
783.901	144.04
784.083	109.22
784.264	170.66
784.446	43.69
784.627	66.22
784.809	174.76
784.99	12.97
785.172	96.94
785.353	60.07
785.535	84.65
785.716	35.5
785.897	0.68
786.079	39.59
786.26	109.22
786.441	78.51
786.623	39.59
786.804	47.79
786.985	47.79
787.167	29.35
787.348	80.55
787.529	27.31
787.71	187.05
787.891	105.13
788.073	49.83
788.254	-42.32
788.435	127.66
788.616	49.83
788.797	-3.41
788.978	35.5
789.159	-21.85
789.34	115.37
789.522	49.83
789.703	64.17
789.884	21.16
790.065	21.16
790.246	187.05
790.427	60.07
790.607	170.66
790.788	103.08
790.969	33.45
791.15	35.5
791.331	-11.61
791.512	-13.65
791.693	-17.75
791.874	25.26
792.054	236.2
792.235	96.94
792.416	74.41
792.597	66.22
792.778	64.17
792.958	144.04
793.139	139.94
793.32	4.78
793.5	12.97
793.681	117.42
793.862	141.99
794.042	53.93
794.223	10.92
794.404	10.92
794.584	-75.09
794.765	53.93
794.945	55.98
795.126	131.75
795.306	115.37
795.487	94.89
795.667	-56.66
795.848	27.31
796.028	49.83
796.209	80.55
796.389	123.56
796.57	-11.61
796.75	0.68
796.93	10.92
797.111	74.41
797.291	-52.56
797.471	78.51
797.652	15.02
797.832	37.55
798.012	107.18
798.192	68.27
798.373	-7.51
798.553	78.51
798.733	96.94
798.913	23.21
799.093	-1.37
799.274	15.02
799.454	51.88
799.634	84.65
799.814	76.46
799.994	41.64
800.174	90.79
800.354	96.94
800.534	-120.15
800.714	113.32
800.894	-66.9
801.074	-79.19
801.254	-30.04
801.434	92.84
801.614	17.07
801.794	-126.29
801.974	1862.29
802.154	27.31
802.334	137.9
802.514	-7.51
802.693	76.46
802.873	-15.7
803.053	135.85
803.233	166.57
803.413	15.02
803.592	8.87
803.772	4.78
803.952	2.73
804.131	-44.37
804.311	121.51
804.491	123.56
804.67	-34.13
804.85	-13.65
805.03	78.51
805.209	230.06
805.389	8.87
805.568	43.69
805.748	6.83
805.928	43.69
806.107	74.41
806.287	103.08
806.466	60.07
806.646	19.11
806.825	49.83
807.004	51.88
807.184	23.21
807.363	109.22
807.543	-17.75
807.722	27.31
807.901	21.16
808.081	80.55
808.26	-87.38
808.439	45.74
808.619	39.59
808.798	-23.89
808.977	23.21
809.156	117.42
809.336	-17.75
809.515	60.07
809.694	-5.46
809.873	19.11
810.052	129.7
810.231	125.61
810.411	68.27
810.59	135.85
810.769	-36.18
810.948	76.46
811.127	-42.32
811.306	-42.32
811.485	62.12
811.664	152.23
811.843	84.65
812.022	29.35
812.201	15.02
812.38	12.97
812.559	17.07
812.737	101.03
812.916	-36.18
813.095	2.73
813.274	25.26
813.453	12.97
813.632	105.13
813.811	109.22
813.989	17.07
814.168	115.37
814.347	-52.56
814.526	25.26
814.704	139.94
814.883	86.7
815.062	10.92
815.24	148.14
815.419	-46.42
815.598	92.84
815.776	-42.32
815.955	-3.41
816.133	-109.91
816.312	74.41
816.49	15.02
816.669	84.65
816.847	51.88
817.026	8.87
817.204	-21.85
817.383	35.5
817.561	-30.04
817.74	74.41
817.918	62.12
818.097	-15.7
818.275	74.41
818.453	47.79
818.632	72.36
818.81	25.26
818.988	55.98
819.167	-52.56
819.345	-11.61
819.523	-30.04
819.701	62.12
819.879	55.98
820.058	51.88
820.236	51.88
820.414	58.03
820.592	-3.41
820.77	70.31
820.948	31.4
821.127	19.11
821.305	49.83
821.483	-56.66
821.661	115.37
821.839	70.31
822.017	-36.18
822.195	-52.56
822.373	141.99
822.551	4.78
822.729	0.68
822.907	-1.37
823.085	101.03
823.262	72.36
823.44	-44.37
823.618	12.97
823.796	49.83
823.974	-3.41
824.152	-40.28
824.329	-17.75
824.507	27.31
824.685	45.74
824.863	66.22
825.04	27.31
825.218	119.46
825.396	-11.61
825.574	2.73
825.751	-23.89
825.929	76.46
826.107	-75.09
826.284	68.27
826.462	84.65
826.639	6.83
826.817	-21.85
826.994	45.74
827.172	-87.38
827.349	164.52
827.527	94.89
827.704	60.07
827.882	123.56
828.059	37.55
828.237	-126.29
828.414	70.31
828.591	-122.2
828.769	19.11
828.946	-30.04
829.124	68.27
829.301	90.79
829.478	10.92
829.655	82.6
829.833	90.79
830.01	-40.28
830.187	39.59
830.364	-7.51
830.542	74.41
830.719	125.61
830.896	86.7
831.073	41.64
831.25	84.65
831.427	64.17
831.604	-11.61
831.782	17.07
831.959	43.69
832.136	45.74
832.313	21.16
832.49	88.75
832.667	66.22
832.844	37.55
833.021	101.03
833.198	15.02
833.374	4.78
833.551	74.41
833.728	39.59
833.905	101.03
834.082	-60.76
834.259	49.83
834.436	123.56
834.612	-66.9
834.789	-15.7
834.966	58.03
835.143	47.79
835.319	-58.71
835.496	119.46
835.673	98.99
835.85	115.37
836.026	49.83
836.203	154.28
836.38	27.31
836.556	45.74
836.733	-19.8
836.909	127.66
837.086	-17.75
837.262	-54.61
837.439	33.45
837.616	-25.94
837.792	37.55
837.968	49.83
838.145	-85.33
838.321	70.31
838.498	33.45
838.674	45.74
838.851	80.55
839.027	27.31
839.203	0.68
839.38	39.59
839.556	84.65
839.732	72.36
839.909	-17.75
840.085	62.12
840.261	-23.89
840.437	72.36
840.614	6.83
840.79	51.88
840.966	55.98
841.142	60.07
841.318	-5.46
841.494	101.03
841.671	107.18
841.847	-11.61
842.023	-30.04
842.199	43.69
842.375	172.71
842.551	-87.38
842.727	-42.32
842.903	137.9
843.079	-54.61
843.255	125.61
843.431	-13.65
843.607	103.08
843.783	-116.05
843.959	129.7
844.134	-40.28
844.31	37.55
844.486	-32.08
844.662	-62.8
844.838	17.07
845.013	72.36
845.189	53.93
845.365	35.5
845.541	-5.46
845.716	6.83
845.892	121.51
846.068	-15.7
846.244	-23.89
846.419	49.83
846.595	-95.57
846.77	-36.18
846.946	68.27
847.122	19.11
847.297	0.68
847.473	160.42
847.648	-13.65
847.824	84.65
847.999	-116.05
848.175	-5.46
848.35	105.13
848.526	86.7
848.701	96.94
848.876	150.18
849.052	133.8
849.227	8.87
849.403	8.87
849.578	-23.89
849.753	39.59
849.929	60.07
850.104	-83.28
850.279	8.87
850.454	17.07
850.63	62.12
850.805	51.88
850.98	96.94
851.155	66.22
851.33	43.69
851.505	-48.47
851.681	127.66
851.856	-11.61
852.031	49.83
852.206	39.59
852.381	21.16
852.556	80.55
852.731	12.97
852.906	137.9
853.081	82.6
853.256	80.55
853.431	43.69
853.606	-42.32
853.781	-54.61
853.956	-85.33
854.131	51.88
854.305	-46.42
854.48	37.55
854.655	-60.76
854.83	-97.62
855.005	-9.56
855.18	53.93
855.354	-38.23
855.529	51.88
855.704	6.83
855.879	47.79
856.053	-81.24
856.228	49.83
856.403	-50.52
856.577	88.75
856.752	-66.9
856.926	-60.76
857.101	10.92
857.276	-1.37
857.45	-32.08
857.625	25.26
857.799	39.59
857.974	80.55
858.148	-91.48
858.323	49.83
858.497	-34.13
858.672	-38.23
858.846	-30.04
859.02	90.79
859.195	-1.37
859.369	19.11
859.543	47.79
859.718	21.16
859.892	62.12
860.066	64.17
860.241	43.69
860.415	-13.65
860.589	23.21
860.763	66.22
860.938	-13.65
861.112	58.03
861.286	2.73
861.46	39.59
861.634	29.35
861.808	29.35
861.982	-81.24
862.157	-71
862.331	49.83
862.505	-87.38
862.679	-122.2
862.853	-30.04
863.027	60.07
863.201	113.32
863.375	-23.89
863.549	-38.23
863.722	10.92
863.896	187.05
864.07	-42.32
864.244	-64.85
864.418	82.6
864.592	33.45
864.766	39.59
864.939	51.88
865.113	64.17
865.287	51.88
865.461	-17.75
865.634	127.66
865.808	4.78
865.982	70.31
866.156	-68.95
866.329	-68.95
866.503	6.83
866.676	92.84
866.85	58.03
867.024	-81.24
867.197	51.88
867.371	82.6
867.544	4.78
867.718	-81.24
867.891	82.6
868.065	-52.56
868.238	45.74
868.412	158.38
868.585	39.59
868.759	-38.23
868.932	45.74
869.105	-44.37
869.279	43.69
869.452	-25.94
869.625	86.7
869.799	45.74
869.972	-38.23
870.145	12.97
870.319	58.03
870.492	45.74
870.665	27.31
870.838	-7.51
871.011	-50.52
871.185	17.07
871.358	-11.61
871.531	51.88
871.704	-27.99
871.877	60.07
872.05	21.16
872.223	-107.86
872.396	76.46
872.569	141.99
872.742	-32.08
872.915	25.26
873.088	-15.7
873.261	12.97
873.434	45.74
873.607	15.02
873.78	146.09
873.953	-89.43
874.126	58.03
874.299	64.17
874.471	33.45
874.644	-1.37
874.817	27.31
874.99	148.14
875.163	-7.51
875.335	47.79
875.508	-36.18
875.681	158.38
875.853	-77.14
876.026	27.31
876.199	86.7
876.371	19.11
876.544	-15.7
876.717	33.45
876.889	41.64
877.062	8.87
877.234	-52.56
877.407	-5.46
877.579	94.89
877.752	92.84
877.924	23.21
878.097	10.92
878.269	49.83
878.442	-5.46
878.614	2.73
878.786	39.59
878.959	-7.51
879.131	84.65
879.303	-140.63
879.476	2.73
879.648	4.78
879.82	49.83
879.993	4.78
880.165	-75.09
880.337	-50.52
880.509	80.55
880.681	-109.91
880.854	0.68
881.026	76.46
881.198	199.34
881.37	-21.85
881.542	-32.08
881.714	-42.32
881.886	31.4
882.058	119.46
882.23	70.31
882.402	-107.86
882.574	49.83
882.746	49.83
882.918	170.66
883.09	88.75
883.262	-21.85
883.434	70.31
883.606	-118.1
883.778	-7.51
883.95	137.9
884.122	2.73
884.293	51.88
884.465	72.36
884.637	55.98
884.809	-9.56
884.98	4.78
885.152	137.9
885.324	29.35
885.496	-120.15
885.667	-91.48
885.839	27.31
886.011	166.57
886.182	90.79
886.354	62.12
886.525	49.83
886.697	74.41
886.869	6.83
887.04	25.26
887.212	144.04
887.383	215.72
887.555	8.87
887.726	-17.75
887.897	-23.89
888.069	6.83
888.24	88.75
888.412	-11.61
888.583	-46.42
888.754	49.83
888.926	-11.61
889.097	-13.65
889.268	-52.56
889.44	-21.85
889.611	-38.23
889.782	4.78
889.953	-9.56
890.125	98.99
890.296	-71
890.467	58.03
890.638	-19.8
890.809	8.87
890.98	43.69
891.151	55.98
891.323	109.22
891.494	37.55
891.665	-7.51
891.836	15.02
892.007	84.65
892.178	117.42
892.349	41.64
892.52	29.35
892.691	64.17
892.862	-15.7
893.032	-77.14
893.203	-75.09
893.374	25.26
893.545	125.61
893.716	-66.9
893.887	-9.56
894.057	70.31
894.228	8.87
894.399	-32.08
894.57	27.31
894.74	-17.75
894.911	27.31
895.082	-13.65
895.253	-9.56
895.423	25.26
895.594	111.27
895.764	133.8
895.935	-32.08
896.106	37.55
896.276	-40.28
896.447	64.17
896.617	-30.04
896.788	-46.42
896.958	19.11
897.129	-34.13
897.299	35.5
897.47	105.13
897.64	86.7
897.81	29.35
897.981	-3.41
898.151	19.11
898.322	94.89
898.492	4.78
898.662	-17.75
898.832	-38.23
899.003	-46.42
899.173	41.64
899.343	-105.81
899.513	-118.1
