Data from USB4F104151__70__10-44-03-072.txt Node

Date: Wed Feb 26 10:44:03 EST 2025
User: louis
Spectrometer: USB4F10415
Trigger mode: 4
Integration Time (sec): 1.000000E-1
Scans to average: 1
Electric dark correction enabled: true
Nonlinearity correction enabled: false
Boxcar width: 0
XAxis mode: Wavelengths
Number of Pixels in Spectrum: 3648
>>>>>Begin Spectral Data<<<<<
178.204	-396.11
178.424	-396.11
178.644	-396.11
178.864	-412.5
179.084	-418.64
179.304	11.43
179.524	1.19
179.744	-39.76
179.964	70.83
180.184	11.43
180.404	1.19
180.624	-82.77
180.844	-21.33
181.064	44.2
181.283	7.34
181.503	-43.86
181.723	40.11
181.943	-117.59
182.163	169.13
182.383	-7
182.602	60.59
182.822	126.12
183.042	70.83
183.262	7.34
183.482	15.53
183.701	33.96
183.921	81.07
184.141	-64.34
184.361	142.5
184.58	89.26
184.8	42.15
185.02	11.43
185.239	103.59
185.459	25.77
185.679	181.42
185.898	-13.14
186.118	25.77
186.338	23.72
186.557	99.5
186.777	-0.85
186.997	-47.96
187.216	64.68
187.436	144.55
187.655	62.63
187.875	76.97
188.095	7.34
188.314	179.37
188.534	158.89
188.753	11.43
188.973	142.5
189.192	103.59
189.412	-15.19
189.631	44.2
189.851	117.93
190.07	205.99
190.29	-56.15
190.509	-17.24
190.729	-2.9
190.948	144.55
191.168	234.66
191.387	50.35
191.607	-0.85
191.826	109.74
192.045	15.53
192.265	-9.05
192.484	62.63
192.704	66.73
192.923	-74.58
193.142	210.09
193.362	105.64
193.581	169.13
193.8	91.31
194.02	132.26
194.239	1.19
194.458	66.73
194.678	25.77
194.897	-41.81
195.116	27.82
195.335	83.11
195.555	79.02
195.774	29.87
195.993	58.54
196.212	21.67
196.432	-29.52
196.651	-27.48
196.87	52.39
197.089	205.99
197.308	81.07
197.528	91.31
197.747	-84.82
197.966	-2.9
198.185	146.6
198.404	25.77
198.623	85.16
198.842	85.16
199.062	85.16
199.281	148.65
199.5	62.63
199.719	62.63
199.938	58.54
200.157	72.87
200.376	199.85
200.595	101.55
200.814	50.35
201.033	9.39
201.252	165.03
201.471	87.21
201.69	48.3
201.909	89.26
202.128	97.45
202.347	79.02
202.566	60.59
202.785	-35.67
203.004	-115.54
203.223	259.24
203.442	36.01
203.661	9.39
203.879	48.3
204.098	165.03
204.317	-11.09
204.536	162.98
204.755	103.59
204.974	136.36
205.193	5.29
205.411	177.32
205.63	183.46
205.849	3.24
206.068	17.58
206.287	-90.96
206.505	109.74
206.724	50.35
206.943	64.68
207.162	25.77
207.381	38.06
207.599	-64.34
207.818	-2.9
208.037	40.11
208.255	-4.95
208.474	85.16
208.693	122.02
208.911	-7
209.13	101.55
209.349	87.21
209.567	132.26
209.786	85.16
210.005	111.78
210.223	38.06
210.442	-111.44
210.661	52.39
210.879	19.63
211.098	-15.19
211.316	-19.29
211.535	81.07
211.753	-78.68
211.972	93.35
212.191	-23.38
212.409	38.06
212.628	93.35
212.846	-43.86
213.065	101.55
213.283	156.84
213.502	44.2
213.72	62.63
213.938	42.15
214.157	85.16
214.375	126.12
214.594	46.25
214.812	76.97
215.031	-56.15
215.249	38.06
215.467	42.15
215.686	36.01
215.904	85.16
216.122	58.54
216.341	169.13
216.559	83.11
216.778	154.79
216.996	101.55
217.214	52.39
217.432	42.15
217.651	-9.05
217.869	79.02
218.087	25.77
218.306	23.72
218.524	64.68
218.742	3.24
218.96	103.59
219.179	19.63
219.397	58.54
219.615	195.75
219.833	148.65
220.051	-90.96
220.27	76.97
220.488	132.26
220.706	119.98
220.924	-56.15
221.142	-7
221.36	74.92
221.578	160.94
221.796	31.91
222.015	23.72
222.233	95.4
222.451	177.32
222.669	-60.24
222.887	103.59
223.105	-9.05
223.323	-15.19
223.541	-33.62
223.759	11.43
223.977	38.06
224.195	113.83
224.413	101.55
224.631	-15.19
224.849	95.4
225.067	183.46
225.285	-19.29
225.503	36.01
225.721	-72.53
225.939	17.58
226.157	64.68
226.375	238.76
226.592	21.67
226.81	-37.72
227.028	140.46
227.246	115.88
227.464	50.35
227.682	85.16
227.9	33.96
228.117	-4.95
228.335	50.35
228.553	81.07
228.771	-19.29
228.989	144.55
229.206	105.64
229.424	56.49
229.642	29.87
229.86	-45.91
230.077	136.36
230.295	81.07
230.513	115.88
230.731	91.31
230.948	195.75
231.166	189.61
231.384	33.96
231.601	17.58
231.819	179.37
232.037	-27.48
232.254	-66.39
232.472	58.54
232.689	33.96
232.907	185.51
233.125	11.43
233.342	-0.85
233.56	9.39
233.777	58.54
233.995	-9.05
234.213	148.65
234.43	64.68
234.648	83.11
234.865	-9.05
235.083	126.12
235.3	54.44
235.518	140.46
235.735	146.6
235.953	74.92
236.17	-39.76
236.388	3.24
236.605	3.24
236.822	124.07
237.04	101.55
237.257	105.64
237.475	-41.81
237.692	33.96
237.909	119.98
238.127	109.74
238.344	40.11
238.562	117.93
238.779	-54.1
238.996	-43.86
239.214	31.91
239.431	105.64
239.648	-33.62
239.865	144.55
240.083	105.64
240.3	27.82
240.517	91.31
240.735	44.2
240.952	150.7
241.169	146.6
241.386	91.31
241.603	29.87
241.821	17.58
242.038	83.11
242.255	136.36
242.472	29.87
242.689	119.98
242.907	46.25
243.124	76.97
243.341	31.91
243.558	-29.52
243.775	-37.72
243.992	-2.9
244.209	191.66
244.426	281.77
244.643	9.39
244.86	64.68
245.078	119.98
245.295	79.02
245.512	29.87
245.729	-2.9
245.946	13.48
246.163	42.15
246.38	-21.33
246.597	23.72
246.814	81.07
247.031	-37.72
247.248	66.73
247.464	-2.9
247.681	87.21
247.898	122.02
248.115	76.97
248.332	3.24
248.549	109.74
248.766	146.6
248.983	105.64
249.2	60.59
249.417	115.88
249.633	21.67
249.85	1.19
250.067	62.63
250.284	111.78
250.501	52.39
250.717	48.3
250.934	-33.62
251.151	140.46
251.368	50.35
251.585	48.3
251.801	21.67
252.018	-45.91
252.235	152.74
252.451	-50
252.668	-45.91
252.885	173.22
253.102	46.25
253.318	103.59
253.535	9.39
253.752	11.43
253.968	42.15
254.185	-17.24
254.401	66.73
254.618	124.07
254.835	17.58
255.051	81.07
255.268	79.02
255.484	89.26
255.701	36.01
255.917	60.59
256.134	76.97
256.351	-23.38
256.567	11.43
256.784	68.78
257	-47.96
257.217	150.7
257.433	87.21
257.65	15.53
257.866	132.26
258.082	-80.72
258.299	-45.91
258.515	-4.95
258.732	-90.96
258.948	-31.57
259.165	-9.05
259.381	29.87
259.597	128.17
259.814	15.53
260.03	87.21
260.246	23.72
260.463	95.4
260.679	148.65
260.895	50.35
261.112	107.69
261.328	33.96
261.544	-56.15
261.761	79.02
261.977	27.82
262.193	-15.19
262.409	17.58
262.626	107.69
262.842	62.63
263.058	5.29
263.274	62.63
263.49	62.63
263.707	33.96
263.923	33.96
264.139	-19.29
264.355	36.01
264.571	113.83
264.787	-0.85
265.004	142.5
265.22	15.53
265.436	-15.19
265.652	27.82
265.868	66.73
266.084	-43.86
266.3	50.35
266.516	-21.33
266.732	62.63
266.948	42.15
267.164	50.35
267.38	128.17
267.596	62.63
267.812	117.93
268.028	74.92
268.244	13.48
268.46	25.77
268.676	23.72
268.892	95.4
269.108	-66.39
269.324	-78.68
269.54	9.39
269.756	107.69
269.972	-27.48
270.188	50.35
270.403	-7
270.619	-21.33
270.835	165.03
271.051	7.34
271.267	46.25
271.483	-47.96
271.698	58.54
271.914	158.89
272.13	113.83
272.346	17.58
272.562	83.11
272.777	177.32
272.993	52.39
273.209	-45.91
273.425	89.26
273.64	-70.48
273.856	103.59
274.072	13.48
274.287	36.01
274.503	111.78
274.719	93.35
274.934	-17.24
275.15	-29.52
275.366	74.92
275.581	52.39
275.797	3.24
276.012	-19.29
276.228	15.53
276.444	-43.86
276.659	128.17
276.875	-25.43
277.09	46.25
277.306	36.01
277.521	68.78
277.737	52.39
277.952	79.02
278.168	36.01
278.383	3.24
278.599	66.73
278.814	46.25
279.03	-7
279.245	128.17
279.461	33.96
279.676	195.75
279.892	-0.85
280.107	42.15
280.322	-39.76
280.538	107.69
280.753	42.15
280.969	31.91
281.184	25.77
281.399	54.44
281.615	56.49
281.83	29.87
282.045	15.53
282.26	50.35
282.476	58.54
282.691	119.98
282.906	72.87
283.122	89.26
283.337	-62.29
283.552	81.07
283.767	3.24
283.983	107.69
284.198	29.87
284.413	54.44
284.628	-23.38
284.843	40.11
285.058	105.64
285.274	93.35
285.489	-4.95
285.704	97.45
285.919	36.01
286.134	17.58
286.349	-27.48
286.564	-50
286.779	255.14
286.995	-66.39
287.21	-62.29
287.425	91.31
287.64	27.82
287.855	-54.1
288.07	-70.48
288.285	42.15
288.5	142.5
288.715	25.77
288.93	85.16
289.145	-0.85
289.36	109.74
289.575	9.39
289.79	162.98
290.004	31.91
290.219	165.03
290.434	-47.96
290.649	9.39
290.864	-23.38
291.079	23.72
291.294	40.11
291.509	97.45
291.724	40.11
291.938	-13.14
292.153	29.87
292.368	44.2
292.583	-7
292.798	54.44
293.012	91.31
293.227	56.49
293.442	68.78
293.657	79.02
293.871	93.35
294.086	64.68
294.301	222.38
294.516	119.98
294.73	36.01
294.945	-25.43
295.16	3.24
295.374	54.44
295.589	99.5
295.804	-13.14
296.018	95.4
296.233	107.69
296.447	89.26
296.662	68.78
296.877	140.46
297.091	70.83
297.306	93.35
297.52	87.21
297.735	31.91
297.949	38.06
298.164	138.41
298.378	66.73
298.593	17.58
298.807	-9.05
299.022	23.72
299.236	162.98
299.451	15.53
299.665	5.29
299.88	52.39
300.094	25.77
300.309	27.82
300.523	56.49
300.737	7.34
300.952	72.87
301.166	124.07
301.381	42.15
301.595	17.58
301.809	76.97
302.024	-50
302.238	3.24
302.452	119.98
302.667	-2.9
302.881	132.26
303.095	93.35
303.309	74.92
303.524	36.01
303.738	-43.86
303.952	-2.9
304.166	74.92
304.381	-115.54
304.595	152.74
304.809	72.87
305.023	-11.09
305.237	-80.72
305.452	25.77
305.666	95.4
305.88	107.69
306.094	226.47
306.308	19.63
306.522	119.98
306.736	58.54
306.95	95.4
307.164	-21.33
307.379	38.06
307.593	179.37
307.807	134.31
308.021	66.73
308.235	29.87
308.449	-111.44
308.663	134.31
308.877	224.42
309.091	33.96
309.305	52.39
309.519	-68.44
309.733	72.87
309.947	-82.77
310.161	72.87
310.374	122.02
310.588	189.61
310.802	21.67
311.016	-7
311.23	83.11
311.444	-45.91
311.658	142.5
311.872	103.59
312.085	83.11
312.299	99.5
312.513	156.84
312.727	-0.85
312.941	-39.76
313.154	11.43
313.368	105.64
313.582	1.19
313.796	27.82
314.009	42.15
314.223	242.85
314.437	31.91
314.651	138.41
314.864	162.98
315.078	48.3
315.292	-25.43
315.505	-50
315.719	40.11
315.933	72.87
316.146	-15.19
316.36	-35.67
316.573	126.12
316.787	95.4
317.001	91.31
317.214	40.11
317.428	81.07
317.641	-33.62
317.855	42.15
318.068	38.06
318.282	64.68
318.495	130.22
318.709	66.73
318.922	54.44
319.136	224.42
319.349	160.94
319.563	95.4
319.776	3.24
319.99	-95.06
320.203	85.16
320.417	-21.33
320.63	130.22
320.843	218.28
321.057	36.01
321.27	107.69
321.483	93.35
321.697	185.51
321.91	46.25
322.124	44.2
322.337	117.93
322.55	19.63
322.763	76.97
322.977	68.78
323.19	-21.33
323.403	85.16
323.617	111.78
323.83	138.41
324.043	-33.62
324.256	70.83
324.469	-17.24
324.683	38.06
324.896	5.29
325.109	62.63
325.322	-19.29
325.535	113.83
325.748	87.21
325.962	17.58
326.175	91.31
326.388	87.21
326.601	97.45
326.814	-19.29
327.027	89.26
327.24	158.89
327.453	-121.68
327.666	42.15
327.879	74.92
328.092	76.97
328.305	13.48
328.518	48.3
328.731	-31.57
328.944	-39.76
329.157	74.92
329.37	-17.24
329.583	226.47
329.796	208.04
330.009	-43.86
330.222	107.69
330.435	83.11
330.648	-27.48
330.861	31.91
331.073	36.01
331.286	150.7
331.499	-7
331.712	-29.52
331.925	60.59
332.138	15.53
332.35	50.35
332.563	-27.48
332.776	97.45
332.989	66.73
333.202	-15.19
333.414	52.39
333.627	9.39
333.84	-13.14
334.053	54.44
334.265	7.34
334.478	-33.62
334.691	-15.19
334.903	91.31
335.116	9.39
335.329	25.77
335.541	83.11
335.754	122.02
335.966	-35.67
336.179	97.45
336.392	-31.57
336.604	48.3
336.817	72.87
337.029	54.44
337.242	48.3
337.454	68.78
337.667	11.43
337.88	167.08
338.092	-17.24
338.305	126.12
338.517	-0.85
338.729	103.59
338.942	62.63
339.154	5.29
339.367	-62.29
339.579	150.7
339.792	3.24
340.004	42.15
340.217	-23.38
340.429	95.4
340.641	-25.43
340.854	-58.2
341.066	19.63
341.278	138.41
341.491	222.38
341.703	70.83
341.915	-56.15
342.128	23.72
342.34	60.59
342.552	-56.15
342.764	33.96
342.977	-29.52
343.189	117.93
343.401	23.72
343.613	-84.82
343.826	122.02
344.038	-15.19
344.25	31.91
344.462	-2.9
344.674	72.87
344.886	42.15
345.099	74.92
345.311	134.31
345.523	56.49
345.735	-33.62
345.947	44.2
346.159	38.06
346.371	-25.43
346.583	-56.15
346.795	208.04
347.007	68.78
347.219	64.68
347.431	17.58
347.643	156.84
347.855	9.39
348.067	171.18
348.279	46.25
348.491	48.3
348.703	140.46
348.915	-39.76
349.127	-7
349.339	15.53
349.551	-58.2
349.763	113.83
349.975	105.64
350.187	183.46
350.399	146.6
350.61	9.39
350.822	56.49
351.034	25.77
351.246	-13.14
351.458	154.79
351.669	95.4
351.881	42.15
352.093	140.46
352.305	119.98
352.517	79.02
352.728	109.74
352.94	-11.09
353.152	36.01
353.363	-70.48
353.575	107.69
353.787	140.46
353.999	109.74
354.21	109.74
354.422	33.96
354.633	11.43
354.845	-62.29
355.057	38.06
355.268	58.54
355.48	97.45
355.692	-52.05
355.903	36.01
356.115	7.34
356.326	-21.33
356.538	97.45
356.749	46.25
356.961	136.36
357.172	101.55
357.384	23.72
357.595	257.19
357.807	-76.63
358.018	58.54
358.23	-47.96
358.441	287.91
358.653	54.44
358.864	-13.14
359.075	-17.24
359.287	31.91
359.498	74.92
359.709	70.83
359.921	19.63
360.132	83.11
360.344	87.21
360.555	19.63
360.766	93.35
360.977	46.25
361.189	99.5
361.4	54.44
361.611	101.55
361.823	130.22
362.034	-2.9
362.245	-43.86
362.456	-27.48
362.667	62.63
362.879	-88.92
363.09	76.97
363.301	19.63
363.512	50.35
363.723	-74.58
363.935	-11.09
364.146	95.4
364.357	29.87
364.568	56.49
364.779	-11.09
364.99	162.98
365.201	-23.38
365.412	160.94
365.623	-88.92
365.834	148.65
366.045	148.65
366.256	58.54
366.467	101.55
366.678	-27.48
366.889	62.63
367.1	-0.85
367.311	167.08
367.522	15.53
367.733	142.5
367.944	48.3
368.155	-19.29
368.366	60.59
368.577	154.79
368.788	81.07
368.999	-4.95
369.209	46.25
369.42	165.03
369.631	205.99
369.842	81.07
370.053	1.19
370.264	44.2
370.474	-25.43
370.685	48.3
370.896	68.78
371.107	74.92
371.317	103.59
371.528	50.35
371.739	66.73
371.95	171.18
372.16	64.68
372.371	-2.9
372.582	-13.14
372.792	89.26
373.003	79.02
373.214	50.35
373.424	124.07
373.635	-43.86
373.846	134.31
374.056	68.78
374.267	36.01
374.477	66.73
374.688	-15.19
374.898	79.02
375.109	109.74
375.319	105.64
375.53	91.31
375.74	54.44
375.951	-86.87
376.161	132.26
376.372	85.16
376.582	60.59
376.793	33.96
377.003	50.35
377.214	-33.62
377.424	111.78
377.635	76.97
377.845	7.34
378.055	46.25
378.266	-50
378.476	-31.57
378.686	50.35
378.897	29.87
379.107	48.3
379.317	56.49
379.528	-2.9
379.738	111.78
379.948	-56.15
380.158	109.74
380.369	17.58
380.579	68.78
380.789	99.5
380.999	87.21
381.21	113.83
381.42	201.9
381.63	29.87
381.84	95.4
382.05	-13.14
382.261	160.94
382.471	113.83
382.681	-29.52
382.891	115.88
383.101	76.97
383.311	19.63
383.521	-15.19
383.731	66.73
383.941	40.11
384.151	-9.05
384.361	-7
384.571	56.49
384.781	23.72
384.991	134.31
385.201	150.7
385.411	66.73
385.621	46.25
385.831	111.78
386.041	66.73
386.251	38.06
386.461	117.93
386.671	17.58
386.881	66.73
387.091	95.4
387.301	31.91
387.511	74.92
387.72	19.63
387.93	87.21
388.14	-43.86
388.35	58.54
388.56	66.73
388.769	103.59
388.979	36.01
389.189	58.54
389.399	60.59
389.609	146.6
389.818	162.98
390.028	5.29
390.238	33.96
390.447	-35.67
390.657	85.16
390.867	9.39
391.076	-80.72
391.286	79.02
391.496	95.4
391.705	52.39
391.915	91.31
392.125	158.89
392.334	3.24
392.544	115.88
392.753	-0.85
392.963	3.24
393.172	89.26
393.382	36.01
393.591	228.52
393.801	48.3
394.01	152.74
394.22	15.53
394.429	15.53
394.639	44.2
394.848	74.92
395.058	54.44
395.267	79.02
395.477	160.94
395.686	72.87
395.895	306.34
396.105	201.9
396.314	13.48
396.524	66.73
396.733	52.39
396.942	70.83
397.152	103.59
397.361	89.26
397.57	38.06
397.78	9.39
397.989	46.25
398.198	224.42
398.407	-13.14
398.617	68.78
398.826	83.11
399.035	3.24
399.244	156.84
399.453	87.21
399.663	60.59
399.872	60.59
400.081	-52.05
400.29	167.08
400.499	23.72
400.708	146.6
400.917	-13.14
401.127	91.31
401.336	33.96
401.545	197.8
401.754	130.22
401.963	111.78
402.172	5.29
402.381	56.49
402.59	62.63
402.799	60.59
403.008	142.5
403.217	58.54
403.426	101.55
403.635	-64.34
403.844	74.92
404.053	62.63
404.262	-19.29
404.471	189.61
404.68	58.54
404.888	38.06
405.097	-50
405.306	97.45
405.515	50.35
405.724	40.11
405.933	130.22
406.142	64.68
406.35	97.45
406.559	85.16
406.768	83.11
406.977	93.35
407.185	136.36
407.394	107.69
407.603	36.01
407.812	97.45
408.02	144.55
408.229	48.3
408.438	66.73
408.646	21.67
408.855	62.63
409.064	97.45
409.272	58.54
409.481	109.74
409.69	-19.29
409.898	3.24
410.107	85.16
410.315	89.26
410.524	36.01
410.733	19.63
410.941	21.67
411.15	156.84
411.358	146.6
411.567	148.65
411.775	70.83
411.984	87.21
412.192	60.59
412.401	93.35
412.609	205.99
412.818	140.46
413.026	79.02
413.234	70.83
413.443	-2.9
413.651	-25.43
413.86	-13.14
414.068	119.98
414.276	220.33
414.485	38.06
414.693	242.85
414.901	203.94
415.11	81.07
415.318	115.88
415.526	42.15
415.734	162.98
415.943	74.92
416.151	179.37
416.359	58.54
416.567	72.87
416.776	93.35
416.984	136.36
417.192	214.18
417.4	38.06
417.608	-9.05
417.817	-15.19
418.025	99.5
418.233	208.04
418.441	-31.57
418.649	-25.43
418.857	85.16
419.065	142.5
419.273	-47.96
419.481	31.91
419.689	19.63
419.897	70.83
420.105	-37.72
420.313	154.79
420.521	165.03
420.729	134.31
420.937	21.67
421.145	-39.76
421.353	95.4
421.561	126.12
421.769	11.43
421.977	-19.29
422.185	42.15
422.393	-0.85
422.601	140.46
422.809	85.16
423.017	-0.85
423.224	81.07
423.432	101.55
423.64	89.26
423.848	154.79
424.056	54.44
424.263	134.31
424.471	50.35
424.679	175.27
424.887	-19.29
425.094	203.94
425.302	36.01
425.51	64.68
425.718	138.41
425.925	52.39
426.133	-9.05
426.341	173.22
426.548	91.31
426.756	60.59
426.964	54.44
427.171	58.54
427.379	134.31
427.586	74.92
427.794	89.26
428.001	83.11
428.209	95.4
428.417	136.36
428.624	87.21
428.832	107.69
429.039	33.96
429.247	62.63
429.454	119.98
429.662	220.33
429.869	142.5
430.076	162.98
430.284	216.23
430.491	167.08
430.699	126.12
430.906	138.41
431.114	154.79
431.321	244.9
431.528	138.41
431.736	132.26
431.943	148.65
432.15	201.9
432.358	136.36
432.565	197.8
432.772	-60.24
432.979	177.32
433.187	136.36
433.394	189.61
433.601	91.31
433.808	298.15
434.016	314.53
434.223	271.53
434.43	173.22
434.637	287.91
434.844	154.79
435.052	244.9
435.259	328.87
435.466	205.99
435.673	220.33
435.88	289.96
436.087	304.29
436.294	287.91
436.501	314.53
436.708	216.23
436.915	212.14
437.122	308.39
437.329	232.62
437.537	357.54
437.743	257.19
437.95	418.98
438.157	316.58
438.364	332.97
438.571	292.01
438.778	371.88
438.985	414.88
439.192	343.21
439.399	347.3
439.606	443.56
439.813	498.85
440.02	601.25
440.227	625.83
440.433	562.34
440.64	482.47
440.847	396.45
441.054	453.8
441.261	687.26
441.467	580.77
441.674	515.23
441.881	697.5
442.088	588.96
442.294	670.88
442.501	728.22
442.708	818.33
442.914	660.64
443.121	812.19
443.328	760.99
443.534	791.71
443.741	814.24
443.948	730.27
444.154	855.2
444.361	1070.23
444.568	892.06
444.774	877.73
444.981	865.44
445.187	1133.72
445.394	1062.04
445.6	1090.71
445.807	1240.22
446.013	1115.29
446.22	1150.11
446.426	1297.56
446.633	1332.37
446.839	1596.56
447.046	1344.66
447.252	1531.03
447.459	1516.69
447.665	1612.95
447.871	1754.26
448.078	1848.46
448.284	1733.78
448.491	1870.99
448.697	1954.96
448.903	2061.45
449.11	2167.95
449.316	1946.76
449.522	2294.92
449.728	2188.43
449.935	2401.41
450.141	2399.37
450.347	2575.49
450.553	2561.16
450.76	2425.99
450.966	2704.51
451.172	2724.99
451.378	2874.49
451.584	2915.45
451.791	3187.83
451.997	3226.75
452.203	3263.61
452.409	3501.17
452.615	3603.57
452.821	3515.51
453.027	3597.43
453.233	4025.45
453.44	3892.34
453.646	3984.49
453.852	4314.22
454.058	4355.18
454.264	4547.69
454.47	4957.28
454.676	4953.18
454.882	5315.67
455.088	5000.29
455.294	5317.72
455.5	5702.74
455.705	6020.17
455.911	5919.82
456.117	6315.08
456.323	6319.18
456.529	6458.44
456.735	7113.79
456.941	7308.35
457.147	7470.14
457.352	7463.99
457.558	7879.73
457.764	8561.7
457.97	8666.15
458.176	8815.65
458.381	9384.99
458.587	9856.02
458.793	9997.33
458.999	9903.12
459.204	11250.69
459.41	11510.78
459.616	11502.59
459.821	12012.53
460.027	12735.46
460.233	13292.51
460.438	13351.9
460.644	14175.19
460.85	14128.08
461.055	14601.16
461.261	15518.65
461.466	15358.91
461.672	15215.55
461.878	17435.55
462.083	17220.52
462.289	17478.56
462.494	18133.91
462.7	18445.2
462.905	18447.25
463.111	19897.21
463.316	20951.91
463.522	21412.71
463.727	22039.39
463.932	23038.8
464.138	23587.65
464.343	24707.89
464.549	25105.2
464.754	26551.06
464.959	27280.14
465.165	27611.91
465.37	27407.11
465.575	27740.93
465.781	29469.42
465.986	30044.9
466.191	29686.5
466.397	30126.81
466.602	29371.11
466.807	30819.03
467.012	31541.96
467.218	32402.11
467.423	32502.46
467.628	33065.65
467.833	35003.03
468.038	34286.24
468.244	33579.69
468.449	35281.55
468.654	34480.8
468.859	34450.08
469.064	34380.45
469.269	33921.7
469.474	33991.33
469.679	35111.57
469.885	34124.45
470.09	34265.76
470.295	34914.97
470.5	34091.68
470.705	34185.89
470.91	33249.97
471.115	33180.34
471.32	33356.46
471.525	33163.95
471.73	32547.51
471.935	32187.07
472.139	30933.71
472.344	31288.01
472.549	30722.77
472.754	30053.09
472.959	29633.25
473.164	28482.3
473.369	27964.16
473.574	29049.58
473.778	28191.48
473.983	27896.58
474.188	27175.69
474.393	26444.57
474.598	26180.38
474.802	25424.68
475.007	25428.77
475.212	25197.35
475.417	23786.3
475.621	23610.18
475.826	23573.31
476.031	22694.74
476.235	22731.6
476.44	22430.55
476.645	21846.88
476.849	21468
477.054	21293.93
477.259	20884.33
477.463	20992.87
477.668	20163.45
477.872	20464.5
478.077	19745.66
478.282	19307.4
478.486	19100.55
478.691	18682.77
478.895	18606.99
479.1	18803.6
479.304	18535.31
479.509	17839
479.713	17925.02
479.918	17527.71
480.122	17218.47
480.326	17161.12
480.531	17097.64
480.735	16968.62
480.94	16815.02
481.144	17154.98
481.348	16348.08
481.553	16501.68
481.757	16094.13
481.961	16171.96
482.166	16174
482.37	16159.67
482.574	15647.68
482.778	15614.91
482.983	16024.5
483.187	15426.5
483.391	15690.68
483.595	15285.19
483.8	15152.07
484.004	15088.58
484.208	15154.12
484.412	14900.17
484.616	14838.73
484.821	14689.23
485.025	14336.98
485.229	14201.81
485.433	14152.66
485.637	13870.04
485.841	13550.56
486.045	13407.2
486.249	13659.1
486.453	12977.12
486.657	13003.75
486.861	12796.9
487.065	12493.8
487.269	12674.03
487.473	11848.69
487.677	12186.61
487.881	12045.3
488.085	11525.11
488.289	11635.71
488.493	11133.95
488.697	11045.89
488.901	10998.79
489.105	10736.65
489.309	10664.97
489.512	10621.96
489.716	10142.74
489.92	10120.21
490.124	9976.85
490.328	9700.37
490.531	9415.71
490.735	9272.35
490.939	9237.53
491.143	8952.87
491.346	8723.49
491.55	8780.84
491.754	8592.42
491.958	8741.93
492.161	8428.59
492.365	8264.75
492.569	8234.03
492.772	7771.19
492.976	7998.51
493.18	7652.41
493.383	7775.28
493.587	7650.36
493.79	7539.77
493.994	7349.31
494.197	7277.63
494.401	7271.48
494.605	7105.6
494.808	7255.1
495.012	7081.02
495.215	6958.14
495.419	7046.21
495.622	6775.88
495.825	6853.7
496.029	6839.36
496.232	6966.34
496.436	6767.68
496.639	6927.42
496.843	6728.77
497.046	6716.48
497.249	6935.62
497.453	6923.33
497.656	6884.42
497.859	6693.96
498.063	7011.39
498.266	6900.8
498.469	6718.53
498.673	6882.37
498.876	6749.25
499.079	6685.76
499.282	6718.53
499.485	7201.85
499.689	7050.3
499.892	7226.43
500.095	7111.74
500.298	7388.22
500.501	7068.73
500.705	7285.82
500.908	7201.85
501.111	7230.52
501.314	7386.17
501.517	7824.44
501.72	7615.54
501.923	7416.89
502.126	7638.07
502.329	7896.11
502.532	7959.6
502.735	7892.02
502.938	8254.51
503.141	8074.29
503.344	7957.55
503.547	8256.56
503.75	8334.38
503.953	8490.03
504.156	8719.4
504.359	8746.02
504.562	8907.81
504.765	8909.86
504.968	8979.49
505.17	9241.63
505.373	9337.88
505.576	9759.77
505.779	9817.11
505.982	9720.85
506.185	10023.95
506.387	10167.31
506.59	10370.06
506.793	10671.11
506.996	10447.88
507.198	10925.06
507.401	11052.03
507.604	11262.97
507.807	11467.77
508.009	11699.19
508.212	12028.92
508.415	12055.54
508.617	12254.19
508.82	12921.83
509.022	12757.99
509.225	13206.5
509.428	13519.84
509.63	13677.53
509.833	13802.46
510.035	14554.06
510.238	14472.14
510.44	14920.65
510.643	15164.36
510.845	15582.14
511.048	15745.98
511.25	16065.46
511.453	16595.89
511.655	17310.63
511.858	17259.43
512.06	17775.52
512.262	17980.31
512.465	18551.7
512.667	18760.59
512.87	19170.18
513.072	19649.41
513.274	20255.61
513.477	20564.85
513.679	20927.34
513.881	21463.91
514.084	21719.9
514.286	22358.87
514.488	22594.39
514.69	23542.6
514.893	23870.27
515.095	24165.18
515.297	24949.55
515.499	25142.06
515.701	25576.23
515.904	26651.41
516.106	26895.12
516.308	27251.47
516.51	28099.33
516.712	28543.74
516.914	28779.25
517.116	29489.9
517.318	30044.9
517.52	30722.77
517.722	30782.16
517.925	31826.63
518.127	32264.89
518.329	33145.52
518.531	33311.41
518.733	34103.97
518.935	34697.88
519.136	34804.38
519.338	35754.63
519.54	35949.19
519.742	36498.05
519.944	37010.04
520.146	37933.67
520.348	38511.2
520.55	38242.92
520.752	38709.85
520.954	39703.12
521.155	39811.66
521.357	40737.34
521.559	40909.37
521.761	42252.84
521.963	41761.33
522.164	42064.42
522.366	42443.3
522.568	43172.38
522.77	43379.22
522.971	44661.25
523.173	43549.2
523.375	44548.61
523.576	44186.12
523.778	44251.66
523.98	45027.84
524.181	44997.12
524.383	45496.82
524.584	45820.4
524.786	45900.27
524.988	45195.77
525.189	46004.72
525.391	46299.62
525.592	46434.79
525.794	46457.32
525.995	45965.81
526.197	46143.98
526.398	46369.26
526.6	45744.62
526.801	46250.47
527.003	46170.6
527.204	45638.13
527.406	45859.31
527.607	45388.28
527.808	45646.32
528.01	44497.41
528.211	44704.26
528.412	45015.55
528.614	44218.89
528.815	43948.56
529.016	44130.83
529.218	43360.79
529.419	43088.41
529.62	43168.28
529.822	42236.45
530.023	42078.76
530.224	41572.91
530.425	41140.79
530.626	40499.78
530.828	40163.91
531.029	40317.51
531.23	39549.52
531.431	39180.88
531.632	38779.48
531.833	38335.07
532.035	37724.78
532.236	37337.71
532.437	37214.83
532.638	36428.41
532.839	36182.66
533.04	35787.4
533.241	35066.52
533.442	35117.71
533.643	34478.75
533.844	33919.65
534.045	33735.34
534.246	32656.06
534.447	32598.71
534.648	32219.84
534.849	31888.07
535.05	30876.37
535.251	30880.47
535.451	30366.43
535.652	29827.81
535.853	29604.58
536.054	29281
536.255	29016.82
536.456	28412.67
536.657	28451.58
536.857	27601.67
537.058	27466.5
537.259	26952.46
537.46	26747.67
537.66	26295.07
537.861	26213.15
538.062	25475.88
538.263	24967.98
538.463	24771.38
538.664	24517.43
538.865	24394.55
539.065	24038.2
539.266	23518.02
539.466	23528.26
539.667	23049.03
539.868	23094.09
540.068	22674.26
540.269	22426.45
540.469	22309.72
540.67	21988.19
540.87	21488.48
541.071	21281.64
541.271	21326.69
541.472	20978.54
541.672	20732.78
541.873	20503.41
542.073	19972.99
542.274	20128.63
542.474	19747.71
542.675	19467.14
542.875	19055.5
543.075	19078.02
543.276	18611.09
543.476	18768.78
543.676	18475.92
543.877	18324.37
544.077	18111.38
544.277	18033.56
544.478	17636.25
544.678	17456.03
544.878	17202.08
545.078	16944.04
545.279	16608.17
545.479	16567.21
545.679	16513.97
545.879	16343.99
546.079	16108.47
546.28	15817.66
546.48	15612.86
546.68	15553.47
546.88	15483.84
547.08	15195.07
547.28	15131.59
547.48	14785.48
547.68	14783.43
547.88	14410.7
548.081	14318.54
548.281	13839.32
548.481	13990.87
548.681	13935.57
548.881	13659.1
549.081	13495.26
549.28	13120.48
549.48	13079.52
549.68	12780.52
549.88	12876.77
550.08	12301.29
550.28	12313.58
550.48	12313.58
550.68	12164.08
550.88	11707.38
551.08	11703.29
551.279	11396.09
551.479	11295.74
551.679	11279.36
551.879	10976.26
552.079	11052.03
552.278	10837
552.478	10712.07
552.678	10447.88
552.878	10290.19
553.077	10169.36
553.277	9786.39
553.477	9937.94
553.676	9755.67
553.876	9427.99
554.076	9550.87
554.275	9292.83
554.475	9126.94
554.674	9049.12
554.874	8756.26
555.074	8643.62
555.273	8522.79
555.473	8414.25
555.672	8234.03
555.872	8193.07
556.071	7990.32
556.271	7990.32
556.47	7738.42
556.67	7476.28
556.869	7443.51
557.068	7382.07
557.268	7226.43
557.467	7152.7
557.667	7126.08
557.866	6880.32
558.065	6788.16
558.265	6755.4
558.464	6663.24
558.663	6509.64
558.863	6306.89
559.062	6351.95
559.261	6122.57
559.461	6132.81
559.66	6038.61
559.859	5749.84
560.058	5770.32
560.258	5506.13
560.457	5438.55
560.656	5704.79
560.855	5319.77
561.054	5268.57
561.253	5309.53
561.453	5219.42
561.652	5061.73
561.851	5037.15
562.05	4832.35
562.249	4672.61
562.448	4846.69
562.647	4828.26
562.846	4605.03
563.045	4514.92
563.244	4338.79
563.443	4658.28
563.642	4316.26
563.841	4463.72
564.04	4150.38
564.239	4320.36
564.438	4238.44
564.637	4064.36
564.836	4152.43
565.035	3976.3
565.234	3880.05
565.432	3820.66
565.631	3800.18
565.83	3730.55
566.029	3601.52
566.228	3638.39
566.427	3617.91
566.625	3275.9
566.824	3359.86
567.023	3579
567.222	3361.91
567.42	3257.46
567.619	3308.66
567.818	3251.32
568.016	3279.99
568.215	3263.61
568.414	3214.46
568.612	3124.35
568.811	3024
569.01	3105.92
569.208	2929.79
569.407	2989.18
569.605	2929.79
569.804	2888.83
570.002	2839.68
570.201	2600.07
570.4	2770.05
570.598	2645.12
570.797	2595.97
570.995	2368.65
571.193	2415.75
571.392	2452.61
571.59	2319.5
571.789	2487.43
571.987	2454.66
572.186	2364.55
572.384	2299.02
572.582	2344.07
572.781	2303.11
572.979	2124.94
573.177	2110.6
573.376	2169.99
573.574	2120.84
573.772	2108.55
573.971	2040.97
574.169	1858.7
574.367	1997.96
574.565	1901.71
574.763	1969.29
574.962	1971.34
575.16	1936.53
575.358	1817.74
575.556	1938.57
575.754	1791.12
575.952	1840.27
576.151	1701.01
576.349	1782.93
576.547	1666.19
576.745	1686.67
576.943	1741.97
577.141	1594.51
577.339	1473.68
577.537	1512.6
577.735	1537.17
577.933	1463.44
578.131	1496.21
578.329	1670.29
578.527	1500.31
578.725	1537.17
578.923	1260.7
579.121	1461.4
579.319	1264.79
579.516	1338.52
579.714	1512.6
579.912	1320.09
580.11	1207.45
580.308	1225.88
580.506	1205.4
580.704	1004.7
580.901	1074.33
581.099	1322.13
581.297	1227.93
581.495	1207.45
581.692	1103
581.89	1186.97
582.088	1195.16
582.285	1014.94
582.483	1021.08
582.681	1070.23
582.878	1076.38
583.076	1072.28
583.274	971.93
583.471	1125.53
583.669	992.41
583.866	902.3
584.064	871.58
584.262	920.73
584.459	914.59
584.657	902.3
584.854	1027.23
585.052	986.27
585.249	963.74
585.447	875.68
585.644	804
585.841	978.08
586.039	910.49
586.236	877.73
586.434	771.23
586.631	787.61
586.828	750.75
587.026	767.13
587.223	767.13
587.42	636.06
587.618	744.61
587.815	902.3
588.012	767.13
588.21	576.67
588.407	754.85
588.604	806.05
588.801	599.2
588.999	695.46
589.196	722.08
589.393	654.5
589.59	812.19
589.787	769.18
589.984	683.17
590.182	611.49
590.379	564.39
590.576	720.03
590.773	662.69
590.97	611.49
591.167	717.98
591.364	771.23
591.561	611.49
591.758	742.56
591.955	670.88
592.152	617.63
592.349	631.97
592.546	693.41
592.743	548
592.94	588.96
593.137	674.98
593.334	744.61
593.531	660.64
593.727	726.18
593.924	605.35
594.121	576.67
594.318	537.76
594.515	654.5
594.712	771.23
594.908	752.8
595.105	636.06
595.302	679.07
595.499	687.26
595.696	814.24
595.892	648.35
596.089	933.02
596.286	705.7
596.482	861.34
596.679	722.08
596.876	760.99
597.072	881.82
597.269	830.62
597.466	857.25
597.662	842.91
597.859	775.33
598.055	873.63
598.252	1027.23
598.448	971.93
598.645	1033.37
598.841	1082.52
599.038	1098.91
599.234	1141.91
599.431	1162.39
599.627	1182.87
599.824	1287.32
600.02	1315.99
600.217	1395.86
600.413	1275.03
600.609	1404.05
600.806	1739.92
601.002	1526.93
601.198	1436.82
601.395	1860.75
601.591	1725.58
601.787	1838.22
601.984	1858.7
602.18	1959.05
602.376	1954.96
602.572	2086.03
602.769	2221.19
602.965	2274.44
603.161	2411.65
603.357	2423.94
603.553	2645.12
603.75	2481.28
603.946	2544.77
604.142	2671.75
604.338	2995.32
604.534	2894.97
604.73	2866.3
604.926	3011.71
605.122	3325.05
605.318	3251.32
605.514	3402.87
605.71	3490.93
605.906	3712.11
606.102	3683.44
606.298	4000.88
606.494	4027.5
606.69	4189.29
606.886	4228.2
607.082	4318.31
607.278	4344.94
607.474	4592.74
607.67	4609.12
607.866	4693.09
608.062	4908.13
608.257	5074.01
608.453	5119.07
608.649	5385.3
608.845	5395.54
609.041	5499.99
609.236	5801.04
609.432	6024.27
609.628	6083.66
609.824	6167.63
610.019	6177.87
610.215	6648.9
610.411	6861.89
610.606	7001.15
610.802	6894.66
610.998	7453.75
611.193	7562.3
611.389	7726.13
611.584	8043.57
611.78	7908.4
611.976	8338.48
612.171	8737.83
612.367	8799.27
612.562	8928.29
612.758	9038.88
612.953	9178.14
613.149	9688.09
613.344	10048.53
613.539	10171.41
613.735	10521.61
613.93	10824.71
614.126	11066.37
614.321	11463.68
614.517	11834.36
614.712	11985.91
614.907	12139.51
615.103	12446.7
615.298	12813.29
615.493	13200.35
615.688	13421.53
615.884	14099.41
616.079	14095.32
616.274	14549.96
616.47	14797.77
616.665	15342.53
616.86	15623.1
617.055	15928.25
617.25	16440.24
617.445	16941.99
617.641	17005.48
617.836	17836.95
618.031	17910.68
618.226	18606.99
618.421	18971.53
618.616	19594.11
618.811	19792.76
619.006	20460.4
619.201	20642.67
619.396	21146.47
619.591	21427.04
619.786	22129.5
619.981	22700.88
620.176	23401.29
620.371	23309.13
620.566	23915.33
620.761	24339.26
620.956	25021.23
621.151	25436.97
621.346	26084.12
621.541	26098.46
621.735	27044.62
621.93	27042.57
622.125	28273.4
622.32	28214.01
622.515	29145.84
622.709	29393.64
622.904	30350.04
623.099	30538.46
623.294	31103.7
623.488	31464.14
623.683	32137.92
623.878	32205.5
624.072	33694.38
624.267	33612.46
624.462	33757.86
624.656	34194.08
624.851	35019.41
625.046	35353.23
625.24	36246.15
625.435	36358.78
625.629	36893.3
625.824	37454.45
626.018	38242.92
626.213	38382.18
626.407	38982.23
626.602	39008.86
626.796	39598.67
626.991	40190.53
627.185	40215.11
627.38	40196.68
627.574	40831.55
627.768	40815.16
627.963	41062.97
628.157	40741.44
628.352	41507.38
628.546	40806.97
628.74	41566.77
628.935	41572.91
629.129	41503.28
629.323	41261.62
629.517	40915.51
629.712	40571.46
629.906	40710.72
630.1	39936.59
630.294	39926.35
630.489	39144.02
630.683	39066.2
630.877	38441.57
631.071	37663.34
631.265	37384.82
631.459	36399.74
631.653	35289.74
631.848	35320.46
632.042	33983.14
632.236	33569.45
632.43	32076.48
632.624	31875.78
632.818	30481.11
633.012	29788.9
633.206	28846.83
633.4	28297.98
633.594	26878.74
633.788	25934.62
633.982	25297.7
634.176	24396.6
634.369	23331.65
634.563	22666.06
634.757	21793.63
634.951	21136.23
635.145	20226.93
635.339	19504
635.533	18609.04
635.726	17943.45
635.92	17316.77
636.114	16642.99
636.308	15934.39
636.501	15186.88
636.695	14449.61
636.889	13960.15
637.083	13351.9
637.276	12497.9
637.47	12123.12
637.664	11924.47
637.857	11392
638.051	10906.63
638.244	10458.12
638.438	9896.98
638.632	9884.69
638.825	9020.45
639.019	8864.8
639.212	8393.77
639.406	8184.88
639.599	7881.78
639.793	7593.01
639.986	7322.68
640.18	6956.1
640.373	6622.28
640.567	6349.9
640.76	6186.06
640.954	6034.51
641.147	5569.62
641.34	5602.39
641.534	5377.11
641.727	5164.12
641.92	5110.88
642.114	4793.44
642.307	4549.73
642.5	4447.33
642.694	4123.76
642.887	4250.73
643.08	4179.05
643.273	3871.86
643.467	3617.91
643.66	3478.65
643.853	3196.03
644.046	3271.8
644.239	3198.07
644.432	2976.89
644.626	2649.22
644.819	2761.86
645.012	2579.59
645.205	2655.36
645.398	2593.92
645.591	2313.35
645.784	2223.24
645.977	2198.67
646.17	2043.02
646.363	2118.79
646.556	1827.98
646.749	1809.55
646.942	1819.79
647.135	1787.02
647.328	1590.42
647.521	1649.81
647.714	1578.13
647.907	1528.98
648.099	1434.77
648.292	1410.2
648.485	1348.76
648.678	1217.69
648.871	1203.35
649.064	1301.65
649.256	1164.44
649.449	1107.1
649.642	924.83
649.835	881.82
650.027	959.64
650.22	1051.8
650.413	949.4
650.605	896.16
650.798	799.9
650.991	849.05
651.183	920.73
651.376	877.73
651.568	795.81
651.761	736.42
651.954	779.42
652.146	668.83
652.339	765.09
652.531	713.89
652.724	672.93
652.916	625.83
653.109	464.04
653.301	640.16
653.494	627.87
653.686	511.14
653.879	599.2
654.071	656.54
654.263	523.43
654.456	484.52
654.648	556.19
654.84	523.43
655.033	470.18
655.225	478.37
655.417	386.21
655.61	568.48
655.802	388.26
655.994	457.89
656.186	298.15
656.379	482.47
656.571	347.3
656.763	351.4
656.955	267.43
657.148	363.69
657.34	476.32
657.532	275.62
657.724	230.57
657.916	351.4
658.108	468.13
658.3	296.1
658.492	314.53
658.684	216.23
658.876	343.21
659.068	185.51
659.26	212.14
659.452	304.29
659.644	279.72
659.836	394.4
660.028	220.33
660.22	304.29
660.412	234.66
660.604	226.47
660.796	302.25
660.988	259.24
661.18	220.33
661.372	234.66
661.563	181.42
661.755	289.96
661.947	76.97
662.139	150.7
662.331	263.33
662.522	195.75
662.714	162.98
662.906	152.74
663.097	146.6
663.289	119.98
663.481	119.98
663.673	132.26
663.864	238.76
664.056	300.2
664.247	105.64
664.439	203.94
664.631	189.61
664.822	222.38
665.014	101.55
665.205	130.22
665.397	126.12
665.588	189.61
665.78	115.88
665.971	154.79
666.163	122.02
666.354	218.28
666.546	140.46
666.737	60.59
666.929	97.45
667.12	160.94
667.311	210.09
667.503	132.26
667.694	169.13
667.885	154.79
668.077	144.55
668.268	74.92
668.459	117.93
668.651	208.04
668.842	203.94
669.033	21.67
669.224	25.77
669.416	296.1
669.607	126.12
669.798	89.26
669.989	261.29
670.18	146.6
670.371	210.09
670.563	50.35
670.754	183.46
670.945	193.7
671.136	177.32
671.327	89.26
671.518	203.94
671.709	255.14
671.9	177.32
672.091	216.23
672.282	210.09
672.473	130.22
672.664	124.07
672.855	74.92
673.046	240.81
673.237	232.62
673.428	124.07
673.619	230.57
673.809	99.5
674	265.38
674.191	173.22
674.382	44.2
674.573	27.82
674.764	132.26
674.954	244.9
675.145	152.74
675.336	199.85
675.527	154.79
675.717	91.31
675.908	156.84
676.099	66.73
676.289	95.4
676.48	38.06
676.671	181.42
676.861	50.35
677.052	173.22
677.243	146.6
677.433	160.94
677.624	271.53
677.814	208.04
678.005	189.61
678.195	277.67
678.386	105.64
678.576	214.18
678.767	93.35
678.957	158.89
679.148	203.94
679.338	271.53
679.529	230.57
679.719	142.5
679.909	199.85
680.1	232.62
680.29	197.8
680.481	50.35
680.671	203.94
680.861	193.7
681.052	136.36
681.242	109.74
681.432	279.72
681.622	189.61
681.813	97.45
682.003	187.56
682.193	93.35
682.383	189.61
682.573	232.62
682.764	191.66
682.954	126.12
683.144	246.95
683.334	177.32
683.524	214.18
683.714	144.55
683.904	230.57
684.094	154.79
684.284	230.57
684.474	265.38
684.664	304.29
684.854	283.81
685.044	205.99
685.234	246.95
685.424	236.71
685.614	148.65
685.804	328.87
685.994	322.73
686.184	232.62
686.374	230.57
686.564	222.38
686.753	214.18
686.943	201.9
687.133	177.32
687.323	210.09
687.513	220.33
687.702	171.18
687.892	146.6
688.082	257.19
688.272	218.28
688.461	197.8
688.651	345.25
688.841	279.72
689.03	212.14
689.22	212.14
689.41	238.76
689.599	234.66
689.789	144.55
689.979	292.01
690.168	171.18
690.358	300.2
690.547	212.14
690.737	181.42
690.926	205.99
691.116	253.09
691.305	312.49
691.495	292.01
691.684	146.6
691.874	177.32
692.063	185.51
692.252	271.53
692.442	267.43
692.631	154.79
692.82	199.85
693.01	259.24
693.199	167.08
693.388	236.71
693.578	136.36
693.767	230.57
693.956	158.89
694.146	185.51
694.335	271.53
694.524	197.8
694.713	234.66
694.902	162.98
695.092	156.84
695.281	171.18
695.47	179.37
695.659	205.99
695.848	158.89
696.037	95.4
696.226	181.42
696.415	156.84
696.604	289.96
696.793	287.91
696.982	179.37
697.171	298.15
697.36	156.84
697.549	205.99
697.738	79.02
697.927	111.78
698.116	87.21
698.305	310.44
698.494	185.51
698.683	175.27
698.872	367.78
699.061	160.94
699.25	97.45
699.438	222.38
699.627	150.7
699.816	224.42
700.005	111.78
700.193	105.64
700.382	230.57
700.571	185.51
700.76	232.62
700.948	212.14
701.137	285.86
701.326	273.57
701.514	119.98
701.703	167.08
701.892	212.14
702.08	335.01
702.269	259.24
702.457	126.12
702.646	238.76
702.834	146.6
703.023	285.86
703.212	228.52
703.4	173.22
703.589	140.46
703.777	124.07
703.965	136.36
704.154	105.64
704.342	66.73
704.531	117.93
704.719	218.28
704.907	275.62
705.096	132.26
705.284	126.12
705.472	136.36
705.661	187.56
705.849	261.29
706.037	185.51
706.226	195.75
706.414	156.84
706.602	171.18
706.79	240.81
706.979	181.42
707.167	212.14
707.355	91.31
707.543	238.76
707.731	228.52
707.919	193.7
708.107	142.5
708.296	140.46
708.484	187.56
708.672	222.38
708.86	175.27
709.048	169.13
709.236	62.63
709.424	253.09
709.612	255.14
709.8	72.87
709.988	160.94
710.176	255.14
710.364	181.42
710.551	210.09
710.739	263.33
710.927	122.02
711.115	253.09
711.303	189.61
711.491	185.51
711.679	177.32
711.866	193.7
712.054	130.22
712.242	179.37
712.43	244.9
712.617	122.02
712.805	285.86
712.993	146.6
713.181	158.89
713.368	234.66
713.556	115.88
713.744	193.7
713.931	335.01
714.119	226.47
714.306	189.61
714.494	171.18
714.682	203.94
714.869	199.85
715.057	175.27
715.244	167.08
715.432	228.52
715.619	167.08
715.807	195.75
715.994	160.94
716.182	236.71
716.369	269.48
716.556	281.77
716.744	175.27
716.931	97.45
717.119	224.42
717.306	212.14
717.493	246.95
717.681	201.9
717.868	169.13
718.055	246.95
718.242	220.33
718.43	257.19
718.617	279.72
718.804	113.83
718.991	345.25
719.179	267.43
719.366	212.14
719.553	273.57
719.74	238.76
719.927	146.6
720.114	218.28
720.301	189.61
720.488	259.24
720.676	144.55
720.863	257.19
721.05	402.6
721.237	189.61
721.424	179.37
721.611	177.32
721.798	101.55
721.985	191.66
722.172	226.47
722.358	246.95
722.545	271.53
722.732	152.74
722.919	316.58
723.106	277.67
723.293	255.14
723.48	238.76
723.667	236.71
723.853	316.58
724.04	287.91
724.227	300.2
724.414	179.37
724.6	249
724.787	337.06
724.974	347.3
725.161	234.66
725.347	113.83
725.534	249
725.72	212.14
725.907	279.72
726.094	294.05
726.28	183.46
726.467	171.18
726.653	148.65
726.84	249
727.027	320.68
727.213	165.03
727.4	269.48
727.586	208.04
727.773	107.69
727.959	191.66
728.145	271.53
728.332	271.53
728.518	236.71
728.705	341.16
728.891	222.38
729.077	165.03
729.264	173.22
729.45	222.38
729.636	310.44
729.823	269.48
730.009	300.2
730.195	320.68
730.382	216.23
730.568	173.22
730.754	236.71
730.94	210.09
731.126	289.96
731.313	277.67
731.499	271.53
731.685	275.62
731.871	238.76
732.057	263.33
732.243	375.97
732.429	302.25
732.615	320.68
732.801	332.97
732.987	330.92
733.173	349.35
733.359	189.61
733.545	232.62
733.731	214.18
733.917	285.86
734.103	251.05
734.289	210.09
734.475	230.57
734.661	351.4
734.847	287.91
735.033	212.14
735.219	300.2
735.404	236.71
735.59	107.69
735.776	205.99
735.962	285.86
736.148	294.05
736.333	318.63
736.519	230.57
736.705	242.85
736.89	216.23
737.076	289.96
737.262	162.98
737.447	263.33
737.633	181.42
737.819	355.49
738.004	185.51
738.19	195.75
738.375	300.2
738.561	369.83
738.747	324.77
738.932	140.46
739.118	390.31
739.303	285.86
739.489	238.76
739.674	218.28
739.859	232.62
740.045	330.92
740.23	189.61
740.416	173.22
740.601	220.33
740.786	279.72
740.972	302.25
741.157	150.7
741.342	185.51
741.528	136.36
741.713	423.08
741.898	177.32
742.084	283.81
742.269	249
742.454	271.53
742.639	371.88
742.824	253.09
743.01	279.72
743.195	408.74
743.38	269.48
743.565	185.51
743.75	271.53
743.935	273.57
744.12	363.69
744.305	259.24
744.49	306.34
744.675	249
744.86	183.46
745.045	253.09
745.23	279.72
745.415	251.05
745.6	363.69
745.785	265.38
745.97	275.62
746.155	306.34
746.34	294.05
746.525	255.14
746.71	355.49
746.895	136.36
747.079	117.93
747.264	220.33
747.449	310.44
747.634	232.62
747.819	242.85
748.003	146.6
748.188	99.5
748.373	269.48
748.557	212.14
748.742	324.77
748.927	255.14
749.111	122.02
749.296	242.85
749.481	197.8
749.665	251.05
749.85	210.09
750.034	210.09
750.219	253.09
750.404	160.94
750.588	251.05
750.773	134.31
750.957	216.23
751.141	111.78
751.326	249
751.51	119.98
751.695	210.09
751.879	162.98
752.064	263.33
752.248	193.7
752.432	269.48
752.617	193.7
752.801	185.51
752.985	142.5
753.17	263.33
753.354	138.41
753.538	232.62
753.722	132.26
753.907	138.41
754.091	48.3
754.275	212.14
754.459	128.17
754.643	144.55
754.828	218.28
755.012	210.09
755.196	97.45
755.38	165.03
755.564	165.03
755.748	144.55
755.932	230.57
756.116	193.7
756.3	152.74
756.484	48.3
756.668	216.23
756.852	17.58
757.036	140.46
757.22	162.98
757.404	156.84
757.588	236.71
757.772	144.55
757.956	136.36
758.14	226.47
758.323	101.55
758.507	179.37
758.691	128.17
758.875	185.51
759.059	224.42
759.242	91.31
759.426	251.05
759.61	160.94
759.794	150.7
759.977	199.85
760.161	369.83
760.345	234.66
760.528	216.23
760.712	152.74
760.895	171.18
761.079	124.07
761.263	138.41
761.446	111.78
761.63	146.6
761.813	257.19
761.997	72.87
762.18	115.88
762.364	175.27
762.547	33.96
762.731	87.21
762.914	124.07
763.098	105.64
763.281	111.78
763.464	15.53
763.648	228.52
763.831	76.97
764.015	54.44
764.198	101.55
764.381	91.31
764.564	99.5
764.748	136.36
764.931	230.57
765.114	79.02
765.297	148.65
765.481	-7
765.664	58.54
765.847	85.16
766.03	205.99
766.213	-33.62
766.397	36.01
766.58	-7
766.763	101.55
766.946	70.83
767.129	56.49
767.312	7.34
767.495	87.21
767.678	91.31
767.861	128.17
768.044	5.29
768.227	83.11
768.41	52.39
768.593	72.87
768.776	130.22
768.959	126.12
769.142	222.38
769.324	40.11
769.507	167.08
769.69	99.5
769.873	38.06
770.056	160.94
770.239	-21.33
770.421	169.13
770.604	138.41
770.787	44.2
770.97	-4.95
771.152	31.91
771.335	103.59
771.518	29.87
771.7	128.17
771.883	169.13
772.066	9.39
772.248	83.11
772.431	169.13
772.613	177.32
772.796	101.55
772.978	52.39
773.161	201.9
773.343	85.16
773.526	29.87
773.708	36.01
773.891	23.72
774.073	81.07
774.256	11.43
774.438	169.13
774.621	31.91
774.803	74.92
774.985	27.82
775.168	103.59
775.35	76.97
775.532	87.21
775.715	64.68
775.897	148.65
776.079	5.29
776.261	160.94
776.444	11.43
776.626	58.54
776.808	42.15
776.99	-45.91
777.173	-2.9
777.355	42.15
777.537	76.97
777.719	79.02
777.901	23.72
778.083	-0.85
778.265	-9.05
778.447	93.35
778.629	-4.95
778.811	-90.96
778.993	89.26
779.175	85.16
779.357	21.67
779.539	-41.81
779.721	29.87
779.903	42.15
780.085	1.19
780.267	42.15
780.449	76.97
780.631	42.15
780.812	189.61
780.994	19.63
781.176	42.15
781.358	119.98
781.54	23.72
781.721	-4.95
781.903	117.93
782.085	70.83
782.267	93.35
782.448	-111.44
782.63	21.67
782.812	50.35
782.993	70.83
783.175	87.21
783.357	56.49
783.538	140.46
783.72	36.01
783.901	17.58
784.083	70.83
784.264	-31.57
784.446	-0.85
784.627	-70.48
784.809	46.25
784.99	15.53
785.172	119.98
785.353	76.97
785.535	156.84
785.716	50.35
785.897	-50
786.079	85.16
786.26	-23.38
786.441	52.39
786.623	-21.33
786.804	-43.86
786.985	29.87
787.167	117.93
787.348	11.43
787.529	-15.19
787.71	240.81
787.891	56.49
788.073	21.67
788.254	-54.1
788.435	199.85
788.616	21.67
788.797	101.55
788.978	74.92
789.159	17.58
789.34	99.5
789.522	54.44
789.703	-43.86
789.884	-60.24
790.065	5.29
790.246	130.22
790.427	-27.48
790.607	101.55
790.788	85.16
790.969	-27.48
791.15	111.78
791.331	52.39
791.512	44.2
791.693	-82.77
791.874	7.34
792.054	218.28
792.235	144.55
792.416	-84.82
792.597	-0.85
792.778	27.82
792.958	70.83
793.139	-17.24
793.32	64.68
793.5	-99.16
793.681	95.4
793.862	60.59
794.042	-25.43
794.223	-56.15
794.404	-27.48
794.584	-64.34
794.765	9.39
794.945	72.87
795.126	101.55
795.306	124.07
795.487	15.53
795.667	-7
795.848	15.53
796.028	60.59
796.209	27.82
796.389	54.44
796.57	74.92
796.75	11.43
796.93	21.67
797.111	-88.92
797.291	9.39
797.471	103.59
797.652	76.97
797.832	-13.14
798.012	179.37
798.192	-15.19
798.373	19.63
798.553	-2.9
798.733	97.45
798.913	31.91
799.093	25.77
799.274	27.82
799.454	11.43
799.634	62.63
799.814	72.87
799.994	91.31
800.174	21.67
800.354	62.63
800.534	-72.53
800.714	46.25
800.894	-76.63
801.074	-43.86
801.254	-56.15
801.434	70.83
801.614	-76.63
801.794	-88.92
801.974	1604.75
802.154	-33.62
802.334	-9.05
802.514	-86.87
802.693	-35.67
802.873	76.97
803.053	119.98
803.233	95.4
803.413	40.11
803.592	1.19
803.772	-25.43
803.952	46.25
804.131	-25.43
804.311	58.54
804.491	119.98
804.67	-101.2
804.85	7.34
805.03	7.34
805.209	97.45
805.389	-11.09
805.568	-4.95
805.748	-39.76
805.928	83.11
806.107	128.17
806.287	70.83
806.466	48.3
806.646	-4.95
806.825	15.53
807.004	17.58
807.184	97.45
807.363	162.98
807.543	50.35
807.722	-50
807.901	132.26
808.081	48.3
808.26	-107.35
808.439	-9.05
808.619	66.73
808.798	33.96
808.977	68.78
809.156	111.78
809.336	15.53
809.515	-29.52
809.694	-56.15
809.873	17.58
810.052	60.59
810.231	81.07
810.411	-2.9
810.59	117.93
810.769	62.63
810.948	62.63
811.127	-131.92
811.306	29.87
811.485	-72.53
811.664	144.55
811.843	36.01
812.022	7.34
812.201	-33.62
812.38	36.01
812.559	-95.06
812.737	56.49
812.916	-58.2
813.095	-39.76
813.274	66.73
813.453	5.29
813.632	46.25
813.811	83.11
813.989	-31.57
814.168	70.83
814.347	-54.1
814.526	23.72
814.704	70.83
814.883	46.25
815.062	-11.09
815.24	7.34
815.419	-0.85
815.598	50.35
815.776	-93.01
815.955	-17.24
816.133	-41.81
816.312	-9.05
816.49	-70.48
816.669	-27.48
816.847	11.43
817.026	56.49
817.204	-19.29
817.383	-23.38
817.561	-95.06
817.74	3.24
817.918	-19.29
818.097	-15.19
818.275	-27.48
818.453	9.39
818.632	81.07
818.81	-86.87
818.988	7.34
819.167	-39.76
819.345	29.87
819.523	3.24
819.701	46.25
819.879	62.63
820.058	21.67
820.236	33.96
820.414	7.34
820.592	-78.68
820.77	-37.72
820.948	-21.33
821.127	-50
821.305	93.35
821.483	-97.11
821.661	101.55
821.839	9.39
822.017	-47.96
822.195	64.68
822.373	70.83
822.551	76.97
822.729	101.55
822.907	-21.33
823.085	93.35
823.262	48.3
823.44	1.19
823.618	-39.76
823.796	58.54
823.974	15.53
824.152	-21.33
824.329	66.73
824.507	64.68
824.685	-41.81
824.863	-70.48
825.04	31.91
825.218	79.02
825.396	-56.15
825.574	40.11
825.751	38.06
825.929	19.63
826.107	-60.24
826.284	-25.43
826.462	27.82
826.639	-27.48
826.817	-109.4
826.994	-15.19
827.172	-58.2
827.349	89.26
827.527	5.29
827.704	-9.05
827.882	103.59
828.059	27.82
828.237	19.63
828.414	-9.05
828.591	-72.53
828.769	3.24
828.946	-64.34
829.124	62.63
829.301	101.55
829.478	17.58
829.655	62.63
829.833	3.24
830.01	-152.4
830.187	-43.86
830.364	19.63
830.542	21.67
830.719	119.98
830.896	113.83
831.073	-17.24
831.25	27.82
831.427	64.68
831.604	-47.96
831.782	-43.86
831.959	68.78
832.136	-41.81
832.313	-2.9
832.49	1.19
832.667	50.35
832.844	13.48
833.021	103.59
833.198	13.48
833.374	7.34
833.551	46.25
833.728	-41.81
833.905	93.35
834.082	-99.16
834.259	31.91
834.436	83.11
834.612	-129.88
834.789	105.64
834.966	19.63
835.143	-13.14
835.319	-29.52
835.496	25.77
835.673	64.68
835.85	44.2
836.026	38.06
836.203	68.78
836.38	-58.2
836.556	-4.95
836.733	-27.48
836.909	101.55
837.086	23.72
837.262	-115.54
837.439	-15.19
837.616	-27.48
837.792	-74.58
837.968	-43.86
838.145	-101.2
838.321	-72.53
838.498	54.44
838.674	76.97
838.851	119.98
839.027	-50
839.203	-19.29
839.38	52.39
839.556	-29.52
839.732	-4.95
839.909	31.91
840.085	72.87
840.261	-52.05
840.437	33.96
840.614	33.96
840.79	58.54
840.966	3.24
841.142	-4.95
841.318	-0.85
841.494	79.02
841.671	48.3
841.847	19.63
842.023	-33.62
842.199	29.87
842.375	122.02
842.551	-115.54
842.727	-47.96
842.903	185.51
843.079	-23.38
843.255	124.07
843.431	-4.95
843.607	33.96
843.783	-64.34
843.959	54.44
844.134	11.43
844.31	76.97
844.486	-52.05
844.662	-60.24
844.838	54.44
845.013	40.11
845.189	76.97
845.365	15.53
845.541	19.63
845.716	-54.1
845.892	97.45
846.068	-7
846.244	-84.82
846.419	27.82
846.595	-33.62
846.77	-21.33
846.946	83.11
847.122	-66.39
847.297	40.11
847.473	154.79
847.648	-45.91
847.824	29.87
847.999	-162.64
848.175	-25.43
848.35	87.21
848.526	7.34
848.701	42.15
848.876	156.84
849.052	76.97
849.227	33.96
849.403	27.82
849.578	15.53
849.753	-47.96
849.929	87.21
850.104	-84.82
850.279	-27.48
850.454	29.87
850.63	15.53
850.805	-19.29
850.98	101.55
851.155	-15.19
851.33	95.4
851.505	-129.88
851.681	150.7
851.856	-82.77
852.031	44.2
852.206	31.91
852.381	-35.67
852.556	13.48
852.731	1.19
852.906	54.44
853.081	-4.95
853.256	70.83
853.431	19.63
853.606	-21.33
853.781	-95.06
853.956	-101.2
854.131	76.97
854.305	50.35
854.48	-21.33
854.655	-52.05
854.83	-107.35
855.005	-93.01
855.18	-4.95
855.354	-50
855.529	9.39
855.704	13.48
855.879	-15.19
856.053	-74.58
856.228	-0.85
856.403	-101.2
856.577	29.87
856.752	-146.26
856.926	23.72
857.101	-41.81
857.276	-60.24
857.45	-7
857.625	-9.05
857.799	-47.96
857.974	5.29
858.148	-144.21
858.323	9.39
858.497	-60.24
858.672	-13.14
858.846	-37.72
859.02	66.73
859.195	-64.34
859.369	-60.24
859.543	11.43
859.718	-31.57
859.892	40.11
860.066	31.91
860.241	-31.57
860.415	-80.72
860.589	17.58
860.763	-2.9
860.938	-37.72
861.112	33.96
861.286	-47.96
861.46	-41.81
861.634	74.92
861.808	40.11
861.982	-17.24
862.157	-164.69
862.331	-66.39
862.505	-115.54
862.679	15.53
862.853	-13.14
863.027	-9.05
863.201	122.02
863.375	-43.86
863.549	60.59
863.722	11.43
863.896	91.31
864.07	-27.48
864.244	52.39
864.418	60.59
864.592	33.96
864.766	64.68
864.939	50.35
865.113	54.44
865.287	97.45
865.461	-131.92
865.634	29.87
865.808	46.25
865.982	-7
866.156	-11.09
866.329	-119.64
866.503	-25.43
866.676	9.39
866.85	48.3
867.024	-39.76
867.197	29.87
867.371	42.15
867.544	33.96
867.718	-136.02
867.891	146.6
868.065	54.44
868.238	85.16
868.412	54.44
868.585	5.29
868.759	-66.39
868.932	-25.43
869.105	-37.72
869.279	-19.29
869.452	-35.67
869.625	1.19
869.799	-4.95
869.972	-140.12
870.145	-11.09
870.319	33.96
870.492	-64.34
870.665	-15.19
870.838	-25.43
871.011	-160.59
871.185	-15.19
871.358	-62.29
871.531	54.44
871.704	38.06
871.877	-25.43
872.05	29.87
872.223	-76.63
872.396	81.07
872.569	60.59
872.742	-47.96
872.915	-13.14
873.088	-66.39
873.261	-64.34
873.434	21.67
873.607	-33.62
873.78	74.92
873.953	-54.1
874.126	-15.19
874.299	33.96
874.471	-66.39
874.644	-37.72
874.817	-19.29
874.99	66.73
875.163	-103.25
875.335	3.24
875.508	-2.9
875.681	21.67
875.853	-68.44
876.026	-0.85
876.199	5.29
876.371	68.78
876.544	-45.91
876.717	-13.14
876.889	11.43
877.062	-0.85
877.234	-68.44
877.407	-7
877.579	-45.91
877.752	52.39
877.924	36.01
878.097	17.58
878.269	72.87
878.442	119.98
878.614	23.72
878.786	54.44
878.959	21.67
879.131	-31.57
879.303	-29.52
879.476	-50
879.648	87.21
879.82	-27.48
879.993	11.43
880.165	-11.09
880.337	-154.45
880.509	1.19
880.681	-119.64
880.854	-93.01
881.026	64.68
881.198	177.32
881.37	-45.91
881.542	68.78
881.714	11.43
881.886	-37.72
882.058	19.63
882.23	-4.95
882.402	-52.05
882.574	42.15
882.746	68.78
882.918	44.2
883.09	52.39
883.262	-54.1
883.434	13.48
883.606	-105.3
883.778	25.77
883.95	117.93
884.122	-35.67
884.293	36.01
884.465	-11.09
884.637	103.59
884.809	-142.16
884.98	1.19
885.152	68.78
885.324	38.06
885.496	-80.72
885.667	-17.24
885.839	38.06
886.011	72.87
886.182	87.21
886.354	70.83
886.525	-13.14
886.697	60.59
886.869	-56.15
887.04	-56.15
887.212	25.77
887.383	46.25
887.555	-9.05
887.726	-4.95
887.897	-29.52
888.069	9.39
888.24	50.35
888.412	40.11
888.583	-99.16
888.754	33.96
888.926	-105.3
889.097	-33.62
889.268	-136.02
889.44	107.69
889.611	-148.31
889.782	-43.86
889.953	-86.87
890.125	5.29
890.296	-136.02
890.467	38.06
890.638	-21.33
890.809	7.34
890.98	-31.57
891.151	33.96
891.323	74.92
891.494	46.25
891.665	25.77
891.836	13.48
892.007	-37.72
892.178	19.63
892.349	9.39
892.52	-103.25
892.691	36.01
892.862	-97.11
893.032	-138.07
893.203	-74.58
893.374	-58.2
893.545	66.73
893.716	-68.44
893.887	66.73
894.057	-23.38
894.228	-25.43
894.399	3.24
894.57	101.55
894.74	-45.91
894.911	-15.19
895.082	-17.24
895.253	-109.4
895.423	-2.9
895.594	66.73
895.764	31.91
895.935	-78.68
896.106	7.34
896.276	-17.24
896.447	17.58
896.617	-9.05
896.788	27.82
896.958	-11.09
897.129	27.82
897.299	-9.05
897.47	50.35
897.64	25.77
897.81	19.63
897.981	36.01
898.151	-41.81
898.322	-43.86
898.492	7.34
898.662	-70.48
898.832	-52.05
899.003	-21.33
899.173	17.58
899.343	-35.67
899.513	-72.53
