Data from USB4F104151__207__11-05-42-929.txt Node

Date: Wed Feb 26 11:05:42 EST 2025
User: louis
Spectrometer: USB4F10415
Trigger mode: 4
Integration Time (sec): 1.000000E-1
Scans to average: 1
Electric dark correction enabled: true
Nonlinearity correction enabled: false
Boxcar width: 0
XAxis mode: Wavelengths
Number of Pixels in Spectrum: 3648
>>>>>Begin Spectral Data<<<<<
178.204	-348.33
178.424	-348.33
178.644	-348.33
178.864	-417.96
179.084	-331.94
179.304	-6.31
179.524	3.93
179.744	12.12
179.964	5.97
180.184	-0.17
180.404	30.55
180.624	42.84
180.844	26.45
181.064	-45.23
181.283	53.08
181.503	-100.52
181.723	-22.7
181.943	-77.99
182.163	221.01
182.383	79.7
182.602	83.8
182.822	159.57
183.042	48.98
183.262	-32.94
183.482	-2.22
183.701	65.36
183.921	110.42
184.141	3.93
184.361	59.22
184.58	-12.46
184.8	110.42
185.02	-8.36
185.239	96.08
185.459	48.98
185.679	149.33
185.898	-41.13
186.118	26.45
186.338	122.71
186.557	71.51
186.777	-0.17
186.997	28.5
187.216	46.93
187.436	161.62
187.655	42.84
187.875	67.41
188.095	51.03
188.314	112.47
188.534	110.42
188.753	-98.47
188.973	112.47
189.192	98.13
189.412	65.36
189.631	22.36
189.851	38.74
190.07	120.66
190.29	10.07
190.509	-57.51
190.729	1.88
190.948	165.71
191.168	216.91
191.387	77.65
191.607	79.7
191.826	98.13
192.045	112.47
192.265	-28.84
192.484	59.22
192.704	96.08
192.923	26.45
193.142	188.24
193.362	110.42
193.581	137.04
193.8	96.08
194.02	83.8
194.239	38.74
194.458	40.79
194.678	20.31
194.897	3.93
195.116	36.69
195.335	40.79
195.555	73.56
195.774	16.21
195.993	112.47
196.212	55.12
196.432	57.17
196.651	34.64
196.87	65.36
197.089	337.74
197.308	28.5
197.528	71.51
197.747	-59.56
197.966	73.56
198.185	122.71
198.404	-18.6
198.623	85.84
198.842	94.04
199.062	77.65
199.281	89.94
199.5	24.4
199.719	73.56
199.938	34.64
200.157	77.65
200.376	102.23
200.595	147.28
200.814	100.18
201.033	-41.13
201.252	124.76
201.471	65.36
201.69	112.47
201.909	98.13
202.128	59.22
202.347	71.51
202.566	51.03
202.785	-94.38
203.004	-24.75
203.223	259.92
203.442	100.18
203.661	-34.99
203.879	98.13
204.098	132.95
204.317	-18.6
204.536	118.61
204.755	81.75
204.974	100.18
205.193	14.17
205.411	214.87
205.63	130.9
205.849	85.84
206.068	30.55
206.287	83.8
206.505	157.52
206.724	-4.27
206.943	61.27
207.162	8.02
207.381	63.32
207.599	32.6
207.818	57.17
208.037	-0.17
208.255	34.64
208.474	42.84
208.693	10.07
208.911	-34.99
209.13	67.41
209.349	114.52
209.567	63.32
209.786	106.32
210.005	20.31
210.223	53.08
210.442	-61.61
210.661	69.46
210.879	24.4
211.098	32.6
211.316	139.09
211.535	63.32
211.753	61.27
211.972	149.33
212.191	61.27
212.409	5.97
212.628	143.19
212.846	-0.17
213.065	20.31
213.283	163.67
213.502	61.27
213.72	22.36
213.938	79.7
214.157	16.21
214.375	38.74
214.594	59.22
214.812	75.6
215.031	24.4
215.249	114.52
215.467	73.56
215.686	18.26
215.904	120.66
216.122	61.27
216.341	141.14
216.559	112.47
216.778	30.55
216.996	153.43
217.214	67.41
217.432	-20.65
217.651	16.21
217.869	57.17
218.087	32.6
218.306	98.13
218.524	122.71
218.742	73.56
218.96	112.47
219.179	14.17
219.397	69.46
219.615	270.16
219.833	149.33
220.051	-18.6
220.27	69.46
220.488	128.85
220.706	75.6
220.924	8.02
221.142	67.41
221.36	67.41
221.578	65.36
221.796	32.6
222.015	14.17
222.233	98.13
222.451	102.23
222.669	3.93
222.887	40.79
223.105	38.74
223.323	42.84
223.541	-30.89
223.759	36.69
223.977	51.03
224.195	221.01
224.413	18.26
224.631	77.65
224.849	42.84
225.067	171.86
225.285	-12.46
225.503	1.88
225.721	-116.9
225.939	59.22
226.157	-14.51
226.375	192.34
226.592	22.36
226.81	32.6
227.028	149.33
227.246	139.09
227.464	69.46
227.682	186.19
227.9	83.8
228.117	98.13
228.335	106.32
228.553	79.7
228.771	-0.17
228.989	79.7
229.206	124.76
229.424	38.74
229.642	77.65
229.86	-57.51
230.077	161.62
230.295	81.75
230.513	159.57
230.731	71.51
230.948	155.47
231.166	145.24
231.384	-24.75
231.601	14.17
231.819	202.58
232.037	-75.95
232.254	-26.79
232.472	98.13
232.689	30.55
232.907	98.13
233.125	-24.75
233.342	-69.8
233.56	91.99
233.777	-12.46
233.995	-4.27
234.213	-2.22
234.43	81.75
234.648	12.12
234.865	12.12
235.083	85.84
235.3	118.61
235.518	89.94
235.735	18.26
235.953	87.89
236.17	-26.79
236.388	38.74
236.605	79.7
236.822	85.84
237.04	141.14
237.257	108.37
237.475	5.97
237.692	18.26
237.909	89.94
238.127	12.12
238.344	20.31
238.562	26.45
238.779	3.93
238.996	42.84
239.214	102.23
239.431	151.38
239.648	32.6
239.865	77.65
240.083	91.99
240.3	16.21
240.517	1.88
240.735	24.4
240.952	46.93
241.169	48.98
241.386	87.89
241.603	83.8
241.821	-14.51
242.038	108.37
242.255	89.94
242.472	10.07
242.689	30.55
242.907	96.08
243.124	77.65
243.341	-51.37
243.558	-16.55
243.775	-6.31
243.992	-73.9
244.209	81.75
244.426	182.1
244.643	22.36
244.86	75.6
245.078	71.51
245.295	59.22
245.512	-18.6
245.729	57.17
245.946	116.56
246.163	124.76
246.38	-10.41
246.597	53.08
246.814	-28.84
247.031	57.17
247.248	20.31
247.464	118.61
247.681	69.46
247.898	79.7
248.115	91.99
248.332	-61.61
248.549	79.7
248.766	91.99
248.983	87.89
249.2	57.17
249.417	122.71
249.633	28.5
249.85	110.42
250.067	5.97
250.284	65.36
250.501	40.79
250.717	139.09
250.934	5.97
251.151	59.22
251.368	12.12
251.585	149.33
251.801	42.84
252.018	-59.56
252.235	130.9
252.451	42.84
252.668	22.36
252.885	143.19
253.102	71.51
253.318	5.97
253.535	12.12
253.752	36.69
253.968	-26.79
254.185	-106.67
254.401	65.36
254.618	141.14
254.835	5.97
255.051	130.9
255.268	104.28
255.484	116.56
255.701	3.93
255.917	147.28
256.134	22.36
256.351	79.7
256.567	-24.75
256.784	48.98
257	-71.85
257.217	126.8
257.433	132.95
257.65	46.93
257.866	122.71
258.082	1.88
258.299	20.31
258.515	79.7
258.732	8.02
258.948	53.08
259.165	26.45
259.381	-16.55
259.597	89.94
259.814	46.93
260.03	63.32
260.246	89.94
260.463	75.6
260.679	192.34
260.895	73.56
261.112	91.99
261.328	89.94
261.544	-28.84
261.761	94.04
261.977	36.69
262.193	-55.47
262.409	141.14
262.626	124.76
262.842	63.32
263.058	-43.18
263.274	77.65
263.49	77.65
263.707	57.17
263.923	147.28
264.139	-57.51
264.355	36.69
264.571	141.14
264.787	69.46
265.004	159.57
265.22	61.27
265.436	8.02
265.652	-6.31
265.868	110.42
266.084	-26.79
266.3	108.37
266.516	-63.66
266.732	-18.6
266.948	44.88
267.164	-34.99
267.38	100.18
267.596	118.61
267.812	169.81
268.028	87.89
268.244	8.02
268.46	94.04
268.676	20.31
268.892	40.79
269.108	20.31
269.324	12.12
269.54	12.12
269.756	79.7
269.972	-39.08
270.188	-20.65
270.403	14.17
270.619	-100.52
270.835	14.17
271.051	32.6
271.267	57.17
271.483	28.5
271.698	-0.17
271.914	85.84
272.13	69.46
272.346	-51.37
272.562	8.02
272.777	155.47
272.993	77.65
273.209	28.5
273.425	89.94
273.64	-4.27
273.856	91.99
274.072	-30.89
274.287	16.21
274.503	79.7
274.719	48.98
274.934	36.69
275.15	-20.65
275.366	85.84
275.581	-14.51
275.797	38.74
276.012	8.02
276.228	-12.46
276.444	75.6
276.659	161.62
276.875	1.88
277.09	57.17
277.306	22.36
277.521	53.08
277.737	26.45
277.952	53.08
278.168	71.51
278.383	57.17
278.599	51.03
278.814	28.5
279.03	5.97
279.245	135
279.461	130.9
279.676	161.62
279.892	-30.89
280.107	-20.65
280.322	22.36
280.538	126.8
280.753	44.88
280.969	18.26
281.184	20.31
281.399	204.63
281.615	24.4
281.83	98.13
282.045	-39.08
282.26	18.26
282.476	67.41
282.691	114.52
282.906	116.56
283.122	108.37
283.337	-61.61
283.552	126.8
283.767	1.88
283.983	34.64
284.198	-20.65
284.413	53.08
284.628	3.93
284.843	48.98
285.058	112.47
285.274	36.69
285.489	12.12
285.704	155.47
285.919	-6.31
286.134	42.84
286.349	73.56
286.564	30.55
286.779	225.11
286.995	14.17
287.21	22.36
287.425	98.13
287.64	-10.41
287.855	85.84
288.07	-39.08
288.285	155.47
288.5	161.62
288.715	57.17
288.93	28.5
289.145	106.32
289.36	143.19
289.575	32.6
289.79	118.61
290.004	-0.17
290.219	161.62
290.434	42.84
290.649	1.88
290.864	42.84
291.079	-30.89
291.294	16.21
291.509	73.56
291.724	53.08
291.938	-32.94
292.153	118.61
292.368	22.36
292.583	85.84
292.798	22.36
293.012	40.79
293.227	51.03
293.442	8.02
293.657	38.74
293.871	163.67
294.086	94.04
294.301	210.77
294.516	190.29
294.73	55.12
294.945	-43.18
295.16	-0.17
295.374	81.75
295.589	102.23
295.804	-24.75
296.018	65.36
296.233	132.95
296.447	91.99
296.662	-14.51
296.877	100.18
297.091	63.32
297.306	67.41
297.52	22.36
297.735	32.6
297.949	151.38
298.164	24.4
298.378	87.89
298.593	-77.99
298.807	-10.41
299.022	-2.22
299.236	112.47
299.451	32.6
299.665	-0.17
299.88	69.46
300.094	114.52
300.309	81.75
300.523	102.23
300.737	32.6
300.952	79.7
301.166	59.22
301.381	-8.36
301.595	38.74
301.809	53.08
302.024	67.41
302.238	-16.55
302.452	149.33
302.667	44.88
302.881	104.28
303.095	135
303.309	42.84
303.524	122.71
303.738	137.04
303.952	-24.75
304.166	104.28
304.381	-34.99
304.595	169.81
304.809	59.22
305.023	98.13
305.237	36.69
305.452	32.6
305.666	81.75
305.88	61.27
306.094	106.32
306.308	155.47
306.522	71.51
306.736	53.08
306.95	73.56
307.164	18.26
307.379	34.64
307.593	186.19
307.807	182.1
308.021	145.24
308.235	73.56
308.449	-123.05
308.663	30.55
308.877	233.3
309.091	102.23
309.305	91.99
309.519	-20.65
309.733	118.61
309.947	-80.04
310.161	-37.03
310.374	36.69
310.588	75.6
310.802	-86.19
311.016	-16.55
311.23	141.14
311.444	-0.17
311.658	61.27
311.872	147.28
312.085	157.52
312.299	118.61
312.513	139.09
312.727	67.41
312.941	8.02
313.154	96.08
313.368	-2.22
313.582	81.75
313.796	22.36
314.009	65.36
314.223	161.62
314.437	65.36
314.651	85.84
314.864	-8.36
315.078	8.02
315.292	-112.81
315.505	16.21
315.719	89.94
315.933	112.47
316.146	73.56
316.36	-28.84
316.573	116.56
316.787	79.7
317.001	83.8
317.214	-65.71
317.428	36.69
317.641	53.08
317.855	-24.75
318.068	51.03
318.282	83.8
318.495	200.53
318.709	71.51
318.922	65.36
319.136	182.1
319.349	106.32
319.563	16.21
319.776	85.84
319.99	-108.71
320.203	96.08
320.417	65.36
320.63	79.7
320.843	159.57
321.057	116.56
321.27	12.12
321.483	114.52
321.697	231.25
321.91	44.88
322.124	102.23
322.337	24.4
322.55	-45.23
322.763	73.56
322.977	118.61
323.19	14.17
323.403	57.17
323.617	91.99
323.83	104.28
324.043	30.55
324.256	42.84
324.469	-77.99
324.683	114.52
324.896	1.88
325.109	94.04
325.322	-24.75
325.535	137.04
325.748	94.04
325.962	-2.22
326.175	38.74
326.388	-8.36
326.601	206.67
326.814	36.69
327.027	77.65
327.24	175.95
327.453	-28.84
327.666	57.17
327.879	128.85
328.092	96.08
328.305	73.56
328.518	-6.31
328.731	24.4
328.944	61.27
329.157	98.13
329.37	-10.41
329.583	200.53
329.796	143.19
330.009	-34.99
330.222	120.66
330.435	100.18
330.648	65.36
330.861	8.02
331.073	44.88
331.286	143.19
331.499	81.75
331.712	48.98
331.925	57.17
332.138	96.08
332.35	87.89
332.563	-24.75
332.776	128.85
332.989	-8.36
333.202	36.69
333.414	65.36
333.627	89.94
333.84	48.98
334.053	24.4
334.265	38.74
334.478	24.4
334.691	42.84
334.903	48.98
335.116	-18.6
335.329	53.08
335.541	159.57
335.754	137.04
335.966	57.17
336.179	1.88
336.392	42.84
336.604	-10.41
336.817	139.09
337.029	114.52
337.242	106.32
337.454	34.64
337.667	75.6
337.88	186.19
338.092	91.99
338.305	91.99
338.517	-41.13
338.729	55.12
338.942	112.47
339.154	-43.18
339.367	-14.51
339.579	73.56
339.792	-10.41
340.004	83.8
340.217	57.17
340.429	69.46
340.641	-41.13
340.854	-34.99
341.066	65.36
341.278	202.58
341.491	237.39
341.703	24.4
341.915	-34.99
342.128	94.04
342.34	83.8
342.552	-8.36
342.764	36.69
342.977	5.97
343.189	100.18
343.401	46.93
343.613	-24.75
343.826	42.84
344.038	-49.32
344.25	77.65
344.462	-26.79
344.674	51.03
344.886	48.98
345.099	20.31
345.311	5.97
345.523	40.79
345.735	-67.75
345.947	83.8
346.159	104.28
346.371	40.79
346.583	51.03
346.795	124.76
347.007	18.26
347.219	40.79
347.431	-2.22
347.643	106.32
347.855	16.21
348.067	159.57
348.279	-18.6
348.491	61.27
348.703	100.18
348.915	48.98
349.127	30.55
349.339	38.74
349.551	34.64
349.763	130.9
349.975	46.93
350.187	8.02
350.399	157.52
350.61	55.12
350.822	46.93
351.034	26.45
351.246	57.17
351.458	145.24
351.669	53.08
351.881	79.7
352.093	130.9
352.305	130.9
352.517	57.17
352.728	77.65
352.94	132.95
353.152	124.76
353.363	-24.75
353.575	96.08
353.787	116.56
353.999	28.5
354.21	151.38
354.422	32.6
354.633	-55.47
354.845	53.08
355.057	48.98
355.268	48.98
355.48	73.56
355.692	-6.31
355.903	-77.99
356.115	-77.99
356.326	-100.52
356.538	139.09
356.749	48.98
356.961	151.38
357.172	159.57
357.384	-0.17
357.595	212.82
357.807	-20.65
358.018	10.07
358.23	-0.17
358.441	157.52
358.653	130.9
358.864	-41.13
359.075	5.97
359.287	10.07
359.498	153.43
359.709	89.94
359.921	32.6
360.132	112.47
360.344	51.03
360.555	-0.17
360.766	48.98
360.977	30.55
361.189	184.15
361.4	44.88
361.611	114.52
361.823	8.02
362.034	108.37
362.245	-80.04
362.456	139.09
362.667	124.76
362.879	-6.31
363.09	83.8
363.301	89.94
363.512	-10.41
363.723	-0.17
363.935	28.5
364.146	77.65
364.357	-26.79
364.568	71.51
364.779	-100.52
364.99	173.91
365.201	24.4
365.412	85.84
365.623	-12.46
365.834	120.66
366.045	114.52
366.256	173.91
366.467	71.51
366.678	16.21
366.889	-12.46
367.1	30.55
367.311	102.23
367.522	40.79
367.733	100.18
367.944	112.47
368.155	36.69
368.366	87.89
368.577	221.01
368.788	169.81
368.999	-26.79
369.209	69.46
369.42	165.71
369.631	247.63
369.842	59.22
370.053	69.46
370.264	55.12
370.474	-45.23
370.685	87.89
370.896	42.84
371.107	124.76
371.317	53.08
371.528	22.36
371.739	96.08
371.95	102.23
372.16	94.04
372.371	-49.32
372.582	44.88
372.792	48.98
373.003	159.57
373.214	69.46
373.424	145.24
373.635	-28.84
373.846	112.47
374.056	42.84
374.267	153.43
374.477	38.74
374.688	-16.55
374.898	77.65
375.109	51.03
375.319	59.22
375.53	116.56
375.74	122.71
375.951	1.88
376.161	165.71
376.372	89.94
376.582	89.94
376.793	124.76
377.003	3.93
377.214	-12.46
377.424	135
377.635	59.22
377.845	-2.22
378.055	161.62
378.266	-41.13
378.476	85.84
378.686	85.84
378.897	79.7
379.107	120.66
379.317	87.89
379.528	26.45
379.738	34.64
379.948	-20.65
380.158	139.09
380.369	16.21
380.579	38.74
380.789	3.93
380.999	14.17
381.21	63.32
381.42	122.71
381.63	22.36
381.84	155.47
382.05	96.08
382.261	73.56
382.471	163.67
382.681	-28.84
382.891	212.82
383.101	218.96
383.311	-53.42
383.521	-14.51
383.731	-14.51
383.941	151.38
384.151	106.32
384.361	59.22
384.571	87.89
384.781	10.07
384.991	237.39
385.201	243.54
385.411	147.28
385.621	87.89
385.831	102.23
386.041	59.22
386.251	3.93
386.461	110.42
386.671	18.26
386.881	83.8
387.091	18.26
387.301	69.46
387.511	79.7
387.72	51.03
387.93	173.91
388.14	-47.27
388.35	55.12
388.56	65.36
388.769	63.32
388.979	32.6
389.189	10.07
389.399	30.55
389.609	83.8
389.818	104.28
390.028	16.21
390.238	128.85
390.447	-18.6
390.657	10.07
390.867	5.97
391.076	-24.75
391.286	85.84
391.496	-18.6
391.705	40.79
391.915	167.76
392.125	73.56
392.334	28.5
392.544	202.58
392.753	18.26
392.963	-2.22
393.172	71.51
393.382	-49.32
393.591	165.71
393.801	12.12
394.01	237.39
394.22	110.42
394.429	1.88
394.639	48.98
394.848	85.84
395.058	112.47
395.267	85.84
395.477	94.04
395.686	100.18
395.895	190.29
396.105	208.72
396.314	110.42
396.524	55.12
396.733	69.46
396.942	155.47
397.152	40.79
397.361	143.19
397.57	44.88
397.78	46.93
397.989	36.69
398.198	221.01
398.407	130.9
398.617	26.45
398.826	36.69
399.035	85.84
399.244	155.47
399.453	46.93
399.663	46.93
399.872	20.31
400.081	1.88
400.29	128.85
400.499	3.93
400.708	75.6
400.917	104.28
401.127	22.36
401.336	46.93
401.545	247.63
401.754	225.11
401.963	153.43
402.172	61.27
402.381	-32.94
402.59	40.79
402.799	24.4
403.008	48.98
403.217	5.97
403.426	141.14
403.635	-43.18
403.844	59.22
404.053	-2.22
404.262	59.22
404.471	137.04
404.68	69.46
404.888	26.45
405.097	65.36
405.306	118.61
405.515	85.84
405.724	79.7
405.933	100.18
406.142	167.76
406.35	149.33
406.559	112.47
406.768	42.84
406.977	143.19
407.185	120.66
407.394	91.99
407.603	94.04
407.812	34.64
408.02	63.32
408.229	26.45
408.438	16.21
408.646	-41.13
408.855	36.69
409.064	104.28
409.272	20.31
409.481	104.28
409.69	-26.79
409.898	-43.18
410.107	18.26
410.315	77.65
410.524	65.36
410.733	10.07
410.941	34.64
411.15	178
411.358	59.22
411.567	108.37
411.775	53.08
411.984	38.74
412.192	42.84
412.401	-20.65
412.609	184.15
412.818	53.08
413.026	98.13
413.234	75.6
413.443	89.94
413.651	46.93
413.86	77.65
414.068	114.52
414.276	128.85
414.485	22.36
414.693	186.19
414.901	137.04
415.11	116.56
415.318	18.26
415.526	55.12
415.734	137.04
415.943	34.64
416.151	137.04
416.359	65.36
416.567	26.45
416.776	112.47
416.984	194.39
417.192	171.86
417.4	10.07
417.608	61.27
417.817	-24.75
418.025	73.56
418.233	178
418.441	32.6
418.649	-57.51
418.857	46.93
419.065	173.91
419.273	48.98
419.481	65.36
419.689	59.22
419.897	38.74
420.105	40.79
420.313	51.03
420.521	225.11
420.729	182.1
420.937	-8.36
421.145	94.04
421.353	161.62
421.561	143.19
421.769	94.04
421.977	48.98
422.185	135
422.393	48.98
422.601	141.14
422.809	8.02
423.017	63.32
423.224	63.32
423.432	175.95
423.64	89.94
423.848	100.18
424.056	-16.55
424.263	114.52
424.471	69.46
424.679	145.24
424.887	46.93
425.094	163.67
425.302	151.38
425.51	102.23
425.718	159.57
425.925	77.65
426.133	14.17
426.341	147.28
426.548	124.76
426.756	40.79
426.964	83.8
427.171	-30.89
427.379	96.08
427.586	145.24
427.794	75.6
428.001	231.25
428.209	85.84
428.417	208.72
428.624	188.24
428.832	165.71
429.039	108.37
429.247	145.24
429.454	167.76
429.662	290.64
429.869	147.28
430.076	212.82
430.284	204.63
430.491	212.82
430.699	196.43
430.906	249.68
431.114	135
431.321	165.71
431.528	122.71
431.736	196.43
431.943	145.24
432.15	200.53
432.358	153.43
432.565	243.54
432.772	42.84
432.979	288.59
433.187	104.28
433.394	233.3
433.601	120.66
433.808	264.02
434.016	235.35
434.223	235.35
434.43	241.49
434.637	282.45
434.844	194.39
435.052	204.63
435.259	257.87
435.466	276.31
435.673	321.36
435.88	325.46
436.087	372.56
436.294	390.99
436.501	343.89
436.708	270.16
436.915	315.22
437.122	425.81
437.329	309.07
437.537	325.46
437.743	339.79
437.95	485.2
438.157	425.81
438.364	442.19
438.571	438.09
438.778	395.09
438.985	458.57
439.192	540.49
439.399	511.82
439.606	548.68
439.813	552.78
440.02	692.04
440.227	687.95
440.433	581.45
440.64	511.82
440.847	610.12
441.054	587.6
441.261	720.71
441.467	696.14
441.674	692.04
441.881	751.43
442.088	667.47
442.294	761.67
442.501	814.92
442.708	874.31
442.914	835.4
443.121	892.74
443.328	868.17
443.534	1007.43
443.741	909.13
443.948	900.94
444.154	997.19
444.361	1183.56
444.568	1027.91
444.774	1075.01
444.981	1093.44
445.187	1275.71
445.394	1292.1
445.6	1292.1
445.807	1349.44
446.013	1306.43
446.22	1341.25
446.426	1507.13
446.633	1630.01
446.839	1752.89
447.046	1554.24
447.252	1662.78
447.459	1754.94
447.665	1746.75
447.871	1912.63
448.078	2055.99
448.284	1914.68
448.491	1996.6
448.697	2076.47
448.903	2279.22
449.11	2201.4
449.316	2316.08
449.522	2524.97
449.728	2598.7
449.935	2711.34
450.141	2731.82
450.347	2844.46
450.553	2834.22
450.76	3039.01
450.966	3137.32
451.172	3223.33
451.378	3276.58
451.584	3354.4
451.791	3657.5
451.997	3671.84
452.203	3776.28
452.409	4106.01
452.615	4163.35
452.821	3852.06
453.027	4087.57
453.233	4605.71
453.44	4335.38
453.646	4718.35
453.852	4890.38
454.058	5039.88
454.264	5291.78
454.47	5654.27
454.676	5797.63
454.882	5957.37
455.088	5826.3
455.294	6213.37
455.5	6592.24
455.705	6901.48
455.911	6940.4
456.117	7028.46
456.323	7302.89
456.529	7524.07
456.735	8064.73
456.941	8314.58
457.147	8406.74
457.352	8771.28
457.558	9023.18
457.764	9602.75
457.97	10008.25
458.176	10157.75
458.381	10757.81
458.587	10700.47
458.793	11370.15
458.999	11503.27
459.204	13000.33
459.41	13381.26
459.616	13186.7
459.821	13813.38
460.027	14501.5
460.233	15251.05
460.438	15298.16
460.644	15816.29
460.85	16408.15
461.055	16873.04
461.261	17800.77
461.466	17184.34
461.672	17638.98
461.878	19922.47
462.083	19664.43
462.289	20092.45
462.494	20510.24
462.7	20934.17
462.905	21274.13
463.111	22875.64
463.316	23920.1
463.522	24462.82
463.727	25134.55
463.932	26121.67
464.138	26877.37
464.343	28198.31
464.549	28071.34
464.754	30250.38
464.959	30889.34
465.165	31645.04
465.37	31104.38
465.575	31057.28
465.781	33555.8
465.986	34401.61
466.191	33819.99
466.397	34264.39
466.602	33461.59
466.807	35489.08
467.012	35874.1
467.218	36341.03
467.423	36463.91
467.628	37524.76
467.833	39419.13
468.038	38585.61
468.244	37868.82
468.449	40242.42
468.654	39433.47
468.859	38954.24
469.064	39040.26
469.269	38210.83
469.474	38960.39
469.679	39507.19
469.885	38391.05
470.09	38946.05
470.295	39042.31
470.5	38380.81
470.705	38348.04
470.91	37393.69
471.115	37027.1
471.32	37655.83
471.525	37479.71
471.73	36328.75
471.935	36138.29
472.139	34592.07
472.344	34809.15
472.549	34741.57
472.754	33891.66
472.959	33408.34
473.164	32154.99
473.369	31563.12
473.574	32347.5
473.778	31667.57
473.983	31356.28
474.188	30840.19
474.393	29244.82
474.598	29537.68
474.802	28409.25
475.007	28267.94
475.212	27956.65
475.417	26518.98
475.621	26525.12
475.826	25992.65
476.031	25609.68
476.235	25236.95
476.44	25023.96
476.645	24253.92
476.849	24198.63
477.054	23692.78
477.259	23098.87
477.463	23096.82
477.668	22597.12
477.872	22507.01
478.077	21984.77
478.282	21411.34
478.486	21220.88
478.691	20788.76
478.895	20655.64
479.1	20504.09
479.304	20637.21
479.509	19494.44
479.713	20143.65
479.918	19557.93
480.122	19127.86
480.326	19449.39
480.531	19265.07
480.735	18791.99
480.94	18415.16
481.144	19344.94
481.348	18007.62
481.553	18443.84
481.757	17577.55
481.961	17946.18
482.166	18220.61
482.37	17872.45
482.574	17241.68
482.778	17716.81
482.983	17655.37
483.187	17430.09
483.391	17174.1
483.595	16817.75
483.8	16647.77
484.004	16598.62
484.208	16836.18
484.412	16563.8
484.616	16211.55
484.821	16287.32
485.025	15455.85
485.229	15926.88
485.433	15490.66
485.637	15371.88
485.841	14966.38
486.045	14749.3
486.249	14835.31
486.453	14491.26
486.657	14222.97
486.861	14308.99
487.065	13844.1
487.269	13864.58
487.473	13055.63
487.677	13407.88
487.881	13321.87
488.085	12983.95
488.289	12656.28
488.493	12340.89
488.697	12474.01
488.901	12150.43
489.105	11867.81
489.309	11773.6
489.512	11675.3
489.716	11206.31
489.92	11044.52
490.124	10739.38
490.328	10899.12
490.531	10553.01
490.735	10524.34
490.939	10231.48
491.143	9977.53
491.346	9780.93
491.55	9676.48
491.754	9535.17
491.958	9572.04
492.161	9254.6
492.365	9084.62
492.569	8779.47
492.772	8715.98
492.976	8758.99
493.18	8541.91
493.383	8761.04
493.587	8437.46
493.79	8431.32
493.994	8330.97
494.197	7872.22
494.401	8085.21
494.605	7988.96
494.808	7816.93
495.012	7888.6
495.215	7927.52
495.419	7810.78
495.622	7630.56
495.825	7698.14
496.029	7597.79
496.232	7710.43
496.436	7685.86
496.639	7706.34
496.843	7300.84
497.046	7341.8
497.249	7634.66
497.453	7562.98
497.656	7630.56
497.859	7583.46
498.063	7620.32
498.266	7708.38
498.469	7481.06
498.673	7683.81
498.876	7499.49
499.079	7540.45
499.282	7714.53
499.485	8097.5
499.689	7812.83
499.892	7780.06
500.095	7749.34
500.298	8079.07
500.501	7939.8
500.705	8244.95
500.908	8275.67
501.111	8273.62
501.314	8292.05
501.517	8578.77
501.72	8400.6
501.923	8410.84
502.126	8976.08
502.329	8752.85
502.532	8986.32
502.735	8742.61
502.938	8951.5
503.141	9076.43
503.344	9264.84
503.547	9537.22
503.75	9324.23
503.953	9567.94
504.156	9799.36
504.359	9952.96
504.562	9969.34
504.765	10137.27
504.968	10362.55
505.17	10557.11
505.373	10247.86
505.576	10792.62
505.779	11148.97
505.982	11120.3
506.185	11411.11
506.387	11593.38
506.59	11783.84
506.793	11857.57
506.996	12068.51
507.198	12506.77
507.401	12545.69
507.604	12910.22
507.807	13065.87
508.009	13354.63
508.212	13579.91
508.415	13872.77
508.617	14130.81
508.82	14446.2
509.022	14440.06
509.225	15033.97
509.428	15316.59
509.63	15672.93
509.833	16049.76
510.035	16604.76
510.238	16528.99
510.44	17147.47
510.643	17546.83
510.845	17897.03
511.048	18099.78
511.25	18411.07
511.453	19009.08
511.655	19799.59
511.858	20045.35
512.06	20358.69
512.262	20588.06
512.465	20983.32
512.667	21851.66
512.87	22003.21
513.072	22621.69
513.274	23236.08
513.477	23723.5
513.679	24319.46
513.881	24489.44
514.084	25421.27
514.286	25531.86
514.488	26297.8
514.69	27297.2
514.893	27440.56
515.095	28013.99
515.297	28431.78
515.499	28935.58
515.701	29762.96
515.904	30389.64
516.106	31182.2
516.308	31509.88
516.51	32537.96
516.712	32945.5
516.914	33781.07
517.116	34469.19
517.318	34620.74
517.52	35583.29
517.722	35798.32
517.925	36515.11
518.127	37598.49
518.329	37944.59
518.531	38333.71
518.733	39580.92
518.935	40232.18
519.136	40391.92
519.338	40787.17
519.54	42108.11
519.742	42509.52
519.944	42849.48
520.146	43582.65
520.348	44453.04
520.55	44477.61
520.752	45253.79
520.954	46044.31
521.155	45814.94
521.357	46757
521.559	47422.59
521.761	48217.21
521.963	48422
522.164	48837.74
522.366	49194.09
522.568	49689.7
522.77	49751.13
522.971	50553.94
523.173	50359.38
523.375	51024.97
523.576	51102.79
523.778	51401.8
523.98	51663.94
524.181	51950.65
524.383	52175.93
524.584	52636.72
524.786	52464.69
524.988	52040.76
525.189	52638.77
525.391	52892.72
525.592	53052.46
525.794	52745.26
525.995	52761.65
526.197	52622.39
526.398	52163.64
526.6	52493.36
526.801	52788.27
527.003	52280.38
527.204	51819.58
527.406	52096.06
527.607	52057.15
527.808	52200.5
528.01	50971.72
528.211	50703.44
528.412	51352.65
528.614	50713.68
528.815	50416.72
529.016	50603.09
529.218	48880.75
529.419	49421.41
529.62	48591.98
529.822	48262.26
530.023	47815.8
530.224	47649.92
530.425	47049.86
530.626	46009.5
530.828	45833.37
531.029	46064.79
531.23	45229.22
531.431	45075.62
531.632	44510.38
531.833	43816.12
532.035	43203.78
532.236	42740.94
532.437	42206.42
532.638	41465.05
532.839	41307.36
533.04	40895.72
533.241	39795.96
533.442	40133.87
533.643	39292.16
533.844	39308.54
534.045	38331.66
534.246	37643.54
534.447	37395.74
534.648	36396.33
534.849	36351.27
535.05	35419.45
535.251	35200.32
535.451	34567.49
535.652	34422.09
535.853	33916.24
536.054	33281.37
536.255	33256.79
536.456	32357.74
536.657	32394.6
536.857	31804.78
537.058	31255.93
537.259	30752.13
537.46	30537.09
537.66	29795.73
537.861	29881.74
538.062	29228.44
538.263	28534.18
538.463	28323.24
538.664	28196.26
538.865	27866.54
539.065	27608.5
539.266	26838.46
539.466	26637.76
539.667	26142.15
539.868	26541.5
540.068	25923.02
540.269	25429.46
540.469	25411.03
540.67	24925.66
540.87	24577.5
541.071	24075.75
541.271	23918.06
541.472	23705.07
541.672	23383.54
541.873	23180.79
542.073	22656.51
542.274	22695.42
542.474	22062.6
542.675	21863.94
542.875	22158.85
543.075	21466.64
543.276	21313.04
543.476	21376.53
543.676	20905.49
543.877	20438.56
544.077	20667.93
544.277	20293.15
544.478	20020.77
544.678	19871.27
544.878	19689
545.078	19418.67
545.279	18845.24
545.479	18800.18
545.679	18519.61
545.879	18218.56
546.079	18480.7
546.28	17937.99
546.48	17983.04
546.68	17671.75
546.88	17423.95
547.08	17503.82
547.28	17253.97
547.48	16760.41
547.68	16744.02
547.88	16379.48
548.081	16158.3
548.281	15992.42
548.481	15810.15
548.681	15742.57
548.881	15197.81
549.081	15304.3
549.28	15064.69
549.48	14913.14
549.68	14857.84
549.88	14552.7
550.08	14073.47
550.28	14093.95
550.48	14085.76
550.68	13702.79
550.88	13457.03
551.08	13209.23
551.279	13266.57
551.479	12859.03
551.679	12889.74
551.879	12428.95
552.079	12363.42
552.278	12205.72
552.478	12142.24
552.678	11818.66
552.878	11464.36
553.077	11357.86
553.277	11095.72
553.477	11232.94
553.676	10976.94
553.876	10821.3
554.076	10577.59
554.275	10249.91
554.475	10270.39
554.674	10133.18
554.874	9993.92
555.074	9561.8
555.273	9555.65
555.473	9508.55
555.672	9074.38
555.872	9152.2
556.071	9234.12
556.271	9049.8
556.47	8742.61
556.67	8519.38
556.869	8605.39
557.068	8494.8
557.268	8210.14
557.467	8060.63
557.667	8091.35
557.866	7679.71
558.065	7632.61
558.265	7554.79
558.464	7472.87
558.663	7347.94
558.863	7341.8
559.062	7194.34
559.261	6766.32
559.461	6874.86
559.66	6745.84
559.859	6649.58
560.058	6643.44
560.258	6387.44
560.457	6266.61
560.656	6571.76
560.855	5926.65
561.054	6125.3
561.253	6051.58
561.453	5998.33
561.652	5938.94
561.851	5816.06
562.05	5625.6
562.249	5385.99
562.448	5537.54
562.647	5357.32
562.846	5183.24
563.045	5254.92
563.244	5164.81
563.443	5146.37
563.642	4869.9
563.841	4900.62
564.04	4919.05
564.239	4876.04
564.438	4806.41
564.637	4484.88
564.836	4558.61
565.035	4437.78
565.234	4427.54
565.432	4409.11
565.631	4398.87
565.83	4349.71
566.029	4284.18
566.228	4103.96
566.427	4138.77
566.625	3925.79
566.824	3870.49
567.023	3888.92
567.222	3751.71
567.42	3858.2
567.619	3696.41
567.818	3612.45
568.016	3614.49
568.215	3421.99
568.414	3501.86
568.612	3608.35
568.811	3503.9
569.01	3333.92
569.208	3198.76
569.407	3254.05
569.605	3233.57
569.804	3165.99
570.002	3075.88
570.201	2985.77
570.4	3077.93
570.598	3012.39
570.797	2948.9
570.995	2854.7
571.193	2946.86
571.392	2774.83
571.59	2688.81
571.789	2844.46
571.987	2748.2
572.186	2832.17
572.384	2633.52
572.582	2543.41
572.781	2742.06
572.979	2430.77
573.177	2500.4
573.376	2465.58
573.574	2465.58
573.772	2336.56
573.971	2285.36
574.169	2176.82
574.367	2242.36
574.565	2311.99
574.763	2088.76
574.962	2185.01
575.16	2166.58
575.358	1990.45
575.556	2094.9
575.754	2008.89
575.952	1986.36
576.151	1865.53
576.349	1990.45
576.547	1720.12
576.745	1750.84
576.943	1855.29
577.141	1859.38
577.339	1644.35
577.537	1795.9
577.735	1763.13
577.933	1738.55
578.131	1685.31
578.329	1689.4
578.527	1580.86
578.725	1689.4
578.923	1443.65
579.121	1595.2
579.319	1437.5
579.516	1412.93
579.714	1814.33
579.912	1449.79
580.11	1324.87
580.308	1408.83
580.506	1302.34
580.704	1210.18
580.901	1292.1
581.099	1470.27
581.297	1244.99
581.495	1240.9
581.692	1214.27
581.89	1290.05
582.088	1279.81
582.285	1271.62
582.483	1226.56
582.681	1179.46
582.878	1132.36
583.076	1171.27
583.274	1095.49
583.471	1312.58
583.669	1083.2
583.866	909.13
584.064	1038.15
584.262	884.55
584.459	997.19
584.657	1062.73
584.854	1009.48
585.052	1015.62
585.249	927.56
585.447	964.42
585.644	786.25
585.841	1011.53
586.039	884.55
586.236	888.65
586.434	872.26
586.631	823.11
586.828	890.7
587.026	857.93
587.223	769.87
587.42	843.59
587.618	790.35
587.815	933.7
588.012	751.43
588.21	720.71
588.407	837.45
588.604	841.54
588.801	720.71
588.999	810.82
589.196	833.35
589.393	714.57
589.59	759.63
589.787	749.39
589.984	735.05
590.182	814.92
590.379	667.47
590.576	634.7
590.773	683.85
590.97	671.56
591.167	722.76
591.364	735.05
591.561	687.95
591.758	794.44
591.955	751.43
592.152	683.85
592.349	665.42
592.546	624.46
592.743	667.47
592.94	661.32
593.137	675.66
593.334	726.86
593.531	698.19
593.727	733
593.924	757.58
594.121	644.94
594.318	622.41
594.515	753.48
594.712	839.5
594.908	835.4
595.105	589.64
595.302	763.72
595.499	669.52
595.696	804.68
595.892	632.65
596.089	905.03
596.286	728.91
596.482	868.17
596.679	835.4
596.876	874.31
597.072	917.32
597.269	866.12
597.466	972.61
597.662	808.78
597.859	784.2
598.055	1027.91
598.252	1032.01
598.448	1105.73
598.645	1046.34
598.841	1093.44
599.038	1306.43
599.234	1298.24
599.431	1204.03
599.627	1199.94
599.824	1404.74
600.02	1304.39
600.217	1417.02
600.413	1328.96
600.609	1478.46
600.806	1740.6
601.002	1566.53
601.198	1605.44
601.395	1746.75
601.591	1849.15
601.787	1924.92
601.984	1838.91
602.18	2047.8
602.376	2062.13
602.572	2248.5
602.769	2172.72
602.965	2324.27
603.161	2365.23
603.357	2547.5
603.553	2723.63
603.75	2570.03
603.946	2795.31
604.142	2803.5
604.338	2991.91
604.534	2977.58
604.73	3032.87
604.926	3043.11
605.122	3323.68
605.318	3352.35
605.514	3518.24
605.71	3522.34
605.906	3852.06
606.102	3725.08
606.298	3866.39
606.494	4013.85
606.69	4206.36
606.886	4208.41
607.082	4271.89
607.278	4443.92
607.474	4681.49
607.67	4843.28
607.866	4663.05
608.062	5123.85
608.257	5269.25
608.453	5203.72
608.649	5359.36
608.845	5474.05
609.041	5666.56
609.236	5904.12
609.432	5887.74
609.628	6102.78
609.824	6246.13
610.019	6407.92
610.215	6643.44
610.411	6751.98
610.606	6967.02
610.802	7173.86
610.998	7169.77
611.193	7546.59
611.389	7485.16
611.584	7999.2
611.78	7935.71
611.976	8302.29
612.171	8609.49
612.367	8802
612.562	9047.76
612.758	9230.02
612.953	9338.57
613.149	9789.12
613.344	9789.12
613.539	10026.68
613.735	10344.12
613.93	10682.03
614.126	10981.04
614.321	11345.58
614.517	11581.09
614.712	11869.86
614.907	12099.23
615.103	12480.15
615.298	12510.87
615.493	13098.64
615.688	12957.33
615.884	13690.5
616.079	13790.85
616.274	14433.91
616.47	14700.15
616.665	15156.85
616.86	15464.04
617.055	16021.09
617.25	16064.1
617.445	16979.54
617.641	16928.34
617.836	17577.55
618.031	17667.66
618.226	18372.16
618.421	18615.87
618.616	19211.82
618.811	19748.39
619.006	19809.83
619.201	20444.7
619.396	20973.08
619.591	20852.25
619.786	21974.53
619.981	22027.78
620.176	22914.55
620.371	22949.37
620.566	23873
620.761	24151.52
620.956	24520.16
621.151	24974.81
621.346	25613.77
621.541	25798.09
621.735	26613.18
621.93	26797.5
622.125	27399.6
622.32	27567.54
622.515	28317.09
622.709	28675.49
622.904	29236.63
623.099	29799.82
623.294	30508.42
623.488	30602.63
623.683	31243.64
623.878	31442.29
624.072	32576.87
624.267	32662.88
624.462	33232.22
624.656	33453.4
624.851	34399.56
625.046	34604.36
625.24	34952.51
625.435	35423.54
625.629	35927.35
625.824	36369.71
626.018	36990.24
626.213	36834.6
626.407	37834
626.602	37504.28
626.796	38552.84
626.991	38700.29
627.185	39075.07
627.38	38790.41
627.574	39607.54
627.768	39558.39
627.963	39472.38
628.157	39480.57
628.352	40426.73
628.546	39644.41
628.74	40371.44
628.935	39798.01
629.129	40054
629.323	39083.26
629.517	39656.7
629.712	39075.07
629.906	39077.12
630.1	37909.78
630.294	37979.41
630.489	37467.42
630.683	37424.41
630.877	36318.51
631.071	35996.98
631.265	35261.76
631.459	34897.22
631.653	33766.74
631.848	33097.05
632.042	32269.67
632.236	31706.48
632.43	30666.11
632.624	29678.99
632.818	28677.54
633.012	27798.96
633.206	27153.85
633.4	26238.4
633.594	25437.65
633.788	24501.73
633.982	23729.64
634.176	23094.77
634.369	21859.85
634.563	21067.28
634.757	20039.2
634.951	19553.83
635.145	18832.95
635.339	18142.78
635.533	17139.28
635.726	16838.23
635.92	15898.21
636.114	15461.99
636.308	14511.74
636.501	14245.5
636.695	13581.96
636.889	12676.76
637.083	12541.59
637.276	11826.85
637.47	11458.21
637.664	11087.53
637.857	10663.6
638.051	10208.95
638.244	9606.85
638.438	9445.06
638.632	9174.73
638.825	8541.91
639.019	8283.86
639.212	7861.98
639.406	7841.5
639.599	7313.13
639.793	7081.71
639.986	6807.28
640.18	6594.29
640.373	6364.92
640.567	6033.15
640.76	5840.64
640.954	5515.01
641.147	5218.05
641.34	5168.9
641.534	4992.78
641.727	4808.46
641.92	4548.37
642.114	4445.97
642.307	4128.53
642.5	4122.39
642.694	3899.16
642.887	3667.74
643.08	3745.56
643.273	3471.14
643.467	3321.63
643.66	3272.48
643.853	3108.65
644.046	2996.01
644.239	2789.16
644.432	2735.92
644.626	2617.13
644.819	2570.03
645.012	2531.12
645.205	2402.1
645.398	2432.82
645.591	2160.44
645.784	2127.67
645.977	1894.2
646.17	2064.18
646.363	1845.05
646.556	1804.09
646.749	1697.6
646.942	1681.21
647.135	1623.87
647.328	1490.75
647.521	1527.61
647.714	1324.87
647.907	1371.97
648.099	1208.13
648.292	1406.78
648.485	1263.43
648.678	1146.69
648.871	1218.37
649.064	1201.99
649.256	1058.63
649.449	1062.73
649.642	851.78
649.835	902.98
650.027	900.94
650.22	954.18
650.413	827.21
650.605	882.5
650.798	857.93
650.991	755.53
651.183	747.34
651.376	749.39
651.568	745.29
651.761	651.08
651.954	714.57
652.146	632.65
652.339	685.9
652.531	696.14
652.724	534.35
652.916	515.92
653.109	413.52
653.301	526.16
653.494	692.04
653.686	419.66
653.879	552.78
654.071	569.16
654.263	466.77
654.456	384.85
654.648	454.48
654.84	493.39
655.033	374.61
655.225	466.77
655.417	239.44
655.61	532.3
655.802	470.86
655.994	434
656.186	253.78
656.379	454.48
656.571	337.74
656.763	272.21
656.955	315.22
657.148	335.7
657.34	429.9
657.532	268.11
657.724	245.59
657.916	401.23
658.108	292.69
658.3	343.89
658.492	282.45
658.684	223.06
658.876	341.84
659.068	126.8
659.26	171.86
659.452	188.24
659.644	311.12
659.836	343.89
660.028	218.96
660.22	188.24
660.412	186.19
660.604	221.01
660.796	264.02
660.988	282.45
661.18	227.15
661.372	288.59
661.563	186.19
661.755	182.1
661.947	159.57
662.139	210.77
662.331	278.35
662.522	190.29
662.714	135
662.906	102.23
663.097	116.56
663.289	165.71
663.481	-45.23
663.673	194.39
663.864	108.37
664.056	233.3
664.247	106.32
664.439	225.11
664.631	120.66
664.822	204.63
665.014	132.95
665.205	81.75
665.397	167.76
665.588	167.76
665.78	151.38
665.971	153.43
666.163	229.2
666.354	157.52
666.546	63.32
666.737	135
666.929	114.52
667.12	77.65
667.311	204.63
667.503	137.04
667.694	161.62
667.885	221.01
668.077	243.54
668.268	-6.31
668.459	171.86
668.651	218.96
668.842	110.42
669.033	53.08
669.224	22.36
669.416	298.83
669.607	161.62
669.798	65.36
669.989	210.77
670.18	85.84
670.371	132.95
670.563	40.79
670.754	194.39
670.945	132.95
671.136	235.35
671.327	-0.17
671.518	171.86
671.709	194.39
671.9	237.39
672.091	268.11
672.282	153.43
672.473	104.28
672.664	63.32
672.855	132.95
673.046	163.67
673.237	171.86
673.428	59.22
673.619	229.2
673.809	75.6
674	243.54
674.191	241.49
674.382	59.22
674.573	77.65
674.764	130.9
674.954	188.24
675.145	53.08
675.336	77.65
675.527	124.76
675.717	91.99
675.908	94.04
676.099	153.43
676.289	130.9
676.48	102.23
676.671	116.56
676.861	40.79
677.052	141.14
677.243	143.19
677.433	116.56
677.624	231.25
677.814	147.28
678.005	145.24
678.195	249.68
678.386	96.08
678.576	155.47
678.767	55.12
678.957	178
679.148	147.28
679.338	206.67
679.529	169.81
679.719	18.26
679.909	192.34
680.1	145.24
680.29	190.29
680.481	18.26
680.671	221.01
680.861	163.67
681.052	173.91
681.242	83.8
681.432	173.91
681.622	214.87
681.813	26.45
682.003	153.43
682.193	73.56
682.383	137.04
682.573	135
682.764	126.8
682.954	116.56
683.144	259.92
683.334	139.09
683.524	71.51
683.714	81.75
683.904	247.63
684.094	157.52
684.284	169.81
684.474	257.87
684.664	229.2
684.854	218.96
685.044	173.91
685.234	272.21
685.424	69.46
685.614	161.62
685.804	327.5
685.994	167.76
686.184	98.13
686.374	216.91
686.564	169.81
686.753	171.86
686.943	69.46
687.133	178
687.323	135
687.513	198.48
687.702	184.15
687.892	149.33
688.082	200.53
688.272	237.39
688.461	196.43
688.651	331.6
688.841	237.39
689.03	155.47
689.22	149.33
689.41	237.39
689.599	272.21
689.789	108.37
689.979	286.54
690.168	171.86
690.358	218.96
690.547	214.87
690.737	190.29
690.926	188.24
691.116	239.44
691.305	245.59
691.495	198.48
691.684	112.47
691.874	221.01
692.063	184.15
692.252	202.58
692.442	169.81
692.631	122.71
692.82	159.57
693.01	159.57
693.199	34.64
693.388	184.15
693.578	225.11
693.767	235.35
693.956	264.02
694.146	167.76
694.335	188.24
694.524	116.56
694.713	194.39
694.902	155.47
695.092	145.24
695.281	130.9
695.47	143.19
695.659	143.19
695.848	184.15
696.037	135
696.226	180.05
696.415	132.95
696.604	259.92
696.793	141.14
696.982	161.62
697.171	235.35
697.36	264.02
697.549	151.38
697.738	48.98
697.927	155.47
698.116	71.51
698.305	155.47
698.494	278.35
698.683	114.52
698.872	325.46
699.061	282.45
699.25	169.81
699.438	79.7
699.627	81.75
699.816	274.26
700.005	30.55
700.193	91.99
700.382	266.07
700.571	120.66
700.76	184.15
700.948	239.44
701.137	212.82
701.326	167.76
701.514	85.84
701.703	241.49
701.892	233.3
702.08	329.55
702.269	163.67
702.457	130.9
702.646	73.56
702.834	253.78
703.023	241.49
703.212	169.81
703.4	118.61
703.589	128.85
703.777	225.11
703.965	135
704.154	190.29
704.342	40.79
704.531	137.04
704.719	188.24
704.907	261.97
705.096	98.13
705.284	145.24
705.472	212.82
705.661	145.24
705.849	261.97
706.037	196.43
706.226	141.14
706.414	169.81
706.602	110.42
706.79	167.76
706.979	104.28
707.167	192.34
707.355	94.04
707.543	122.71
707.731	159.57
707.919	106.32
708.107	157.52
708.296	110.42
708.484	124.76
708.672	231.25
708.86	198.48
709.048	227.15
709.236	110.42
709.424	233.3
709.612	214.87
709.8	-24.75
709.988	122.71
710.176	188.24
710.364	200.53
710.551	143.19
710.739	190.29
710.927	118.61
711.115	200.53
711.303	218.96
711.491	229.2
711.679	40.79
711.866	173.91
712.054	210.77
712.242	247.63
712.43	247.63
712.617	171.86
712.805	225.11
712.993	184.15
713.181	110.42
713.368	276.31
713.556	143.19
713.744	114.52
713.931	339.79
714.119	251.73
714.306	153.43
714.494	147.28
714.682	182.1
714.869	59.22
715.057	196.43
715.244	67.41
715.432	173.91
715.619	171.86
715.807	137.04
715.994	87.89
716.182	135
716.369	231.25
716.556	223.06
716.744	116.56
716.931	61.27
717.119	198.48
717.306	192.34
717.493	227.15
717.681	182.1
717.868	155.47
718.055	221.01
718.242	184.15
718.43	259.92
718.617	257.87
718.804	135
718.991	270.16
719.179	178
719.366	175.95
719.553	204.63
719.74	159.57
719.927	225.11
720.114	186.19
720.301	38.74
720.488	163.67
720.676	75.6
720.863	298.83
721.05	257.87
721.237	178
721.424	161.62
721.611	186.19
721.798	130.9
721.985	102.23
722.172	149.33
722.358	196.43
722.545	282.45
722.732	184.15
722.919	319.31
723.106	296.78
723.293	223.06
723.48	253.78
723.667	159.57
723.853	298.83
724.04	151.38
724.227	278.35
724.414	132.95
724.6	198.48
724.787	247.63
724.974	395.09
725.161	231.25
725.347	155.47
725.534	167.76
725.72	190.29
725.907	188.24
726.094	245.59
726.28	196.43
726.467	204.63
726.653	130.9
726.84	304.98
727.027	266.07
727.213	180.05
727.4	294.74
727.586	196.43
727.773	157.52
727.959	155.47
728.145	272.21
728.332	186.19
728.518	190.29
728.705	270.16
728.891	268.11
729.077	229.2
729.264	178
729.45	147.28
729.636	384.85
729.823	239.44
730.009	329.55
730.195	190.29
730.382	204.63
730.568	114.52
730.754	235.35
730.94	114.52
731.126	247.63
731.313	255.83
731.499	192.34
731.685	337.74
731.871	231.25
732.057	270.16
732.243	261.97
732.429	280.4
732.615	264.02
732.801	370.51
732.987	186.19
733.173	214.87
733.359	200.53
733.545	204.63
733.731	221.01
733.917	333.65
734.103	184.15
734.289	253.78
734.475	196.43
734.661	292.69
734.847	264.02
735.033	229.2
735.219	298.83
735.404	247.63
735.59	184.15
735.776	188.24
735.962	229.2
736.148	284.5
736.333	343.89
736.519	221.01
736.705	190.29
736.89	249.68
737.076	264.02
737.262	147.28
737.447	221.01
737.633	200.53
737.819	331.6
738.004	241.49
738.19	300.88
738.375	212.82
738.561	266.07
738.747	235.35
738.932	165.71
739.118	366.42
739.303	266.07
739.489	272.21
739.674	151.38
739.859	261.97
740.045	255.83
740.23	227.15
740.416	110.42
740.601	255.83
740.786	270.16
740.972	143.19
741.157	182.1
741.342	141.14
741.528	196.43
741.713	261.97
741.898	112.47
742.084	206.67
742.269	171.86
742.454	190.29
742.639	278.35
742.824	155.47
743.01	270.16
743.195	378.7
743.38	286.54
743.565	159.57
743.75	290.64
743.935	345.94
744.12	216.91
744.305	130.9
744.49	163.67
744.675	231.25
744.86	132.95
745.045	290.64
745.23	208.72
745.415	229.2
745.6	266.07
745.785	188.24
745.97	323.41
746.155	204.63
746.34	278.35
746.525	186.19
746.71	329.55
746.895	163.67
747.079	180.05
747.264	110.42
747.449	253.78
747.634	335.7
747.819	261.97
748.003	255.83
748.188	139.09
748.373	218.96
748.557	126.8
748.742	194.39
748.927	200.53
749.111	139.09
749.296	147.28
749.481	261.97
749.665	171.86
749.85	210.77
750.034	253.78
750.219	210.77
750.404	223.06
750.588	186.19
750.773	110.42
750.957	202.58
751.141	214.87
751.326	204.63
751.51	96.08
751.695	180.05
751.879	296.78
752.064	284.5
752.248	137.04
752.432	259.92
752.617	276.31
752.801	218.96
752.985	48.98
753.17	137.04
753.354	218.96
753.538	194.39
753.722	110.42
753.907	149.33
754.091	63.32
754.275	192.34
754.459	81.75
754.643	79.7
754.828	114.52
755.012	169.81
755.196	108.37
755.38	165.71
755.564	165.71
755.748	175.95
755.932	192.34
756.116	202.58
756.3	206.67
756.484	69.46
756.668	171.86
756.852	38.74
757.036	139.09
757.22	202.58
757.404	128.85
757.588	104.28
757.772	120.66
757.956	87.89
758.14	192.34
758.323	81.75
758.507	178
758.691	89.94
758.875	163.67
759.059	266.07
759.242	73.56
759.426	145.24
759.61	155.47
759.794	89.94
759.977	233.3
760.161	270.16
760.345	284.5
760.528	165.71
760.712	175.95
760.895	190.29
761.079	153.43
761.263	83.8
761.446	77.65
761.63	165.71
761.813	245.59
761.997	71.51
762.18	87.89
762.364	165.71
762.547	-59.56
762.731	116.56
762.914	135
763.098	46.93
763.281	96.08
763.464	118.61
763.648	171.86
763.831	73.56
764.015	130.9
764.198	137.04
764.381	75.6
764.564	128.85
764.748	135
764.931	221.01
765.114	112.47
765.297	139.09
765.481	42.84
765.664	67.41
765.847	12.12
766.03	200.53
766.213	42.84
766.397	89.94
766.58	18.26
766.763	151.38
766.946	53.08
767.129	-30.89
767.312	20.31
767.495	132.95
767.678	53.08
767.861	157.52
768.044	145.24
768.227	63.32
768.41	75.6
768.593	182.1
768.776	171.86
768.959	55.12
769.142	178
769.324	81.75
769.507	46.93
769.69	12.12
769.873	26.45
770.056	214.87
770.239	94.04
770.421	137.04
770.604	141.14
770.787	151.38
770.97	94.04
771.152	53.08
771.335	112.47
771.518	38.74
771.7	145.24
771.883	210.77
772.066	98.13
772.248	79.7
772.431	190.29
772.613	180.05
772.796	116.56
772.978	143.19
773.161	216.91
773.343	24.4
773.526	3.93
773.708	-55.47
773.891	-94.38
774.073	1.88
774.256	77.65
774.438	188.24
774.621	59.22
774.803	122.71
774.985	57.17
775.168	122.71
775.35	53.08
775.532	147.28
775.715	-18.6
775.897	139.09
776.079	-12.46
776.261	98.13
776.444	73.56
776.626	-0.17
776.808	69.46
776.99	-30.89
777.173	10.07
777.355	42.84
777.537	104.28
777.719	137.04
777.901	75.6
778.083	16.21
778.265	-12.46
778.447	120.66
778.629	73.56
778.811	91.99
778.993	122.71
779.175	169.81
779.357	16.21
779.539	-30.89
779.721	5.97
779.903	63.32
780.085	48.98
780.267	81.75
780.449	151.38
780.631	34.64
780.812	145.24
780.994	-26.79
781.176	81.75
781.358	-39.08
781.54	73.56
781.721	106.32
781.903	202.58
782.085	44.88
782.267	132.95
782.448	42.84
782.63	32.6
782.812	94.04
782.993	77.65
783.175	94.04
783.357	102.23
783.538	73.56
783.72	-24.75
783.901	77.65
784.083	98.13
784.264	155.47
784.446	-34.99
784.627	-18.6
784.809	48.98
784.99	42.84
785.172	42.84
785.353	3.93
785.535	57.17
785.716	-6.31
785.897	10.07
786.079	-4.27
786.26	46.93
786.441	83.8
786.623	-30.89
786.804	8.02
786.985	20.31
787.167	104.28
787.348	65.36
787.529	32.6
787.71	221.01
787.891	112.47
788.073	-12.46
788.254	-41.13
788.435	198.48
788.616	42.84
788.797	24.4
788.978	36.69
789.159	-53.42
789.34	147.28
789.522	-24.75
789.703	-0.17
789.884	38.74
790.065	87.89
790.246	165.71
790.427	46.93
790.607	143.19
790.788	139.09
790.969	-30.89
791.15	34.64
791.331	22.36
791.512	-18.6
791.693	-4.27
791.874	-37.03
792.054	161.62
792.235	124.76
792.416	-20.65
792.597	34.64
792.778	59.22
792.958	147.28
793.139	81.75
793.32	71.51
793.5	-16.55
793.681	202.58
793.862	-20.65
794.042	24.4
794.223	-69.8
794.404	-24.75
794.584	-102.57
794.765	67.41
794.945	79.7
795.126	83.8
795.306	94.04
795.487	-45.23
795.667	-49.32
795.848	16.21
796.028	61.27
796.209	24.4
796.389	102.23
796.57	79.7
796.75	5.97
796.93	71.51
797.111	-22.7
797.291	71.51
797.471	14.17
797.652	22.36
797.832	-57.51
798.012	30.55
798.192	-57.51
798.373	-63.66
798.553	59.22
798.733	36.69
798.913	-39.08
799.093	-6.31
799.274	-10.41
799.454	28.5
799.634	137.04
799.814	79.7
799.994	73.56
800.174	81.75
800.354	-24.75
800.534	-2.22
800.714	57.17
800.894	-114.86
801.074	-61.61
801.254	30.55
801.434	87.89
801.614	65.36
801.794	26.45
801.974	1845.05
802.154	-45.23
802.334	73.56
802.514	-94.38
802.693	87.89
802.873	-39.08
803.053	141.14
803.233	104.28
803.413	-39.08
803.592	-6.31
803.772	-45.23
803.952	8.02
804.131	-2.22
804.311	132.95
804.491	51.03
804.67	-45.23
804.85	-65.71
805.03	89.94
805.209	83.8
805.389	61.27
805.568	-61.61
805.748	69.46
805.928	14.17
806.107	46.93
806.287	59.22
806.466	-10.41
806.646	10.07
806.825	75.6
807.004	38.74
807.184	22.36
807.363	153.43
807.543	87.89
807.722	-2.22
807.901	104.28
808.081	40.79
808.26	-24.75
808.439	5.97
808.619	-41.13
808.798	20.31
808.977	38.74
809.156	120.66
809.336	53.08
809.515	130.9
809.694	-151.72
809.873	-20.65
810.052	-43.18
810.231	135
810.411	73.56
810.59	36.69
810.769	-10.41
810.948	143.19
811.127	-28.84
811.306	-61.61
811.485	-30.89
811.664	112.47
811.843	26.45
812.022	-8.36
812.201	48.98
812.38	-37.03
812.559	-6.31
812.737	22.36
812.916	-67.75
813.095	-2.22
813.274	16.21
813.453	5.97
813.632	141.14
813.811	73.56
813.989	-34.99
814.168	51.03
814.347	-16.55
814.526	28.5
814.704	139.09
814.883	81.75
815.062	-8.36
815.24	83.8
815.419	1.88
815.598	5.97
815.776	-63.66
815.955	-2.22
816.133	-73.9
816.312	81.75
816.49	-47.27
816.669	-8.36
816.847	42.84
817.026	53.08
817.204	-2.22
817.383	-12.46
817.561	-22.7
817.74	26.45
817.918	77.65
818.097	-82.09
818.275	18.26
818.453	22.36
818.632	63.32
818.81	55.12
818.988	3.93
819.167	-18.6
819.345	-6.31
819.523	-57.51
819.701	30.55
819.879	57.17
820.058	28.5
820.236	12.12
820.414	55.12
820.592	5.97
820.77	44.88
820.948	-2.22
821.127	12.12
821.305	63.32
821.483	-16.55
821.661	110.42
821.839	-24.75
822.017	-43.18
822.195	-8.36
822.373	165.71
822.551	16.21
822.729	79.7
822.907	14.17
823.085	46.93
823.262	24.4
823.44	28.5
823.618	-63.66
823.796	-32.94
823.974	12.12
824.152	10.07
824.329	51.03
824.507	36.69
824.685	59.22
824.863	5.97
825.04	-45.23
825.218	42.84
825.396	-4.27
825.574	24.4
825.751	30.55
825.929	114.52
826.107	89.94
826.284	75.6
826.462	71.51
826.639	-53.42
826.817	-71.85
826.994	59.22
827.172	-26.79
827.349	122.71
827.527	40.79
827.704	81.75
827.882	83.8
828.059	46.93
828.237	-47.27
828.414	69.46
828.591	-63.66
828.769	-24.75
828.946	-102.57
829.124	65.36
829.301	65.36
829.478	26.45
829.655	5.97
829.833	-2.22
830.01	-133.29
830.187	10.07
830.364	38.74
830.542	30.55
830.719	91.99
830.896	-8.36
831.073	106.32
831.25	5.97
831.427	12.12
831.604	44.88
831.782	5.97
831.959	22.36
832.136	73.56
832.313	8.02
832.49	-43.18
832.667	81.75
832.844	16.21
833.021	104.28
833.198	14.17
833.374	87.89
833.551	42.84
833.728	55.12
833.905	71.51
834.082	-41.13
834.259	53.08
834.436	89.94
834.612	-53.42
834.789	85.84
834.966	10.07
835.143	-16.55
835.319	-65.71
835.496	126.8
835.673	26.45
835.85	51.03
836.026	36.69
836.203	100.18
836.38	48.98
836.556	14.17
836.733	-77.99
836.909	100.18
837.086	10.07
837.262	-28.84
837.439	-69.8
837.616	20.31
837.792	-34.99
837.968	46.93
838.145	-114.86
838.321	-37.03
838.498	91.99
838.674	63.32
838.851	16.21
839.027	-61.61
839.203	42.84
839.38	75.6
839.556	-43.18
839.732	20.31
839.909	-57.51
840.085	65.36
840.261	14.17
840.437	28.5
840.614	-96.43
840.79	3.93
840.966	36.69
841.142	-28.84
841.318	-49.32
841.494	22.36
841.671	91.99
841.847	28.5
842.023	-41.13
842.199	38.74
842.375	61.27
842.551	-49.32
842.727	-12.46
842.903	153.43
843.079	-131.24
843.255	87.89
843.431	-16.55
843.607	-24.75
843.783	-92.33
843.959	32.6
844.134	-94.38
844.31	120.66
844.486	-45.23
844.662	-69.8
844.838	28.5
845.013	67.41
845.189	-20.65
845.365	-67.75
845.541	28.5
845.716	65.36
845.892	57.17
846.068	3.93
846.244	-45.23
846.419	110.42
846.595	-47.27
846.77	-59.56
846.946	67.41
847.122	-51.37
847.297	28.5
847.473	96.08
847.648	-39.08
847.824	-22.7
847.999	-12.46
848.175	1.88
848.35	48.98
848.526	79.7
848.701	65.36
848.876	118.61
849.052	42.84
849.227	-32.94
849.403	-12.46
849.578	-37.03
849.753	28.5
849.929	75.6
850.104	-61.61
850.279	48.98
850.454	26.45
850.63	51.03
850.805	-6.31
850.98	-18.6
851.155	-32.94
851.33	-57.51
851.505	-114.86
851.681	214.87
851.856	-16.55
852.031	3.93
852.206	24.4
852.381	-41.13
852.556	-10.41
852.731	14.17
852.906	81.75
853.081	69.46
853.256	157.52
853.431	-73.9
853.606	53.08
853.781	30.55
853.956	-133.29
854.131	61.27
854.305	-139.43
854.48	-26.79
854.655	-37.03
854.83	-37.03
855.005	-69.8
855.18	59.22
855.354	-16.55
855.529	-10.41
855.704	12.12
855.879	79.7
856.053	5.97
856.228	108.37
856.403	-22.7
856.577	-2.22
856.752	-82.09
856.926	-53.42
857.101	40.79
857.276	-24.75
857.45	38.74
857.625	120.66
857.799	34.64
857.974	-73.9
858.148	-53.42
858.323	53.08
858.497	-28.84
858.672	-104.62
858.846	-102.57
859.02	81.75
859.195	-129.19
859.369	-88.23
859.543	16.21
859.718	44.88
859.892	-30.89
860.066	40.79
860.241	-20.65
860.415	-65.71
860.589	-14.51
860.763	59.22
860.938	-69.8
861.112	55.12
861.286	20.31
861.46	-37.03
861.634	-24.75
861.808	124.76
861.982	-14.51
862.157	-47.27
862.331	14.17
862.505	-65.71
862.679	-127.14
862.853	16.21
863.027	-37.03
863.201	163.67
863.375	-102.57
863.549	71.51
863.722	48.98
863.896	163.67
864.07	-51.37
864.244	-16.55
864.418	81.75
864.592	73.56
864.766	55.12
864.939	12.12
865.113	-59.56
865.287	5.97
865.461	-82.09
865.634	-41.13
865.808	-69.8
865.982	-24.75
866.156	18.26
866.329	-94.38
866.503	-57.51
866.676	116.56
866.85	26.45
867.024	-18.6
867.197	-24.75
867.371	-8.36
867.544	44.88
867.718	-172.2
867.891	59.22
868.065	-34.99
868.238	73.56
868.412	10.07
868.585	-45.23
868.759	-116.9
868.932	-18.6
869.105	-67.75
869.279	36.69
869.452	3.93
869.625	63.32
869.799	-49.32
869.972	-104.62
870.145	-71.85
870.319	85.84
870.492	-18.6
870.665	-61.61
870.838	5.97
871.011	-110.76
871.185	-61.61
871.358	-10.41
871.531	83.8
871.704	-39.08
871.877	-0.17
872.05	8.02
872.223	-47.27
872.396	75.6
872.569	-12.46
872.742	-4.27
872.915	22.36
873.088	-26.79
873.261	-67.75
873.434	48.98
873.607	-14.51
873.78	128.85
873.953	-88.23
874.126	-10.41
874.299	100.18
874.471	-43.18
874.644	-12.46
874.817	48.98
874.99	159.57
875.163	16.21
875.335	-61.61
875.508	65.36
875.681	91.99
875.853	-32.94
876.026	-4.27
876.199	57.17
876.371	-10.41
876.544	28.5
876.717	30.55
876.889	-51.37
877.062	55.12
877.234	-18.6
877.407	-30.89
877.579	69.46
877.752	28.5
877.924	89.94
878.097	71.51
878.269	-32.94
878.442	55.12
878.614	34.64
878.786	16.21
878.959	-16.55
879.131	67.41
879.303	-106.67
879.476	-28.84
879.648	44.88
879.82	-12.46
879.993	-98.47
880.165	-96.43
880.337	-94.38
880.509	-4.27
880.681	79.7
880.854	-22.7
881.026	77.65
881.198	173.91
881.37	-32.94
881.542	-6.31
881.714	-125.1
881.886	-4.27
882.058	5.97
882.23	1.88
882.402	-34.99
882.574	57.17
882.746	85.84
882.918	124.76
883.09	83.8
883.262	-2.22
883.434	65.36
883.606	-172.2
883.778	-57.51
883.95	122.71
884.122	-14.51
884.293	48.98
884.465	-37.03
884.637	65.36
884.809	-16.55
884.98	-51.37
885.152	-2.22
885.324	32.6
885.496	-57.51
885.667	-41.13
885.839	40.79
886.011	51.03
886.182	1.88
886.354	46.93
886.525	34.64
886.697	-4.27
886.869	-49.32
887.04	40.79
887.212	10.07
887.383	202.58
887.555	26.45
887.726	-59.56
887.897	-73.9
888.069	-16.55
888.24	-2.22
888.412	5.97
888.583	46.93
888.754	-24.75
888.926	-172.2
889.097	-37.03
889.268	-116.9
889.44	48.98
889.611	-49.32
889.782	-65.71
889.953	-69.8
890.125	108.37
890.296	-16.55
890.467	14.17
890.638	-96.43
890.809	-45.23
890.98	-71.85
891.151	51.03
891.323	73.56
891.494	-16.55
891.665	-16.55
891.836	34.64
892.007	-22.7
892.178	-18.6
892.349	57.17
892.52	-47.27
892.691	-30.89
892.862	-20.65
893.032	-145.58
893.203	-63.66
893.374	42.84
893.545	69.46
893.716	-47.27
893.887	1.88
894.057	-77.99
894.228	20.31
894.399	-49.32
894.57	46.93
894.74	-12.46
894.911	10.07
895.082	3.93
895.253	20.31
895.423	22.36
895.594	46.93
895.764	12.12
895.935	-108.71
896.106	61.27
896.276	-67.75
896.447	-6.31
896.617	-24.75
896.788	-77.99
896.958	5.97
897.129	-14.51
897.299	-24.75
897.47	67.41
897.64	55.12
897.81	20.31
897.981	55.12
898.151	-18.6
898.322	44.88
898.492	1.88
898.662	-39.08
898.832	-45.23
899.003	73.56
899.173	65.36
899.343	-86.19
899.513	-145.58
