Data from USB4F104151__268__11-20-34-332.txt Node

Date: Wed Feb 26 11:20:34 EST 2025
User: louis
Spectrometer: USB4F10415
Trigger mode: 4
Integration Time (sec): 1.000000E-1
Scans to average: 1
Electric dark correction enabled: true
Nonlinearity correction enabled: false
Boxcar width: 0
XAxis mode: Wavelengths
Number of Pixels in Spectrum: 3648
>>>>>Begin Spectral Data<<<<<
178.204	-462.16
178.424	-462.16
178.644	-462.16
178.864	-404.82
179.084	-394.58
179.304	33.45
179.524	-66.9
179.744	51.88
179.964	41.64
180.184	53.93
180.404	-9.56
180.624	-13.65
180.844	25.26
181.064	-44.37
181.283	-54.61
181.503	-30.04
181.723	12.97
181.943	-87.38
182.163	213.67
182.383	21.16
182.602	45.74
182.822	111.27
183.042	47.79
183.262	-83.28
183.482	21.16
183.701	74.41
183.921	72.36
184.141	-27.99
184.361	90.79
184.58	51.88
184.8	72.36
185.02	-60.76
185.239	55.98
185.459	58.03
185.679	113.32
185.898	-60.76
186.118	62.12
186.338	51.88
186.557	141.99
186.777	15.02
186.997	12.97
187.216	23.21
187.436	133.8
187.655	135.85
187.875	72.36
188.095	111.27
188.314	41.64
188.534	64.17
188.753	-21.85
188.973	119.46
189.192	137.9
189.412	-52.56
189.631	103.08
189.851	33.45
190.07	199.34
190.29	-40.28
190.509	-25.94
190.729	45.74
190.948	86.7
191.168	279.21
191.387	23.21
191.607	23.21
191.826	68.27
192.045	53.93
192.265	55.98
192.484	92.84
192.704	31.4
192.923	-95.57
193.142	164.52
193.362	35.5
193.581	154.28
193.8	10.92
194.02	78.51
194.239	49.83
194.458	43.69
194.678	23.21
194.897	15.02
195.116	41.64
195.335	17.07
195.555	105.13
195.774	-56.66
195.993	78.51
196.212	25.26
196.432	53.93
196.651	-19.8
196.87	-11.61
197.089	160.42
197.308	43.69
197.528	111.27
197.747	-68.95
197.966	41.64
198.185	84.65
198.404	-15.7
198.623	141.99
198.842	76.46
199.062	45.74
199.281	35.5
199.5	49.83
199.719	64.17
199.938	96.94
200.157	141.99
200.376	86.7
200.595	154.28
200.814	55.98
201.033	-5.46
201.252	158.38
201.471	-3.41
201.69	15.02
201.909	33.45
202.128	105.13
202.347	127.66
202.566	68.27
202.785	-77.14
203.004	-1.37
203.223	217.77
203.442	88.75
203.661	-30.04
203.879	76.46
204.098	107.18
204.317	4.78
204.536	41.64
204.755	64.17
204.974	47.79
205.193	-32.08
205.411	101.03
205.63	168.62
205.849	17.07
206.068	-7.51
206.287	-3.41
206.505	185
206.724	4.78
206.943	-66.9
207.162	-60.76
207.381	45.74
207.599	27.31
207.818	64.17
208.037	-27.99
208.255	111.27
208.474	0.68
208.693	-9.56
208.911	-3.41
209.13	101.03
209.349	10.92
209.567	64.17
209.786	92.84
210.005	131.75
210.223	-17.75
210.442	-122.2
210.661	-42.32
210.879	86.7
211.098	17.07
211.316	21.16
211.535	103.08
211.753	68.27
211.972	86.7
212.191	-9.56
212.409	43.69
212.628	62.12
212.846	23.21
213.065	74.41
213.283	139.94
213.502	25.26
213.72	25.26
213.938	70.31
214.157	-19.8
214.375	174.76
214.594	37.55
214.812	121.51
215.031	-5.46
215.249	53.93
215.467	68.27
215.686	92.84
215.904	105.13
216.122	90.79
216.341	146.09
216.559	23.21
216.778	12.97
216.996	88.75
217.214	29.35
217.432	35.5
217.651	-54.61
217.869	70.31
218.087	33.45
218.306	-13.65
218.524	58.03
218.742	8.87
218.96	117.42
219.179	2.73
219.397	23.21
219.615	201.38
219.833	84.65
220.051	0.68
220.27	96.94
220.488	94.89
220.706	27.31
220.924	53.93
221.142	-54.61
221.36	66.22
221.578	111.27
221.796	-11.61
222.015	27.31
222.233	53.93
222.451	72.36
222.669	2.73
222.887	191.14
223.105	8.87
223.323	39.59
223.541	25.26
223.759	78.51
223.977	23.21
224.195	141.99
224.413	55.98
224.631	-30.04
224.849	51.88
225.067	246.44
225.285	-9.56
225.503	68.27
225.721	-99.67
225.939	-1.37
226.157	90.79
226.375	242.34
226.592	-15.7
226.81	123.56
227.028	58.03
227.246	127.66
227.464	12.97
227.682	90.79
227.9	131.75
228.117	86.7
228.335	119.46
228.553	88.75
228.771	0.68
228.989	35.5
229.206	78.51
229.424	15.02
229.642	-40.28
229.86	-1.37
230.077	115.37
230.295	86.7
230.513	98.99
230.731	58.03
230.948	158.38
231.166	125.61
231.384	-27.99
231.601	-9.56
231.819	193.19
232.037	19.11
232.254	-48.47
232.472	0.68
232.689	12.97
232.907	139.94
233.125	105.13
233.342	2.73
233.56	-21.85
233.777	-3.41
233.995	74.41
234.213	70.31
234.43	111.27
234.648	84.65
234.865	4.78
235.083	76.46
235.3	41.64
235.518	82.6
235.735	137.9
235.953	119.46
236.17	84.65
236.388	74.41
236.605	66.22
236.822	127.66
237.04	107.18
237.257	70.31
237.475	19.11
237.692	35.5
237.909	35.5
238.127	-34.13
238.344	68.27
238.562	121.51
238.779	-52.56
238.996	2.73
239.214	58.03
239.431	23.21
239.648	39.59
239.865	88.75
240.083	117.42
240.3	66.22
240.517	23.21
240.735	84.65
240.952	170.66
241.169	37.55
241.386	2.73
241.603	-5.46
241.821	19.11
242.038	8.87
242.255	137.9
242.472	-1.37
242.689	101.03
242.907	-11.61
243.124	23.21
243.341	37.55
243.558	-21.85
243.775	-32.08
243.992	29.35
244.209	68.27
244.426	129.7
244.643	53.93
244.86	74.41
245.078	78.51
245.295	88.75
245.512	72.36
245.729	62.12
245.946	94.89
246.163	92.84
246.38	33.45
246.597	70.31
246.814	60.07
247.031	2.73
247.248	17.07
247.464	31.4
247.681	78.51
247.898	78.51
248.115	72.36
248.332	-97.62
248.549	162.47
248.766	115.37
248.983	115.37
249.2	127.66
249.417	160.42
249.633	-32.08
249.85	152.23
250.067	23.21
250.284	25.26
250.501	66.22
250.717	27.31
250.934	19.11
251.151	10.92
251.368	15.02
251.585	37.55
251.801	47.79
252.018	-5.46
252.235	137.9
252.451	-21.85
252.668	47.79
252.885	133.8
253.102	53.93
253.318	-32.08
253.535	86.7
253.752	45.74
253.968	-1.37
254.185	-77.14
254.401	76.46
254.618	154.28
254.835	-64.85
255.051	51.88
255.268	80.55
255.484	107.18
255.701	-30.04
255.917	29.35
256.134	-19.8
256.351	-60.76
256.567	-83.28
256.784	35.5
257	-52.56
257.217	154.28
257.433	62.12
257.65	0.68
257.866	187.05
258.082	-71
258.299	-83.28
258.515	92.84
258.732	-42.32
258.948	-40.28
259.165	49.83
259.381	-81.24
259.597	47.79
259.814	98.99
260.03	-5.46
260.246	2.73
260.463	141.99
260.679	84.65
260.895	19.11
261.112	113.32
261.328	72.36
261.544	-81.24
261.761	174.76
261.977	-36.18
262.193	-36.18
262.409	101.03
262.626	92.84
262.842	8.87
263.058	-19.8
263.274	107.18
263.49	43.69
263.707	0.68
263.923	135.85
264.139	-23.89
264.355	96.94
264.571	80.55
264.787	158.38
265.004	166.57
265.22	49.83
265.436	-23.89
265.652	23.21
265.868	33.45
266.084	-87.38
266.3	29.35
266.516	-23.89
266.732	80.55
266.948	107.18
267.164	35.5
267.38	86.7
267.596	80.55
267.812	164.52
268.028	33.45
268.244	-1.37
268.46	115.37
268.676	39.59
268.892	101.03
269.108	62.12
269.324	21.16
269.54	-34.13
269.756	113.32
269.972	-87.38
270.188	45.74
270.403	-85.33
270.619	-11.61
270.835	55.98
271.051	96.94
271.267	-17.75
271.483	35.5
271.698	25.26
271.914	70.31
272.13	23.21
272.346	-3.41
272.562	96.94
272.777	160.42
272.993	86.7
273.209	43.69
273.425	55.98
273.64	-68.95
273.856	133.8
274.072	-58.71
274.287	35.5
274.503	107.18
274.719	133.8
274.934	4.78
275.15	-11.61
275.366	72.36
275.581	-17.75
275.797	29.35
276.012	68.27
276.228	-38.23
276.444	15.02
276.659	150.18
276.875	2.73
277.09	60.07
277.306	31.4
277.521	90.79
277.737	25.26
277.952	82.6
278.168	-40.28
278.383	94.89
278.599	78.51
278.814	90.79
279.03	37.55
279.245	86.7
279.461	31.4
279.676	148.14
279.892	-48.47
280.107	-44.37
280.322	-3.41
280.538	115.37
280.753	45.74
280.969	98.99
281.184	37.55
281.399	199.34
281.615	17.07
281.83	127.66
282.045	-34.13
282.26	-7.51
282.476	94.89
282.691	103.08
282.906	115.37
283.122	37.55
283.337	2.73
283.552	64.17
283.767	17.07
283.983	64.17
284.198	53.93
284.413	33.45
284.628	-73.04
284.843	90.79
285.058	58.03
285.274	-3.41
285.489	37.55
285.704	101.03
285.919	-64.85
286.134	117.42
286.349	84.65
286.564	70.31
286.779	135.85
286.995	39.59
287.21	-105.81
287.425	29.35
287.64	-32.08
287.855	45.74
288.07	-75.09
288.285	43.69
288.5	113.32
288.715	74.41
288.93	78.51
289.145	-38.23
289.36	144.04
289.575	-40.28
289.79	154.28
290.004	-36.18
290.219	139.94
290.434	-42.32
290.649	29.35
290.864	12.97
291.079	23.21
291.294	41.64
291.509	68.27
291.724	25.26
291.938	47.79
292.153	72.36
292.368	33.45
292.583	96.94
292.798	105.13
293.012	47.79
293.227	92.84
293.442	2.73
293.657	133.8
293.871	162.47
294.086	80.55
294.301	92.84
294.516	172.71
294.73	4.78
294.945	-107.86
295.16	37.55
295.374	121.51
295.589	103.08
295.804	39.59
296.018	31.4
296.233	101.03
296.447	47.79
296.662	58.03
296.877	154.28
297.091	86.7
297.306	29.35
297.52	66.22
297.735	115.37
297.949	35.5
298.164	8.87
298.378	23.21
298.593	-32.08
298.807	-19.8
299.022	10.92
299.236	205.48
299.451	-27.99
299.665	-25.94
299.88	31.4
300.094	27.31
300.309	25.26
300.523	29.35
300.737	101.03
300.952	15.02
301.166	152.23
301.381	29.35
301.595	-30.04
301.809	86.7
302.024	-1.37
302.238	12.97
302.452	90.79
302.667	64.17
302.881	144.04
303.095	27.31
303.309	60.07
303.524	37.55
303.738	88.75
303.952	8.87
304.166	0.68
304.381	-111.96
304.595	228.01
304.809	-21.85
305.023	88.75
305.237	-9.56
305.452	-3.41
305.666	101.03
305.88	109.22
306.094	115.37
306.308	80.55
306.522	98.99
306.736	90.79
306.95	66.22
307.164	55.98
307.379	19.11
307.593	80.55
307.807	101.03
308.021	21.16
308.235	-5.46
308.449	-17.75
308.663	33.45
308.877	193.19
309.091	58.03
309.305	70.31
309.519	-68.95
309.733	123.56
309.947	-85.33
310.161	8.87
310.374	144.04
310.588	80.55
310.802	-17.75
311.016	-19.8
311.23	64.17
311.444	-83.28
311.658	-5.46
311.872	168.62
312.085	148.14
312.299	86.7
312.513	119.46
312.727	33.45
312.941	-50.52
313.154	53.93
313.368	31.4
313.582	8.87
313.796	68.27
314.009	64.17
314.223	178.86
314.437	-38.23
314.651	76.46
314.864	15.02
315.078	-1.37
315.292	-73.04
315.505	-46.42
315.719	98.99
315.933	115.37
316.146	33.45
316.36	-66.9
316.573	176.81
316.787	64.17
317.001	119.46
317.214	-7.51
317.428	86.7
317.641	-7.51
317.855	137.9
318.068	-44.37
318.282	70.31
318.495	131.75
318.709	41.64
318.922	66.22
319.136	125.61
319.349	70.31
319.563	58.03
319.776	123.56
319.99	-161.11
320.203	76.46
320.417	25.26
320.63	62.12
320.843	182.95
321.057	82.6
321.27	49.83
321.483	27.31
321.697	162.47
321.91	47.79
322.124	119.46
322.337	45.74
322.55	21.16
322.763	-5.46
322.977	10.92
323.19	8.87
323.403	51.88
323.617	76.46
323.83	144.04
324.043	-25.94
324.256	45.74
324.469	-32.08
324.683	119.46
324.896	-9.56
325.109	-17.75
325.322	-111.96
325.535	90.79
325.748	109.22
325.962	0.68
326.175	31.4
326.388	94.89
326.601	125.61
326.814	55.98
327.027	33.45
327.24	60.07
327.453	-52.56
327.666	51.88
327.879	17.07
328.092	103.08
328.305	144.04
328.518	15.02
328.731	-50.52
328.944	33.45
329.157	80.55
329.37	-58.71
329.583	135.85
329.796	90.79
330.009	-32.08
330.222	45.74
330.435	90.79
330.648	4.78
330.861	68.27
331.073	-42.32
331.286	168.62
331.499	74.41
331.712	-3.41
331.925	31.4
332.138	98.99
332.35	53.93
332.563	6.83
332.776	111.27
332.989	-19.8
333.202	31.4
333.414	10.92
333.627	74.41
333.84	-1.37
334.053	19.11
334.265	21.16
334.478	45.74
334.691	29.35
334.903	29.35
335.116	6.83
335.329	105.13
335.541	78.51
335.754	164.52
335.966	68.27
336.179	-11.61
336.392	31.4
336.604	43.69
336.817	58.03
337.029	125.61
337.242	8.87
337.454	33.45
337.667	53.93
337.88	144.04
338.092	115.37
338.305	137.9
338.517	58.03
338.729	94.89
338.942	88.75
339.154	8.87
339.367	-30.04
339.579	-3.41
339.792	51.88
340.004	84.65
340.217	10.92
340.429	72.36
340.641	-1.37
340.854	-42.32
341.066	51.88
341.278	127.66
341.491	141.99
341.703	66.22
341.915	-25.94
342.128	121.51
342.34	39.59
342.552	-3.41
342.764	70.31
342.977	-11.61
343.189	19.11
343.401	84.65
343.613	-19.8
343.826	72.36
344.038	-52.56
344.25	8.87
344.462	-25.94
344.674	41.64
344.886	39.59
345.099	107.18
345.311	88.75
345.523	51.88
345.735	-64.85
345.947	-11.61
346.159	66.22
346.371	49.83
346.583	-9.56
346.795	209.58
347.007	-40.28
347.219	94.89
347.431	-73.04
347.643	133.8
347.855	111.27
348.067	137.9
348.279	-3.41
348.491	-9.56
348.703	90.79
348.915	94.89
349.127	-48.47
349.339	41.64
349.551	21.16
349.763	107.18
349.975	117.42
350.187	55.98
350.399	121.51
350.61	33.45
350.822	-15.7
351.034	-44.37
351.246	135.85
351.458	2.73
351.669	94.89
351.881	86.7
352.093	125.61
352.305	12.97
352.517	74.41
352.728	144.04
352.94	2.73
353.152	115.37
353.363	-11.61
353.575	51.88
353.787	98.99
353.999	60.07
354.21	185
354.422	8.87
354.633	-32.08
354.845	58.03
355.057	41.64
355.268	27.31
355.48	51.88
355.692	-38.23
355.903	23.21
356.115	-34.13
356.326	-91.48
356.538	105.13
356.749	-52.56
356.961	156.33
357.172	23.21
357.384	-11.61
357.595	238.25
357.807	-34.13
358.018	49.83
358.23	-38.23
358.441	156.33
358.653	39.59
358.864	98.99
359.075	-19.8
359.287	41.64
359.498	113.32
359.709	82.6
359.921	-15.7
360.132	60.07
360.344	35.5
360.555	0.68
360.766	53.93
360.977	31.4
361.189	94.89
361.4	23.21
361.611	58.03
361.823	76.46
362.034	19.11
362.245	-64.85
362.456	-44.37
362.667	141.99
362.879	-91.48
363.09	33.45
363.301	37.55
363.512	51.88
363.723	-13.65
363.935	0.68
364.146	49.83
364.357	64.17
364.568	105.13
364.779	-23.89
364.99	90.79
365.201	-36.18
365.412	86.7
365.623	-85.33
365.834	111.27
366.045	8.87
366.256	96.94
366.467	80.55
366.678	0.68
366.889	31.4
367.1	76.46
367.311	144.04
367.522	-7.51
367.733	107.18
367.944	111.27
368.155	72.36
368.366	78.51
368.577	62.12
368.788	113.32
368.999	-23.89
369.209	58.03
369.42	250.53
369.631	291.49
369.842	6.83
370.053	27.31
370.264	111.27
370.474	-38.23
370.685	78.51
370.896	47.79
371.107	113.32
371.317	64.17
371.528	8.87
371.739	105.13
371.95	55.98
372.16	78.51
372.371	29.35
372.582	10.92
372.792	82.6
373.003	109.22
373.214	19.11
373.424	101.03
373.635	-3.41
373.846	197.29
374.056	0.68
374.267	105.13
374.477	66.22
374.688	-46.42
374.898	47.79
375.109	43.69
375.319	39.59
375.53	115.37
375.74	84.65
375.951	-27.99
376.161	39.59
376.372	94.89
376.582	-21.85
376.793	115.37
377.003	21.16
377.214	29.35
377.424	72.36
377.635	64.17
377.845	25.26
378.055	72.36
378.266	-62.8
378.476	74.41
378.686	62.12
378.897	29.35
379.107	78.51
379.317	45.74
379.528	37.55
379.738	80.55
379.948	-3.41
380.158	133.8
380.369	49.83
380.579	66.22
380.789	10.92
380.999	64.17
381.21	103.08
381.42	209.58
381.63	45.74
381.84	117.42
382.05	121.51
382.261	72.36
382.471	189.1
382.681	31.4
382.891	141.99
383.101	21.16
383.311	-27.99
383.521	-5.46
383.731	90.79
383.941	152.23
384.151	74.41
384.361	129.7
384.571	131.75
384.781	111.27
384.991	207.53
385.201	66.22
385.411	94.89
385.621	55.98
385.831	35.5
386.041	12.97
386.251	55.98
386.461	144.04
386.671	-17.75
386.881	37.55
387.091	-13.65
387.301	98.99
387.511	51.88
387.72	43.69
387.93	49.83
388.14	-36.18
388.35	23.21
388.56	119.46
388.769	4.78
388.979	51.88
389.189	-89.43
389.399	37.55
389.609	60.07
389.818	98.99
390.028	-1.37
390.238	29.35
390.447	55.98
390.657	135.85
390.867	37.55
391.076	-73.04
391.286	135.85
391.496	-40.28
391.705	31.4
391.915	119.46
392.125	150.18
392.334	15.02
392.544	207.53
392.753	113.32
392.963	10.92
393.172	19.11
393.382	31.4
393.591	176.81
393.801	51.88
394.01	137.9
394.22	47.79
394.429	-30.04
394.639	17.07
394.848	176.81
395.058	84.65
395.267	-19.8
395.477	139.94
395.686	60.07
395.895	252.58
396.105	221.86
396.314	105.13
396.524	2.73
396.733	41.64
396.942	103.08
397.152	105.13
397.361	74.41
397.57	139.94
397.78	111.27
397.989	123.56
398.198	228.01
398.407	105.13
398.617	10.92
398.826	29.35
399.035	74.41
399.244	129.7
399.453	41.64
399.663	78.51
399.872	111.27
400.081	-44.37
400.29	84.65
400.499	-73.04
400.708	152.23
400.917	58.03
401.127	53.93
401.336	10.92
401.545	162.47
401.754	74.41
401.963	113.32
402.172	39.59
402.381	-27.99
402.59	15.02
402.799	60.07
403.008	103.08
403.217	103.08
403.426	107.18
403.635	10.92
403.844	-62.8
404.053	64.17
404.262	103.08
404.471	191.14
404.68	103.08
404.888	45.74
405.097	37.55
405.306	45.74
405.515	178.86
405.724	64.17
405.933	86.7
406.142	101.03
406.35	121.51
406.559	-21.85
406.768	84.65
406.977	49.83
407.185	84.65
407.394	82.6
407.603	-58.71
407.812	55.98
408.02	88.75
408.229	35.5
408.438	27.31
408.646	-142.68
408.855	29.35
409.064	139.94
409.272	15.02
409.481	119.46
409.69	0.68
409.898	41.64
410.107	113.32
410.315	162.47
410.524	-15.7
410.733	105.13
410.941	121.51
411.15	19.11
411.358	84.65
411.567	133.8
411.775	98.99
411.984	27.31
412.192	119.46
412.401	-5.46
412.609	221.86
412.818	72.36
413.026	51.88
413.234	-81.24
413.443	27.31
413.651	-9.56
413.86	109.22
414.068	221.86
414.276	172.71
414.485	15.02
414.693	156.33
414.901	160.42
415.11	64.17
415.318	76.46
415.526	43.69
415.734	94.89
415.943	68.27
416.151	96.94
416.359	21.16
416.567	111.27
416.776	62.12
416.984	94.89
417.192	135.85
417.4	2.73
417.608	0.68
417.817	-81.24
418.025	203.43
418.233	125.61
418.441	4.78
418.649	-17.75
418.857	82.6
419.065	148.14
419.273	4.78
419.481	139.94
419.689	-3.41
419.897	2.73
420.105	17.07
420.313	127.66
420.521	191.14
420.729	117.42
420.937	-73.04
421.145	27.31
421.353	12.97
421.561	86.7
421.769	39.59
421.977	55.98
422.185	101.03
422.393	90.79
422.601	90.79
422.809	68.27
423.017	129.7
423.224	101.03
423.432	94.89
423.64	41.64
423.848	152.23
424.056	17.07
424.263	144.04
424.471	88.75
424.679	103.08
424.887	27.31
425.094	135.85
425.302	115.37
425.51	109.22
425.718	170.66
425.925	19.11
426.133	51.88
426.341	217.77
426.548	53.93
426.756	64.17
426.964	125.61
427.171	80.55
427.379	96.94
427.586	84.65
427.794	51.88
428.001	121.51
428.209	166.57
428.417	160.42
428.624	217.77
428.832	-36.18
429.039	74.41
429.247	2.73
429.454	101.03
429.662	225.96
429.869	123.56
430.076	94.89
430.284	111.27
430.491	129.7
430.699	174.76
430.906	223.91
431.114	127.66
431.321	158.38
431.528	109.22
431.736	193.19
431.943	86.7
432.15	176.81
432.358	193.19
432.565	287.4
432.772	86.7
432.979	221.86
433.187	92.84
433.394	131.75
433.601	127.66
433.808	187.05
434.016	215.72
434.223	180.9
434.43	160.42
434.637	242.34
434.844	242.34
435.052	234.15
435.259	203.43
435.466	350.89
435.673	203.43
435.88	232.1
436.087	281.25
436.294	375.46
436.501	307.88
436.708	250.53
436.915	311.97
437.122	357.03
437.329	178.86
437.537	377.51
437.743	277.16
437.95	502.43
438.157	314.02
438.364	346.79
438.571	381.6
438.778	428.71
438.985	397.99
439.192	498.34
439.399	428.71
439.606	406.18
439.813	541.35
440.02	543.39
440.227	543.39
440.433	541.35
440.64	527.01
440.847	469.67
441.054	588.45
441.261	735.9
441.467	660.13
441.674	477.86
441.881	651.94
442.088	537.25
442.294	625.31
442.501	709.28
442.708	733.86
442.914	678.56
443.121	774.81
443.328	864.93
443.534	807.58
443.741	836.25
443.948	815.77
444.154	942.75
444.361	1067.67
444.568	957.08
444.774	1053.34
444.981	938.65
445.187	1143.45
445.394	1098.39
445.6	1030.81
445.807	1174.17
446.013	1223.32
446.22	1106.59
446.426	1256.09
446.633	1387.16
446.839	1567.38
447.046	1374.87
447.252	1477.27
447.459	1512.08
447.665	1446.55
447.871	1708.69
448.078	1778.32
448.284	1788.56
448.491	1864.33
448.697	1882.77
448.903	1860.24
449.11	2050.7
449.316	1989.26
449.522	2226.82
449.728	2280.07
449.935	2396.81
450.141	2349.7
450.347	2482.82
450.553	2566.79
450.76	2652.8
450.966	2660.99
451.172	2849.41
451.378	2929.28
451.584	2951.81
451.791	3240.57
451.997	3269.24
452.203	3277.43
452.409	3549.81
452.615	3551.86
452.821	3478.13
453.027	3535.48
453.233	4119.15
453.44	3953.26
453.646	4199.02
453.852	4334.18
454.058	4409.96
454.264	4596.32
454.47	4817.51
454.676	4868.7
454.882	5349.98
455.088	5141.08
455.294	5501.53
455.5	5718.61
455.705	6017.61
455.911	6156.88
456.117	6097.49
456.323	6466.12
456.529	6433.35
456.735	7049.79
456.941	7246.4
457.147	7313.98
457.352	7651.89
457.558	7875.12
457.764	8452.65
457.97	8479.27
458.176	8698.41
458.381	9312.8
458.587	9495.07
458.793	9945.62
458.999	9812.5
459.204	11182.59
459.41	11745.78
459.616	11520.51
459.821	12136.95
460.027	12726.76
460.233	13140.45
460.438	13197.79
460.644	14092.76
460.85	13959.64
461.055	14461.39
461.261	15227.33
461.466	15040.97
461.672	15460.8
461.878	17017.26
462.083	16900.52
462.289	17306.02
462.494	18110.87
462.7	17961.37
462.905	18211.22
463.111	19880.32
463.316	20746.61
463.522	21121.38
463.727	21707.1
463.932	22587.73
464.138	23576.9
464.343	24533.3
464.549	24406.33
464.754	26208.54
464.959	27322.63
465.165	27607.3
465.37	27091.21
465.575	27183.37
465.781	29049.07
465.986	30081.25
466.191	29454.57
466.397	29466.86
466.602	29133.04
466.807	30523.61
467.012	31326.41
467.218	31641.8
467.423	31889.6
467.628	32811.19
467.833	34795.67
468.038	33927.33
468.244	32874.68
468.449	34869.4
468.654	34384.03
468.859	34037.92
469.064	34068.64
469.269	33048.75
469.474	33941.67
469.679	34654.36
469.885	33722.54
470.09	34148.51
470.295	34123.94
470.5	33362.09
470.705	33595.56
470.91	32592.06
471.115	32528.57
471.32	33331.37
471.525	32448.7
471.73	32057.54
471.935	31924.42
472.139	30468.31
472.344	30689.49
472.549	30148.83
472.754	29573.35
472.959	29012.21
473.164	28162.3
473.369	27713.8
473.574	28795.12
473.778	28059.9
473.983	27416.84
474.188	26792.21
474.393	25592.1
474.598	25669.92
474.802	25037.1
475.007	24527.16
475.212	24387.89
475.417	23247.18
475.621	23499.08
475.826	23058.76
476.031	22442.32
476.235	22151.51
476.44	22184.28
476.645	21535.07
476.849	20980.07
477.054	21356.9
477.259	20468.08
477.463	20337.01
477.668	19675.52
477.872	19702.14
478.077	19331.46
478.282	18737.55
478.486	18860.43
478.691	18389.39
478.895	18264.47
479.1	18129.3
479.304	18065.81
479.509	17301.92
479.713	17422.75
479.918	17342.88
480.122	16843.18
480.326	16896.42
480.531	16990.63
480.735	16769.45
480.94	16484.78
481.144	16886.19
481.348	16161.2
481.553	15972.79
481.757	15329.73
481.961	15978.93
482.166	16128.44
482.37	15767.99
482.574	15053.25
482.778	15368.64
482.983	15444.41
483.187	15129.03
483.391	15464.89
483.595	14901.7
483.8	14596.56
484.004	14494.16
484.208	14676.43
484.412	14649.8
484.616	14313.94
484.821	14127.57
485.025	13726.17
485.229	13728.22
485.433	13662.68
485.637	13623.77
485.841	13107.68
486.045	13240.8
486.249	12943.85
486.453	12597.74
486.657	12642.79
486.861	12259.82
487.065	12042.74
487.269	12229.1
487.473	11651.58
487.677	11940.34
487.881	11653.62
488.085	11428.35
488.289	11039.23
488.493	10861.06
488.697	10869.25
488.901	10744.33
489.105	10367.5
489.309	10301.97
489.512	10056.21
489.716	9925.14
489.92	9882.13
490.124	9456.15
490.328	9519.64
490.531	9194.01
490.735	9290.27
490.939	8847.91
491.143	8905.25
491.346	8436.27
491.55	8589.86
491.754	8438.31
491.958	8221.23
492.161	8153.65
492.365	7883.31
492.569	7680.57
492.772	7668.28
492.976	7653.94
493.18	7670.33
493.383	7422.52
493.587	7440.95
493.79	7328.31
493.994	7031.36
494.197	6982.21
494.401	6955.58
494.605	6851.14
494.808	6890.05
495.012	6818.37
495.215	6937.15
495.419	6888
495.622	6564.42
495.825	6695.49
496.029	6449.74
496.232	6636.1
496.436	6818.37
496.639	6736.45
496.843	6457.93
497.046	6603.33
497.249	6537.8
497.453	6410.82
497.656	6582.85
497.859	6478.41
498.063	6836.8
498.266	6656.58
498.469	6400.59
498.673	6578.76
498.876	6660.68
499.079	6517.32
499.282	6521.42
499.485	6775.36
499.689	6658.63
499.892	6888
500.095	6558.28
500.298	6844.99
500.501	6709.83
500.705	6851.14
500.908	7076.41
501.111	7057.98
501.314	7148.09
501.517	7285.31
501.72	7436.86
501.923	7246.4
502.126	7510.58
502.329	7584.31
502.532	7592.5
502.735	7500.34
502.938	7803.44
503.141	7899.7
503.344	7727.67
503.547	7993.9
503.75	8137.26
503.953	8104.49
504.156	8065.58
504.359	8340.01
504.562	8413.74
504.765	8698.41
504.968	8661.54
505.17	8895.01
505.373	9148.96
505.576	9228.83
505.779	9296.41
505.982	9368.09
506.185	9646.62
506.387	9763.35
506.59	10136.08
506.793	10179.09
506.996	10170.9
507.198	10603.02
507.401	10670.6
507.604	10807.81
507.807	11137.54
508.009	11454.97
508.212	11465.21
508.415	11782.65
508.617	11954.68
508.82	12126.71
509.022	12270.06
509.225	12747.24
509.428	13040.1
509.63	13097.44
509.833	13279.71
510.035	14053.84
510.238	14025.17
510.44	14260.69
510.643	14709.19
510.845	15114.69
511.048	15178.18
511.25	15710.65
511.453	15815.1
511.655	16544.17
511.858	16751.02
512.06	17179.04
512.262	17664.41
512.465	17795.48
512.667	18461.07
512.87	18819.47
513.072	19016.07
513.274	19487.11
513.477	20001.15
513.679	20621.68
513.881	20750.7
514.084	21295.46
514.286	21412.2
514.488	22016.35
514.69	22935.88
514.893	23390.53
515.095	23685.44
515.297	23982.4
515.499	24971.57
515.701	25340.2
515.904	25727.27
516.106	26177.82
516.308	26808.59
516.51	27465.99
516.712	27728.13
516.914	28502.26
517.116	29178.09
517.318	29245.68
517.52	29991.14
517.722	30208.22
517.925	31232.21
518.127	31959.24
518.329	32278.72
518.531	32540.86
518.733	33675.43
518.935	33982.63
519.136	33984.68
519.338	35027.09
519.54	35833.99
519.742	35872.9
519.944	36448.38
520.146	37513.33
520.348	37888.1
520.55	38178.92
520.752	38707.29
520.954	39577.68
521.155	39135.32
521.357	40351.81
521.559	40570.94
521.761	41003.07
521.963	41482.29
522.164	41869.36
522.366	42201.13
522.568	42649.63
522.77	43276.31
522.971	43728.91
523.173	43546.64
523.375	43905.04
523.576	43593.75
523.778	43722.77
523.98	44607.49
524.181	45004.8
524.383	44750.85
524.584	45379.57
524.786	45035.52
524.988	45060.09
525.189	45467.64
525.391	45903.85
525.592	45756.4
525.794	45807.6
525.995	45445.11
526.197	45441.01
526.398	45783.02
526.6	45502.45
526.801	45836.27
527.003	45205.5
527.204	45078.52
527.406	45479.92
527.607	45174.78
527.808	45207.54
528.01	43933.71
528.211	44347.4
528.412	44693.5
528.614	44267.53
528.815	43655.18
529.016	43995.15
529.218	42932.25
529.419	42768.41
529.62	42475.55
529.822	42047.53
530.023	41746.48
530.224	41330.74
530.425	41252.92
530.626	40218.69
530.828	39829.58
531.029	40167.49
531.23	39188.56
531.431	38840.41
531.632	39055.45
531.833	38221.92
532.035	37650.54
532.236	36878.46
532.437	37345.39
532.638	36204.67
532.839	36143.24
533.04	35958.92
533.241	34865.3
533.442	35160.21
533.643	34115.75
533.844	33800.36
534.045	33704.1
534.246	32972.98
534.447	32833.72
534.648	32340.16
534.849	31881.41
535.05	31119.57
535.251	30892.24
535.451	30503.13
535.652	30306.52
535.853	29501.67
536.054	29151.47
536.255	29065.46
536.456	28285.18
536.657	28287.23
536.857	27910.4
537.058	27379.98
537.259	27281.67
537.46	26628.37
537.66	26489.11
537.861	25907.49
538.062	25274.67
538.263	25377.06
538.463	24852.78
538.664	24809.78
538.865	24584.5
539.065	24236.34
539.266	23757.12
539.466	23431.49
539.667	23042.38
539.868	23290.18
540.068	22692.18
540.269	22376.79
540.469	22233.43
540.67	21901.66
540.87	21909.85
541.071	21399.91
541.271	21139.82
541.472	20928.88
541.672	20564.34
541.873	20445.55
542.073	19786.11
542.274	19986.81
542.474	19646.85
542.675	19310.98
542.875	19546.5
543.075	18913.67
543.276	18547.09
543.476	18600.33
543.676	18307.48
543.877	18157.97
544.077	17904.03
544.277	17818.01
544.478	17277.35
544.678	17691.04
544.878	17346.98
545.078	16925.1
545.279	16632.24
545.479	16828.84
545.679	16544.17
545.879	16290.23
546.079	16052.66
546.28	15788.47
546.48	15491.52
546.68	15405.5
546.88	15204.8
547.08	14993.86
547.28	15157.7
547.48	14449.1
547.68	14764.49
547.88	14471.63
548.081	14424.53
548.281	14217.68
548.481	13814.23
548.681	13683.16
548.881	13398.49
549.081	13230.56
549.28	13130.21
549.48	13062.63
549.68	12919.27
549.88	12734.95
550.08	12335.6
550.28	12239.34
550.48	12268.02
550.68	12102.13
550.88	11831.8
551.08	11672.06
551.279	11639.29
551.479	11188.74
551.679	11127.3
551.879	10979.84
552.079	10928.64
552.278	10713.61
552.478	10682.89
552.678	10404.36
552.878	10383.88
553.077	10017.3
553.277	10023.44
553.477	9890.32
553.676	9597.46
553.876	9572.89
554.076	9364
554.275	9237.02
554.475	8868.39
554.674	8868.39
554.874	8718.89
555.074	8477.23
555.273	8397.35
555.473	8364.59
555.672	8290.86
555.872	8073.78
556.071	8096.3
556.271	8008.24
556.47	7819.83
556.67	7627.32
556.869	7336.51
557.068	7293.5
557.268	7178.81
557.467	7043.65
557.667	7064.13
557.866	6851.14
558.065	6840.9
558.265	6597.19
558.464	6500.94
558.663	6591.05
558.863	6324.81
559.062	6285.9
559.261	6101.58
559.461	6081.1
559.66	5947.98
559.859	5761.62
560.058	5620.31
560.258	5630.55
560.457	5665.36
560.656	5534.29
560.855	5247.58
561.054	5343.83
561.253	5280.35
561.453	5323.35
561.652	5196.38
561.851	4944.48
562.05	4788.83
562.249	4862.56
562.448	4799.07
562.647	4618.85
562.846	4534.89
563.045	4629.09
563.244	4536.93
563.443	4588.13
563.642	4393.58
563.841	4223.59
564.04	4237.93
564.239	4090.48
564.438	4061.8
564.637	4014.7
564.836	3957.36
565.035	3973.74
565.234	3795.57
565.432	3674.74
565.631	3758.71
565.83	3691.12
566.029	3623.54
566.228	3558
566.427	3539.57
566.625	3338.87
566.824	3363.45
567.023	3416.69
567.222	3332.73
567.42	3336.82
567.619	3273.34
567.818	3281.53
568.016	3232.38
568.215	3148.41
568.414	3222.14
568.612	3136.12
568.811	3054.2
569.01	2939.52
569.208	2855.55
569.407	2859.65
569.605	2935.42
569.804	2808.45
570.002	2722.43
570.201	2736.77
570.4	2699.91
570.598	2632.32
570.797	2476.68
570.995	2480.77
571.193	2568.84
571.392	2409.09
571.59	2374.28
571.789	2318.98
571.987	2552.45
572.186	2486.92
572.384	2263.69
572.582	2169.48
572.781	2144.91
572.979	1968.78
573.177	2091.66
573.376	2083.47
573.574	2058.89
573.772	1991.31
573.971	1927.82
574.169	1962.64
574.367	1950.35
574.565	1954.44
574.763	1809.04
574.962	1913.49
575.16	1800.85
575.358	1680.02
575.556	1755.79
575.754	1704.59
575.952	1634.96
576.151	1688.21
576.349	1766.03
576.547	1507.99
576.745	1563.28
576.943	1614.48
577.141	1524.37
577.339	1561.23
577.537	1532.56
577.735	1467.03
577.933	1288.85
578.131	1393.3
578.329	1557.14
578.527	1331.86
578.725	1448.6
578.923	1251.99
579.121	1444.5
579.319	1065.63
579.516	1186.46
579.714	1421.97
579.912	1274.52
580.11	1135.26
580.308	1231.51
580.506	1159.83
580.704	1057.43
580.901	1067.67
581.099	1184.41
581.297	1143.45
581.495	1114.78
581.692	1039
581.89	1143.45
582.088	950.94
582.285	975.52
582.483	959.13
582.681	942.75
582.878	952.99
583.076	1028.76
583.274	926.36
583.471	1034.91
583.669	864.93
583.866	961.18
584.064	848.54
584.262	799.39
584.459	815.77
584.657	866.97
584.854	991.9
585.052	920.22
585.249	905.88
585.447	909.98
585.644	780.96
585.841	930.46
586.039	811.68
586.236	850.59
586.434	746.14
586.631	721.57
586.828	717.47
587.026	787.1
587.223	598.69
587.42	662.18
587.618	740
587.815	766.62
588.012	711.33
588.21	529.06
588.407	623.27
588.604	727.71
588.801	656.03
588.999	643.74
589.196	713.38
589.393	578.21
589.59	666.27
589.787	713.38
589.984	670.37
590.182	705.18
590.379	576.16
590.576	563.87
590.773	580.26
590.97	537.25
591.167	643.74
591.364	680.61
591.561	592.55
591.758	662.18
591.955	565.92
592.152	627.36
592.349	488.1
592.546	613.03
592.743	582.31
592.94	553.63
593.137	596.64
593.334	475.81
593.531	627.36
593.727	596.64
593.924	662.18
594.121	615.07
594.318	582.31
594.515	596.64
594.712	760.48
594.908	670.37
595.105	598.69
595.302	633.5
595.499	549.54
595.696	752.29
595.892	625.31
596.089	793.25
596.286	584.35
596.482	785.05
596.679	750.24
596.876	676.51
597.072	793.25
597.269	805.53
597.466	778.91
597.662	653.98
597.859	828.06
598.055	879.26
598.252	883.36
598.448	936.6
598.645	965.28
598.841	887.45
599.038	1045.15
599.234	1008.28
599.431	1032.86
599.627	1020.57
599.824	1094.3
600.02	1159.83
600.217	1110.68
600.413	1200.79
600.609	1331.86
600.806	1553.04
601.002	1391.25
601.198	1383.06
601.395	1524.37
601.591	1632.91
601.787	1639.06
601.984	1606.29
602.18	1843.85
602.376	1770.13
602.572	1815.18
602.769	1974.92
602.965	1964.68
603.161	2142.86
603.357	2089.61
603.553	2239.11
603.75	2298.5
603.946	2290.31
604.142	2396.81
604.338	2652.8
604.534	2501.25
604.73	2663.04
604.926	2722.43
605.122	2833.02
605.318	2767.49
605.514	2980.48
605.71	3007.1
605.906	3097.21
606.102	3195.51
606.298	3396.21
606.494	3437.17
606.69	3555.96
606.886	3603.06
607.082	3662.45
607.278	3764.85
607.474	3857.01
607.67	4051.56
607.866	4004.46
608.062	4485.73
608.257	4385.38
608.453	4373.1
608.649	4684.39
608.845	4694.63
609.041	4852.32
609.236	5065.31
609.432	5194.33
609.628	5300.83
609.824	5442.14
610.019	5372.5
610.215	5640.79
610.411	6013.52
610.606	6132.3
610.802	6177.36
610.998	6300.23
611.193	6613.57
611.389	6533.7
611.584	6933.06
611.78	6795.84
611.976	7377.47
612.171	7385.66
612.367	7733.81
612.562	7746.1
612.758	7766.58
612.953	8163.89
613.149	8399.4
613.344	8286.76
613.539	9046.56
613.735	9108
613.93	9273.89
614.126	9308.7
614.321	9962
614.517	9998.87
614.712	10162.7
614.907	10717.7
615.103	10891.78
615.298	10844.68
615.493	11262.46
615.688	11430.4
615.884	12026.36
616.079	11923.96
616.274	12419.57
616.47	12634.6
616.665	12823.01
616.86	13263.33
617.055	13582.81
617.25	13738.46
617.445	14477.77
617.641	14504.4
617.836	14987.72
618.031	15102.4
618.226	15839.67
618.421	15985.08
618.616	16572.85
618.811	16834.99
619.006	17078.69
619.201	17447.33
619.396	18063.77
619.591	17893.79
619.786	18813.32
619.981	18919.82
620.176	19304.84
620.371	19704.19
620.566	20291.96
620.761	20517.23
620.956	21010.79
621.151	21121.38
621.346	21936.48
621.541	21838.17
621.735	22702.42
621.93	22817.1
622.125	23499.08
622.32	23652.67
622.515	24172.86
622.709	24611.12
622.904	25129.26
623.099	25618.72
623.294	26417.43
623.488	26323.22
623.683	27302.15
623.878	27107.6
624.072	27631.88
624.267	28557.56
624.462	28442.87
624.656	28860.66
624.851	29395.18
625.046	29761.76
625.24	30204.13
625.435	30423.26
625.629	30808.28
625.824	31469.77
626.018	31971.52
626.213	31574.22
626.407	32422.08
626.602	32600.25
626.796	33331.37
626.991	33736.87
627.185	33904.81
627.38	33953.96
627.574	34449.57
627.768	34310.3
627.963	34418.85
628.157	34748.57
628.352	34932.89
628.546	34429.09
628.74	35084.44
628.935	34736.28
629.129	35004.56
629.323	34560.16
629.517	34412.7
629.712	33949.86
629.906	34074.79
630.1	33425.58
630.294	33409.2
630.489	32796.85
630.683	32694.46
630.877	31828.17
631.071	31647.94
631.265	31230.16
631.459	30683.35
631.653	29757.67
631.848	29370.6
632.042	28391.67
632.236	28150.01
632.43	27224.33
632.624	26804.5
632.818	25870.62
633.012	24826.16
633.206	24201.53
633.4	23535.94
633.594	22563.15
633.788	21924.19
633.982	21219.69
634.176	20679.02
634.369	19454.34
634.563	18852.24
634.757	18186.65
634.951	17353.12
635.145	16888.23
635.339	16081.33
635.533	15534.53
635.726	15090.12
635.92	14125.52
636.114	13648.35
636.308	13208.03
636.501	12489.2
636.695	12282.35
636.889	11543.03
637.083	11065.86
637.276	10605.06
637.47	10189.33
637.664	9794.07
637.857	9587.22
638.051	8968.74
638.244	8690.21
638.438	8559.14
638.632	7963.19
638.825	7391.8
639.019	7529.02
639.212	6908.48
639.406	6947.39
639.599	6615.62
639.793	6269.51
639.986	6011.47
640.18	5964.37
640.373	5569.11
640.567	5384.79
640.76	5169.76
640.954	4917.86
641.147	4809.31
641.34	4577.89
641.534	4387.43
641.727	4422.25
641.92	4221.55
642.114	4082.28
642.307	3799.66
642.5	3844.72
642.694	3412.6
642.887	3320.44
643.08	3383.93
643.273	3207.8
643.467	3033.72
643.66	2898.56
643.853	2802.3
644.046	2669.19
644.239	2556.55
644.432	2452.1
644.626	2337.41
644.819	2269.83
645.012	2108.04
645.205	2310.79
645.398	2058.89
645.591	1903.25
645.784	1792.66
645.977	1712.78
646.17	1682.06
646.363	1643.15
646.556	1602.19
646.749	1544.85
646.942	1573.52
647.135	1495.7
647.328	1440.4
647.521	1325.72
647.714	1190.55
647.907	1307.29
648.099	1165.98
648.292	1143.45
648.485	1122.97
648.678	1002.14
648.871	1014.43
649.064	840.35
649.256	762.53
649.449	871.07
649.642	737.95
649.835	862.88
650.027	846.49
650.22	881.31
650.413	770.72
650.605	709.28
650.798	649.89
650.991	750.24
651.183	711.33
651.376	694.94
651.568	635.55
651.761	500.39
651.954	617.12
652.146	543.39
652.339	561.83
652.531	606.88
652.724	524.96
652.916	506.53
653.109	334.5
653.301	570.02
653.494	559.78
653.686	524.96
653.879	438.95
654.071	496.29
654.263	367.27
654.456	338.6
654.648	512.67
654.84	410.28
655.033	336.55
655.225	436.9
655.417	221.86
655.61	397.99
655.802	365.22
655.994	371.37
656.186	260.77
656.379	373.41
656.571	271.01
656.763	295.59
656.955	301.73
657.148	232.1
657.34	365.22
657.532	354.98
657.724	189.1
657.916	357.03
658.108	352.93
658.3	279.21
658.492	271.01
658.684	211.62
658.876	377.51
659.068	182.95
659.26	166.57
659.452	156.33
659.644	205.48
659.836	311.97
660.028	148.14
660.22	172.71
660.412	121.51
660.604	176.81
660.796	244.39
660.988	305.83
661.18	223.91
661.372	242.34
661.563	256.68
661.755	268.97
661.947	82.6
662.139	148.14
662.331	105.13
662.522	148.14
662.714	90.79
662.906	123.56
663.097	144.04
663.289	152.23
663.481	25.26
663.673	193.19
663.864	88.75
664.056	141.99
664.247	64.17
664.439	121.51
664.631	109.22
664.822	217.77
665.014	146.09
665.205	168.62
665.397	53.93
665.588	158.38
665.78	123.56
665.971	150.18
666.163	113.32
666.354	154.28
666.546	121.51
666.737	62.12
666.929	148.14
667.12	92.84
667.311	135.85
667.503	144.04
667.694	84.65
667.885	55.98
668.077	144.04
668.268	-15.7
668.459	86.7
668.651	189.1
668.842	105.13
669.033	72.36
669.224	60.07
669.416	281.25
669.607	119.46
669.798	43.69
669.989	217.77
670.18	55.98
670.371	176.81
670.563	70.31
670.754	180.9
670.945	207.53
671.136	166.57
671.327	-25.94
671.518	162.47
671.709	275.11
671.9	156.33
672.091	213.67
672.282	160.42
672.473	139.94
672.664	101.03
672.855	109.22
673.046	180.9
673.237	201.38
673.428	80.55
673.619	141.99
673.809	98.99
674	178.86
674.191	217.77
674.382	31.4
674.573	123.56
674.764	139.94
674.954	205.48
675.145	139.94
675.336	103.08
675.527	90.79
675.717	76.46
675.908	72.36
676.099	180.9
676.289	133.8
676.48	27.31
676.671	166.57
676.861	141.99
677.052	107.18
677.243	21.16
677.433	101.03
677.624	225.96
677.814	185
678.005	103.08
678.195	228.01
678.386	88.75
678.576	127.66
678.767	119.46
678.957	109.22
679.148	193.19
679.338	316.07
679.529	185
679.719	174.76
679.909	176.81
680.1	283.3
680.29	168.62
680.481	41.64
680.671	172.71
680.861	146.09
681.052	209.58
681.242	133.8
681.432	213.67
681.622	121.51
681.813	29.35
682.003	168.62
682.193	82.6
682.383	101.03
682.573	219.82
682.764	168.62
682.954	137.9
683.144	215.72
683.334	139.94
683.524	187.05
683.714	242.34
683.904	221.86
684.094	154.28
684.284	205.48
684.474	340.65
684.664	221.86
684.854	187.05
685.044	139.94
685.234	234.15
685.424	195.24
685.614	141.99
685.804	254.63
685.994	291.49
686.184	180.9
686.374	230.06
686.564	158.38
686.753	215.72
686.943	168.62
687.133	203.43
687.323	236.2
687.513	225.96
687.702	154.28
687.892	207.53
688.082	225.96
688.272	236.2
688.461	215.72
688.651	283.3
688.841	275.11
689.03	187.05
689.22	174.76
689.41	197.29
689.599	176.81
689.789	230.06
689.979	285.35
690.168	225.96
690.358	266.92
690.547	213.67
690.737	213.67
690.926	219.82
691.116	217.77
691.305	234.15
691.495	232.1
691.684	121.51
691.874	199.34
692.063	199.34
692.252	246.44
692.442	262.82
692.631	96.94
692.82	144.04
693.01	185
693.199	182.95
693.388	248.49
693.578	166.57
693.767	162.47
693.956	248.49
694.146	236.2
694.335	174.76
694.524	158.38
694.713	230.06
694.902	209.58
695.092	185
695.281	254.63
695.47	203.43
695.659	154.28
695.848	191.14
696.037	101.03
696.226	209.58
696.415	135.85
696.604	324.26
696.793	240.29
696.982	152.23
697.171	393.89
697.36	105.13
697.549	254.63
697.738	66.22
697.927	217.77
698.116	166.57
698.305	221.86
698.494	172.71
698.683	156.33
698.872	232.1
699.061	185
699.25	135.85
699.438	162.47
699.627	133.8
699.816	287.4
700.005	146.09
700.193	141.99
700.382	180.9
700.571	197.29
700.76	180.9
700.948	217.77
701.137	193.19
701.326	252.58
701.514	150.18
701.703	189.1
701.892	232.1
702.08	369.32
702.269	111.27
702.457	117.42
702.646	193.19
702.834	92.84
703.023	262.82
703.212	252.58
703.4	109.22
703.589	189.1
703.777	193.19
703.965	139.94
704.154	107.18
704.342	76.46
704.531	76.46
704.719	127.66
704.907	176.81
705.096	158.38
705.284	84.65
705.472	193.19
705.661	199.34
705.849	283.3
706.037	277.16
706.226	189.1
706.414	254.63
706.602	101.03
706.79	215.72
706.979	162.47
707.167	240.29
707.355	117.42
707.543	176.81
707.731	271.01
707.919	127.66
708.107	129.7
708.296	68.27
708.484	111.27
708.672	219.82
708.86	185
709.048	158.38
709.236	152.23
709.424	137.9
709.612	242.34
709.8	80.55
709.988	195.24
710.176	316.07
710.364	258.73
710.551	230.06
710.739	191.14
710.927	203.43
711.115	158.38
711.303	217.77
711.491	311.97
711.679	68.27
711.866	225.96
712.054	168.62
712.242	242.34
712.43	311.97
712.617	166.57
712.805	254.63
712.993	176.81
713.181	4.78
713.368	225.96
713.556	148.14
713.744	182.95
713.931	309.93
714.119	230.06
714.306	127.66
714.494	219.82
714.682	197.29
714.869	105.13
715.057	154.28
715.244	45.74
715.432	295.59
715.619	90.79
715.807	123.56
715.994	148.14
716.182	146.09
716.369	262.82
716.556	344.74
716.744	86.7
716.931	111.27
717.119	189.1
717.306	182.95
717.493	283.3
717.681	160.42
717.868	125.61
718.055	129.7
718.242	148.14
718.43	211.62
718.617	234.15
718.804	201.38
718.991	293.54
719.179	285.35
719.366	281.25
719.553	205.48
719.74	316.07
719.927	205.48
720.114	225.96
720.301	123.56
720.488	90.79
720.676	172.71
720.863	283.3
721.05	348.84
721.237	234.15
721.424	277.16
721.611	228.01
721.798	123.56
721.985	201.38
722.172	191.14
722.358	144.04
722.545	293.54
722.732	211.62
722.919	332.45
723.106	178.86
723.293	158.38
723.48	254.63
723.667	168.62
723.853	189.1
724.04	250.53
724.227	354.98
724.414	176.81
724.6	266.92
724.787	387.75
724.974	275.11
725.161	191.14
725.347	121.51
725.534	301.73
725.72	246.44
725.907	285.35
726.094	332.45
726.28	201.38
726.467	180.9
726.653	125.61
726.84	252.58
727.027	391.84
727.213	182.95
727.4	187.05
727.586	197.29
727.773	240.29
727.959	238.25
728.145	271.01
728.332	185
728.518	205.48
728.705	297.64
728.891	273.06
729.077	262.82
729.264	271.01
729.45	191.14
729.636	305.83
729.823	301.73
730.009	303.78
730.195	328.36
730.382	320.17
730.568	156.33
730.754	283.3
730.94	197.29
731.126	264.87
731.313	232.1
731.499	232.1
731.685	254.63
731.871	256.68
732.057	314.02
732.243	250.53
732.429	225.96
732.615	369.32
732.801	273.06
732.987	236.2
733.173	264.87
733.359	221.86
733.545	209.58
733.731	197.29
733.917	277.16
734.103	328.36
734.289	232.1
734.475	137.9
734.661	340.65
734.847	250.53
735.033	238.25
735.219	322.21
735.404	197.29
735.59	203.43
735.776	195.24
735.962	209.58
736.148	352.93
736.333	295.59
736.519	209.58
736.705	213.67
736.89	277.16
737.076	182.95
737.262	115.37
737.447	213.67
737.633	283.3
737.819	320.17
738.004	254.63
738.19	215.72
738.375	217.77
738.561	414.37
738.747	215.72
738.932	191.14
739.118	316.07
739.303	307.88
739.489	271.01
739.674	250.53
739.859	219.82
740.045	258.73
740.23	223.91
740.416	164.52
740.601	240.29
740.786	193.19
740.972	203.43
741.157	228.01
741.342	242.34
741.528	133.8
741.713	359.08
741.898	168.62
742.084	244.39
742.269	225.96
742.454	207.53
742.639	287.4
742.824	228.01
743.01	367.27
743.195	330.41
743.38	240.29
743.565	172.71
743.75	297.64
743.935	361.13
744.12	365.22
744.305	230.06
744.49	334.5
744.675	197.29
744.86	170.66
745.045	230.06
745.23	139.94
745.415	232.1
745.6	254.63
745.785	119.46
745.97	367.27
746.155	213.67
746.34	273.06
746.525	191.14
746.71	324.26
746.895	158.38
747.079	168.62
747.264	174.76
747.449	172.71
747.634	225.96
747.819	277.16
748.003	283.3
748.188	111.27
748.373	213.67
748.557	182.95
748.742	279.21
748.927	178.86
749.111	236.2
749.296	250.53
749.481	236.2
749.665	170.66
749.85	225.96
750.034	195.24
750.219	131.75
750.404	164.52
750.588	187.05
750.773	189.1
750.957	199.34
751.141	187.05
751.326	254.63
751.51	117.42
751.695	176.81
751.879	182.95
752.064	279.21
752.248	170.66
752.432	264.87
752.617	205.48
752.801	246.44
752.985	160.42
753.17	234.15
753.354	121.51
753.538	236.2
753.722	174.76
753.907	174.76
754.091	117.42
754.275	205.48
754.459	35.5
754.643	121.51
754.828	236.2
755.012	170.66
755.196	90.79
755.38	139.94
755.564	113.32
755.748	150.18
755.932	176.81
756.116	191.14
756.3	221.86
756.484	178.86
756.668	264.87
756.852	21.16
757.036	129.7
757.22	176.81
757.404	82.6
757.588	121.51
757.772	160.42
757.956	191.14
758.14	215.72
758.323	90.79
758.507	217.77
758.691	62.12
758.875	199.34
759.059	205.48
759.242	92.84
759.426	107.18
759.61	111.27
759.794	82.6
759.977	228.01
760.161	404.13
760.345	266.92
760.528	154.28
760.712	111.27
760.895	211.62
761.079	193.19
761.263	49.83
761.446	76.46
761.63	139.94
761.813	207.53
761.997	45.74
762.18	76.46
762.364	127.66
762.547	19.11
762.731	162.47
762.914	101.03
763.098	125.61
763.281	58.03
763.464	121.51
763.648	86.7
763.831	119.46
764.015	121.51
764.198	191.14
764.381	51.88
764.564	137.9
764.748	125.61
764.931	191.14
765.114	76.46
765.297	144.04
765.481	74.41
765.664	152.23
765.847	-9.56
766.03	256.68
766.213	12.97
766.397	88.75
766.58	35.5
766.763	119.46
766.946	66.22
767.129	131.75
767.312	72.36
767.495	121.51
767.678	-3.41
767.861	49.83
768.044	131.75
768.227	90.79
768.41	94.89
768.593	154.28
768.776	146.09
768.959	84.65
769.142	174.76
769.324	98.99
769.507	109.22
769.69	53.93
769.873	84.65
770.056	256.68
770.239	66.22
770.421	148.14
770.604	139.94
770.787	21.16
770.97	6.83
771.152	74.41
771.335	51.88
771.518	-5.46
771.7	115.37
771.883	240.29
772.066	-1.37
772.248	109.22
772.431	146.09
772.613	86.7
772.796	17.07
772.978	70.31
773.161	221.86
773.343	41.64
773.526	37.55
773.708	-40.28
773.891	-17.75
774.073	-17.75
774.256	15.02
774.438	221.86
774.621	101.03
774.803	144.04
774.985	19.11
775.168	144.04
775.35	49.83
775.532	176.81
775.715	29.35
775.897	70.31
776.079	29.35
776.261	162.47
776.444	8.87
776.626	-1.37
776.808	19.11
776.99	-66.9
777.173	82.6
777.355	92.84
777.537	72.36
777.719	94.89
777.901	58.03
778.083	21.16
778.265	-25.94
778.447	174.76
778.629	64.17
778.811	0.68
778.993	6.83
779.175	82.6
779.357	29.35
779.539	-56.66
779.721	86.7
779.903	125.61
780.085	41.64
780.267	105.13
780.449	60.07
780.631	78.51
780.812	127.66
780.994	148.14
781.176	29.35
781.358	39.59
781.54	4.78
781.721	25.26
781.903	94.89
782.085	47.79
782.267	101.03
782.448	6.83
782.63	-11.61
782.812	-19.8
782.993	129.7
783.175	58.03
783.357	33.45
783.538	43.69
783.72	4.78
783.901	94.89
784.083	43.69
784.264	103.08
784.446	-120.15
784.627	-40.28
784.809	103.08
784.99	86.7
785.172	53.93
785.353	-13.65
785.535	127.66
785.716	-1.37
785.897	45.74
786.079	23.21
786.26	15.02
786.441	-17.75
786.623	-44.37
786.804	6.83
786.985	76.46
787.167	-54.61
787.348	15.02
787.529	-40.28
787.71	168.62
787.891	84.65
788.073	-62.8
788.254	-9.56
788.435	180.9
788.616	58.03
788.797	-11.61
788.978	-46.42
789.159	23.21
789.34	66.22
789.522	70.31
789.703	-13.65
789.884	8.87
790.065	39.59
790.246	211.62
790.427	-7.51
790.607	164.52
790.788	207.53
790.969	-25.94
791.15	70.31
791.331	55.98
791.512	21.16
791.693	-34.13
791.874	10.92
792.054	217.77
792.235	103.08
792.416	-52.56
792.597	19.11
792.778	64.17
792.958	15.02
793.139	10.92
793.32	64.17
793.5	-60.76
793.681	125.61
793.862	90.79
794.042	-25.94
794.223	-44.37
794.404	-30.04
794.584	-48.47
794.765	-7.51
794.945	-3.41
795.126	90.79
795.306	86.7
795.487	-60.76
795.667	-1.37
795.848	-5.46
796.028	-36.18
796.209	60.07
796.389	58.03
796.57	-58.71
796.75	-58.71
796.93	-73.04
797.111	-79.19
797.291	19.11
797.471	74.41
797.652	-38.23
797.832	41.64
798.012	98.99
798.192	-7.51
798.373	-25.94
798.553	-13.65
798.733	-11.61
798.913	-30.04
799.093	-32.08
799.274	-23.89
799.454	94.89
799.634	113.32
799.814	105.13
799.994	64.17
800.174	55.98
800.354	49.83
800.534	-97.62
800.714	58.03
800.894	-89.43
801.074	-111.96
801.254	-38.23
801.434	127.66
801.614	-5.46
801.794	-21.85
801.974	1772.18
802.154	10.92
802.334	31.4
802.514	-66.9
802.693	-25.94
802.873	0.68
803.053	103.08
803.233	51.88
803.413	-42.32
803.592	4.78
803.772	43.69
803.952	25.26
804.131	-120.15
804.311	35.5
804.491	103.08
804.67	-93.52
804.85	39.59
805.03	31.4
805.209	146.09
805.389	-25.94
805.568	-13.65
805.748	23.21
805.928	6.83
806.107	78.51
806.287	66.22
806.466	82.6
806.646	29.35
806.825	17.07
807.004	43.69
807.184	49.83
807.363	8.87
807.543	-30.04
807.722	-3.41
807.901	94.89
808.081	129.7
808.26	-64.85
808.439	66.22
808.619	-30.04
808.798	31.4
808.977	74.41
809.156	55.98
809.336	-27.99
809.515	53.93
809.694	55.98
809.873	-40.28
810.052	86.7
810.231	72.36
810.411	35.5
810.59	109.22
810.769	37.55
810.948	74.41
811.127	-87.38
811.306	-25.94
811.485	-54.61
811.664	135.85
811.843	-46.42
812.022	78.51
812.201	-122.2
812.38	21.16
812.559	-42.32
812.737	78.51
812.916	-157.01
813.095	-25.94
813.274	58.03
813.453	47.79
813.632	68.27
813.811	74.41
813.989	-97.62
814.168	-75.09
814.347	-60.76
814.526	-19.8
814.704	111.27
814.883	98.99
815.062	-79.19
815.24	62.12
815.419	-66.9
815.598	-5.46
815.776	-81.24
815.955	53.93
816.133	-126.29
816.312	39.59
816.49	-42.32
816.669	31.4
816.847	-44.37
817.026	19.11
817.204	-34.13
817.383	-46.42
817.561	-3.41
817.74	10.92
817.918	15.02
818.097	19.11
818.275	12.97
818.453	94.89
818.632	15.02
818.81	4.78
818.988	-38.23
819.167	-3.41
819.345	33.45
819.523	-140.63
819.701	-30.04
819.879	84.65
820.058	-21.85
820.236	19.11
820.414	-21.85
820.592	-130.39
820.77	12.97
820.948	-62.8
821.127	-54.61
821.305	25.26
821.483	-54.61
821.661	90.79
821.839	-11.61
822.017	-48.47
822.195	-1.37
822.373	117.42
822.551	-52.56
822.729	0.68
822.907	-15.7
823.085	51.88
823.262	-56.66
823.44	-50.52
823.618	6.83
823.796	-34.13
823.974	-44.37
824.152	-66.9
824.329	-19.8
824.507	25.26
824.685	58.03
824.863	-27.99
825.04	-11.61
825.218	-1.37
825.396	33.45
825.574	84.65
825.751	41.64
825.929	17.07
826.107	0.68
826.284	-56.66
826.462	-56.66
826.639	-15.7
826.817	-118.1
826.994	70.31
827.172	-3.41
827.349	101.03
827.527	15.02
827.704	23.21
827.882	90.79
828.059	37.55
828.237	-5.46
828.414	39.59
828.591	-109.91
828.769	29.35
828.946	39.59
829.124	31.4
829.301	78.51
829.478	41.64
829.655	12.97
829.833	10.92
830.01	-167.25
830.187	17.07
830.364	31.4
830.542	35.5
830.719	68.27
830.896	94.89
831.073	-5.46
831.25	49.83
831.427	19.11
831.604	45.74
831.782	-40.28
831.959	45.74
832.136	-1.37
832.313	21.16
832.49	-68.95
832.667	96.94
832.844	-7.51
833.021	109.22
833.198	2.73
833.374	-11.61
833.551	12.97
833.728	-27.99
833.905	55.98
834.082	-54.61
834.259	-64.85
834.436	148.14
834.612	-58.71
834.789	82.6
834.966	23.21
835.143	49.83
835.319	-103.76
835.496	53.93
835.673	98.99
835.85	111.27
836.026	58.03
836.203	80.55
836.38	-107.86
836.556	-21.85
836.733	-11.61
836.909	182.95
837.086	-15.7
837.262	-91.48
837.439	-32.08
837.616	-27.99
837.792	-5.46
837.968	-81.24
838.145	-101.72
838.321	0.68
838.498	2.73
838.674	-15.7
838.851	29.35
839.027	15.02
839.203	76.46
839.38	49.83
839.556	-19.8
839.732	-58.71
839.909	-68.95
840.085	64.17
840.261	-32.08
840.437	62.12
840.614	-85.33
840.79	98.99
840.966	53.93
841.142	17.07
841.318	-46.42
841.494	-68.95
841.671	119.46
841.847	-130.39
842.023	-89.43
842.199	8.87
842.375	121.51
842.551	-52.56
842.727	-52.56
842.903	148.14
843.079	-50.52
843.255	58.03
843.431	-7.51
843.607	2.73
843.783	-114
843.959	80.55
844.134	10.92
844.31	62.12
844.486	-99.67
844.662	-87.38
844.838	-71
845.013	25.26
845.189	62.12
845.365	49.83
845.541	-38.23
845.716	51.88
845.892	78.51
846.068	33.45
846.244	-60.76
846.419	45.74
846.595	-42.32
846.77	-122.2
846.946	98.99
847.122	10.92
847.297	-30.04
847.473	29.35
847.648	-75.09
847.824	-3.41
847.999	-101.72
848.175	-44.37
848.35	27.31
848.526	82.6
848.701	43.69
848.876	43.69
849.052	96.94
849.227	-36.18
849.403	17.07
849.578	-42.32
849.753	21.16
849.929	86.7
850.104	-38.23
850.279	4.78
850.454	58.03
850.63	41.64
850.805	82.6
850.98	-19.8
851.155	70.31
851.33	-21.85
851.505	-163.15
851.681	82.6
851.856	-40.28
852.031	101.03
852.206	49.83
852.381	15.02
852.556	84.65
852.731	-21.85
852.906	35.5
853.081	29.35
853.256	88.75
853.431	41.64
853.606	-50.52
853.781	-38.23
853.956	-73.04
854.131	27.31
854.305	-132.44
854.48	-105.81
854.655	4.78
854.83	-42.32
855.005	25.26
855.18	-9.56
855.354	-46.42
855.529	4.78
855.704	-27.99
855.879	43.69
856.053	-21.85
856.228	-38.23
856.403	-44.37
856.577	-11.61
856.752	-105.81
856.926	-7.51
857.101	-52.56
857.276	-21.85
857.45	-7.51
857.625	27.31
857.799	62.12
857.974	23.21
858.148	-111.96
858.323	10.92
858.497	15.02
858.672	-105.81
858.846	-68.95
859.02	117.42
859.195	-83.28
859.369	-50.52
859.543	39.59
859.718	60.07
859.892	70.31
860.066	19.11
860.241	-13.65
860.415	-3.41
860.589	21.16
860.763	-36.18
860.938	6.83
861.112	39.59
861.286	-93.52
861.46	101.03
861.634	-36.18
861.808	82.6
861.982	-19.8
862.157	-25.94
862.331	-11.61
862.505	-91.48
862.679	-85.33
862.853	23.21
863.027	-40.28
863.201	146.09
863.375	-36.18
863.549	49.83
863.722	31.4
863.896	58.03
864.07	-56.66
864.244	0.68
864.418	-13.65
864.592	-30.04
864.766	29.35
864.939	-15.7
865.113	-77.14
865.287	105.13
865.461	-99.67
865.634	-34.13
865.808	35.5
865.982	-66.9
866.156	-75.09
866.329	-144.72
866.503	12.97
866.676	47.79
866.85	27.31
867.024	-89.43
867.197	12.97
867.371	25.26
867.544	4.78
867.718	-71
867.891	8.87
868.065	-36.18
868.238	-15.7
868.412	98.99
868.585	35.5
868.759	-9.56
868.932	-11.61
869.105	-50.52
869.279	-38.23
869.452	-32.08
869.625	23.21
869.799	55.98
869.972	23.21
870.145	-17.75
870.319	2.73
870.492	10.92
870.665	-44.37
870.838	-101.72
871.011	-124.24
871.185	-36.18
871.358	-46.42
871.531	58.03
871.704	-15.7
871.877	49.83
872.05	-13.65
872.223	-64.85
872.396	-15.7
872.569	6.83
872.742	-23.89
872.915	-5.46
873.088	-44.37
873.261	-34.13
873.434	25.26
873.607	-27.99
873.78	98.99
873.953	-95.57
874.126	23.21
874.299	60.07
874.471	-7.51
874.644	-3.41
874.817	25.26
874.99	103.08
875.163	-54.61
875.335	35.5
875.508	8.87
875.681	158.38
875.853	-95.57
876.026	-23.89
876.199	27.31
876.371	-9.56
876.544	-91.48
876.717	-13.65
876.889	-36.18
877.062	-36.18
877.234	-103.76
877.407	-54.61
877.579	-25.94
877.752	27.31
877.924	121.51
878.097	70.31
878.269	25.26
878.442	53.93
878.614	6.83
878.786	-19.8
878.959	-52.56
879.131	-27.99
879.303	-134.48
879.476	-9.56
879.648	113.32
879.82	-25.94
879.993	-52.56
880.165	-36.18
880.337	-23.89
880.509	35.5
880.681	-120.15
880.854	-77.14
881.026	66.22
881.198	139.94
881.37	-3.41
881.542	-40.28
881.714	-142.68
881.886	-11.61
882.058	-21.85
882.23	86.7
882.402	-64.85
882.574	8.87
882.746	45.74
882.918	109.22
883.09	33.45
883.262	-15.7
883.434	-11.61
883.606	-120.15
883.778	-79.19
883.95	119.46
884.122	-25.94
884.293	21.16
884.465	4.78
884.637	41.64
884.809	-77.14
884.98	53.93
885.152	47.79
885.324	51.88
885.496	-75.09
885.667	2.73
885.839	-58.71
886.011	64.17
886.182	66.22
886.354	23.21
886.525	58.03
886.697	41.64
886.869	-91.48
887.04	0.68
887.212	41.64
887.383	74.41
887.555	-85.33
887.726	-87.38
887.897	4.78
888.069	-15.7
888.24	82.6
888.412	23.21
888.583	-79.19
888.754	10.92
888.926	-56.66
889.097	4.78
889.268	-122.2
889.44	-58.71
889.611	-91.48
889.782	-109.91
889.953	-93.52
890.125	88.75
890.296	-103.76
890.467	-79.19
890.638	-50.52
890.809	2.73
890.98	-85.33
891.151	19.11
891.323	74.41
891.494	-99.67
891.665	70.31
891.836	15.02
892.007	-23.89
892.178	17.07
892.349	47.79
892.52	-124.24
892.691	-1.37
892.862	-54.61
893.032	-56.66
893.203	4.78
893.374	-32.08
893.545	10.92
893.716	-62.8
893.887	49.83
894.057	-36.18
894.228	-25.94
894.399	-7.51
894.57	117.42
894.74	-23.89
894.911	-5.46
895.082	-73.04
895.253	-120.15
895.423	-9.56
895.594	41.64
895.764	19.11
895.935	-122.2
896.106	-23.89
896.276	-99.67
896.447	-13.65
896.617	-136.53
896.788	-111.96
896.958	-23.89
897.129	-42.32
897.299	-11.61
897.47	117.42
897.64	62.12
897.81	-56.66
897.981	21.16
898.151	-75.09
898.322	10.92
898.492	51.88
898.662	-52.56
898.832	-75.09
899.003	-52.56
899.173	0.68
899.343	-30.04
899.513	-66.9
