Data from USB4F104151__304__11-22-53-217.txt Node

Date: Wed Feb 26 11:22:53 EST 2025
User: louis
Spectrometer: USB4F10415
Trigger mode: 4
Integration Time (sec): 1.000000E-1
Scans to average: 1
Electric dark correction enabled: true
Nonlinearity correction enabled: false
Boxcar width: 0
XAxis mode: Wavelengths
Number of Pixels in Spectrum: 3648
>>>>>Begin Spectral Data<<<<<
178.204	-400.04
178.424	-400.04
178.644	-400.04
178.864	-359.08
179.084	-422.56
179.304	11.61
179.524	-23.21
179.744	-29.35
179.964	30.04
180.184	46.42
180.404	-8.87
180.624	-4.78
180.844	27.99
181.064	-21.16
181.283	-23.21
181.503	-84.65
181.723	79.19
181.943	-92.84
182.163	142.68
182.383	23.89
182.602	38.23
182.822	159.06
183.042	75.09
183.262	-15.02
183.482	9.56
183.701	71
183.921	95.57
184.141	-41.64
184.361	126.29
184.58	48.47
184.8	30.04
185.02	-37.55
185.239	103.76
185.459	30.04
185.679	222.55
185.898	-84.65
186.118	87.38
186.338	23.89
186.557	91.48
186.777	11.61
186.997	54.61
187.216	48.47
187.436	169.3
187.655	60.76
187.875	85.33
188.095	111.96
188.314	122.2
188.534	189.78
188.753	-27.31
188.973	81.24
189.192	103.76
189.412	68.95
189.631	40.28
189.851	21.85
190.07	169.3
190.29	-51.88
190.509	5.46
190.729	87.38
190.948	216.4
191.168	240.98
191.387	56.66
191.607	27.99
191.826	144.72
192.045	75.09
192.265	-21.16
192.484	68.95
192.704	46.42
192.923	19.8
193.142	175.44
193.362	179.54
193.581	58.71
193.8	97.62
194.02	107.86
194.239	42.32
194.458	54.61
194.678	27.99
194.897	38.23
195.116	79.19
195.335	83.28
195.555	60.76
195.774	34.13
195.993	122.2
196.212	34.13
196.432	11.61
196.651	23.89
196.87	32.08
197.089	261.46
197.308	1.37
197.528	134.48
197.747	-17.07
197.966	44.37
198.185	157.01
198.404	68.95
198.623	144.72
198.842	169.3
199.062	128.34
199.281	134.48
199.5	73.04
199.719	77.14
199.938	15.7
200.157	54.61
200.376	89.43
200.595	136.53
200.814	60.76
201.033	99.67
201.252	218.45
201.471	175.44
201.69	46.42
201.909	21.85
202.128	34.13
202.347	89.43
202.566	124.24
202.785	27.99
203.004	1.37
203.223	316.75
203.442	44.37
203.661	-12.97
203.879	105.81
204.098	134.48
204.317	73.04
204.536	101.72
204.755	124.24
204.974	150.87
205.193	-39.59
205.411	116.05
205.63	58.71
205.849	54.61
206.068	48.47
206.287	13.65
206.505	118.1
206.724	-0.68
206.943	30.04
207.162	7.51
207.381	77.14
207.599	-10.92
207.818	52.56
208.037	23.89
208.255	83.28
208.474	159.06
208.693	87.38
208.911	83.28
209.13	140.63
209.349	87.38
209.567	50.52
209.786	60.76
210.005	93.52
210.223	212.31
210.442	-103.08
210.661	101.72
210.879	68.95
211.098	23.89
211.316	66.9
211.535	109.91
211.753	42.32
211.972	109.91
212.191	21.85
212.409	38.23
212.628	132.44
212.846	42.32
213.065	56.66
213.283	124.24
213.502	-12.97
213.72	7.51
213.938	91.48
214.157	13.65
214.375	134.48
214.594	-21.16
214.812	124.24
215.031	19.8
215.249	15.7
215.467	154.96
215.686	116.05
215.904	122.2
216.122	3.41
216.341	210.26
216.559	21.85
216.778	85.33
216.996	183.63
217.214	66.9
217.432	-23.21
217.651	-2.73
217.869	85.33
218.087	66.9
218.306	42.32
218.524	77.14
218.742	50.52
218.96	101.72
219.179	11.61
219.397	36.18
219.615	157.01
219.833	134.48
220.051	25.94
220.27	128.34
220.488	122.2
220.706	44.37
220.924	-25.26
221.142	-8.87
221.36	42.32
221.578	66.9
221.796	21.85
222.015	44.37
222.233	77.14
222.451	171.35
222.669	-43.69
222.887	81.24
223.105	30.04
223.323	42.32
223.541	5.46
223.759	85.33
223.977	23.89
224.195	165.2
224.413	87.38
224.631	30.04
224.849	68.95
225.067	259.41
225.285	30.04
225.503	11.61
225.721	-109.23
225.939	95.57
226.157	103.76
226.375	222.55
226.592	15.7
226.81	-4.78
227.028	142.68
227.246	95.57
227.464	138.58
227.682	142.68
227.9	64.85
228.117	30.04
228.335	-2.73
228.553	66.9
228.771	17.75
228.989	71
229.206	101.72
229.424	25.94
229.642	-6.83
229.86	-39.59
230.077	146.77
230.295	40.28
230.513	68.95
230.731	118.1
230.948	193.87
231.166	148.82
231.384	19.8
231.601	32.08
231.819	185.68
232.037	-31.4
232.254	21.85
232.472	19.8
232.689	60.76
232.907	79.19
233.125	-35.5
233.342	-29.35
233.56	62.8
233.777	-33.45
233.995	83.28
234.213	144.72
234.43	34.13
234.648	56.66
234.865	21.85
235.083	66.9
235.3	71
235.518	163.15
235.735	118.1
235.953	120.15
236.17	34.13
236.388	62.8
236.605	25.94
236.822	148.82
237.04	54.61
237.257	71
237.475	13.65
237.692	52.56
237.909	107.86
238.127	30.04
238.344	138.58
238.562	58.71
238.779	-47.79
238.996	-45.74
239.214	38.23
239.431	95.57
239.648	40.28
239.865	134.48
240.083	148.82
240.3	42.32
240.517	23.89
240.735	97.62
240.952	245.07
241.169	-10.92
241.386	64.85
241.603	120.15
241.821	-51.88
242.038	103.76
242.255	114
242.472	-55.98
242.689	54.61
242.907	81.24
243.124	54.61
243.341	30.04
243.558	1.37
243.775	-41.64
243.992	-12.97
244.209	85.33
244.426	159.06
244.643	73.04
244.86	3.41
245.078	138.58
245.295	54.61
245.512	83.28
245.729	11.61
245.946	109.91
246.163	9.56
246.38	-8.87
246.597	52.56
246.814	56.66
247.031	44.37
247.248	11.61
247.464	93.52
247.681	120.15
247.898	81.24
248.115	17.75
248.332	52.56
248.549	263.51
248.766	208.21
248.983	68.95
249.2	134.48
249.417	77.14
249.633	-29.35
249.85	56.66
250.067	64.85
250.284	109.91
250.501	44.37
250.717	136.53
250.934	17.75
251.151	15.7
251.368	58.71
251.585	101.72
251.801	85.33
252.018	75.09
252.235	87.38
252.451	5.46
252.668	21.85
252.885	159.06
253.102	116.05
253.318	-6.83
253.535	87.38
253.752	89.43
253.968	-45.74
254.185	3.41
254.401	3.41
254.618	85.33
254.835	-72.36
255.051	157.01
255.268	109.91
255.484	19.8
255.701	91.48
255.917	161.11
256.134	-27.31
256.351	54.61
256.567	-72.36
256.784	58.71
257	17.75
257.217	87.38
257.433	30.04
257.65	79.19
257.866	103.76
258.082	-10.92
258.299	21.85
258.515	101.72
258.732	40.28
258.948	5.46
259.165	5.46
259.381	19.8
259.597	114
259.814	-0.68
260.03	54.61
260.246	62.8
260.463	132.44
260.679	122.2
260.895	142.68
261.112	93.52
261.328	109.91
261.544	79.19
261.761	197.97
261.977	13.65
262.193	-68.27
262.409	-0.68
262.626	15.7
262.842	-12.97
263.058	13.65
263.274	44.37
263.49	128.34
263.707	73.04
263.923	142.68
264.139	-82.6
264.355	85.33
264.571	161.11
264.787	36.18
265.004	81.24
265.22	122.2
265.436	27.99
265.652	15.7
265.868	116.05
266.084	-76.46
266.3	46.42
266.516	32.08
266.732	13.65
266.948	38.23
267.164	-27.31
267.38	87.38
267.596	5.46
267.812	175.44
268.028	-2.73
268.244	9.56
268.46	15.7
268.676	17.75
268.892	87.38
269.108	-53.93
269.324	11.61
269.54	-4.78
269.756	58.71
269.972	-21.16
270.188	40.28
270.403	-49.83
270.619	-12.97
270.835	122.2
271.051	44.37
271.267	-27.31
271.483	23.89
271.698	99.67
271.914	77.14
272.13	138.58
272.346	58.71
272.562	56.66
272.777	71
272.993	3.41
273.209	-76.46
273.425	111.96
273.64	-25.26
273.856	91.48
274.072	-8.87
274.287	-6.83
274.503	93.52
274.719	140.63
274.934	52.56
275.15	-84.65
275.366	42.32
275.581	-45.74
275.797	48.47
276.012	136.53
276.228	11.61
276.444	120.15
276.659	134.48
276.875	17.75
277.09	77.14
277.306	62.8
277.521	93.52
277.737	32.08
277.952	150.87
278.168	42.32
278.383	134.48
278.599	52.56
278.814	105.81
279.03	91.48
279.245	212.31
279.461	46.42
279.676	171.35
279.892	30.04
280.107	-12.97
280.322	1.37
280.538	34.13
280.753	-23.21
280.969	19.8
281.184	81.24
281.399	138.58
281.615	83.28
281.83	111.96
282.045	-64.17
282.26	5.46
282.476	48.47
282.691	77.14
282.906	79.19
283.122	17.75
283.337	-23.21
283.552	122.2
283.767	73.04
283.983	134.48
284.198	-10.92
284.413	150.87
284.628	-51.88
284.843	34.13
285.058	71
285.274	3.41
285.489	17.75
285.704	54.61
285.919	44.37
286.134	64.85
286.349	77.14
286.564	13.65
286.779	128.34
286.995	50.52
287.21	-76.46
287.425	107.86
287.64	66.9
287.855	77.14
288.07	-82.6
288.285	116.05
288.5	111.96
288.715	42.32
288.93	58.71
289.145	-74.41
289.36	114
289.575	56.66
289.79	132.44
290.004	93.52
290.219	66.9
290.434	-23.21
290.649	34.13
290.864	54.61
291.079	73.04
291.294	83.28
291.509	134.48
291.724	89.43
291.938	91.48
292.153	103.76
292.368	5.46
292.583	75.09
292.798	99.67
293.012	93.52
293.227	122.2
293.442	46.42
293.657	154.96
293.871	122.2
294.086	97.62
294.301	175.44
294.516	87.38
294.73	1.37
294.945	7.51
295.16	38.23
295.374	116.05
295.589	111.96
295.804	62.8
296.018	11.61
296.233	191.83
296.447	99.67
296.662	42.32
296.877	77.14
297.091	148.82
297.306	38.23
297.52	-10.92
297.735	50.52
297.949	52.56
298.164	97.62
298.378	132.44
298.593	-35.5
298.807	19.8
299.022	56.66
299.236	111.96
299.451	27.99
299.665	44.37
299.88	81.24
300.094	38.23
300.309	36.18
300.523	87.38
300.737	48.47
300.952	40.28
301.166	42.32
301.381	-37.55
301.595	-17.07
301.809	38.23
302.024	40.28
302.238	7.51
302.452	124.24
302.667	79.19
302.881	62.8
303.095	97.62
303.309	46.42
303.524	-8.87
303.738	83.28
303.952	54.61
304.166	124.24
304.381	-39.59
304.595	132.44
304.809	83.28
305.023	146.77
305.237	13.65
305.452	58.71
305.666	138.58
305.88	105.81
306.094	75.09
306.308	42.32
306.522	146.77
306.736	79.19
306.95	118.1
307.164	38.23
307.379	81.24
307.593	157.01
307.807	114
308.021	64.85
308.235	79.19
308.449	-117.42
308.663	21.85
308.877	296.27
309.091	83.28
309.305	114
309.519	11.61
309.733	144.72
309.947	-41.64
310.161	75.09
310.374	68.95
310.588	173.39
310.802	-39.59
311.016	30.04
311.23	99.67
311.444	1.37
311.658	46.42
311.872	124.24
312.085	144.72
312.299	118.1
312.513	73.04
312.727	95.57
312.941	1.37
313.154	58.71
313.368	46.42
313.582	42.32
313.796	62.8
314.009	-2.73
314.223	103.76
314.437	62.8
314.651	38.23
314.864	13.65
315.078	17.75
315.292	-35.5
315.505	52.56
315.719	79.19
315.933	34.13
316.146	-6.83
316.36	-80.55
316.573	134.48
316.787	64.85
317.001	71
317.214	-41.64
317.428	32.08
317.641	-17.07
317.855	58.71
318.068	19.8
318.282	46.42
318.495	124.24
318.709	66.9
318.922	116.05
319.136	99.67
319.349	62.8
319.563	-19.11
319.776	138.58
319.99	-29.35
320.203	142.68
320.417	77.14
320.63	85.33
320.843	181.59
321.057	95.57
321.27	27.99
321.483	99.67
321.697	181.59
321.91	54.61
322.124	50.52
322.337	97.62
322.55	17.75
322.763	13.65
322.977	-0.68
323.19	-2.73
323.403	17.75
323.617	66.9
323.83	95.57
324.043	-17.07
324.256	62.8
324.469	-51.88
324.683	93.52
324.896	79.19
325.109	-6.83
325.322	-8.87
325.535	81.24
325.748	116.05
325.962	48.47
326.175	15.7
326.388	81.24
326.601	165.2
326.814	46.42
327.027	50.52
327.24	152.91
327.453	-47.79
327.666	95.57
327.879	42.32
328.092	111.96
328.305	109.91
328.518	21.85
328.731	56.66
328.944	58.71
329.157	124.24
329.37	46.42
329.583	157.01
329.796	163.15
330.009	21.85
330.222	58.71
330.435	140.63
330.648	44.37
330.861	101.72
331.073	-12.97
331.286	146.77
331.499	150.87
331.712	64.85
331.925	130.39
332.138	38.23
332.35	101.72
332.563	21.85
332.776	154.96
332.989	40.28
333.202	-29.35
333.414	52.56
333.627	62.8
333.84	52.56
334.053	81.24
334.265	-10.92
334.478	66.9
334.691	32.08
334.903	109.91
335.116	34.13
335.329	79.19
335.541	107.86
335.754	126.29
335.966	54.61
336.179	32.08
336.392	48.47
336.604	11.61
336.817	93.52
337.029	54.61
337.242	81.24
337.454	87.38
337.667	56.66
337.88	226.64
338.092	75.09
338.305	21.85
338.517	46.42
338.729	111.96
338.942	197.97
339.154	-47.79
339.367	-15.02
339.579	52.56
339.792	5.46
340.004	73.04
340.217	79.19
340.429	56.66
340.641	-27.31
340.854	-76.46
341.066	11.61
341.278	118.1
341.491	79.19
341.703	38.23
341.915	-43.69
342.128	71
342.34	30.04
342.552	-17.07
342.764	64.85
342.977	36.18
343.189	107.86
343.401	21.85
343.613	-21.16
343.826	81.24
344.038	-70.31
344.25	85.33
344.462	-2.73
344.674	46.42
344.886	-17.07
345.099	71
345.311	-4.78
345.523	40.28
345.735	-10.92
345.947	75.09
346.159	120.15
346.371	17.75
346.583	44.37
346.795	251.22
347.007	79.19
347.219	-15.02
347.431	11.61
347.643	140.63
347.855	50.52
348.067	214.35
348.279	-10.92
348.491	77.14
348.703	56.66
348.915	-8.87
349.127	7.51
349.339	73.04
349.551	13.65
349.763	68.95
349.975	52.56
350.187	87.38
350.399	62.8
350.61	152.91
350.822	46.42
351.034	120.15
351.246	85.33
351.458	148.82
351.669	99.67
351.881	157.01
352.093	93.52
352.305	161.11
352.517	167.25
352.728	142.68
352.94	62.8
353.152	93.52
353.363	-92.84
353.575	83.28
353.787	167.25
353.999	118.1
354.21	191.83
354.422	-45.74
354.633	36.18
354.845	77.14
355.057	75.09
355.268	83.28
355.48	83.28
355.692	-21.16
355.903	-33.45
356.115	13.65
356.326	-76.46
356.538	255.31
356.749	111.96
356.961	161.11
357.172	38.23
357.384	40.28
357.595	228.69
357.807	54.61
358.018	1.37
358.23	21.85
358.441	169.3
358.653	114
358.864	-12.97
359.075	-29.35
359.287	73.04
359.498	114
359.709	95.57
359.921	93.52
360.132	68.95
360.344	62.8
360.555	9.56
360.766	38.23
360.977	66.9
361.189	118.1
361.4	9.56
361.611	185.68
361.823	73.04
362.034	68.95
362.245	-72.36
362.456	23.89
362.667	107.86
362.879	-8.87
363.09	91.48
363.301	134.48
363.512	103.76
363.723	-23.21
363.935	71
364.146	130.39
364.357	-0.68
364.568	87.38
364.779	-27.31
364.99	230.74
365.201	58.71
365.412	157.01
365.623	-80.55
365.834	81.24
366.045	79.19
366.256	71
366.467	48.47
366.678	97.62
366.889	3.41
367.1	64.85
367.311	116.05
367.522	36.18
367.733	93.52
367.944	95.57
368.155	-33.45
368.366	165.2
368.577	50.52
368.788	154.96
368.999	87.38
369.209	13.65
369.42	275.79
369.631	249.17
369.842	60.76
370.053	42.32
370.264	36.18
370.474	-31.4
370.685	157.01
370.896	34.13
371.107	195.92
371.317	159.06
371.528	56.66
371.739	220.5
371.95	134.48
372.16	95.57
372.371	7.51
372.582	103.76
372.792	52.56
373.003	17.75
373.214	75.09
373.424	89.43
373.635	5.46
373.846	171.35
374.056	40.28
374.267	81.24
374.477	38.23
374.688	-27.31
374.898	114
375.109	79.19
375.319	77.14
375.53	97.62
375.74	114
375.951	62.8
376.161	66.9
376.372	105.81
376.582	85.33
376.793	71
377.003	-17.07
377.214	56.66
377.424	58.71
377.635	167.25
377.845	54.61
378.055	101.72
378.266	-55.98
378.476	60.76
378.686	79.19
378.897	38.23
379.107	175.44
379.317	126.29
379.528	9.56
379.738	15.7
379.948	25.94
380.158	193.87
380.369	62.8
380.579	128.34
380.789	-17.07
380.999	64.85
381.21	93.52
381.42	218.45
381.63	42.32
381.84	42.32
382.05	32.08
382.261	111.96
382.471	204.11
382.681	66.9
382.891	200.02
383.101	167.25
383.311	-33.45
383.521	1.37
383.731	105.81
383.941	109.91
384.151	87.38
384.361	-29.35
384.571	77.14
384.781	13.65
384.991	249.17
385.201	249.17
385.411	136.53
385.621	140.63
385.831	1.37
386.041	83.28
386.251	-12.97
386.461	181.59
386.671	-6.83
386.881	73.04
387.091	38.23
387.301	97.62
387.511	62.8
387.72	140.63
387.93	99.67
388.14	-80.55
388.35	34.13
388.56	138.58
388.769	148.82
388.979	15.7
389.189	-47.79
389.399	46.42
389.609	85.33
389.818	73.04
390.028	111.96
390.238	85.33
390.447	42.32
390.657	105.81
390.867	-17.07
391.076	-6.83
391.286	81.24
391.496	30.04
391.705	75.09
391.915	193.87
392.125	107.86
392.334	-15.02
392.544	226.64
392.753	91.48
392.963	-8.87
393.172	120.15
393.382	-37.55
393.591	206.16
393.801	27.99
394.01	109.91
394.22	77.14
394.429	50.52
394.639	15.7
394.848	77.14
395.058	91.48
395.267	36.18
395.477	77.14
395.686	34.13
395.895	159.06
396.105	228.69
396.314	97.62
396.524	27.99
396.733	120.15
396.942	93.52
397.152	75.09
397.361	95.57
397.57	71
397.78	79.19
397.989	111.96
398.198	200.02
398.407	19.8
398.617	17.75
398.826	99.67
399.035	42.32
399.244	114
399.453	48.47
399.663	44.37
399.872	122.2
400.081	32.08
400.29	243.03
400.499	3.41
400.708	122.2
400.917	79.19
401.127	36.18
401.336	3.41
401.545	152.91
401.754	185.68
401.963	148.82
402.172	77.14
402.381	-29.35
402.59	38.23
402.799	32.08
403.008	83.28
403.217	46.42
403.426	5.46
403.635	-4.78
403.844	54.61
404.053	62.8
404.262	73.04
404.471	152.91
404.68	42.32
404.888	-0.68
405.097	52.56
405.306	13.65
405.515	114
405.724	34.13
405.933	126.29
406.142	89.43
406.35	124.24
406.559	91.48
406.768	5.46
406.977	126.29
407.185	21.85
407.394	130.39
407.603	9.56
407.812	132.44
408.02	105.81
408.229	32.08
408.438	101.72
408.646	-17.07
408.855	46.42
409.064	85.33
409.272	79.19
409.481	132.44
409.69	-17.07
409.898	-19.11
410.107	60.76
410.315	161.11
410.524	40.28
410.733	126.29
410.941	46.42
411.15	183.63
411.358	85.33
411.567	167.25
411.775	103.76
411.984	83.28
412.192	93.52
412.401	-10.92
412.609	103.76
412.818	130.39
413.026	44.37
413.234	30.04
413.443	23.89
413.651	7.51
413.86	95.57
414.068	130.39
414.276	210.26
414.485	-12.97
414.693	154.96
414.901	169.3
415.11	85.33
415.318	34.13
415.526	93.52
415.734	111.96
415.943	165.2
416.151	126.29
416.359	-23.21
416.567	93.52
416.776	189.78
416.984	122.2
417.192	208.21
417.4	42.32
417.608	81.24
417.817	-39.59
418.025	97.62
418.233	251.22
418.441	-76.46
418.649	15.7
418.857	34.13
419.065	144.72
419.273	99.67
419.481	103.76
419.689	30.04
419.897	21.85
420.105	-31.4
420.313	107.86
420.521	148.82
420.729	179.54
420.937	19.8
421.145	-35.5
421.353	101.72
421.561	210.26
421.769	73.04
421.977	34.13
422.185	87.38
422.393	116.05
422.601	206.16
422.809	30.04
423.017	58.71
423.224	85.33
423.432	142.68
423.64	9.56
423.848	87.38
424.056	7.51
424.263	116.05
424.471	62.8
424.679	157.01
424.887	7.51
425.094	116.05
425.302	116.05
425.51	38.23
425.718	165.2
425.925	81.24
426.133	21.85
426.341	222.55
426.548	34.13
426.756	48.47
426.964	154.96
427.171	7.51
427.379	136.53
427.586	85.33
427.794	91.48
428.001	99.67
428.209	202.07
428.417	171.35
428.624	120.15
428.832	128.34
429.039	124.24
429.247	138.58
429.454	128.34
429.662	187.73
429.869	185.68
430.076	25.94
430.284	234.83
430.491	240.98
430.699	126.29
430.906	232.79
431.114	126.29
431.321	144.72
431.528	218.45
431.736	163.15
431.943	132.44
432.15	222.55
432.358	234.83
432.565	253.27
432.772	118.1
432.979	226.64
433.187	122.2
433.394	208.21
433.601	128.34
433.808	167.25
434.016	208.21
434.223	300.37
434.43	197.97
434.637	275.79
434.844	269.65
435.052	265.55
435.259	253.27
435.466	290.13
435.673	189.78
435.88	294.22
436.087	335.18
436.294	290.13
436.501	322.9
436.708	240.98
436.915	339.28
437.122	367.95
437.329	275.79
437.537	367.95
437.743	372.05
437.95	376.14
438.157	337.23
438.364	329.04
438.571	388.43
438.778	400.72
438.985	447.82
439.192	472.4
439.399	394.58
439.606	427.34
439.813	554.32
440.02	509.26
440.227	511.31
440.433	550.22
440.64	492.88
440.847	484.69
441.054	566.6
441.261	722.25
441.467	615.76
441.674	560.46
441.881	621.9
442.088	556.36
442.294	714.06
442.501	732.49
442.708	732.49
442.914	775.5
443.121	755.02
443.328	900.42
443.534	824.65
443.741	812.36
443.948	775.5
444.154	965.96
444.361	1148.23
444.568	984.39
444.774	931.14
444.981	976.2
445.187	1164.61
445.394	1113.41
445.6	1099.08
445.807	1230.15
446.013	1176.9
446.22	1172.8
446.426	1365.31
446.633	1273.15
446.839	1654.08
447.046	1402.18
447.252	1457.47
447.459	1496.38
447.665	1455.42
447.871	1647.93
448.078	1862.97
448.284	1756.47
448.491	1871.16
448.697	1895.74
448.903	2088.25
449.11	2035
449.316	1987.89
449.522	2221.36
449.728	2340.15
449.935	2370.87
450.141	2387.25
450.347	2680.11
450.553	2655.53
450.76	2610.48
450.966	2776.36
451.172	2772.27
451.378	2903.34
451.584	2936.1
451.791	3314.98
451.997	3294.5
452.203	3343.65
452.409	3487.01
452.615	3558.69
452.821	3513.63
453.027	3575.07
453.233	4001.05
453.44	3818.78
453.646	4308.24
453.852	4257.04
454.058	4320.53
454.264	4572.43
454.47	4988.17
454.676	4840.72
454.882	5231.88
455.088	5041.42
455.294	5442.82
455.5	5633.28
455.705	6190.33
455.911	6132.98
456.117	6155.51
456.323	6460.66
456.529	6409.46
456.735	7034.09
456.941	7232.74
457.147	7623.9
457.352	7671.01
457.558	8002.78
457.764	8455.38
457.97	8594.64
458.176	8977.61
458.381	9297.1
458.587	9493.7
458.793	10097.85
458.999	9958.59
459.204	11330.73
459.41	11627.68
459.616	11562.15
459.821	12407.96
460.027	12774.55
460.233	13290.63
460.438	13354.12
460.644	13970.56
460.85	14109.82
461.055	14738.55
461.261	15502.44
461.466	15096.94
461.672	15465.58
461.878	17718.34
462.083	17189.97
462.289	17620.04
462.494	18254.91
462.7	18455.61
462.905	18279.49
463.111	20087.84
463.316	20962.33
463.522	21230.61
463.727	22381.57
463.932	23024.63
464.138	23940.07
464.343	24644.57
464.549	24845.27
464.754	26500.03
464.959	27110.33
465.165	27767.73
465.37	27728.81
465.575	27517.87
465.781	29209.5
465.986	30034.83
466.191	29928.33
466.397	30407.56
466.602	29541.27
466.807	31175.55
467.012	31665.01
467.218	32197.48
467.423	32516.97
467.628	33346.39
467.833	34988.86
468.038	34292.55
468.244	33381.21
468.449	35496.76
468.654	34339.66
468.859	34958.14
469.064	34515.78
469.269	33659.73
469.474	34200.4
469.679	35158.84
469.885	33975.12
470.09	34730.82
470.295	34757.44
470.5	34040.65
470.705	34044.75
470.91	33078.11
471.115	32887.65
471.32	33604.44
471.525	32775.01
471.73	32389.99
471.935	32328.55
472.139	30929.79
472.344	30989.18
472.549	30765.95
472.754	30475.14
472.959	29232.02
473.164	28365.73
473.369	27888.56
473.574	29113.24
473.778	27921.32
473.983	27702.19
474.188	27329.46
474.393	25883.59
474.598	25975.75
474.802	25615.31
475.007	25416.66
475.212	24951.77
475.417	23587.82
475.621	23440.37
475.826	23231.47
476.031	22772.73
476.235	22135.81
476.44	22416.38
476.645	21636.11
476.849	21568.52
477.054	21150.74
477.259	20767.77
477.463	20380.7
477.668	20202.53
477.872	19946.53
478.077	19625
478.282	19047.47
478.486	18803.77
478.691	18670.65
478.895	18531.39
479.1	18498.62
479.304	18297.92
479.509	17720.39
479.713	17507.4
479.918	17417.29
480.122	17085.52
480.326	16895.06
480.531	17114.19
480.735	16876.63
480.94	16661.59
481.144	16909.4
481.348	16305.24
481.553	16401.5
481.757	15811.68
481.961	16043.1
482.166	16168.03
482.37	15793.25
482.574	15553.64
482.778	15772.77
482.983	15529.06
483.187	15445.1
483.391	15299.69
483.595	15094.89
483.8	14703.73
484.004	14949.49
484.208	14965.87
484.412	14797.94
484.616	14822.52
484.821	14328.95
485.025	13862.02
485.229	14249.08
485.433	13603.97
485.637	13638.79
485.841	13362.31
486.045	13243.53
486.249	13388.94
486.453	12895.38
486.657	13167.76
486.861	12756.11
487.065	12395.67
487.269	12319.9
487.473	11777.19
487.677	11885.73
487.881	11898.02
488.085	11664.55
488.289	11320.49
488.493	11121.84
488.697	11213.99
488.901	10818.74
489.105	10693.81
489.309	10448.05
489.512	10310.84
489.716	10169.53
489.92	9934.01
490.124	9893.05
490.328	9667.78
490.531	9206.98
490.735	9372.87
490.939	9125.07
491.143	8733.9
491.346	8881.36
491.55	8860.88
491.754	8697.04
491.958	8588.5
492.161	8324.31
492.365	8115.42
492.569	8039.64
492.772	8021.21
492.976	8068.31
493.18	7840.99
493.383	7763.17
493.587	7703.78
493.79	7677.15
493.994	7449.83
494.197	7441.64
494.401	7390.44
494.605	7060.71
494.808	7230.7
495.012	7279.85
495.215	7312.61
495.419	7165.16
495.622	6989.03
495.825	7058.67
496.029	6769.9
496.232	7013.61
496.436	6943.98
496.639	7163.11
496.843	6925.55
497.046	6888.68
497.249	7003.37
497.453	7054.57
497.656	6862.06
497.859	6925.55
498.063	7087.34
498.266	7124.2
498.469	6931.69
498.673	7056.62
498.876	7130.34
499.079	7236.84
499.282	7122.15
499.485	7576.8
499.689	7302.37
499.892	7494.88
500.095	7351.53
500.298	7447.78
500.501	7329
500.705	7535.84
500.908	7644.38
501.111	7554.27
501.314	7990.49
501.517	7953.63
501.72	7967.96
501.923	7996.64
502.126	7967.96
502.329	8187.1
502.532	8443.09
502.735	8369.37
502.938	8707.28
503.141	8422.61
503.344	8821.97
503.547	8752.34
503.75	8916.17
503.953	8985.8
504.156	9157.83
504.359	9305.29
504.562	9567.43
504.765	9551.04
504.968	9852.09
505.17	9962.69
505.373	9970.88
505.576	10110.14
505.779	10319.03
505.982	10470.58
506.185	10730.67
506.387	11052.2
506.59	10980.53
506.793	11416.74
506.996	11480.23
507.198	11773.09
507.401	11930.78
507.604	12190.88
507.807	12465.3
508.009	12586.13
508.212	13032.59
508.415	13175.95
508.617	13221
508.82	13474.95
509.022	13640.84
509.225	14279.8
509.428	14537.85
509.63	14670.97
509.833	15064.18
510.035	15774.82
510.238	15639.65
510.44	16247.9
510.643	16415.83
510.845	16776.28
511.048	17196.11
511.25	17765.45
511.453	17816.65
511.655	18500.67
511.858	18572.35
512.06	19098.67
512.262	19612.71
512.465	19735.59
512.667	20522.01
512.87	21154.83
513.072	21713.93
513.274	22002.69
513.477	22199.3
513.679	22895.61
513.881	23450.61
514.084	24239.08
514.286	24364
514.488	24966.1
514.69	26217.41
514.893	26065.86
515.095	26661.82
515.297	27415.47
515.499	27677.61
515.701	28470.18
515.904	29348.76
516.106	29799.31
516.308	30339.97
516.51	31001.47
516.712	31204.22
516.914	32045.93
517.116	33084.25
517.318	33319.77
517.52	33905.49
517.722	34304.84
517.925	35236.67
518.127	36006.7
518.329	36762.4
518.531	36840.23
518.733	37767.96
518.935	38507.27
519.136	38492.94
519.338	39553.79
519.54	40186.61
519.742	40596.2
519.944	40880.87
520.146	41978.58
520.348	42672.84
520.55	42717.9
520.752	43506.37
520.954	44161.72
521.155	44104.37
521.357	44898.98
521.559	45476.51
521.761	46408.34
521.963	46916.23
522.164	47041.16
522.366	47258.24
522.568	48056.95
522.77	48704.11
522.971	48517.74
523.173	48441.97
523.375	48978.54
523.576	49347.17
523.778	49164.9
523.98	50426.45
524.181	50436.69
524.383	50164.31
524.584	50797.13
524.786	50844.24
524.988	50559.57
525.189	50537.04
525.391	51055.18
525.592	51448.39
525.794	50975.31
525.995	50661.97
526.197	51147.34
526.398	51210.82
526.6	50809.42
526.801	51184.2
527.003	50745.93
527.204	50473.56
527.406	50616.91
527.607	50274.9
527.808	50534.99
528.01	49042.03
528.211	49601.12
528.412	50371.16
528.614	49597.02
528.815	48673.39
529.016	48892.52
529.218	47835.77
529.419	47387.27
529.62	47616.64
529.822	47176.33
530.023	46492.3
530.224	46287.51
530.425	45980.31
530.626	45109.92
530.828	44405.42
531.029	44956.33
531.23	43516.61
531.431	43412.16
531.632	43168.45
531.833	42832.58
532.035	42201.81
532.236	41583.32
532.437	41597.66
532.638	40219.38
532.839	40200.94
533.04	39772.92
533.241	38892.29
533.442	38945.54
533.643	38046.48
533.844	37501.72
534.045	37548.82
534.246	36469.54
534.447	36514.6
534.648	36027.18
534.849	35646.26
535.05	34812.74
535.251	34437.96
535.451	34046.8
535.652	33653.59
535.853	32740.19
536.054	32770.91
536.255	31990.64
536.456	31368.05
536.657	31796.08
536.857	31220.6
537.058	30493.57
537.259	30335.88
537.46	29920.14
537.66	29072.28
537.861	28945.31
538.062	28572.58
538.263	28310.44
538.463	27530.16
538.664	27433.91
538.865	27229.11
539.065	27030.46
539.266	26342.34
539.466	26299.33
539.667	25689.04
539.868	25773
540.068	25367.51
540.269	25119.7
540.469	25048.02
540.67	24173.54
540.87	24343.52
541.071	24058.85
541.271	23534.57
541.472	23471.09
541.672	23161.84
541.873	22610.94
542.073	22363.14
542.274	22379.52
542.474	22078.47
542.675	21693.45
542.875	21779.47
543.075	21261.33
543.276	20771.86
543.476	21236.75
543.676	20728.86
543.877	20593.69
544.077	20317.22
544.277	19934.25
544.478	19919.91
544.678	19549.23
544.878	19377.2
545.078	19096.63
545.279	18533.43
545.479	18506.81
545.679	18359.36
545.879	18332.73
546.079	18068.55
546.28	17871.94
546.48	17347.66
546.68	17640.52
546.88	17132.62
547.08	17163.34
547.28	16819.28
547.48	16397.4
547.68	16413.79
547.88	16098.4
548.081	16049.25
548.281	15752.29
548.481	15453.29
548.681	15309.93
548.881	15225.96
549.081	14898.29
549.28	14771.32
549.48	14638.2
549.68	14496.89
549.88	14361.72
550.08	13733
550.28	14050.43
550.48	13771.91
550.68	13589.64
550.88	13343.88
551.08	13151.37
551.279	12946.58
551.479	12616.85
551.679	12723.35
551.879	12170.4
552.079	12334.23
552.278	11795.62
552.478	11840.67
552.678	11586.72
552.878	11705.51
553.077	11162.79
553.277	11011.25
553.477	11025.58
553.676	10962.09
553.876	10648.75
554.076	10398.9
554.275	10466.49
554.475	9886.91
554.674	10116.28
554.874	10001.6
555.074	9526.47
555.273	9692.35
555.473	9512.13
555.672	9249.99
555.872	9020.62
556.071	8989.9
556.271	8944.84
556.47	8598.74
556.67	8522.96
556.869	8283.35
557.068	8350.93
557.268	8113.37
557.467	7912.67
557.667	7941.34
557.866	7699.68
558.065	7609.57
558.265	7449.83
558.464	7331.05
558.663	7292.13
558.863	7087.34
559.062	7085.29
559.261	6960.36
559.461	6841.58
559.66	6642.93
559.859	6620.4
560.058	6442.23
560.258	6178.04
560.457	6190.33
560.656	6237.43
560.855	5879.04
561.054	6104.31
561.253	5743.87
561.453	5852.41
561.652	5670.14
561.851	5694.72
562.05	5463.3
562.249	5256.45
562.448	5557.5
562.647	5127.43
562.846	5154.05
563.045	5289.22
563.244	5084.42
563.443	5022.98
563.642	4787.47
563.841	4814.09
564.04	4662.54
564.239	4701.45
564.438	4582.67
564.637	4478.23
564.836	4490.51
565.035	4392.21
565.234	4164.89
565.432	4263.19
565.631	4222.23
565.83	4171.03
566.029	3994.9
566.228	4054.3
566.427	4107.54
566.625	3783.96
566.824	3810.59
567.023	3710.24
567.222	3767.58
567.42	3700
567.619	3755.29
567.818	3626.27
568.016	3661.09
568.215	3423.52
568.414	3542.3
568.612	3372.32
568.811	3378.47
569.01	3294.5
569.208	3188
569.407	3251.49
569.605	3175.72
569.804	3114.28
570.002	3077.41
570.201	3087.65
570.4	3101.99
570.598	3108.13
570.797	2919.72
570.995	2653.48
571.193	2747.69
571.392	2655.53
571.59	2643.24
571.789	2663.72
571.987	2753.84
572.186	2729.26
572.384	2659.63
572.582	2514.22
572.781	2532.65
572.979	2460.98
573.177	2415.92
573.376	2379.06
573.574	2317.62
573.772	2297.14
573.971	2219.32
574.169	2270.51
574.367	2256.18
574.565	2260.27
574.763	2139.44
574.962	2080.05
575.16	1998.13
575.358	1946.94
575.556	2010.42
575.754	2002.23
575.952	1891.64
576.151	1883.45
576.349	1891.64
576.547	1623.36
576.745	1914.17
576.943	1850.68
577.141	1807.67
577.339	1647.93
577.537	1713.47
577.735	1785.15
577.933	1686.84
578.131	1574.21
578.329	1682.75
578.527	1588.54
578.725	1674.56
578.923	1461.57
579.121	1559.87
579.319	1432.9
579.516	1592.64
579.714	1598.78
579.912	1436.99
580.11	1310.02
580.308	1355.07
580.506	1344.83
580.704	1318.21
580.901	1226.05
581.099	1447.23
581.297	1250.63
581.495	1332.54
581.692	1361.22
581.89	1250.63
582.088	1269.06
582.285	1125.7
582.483	1170.76
582.681	1193.28
582.878	1127.75
583.076	1082.69
583.274	1051.97
583.471	1279.3
583.669	1054.02
583.866	1006.92
584.064	1045.83
584.262	943.43
584.459	929.1
584.657	957.77
584.854	1103.17
585.052	970.05
585.249	988.49
585.447	1006.92
585.644	691.53
585.841	953.67
586.039	1021.25
586.236	976.2
586.434	871.75
586.631	861.51
586.828	765.26
587.026	877.9
587.223	757.07
587.42	761.16
587.618	783.69
587.815	818.5
588.012	798.03
588.21	804.17
588.407	787.79
588.604	802.12
588.801	800.07
588.999	666.96
589.196	787.79
589.393	673.1
589.59	752.97
589.787	734.54
589.984	752.97
590.182	697.67
590.379	630.09
590.576	714.06
590.773	683.34
590.97	750.92
591.167	820.55
591.364	699.72
591.561	630.09
591.758	746.83
591.955	802.12
592.152	654.67
592.349	703.82
592.546	623.95
592.743	632.14
592.94	703.82
593.137	669
593.334	795.98
593.531	697.67
593.727	669
593.924	675.15
594.121	585.04
594.318	693.58
594.515	759.11
594.712	804.17
594.908	791.88
595.105	605.52
595.302	734.54
595.499	742.73
595.696	750.92
595.892	744.78
596.089	836.94
596.286	683.34
596.482	785.74
596.679	884.04
596.876	804.17
597.072	918.86
597.269	689.48
597.466	888.14
597.662	861.51
597.859	867.66
598.055	947.53
598.252	976.2
598.448	1064.26
598.645	1099.08
598.841	1170.76
599.038	1137.99
599.234	1101.12
599.431	1205.57
599.627	1271.11
599.824	1283.39
600.02	1353.02
600.217	1252.67
600.413	1324.35
600.609	1426.75
600.806	1830.2
601.002	1613.12
601.198	1533.25
601.395	1787.19
601.591	1873.21
601.787	1828.15
601.984	1922.36
602.18	2022.71
602.376	1981.75
602.572	2176.31
602.769	2299.19
602.965	2184.5
603.161	2276.66
603.357	2467.12
603.553	2532.65
603.75	2495.79
603.946	2635.05
604.142	2923.82
604.338	2768.17
604.534	2870.57
604.73	3028.26
604.926	3050.79
605.122	3310.88
605.318	3271.97
605.514	3462.43
605.71	3458.34
605.906	3673.37
606.102	3585.31
606.298	3728.67
606.494	3800.35
606.69	4132.12
606.886	3984.66
607.082	4261.14
607.278	4267.28
607.474	4531.47
607.67	4584.72
607.866	4476.18
608.062	4898.06
608.257	5180.68
608.453	5160.2
608.649	5313.8
608.845	5446.91
609.041	5420.29
609.236	5795.07
609.432	5819.64
609.628	6073.59
609.824	6098.17
610.019	6229.24
610.215	6505.71
610.411	6626.54
610.606	7009.51
610.802	6880.49
610.998	7124.2
611.193	7390.44
611.389	7392.48
611.584	7890.14
611.78	7828.7
611.976	8183
612.171	8406.23
612.367	8641.75
612.562	8932.56
612.758	8955.08
612.953	9163.98
613.149	9497.8
613.344	9747.65
613.539	10202.3
613.735	10323.13
613.93	10697.91
614.126	10609.84
614.321	11152.56
614.517	11437.22
614.712	11490.47
614.907	11662.5
615.103	12207.26
615.298	12315.8
615.493	12811.41
615.688	12895.38
615.884	13679.75
616.079	13673.6
616.274	14226.56
616.47	14273.66
616.665	14933.11
616.86	15084.66
617.055	15447.15
617.25	15991.91
617.445	16411.74
617.641	16663.64
617.836	17218.64
618.031	17337.42
618.226	17994.82
618.421	18281.53
618.616	19047.47
618.811	18883.64
619.006	19948.58
619.201	19876.9
619.396	20691.99
619.591	20749.34
619.786	21650.44
619.981	21898.25
620.176	22701.05
620.371	22426.62
620.566	23139.32
620.761	23706.6
620.956	24194.02
621.151	24710.11
621.346	25402.32
621.541	25357.27
621.735	26256.32
621.93	26233.8
622.125	27372.47
622.32	26893.24
622.515	27898.8
622.709	28791.71
622.904	28992.41
623.099	29533.07
623.294	29979.53
623.488	30337.93
623.683	31132.54
623.878	30968.7
624.072	32406.37
624.267	32617.32
624.462	32867.17
624.656	33200.99
624.851	34038.61
625.046	34229.07
625.24	35064.64
625.435	35085.12
625.629	35787.57
625.824	36137.77
626.018	36584.23
626.213	36703.01
626.407	37507.86
626.602	37427.99
626.796	38435.59
626.991	38560.52
627.185	38669.06
627.38	39176.96
627.574	39144.19
627.768	39443.2
627.963	39516.92
628.157	39516.92
628.352	40241.9
628.546	39457.53
628.74	40125.17
628.935	40045.3
629.129	40432.36
629.323	39830.26
629.517	39764.73
629.712	39320.32
629.906	39680.76
630.1	38535.95
630.294	38779.65
630.489	37772.05
630.683	37911.31
630.877	36621.09
631.071	36322.09
631.265	35652.41
631.459	35076.93
631.653	33987.41
631.848	33798.99
632.042	32502.63
632.236	32209.77
632.43	31124.35
632.624	30567.3
632.818	29442.96
633.012	28466.08
633.206	27839.4
633.4	27153.33
633.594	26086.34
633.788	25377.75
633.982	24413.15
634.176	23661.55
634.369	22318.08
634.563	21875.72
634.757	20546.59
634.951	20192.29
635.145	19369.01
635.339	18762.81
635.533	17779.78
635.726	17015.89
635.92	16407.64
636.114	15733.86
636.308	14879.86
636.501	14650.49
636.695	13702.28
636.889	13448.33
637.083	12799.12
637.276	12303.51
637.47	11650.21
637.664	11379.88
637.857	11070.64
638.051	10575.03
638.244	10042.56
638.438	9663.68
638.632	9272.52
638.825	8711.38
639.019	8654.03
639.212	8010.97
639.406	8043.74
639.599	7541.99
639.793	7187.69
639.986	6882.54
640.18	6796.53
640.373	6573.3
640.567	6081.78
640.76	5854.46
640.954	5799.16
641.147	5498.11
641.34	5496.07
641.534	5160.2
641.727	5139.72
641.92	4775.18
642.114	4500.75
642.307	4355.35
642.5	4224.28
642.694	4046.1
642.887	3837.21
643.08	3726.62
643.273	3568.93
643.467	3405.09
643.66	3335.46
643.853	3294.5
644.046	3185.96
644.239	2936.1
644.432	2878.76
644.626	2735.4
644.819	2753.84
645.012	2614.57
645.205	2647.34
645.398	2409.78
645.591	2264.37
645.784	2106.68
645.977	2073.91
646.17	2028.85
646.363	2008.37
646.556	1881.4
646.749	1819.96
646.942	1742.14
647.135	1631.55
647.328	1625.4
647.521	1678.65
647.714	1480
647.907	1488.19
648.099	1262.91
648.292	1455.42
648.485	1295.68
648.678	1391.94
648.871	1164.61
649.064	1185.09
649.256	1144.13
649.449	986.44
649.642	879.94
649.835	929.1
650.027	1015.11
650.22	959.81
650.413	855.37
650.605	910.66
650.798	789.83
650.991	795.98
651.183	800.07
651.376	746.83
651.568	730.44
651.761	652.62
651.954	671.05
652.146	701.77
652.339	695.63
652.531	732.49
652.724	550.22
652.916	636.24
653.109	472.4
653.301	650.57
653.494	595.28
653.686	570.7
653.879	566.6
654.071	587.08
654.263	523.6
654.456	431.44
654.648	546.12
654.84	595.28
655.033	458.06
655.225	554.32
655.417	347.47
655.61	544.08
655.802	443.73
655.994	503.12
656.186	281.94
656.379	517.45
656.571	300.37
656.763	300.37
656.955	304.46
657.148	326.99
657.34	361.81
657.532	329.04
657.724	326.99
657.916	269.65
658.108	417.1
658.3	357.71
658.492	333.14
658.684	259.41
658.876	367.95
659.068	214.35
659.26	130.39
659.452	181.59
659.644	326.99
659.836	394.58
660.028	271.7
660.22	161.11
660.412	230.74
660.604	238.93
660.796	232.79
660.988	355.66
661.18	255.31
661.372	265.55
661.563	288.08
661.755	226.64
661.947	259.41
662.139	208.21
662.331	263.51
662.522	261.46
662.714	132.44
662.906	175.44
663.097	226.64
663.289	177.49
663.481	148.82
663.673	261.46
663.864	216.4
664.056	238.93
664.247	181.59
664.439	189.78
664.631	216.4
664.822	279.89
665.014	157.01
665.205	97.62
665.397	161.11
665.588	138.58
665.78	226.64
665.971	187.73
666.163	195.92
666.354	220.5
666.546	116.05
666.737	197.97
666.929	189.78
667.12	99.67
667.311	212.31
667.503	157.01
667.694	191.83
667.885	208.21
668.077	243.03
668.268	157.01
668.459	193.87
668.651	286.03
668.842	183.63
669.033	52.56
669.224	116.05
669.416	353.62
669.607	179.54
669.798	136.53
669.989	216.4
670.18	161.11
670.371	202.07
670.563	73.04
670.754	279.89
670.945	163.15
671.136	179.54
671.327	134.48
671.518	259.41
671.709	281.94
671.9	218.45
672.091	290.13
672.282	167.25
672.473	169.3
672.664	146.77
672.855	165.2
673.046	136.53
673.237	236.88
673.428	189.78
673.619	243.03
673.809	159.06
674	314.7
674.191	335.18
674.382	177.49
674.573	161.11
674.764	232.79
674.954	279.89
675.145	97.62
675.336	89.43
675.527	236.88
675.717	134.48
675.908	183.63
676.099	114
676.289	247.12
676.48	66.9
676.671	200.02
676.861	165.2
677.052	243.03
677.243	181.59
677.433	142.68
677.624	265.55
677.814	251.22
678.005	171.35
678.195	333.14
678.386	169.3
678.576	208.21
678.767	132.44
678.957	292.18
679.148	363.86
679.338	349.52
679.529	298.32
679.719	267.6
679.909	259.41
680.1	263.51
680.29	283.98
680.481	243.03
680.671	357.71
680.861	263.51
681.052	281.94
681.242	286.03
681.432	212.31
681.622	292.18
681.813	251.22
682.003	304.46
682.193	177.49
682.383	347.47
682.573	318.8
682.764	290.13
682.954	251.22
683.144	306.51
683.334	245.07
683.524	255.31
683.714	304.46
683.904	257.36
684.094	292.18
684.284	294.22
684.474	378.19
684.664	318.8
684.854	329.04
685.044	263.51
685.234	302.42
685.424	300.37
685.614	308.56
685.804	400.72
685.994	302.42
686.184	189.78
686.374	339.28
686.564	320.85
686.753	263.51
686.943	208.21
687.133	329.04
687.323	343.38
687.513	298.32
687.702	288.08
687.892	345.42
688.082	357.71
688.272	404.82
688.461	267.6
688.651	433.49
688.841	388.43
689.03	394.58
689.22	245.07
689.41	333.14
689.599	353.62
689.789	261.46
689.979	374.1
690.168	271.7
690.358	370
690.547	290.13
690.737	370
690.926	292.18
691.116	347.47
691.305	372.05
691.495	292.18
691.684	216.4
691.874	261.46
692.063	355.66
692.252	324.94
692.442	322.9
692.631	269.65
692.82	281.94
693.01	331.09
693.199	345.42
693.388	382.29
693.578	197.97
693.767	349.52
693.956	331.09
694.146	243.03
694.335	335.18
694.524	310.61
694.713	333.14
694.902	292.18
695.092	234.83
695.281	324.94
695.47	298.32
695.659	261.46
695.848	208.21
696.037	283.98
696.226	353.62
696.415	341.33
696.604	310.61
696.793	333.14
696.982	288.08
697.171	361.81
697.36	302.42
697.549	318.8
697.738	197.97
697.927	245.07
698.116	228.69
698.305	300.37
698.494	257.36
698.683	273.75
698.872	386.38
699.061	251.22
699.25	294.22
699.438	269.65
699.627	161.11
699.816	417.1
700.005	212.31
700.193	300.37
700.382	357.71
700.571	226.64
700.76	320.85
700.948	257.36
701.137	324.94
701.326	310.61
701.514	193.87
701.703	249.17
701.892	222.55
702.08	396.62
702.269	279.89
702.457	230.74
702.646	318.8
702.834	275.79
703.023	335.18
703.212	365.9
703.4	271.7
703.589	234.83
703.777	286.03
703.965	232.79
704.154	232.79
704.342	238.93
704.531	238.93
704.719	279.89
704.907	312.66
705.096	240.98
705.284	206.16
705.472	326.99
705.661	267.6
705.849	318.8
706.037	329.04
706.226	230.74
706.414	253.27
706.602	208.21
706.79	361.81
706.979	243.03
707.167	300.37
707.355	140.63
707.543	265.55
707.731	298.32
707.919	202.07
708.107	275.79
708.296	212.31
708.484	275.79
708.672	316.75
708.86	318.8
709.048	253.27
709.236	159.06
709.424	324.94
709.612	288.08
709.8	187.73
709.988	236.88
710.176	300.37
710.364	335.18
710.551	269.65
710.739	208.21
710.927	214.35
711.115	288.08
711.303	322.9
711.491	398.67
711.679	216.4
711.866	331.09
712.054	222.55
712.242	271.7
712.43	314.7
712.617	257.36
712.805	339.28
712.993	269.65
713.181	187.73
713.368	388.43
713.556	300.37
713.744	173.39
713.931	339.28
714.119	341.33
714.306	243.03
714.494	267.6
714.682	255.31
714.869	179.54
715.057	318.8
715.244	179.54
715.432	292.18
715.619	200.02
715.807	288.08
715.994	286.03
716.182	365.9
716.369	355.66
716.556	396.62
716.744	255.31
716.931	183.63
717.119	306.51
717.306	191.83
717.493	324.94
717.681	243.03
717.868	288.08
718.055	320.85
718.242	240.98
718.43	324.94
718.617	312.66
718.804	306.51
718.991	394.58
719.179	320.85
719.366	320.85
719.553	345.42
719.74	335.18
719.927	296.27
720.114	298.32
720.301	193.87
720.488	322.9
720.676	206.16
720.863	439.63
721.05	439.63
721.237	408.91
721.424	312.66
721.611	333.14
721.798	159.06
721.985	197.97
722.172	243.03
722.358	275.79
722.545	345.42
722.732	322.9
722.919	417.1
723.106	439.63
723.293	234.83
723.48	339.28
723.667	183.63
723.853	302.42
724.04	343.38
724.227	400.72
724.414	179.54
724.6	390.48
724.787	367.95
724.974	480.59
725.161	320.85
725.347	222.55
725.534	271.7
725.72	363.86
725.907	372.05
726.094	417.1
726.28	218.45
726.467	316.75
726.653	230.74
726.84	537.93
727.027	511.31
727.213	378.19
727.4	417.1
727.586	300.37
727.773	361.81
727.959	372.05
728.145	273.75
728.332	333.14
728.518	333.14
728.705	406.86
728.891	400.72
729.077	351.57
729.264	345.42
729.45	345.42
729.636	367.95
729.823	341.33
730.009	406.86
730.195	421.2
730.382	345.42
730.568	273.75
730.754	400.72
730.94	355.66
731.126	376.14
731.313	494.93
731.499	335.18
731.685	433.49
731.871	339.28
732.057	380.24
732.243	474.45
732.429	406.86
732.615	527.69
732.801	277.84
732.987	374.1
733.173	367.95
733.359	318.8
733.545	417.1
733.731	329.04
733.917	570.7
734.103	408.91
734.289	490.83
734.475	333.14
734.661	474.45
734.847	345.42
735.033	382.29
735.219	417.1
735.404	439.63
735.59	363.86
735.776	427.34
735.962	466.25
736.148	427.34
736.333	439.63
736.519	396.62
736.705	431.44
736.89	388.43
737.076	392.53
737.262	283.98
737.447	306.51
737.633	357.71
737.819	470.35
738.004	449.87
738.19	400.72
738.375	398.67
738.561	419.15
738.747	431.44
738.932	337.23
739.118	505.17
739.303	466.25
739.489	396.62
739.674	451.92
739.859	388.43
740.045	417.1
740.23	415.06
740.416	337.23
740.601	476.49
740.786	441.68
740.972	308.56
741.157	396.62
741.342	333.14
741.528	308.56
741.713	449.87
741.898	353.62
742.084	331.09
742.269	376.14
742.454	429.39
742.639	408.91
742.824	435.53
743.01	507.21
743.195	511.31
743.38	410.96
743.565	392.53
743.75	380.24
743.935	413.01
744.12	542.03
744.305	349.52
744.49	243.03
744.675	341.33
744.86	347.47
745.045	417.1
745.23	302.42
745.415	394.58
745.6	488.78
745.785	343.38
745.97	472.4
746.155	431.44
746.34	435.53
746.525	394.58
746.71	410.96
746.895	283.98
747.079	306.51
747.264	349.52
747.449	462.16
747.634	443.73
747.819	388.43
748.003	318.8
748.188	263.51
748.373	349.52
748.557	423.25
748.742	294.22
748.927	421.2
749.111	234.83
749.296	355.66
749.481	390.48
749.665	298.32
749.85	290.13
750.034	316.75
750.219	367.95
750.404	312.66
750.588	349.52
750.773	263.51
750.957	339.28
751.141	322.9
751.326	310.61
751.51	261.46
751.695	331.09
751.879	390.48
752.064	421.2
752.248	251.22
752.432	357.71
752.617	386.38
752.801	341.33
752.985	367.95
753.17	333.14
753.354	361.81
753.538	308.56
753.722	251.22
753.907	218.45
754.091	249.17
754.275	343.38
754.459	193.87
754.643	300.37
754.828	376.14
755.012	275.79
755.196	296.27
755.38	271.7
755.564	204.11
755.748	296.27
755.932	337.23
756.116	402.77
756.3	226.64
756.484	204.11
756.668	339.28
756.852	175.44
757.036	226.64
757.22	267.6
757.404	167.25
757.588	261.46
757.772	314.7
757.956	261.46
758.14	316.75
758.323	259.41
758.507	286.03
758.691	267.6
758.875	331.09
759.059	333.14
759.242	214.35
759.426	304.46
759.61	177.49
759.794	154.96
759.977	283.98
760.161	443.73
760.345	351.57
760.528	331.09
760.712	191.83
760.895	243.03
761.079	271.7
761.263	152.91
761.446	216.4
761.63	234.83
761.813	347.47
761.997	120.15
762.18	200.02
762.364	267.6
762.547	83.28
762.731	202.07
762.914	206.16
763.098	206.16
763.281	171.35
763.464	208.21
763.648	179.54
763.831	197.97
764.015	130.39
764.198	228.69
764.381	226.64
764.564	200.02
764.748	181.59
764.931	247.12
765.114	77.14
765.297	290.13
765.481	99.67
765.664	136.53
765.847	159.06
766.03	195.92
766.213	91.48
766.397	232.79
766.58	105.81
766.763	167.25
766.946	91.48
767.129	89.43
767.312	163.15
767.495	183.63
767.678	269.65
767.861	212.31
768.044	226.64
768.227	87.38
768.41	230.74
768.593	234.83
768.776	157.01
768.959	132.44
769.142	281.94
769.324	185.68
769.507	193.87
769.69	27.99
769.873	183.63
770.056	234.83
770.239	161.11
770.421	154.96
770.604	140.63
770.787	152.91
770.97	226.64
771.152	48.47
771.335	124.24
771.518	58.71
771.7	189.78
771.883	271.7
772.066	161.11
772.248	179.54
772.431	236.88
772.613	118.1
772.796	56.66
772.978	193.87
773.161	255.31
773.343	77.14
773.526	200.02
773.708	30.04
773.891	103.76
774.073	175.44
774.256	126.29
774.438	189.78
774.621	208.21
774.803	226.64
774.985	161.11
775.168	288.08
775.35	105.81
775.532	183.63
775.715	83.28
775.897	169.3
776.079	116.05
776.261	202.07
776.444	46.42
776.626	97.62
776.808	150.87
776.99	60.76
777.173	120.15
777.355	105.81
777.537	99.67
777.719	114
777.901	116.05
778.083	97.62
778.265	56.66
778.447	222.55
778.629	50.52
778.811	134.48
778.993	109.91
779.175	167.25
779.357	79.19
779.539	38.23
779.721	177.49
779.903	142.68
780.085	79.19
780.267	62.8
780.449	118.1
780.631	132.44
780.812	185.68
780.994	150.87
781.176	68.95
781.358	111.96
781.54	118.1
781.721	214.35
781.903	132.44
782.085	77.14
782.267	216.4
782.448	3.41
782.63	81.24
782.812	62.8
782.993	101.72
783.175	105.81
783.357	75.09
783.538	99.67
783.72	34.13
783.901	75.09
784.083	152.91
784.264	85.33
784.446	38.23
784.627	-19.11
784.809	183.63
784.99	87.38
785.172	118.1
785.353	122.2
785.535	116.05
785.716	15.7
785.897	30.04
786.079	71
786.26	71
786.441	85.33
786.623	46.42
786.804	60.76
786.985	114
787.167	128.34
787.348	40.28
787.529	40.28
787.71	245.07
787.891	134.48
788.073	3.41
788.254	-43.69
788.435	111.96
788.616	48.47
788.797	85.33
788.978	116.05
789.159	34.13
789.34	99.67
789.522	66.9
789.703	-15.02
789.884	144.72
790.065	116.05
790.246	136.53
790.427	99.67
790.607	91.48
790.788	107.86
790.969	-35.5
791.15	157.01
791.331	83.28
791.512	73.04
791.693	-55.98
791.874	30.04
792.054	296.27
792.235	128.34
792.416	-15.02
792.597	30.04
792.778	97.62
792.958	79.19
793.139	71
793.32	71
793.5	-41.64
793.681	148.82
793.862	128.34
794.042	60.76
794.223	-55.98
794.404	50.52
794.584	-21.16
794.765	3.41
794.945	58.71
795.126	154.96
795.306	146.77
795.487	-17.07
795.667	81.24
795.848	46.42
796.028	64.85
796.209	-15.02
796.389	105.81
796.57	99.67
796.75	-37.55
796.93	79.19
797.111	-51.88
797.291	71
797.471	126.29
797.652	-31.4
797.832	13.65
798.012	118.1
798.192	-27.31
798.373	11.61
798.553	52.56
798.733	124.24
798.913	-66.22
799.093	-29.35
799.274	-27.31
799.454	114
799.634	81.24
799.814	120.15
799.994	73.04
800.174	152.91
800.354	56.66
800.534	-25.26
800.714	122.2
800.894	7.51
801.074	-21.16
801.254	27.99
801.434	189.78
801.614	109.91
801.794	-33.45
801.974	1987.89
802.154	11.61
802.334	97.62
802.514	71
802.693	32.08
802.873	68.95
803.053	136.53
803.233	15.7
803.413	89.43
803.592	-33.45
803.772	-4.78
803.952	-49.83
804.131	-60.07
804.311	111.96
804.491	179.54
804.67	34.13
804.85	85.33
805.03	66.9
805.209	68.95
805.389	25.94
805.568	-68.27
805.748	60.76
805.928	-6.83
806.107	52.56
806.287	89.43
806.466	83.28
806.646	89.43
806.825	40.28
807.004	75.09
807.184	81.24
807.363	114
807.543	89.43
807.722	-70.31
807.901	138.58
808.081	128.34
808.26	-78.51
808.439	9.56
808.619	85.33
808.798	11.61
808.977	9.56
809.156	138.58
809.336	9.56
809.515	101.72
809.694	91.48
809.873	-4.78
810.052	73.04
810.231	169.3
810.411	52.56
810.59	32.08
810.769	-2.73
810.948	75.09
811.127	-146.09
811.306	5.46
811.485	-0.68
811.664	132.44
811.843	50.52
812.022	23.89
812.201	-6.83
812.38	3.41
812.559	87.38
812.737	75.09
812.916	-2.73
813.095	-41.64
813.274	107.86
813.453	36.18
813.632	105.81
813.811	109.91
813.989	-125.61
814.168	48.47
814.347	3.41
814.526	-43.69
814.704	101.72
814.883	154.96
815.062	-43.69
815.24	38.23
815.419	13.65
815.598	60.76
815.776	-55.98
815.955	-6.83
816.133	-74.41
816.312	-41.64
816.49	-35.5
816.669	11.61
816.847	85.33
817.026	19.8
817.204	-39.59
817.383	-33.45
817.561	-76.46
817.74	58.71
817.918	60.76
818.097	3.41
818.275	-2.73
818.453	77.14
818.632	44.37
818.81	3.41
818.988	-27.31
819.167	3.41
819.345	44.37
819.523	13.65
819.701	5.46
819.879	66.9
820.058	13.65
820.236	-29.35
820.414	87.38
820.592	81.24
820.77	-19.11
820.948	44.37
821.127	-6.83
821.305	23.89
821.483	32.08
821.661	208.21
821.839	42.32
822.017	-37.55
822.195	11.61
822.373	85.33
822.551	36.18
822.729	54.61
822.907	11.61
823.085	36.18
823.262	36.18
823.44	52.56
823.618	13.65
823.796	23.89
823.974	-33.45
824.152	-60.07
824.329	-86.7
824.507	-4.78
824.685	85.33
824.863	54.61
825.04	46.42
825.218	79.19
825.396	17.75
825.574	79.19
825.751	60.76
825.929	114
826.107	5.46
826.284	54.61
826.462	79.19
826.639	-109.23
826.817	-86.7
826.994	60.76
827.172	17.75
827.349	142.68
827.527	97.62
827.704	87.38
827.882	36.18
828.059	13.65
828.237	-23.21
828.414	83.28
828.591	-107.18
828.769	42.32
828.946	-19.11
829.124	68.95
829.301	107.86
829.478	-37.55
829.655	83.28
829.833	58.71
830.01	-98.99
830.187	120.15
830.364	9.56
830.542	-10.92
830.719	89.43
830.896	81.24
831.073	101.72
831.25	54.61
831.427	66.9
831.604	103.76
831.782	-6.83
831.959	79.19
832.136	30.04
832.313	148.82
832.49	19.8
832.667	32.08
832.844	30.04
833.021	44.37
833.198	52.56
833.374	40.28
833.551	11.61
833.728	40.28
833.905	87.38
834.082	-80.55
834.259	34.13
834.436	85.33
834.612	5.46
834.789	11.61
834.966	9.56
835.143	-10.92
835.319	9.56
835.496	46.42
835.673	60.76
835.85	152.91
836.026	93.52
836.203	138.58
836.38	-55.98
836.556	50.52
836.733	-23.21
836.909	79.19
837.086	-23.21
837.262	-10.92
837.439	58.71
837.616	-2.73
837.792	27.99
837.968	21.85
838.145	-131.75
838.321	3.41
838.498	56.66
838.674	85.33
838.851	34.13
839.027	-78.51
839.203	44.37
839.38	79.19
839.556	-8.87
839.732	62.8
839.909	56.66
840.085	15.7
840.261	-80.55
840.437	52.56
840.614	-15.02
840.79	85.33
840.966	66.9
841.142	-10.92
841.318	-51.88
841.494	34.13
841.671	85.33
841.847	32.08
842.023	-109.23
842.199	38.23
842.375	179.54
842.551	-203.43
842.727	-45.74
842.903	122.2
843.079	-82.6
843.255	83.28
843.431	30.04
843.607	13.65
843.783	-107.18
843.959	23.89
844.134	32.08
844.31	109.91
844.486	13.65
844.662	-6.83
844.838	34.13
845.013	68.95
845.189	159.06
845.365	-2.73
845.541	-29.35
845.716	-6.83
845.892	89.43
846.068	46.42
846.244	-33.45
846.419	85.33
846.595	-47.79
846.77	-43.69
846.946	136.53
847.122	5.46
847.297	-19.11
847.473	95.57
847.648	-80.55
847.824	17.75
847.999	-29.35
848.175	-41.64
848.35	95.57
848.526	64.85
848.701	189.78
848.876	177.49
849.052	136.53
849.227	77.14
849.403	32.08
849.578	-70.31
849.753	17.75
849.929	9.56
850.104	-33.45
850.279	-2.73
850.454	111.96
850.63	23.89
850.805	-2.73
850.98	50.52
851.155	13.65
851.33	54.61
851.505	-25.26
851.681	136.53
851.856	-21.16
852.031	75.09
852.206	3.41
852.381	-37.55
852.556	17.75
852.731	3.41
852.906	48.47
853.081	66.9
853.256	126.29
853.431	36.18
853.606	-49.83
853.781	19.8
853.956	-105.13
854.131	21.85
854.305	7.51
854.48	50.52
854.655	9.56
854.83	50.52
855.005	-37.55
855.18	73.04
855.354	3.41
855.529	-6.83
855.704	17.75
855.879	44.37
856.053	-76.46
856.228	-6.83
856.403	-47.79
856.577	91.48
856.752	13.65
856.926	-21.16
857.101	101.72
857.276	-80.55
857.45	48.47
857.625	60.76
857.799	-43.69
857.974	-4.78
858.148	-62.12
858.323	93.52
858.497	-17.07
858.672	-23.21
858.846	19.8
859.02	66.9
859.195	-51.88
859.369	-4.78
859.543	38.23
859.718	36.18
859.892	50.52
860.066	19.8
860.241	25.94
860.415	-64.17
860.589	3.41
860.763	48.47
860.938	-74.41
861.112	25.94
861.286	-39.59
861.46	-0.68
861.634	66.9
861.808	95.57
861.982	-35.5
862.157	-144.04
862.331	-0.68
862.505	-111.27
862.679	-131.75
862.853	-8.87
863.027	34.13
863.201	179.54
863.375	-55.98
863.549	54.61
863.722	-8.87
863.896	126.29
864.07	-129.7
864.244	-33.45
864.418	56.66
864.592	13.65
864.766	-47.79
864.939	32.08
865.113	19.8
865.287	77.14
865.461	27.99
865.634	-35.5
865.808	-17.07
865.982	27.99
866.156	-96.94
866.329	-21.16
866.503	13.65
866.676	154.96
866.85	21.85
867.024	30.04
867.197	1.37
867.371	89.43
867.544	58.71
867.718	-86.7
867.891	42.32
868.065	-135.85
868.238	-17.07
868.412	120.15
868.585	62.8
868.759	-17.07
868.932	3.41
869.105	-55.98
869.279	38.23
869.452	-84.65
869.625	25.94
869.799	25.94
869.972	-25.26
870.145	-53.93
870.319	114
870.492	19.8
870.665	9.56
870.838	-66.22
871.011	-115.37
871.185	-74.41
871.358	-41.64
871.531	66.9
871.704	50.52
871.877	50.52
872.05	17.75
872.223	-96.94
872.396	50.52
872.569	93.52
872.742	-58.03
872.915	19.8
873.088	-41.64
873.261	-47.79
873.434	79.19
873.607	19.8
873.78	148.82
873.953	-90.79
874.126	-27.31
874.299	101.72
874.471	-23.21
874.644	13.65
874.817	58.71
874.99	140.63
875.163	-25.26
875.335	60.76
875.508	-19.11
875.681	81.24
875.853	-62.12
876.026	44.37
876.199	21.85
876.371	38.23
876.544	-6.83
876.717	15.7
876.889	5.46
877.062	54.61
877.234	-55.98
877.407	-19.11
877.579	13.65
877.752	-6.83
877.924	93.52
878.097	60.76
878.269	-4.78
878.442	60.76
878.614	17.75
878.786	-80.55
878.959	73.04
879.131	44.37
879.303	-35.5
879.476	52.56
879.648	171.35
879.82	-8.87
879.993	11.61
880.165	-39.59
880.337	-33.45
880.509	-6.83
880.681	-105.13
880.854	-17.07
881.026	-0.68
881.198	83.28
881.37	27.99
881.542	-31.4
881.714	36.18
881.886	-35.5
882.058	81.24
882.23	-10.92
882.402	-15.02
882.574	30.04
882.746	85.33
882.918	114
883.09	83.28
883.262	30.04
883.434	58.71
883.606	-96.94
883.778	-47.79
883.95	95.57
884.122	-45.74
884.293	85.33
884.465	42.32
884.637	42.32
884.809	-49.83
884.98	-62.12
885.152	71
885.324	93.52
885.496	-68.27
885.667	-51.88
885.839	114
886.011	136.53
886.182	21.85
886.354	77.14
886.525	27.99
886.697	-19.11
886.869	-43.69
887.04	-12.97
887.212	85.33
887.383	152.91
887.555	-25.26
887.726	-12.97
887.897	-29.35
888.069	36.18
888.24	27.99
888.412	75.09
888.583	-45.74
888.754	11.61
888.926	-62.12
889.097	-0.68
889.268	-12.97
889.44	-45.74
889.611	-90.79
889.782	-31.4
889.953	-23.21
890.125	81.24
890.296	-113.32
890.467	-39.59
890.638	-58.03
890.809	46.42
890.98	-66.22
891.151	73.04
891.323	111.96
891.494	27.99
891.665	-10.92
891.836	3.41
892.007	-0.68
892.178	19.8
892.349	48.47
892.52	-98.99
892.691	38.23
892.862	-27.31
893.032	-117.42
893.203	-35.5
893.374	-8.87
893.545	159.06
893.716	25.94
893.887	48.47
894.057	23.89
894.228	50.52
894.399	-78.51
894.57	38.23
894.74	-37.55
894.911	-31.4
895.082	-49.83
895.253	-39.59
895.423	-51.88
895.594	50.52
895.764	66.9
895.935	-45.74
896.106	32.08
896.276	-45.74
896.447	-6.83
896.617	-58.03
896.788	-109.23
896.958	-25.26
897.129	-66.22
897.299	-0.68
897.47	99.67
897.64	38.23
897.81	-21.16
897.981	48.47
898.151	-37.55
898.322	-66.22
898.492	114
898.662	-125.61
898.832	-21.16
899.003	-47.79
899.173	36.18
899.343	-43.69
899.513	-96.94
