Data from USB4F104151__226__11-06-12-826.txt Node

Date: Wed Feb 26 11:06:12 EST 2025
User: louis
Spectrometer: USB4F10415
Trigger mode: 4
Integration Time (sec): 1.000000E-1
Scans to average: 1
Electric dark correction enabled: true
Nonlinearity correction enabled: false
Boxcar width: 0
XAxis mode: Wavelengths
Number of Pixels in Spectrum: 3648
>>>>>Begin Spectral Data<<<<<
178.204	-481.44
178.424	-481.44
178.644	-481.44
178.864	-448.68
179.084	-477.35
179.304	46.93
179.524	-49.32
179.744	-55.47
179.964	-8.36
180.184	-2.22
180.404	73.56
180.624	-28.84
180.844	10.07
181.064	-77.99
181.283	100.18
181.503	-57.51
181.723	48.98
181.943	-84.14
182.163	159.57
182.383	-57.51
182.602	104.28
182.822	83.8
183.042	22.36
183.262	-80.04
183.482	48.98
183.701	34.64
183.921	24.4
184.141	-57.51
184.361	106.32
184.58	130.9
184.8	34.64
185.02	-80.04
185.239	112.47
185.459	55.12
185.679	116.56
185.898	-108.71
186.118	-2.22
186.338	42.84
186.557	108.37
186.777	-108.71
186.997	-39.08
187.216	167.76
187.436	155.47
187.655	46.93
187.875	28.5
188.095	44.88
188.314	167.76
188.534	96.08
188.753	-49.32
188.973	57.17
189.192	182.1
189.412	34.64
189.631	46.93
189.851	44.88
190.07	132.95
190.29	-32.94
190.509	-18.6
190.729	24.4
190.948	102.23
191.168	192.34
191.387	91.99
191.607	38.74
191.826	46.93
192.045	-6.31
192.265	-14.51
192.484	67.41
192.704	77.65
192.923	-88.23
193.142	153.43
193.362	96.08
193.581	141.14
193.8	81.75
194.02	108.37
194.239	53.08
194.458	75.6
194.678	30.55
194.897	-6.31
195.116	44.88
195.335	5.97
195.555	42.84
195.774	14.17
195.993	139.09
196.212	22.36
196.432	1.88
196.651	-0.17
196.87	57.17
197.089	321.36
197.308	44.88
197.528	69.46
197.747	-20.65
197.966	24.4
198.185	147.28
198.404	-14.51
198.623	85.84
198.842	110.42
199.062	91.99
199.281	130.9
199.5	24.4
199.719	122.71
199.938	5.97
200.157	20.31
200.376	175.95
200.595	32.6
200.814	40.79
201.033	-4.27
201.252	169.81
201.471	128.85
201.69	71.51
201.909	55.12
202.128	112.47
202.347	71.51
202.566	3.93
202.785	-20.65
203.004	-0.17
203.223	259.92
203.442	32.6
203.661	3.93
203.879	38.74
204.098	24.4
204.317	-26.79
204.536	89.94
204.755	137.04
204.974	59.22
205.193	-2.22
205.411	126.8
205.63	114.52
205.849	14.17
206.068	-24.75
206.287	16.21
206.505	153.43
206.724	81.75
206.943	14.17
207.162	-16.55
207.381	-2.22
207.599	48.98
207.818	10.07
208.037	-88.23
208.255	40.79
208.474	91.99
208.693	18.26
208.911	34.64
209.13	1.88
209.349	100.18
209.567	32.6
209.786	89.94
210.005	108.37
210.223	10.07
210.442	-94.38
210.661	-49.32
210.879	38.74
211.098	59.22
211.316	20.31
211.535	94.04
211.753	26.45
211.972	112.47
212.191	1.88
212.409	-4.27
212.628	120.66
212.846	-14.51
213.065	-6.31
213.283	96.08
213.502	-82.09
213.72	16.21
213.938	22.36
214.157	-2.22
214.375	153.43
214.594	44.88
214.812	51.03
215.031	1.88
215.249	87.89
215.467	40.79
215.686	36.69
215.904	81.75
216.122	55.12
216.341	104.28
216.559	-34.99
216.778	149.33
216.996	171.86
217.214	28.5
217.432	-8.36
217.651	-67.75
217.869	-8.36
218.087	16.21
218.306	32.6
218.524	28.5
218.742	-65.71
218.96	122.71
219.179	-53.42
219.397	18.26
219.615	278.35
219.833	75.6
220.051	55.12
220.27	42.84
220.488	118.61
220.706	65.36
220.924	-92.33
221.142	-73.9
221.36	30.55
221.578	1.88
221.796	61.27
222.015	67.41
222.233	38.74
222.451	106.32
222.669	42.84
222.887	75.6
223.105	-75.95
223.323	-22.7
223.541	-43.18
223.759	55.12
223.977	-77.99
224.195	102.23
224.413	94.04
224.631	-22.7
224.849	57.17
225.067	266.07
225.285	10.07
225.503	-10.41
225.721	-106.67
225.939	46.93
226.157	32.6
226.375	198.48
226.592	18.26
226.81	71.51
227.028	110.42
227.246	112.47
227.464	-24.75
227.682	141.14
227.9	71.51
228.117	63.32
228.335	79.7
228.553	32.6
228.771	87.89
228.989	14.17
229.206	118.61
229.424	-110.76
229.642	-16.55
229.86	-41.13
230.077	104.28
230.295	12.12
230.513	165.71
230.731	65.36
230.948	145.24
231.166	188.24
231.384	-47.27
231.601	-30.89
231.819	124.76
232.037	3.93
232.254	-80.04
232.472	51.03
232.689	-22.7
232.907	83.8
233.125	44.88
233.342	-37.03
233.56	24.4
233.777	-6.31
233.995	-20.65
234.213	155.47
234.43	34.64
234.648	75.6
234.865	-12.46
235.083	8.02
235.3	46.93
235.518	57.17
235.735	89.94
235.953	48.98
236.17	42.84
236.388	34.64
236.605	48.98
236.822	132.95
237.04	53.08
237.257	75.6
237.475	-92.33
237.692	100.18
237.909	65.36
238.127	14.17
238.344	77.65
238.562	14.17
238.779	-75.95
238.996	-80.04
239.214	16.21
239.431	104.28
239.648	-18.6
239.865	71.51
240.083	44.88
240.3	32.6
240.517	-8.36
240.735	87.89
240.952	65.36
241.169	73.56
241.386	126.8
241.603	-71.85
241.821	-12.46
242.038	34.64
242.255	75.6
242.472	-53.42
242.689	69.46
242.907	122.71
243.124	48.98
243.341	-14.51
243.558	-59.56
243.775	-77.99
243.992	-123.05
244.209	48.98
244.426	175.95
244.643	81.75
244.86	32.6
245.078	118.61
245.295	18.26
245.512	-26.79
245.729	-69.8
245.946	44.88
246.163	46.93
246.38	44.88
246.597	98.13
246.814	57.17
247.031	79.7
247.248	28.5
247.464	91.99
247.681	18.26
247.898	12.12
248.115	40.79
248.332	12.12
248.549	130.9
248.766	161.62
248.983	73.56
249.2	118.61
249.417	89.94
249.633	34.64
249.85	83.8
250.067	34.64
250.284	51.03
250.501	22.36
250.717	67.41
250.934	-63.66
251.151	26.45
251.368	18.26
251.585	55.12
251.801	38.74
252.018	-47.27
252.235	87.89
252.451	-100.52
252.668	61.27
252.885	186.19
253.102	48.98
253.318	26.45
253.535	10.07
253.752	-39.08
253.968	24.4
254.185	-59.56
254.401	38.74
254.618	71.51
254.835	-77.99
255.051	73.56
255.268	110.42
255.484	42.84
255.701	28.5
255.917	102.23
256.134	-12.46
256.351	46.93
256.567	24.4
256.784	22.36
257	-43.18
257.217	104.28
257.433	110.42
257.65	14.17
257.866	98.13
258.082	-20.65
258.299	-2.22
258.515	51.03
258.732	14.17
258.948	-71.85
259.165	71.51
259.381	-39.08
259.597	10.07
259.814	-0.17
260.03	48.98
260.246	-37.03
260.463	94.04
260.679	69.46
260.895	46.93
261.112	-6.31
261.328	32.6
261.544	-57.51
261.761	200.53
261.977	-8.36
262.193	-34.99
262.409	42.84
262.626	59.22
262.842	57.17
263.058	-0.17
263.274	157.52
263.49	32.6
263.707	94.04
263.923	53.08
264.139	-47.27
264.355	40.79
264.571	85.84
264.787	173.91
265.004	67.41
265.22	38.74
265.436	5.97
265.652	1.88
265.868	-10.41
266.084	-28.84
266.3	18.26
266.516	-12.46
266.732	81.75
266.948	38.74
267.164	42.84
267.38	20.31
267.596	55.12
267.812	89.94
268.028	8.02
268.244	3.93
268.46	20.31
268.676	-0.17
268.892	85.84
269.108	-127.14
269.324	-43.18
269.54	-20.65
269.756	63.32
269.972	-18.6
270.188	-67.75
270.403	-102.57
270.619	20.31
270.835	73.56
271.051	38.74
271.267	-32.94
271.483	14.17
271.698	110.42
271.914	118.61
272.13	63.32
272.346	-26.79
272.562	32.6
272.777	36.69
272.993	28.5
273.209	130.9
273.425	3.93
273.64	-61.61
273.856	48.98
274.072	-69.8
274.287	-6.31
274.503	153.43
274.719	53.08
274.934	-63.66
275.15	-24.75
275.366	75.6
275.581	-43.18
275.797	55.12
276.012	57.17
276.228	-69.8
276.444	32.6
276.659	104.28
276.875	-30.89
277.09	-16.55
277.306	-47.27
277.521	16.21
277.737	3.93
277.952	87.89
278.168	51.03
278.383	57.17
278.599	-16.55
278.814	-0.17
279.03	42.84
279.245	96.08
279.461	-12.46
279.676	48.98
279.892	-16.55
280.107	-57.51
280.322	-49.32
280.538	10.07
280.753	-24.75
280.969	98.13
281.184	32.6
281.399	155.47
281.615	32.6
281.83	24.4
282.045	-34.99
282.26	32.6
282.476	-32.94
282.691	118.61
282.906	126.8
283.122	16.21
283.337	-49.32
283.552	100.18
283.767	32.6
283.983	16.21
284.198	38.74
284.413	8.02
284.628	-0.17
284.843	79.7
285.058	34.64
285.274	53.08
285.489	-108.71
285.704	94.04
285.919	-4.27
286.134	-14.51
286.349	18.26
286.564	-6.31
286.779	135
286.995	18.26
287.21	-12.46
287.425	116.56
287.64	-32.94
287.855	96.08
288.07	-80.04
288.285	153.43
288.5	69.46
288.715	44.88
288.93	-6.31
289.145	34.64
289.36	85.84
289.575	-24.75
289.79	157.52
290.004	-8.36
290.219	87.89
290.434	-129.19
290.649	-69.8
290.864	-2.22
291.079	32.6
291.294	71.51
291.509	94.04
291.724	-0.17
291.938	-18.6
292.153	5.97
292.368	-51.37
292.583	53.08
292.798	14.17
293.012	24.4
293.227	14.17
293.442	34.64
293.657	57.17
293.871	81.75
294.086	-47.27
294.301	120.66
294.516	192.34
294.73	24.4
294.945	-43.18
295.16	16.21
295.374	106.32
295.589	48.98
295.804	-12.46
296.018	96.08
296.233	126.8
296.447	79.7
296.662	-14.51
296.877	69.46
297.091	106.32
297.306	14.17
297.52	-12.46
297.735	100.18
297.949	1.88
298.164	85.84
298.378	57.17
298.593	-0.17
298.807	-39.08
299.022	98.13
299.236	116.56
299.451	10.07
299.665	-51.37
299.88	1.88
300.094	18.26
300.309	3.93
300.523	1.88
300.737	61.27
300.952	48.98
301.166	8.02
301.381	-0.17
301.595	24.4
301.809	46.93
302.024	-10.41
302.238	-18.6
302.452	100.18
302.667	-47.27
302.881	147.28
303.095	112.47
303.309	14.17
303.524	-16.55
303.738	18.26
303.952	3.93
304.166	3.93
304.381	-59.56
304.595	79.7
304.809	34.64
305.023	5.97
305.237	18.26
305.452	36.69
305.666	135
305.88	53.08
306.094	55.12
306.308	73.56
306.522	8.02
306.736	94.04
306.95	104.28
307.164	20.31
307.379	18.26
307.593	116.56
307.807	75.6
308.021	98.13
308.235	120.66
308.449	-67.75
308.663	-32.94
308.877	198.48
309.091	1.88
309.305	91.99
309.519	-159.91
309.733	173.91
309.947	-10.41
310.161	-0.17
310.374	110.42
310.588	96.08
310.802	-59.56
311.016	-8.36
311.23	-2.22
311.444	-34.99
311.658	-30.89
311.872	116.56
312.085	130.9
312.299	126.8
312.513	124.76
312.727	32.6
312.941	-41.13
313.154	28.5
313.368	106.32
313.582	-24.75
313.796	145.24
314.009	57.17
314.223	100.18
314.437	48.98
314.651	116.56
314.864	-10.41
315.078	53.08
315.292	-57.51
315.505	34.64
315.719	8.02
315.933	135
316.146	-6.31
316.36	-75.95
316.573	124.76
316.787	75.6
317.001	81.75
317.214	-37.03
317.428	12.12
317.641	-2.22
317.855	-24.75
318.068	98.13
318.282	38.74
318.495	120.66
318.709	32.6
318.922	-2.22
319.136	79.7
319.349	96.08
319.563	-16.55
319.776	14.17
319.99	-37.03
320.203	69.46
320.417	12.12
320.63	114.52
320.843	157.52
321.057	-18.6
321.27	-49.32
321.483	100.18
321.697	112.47
321.91	22.36
322.124	-30.89
322.337	44.88
322.55	-28.84
322.763	-18.6
322.977	8.02
323.19	-12.46
323.403	42.84
323.617	77.65
323.83	94.04
324.043	-61.61
324.256	24.4
324.469	-30.89
324.683	116.56
324.896	55.12
325.109	-12.46
325.322	-24.75
325.535	55.12
325.748	34.64
325.962	-100.52
326.175	83.8
326.388	3.93
326.601	85.84
326.814	-69.8
327.027	24.4
327.24	139.09
327.453	-129.19
327.666	124.76
327.879	91.99
328.092	61.27
328.305	5.97
328.518	-0.17
328.731	53.08
328.944	1.88
329.157	18.26
329.37	55.12
329.583	124.76
329.796	128.85
330.009	-73.9
330.222	79.7
330.435	128.85
330.648	87.89
330.861	55.12
331.073	28.5
331.286	-4.27
331.499	26.45
331.712	10.07
331.925	-28.84
332.138	22.36
332.35	102.23
332.563	24.4
332.776	38.74
332.989	-41.13
333.202	38.74
333.414	8.02
333.627	16.21
333.84	22.36
334.053	81.75
334.265	14.17
334.478	18.26
334.691	-39.08
334.903	81.75
335.116	-16.55
335.329	-39.08
335.541	1.88
335.754	106.32
335.966	-41.13
336.179	22.36
336.392	-26.79
336.604	-37.03
336.817	83.8
337.029	44.88
337.242	-22.7
337.454	143.19
337.667	-24.75
337.88	196.43
338.092	65.36
338.305	81.75
338.517	-4.27
338.729	38.74
338.942	180.05
339.154	-61.61
339.367	-69.8
339.579	110.42
339.792	-57.51
340.004	73.56
340.217	-10.41
340.429	-6.31
340.641	-16.55
340.854	-55.47
341.066	34.64
341.278	108.37
341.491	145.24
341.703	48.98
341.915	3.93
342.128	157.52
342.34	8.02
342.552	20.31
342.764	34.64
342.977	-4.27
343.189	18.26
343.401	8.02
343.613	-112.81
343.826	30.55
344.038	8.02
344.25	79.7
344.462	-30.89
344.674	77.65
344.886	34.64
345.099	61.27
345.311	44.88
345.523	-2.22
345.735	-43.18
345.947	57.17
346.159	51.03
346.371	24.4
346.583	-28.84
346.795	214.87
347.007	26.45
347.219	81.75
347.431	-12.46
347.643	30.55
347.855	8.02
348.067	112.47
348.279	24.4
348.491	32.6
348.703	83.8
348.915	79.7
349.127	-8.36
349.339	75.6
349.551	26.45
349.763	22.36
349.975	46.93
350.187	120.66
350.399	145.24
350.61	67.41
350.822	-28.84
351.034	75.6
351.246	36.69
351.458	85.84
351.669	51.03
351.881	157.52
352.093	51.03
352.305	91.99
352.517	91.99
352.728	53.08
352.94	65.36
353.152	22.36
353.363	-71.85
353.575	71.51
353.787	63.32
353.999	81.75
354.21	208.72
354.422	-73.9
354.633	-0.17
354.845	-10.41
355.057	34.64
355.268	-37.03
355.48	46.93
355.692	-88.23
355.903	77.65
356.115	-20.65
356.326	-18.6
356.538	69.46
356.749	100.18
356.961	192.34
357.172	-14.51
357.384	-55.47
357.595	212.82
357.807	-2.22
358.018	-49.32
358.23	3.93
358.441	139.09
358.653	48.98
358.864	30.55
359.075	-57.51
359.287	28.5
359.498	40.79
359.709	118.61
359.921	8.02
360.132	85.84
360.344	38.74
360.555	42.84
360.766	36.69
360.977	-131.24
361.189	108.37
361.4	18.26
361.611	114.52
361.823	87.89
362.034	73.56
362.245	-45.23
362.456	14.17
362.667	65.36
362.879	8.02
363.09	79.7
363.301	75.6
363.512	32.6
363.723	55.12
363.935	-16.55
364.146	79.7
364.357	1.88
364.568	89.94
364.779	-10.41
364.99	221.01
365.201	-18.6
365.412	139.09
365.623	-28.84
365.834	18.26
366.045	42.84
366.256	67.41
366.467	40.79
366.678	8.02
366.889	-39.08
367.1	1.88
367.311	32.6
367.522	38.74
367.733	14.17
367.944	59.22
368.155	5.97
368.366	73.56
368.577	89.94
368.788	57.17
368.999	-18.6
369.209	36.69
369.42	128.85
369.631	151.38
369.842	46.93
370.053	18.26
370.264	96.08
370.474	14.17
370.685	18.26
370.896	-8.36
371.107	112.47
371.317	32.6
371.528	28.5
371.739	79.7
371.95	32.6
372.16	59.22
372.371	-45.23
372.582	16.21
372.792	159.57
373.003	59.22
373.214	118.61
373.424	26.45
373.635	-2.22
373.846	155.47
374.056	-53.42
374.267	3.93
374.477	16.21
374.688	-24.75
374.898	143.19
375.109	-22.7
375.319	-28.84
375.53	44.88
375.74	8.02
375.951	-24.75
376.161	-32.94
376.372	81.75
376.582	44.88
376.793	110.42
377.003	-10.41
377.214	-37.03
377.424	132.95
377.635	-43.18
377.845	-47.27
378.055	79.7
378.266	-2.22
378.476	24.4
378.686	38.74
378.897	57.17
379.107	110.42
379.317	122.71
379.528	-53.42
379.738	94.04
379.948	-10.41
380.158	73.56
380.369	61.27
380.579	94.04
380.789	24.4
380.999	171.86
381.21	83.8
381.42	128.85
381.63	22.36
381.84	73.56
382.05	91.99
382.261	48.98
382.471	100.18
382.681	5.97
382.891	132.95
383.101	59.22
383.311	-4.27
383.521	-18.6
383.731	157.52
383.941	151.38
384.151	-16.55
384.361	3.93
384.571	85.84
384.781	106.32
384.991	233.3
385.201	126.8
385.411	32.6
385.621	42.84
385.831	32.6
386.041	61.27
386.251	73.56
386.461	73.56
386.671	8.02
386.881	26.45
387.091	-12.46
387.301	151.38
387.511	100.18
387.72	59.22
387.93	94.04
388.14	-39.08
388.35	10.07
388.56	44.88
388.769	102.23
388.979	36.69
389.189	10.07
389.399	48.98
389.609	77.65
389.818	57.17
390.028	57.17
390.238	73.56
390.447	-8.36
390.657	75.6
390.867	24.4
391.076	-123.05
391.286	67.41
391.496	22.36
391.705	44.88
391.915	48.98
392.125	112.47
392.334	18.26
392.544	173.91
392.753	14.17
392.963	-14.51
393.172	61.27
393.382	63.32
393.591	196.43
393.801	5.97
394.01	167.76
394.22	67.41
394.429	81.75
394.639	104.28
394.848	51.03
395.058	155.47
395.267	18.26
395.477	75.6
395.686	-8.36
395.895	167.76
396.105	178
396.314	110.42
396.524	10.07
396.733	34.64
396.942	85.84
397.152	94.04
397.361	143.19
397.57	96.08
397.78	69.46
397.989	67.41
398.198	175.95
398.407	-18.6
398.617	63.32
398.826	-4.27
399.035	-24.75
399.244	175.95
399.453	24.4
399.663	-18.6
399.872	-4.27
400.081	-14.51
400.29	112.47
400.499	-0.17
400.708	108.37
400.917	44.88
401.127	51.03
401.336	18.26
401.545	188.24
401.754	145.24
401.963	120.66
402.172	-14.51
402.381	3.93
402.59	-0.17
402.799	30.55
403.008	132.95
403.217	126.8
403.426	14.17
403.635	-84.14
403.844	5.97
404.053	-51.37
404.262	-2.22
404.471	202.58
404.68	106.32
404.888	89.94
405.097	-16.55
405.306	44.88
405.515	24.4
405.724	89.94
405.933	124.76
406.142	75.6
406.35	106.32
406.559	-18.6
406.768	83.8
406.977	116.56
407.185	83.8
407.394	40.79
407.603	12.12
407.812	122.71
408.02	165.71
408.229	24.4
408.438	34.64
408.646	-96.43
408.855	32.6
409.064	65.36
409.272	59.22
409.481	75.6
409.69	1.88
409.898	61.27
410.107	139.09
410.315	38.74
410.524	36.69
410.733	48.98
410.941	-2.22
411.15	26.45
411.358	10.07
411.567	141.14
411.775	73.56
411.984	18.26
412.192	73.56
412.401	18.26
412.609	155.47
412.818	153.43
413.026	71.51
413.234	59.22
413.443	22.36
413.651	-22.7
413.86	36.69
414.068	91.99
414.276	126.8
414.485	-10.41
414.693	202.58
414.901	178
415.11	55.12
415.318	71.51
415.526	69.46
415.734	81.75
415.943	65.36
416.151	110.42
416.359	10.07
416.567	85.84
416.776	89.94
416.984	118.61
417.192	184.15
417.4	-16.55
417.608	94.04
417.817	-2.22
418.025	81.75
418.233	141.14
418.441	-77.99
418.649	-90.28
418.857	79.7
419.065	184.15
419.273	-39.08
419.481	91.99
419.689	75.6
419.897	-39.08
420.105	1.88
420.313	69.46
420.521	145.24
420.729	102.23
420.937	-51.37
421.145	32.6
421.353	153.43
421.561	173.91
421.769	124.76
421.977	14.17
422.185	108.37
422.393	67.41
422.601	89.94
422.809	-16.55
423.017	75.6
423.224	81.75
423.432	57.17
423.64	44.88
423.848	44.88
424.056	-28.84
424.263	51.03
424.471	46.93
424.679	116.56
424.887	-57.51
425.094	139.09
425.302	94.04
425.51	89.94
425.718	120.66
425.925	81.75
426.133	-57.51
426.341	247.63
426.548	32.6
426.756	55.12
426.964	51.03
427.171	5.97
427.379	79.7
427.586	83.8
427.794	108.37
428.001	163.67
428.209	100.18
428.417	175.95
428.624	157.52
428.832	44.88
429.039	38.74
429.247	153.43
429.454	71.51
429.662	186.19
429.869	46.93
430.076	67.41
430.284	155.47
430.491	132.95
430.699	116.56
430.906	204.63
431.114	83.8
431.321	184.15
431.528	100.18
431.736	153.43
431.943	46.93
432.15	214.87
432.358	143.19
432.565	278.35
432.772	22.36
432.979	145.24
433.187	102.23
433.394	173.91
433.601	141.14
433.808	325.46
434.016	245.59
434.223	145.24
434.43	237.39
434.637	204.63
434.844	255.83
435.052	153.43
435.259	309.07
435.466	286.54
435.673	173.91
435.88	235.35
436.087	335.7
436.294	335.7
436.501	368.46
436.708	235.35
436.915	276.31
437.122	333.65
437.329	221.01
437.537	272.21
437.743	313.17
437.95	388.94
438.157	235.35
438.364	407.38
438.571	360.27
438.778	411.47
438.985	464.72
439.192	444.24
439.399	341.84
439.606	477.01
439.813	485.2
440.02	524.11
440.227	661.32
440.433	497.49
440.64	491.34
440.847	499.53
441.054	540.49
441.261	718.67
441.467	606.03
441.674	536.4
441.881	653.13
442.088	567.12
442.294	669.52
442.501	708.43
442.708	751.43
442.914	730.95
443.121	851.78
443.328	743.24
443.534	827.21
443.741	829.26
443.948	767.82
444.154	886.6
444.361	1070.92
444.568	950.09
444.774	964.42
444.981	921.42
445.187	1173.32
445.394	1146.69
445.6	991.05
445.807	1185.6
446.013	1191.75
446.22	1161.03
446.426	1130.31
446.633	1333.06
446.839	1492.8
447.046	1345.34
447.252	1523.52
447.459	1539.9
447.665	1621.82
447.871	1648.44
448.078	1828.67
448.284	1838.91
448.491	1767.23
448.697	1847.1
448.903	2150.2
449.11	2074.42
449.316	2021.17
449.522	2287.41
449.728	2225.97
449.935	2457.39
450.141	2428.72
450.347	2473.78
450.553	2477.87
450.76	2567.98
450.966	2852.65
451.172	2727.72
451.378	2842.41
451.584	2991.91
451.791	3274.53
451.997	3299.11
452.203	3290.92
452.409	3477.28
452.615	3583.77
452.821	3530.53
453.027	3620.64
453.233	4060.95
453.44	4050.71
453.646	4179.73
453.852	4216.6
454.058	4513.55
454.264	4607.76
454.47	5011.21
454.676	4933.39
454.882	5402.37
455.088	5220.1
455.294	5517.06
455.5	5857.02
455.705	6283
455.911	6250.23
456.117	6471.41
456.323	6721.26
456.529	6629.1
456.735	7227.11
456.941	7349.99
457.147	7714.53
457.352	7735.01
457.558	8179.42
457.764	8533.72
457.97	8941.26
458.176	9101
458.381	9529.03
458.587	9764.54
458.793	10372.79
458.999	10397.37
459.204	11445.93
459.41	11892.38
459.616	11876
459.821	12273.31
460.027	13010.57
460.233	13565.57
460.438	13622.92
460.644	14329.47
460.85	14755.44
461.055	15158.89
461.261	16041.57
461.466	15619.69
461.672	15836.77
461.878	17663.56
462.083	17530.44
462.289	17897.03
462.494	18622.01
462.7	18638.39
462.905	18908.72
463.111	20694.55
463.316	21540.36
463.522	21943.81
463.727	22541.82
463.932	23518.7
464.138	24344.03
464.343	25310.68
464.549	25597.39
464.754	27389.36
464.959	27968.94
465.165	28401.06
465.37	28171.69
465.575	28587.43
465.781	30334.34
465.986	31169.91
466.191	30985.6
466.397	31096.19
466.602	29918.6
466.807	31923.57
467.012	32431.46
467.218	33166.68
467.423	33086.81
467.628	34051.41
467.833	36105.52
468.038	34864.45
468.244	34702.66
468.449	36275.5
468.654	35796.28
468.859	35517.75
469.064	35575.09
469.269	34596.17
469.474	34719.04
469.679	36080.94
469.885	35016
470.09	35419.45
470.295	35532.09
470.5	35155.26
470.705	34919.74
470.91	34041.17
471.115	34094.41
471.32	34630.98
471.525	34463.05
471.73	33346.9
471.935	32972.13
472.139	31722.87
472.344	32050.54
472.549	31542.64
472.754	30858.62
472.959	30432.64
473.164	29425.04
473.369	29037.98
473.574	29654.42
473.778	29293.97
473.983	28628.38
474.188	28130.73
474.393	26691.01
474.598	26494.4
474.802	25990.6
475.007	25951.69
475.212	25683.41
475.417	24516.06
475.621	24253.92
475.826	24106.47
476.031	23496.17
476.235	23227.89
476.44	22838.78
476.645	22373.89
476.849	22138.37
477.054	21583.37
477.259	21380.62
477.463	21173.78
477.668	20780.57
477.872	20579.87
478.077	19951.14
478.282	19525.16
478.486	19375.66
478.691	18990.64
478.895	18884.15
479.1	18744.89
479.304	18544.19
479.509	18157.12
479.713	18359.87
479.918	17946.18
480.122	17438.28
480.326	17927.75
480.531	17411.66
480.735	17389.13
480.94	17012.31
481.144	17436.24
481.348	16830.04
481.553	16926.29
481.757	16590.42
481.961	16490.07
482.166	16698.97
482.37	16307.8
482.574	15949.41
482.778	16113.25
482.983	16248.41
483.187	15734.37
483.391	16027.23
483.595	15455.85
483.8	15531.62
484.004	15220.33
484.208	15390.31
484.412	15228.52
484.616	14706.29
484.821	14710.39
485.025	14474.87
485.229	14601.85
485.433	14435.96
485.637	14005.89
485.841	13940.35
486.045	13565.57
486.249	13815.43
486.453	13350.54
486.657	13084.3
486.861	12904.08
487.065	12390.04
487.269	12535.45
487.473	12009.12
487.677	12363.42
487.881	12099.23
488.085	11761.31
488.289	11558.56
488.493	11280.04
488.697	11503.27
488.901	11175.59
489.105	10811.06
489.309	10583.73
489.512	10634.93
489.716	10278.58
489.92	10075.84
490.124	10090.17
490.328	10081.98
490.531	9828.03
490.735	9539.27
490.939	9221.83
491.143	9166.54
491.346	9176.78
491.55	9058
491.754	8912.59
491.958	8576.72
492.161	8470.23
492.365	8402.65
492.569	8328.92
492.772	7962.33
492.976	7909.08
493.18	7923.42
493.383	7872.22
493.587	7673.57
493.79	7767.77
493.994	7331.56
494.197	7327.46
494.401	7317.22
494.605	7333.61
494.808	7067.37
495.012	7319.27
495.215	7173.86
495.419	7274.21
495.622	6917.87
495.825	7141.1
496.029	6860.52
496.232	7116.52
496.436	6842.09
496.639	7106.28
496.843	6899.44
497.046	6776.56
497.249	6950.64
497.453	6946.54
497.656	6995.69
497.859	6983.4
498.063	6952.68
498.266	6924.01
498.469	6887.15
498.673	6797.04
498.876	6932.2
499.079	6924.01
499.282	6856.43
499.485	7360.23
499.689	7198.44
499.892	7266.02
500.095	7261.93
500.298	7321.32
500.501	6938.35
500.705	7354.09
500.908	7409.38
501.111	7372.52
501.314	7640.8
501.517	7730.91
501.72	7845.6
501.923	7642.85
502.126	7966.43
502.329	7927.52
502.532	7933.66
502.735	8085.21
502.938	8201.94
503.141	8173.27
503.344	8238.81
503.547	8591.06
503.75	8517.33
503.953	8566.48
504.156	8672.98
504.359	8953.55
504.562	8986.32
504.765	9268.94
504.968	9303.75
505.17	9412.29
505.373	9649.86
505.576	9895.61
505.779	9924.29
505.982	9934.53
506.185	10325.69
506.387	10444.47
506.59	10884.78
506.793	10739.38
506.996	10884.78
507.198	11259.56
507.401	11542.18
507.604	11681.44
507.807	11855.52
508.009	12052.13
508.212	12451.48
508.415	12486.29
508.617	12652.18
508.82	13039.25
509.022	13262.47
509.225	13602.44
509.428	13753.99
509.63	14110.33
509.833	14083.71
510.035	14868.08
510.238	15101.55
510.44	15292.01
510.643	15568.49
510.845	16037.47
511.048	16260.7
511.25	16903.76
511.453	16928.34
511.655	17870.4
511.858	17858.12
512.06	18452.03
512.262	18724.41
512.465	18531.9
512.667	19400.24
512.87	19885.61
513.072	20092.45
513.274	21046.8
513.477	21050.9
513.679	21702.15
513.881	22312.45
514.084	22722.04
514.286	23266.8
514.488	23930.34
514.69	24620.51
514.893	24817.11
515.095	25494.99
515.297	25636.3
515.499	26404.29
515.701	26865.08
515.904	27942.31
516.106	28304.81
516.308	28507.55
516.51	29492.63
516.712	29371.8
516.914	30416.26
517.116	31333.75
517.318	31303.03
517.52	31722.87
517.722	32343.4
517.925	32978.27
518.127	34057.55
518.329	34860.35
518.531	34686.28
518.733	35568.95
518.935	35990.83
519.136	36799.78
519.338	37590.3
519.54	37893.4
519.742	38640.9
519.944	38645
520.146	39931.12
520.348	40258.8
520.55	40533.23
520.752	41022.69
520.954	41927.89
521.155	41581.79
521.357	42908.87
521.559	42869.96
521.761	43957.43
521.963	44166.32
522.164	44514.48
522.366	44766.38
522.568	45190.31
522.77	45425.82
522.971	46187.67
523.173	46214.29
523.375	46548.11
523.576	46513.3
523.778	46728.33
523.98	47342.72
524.181	47606.91
524.383	47232.13
524.584	47895.67
524.786	47723.65
524.988	47563.9
525.189	48292.98
525.391	48518.26
525.592	48465.01
525.794	48209.01
525.995	48268.4
526.197	48071.8
526.398	48061.56
526.6	48471.15
526.801	48419.95
527.003	48249.97
527.204	47418.5
527.406	48151.67
527.607	47703.17
527.808	47611.01
528.01	46668.94
528.211	46474.38
528.412	46996.62
528.614	46668.94
528.815	45798.55
529.016	46709.9
529.218	45110.44
529.419	45229.22
529.62	44784.81
529.822	44428.46
530.023	43601.08
530.224	43463.87
530.425	43085
530.626	42607.82
530.828	41983.19
531.029	42390.73
531.23	41663.71
531.431	40795.37
531.632	40781.03
531.833	39980.28
532.035	39795.96
532.236	39097.6
532.437	39218.43
532.638	38444.3
532.839	38126.86
533.04	37655.83
533.241	36648.23
533.442	36936.99
533.643	36420.91
533.844	35568.95
534.045	35542.33
534.246	34870.59
534.447	34106.7
534.648	33703.25
534.849	33482.07
535.05	32656.74
535.251	32656.74
535.451	31927.66
535.652	32030.06
535.853	31141.24
536.054	30924.16
536.255	30721.41
536.456	29898.13
536.657	30078.35
536.857	29169.05
537.058	28970.4
537.259	28229.03
537.46	27973.03
537.66	27700.65
537.861	27274.68
538.062	26834.36
538.263	26830.27
538.463	26113.48
538.664	25937.35
538.865	25585.1
539.065	25558.48
539.266	24923.61
539.466	24874.46
539.667	24487.39
539.868	24268.26
540.068	23778.79
540.269	23131.64
540.469	23293.43
540.67	23223.79
540.87	22713.85
541.071	22588.92
541.271	22275.59
541.472	21739.02
541.672	21589.52
541.873	21468.69
542.073	21128.72
542.274	21038.61
542.474	20907.54
542.675	20536.86
542.875	20510.24
543.075	19820.07
543.276	19703.34
543.476	19828.26
543.676	19213.87
543.877	19416.62
544.077	19013.17
544.277	18714.17
544.478	18374.2
544.678	18196.03
544.878	17993.28
545.078	18067.01
545.279	17673.8
545.479	17339.98
545.679	17376.84
545.879	17018.45
546.079	16977.49
546.28	16852.56
546.48	16457.31
546.68	16373.34
546.88	16461.4
547.08	16107.1
547.28	15867.49
547.48	15580.78
547.68	15361.64
547.88	15257.2
548.081	14952.05
548.281	14661.24
548.481	14456.44
548.681	14696.05
548.881	14374.52
549.081	14081.66
549.28	13936.26
549.48	13690.5
549.68	13639.3
549.88	13424.26
550.08	13039.25
550.28	12904.08
550.48	12893.84
550.68	12983.95
550.88	12625.56
551.08	12471.96
551.279	12119.71
551.479	11949.73
551.679	12066.46
551.879	11663.01
552.079	11542.18
552.278	11204.27
552.478	11124.4
552.678	11065
552.878	10854.06
553.077	10522.29
553.277	10370.74
553.477	10593.97
553.676	10311.35
553.876	10000.06
554.076	9791.17
554.275	9891.52
554.475	9633.47
554.674	9578.18
554.874	9256.65
555.074	8957.64
555.273	9072.33
555.473	8857.29
555.672	8541.91
555.872	8564.43
556.071	8486.61
556.271	8402.65
556.47	7939.8
556.67	7911.13
556.869	7786.21
557.068	7888.6
557.268	7714.53
557.467	7456.48
557.667	7349.99
557.866	7347.94
558.065	7149.29
558.265	7100.14
558.464	6784.75
558.663	7065.32
558.863	6668.02
559.062	6655.73
559.261	6379.25
559.461	6573.81
559.66	6192.89
559.859	6307.57
560.058	6047.48
560.258	5945.08
560.457	5897.98
560.656	5914.36
560.855	5607.17
561.054	5703.42
561.253	5650.18
561.453	5457.67
561.652	5385.99
561.851	5453.57
562.05	5052.17
562.249	5007.11
562.448	5156.61
562.647	4992.78
562.846	5013.26
563.045	4994.83
563.244	4747.02
563.443	4878.09
563.642	4544.27
563.841	4531.98
564.04	4615.95
564.239	4534.03
564.438	4269.84
564.637	4183.83
564.836	4341.52
565.035	4185.88
565.234	4032.28
565.432	4019.99
565.631	4071.19
565.83	4077.34
566.029	3860.25
566.228	3866.39
566.427	3899.16
566.625	3647.26
566.824	3471.14
567.023	3561.25
567.222	3565.34
567.42	3602.21
567.619	3569.44
567.818	3393.31
568.016	3546.91
568.215	3292.96
568.414	3331.87
568.612	3245.86
568.811	3180.32
569.01	3217.19
569.208	3165.99
569.407	3067.69
569.605	3174.18
569.804	3022.63
570.002	2875.18
570.201	2912.04
570.4	2764.59
570.598	2697
570.797	2680.62
570.995	2608.94
571.193	2502.45
571.392	2498.35
571.59	2443.06
571.789	2543.41
571.987	2619.18
572.186	2498.35
572.384	2371.38
572.582	2416.43
572.781	2549.55
572.979	2201.4
573.177	2305.84
573.376	2324.27
573.574	2240.31
573.772	2193.2
573.971	1900.34
574.169	1982.26
574.367	2152.24
574.565	2160.44
574.763	2060.09
574.962	1902.39
575.16	1978.17
575.358	2045.75
575.556	1869.62
575.754	1709.88
575.952	1746.75
576.151	1904.44
576.349	1810.23
576.547	1609.53
576.745	1781.56
576.943	1720.12
577.141	1656.64
577.339	1548.09
577.537	1675.07
577.735	1570.62
577.933	1689.4
578.131	1513.28
578.329	1640.25
578.527	1376.06
578.725	1533.76
578.923	1331.01
579.121	1464.13
579.319	1247.04
579.516	1251.14
579.714	1537.85
579.912	1371.97
580.11	1292.1
580.308	1285.95
580.506	1257.28
580.704	1206.08
580.901	1281.86
581.099	1226.56
581.297	1181.51
581.495	1101.64
581.692	1085.25
581.89	1232.71
582.088	1113.92
582.285	1095.49
582.483	1099.59
582.681	1040.2
582.878	1075.01
583.076	1003.33
583.274	1124.16
583.471	1191.75
583.669	894.79
583.866	948.04
584.064	913.22
584.262	874.31
584.459	888.65
584.657	1023.81
584.854	972.61
585.052	997.19
585.249	1015.62
585.447	999.24
585.644	790.35
585.841	982.85
586.039	962.37
586.236	956.23
586.434	810.82
586.631	778.06
586.828	694.09
587.026	876.36
587.223	677.71
587.42	743.24
587.618	755.53
587.815	900.94
588.012	737.1
588.21	657.23
588.407	733
588.604	771.91
588.801	669.52
588.999	667.47
589.196	708.43
589.393	667.47
589.59	714.57
589.787	589.64
589.984	659.28
590.182	724.81
590.379	626.51
590.576	597.84
590.773	687.95
590.97	581.45
591.167	679.75
591.364	761.67
591.561	585.55
591.758	767.82
591.955	737.1
592.152	681.8
592.349	661.32
592.546	520.01
592.743	603.98
592.94	589.64
593.137	716.62
593.334	698.19
593.531	655.18
593.727	626.51
593.924	681.8
594.121	669.52
594.318	685.9
594.515	661.32
594.712	735.05
594.908	767.82
595.105	563.02
595.302	687.95
595.499	710.47
595.696	765.77
595.892	544.59
596.089	831.3
596.286	739.15
596.482	849.74
596.679	788.3
596.876	771.91
597.072	831.3
597.269	829.26
597.466	747.34
597.662	792.39
597.859	847.69
598.055	880.46
598.252	909.13
598.448	898.89
598.645	1025.86
598.841	1105.73
599.038	1089.35
599.234	1124.16
599.431	1115.97
599.627	1240.9
599.824	1197.89
600.02	1265.47
600.217	1181.51
600.413	1345.34
600.609	1300.29
600.806	1640.25
601.002	1529.66
601.198	1445.7
601.395	1759.03
601.591	1765.18
601.787	1783.61
601.984	1843
602.18	1879.86
602.376	1955.64
602.572	2015.03
602.769	2178.87
602.965	2168.63
603.161	2342.71
603.357	2393.9
603.553	2463.54
603.75	2465.58
603.946	2426.67
604.142	2582.32
604.338	2836.27
604.534	2856.75
604.73	2889.51
604.926	2979.62
605.122	3147.56
605.318	3311.39
605.514	3399.46
605.71	3440.42
605.906	3634.97
606.102	3516.19
606.298	3692.32
606.494	3921.69
606.69	4112.15
606.886	4011.8
607.082	4237.08
607.278	4245.27
607.474	4396.82
607.67	4632.33
607.866	4618
608.062	4863.76
608.257	5007.11
608.453	5080.84
608.649	5115.66
608.845	5179.14
609.041	5533.44
609.236	5582.59
609.432	5666.56
609.628	6031.1
609.824	6156.02
610.019	6129.4
610.215	6414.07
610.411	6633.2
610.606	6670.06
610.802	6940.4
610.998	7085.8
611.193	7354.09
611.389	7556.83
611.584	7644.9
611.78	7902.94
611.976	7870.17
612.171	8513.24
612.367	8498.9
612.562	8668.88
612.758	8836.81
612.953	8896.21
613.149	9330.37
613.344	9463.49
613.539	9979.58
613.735	10262.2
613.93	10436.28
614.126	10438.33
614.321	10837.68
614.517	11095.72
614.712	11478.69
614.907	11656.87
615.103	12195.48
615.298	12369.56
615.493	12568.21
615.688	12816.02
615.884	13311.63
616.079	13596.29
616.274	14081.66
616.47	14079.61
616.665	14642.81
616.86	14825.08
617.055	15222.38
617.25	15769.19
617.445	16029.28
617.641	16250.46
617.836	16963.15
618.031	17020.5
618.226	17759.81
618.421	18013.76
618.616	18509.37
618.811	18671.16
619.006	19662.38
619.201	19684.9
619.396	20330.02
619.591	19897.89
619.786	21419.53
619.981	21433.87
620.176	22121.99
620.371	22347.26
620.566	22719.99
620.761	23369.2
620.956	24157.67
621.151	23954.92
621.346	24954.33
621.541	24780.25
621.735	25931.21
621.93	26009.03
622.125	26344.9
622.32	26430.91
622.515	27577.78
622.709	27997.61
622.904	28497.31
623.099	28986.78
623.294	29529.49
623.488	29838.73
623.683	30334.34
623.878	30535.04
624.072	31475.06
624.267	31772.02
624.462	32347.5
624.656	32675.17
624.851	33310.04
625.046	33576.28
625.24	34280.78
625.435	34547.01
625.629	35257.66
625.824	35480.89
626.018	35892.53
626.213	35722.55
626.407	36637.99
626.602	36734.24
626.796	37463.32
626.991	37924.11
627.185	38090
627.38	38139.15
627.574	38397.2
627.768	38524.17
627.963	39054.59
628.157	38755.59
628.352	39279.87
628.546	38708.49
628.74	39531.77
628.935	38876.42
629.129	38771.97
629.323	38405.39
629.517	38581.51
629.712	38165.77
629.906	37928.21
630.1	37315.87
630.294	37649.69
630.489	36658.47
630.683	36619.56
630.877	35646.77
631.071	35439.93
631.265	34608.45
631.459	33955.15
631.653	33291.61
631.848	32595.3
632.042	31894.89
632.236	30977.4
632.43	30037.39
632.624	29617.55
632.818	28415.4
633.012	27415.99
633.206	26451.39
633.4	26228.17
633.594	25118.17
633.788	24184.29
633.982	23612.91
634.176	22558.21
634.369	21528.08
634.563	20876.82
634.757	20002.34
634.951	19252.78
635.145	18726.46
635.339	18085.44
635.533	17075.79
635.726	16694.87
635.92	15599.21
636.114	14943.86
636.308	14386.81
636.501	13958.78
636.695	13389.45
636.889	12691.09
637.083	12211.87
637.276	12013.21
637.47	11191.98
637.664	10899.12
637.857	10352.31
638.051	10043.07
638.244	9641.67
638.438	9279.18
638.632	8928.97
638.825	8304.34
639.019	8187.61
639.212	7644.9
639.406	7771.87
639.599	7245.54
639.793	6893.29
639.986	6620.91
640.18	6434.55
640.373	6194.93
640.567	6006.52
640.76	5762.81
640.954	5551.87
641.147	5285.64
641.34	4892.43
641.534	4978.44
641.727	4830.99
641.92	4419.35
642.114	4409.11
642.307	4181.78
642.5	3997.46
642.694	3817.24
642.887	3686.17
643.08	3630.88
643.273	3573.53
643.467	3313.44
643.66	3096.36
643.853	3055.4
644.046	3002.15
644.239	2869.03
644.432	2672.43
644.626	2422.58
644.819	2570.03
645.012	2502.45
645.205	2277.17
645.398	2361.14
645.591	2215.73
645.784	2062.13
645.977	1820.47
646.17	1990.45
646.363	1783.61
646.556	1787.71
646.749	1627.96
646.942	1558.33
647.135	1638.2
647.328	1519.42
647.521	1570.62
647.714	1417.02
647.907	1378.11
648.099	1292.1
648.292	1234.75
648.485	1337.15
648.678	1138.5
648.871	1015.62
649.064	1161.03
649.256	962.37
649.449	935.75
649.642	911.18
649.835	847.69
650.027	866.12
650.22	933.7
650.413	845.64
650.605	792.39
650.798	773.96
650.991	726.86
651.183	841.54
651.376	802.63
651.568	718.67
651.761	606.03
651.954	634.7
652.146	552.78
652.339	696.14
652.531	642.89
652.724	505.68
652.916	581.45
653.109	520.01
653.301	472.91
653.494	563.02
653.686	456.53
653.879	579.4
654.071	563.02
654.263	405.33
654.456	462.67
654.648	546.64
654.84	503.63
655.033	374.61
655.225	493.39
655.417	325.46
655.61	544.59
655.802	384.85
655.994	448.33
656.186	259.92
656.379	405.33
656.571	329.55
656.763	339.79
656.955	302.93
657.148	335.7
657.34	319.31
657.532	327.5
657.724	292.69
657.916	218.96
658.108	317.26
658.3	268.11
658.492	300.88
658.684	251.73
658.876	323.41
659.068	237.39
659.26	135
659.452	175.95
659.644	218.96
659.836	333.65
660.028	218.96
660.22	167.76
660.412	202.58
660.604	218.96
660.796	247.63
660.988	216.91
661.18	261.97
661.372	241.49
661.563	149.33
661.755	292.69
661.947	147.28
662.139	87.89
662.331	218.96
662.522	182.1
662.714	137.04
662.906	126.8
663.097	186.19
663.289	130.9
663.481	22.36
663.673	182.1
663.864	124.76
664.056	145.24
664.247	186.19
664.439	229.2
664.631	231.25
664.822	204.63
665.014	104.28
665.205	143.19
665.397	180.05
665.588	147.28
665.78	139.09
665.971	274.26
666.163	130.9
666.354	163.67
666.546	75.6
666.737	139.09
666.929	112.47
667.12	98.13
667.311	153.43
667.503	147.28
667.694	186.19
667.885	214.87
668.077	180.05
668.268	69.46
668.459	67.41
668.651	159.57
668.842	149.33
669.033	75.6
669.224	96.08
669.416	304.98
669.607	73.56
669.798	91.99
669.989	223.06
670.18	157.52
670.371	159.57
670.563	-69.8
670.754	231.25
670.945	178
671.136	186.19
671.327	112.47
671.518	118.61
671.709	294.74
671.9	165.71
672.091	194.39
672.282	89.94
672.473	171.86
672.664	137.04
672.855	124.76
673.046	233.3
673.237	175.95
673.428	110.42
673.619	202.58
673.809	94.04
674	235.35
674.191	128.85
674.382	135
674.573	126.8
674.764	135
674.954	216.91
675.145	53.08
675.336	130.9
675.527	98.13
675.717	122.71
675.908	124.76
676.099	16.21
676.289	94.04
676.48	-65.71
676.671	126.8
676.861	77.65
677.052	212.82
677.243	186.19
677.433	89.94
677.624	204.63
677.814	100.18
678.005	120.66
678.195	282.45
678.386	32.6
678.576	135
678.767	65.36
678.957	120.66
679.148	257.87
679.338	255.83
679.529	200.53
679.719	-10.41
679.909	216.91
680.1	161.62
680.29	243.54
680.481	34.64
680.671	233.3
680.861	233.3
681.052	122.71
681.242	180.05
681.432	147.28
681.622	167.76
681.813	94.04
682.003	163.67
682.193	155.47
682.383	180.05
682.573	184.15
682.764	100.18
682.954	192.34
683.144	206.67
683.334	163.67
683.524	178
683.714	239.44
683.904	206.67
684.094	184.15
684.284	184.15
684.474	354.13
684.664	231.25
684.854	188.24
685.044	130.9
685.234	126.8
685.424	249.68
685.614	190.29
685.804	309.07
685.994	227.15
686.184	194.39
686.374	196.43
686.564	130.9
686.753	178
686.943	130.9
687.133	155.47
687.323	161.62
687.513	216.91
687.702	208.72
687.892	221.01
688.082	264.02
688.272	266.07
688.461	223.06
688.651	333.65
688.841	214.87
689.03	192.34
689.22	214.87
689.41	288.59
689.599	233.3
689.789	116.56
689.979	259.92
690.168	200.53
690.358	255.83
690.547	194.39
690.737	249.68
690.926	87.89
691.116	239.44
691.305	251.73
691.495	190.29
691.684	163.67
691.874	182.1
692.063	163.67
692.252	137.04
692.442	255.83
692.631	139.09
692.82	108.37
693.01	157.52
693.199	192.34
693.388	212.82
693.578	167.76
693.767	218.96
693.956	327.5
694.146	210.77
694.335	200.53
694.524	175.95
694.713	286.54
694.902	126.8
695.092	87.89
695.281	210.77
695.47	239.44
695.659	178
695.848	192.34
696.037	65.36
696.226	198.48
696.415	192.34
696.604	282.45
696.793	216.91
696.982	180.05
697.171	343.89
697.36	153.43
697.549	259.92
697.738	153.43
697.927	206.67
698.116	40.79
698.305	151.38
698.494	196.43
698.683	173.91
698.872	286.54
699.061	169.81
699.25	249.68
699.438	155.47
699.627	85.84
699.816	311.12
700.005	38.74
700.193	124.76
700.382	272.21
700.571	218.96
700.76	163.67
700.948	257.87
701.137	302.93
701.326	245.59
701.514	178
701.703	206.67
701.892	284.5
702.08	397.14
702.269	77.65
702.457	126.8
702.646	251.73
702.834	85.84
703.023	126.8
703.212	257.87
703.4	171.86
703.589	98.13
703.777	180.05
703.965	89.94
704.154	145.24
704.342	69.46
704.531	118.61
704.719	128.85
704.907	218.96
705.096	94.04
705.284	116.56
705.472	153.43
705.661	130.9
705.849	255.83
706.037	304.98
706.226	153.43
706.414	221.01
706.602	173.91
706.79	147.28
706.979	143.19
707.167	204.63
707.355	-43.18
707.543	274.26
707.731	204.63
707.919	173.91
708.107	159.57
708.296	143.19
708.484	96.08
708.672	196.43
708.86	212.82
709.048	135
709.236	231.25
709.424	163.67
709.612	237.39
709.8	73.56
709.988	91.99
710.176	204.63
710.364	208.72
710.551	161.62
710.739	128.85
710.927	100.18
711.115	178
711.303	227.15
711.491	206.67
711.679	139.09
711.866	214.87
712.054	198.48
712.242	221.01
712.43	264.02
712.617	87.89
712.805	292.69
712.993	137.04
713.181	110.42
713.368	165.71
713.556	190.29
713.744	202.58
713.931	345.94
714.119	216.91
714.306	71.51
714.494	91.99
714.682	157.52
714.869	77.65
715.057	100.18
715.244	161.62
715.432	171.86
715.619	208.72
715.807	153.43
715.994	141.14
716.182	163.67
716.369	184.15
716.556	259.92
716.744	28.5
716.931	135
717.119	253.78
717.306	171.86
717.493	245.59
717.681	151.38
717.868	180.05
718.055	259.92
718.242	198.48
718.43	261.97
718.617	221.01
718.804	171.86
718.991	343.89
719.179	112.47
719.366	178
719.553	241.49
719.74	157.52
719.927	102.23
720.114	130.9
720.301	163.67
720.488	81.75
720.676	89.94
720.863	288.59
721.05	286.54
721.237	214.87
721.424	173.91
721.611	200.53
721.798	175.95
721.985	194.39
722.172	194.39
722.358	245.59
722.545	245.59
722.732	171.86
722.919	208.72
723.106	266.07
723.293	165.71
723.48	206.67
723.667	132.95
723.853	307.02
724.04	249.68
724.227	223.06
724.414	192.34
724.6	268.11
724.787	276.31
724.974	319.31
725.161	135
725.347	149.33
725.534	253.78
725.72	237.39
725.907	247.63
726.094	225.11
726.28	216.91
726.467	182.1
726.653	206.67
726.84	274.26
727.027	374.61
727.213	184.15
727.4	270.16
727.586	169.81
727.773	239.44
727.959	167.76
728.145	247.63
728.332	196.43
728.518	286.54
728.705	245.59
728.891	218.96
729.077	264.02
729.264	104.28
729.45	128.85
729.636	333.65
729.823	221.01
730.009	325.46
730.195	145.24
730.382	307.02
730.568	216.91
730.754	196.43
730.94	141.14
731.126	194.39
731.313	362.32
731.499	227.15
731.685	229.2
731.871	288.59
732.057	255.83
732.243	284.5
732.429	202.58
732.615	319.31
732.801	204.63
732.987	198.48
733.173	251.73
733.359	204.63
733.545	135
733.731	159.57
733.917	247.63
734.103	206.67
734.289	241.49
734.475	200.53
734.661	382.8
734.847	311.12
735.033	333.65
735.219	309.07
735.404	196.43
735.59	141.14
735.776	214.87
735.962	255.83
736.148	264.02
736.333	386.9
736.519	163.67
736.705	223.06
736.89	333.65
737.076	298.83
737.262	216.91
737.447	135
737.633	194.39
737.819	278.35
738.004	233.3
738.19	212.82
738.375	292.69
738.561	286.54
738.747	178
738.932	135
739.118	405.33
739.303	319.31
739.489	319.31
739.674	235.35
739.859	196.43
740.045	360.27
740.23	227.15
740.416	85.84
740.601	266.07
740.786	264.02
740.972	173.91
741.157	194.39
741.342	106.32
741.528	175.95
741.713	253.78
741.898	206.67
742.084	221.01
742.269	169.81
742.454	290.64
742.639	315.22
742.824	204.63
743.01	370.51
743.195	290.64
743.38	178
743.565	212.82
743.75	245.59
743.935	292.69
744.12	296.78
744.305	87.89
744.49	171.86
744.675	255.83
744.86	247.63
745.045	202.58
745.23	235.35
745.415	231.25
745.6	204.63
745.785	161.62
745.97	300.88
746.155	286.54
746.34	345.94
746.525	186.19
746.71	247.63
746.895	130.9
747.079	112.47
747.264	204.63
747.449	233.3
747.634	251.73
747.819	249.68
748.003	210.77
748.188	175.95
748.373	288.59
748.557	278.35
748.742	192.34
748.927	182.1
749.111	196.43
749.296	108.37
749.481	251.73
749.665	229.2
749.85	114.52
750.034	247.63
750.219	233.3
750.404	159.57
750.588	188.24
750.773	124.76
750.957	182.1
751.141	178
751.326	294.74
751.51	59.22
751.695	132.95
751.879	178
752.064	251.73
752.248	184.15
752.432	264.02
752.617	223.06
752.801	204.63
752.985	159.57
753.17	276.31
753.354	190.29
753.538	190.29
753.722	51.03
753.907	87.89
754.091	69.46
754.275	253.78
754.459	83.8
754.643	100.18
754.828	161.62
755.012	173.91
755.196	100.18
755.38	223.06
755.564	108.37
755.748	188.24
755.932	159.57
756.116	175.95
756.3	139.09
756.484	153.43
756.668	167.76
756.852	42.84
757.036	63.32
757.22	122.71
757.404	53.08
757.588	106.32
757.772	159.57
757.956	128.85
758.14	180.05
758.323	102.23
758.507	218.96
758.691	110.42
758.875	223.06
759.059	212.82
759.242	106.32
759.426	110.42
759.61	94.04
759.794	94.04
759.977	143.19
760.161	378.7
760.345	173.91
760.528	139.09
760.712	122.71
760.895	155.47
761.079	143.19
761.263	-4.27
761.446	94.04
761.63	96.08
761.813	182.1
761.997	48.98
762.18	102.23
762.364	167.76
762.547	18.26
762.731	-22.7
762.914	110.42
763.098	32.6
763.281	102.23
763.464	112.47
763.648	149.33
763.831	83.8
764.015	34.64
764.198	104.28
764.381	120.66
764.564	14.17
764.748	61.27
764.931	55.12
765.114	94.04
765.297	143.19
765.481	59.22
765.664	81.75
765.847	91.99
766.03	157.52
766.213	-4.27
766.397	75.6
766.58	-53.42
766.763	132.95
766.946	83.8
767.129	126.8
767.312	-4.27
767.495	81.75
767.678	63.32
767.861	75.6
768.044	89.94
768.227	-47.27
768.41	87.89
768.593	100.18
768.776	53.08
768.959	42.84
769.142	135
769.324	46.93
769.507	61.27
769.69	87.89
769.873	65.36
770.056	245.59
770.239	26.45
770.421	106.32
770.604	96.08
770.787	48.98
770.97	106.32
771.152	18.26
771.335	122.71
771.518	-55.47
771.7	212.82
771.883	157.52
772.066	8.02
772.248	-8.36
772.431	206.67
772.613	180.05
772.796	102.23
772.978	44.88
773.161	206.67
773.343	-8.36
773.526	91.99
773.708	-26.79
773.891	12.12
774.073	-14.51
774.256	10.07
774.438	153.43
774.621	48.98
774.803	71.51
774.985	8.02
775.168	71.51
775.35	30.55
775.532	85.84
775.715	-59.56
775.897	18.26
776.079	57.17
776.261	128.85
776.444	-2.22
776.626	91.99
776.808	38.74
776.99	12.12
777.173	65.36
777.355	79.7
777.537	59.22
777.719	63.32
777.901	22.36
778.083	14.17
778.265	-41.13
778.447	75.6
778.629	22.36
778.811	65.36
778.993	118.61
779.175	104.28
779.357	73.56
779.539	-30.89
779.721	75.6
779.903	44.88
780.085	34.64
780.267	26.45
780.449	106.32
780.631	147.28
780.812	73.56
780.994	-4.27
781.176	36.69
781.358	-18.6
781.54	-2.22
781.721	63.32
781.903	130.9
782.085	-10.41
782.267	104.28
782.448	16.21
782.63	-75.95
782.812	75.6
782.993	91.99
783.175	57.17
783.357	28.5
783.538	57.17
783.72	-57.51
783.901	36.69
784.083	96.08
784.264	55.12
784.446	-106.67
784.627	5.97
784.809	55.12
784.99	-6.31
785.172	102.23
785.353	-8.36
785.535	81.75
785.716	16.21
785.897	-88.23
786.079	38.74
786.26	69.46
786.441	102.23
786.623	-57.51
786.804	-53.42
786.985	-8.36
787.167	-2.22
787.348	42.84
787.529	-6.31
787.71	79.7
787.891	10.07
788.073	51.03
788.254	-2.22
788.435	87.89
788.616	67.41
788.797	5.97
788.978	-0.17
789.159	-16.55
789.34	40.79
789.522	59.22
789.703	-43.18
789.884	42.84
790.065	63.32
790.246	145.24
790.427	24.4
790.607	94.04
790.788	91.99
790.969	-20.65
791.15	-22.7
791.331	-37.03
791.512	20.31
791.693	-34.99
791.874	18.26
792.054	239.44
792.235	106.32
792.416	-41.13
792.597	-96.43
792.778	59.22
792.958	81.75
793.139	-39.08
793.32	51.03
793.5	-39.08
793.681	55.12
793.862	46.93
794.042	32.6
794.223	-10.41
794.404	-16.55
794.584	-45.23
794.765	1.88
794.945	-16.55
795.126	165.71
795.306	98.13
795.487	-80.04
795.667	24.4
795.848	24.4
796.028	-4.27
796.209	85.84
796.389	120.66
796.57	75.6
796.75	-32.94
796.93	38.74
797.111	-2.22
797.291	-53.42
797.471	83.8
797.652	-22.7
797.832	-88.23
798.012	14.17
798.192	14.17
798.373	-55.47
798.553	-45.23
798.733	106.32
798.913	-6.31
799.093	-110.76
799.274	10.07
799.454	-0.17
799.634	48.98
799.814	10.07
799.994	40.79
800.174	5.97
800.354	24.4
800.534	-55.47
800.714	65.36
800.894	-6.31
801.074	-145.58
801.254	-39.08
801.434	120.66
801.614	-30.89
801.794	-80.04
801.974	1838.91
802.154	-6.31
802.334	153.43
802.514	-94.38
802.693	24.4
802.873	-18.6
803.053	132.95
803.233	28.5
803.413	61.27
803.592	-47.27
803.772	-10.41
803.952	-16.55
804.131	-16.55
804.311	59.22
804.491	81.75
804.67	16.21
804.85	3.93
805.03	71.51
805.209	51.03
805.389	-43.18
805.568	-55.47
805.748	-2.22
805.928	-47.27
806.107	69.46
806.287	-18.6
806.466	59.22
806.646	-55.47
806.825	59.22
807.004	-34.99
807.184	30.55
807.363	22.36
807.543	18.26
807.722	-77.99
807.901	77.65
808.081	55.12
808.26	-178.34
808.439	48.98
808.619	34.64
808.798	-59.56
808.977	67.41
809.156	34.64
809.336	8.02
809.515	46.93
809.694	-65.71
809.873	-6.31
810.052	12.12
810.231	67.41
810.411	36.69
810.59	63.32
810.769	10.07
810.948	96.08
811.127	-90.28
811.306	-51.37
811.485	10.07
811.664	98.13
811.843	-34.99
812.022	-47.27
812.201	-41.13
812.38	-2.22
812.559	-118.95
812.737	34.64
812.916	-178.34
813.095	-51.37
813.274	-37.03
813.453	-12.46
813.632	57.17
813.811	112.47
813.989	-104.62
814.168	51.03
814.347	-37.03
814.526	-37.03
814.704	63.32
814.883	120.66
815.062	-80.04
815.24	71.51
815.419	-73.9
815.598	20.31
815.776	-86.19
815.955	-16.55
816.133	-69.8
816.312	-6.31
816.49	-34.99
816.669	-24.75
816.847	-49.32
817.026	48.98
817.204	14.17
817.383	67.41
817.561	-47.27
817.74	-32.94
817.918	63.32
818.097	-45.23
818.275	-63.66
818.453	30.55
818.632	42.84
818.81	-49.32
818.988	-47.27
819.167	-67.75
819.345	-28.84
819.523	-129.19
819.701	-39.08
819.879	24.4
820.058	22.36
820.236	-47.27
820.414	-92.33
820.592	-59.56
820.77	-59.56
820.948	-37.03
821.127	-88.23
821.305	30.55
821.483	-61.61
821.661	59.22
821.839	-22.7
822.017	-129.19
822.195	-47.27
822.373	100.18
822.551	-22.7
822.729	-32.94
822.907	26.45
823.085	28.5
823.262	-6.31
823.44	-43.18
823.618	-30.89
823.796	59.22
823.974	-69.8
824.152	-90.28
824.329	-61.61
824.507	-37.03
824.685	3.93
824.863	24.4
825.04	40.79
825.218	67.41
825.396	38.74
825.574	18.26
825.751	32.6
825.929	55.12
826.107	-92.33
826.284	79.7
826.462	-16.55
826.639	3.93
826.817	-123.05
826.994	-49.32
827.172	-110.76
827.349	28.5
827.527	20.31
827.704	-47.27
827.882	71.51
828.059	-16.55
828.237	-145.58
828.414	122.71
828.591	-131.24
828.769	18.26
828.946	-51.37
829.124	114.52
829.301	53.08
829.478	18.26
829.655	-8.36
829.833	-41.13
830.01	-104.62
830.187	-41.13
830.364	-20.65
830.542	-18.6
830.719	130.9
830.896	26.45
831.073	73.56
831.25	42.84
831.427	-24.75
831.604	-4.27
831.782	-39.08
831.959	42.84
832.136	16.21
832.313	46.93
832.49	-0.17
832.667	-6.31
832.844	-77.99
833.021	100.18
833.198	26.45
833.374	-43.18
833.551	34.64
833.728	-39.08
833.905	139.09
834.082	-184.49
834.259	38.74
834.436	59.22
834.612	-6.31
834.789	12.12
834.966	-51.37
835.143	-30.89
835.319	-6.31
835.496	5.97
835.673	48.98
835.85	120.66
836.026	-43.18
836.203	130.9
836.38	-84.14
836.556	-41.13
836.733	-121
836.909	137.04
837.086	8.02
837.262	-141.48
837.439	-77.99
837.616	-55.47
837.792	-69.8
837.968	-45.23
838.145	-200.87
838.321	-26.79
838.498	-26.79
838.674	-2.22
838.851	8.02
839.027	-51.37
839.203	3.93
839.38	67.41
839.556	-0.17
839.732	44.88
839.909	-100.52
840.085	79.7
840.261	-49.32
840.437	59.22
840.614	-22.7
840.79	-26.79
840.966	-12.46
841.142	30.55
841.318	-61.61
841.494	63.32
841.671	83.8
841.847	-45.23
842.023	-157.86
842.199	-10.41
842.375	120.66
842.551	-112.81
842.727	-75.95
842.903	96.08
843.079	-39.08
843.255	79.7
843.431	-41.13
843.607	-43.18
843.783	-143.53
843.959	-22.7
844.134	-100.52
844.31	34.64
844.486	-34.99
844.662	-37.03
844.838	-22.7
845.013	28.5
845.189	18.26
845.365	46.93
845.541	-28.84
845.716	-22.7
845.892	44.88
846.068	-34.99
846.244	-90.28
846.419	57.17
846.595	-149.67
846.77	-47.27
846.946	71.51
847.122	-77.99
847.297	-47.27
847.473	98.13
847.648	-114.86
847.824	-8.36
847.999	-80.04
848.175	63.32
848.35	48.98
848.526	55.12
848.701	108.37
848.876	-37.03
849.052	48.98
849.227	10.07
849.403	24.4
849.578	5.97
849.753	36.69
849.929	-53.42
850.104	-86.19
850.279	-4.27
850.454	30.55
850.63	-45.23
850.805	-18.6
850.98	-32.94
851.155	-49.32
851.33	-41.13
851.505	-114.86
851.681	79.7
851.856	-114.86
852.031	-34.99
852.206	-20.65
852.381	-51.37
852.556	16.21
852.731	18.26
852.906	75.6
853.081	-8.36
853.256	75.6
853.431	-73.9
853.606	-82.09
853.781	-57.51
853.956	-166.06
854.131	40.79
854.305	-104.62
854.48	-14.51
854.655	-69.8
854.83	-18.6
855.005	-45.23
855.18	-24.75
855.354	-12.46
855.529	-59.56
855.704	-67.75
855.879	-16.55
856.053	-55.47
856.228	3.93
856.403	-127.14
856.577	116.56
856.752	-90.28
856.926	63.32
857.101	55.12
857.276	-71.85
857.45	3.93
857.625	-4.27
857.799	40.79
857.974	-26.79
858.148	-80.04
858.323	3.93
858.497	-53.42
858.672	-102.57
858.846	-47.27
859.02	38.74
859.195	-80.04
859.369	-10.41
859.543	20.31
859.718	-22.7
859.892	67.41
860.066	24.4
860.241	-32.94
860.415	-121
860.589	-49.32
860.763	36.69
860.938	-102.57
861.112	-90.28
861.286	-43.18
861.46	8.02
861.634	-32.94
861.808	-4.27
861.982	-114.86
862.157	-98.47
862.331	-80.04
862.505	-96.43
862.679	-45.23
862.853	-59.56
863.027	-30.89
863.201	171.86
863.375	-34.99
863.549	100.18
863.722	12.12
863.896	108.37
864.07	-12.46
864.244	-65.71
864.418	-2.22
864.592	10.07
864.766	-4.27
864.939	20.31
865.113	-59.56
865.287	42.84
865.461	-137.38
865.634	36.69
865.808	-6.31
865.982	-51.37
866.156	-49.32
866.329	-73.9
866.503	12.12
866.676	-2.22
866.85	26.45
867.024	-112.81
867.197	53.08
867.371	22.36
867.544	51.03
867.718	-71.85
867.891	-8.36
868.065	-116.9
868.238	-28.84
868.412	-4.27
868.585	-24.75
868.759	-4.27
868.932	-114.86
869.105	-49.32
869.279	-0.17
869.452	-73.9
869.625	-6.31
869.799	-26.79
869.972	-77.99
870.145	-10.41
870.319	44.88
870.492	-6.31
870.665	-61.61
870.838	-73.9
871.011	-73.9
871.185	-18.6
871.358	-39.08
871.531	-8.36
871.704	-59.56
871.877	3.93
872.05	36.69
872.223	-47.27
872.396	-53.42
872.569	63.32
872.742	-127.14
872.915	26.45
873.088	10.07
873.261	-141.48
873.434	3.93
873.607	-8.36
873.78	26.45
873.953	-137.38
874.126	-18.6
874.299	40.79
874.471	-51.37
874.644	-63.66
874.817	16.21
874.99	149.33
875.163	-34.99
875.335	-47.27
875.508	-22.7
875.681	77.65
875.853	-69.8
876.026	16.21
876.199	5.97
876.371	1.88
876.544	-10.41
876.717	-69.8
876.889	-51.37
877.062	59.22
877.234	-61.61
877.407	-14.51
877.579	-57.51
877.752	-41.13
877.924	20.31
878.097	57.17
878.269	-24.75
878.442	10.07
878.614	-41.13
878.786	36.69
878.959	-37.03
879.131	-4.27
879.303	-100.52
879.476	-80.04
879.648	3.93
879.82	-69.8
879.993	-55.47
880.165	-4.27
880.337	-137.38
880.509	-14.51
880.681	-71.85
880.854	-55.47
881.026	22.36
881.198	128.85
881.37	-16.55
881.542	-80.04
881.714	-57.51
881.886	-41.13
882.058	12.12
882.23	8.02
882.402	-55.47
882.574	-22.7
882.746	42.84
882.918	40.79
883.09	75.6
883.262	-41.13
883.434	-34.99
883.606	-98.47
883.778	8.02
883.95	186.19
884.122	-77.99
884.293	63.32
884.465	-12.46
884.637	87.89
884.809	-110.76
884.98	12.12
885.152	42.84
885.324	10.07
885.496	-104.62
885.667	-39.08
885.839	-59.56
886.011	40.79
886.182	-10.41
886.354	59.22
886.525	1.88
886.697	-14.51
886.869	-6.31
887.04	14.17
887.212	112.47
887.383	91.99
887.555	36.69
887.726	-94.38
887.897	-65.71
888.069	-12.46
888.24	57.17
888.412	-34.99
888.583	-63.66
888.754	-49.32
888.926	-145.58
889.097	-49.32
889.268	-69.8
889.44	-39.08
889.611	-55.47
889.782	-114.86
889.953	-22.7
890.125	51.03
890.296	-84.14
890.467	-92.33
890.638	-100.52
890.809	-26.79
890.98	-106.67
891.151	55.12
891.323	73.56
891.494	1.88
891.665	-18.6
891.836	24.4
892.007	-82.09
892.178	-77.99
892.349	-55.47
892.52	-100.52
892.691	-28.84
892.862	-37.03
893.032	-149.67
893.203	-12.46
893.374	36.69
893.545	48.98
893.716	-43.18
893.887	63.32
894.057	-43.18
894.228	-8.36
894.399	-32.94
894.57	-14.51
894.74	18.26
894.911	40.79
895.082	28.5
895.253	-51.37
895.423	-12.46
895.594	63.32
895.764	55.12
895.935	-75.95
896.106	42.84
896.276	-32.94
896.447	48.98
896.617	-100.52
896.788	-106.67
896.958	-8.36
897.129	32.6
897.299	-30.89
897.47	77.65
897.64	83.8
897.81	-53.42
897.981	1.88
898.151	-43.18
898.322	61.27
898.492	59.22
898.662	-47.27
898.832	-69.8
899.003	-71.85
899.173	24.4
899.343	-116.9
899.513	-63.66
