Data from USB4F104151__245__11-19-55-236.txt Node

Date: Wed Feb 26 11:19:55 EST 2025
User: louis
Spectrometer: USB4F10415
Trigger mode: 4
Integration Time (sec): 1.000000E-1
Scans to average: 1
Electric dark correction enabled: true
Nonlinearity correction enabled: false
Boxcar width: 0
XAxis mode: Wavelengths
Number of Pixels in Spectrum: 3648
>>>>>Begin Spectral Data<<<<<
178.204	-338.43
178.424	-338.43
178.644	-338.43
178.864	-338.43
179.084	-391.67
179.304	-31.23
179.524	-43.52
179.744	-61.95
179.964	87.55
180.184	30.21
180.404	62.98
180.624	-29.18
180.844	17.92
181.064	-27.14
181.283	-12.8
181.503	-49.66
181.723	56.83
181.943	-72.19
182.163	130.56
182.383	-2.56
182.602	99.84
182.822	189.95
183.042	52.74
183.262	-104.96
183.482	13.82
183.701	-6.66
183.921	103.93
184.141	-6.66
184.361	101.89
184.58	91.65
184.8	103.93
185.02	-0.51
185.239	132.61
185.459	148.99
185.679	183.81
185.898	-64
186.118	52.74
186.338	110.08
186.557	112.13
186.777	-2.56
186.997	19.97
187.216	-33.28
187.436	251.39
187.655	40.45
187.875	89.6
188.095	50.69
188.314	148.99
188.534	177.66
188.753	-31.23
188.973	196.09
189.192	89.6
189.412	7.68
189.631	9.73
189.851	65.02
190.07	163.33
190.29	-47.62
190.509	32.26
190.729	40.45
190.948	134.65
191.168	257.53
191.387	56.83
191.607	52.74
191.826	62.98
192.045	46.59
192.265	75.26
192.484	89.6
192.704	34.3
192.923	-23.04
193.142	142.85
193.362	153.09
193.581	185.85
193.8	97.79
194.02	132.61
194.239	5.63
194.458	75.26
194.678	67.07
194.897	22.02
195.116	69.12
195.335	71.17
195.555	79.36
195.774	40.45
195.993	161.28
196.212	48.64
196.432	34.3
196.651	9.73
196.87	5.63
197.089	257.53
197.308	54.78
197.528	50.69
197.747	-37.38
197.966	95.74
198.185	95.74
198.404	5.63
198.623	192
198.842	95.74
199.062	138.75
199.281	91.65
199.5	81.41
199.719	60.93
199.938	79.36
200.157	48.64
200.376	128.51
200.595	173.57
200.814	60.93
201.033	7.68
201.252	148.99
201.471	97.79
201.69	101.89
201.909	60.93
202.128	62.98
202.347	36.35
202.566	13.82
202.785	-10.75
203.004	-16.9
203.223	280.06
203.442	36.35
203.661	-84.48
203.879	71.17
204.098	161.28
204.317	-16.9
204.536	89.6
204.755	167.42
204.974	67.07
205.193	60.93
205.411	114.17
205.63	181.76
205.849	54.78
206.068	28.16
206.287	26.11
206.505	200.19
206.724	30.21
206.943	73.21
207.162	62.98
207.381	73.21
207.599	-2.56
207.818	42.5
208.037	11.78
208.255	128.51
208.474	105.98
208.693	105.98
208.911	44.54
209.13	97.79
209.349	77.31
209.567	77.31
209.786	-8.7
210.005	151.04
210.223	46.59
210.442	-94.72
210.661	50.69
210.879	69.12
211.098	71.17
211.316	95.74
211.535	122.37
211.753	58.88
211.972	103.93
212.191	-49.66
212.409	-4.61
212.628	71.17
212.846	9.73
213.065	28.16
213.283	110.08
213.502	32.26
213.72	65.02
213.938	38.4
214.157	17.92
214.375	101.89
214.594	56.83
214.812	91.65
215.031	19.97
215.249	67.07
215.467	110.08
215.686	24.06
215.904	153.09
216.122	60.93
216.341	77.31
216.559	62.98
216.778	17.92
216.996	75.26
217.214	13.82
217.432	-25.09
217.651	3.58
217.869	118.27
218.087	40.45
218.306	-10.75
218.524	75.26
218.742	42.5
218.96	65.02
219.179	56.83
219.397	13.82
219.615	275.96
219.833	110.08
220.051	9.73
220.27	128.51
220.488	200.19
220.706	19.97
220.924	19.97
221.142	17.92
221.36	87.55
221.578	95.74
221.796	26.11
222.015	124.41
222.233	85.5
222.451	181.76
222.669	-23.04
222.887	75.26
223.105	-18.94
223.323	32.26
223.541	11.78
223.759	48.64
223.977	11.78
224.195	136.7
224.413	75.26
224.631	67.07
224.849	52.74
225.067	212.48
225.285	28.16
225.503	24.06
225.721	-74.24
225.939	89.6
226.157	120.32
226.375	198.14
226.592	-45.57
226.81	56.83
227.028	105.98
227.246	126.46
227.464	34.3
227.682	130.56
227.9	124.41
228.117	87.55
228.335	69.12
228.553	36.35
228.771	62.98
228.989	54.78
229.206	130.56
229.424	19.97
229.642	-27.14
229.86	15.87
230.077	148.99
230.295	42.5
230.513	210.43
230.731	26.11
230.948	216.57
231.166	118.27
231.384	40.45
231.601	-27.14
231.819	157.18
232.037	13.82
232.254	-39.42
232.472	-6.66
232.689	38.4
232.907	108.03
233.125	15.87
233.342	7.68
233.56	-8.7
233.777	13.82
233.995	81.41
234.213	146.94
234.43	138.75
234.648	112.13
234.865	-10.75
235.083	62.98
235.3	48.64
235.518	48.64
235.735	173.57
235.953	85.5
236.17	58.88
236.388	28.16
236.605	36.35
236.822	112.13
237.04	112.13
237.257	81.41
237.475	-31.23
237.692	67.07
237.909	34.3
238.127	54.78
238.344	73.21
238.562	9.73
238.779	24.06
238.996	17.92
239.214	46.59
239.431	112.13
239.648	-25.09
239.865	142.85
240.083	144.89
240.3	-27.14
240.517	22.02
240.735	71.17
240.952	142.85
241.169	95.74
241.386	110.08
241.603	5.63
241.821	-20.99
242.038	110.08
242.255	173.57
242.472	-68.09
242.689	71.17
242.907	144.89
243.124	110.08
243.341	11.78
243.558	60.93
243.775	-51.71
243.992	-2.56
244.209	108.03
244.426	185.85
244.643	38.4
244.86	3.58
245.078	155.13
245.295	87.55
245.512	52.74
245.729	15.87
245.946	118.27
246.163	103.93
246.38	79.36
246.597	13.82
246.814	71.17
247.031	120.32
247.248	36.35
247.464	112.13
247.681	79.36
247.898	69.12
248.115	91.65
248.332	-0.51
248.549	134.65
248.766	196.09
248.983	140.8
249.2	77.31
249.417	81.41
249.633	9.73
249.85	50.69
250.067	30.21
250.284	48.64
250.501	89.6
250.717	132.61
250.934	-25.09
251.151	-14.85
251.368	60.93
251.585	24.06
251.801	71.17
252.018	-80.38
252.235	120.32
252.451	26.11
252.668	89.6
252.885	122.37
253.102	93.69
253.318	38.4
253.535	56.83
253.752	50.69
253.968	46.59
254.185	-16.9
254.401	87.55
254.618	50.69
254.835	-25.09
255.051	105.98
255.268	73.21
255.484	101.89
255.701	40.45
255.917	153.09
256.134	46.59
256.351	48.64
256.567	44.54
256.784	54.78
257	-27.14
257.217	105.98
257.433	91.65
257.65	56.83
257.866	208.38
258.082	-64
258.299	-10.75
258.515	103.93
258.732	-39.42
258.948	-55.81
259.165	77.31
259.381	-25.09
259.597	183.81
259.814	1.54
260.03	103.93
260.246	1.54
260.463	194.05
260.679	95.74
260.895	118.27
261.112	175.61
261.328	-12.8
261.544	-23.04
261.761	146.94
261.977	-27.14
262.193	-29.18
262.409	110.08
262.626	13.82
262.842	-8.7
263.058	34.3
263.274	85.5
263.49	15.87
263.707	97.79
263.923	56.83
264.139	-64
264.355	36.35
264.571	134.65
264.787	116.22
265.004	89.6
265.22	9.73
265.436	-6.66
265.652	103.93
265.868	89.6
266.084	36.35
266.3	34.3
266.516	-27.14
266.732	118.27
266.948	28.16
267.164	-74.24
267.38	103.93
267.596	87.55
267.812	275.96
268.028	79.36
268.244	36.35
268.46	48.64
268.676	-43.52
268.892	62.98
269.108	-0.51
269.324	-23.04
269.54	38.4
269.756	163.33
269.972	-6.66
270.188	99.84
270.403	13.82
270.619	56.83
270.835	124.41
271.051	126.46
271.267	42.5
271.483	58.88
271.698	192
271.914	93.69
272.13	50.69
272.346	34.3
272.562	58.88
272.777	142.85
272.993	108.03
273.209	17.92
273.425	140.8
273.64	-31.23
273.856	83.45
274.072	40.45
274.287	60.93
274.503	169.47
274.719	99.84
274.934	87.55
275.15	-39.42
275.366	71.17
275.581	-4.61
275.797	7.68
276.012	60.93
276.228	13.82
276.444	83.45
276.659	97.79
276.875	-8.7
277.09	52.74
277.306	-10.75
277.521	95.74
277.737	83.45
277.952	89.6
278.168	42.5
278.383	22.02
278.599	38.4
278.814	148.99
279.03	48.64
279.245	153.09
279.461	9.73
279.676	105.98
279.892	65.02
280.107	24.06
280.322	-31.23
280.538	24.06
280.753	36.35
280.969	91.65
281.184	56.83
281.399	167.42
281.615	32.26
281.83	83.45
282.045	-0.51
282.26	24.06
282.476	42.5
282.691	105.98
282.906	173.57
283.122	-2.56
283.337	1.54
283.552	62.98
283.767	62.98
283.983	87.55
284.198	-8.7
284.413	134.65
284.628	-86.53
284.843	-0.51
285.058	34.3
285.274	34.3
285.489	-4.61
285.704	101.89
285.919	17.92
286.134	44.54
286.349	65.02
286.564	-4.61
286.779	134.65
286.995	26.11
287.21	-4.61
287.425	32.26
287.64	-0.51
287.855	114.17
288.07	-4.61
288.285	140.8
288.5	126.46
288.715	91.65
288.93	-18.94
289.145	75.26
289.36	124.41
289.575	44.54
289.79	136.7
290.004	-20.99
290.219	103.93
290.434	-0.51
290.649	-31.23
290.864	67.07
291.079	-76.29
291.294	46.59
291.509	52.74
291.724	32.26
291.938	-0.51
292.153	140.8
292.368	3.58
292.583	69.12
292.798	99.84
293.012	118.27
293.227	36.35
293.442	9.73
293.657	155.13
293.871	157.18
294.086	116.22
294.301	171.52
294.516	116.22
294.73	28.16
294.945	-27.14
295.16	54.78
295.374	130.56
295.589	175.61
295.804	-25.09
296.018	-16.9
296.233	130.56
296.447	118.27
296.662	-39.42
296.877	128.51
297.091	91.65
297.306	83.45
297.52	71.17
297.735	56.83
297.949	114.17
298.164	65.02
298.378	124.41
298.593	-14.85
298.807	48.64
299.022	-14.85
299.236	185.85
299.451	-55.81
299.665	24.06
299.88	44.54
300.094	89.6
300.309	114.17
300.523	85.5
300.737	32.26
300.952	95.74
301.166	95.74
301.381	-47.62
301.595	118.27
301.809	-2.56
302.024	114.17
302.238	-6.66
302.452	101.89
302.667	83.45
302.881	173.57
303.095	110.08
303.309	108.03
303.524	48.64
303.738	-53.76
303.952	62.98
304.166	54.78
304.381	-39.42
304.595	124.41
304.809	71.17
305.023	48.64
305.237	26.11
305.452	60.93
305.666	58.88
305.88	56.83
306.094	3.58
306.308	134.65
306.522	75.26
306.736	103.93
306.95	103.93
307.164	48.64
307.379	95.74
307.593	167.42
307.807	189.95
308.021	97.79
308.235	157.18
308.449	-16.9
308.663	75.26
308.877	228.86
309.091	44.54
309.305	192
309.519	-51.71
309.733	81.41
309.947	-20.99
310.161	103.93
310.374	87.55
310.588	153.09
310.802	-6.66
311.016	54.78
311.23	148.99
311.444	-45.57
311.658	-27.14
311.872	67.07
312.085	198.14
312.299	136.7
312.513	120.32
312.727	67.07
312.941	32.26
313.154	73.21
313.368	65.02
313.582	62.98
313.796	54.78
314.009	52.74
314.223	124.41
314.437	-12.8
314.651	87.55
314.864	34.3
315.078	54.78
315.292	-6.66
315.505	38.4
315.719	44.54
315.933	58.88
316.146	32.26
316.36	-47.62
316.573	140.8
316.787	24.06
317.001	-2.56
317.214	-51.71
317.428	28.16
317.641	67.07
317.855	-18.94
318.068	17.92
318.282	101.89
318.495	208.38
318.709	177.66
318.922	-23.04
319.136	167.42
319.349	83.45
319.563	56.83
319.776	128.51
319.99	-14.85
320.203	124.41
320.417	48.64
320.63	87.55
320.843	169.47
321.057	120.32
321.27	85.5
321.483	120.32
321.697	194.05
321.91	48.64
322.124	173.57
322.337	95.74
322.55	-4.61
322.763	153.09
322.977	15.87
323.19	7.68
323.403	54.78
323.617	83.45
323.83	128.51
324.043	38.4
324.256	103.93
324.469	1.54
324.683	140.8
324.896	-16.9
325.109	-8.7
325.322	24.06
325.535	163.33
325.748	142.85
325.962	24.06
326.175	62.98
326.388	114.17
326.601	114.17
326.814	-0.51
327.027	101.89
327.24	103.93
327.453	-29.18
327.666	144.89
327.879	91.65
328.092	118.27
328.305	40.45
328.518	3.58
328.731	62.98
328.944	36.35
329.157	116.22
329.37	85.5
329.583	138.75
329.796	181.76
330.009	-35.33
330.222	108.03
330.435	146.94
330.648	40.45
330.861	101.89
331.073	110.08
331.286	77.31
331.499	22.02
331.712	34.3
331.925	-4.61
332.138	95.74
332.35	120.32
332.563	13.82
332.776	130.56
332.989	58.88
333.202	40.45
333.414	11.78
333.627	17.92
333.84	50.69
334.053	95.74
334.265	-57.86
334.478	26.11
334.691	67.07
334.903	85.5
335.116	15.87
335.329	30.21
335.541	116.22
335.754	208.38
335.966	24.06
336.179	77.31
336.392	34.3
336.604	22.02
336.817	134.65
337.029	116.22
337.242	22.02
337.454	-4.61
337.667	75.26
337.88	142.85
338.092	130.56
338.305	110.08
338.517	-6.66
338.729	105.98
338.942	134.65
339.154	22.02
339.367	-18.94
339.579	105.98
339.792	-29.18
340.004	130.56
340.217	60.93
340.429	148.99
340.641	9.73
340.854	17.92
341.066	95.74
341.278	134.65
341.491	181.76
341.703	93.69
341.915	48.64
342.128	126.46
342.34	54.78
342.552	7.68
342.764	15.87
342.977	-55.81
343.189	99.84
343.401	79.36
343.613	-55.81
343.826	34.3
344.038	13.82
344.25	48.64
344.462	1.54
344.674	91.65
344.886	52.74
345.099	85.5
345.311	108.03
345.523	-35.33
345.735	-18.94
345.947	85.5
346.159	87.55
346.371	-4.61
346.583	17.92
346.795	134.65
347.007	40.45
347.219	24.06
347.431	54.78
347.643	210.43
347.855	140.8
348.067	67.07
348.279	48.64
348.491	50.69
348.703	118.27
348.915	65.02
349.127	17.92
349.339	54.78
349.551	38.4
349.763	65.02
349.975	112.13
350.187	153.09
350.399	97.79
350.61	167.42
350.822	24.06
351.034	79.36
351.246	105.98
351.458	42.5
351.669	114.17
351.881	101.89
352.093	140.8
352.305	83.45
352.517	50.69
352.728	130.56
352.94	77.31
353.152	183.81
353.363	28.16
353.575	75.26
353.787	144.89
353.999	56.83
354.21	165.37
354.422	26.11
354.633	105.98
354.845	85.5
355.057	36.35
355.268	26.11
355.48	140.8
355.692	5.63
355.903	62.98
356.115	-25.09
356.326	-6.66
356.538	161.28
356.749	99.84
356.961	202.24
357.172	46.59
357.384	-20.99
357.595	153.09
357.807	91.65
358.018	58.88
358.23	73.21
358.441	232.96
358.653	71.17
358.864	110.08
359.075	17.92
359.287	134.65
359.498	34.3
359.709	118.27
359.921	114.17
360.132	50.69
360.344	-12.8
360.555	5.63
360.766	-18.94
360.977	89.6
361.189	153.09
361.4	-23.04
361.611	116.22
361.823	91.65
362.034	83.45
362.245	-78.33
362.456	75.26
362.667	108.03
362.879	30.21
363.09	110.08
363.301	99.84
363.512	73.21
363.723	-27.14
363.935	1.54
364.146	128.51
364.357	11.78
364.568	118.27
364.779	28.16
364.99	198.14
365.201	1.54
365.412	194.05
365.623	-43.52
365.834	38.4
366.045	42.5
366.256	81.41
366.467	99.84
366.678	26.11
366.889	67.07
367.1	-2.56
367.311	128.51
367.522	26.11
367.733	1.54
367.944	40.45
368.155	-25.09
368.366	148.99
368.577	144.89
368.788	134.65
368.999	-25.09
369.209	46.59
369.42	202.24
369.631	298.49
369.842	48.64
370.053	91.65
370.264	153.09
370.474	-14.85
370.685	40.45
370.896	108.03
371.107	46.59
371.317	93.69
371.528	85.5
371.739	169.47
371.95	44.54
372.16	60.93
372.371	-18.94
372.582	91.65
372.792	85.5
373.003	26.11
373.214	87.55
373.424	44.54
373.635	56.83
373.846	103.93
374.056	30.21
374.267	118.27
374.477	62.98
374.688	-6.66
374.898	71.17
375.109	67.07
375.319	77.31
375.53	124.41
375.74	136.7
375.951	-25.09
376.161	114.17
376.372	116.22
376.582	40.45
376.793	67.07
377.003	62.98
377.214	85.5
377.424	120.32
377.635	30.21
377.845	9.73
378.055	87.55
378.266	7.68
378.476	32.26
378.686	-25.09
378.897	124.41
379.107	95.74
379.317	161.28
379.528	9.73
379.738	128.51
379.948	-2.56
380.158	91.65
380.369	24.06
380.579	73.21
380.789	71.17
380.999	62.98
381.21	103.93
381.42	230.91
381.63	-14.85
381.84	142.85
382.05	77.31
382.261	245.24
382.471	93.69
382.681	-39.42
382.891	189.95
383.101	-18.94
383.311	-31.23
383.521	69.12
383.731	38.4
383.941	89.6
384.151	62.98
384.361	42.5
384.571	5.63
384.781	65.02
384.991	230.91
385.201	194.05
385.411	62.98
385.621	58.88
385.831	134.65
386.041	48.64
386.251	97.79
386.461	132.61
386.671	97.79
386.881	79.36
387.091	116.22
387.301	146.94
387.511	71.17
387.72	157.18
387.93	183.81
388.14	-72.19
388.35	175.61
388.56	89.6
388.769	101.89
388.979	65.02
389.189	-49.66
389.399	87.55
389.609	71.17
389.818	122.37
390.028	132.61
390.238	118.27
390.447	42.5
390.657	108.03
390.867	24.06
391.076	38.4
391.286	118.27
391.496	-0.51
391.705	71.17
391.915	169.47
392.125	19.97
392.334	22.02
392.544	132.61
392.753	79.36
392.963	22.02
393.172	54.78
393.382	7.68
393.591	208.38
393.801	56.83
394.01	179.71
394.22	46.59
394.429	81.41
394.639	-20.99
394.848	95.74
395.058	44.54
395.267	67.07
395.477	116.22
395.686	161.28
395.895	263.68
396.105	212.48
396.314	85.5
396.524	15.87
396.733	9.73
396.942	185.85
397.152	144.89
397.361	198.14
397.57	169.47
397.78	13.82
397.989	83.45
398.198	263.68
398.407	148.99
398.617	32.26
398.826	101.89
399.035	120.32
399.244	85.5
399.453	85.5
399.663	34.3
399.872	105.98
400.081	-0.51
400.29	91.65
400.499	7.68
400.708	118.27
400.917	52.74
401.127	95.74
401.336	5.63
401.545	173.57
401.754	112.13
401.963	85.5
402.172	58.88
402.381	-55.81
402.59	108.03
402.799	34.3
403.008	58.88
403.217	144.89
403.426	122.37
403.635	1.54
403.844	124.41
404.053	-23.04
404.262	-29.18
404.471	163.33
404.68	93.69
404.888	187.9
405.097	46.59
405.306	91.65
405.515	183.81
405.724	34.3
405.933	124.41
406.142	58.88
406.35	187.9
406.559	50.69
406.768	60.93
406.977	243.2
407.185	75.26
407.394	103.93
407.603	-16.9
407.812	95.74
408.02	101.89
408.229	52.74
408.438	54.78
408.646	-29.18
408.855	48.64
409.064	122.37
409.272	-14.85
409.481	128.51
409.69	-29.18
409.898	5.63
410.107	69.12
410.315	120.32
410.524	-31.23
410.733	122.37
410.941	144.89
411.15	60.93
411.358	120.32
411.567	204.28
411.775	44.54
411.984	73.21
412.192	108.03
412.401	11.78
412.609	146.94
412.818	175.61
413.026	112.13
413.234	42.5
413.443	67.07
413.651	34.3
413.86	-2.56
414.068	194.05
414.276	218.62
414.485	103.93
414.693	169.47
414.901	208.38
415.11	52.74
415.318	19.97
415.526	50.69
415.734	136.7
415.943	28.16
416.151	185.85
416.359	81.41
416.567	124.41
416.776	112.13
416.984	142.85
417.192	255.48
417.4	46.59
417.608	7.68
417.817	-2.56
418.025	181.76
418.233	185.85
418.441	-39.42
418.649	11.78
418.857	99.84
419.065	194.05
419.273	93.69
419.481	118.27
419.689	19.97
419.897	7.68
420.105	26.11
420.313	120.32
420.521	97.79
420.729	183.81
420.937	3.58
421.145	-23.04
421.353	194.05
421.561	157.18
421.769	169.47
421.977	24.06
422.185	130.56
422.393	114.17
422.601	48.64
422.809	161.28
423.017	52.74
423.224	122.37
423.432	110.08
423.64	89.6
423.848	118.27
424.056	24.06
424.263	144.89
424.471	26.11
424.679	179.71
424.887	5.63
425.094	206.33
425.302	99.84
425.51	54.78
425.718	140.8
425.925	52.74
426.133	58.88
426.341	183.81
426.548	34.3
426.756	24.06
426.964	155.13
427.171	48.64
427.379	73.21
427.586	130.56
427.794	167.42
428.001	128.51
428.209	103.93
428.417	146.94
428.624	222.72
428.832	114.17
429.039	108.03
429.247	130.56
429.454	116.22
429.662	181.76
429.869	183.81
430.076	163.33
430.284	173.57
430.491	224.76
430.699	157.18
430.906	226.81
431.114	224.76
431.321	235
431.528	83.45
431.736	228.86
431.943	169.47
432.15	194.05
432.358	204.28
432.565	302.59
432.772	95.74
432.979	296.44
433.187	151.04
433.394	296.44
433.601	185.85
433.808	247.29
434.016	314.88
434.223	323.07
434.43	226.81
434.637	247.29
434.844	232.96
435.052	263.68
435.259	302.59
435.466	275.96
435.673	304.64
435.88	298.49
436.087	394.75
436.294	425.47
436.501	357.88
436.708	364.03
436.915	392.7
437.122	454.14
437.329	308.73
437.537	353.79
437.743	298.49
437.95	452.09
438.157	384.51
438.364	499.19
438.571	423.42
438.778	507.38
438.985	515.58
439.192	593.4
439.399	542.2
439.606	570.87
439.813	570.87
440.02	605.69
440.227	783.86
440.433	665.08
440.64	673.27
440.847	521.72
441.054	679.41
441.261	804.34
441.467	728.56
441.674	691.7
441.881	847.35
442.088	720.37
442.294	798.2
442.501	847.35
442.708	843.25
442.914	953.84
443.121	986.61
443.328	1054.19
443.534	1146.35
443.741	972.27
443.948	1000.94
444.154	1134.06
444.361	1295.85
444.568	1154.54
444.774	1203.69
444.981	1101.3
445.187	1410.54
445.394	1248.75
445.6	1383.91
445.807	1441.26
446.013	1424.87
446.22	1371.63
446.426	1594.86
446.633	1678.82
446.839	1816.04
447.046	1629.67
447.252	1861.09
447.459	1908.19
447.665	1857
447.871	2104.8
448.078	2229.73
448.284	2237.92
448.491	2282.97
448.697	2379.23
448.903	2409.95
449.11	2495.96
449.316	2545.11
449.522	2661.85
449.728	2694.61
449.935	3044.82
450.141	2946.52
450.347	3167.7
450.553	3012.05
450.76	3096.02
450.966	3315.15
451.172	3399.12
451.378	3532.23
451.584	3659.21
451.791	3849.67
451.997	4066.75
452.203	4058.56
452.409	4285.89
452.615	4449.72
452.821	4351.42
453.027	4412.86
453.233	4961.72
453.44	4810.17
453.646	5017.01
453.852	5178.8
454.058	5637.55
454.264	5588.39
454.47	6051.24
454.676	5930.41
454.882	6620.57
455.088	6485.41
455.294	6731.16
455.5	7134.61
455.705	7388.56
455.911	7335.31
456.117	7595.4
456.323	8007.05
456.529	7904.65
456.735	8584.57
456.941	8795.51
457.147	9235.83
457.352	9379.18
457.558	9839.98
457.764	10411.36
457.97	10544.48
458.176	10937.69
458.381	11664.72
458.587	11865.42
458.793	12361.03
458.999	12404.03
459.204	13921.58
459.41	14365.99
459.616	14079.27
459.821	14841.12
460.027	15654.16
460.233	16612.61
460.438	16332.04
460.644	17390.84
460.85	17571.06
461.055	18230.51
461.261	18932.96
461.466	18775.27
461.672	19057.89
461.878	21474.49
462.083	20968.64
462.289	21791.92
462.494	22543.53
462.7	22564.01
462.905	22809.76
463.111	24949.89
463.316	25756.79
463.522	26125.43
463.727	27069.54
463.932	28429.39
464.138	29203.52
464.343	30868.52
464.549	30284.85
464.754	32742.41
464.959	33479.68
465.165	34298.87
465.37	34110.46
465.575	33881.08
465.781	36352.98
465.986	37323.72
466.191	36682.7
466.397	37280.71
466.602	35902.43
466.807	38194.11
467.012	38960.05
467.218	39586.72
467.423	39580.58
467.628	40969.1
467.833	43027.31
468.038	41745.28
468.244	41522.05
468.449	43309.93
468.654	42331
468.859	42754.93
469.064	42724.21
469.269	41560.97
469.474	41587.59
469.679	43330.41
469.885	41964.42
470.09	42523.51
470.295	42664.82
470.5	41659.27
470.705	41966.46
470.91	41012.11
471.115	40500.12
471.32	40878.99
471.525	41108.36
471.73	39889.82
471.935	39183.27
472.139	37616.58
472.344	38161.34
472.549	37907.39
472.754	37166.02
472.959	36299.73
473.164	35261.41
473.369	34728.94
473.574	35599.33
473.778	34667.5
473.983	34593.78
474.188	33664
474.393	32128.02
474.598	32142.36
474.802	31224.87
475.007	30972.97
475.212	30561.33
475.417	29410.37
475.621	28957.77
475.826	28738.63
476.031	27769.94
476.235	27522.14
476.44	27483.23
476.645	26563.69
476.849	26682.47
477.054	26485.87
477.259	25658.49
477.463	25457.79
477.668	24812.68
477.872	24941.7
478.077	24333.45
478.282	23547.03
478.486	23311.52
478.691	23006.37
478.895	22924.45
479.1	22774.95
479.304	22797.48
479.509	21867.7
479.713	21806.26
479.918	21566.65
480.122	21251.26
480.326	21349.56
480.531	21454.01
480.735	21107.9
480.94	20421.83
481.144	21505.21
481.348	20341.96
481.553	20165.84
481.757	19430.62
481.961	19875.02
482.166	19999.95
482.37	19983.57
482.574	19299.55
482.778	19336.41
482.983	19451.1
483.187	19047.65
483.391	19381.46
483.595	18715.87
483.8	18162.92
484.004	18472.17
484.208	18482.41
484.412	18349.29
484.616	18117.87
484.821	17951.98
485.025	17169.66
485.229	17382.65
485.433	16905.47
485.637	16891.13
485.841	16872.7
486.045	16336.13
486.249	16266.5
486.453	16026.89
486.657	15963.4
486.861	15703.31
487.065	15129.88
487.269	15420.69
487.473	14568.74
487.677	14904.6
487.881	14712.1
488.085	14294.31
488.289	14091.56
488.493	13788.46
488.697	13788.46
488.901	13270.33
489.105	13057.34
489.309	12805.44
489.512	12928.31
489.716	12434.75
489.92	12285.25
490.124	11918.67
490.328	11894.09
490.531	11775.31
490.735	11642.19
490.939	11242.84
491.143	10882.39
491.346	10661.21
491.55	10741.08
491.754	10458.46
491.958	10167.65
492.161	10106.21
492.365	10095.97
492.569	9678.19
492.772	9633.13
492.976	9614.7
493.18	9450.86
493.383	9485.68
493.587	9274.74
493.79	9338.23
493.994	8803.71
494.197	8979.83
494.401	8668.54
494.605	8719.74
494.808	8709.5
495.012	8428.93
495.215	8662.4
495.419	8480.13
495.622	8293.76
495.825	8375.68
496.029	8258.95
496.232	8334.72
496.436	8125.83
496.639	8318.34
496.843	7945.61
497.046	7996.81
497.249	8258.95
497.453	8082.82
497.656	8064.39
497.859	7841.16
498.063	8187.27
498.266	7978.37
498.469	8084.87
498.673	7859.59
498.876	8080.77
499.079	8326.53
499.282	8058.25
499.485	8588.67
499.689	8217.99
499.892	8402.3
500.095	8451.46
500.298	8498.56
500.501	8250.75
500.705	8723.83
500.908	8504.7
501.111	8600.96
501.314	8805.75
501.517	8916.34
501.72	8961.4
501.923	8983.93
502.126	8922.49
502.329	9262.45
502.532	9407.86
502.735	9217.4
502.938	9551.21
503.141	9502.06
503.344	9547.12
503.547	9852.27
503.75	9608.56
503.953	10177.89
504.156	10225
504.359	10196.32
504.562	10292.58
504.765	10610.01
504.968	10702.17
505.17	10857.82
505.373	10933.59
505.576	11177.3
505.779	11140.44
505.982	11466.07
506.185	12002.63
506.387	11904.33
506.59	11976.01
506.793	12391.75
506.996	12537.15
507.198	12995.9
507.401	13063.48
507.604	13221.17
507.807	13489.46
508.009	13675.82
508.212	13954.35
508.415	14126.38
508.617	14386.47
508.82	14994.72
509.022	15090.97
509.225	15535.38
509.428	15822.09
509.63	16086.28
509.833	16137.48
510.035	17143.03
510.238	16993.53
510.44	17448.18
510.643	17728.75
510.845	18355.43
511.048	18416.87
511.25	18885.86
511.453	19150.04
511.655	20417.74
511.858	20210.89
512.06	20815.04
512.262	21267.64
512.465	21558.46
512.667	22234.28
512.87	22678.69
513.072	22795.43
513.274	23757.97
513.477	24304.78
513.679	24941.7
513.881	25115.78
514.084	25730.17
514.286	26031.22
514.488	26823.78
514.69	27763.8
514.893	27769.94
515.095	28335.18
515.297	29258.82
515.499	29822.01
515.701	30067.77
515.904	30884.9
516.106	31544.35
516.308	32185.36
516.51	33106.95
516.712	33539.07
516.914	34247.67
517.116	34995.18
517.318	35300.33
517.52	35843.04
517.722	36488.15
517.925	37432.26
518.127	38255.54
518.329	38720.43
518.531	38890.41
518.733	40090.52
518.935	40573.84
519.136	41362.31
519.338	41941.89
519.54	42134.4
519.742	43303.79
519.944	43760.48
520.146	44700.5
520.348	44880.72
520.55	45431.63
520.752	45833.03
520.954	47145.78
521.155	46943.03
521.357	47725.35
521.559	48565.02
521.761	49263.38
521.963	49478.41
522.164	49396.49
522.366	49804.04
522.568	50756.35
522.77	50793.21
522.971	51813.1
523.173	51278.58
523.375	52443.87
523.576	52275.94
523.778	52261.6
523.98	52470.5
524.181	53072.6
524.383	52964.06
524.584	53811.91
524.786	53695.18
524.988	53471.95
525.189	53738.19
525.391	54125.25
525.592	54102.73
525.794	54184.65
525.995	53842.63
526.197	54000.33
526.398	53574.35
526.6	53764.81
526.801	53654.22
527.003	53938.89
527.204	53457.62
527.406	53650.13
527.607	52867.8
527.808	53400.27
528.01	52079.33
528.211	52398.82
528.412	52792.03
528.614	51632.88
528.815	51520.24
529.016	51731.18
529.218	50236.16
529.419	50262.79
529.62	50191.11
529.822	49490.7
530.023	49089.3
530.224	48915.22
530.425	48548.64
530.626	47590.19
530.828	47194.93
531.029	47371.05
531.23	46291.77
531.431	45550.41
531.632	45554.5
531.833	45050.7
532.035	44034.91
532.236	43977.57
532.437	43416.43
532.638	42738.55
532.839	42437.5
533.04	42201.98
533.241	41085.84
533.442	41481.1
533.643	40364.95
533.844	39635.88
534.045	39117.74
534.246	39084.97
534.447	38337.46
534.648	37802.94
534.849	37313.48
535.05	36928.46
535.251	36355.03
535.451	35781.6
535.652	35306.47
535.853	35064.81
536.054	34653.17
536.255	34092.02
536.456	33408
536.657	33377.28
536.857	32654.35
537.058	31577.12
537.259	31865.88
537.46	31441.95
537.66	30784.55
537.861	30575.66
538.062	30063.67
538.263	29944.89
538.463	29097.03
538.664	29400.13
538.865	28677.19
539.065	28173.39
539.266	27796.57
539.466	27864.15
539.667	27173.99
539.868	27214.94
540.068	26444.91
540.269	26655.85
540.469	26088.56
540.67	25721.98
540.87	25664.63
541.071	25310.33
541.271	24857.73
541.472	24728.71
541.672	24536.2
541.873	23868.56
542.073	23301.28
542.274	23712.92
542.474	23291.04
542.675	22662.31
542.875	22807.72
543.075	22385.83
543.276	22000.82
543.476	22060.21
543.676	21841.07
543.877	21386.43
544.077	21277.88
544.277	20907.2
544.478	20651.2
544.678	20710.6
544.878	20290.76
545.078	20102.35
545.279	19703
545.479	19473.62
545.679	19494.1
545.879	19227.87
546.079	18961.63
546.28	18726.11
546.48	18613.48
546.68	18584.8
546.88	18136.3
547.08	18027.76
547.28	17738.99
547.48	17317.11
547.68	17460.47
547.88	16940.29
548.081	16807.17
548.281	16528.64
548.481	16231.69
548.681	16250.12
548.881	15990.03
549.081	15815.95
549.28	15484.18
549.48	15310.1
549.68	15222.04
549.88	15107.35
550.08	14660.9
550.28	14368.04
550.48	14335.27
550.68	14253.35
550.88	13897
551.08	13874.48
551.279	13794.61
551.479	12971.32
551.679	13262.13
551.879	13092.15
552.079	13126.97
552.278	12455.23
552.478	12748.09
552.678	12408.13
552.878	12045.64
553.077	11963.72
553.277	11289.94
553.477	11521.36
553.676	11642.19
553.876	11181.4
554.076	10872.15
554.275	10863.96
554.475	10564.96
554.674	10509.66
554.874	10204.52
555.074	10208.61
555.273	9954.66
555.473	9891.18
555.672	9782.63
555.872	9575.79
556.071	9375.09
556.271	9424.24
556.47	9041.27
556.67	8815.99
556.869	8879.48
557.068	8725.88
557.268	8570.24
557.467	8502.65
557.667	8234.37
557.866	8119.68
558.065	8093.06
558.265	7878.02
558.464	7507.34
558.663	7628.17
558.863	7503.25
559.062	7574.92
559.261	7239.06
559.461	7191.95
559.66	6884.76
559.859	6862.23
560.058	6729.11
560.258	6649.24
560.457	6622.62
560.656	6641.05
560.855	6409.63
561.054	6354.34
561.253	6059.43
561.453	6030.76
561.652	6114.72
561.851	6006.18
562.05	5739.94
562.249	5670.31
562.448	5762.47
562.647	5557.68
562.846	5526.96
563.045	5541.29
563.244	5420.46
563.443	5399.98
563.642	5234.1
563.841	5006.77
564.04	5047.73
564.239	4961.72
564.438	4842.93
564.637	4697.53
564.836	4597.18
565.035	4478.4
565.234	4611.51
565.432	4513.21
565.631	4429.24
565.83	4404.67
566.029	4353.47
566.228	4283.84
566.427	4341.18
566.625	3966.4
566.824	4103.62
567.023	4023.75
567.222	4074.95
567.42	3913.16
567.619	3839.43
567.818	3739.08
568.016	3974.6
568.215	3741.13
568.414	3626.44
568.612	3552.71
568.811	3618.25
569.01	3638.73
569.208	3515.85
569.407	3558.86
569.605	3507.66
569.804	3349.96
570.002	3366.35
570.201	3214.8
570.4	3239.37
570.598	2950.61
570.797	2999.76
570.995	3038.67
571.193	2909.65
571.392	2956.75
571.59	2764.25
571.789	2909.65
571.987	2823.64
572.186	2854.36
572.384	2659.8
572.582	2700.76
572.781	2698.71
572.979	2553.31
573.177	2577.88
573.376	2416.09
573.574	2467.29
573.772	2377.18
573.971	2325.98
574.169	2278.88
574.367	2338.27
574.565	2270.69
574.763	2156
574.962	2256.35
575.16	2194.91
575.358	2151.9
575.556	2143.71
575.754	2131.42
575.952	2026.98
576.151	2082.27
576.349	2119.14
576.547	1828.32
576.745	1826.28
576.943	1961.44
577.141	1801.7
577.339	1830.37
577.537	1895.91
577.735	1807.84
577.933	1695.21
578.131	1791.46
578.329	1883.62
578.527	1697.25
578.725	1678.82
578.923	1603.05
579.121	1727.97
579.319	1488.36
579.516	1625.58
579.714	1732.07
579.912	1664.49
580.11	1392.11
580.308	1447.4
580.506	1471.98
580.704	1324.52
580.901	1361.39
581.099	1476.07
581.297	1332.72
581.495	1302
581.692	1439.21
581.89	1345
582.088	1213.93
582.285	1150.45
582.483	1185.26
582.681	1285.61
582.878	1281.52
583.076	1277.42
583.274	1193.45
583.471	1228.27
583.669	1119.73
583.866	1109.49
584.064	1066.48
584.262	998.9
584.459	949.75
584.657	1111.54
584.854	1072.62
585.052	1048.05
585.249	1058.29
585.447	1119.73
585.644	871.92
585.841	1023.47
586.039	992.75
586.236	1076.72
586.434	1043.95
586.631	826.87
586.828	921.07
587.026	830.96
587.223	769.52
587.42	814.58
587.618	867.83
587.815	1005.04
588.012	880.11
588.21	894.45
588.407	873.97
588.604	857.59
588.801	771.57
588.999	777.72
589.196	873.97
589.393	667.13
589.59	781.81
589.787	763.38
589.984	738.8
590.182	812.53
590.379	736.76
590.576	744.95
590.773	751.09
590.97	794.1
591.167	790
591.364	849.4
591.561	787.96
591.758	802.29
591.955	742.9
592.152	857.59
592.349	699.89
592.546	724.47
592.743	722.42
592.94	648.69
593.137	853.49
593.334	845.3
593.531	763.38
593.727	818.68
593.924	810.48
594.121	687.61
594.318	720.37
594.515	841.2
594.712	843.25
594.908	804.34
595.105	730.61
595.302	783.86
595.499	767.48
595.696	947.7
595.892	794.1
596.089	894.45
596.286	847.35
596.482	912.88
596.679	855.54
596.876	886.26
597.072	919.03
597.269	984.56
597.466	978.42
597.662	966.13
597.859	945.65
598.055	1005.04
598.252	1201.65
598.448	1215.98
598.645	1328.62
598.841	1234.41
599.038	1394.15
599.234	1320.43
599.431	1398.25
599.627	1496.55
599.824	1451.5
600.02	1512.94
600.217	1572.33
600.413	1590.76
600.609	1723.88
600.806	1973.73
601.002	1811.94
601.198	1869.28
601.395	1936.87
601.591	2084.32
601.787	1994.21
601.984	2299.36
602.18	2270.69
602.376	2287.07
602.572	2541.02
602.769	2543.07
602.965	2500.06
603.161	2657.75
603.357	2780.63
603.553	2983.38
603.75	2833.88
603.946	3057.11
604.142	3218.89
604.338	3419.6
604.534	3372.49
604.73	3571.15
604.926	3628.49
605.122	3724.74
605.318	3896.77
605.514	4015.55
605.71	4113.86
605.906	4285.89
606.102	4337.09
606.298	4515.26
606.494	4666.81
606.69	4793.78
606.886	4971.96
607.082	5014.96
607.278	5062.07
607.474	5381.55
607.67	5539.24
607.866	5637.55
608.062	5973.41
608.257	6141.35
608.453	6049.19
608.649	6419.87
608.845	6229.41
609.041	6575.52
609.236	6729.11
609.432	6907.29
609.628	7179.67
609.824	7296.4
610.019	7312.78
610.215	7658.89
610.411	7978.37
610.606	8158.6
610.802	8494.46
610.998	8543.61
611.193	8902.01
611.389	9069.94
611.584	9254.26
611.78	9264.5
611.976	9686.38
612.171	9958.76
612.367	10245.48
612.562	10435.94
612.758	10466.66
612.953	11017.56
613.149	11345.23
613.344	11480.4
613.539	12111.18
613.735	12262.72
613.93	12408.13
614.126	12444.99
614.321	13425.97
614.517	13460.79
614.712	13784.37
614.907	14241.06
615.103	14550.31
615.298	14601.51
615.493	15482.13
615.688	15662.35
615.884	16465.16
616.079	16487.68
616.274	17159.42
616.47	17118.46
616.665	17747.19
616.86	18461.93
617.055	18549.99
617.25	18937.06
617.445	19768.53
617.641	19600.6
617.836	20653.25
618.031	20718.79
618.226	21834.93
618.421	21826.74
618.616	22510.76
618.811	22803.62
619.006	23626.9
619.201	23698.58
619.396	24501.39
619.591	24890.5
619.786	25640.06
619.981	25846.9
620.176	26905.7
620.371	27067.49
620.566	27483.23
620.761	28312.66
620.956	28800.07
621.151	29367.36
621.346	30055.48
621.541	30315.57
621.735	31390.75
621.93	31542.3
622.125	32322.58
622.32	32549.9
622.515	33805.31
622.709	34057.21
622.904	34659.31
623.099	35202.02
623.294	36133.85
623.488	36400.08
623.683	37045.19
623.878	37045.19
624.072	38167.48
624.267	38237.11
624.462	39244.71
624.656	39672.74
624.851	40678.29
625.046	41143.18
625.24	41778.05
625.435	41573.25
625.629	42543.99
625.824	43027.31
626.018	43828.07
626.213	43492.2
626.407	44841.81
626.602	44692.31
626.796	45663.05
626.991	45996.87
627.185	46340.92
627.38	46461.76
627.574	46822.2
627.768	46883.64
627.963	47217.46
628.157	47049.52
628.352	47999.78
628.546	47133.49
628.74	47991.59
628.935	47381.29
629.129	47704.87
629.323	47094.58
629.517	46990.13
629.712	46785.33
629.906	46674.74
630.1	45796.17
630.294	46025.54
630.489	45306.7
630.683	45022.03
630.877	43393.9
631.071	43160.43
631.265	42716.02
631.459	41886.59
631.653	40903.57
631.848	39629.73
632.042	39369.64
632.236	38564.79
632.43	37149.64
632.624	36326.36
632.818	35050.47
633.012	34227.19
633.206	33016.84
633.4	31976.47
633.594	30843.95
633.788	30135.35
633.982	29142.08
634.176	28118.1
634.369	26657.9
634.563	25754.74
634.757	24896.64
634.951	24142.99
635.145	23405.72
635.339	22473.9
635.533	21138.62
635.726	20507.85
635.92	19430.62
636.114	18746.59
636.308	18250.99
636.501	17321.21
636.695	16557.32
636.889	16092.43
637.083	15396.12
637.276	14658.85
637.47	13884.72
637.664	13522.23
637.857	12997.95
638.051	12600.64
638.244	12051.78
638.438	11504.98
638.632	10974.55
638.825	10593.63
639.019	10210.66
639.212	9762.16
639.406	9579.89
639.599	9078.13
639.793	8525.18
639.986	8154.5
640.18	8185.22
640.373	7765.39
640.567	7427.47
640.76	7198.1
640.954	6886.81
641.147	6530.46
641.34	6360.48
641.534	6100.39
641.727	6059.43
641.92	5719.46
642.114	5438.89
642.307	5359.02
642.5	5080.5
642.694	4797.88
642.887	4582.84
643.08	4615.61
643.273	4232.64
643.467	4220.35
643.66	3982.79
643.853	3786.18
644.046	3700.17
644.239	3655.11
644.432	3399.12
644.626	3188.18
644.819	3212.75
645.012	3050.96
645.205	3028.43
645.398	3003.86
645.591	2764.25
645.784	2467.29
645.977	2393.56
646.17	2385.37
646.363	2352.6
646.556	2260.45
646.749	2041.31
646.942	2037.22
647.135	1981.92
647.328	1965.54
647.521	1994.21
647.714	1801.7
647.907	1811.94
648.099	1584.62
648.292	1609.19
648.485	1529.32
648.678	1439.21
648.871	1379.82
649.064	1433.07
649.256	1181.17
649.449	1256.94
649.642	1123.82
649.835	1095.15
650.027	1158.64
650.22	1054.19
650.413	1039.86
650.605	953.84
650.798	869.87
650.991	1007.09
651.183	851.44
651.376	945.65
651.568	902.64
651.761	849.4
651.954	892.4
652.146	806.39
652.339	804.34
652.531	816.63
652.724	644.6
652.916	728.56
653.109	540.15
653.301	738.8
653.494	701.94
653.686	654.84
653.879	730.61
654.071	642.55
654.263	478.71
654.456	556.54
654.648	613.88
654.84	480.76
655.033	484.86
655.225	570.87
655.417	355.83
655.61	579.06
655.802	554.49
655.994	474.62
656.186	351.74
656.379	435.71
656.571	366.07
656.763	392.7
656.955	390.65
657.148	380.41
657.34	572.92
657.532	337.4
657.724	333.31
657.916	394.75
658.108	445.95
658.3	392.7
658.492	304.64
658.684	304.64
658.876	314.88
659.068	271.87
659.26	263.68
659.452	255.48
659.644	255.48
659.836	386.55
660.028	304.64
660.22	212.48
660.412	329.21
660.604	198.14
660.796	196.09
660.988	288.25
661.18	249.34
661.372	249.34
661.563	241.15
661.755	247.29
661.947	153.09
662.139	183.81
662.331	210.43
662.522	167.42
662.714	179.71
662.906	95.74
663.097	220.67
663.289	151.04
663.481	142.85
663.673	220.67
663.864	200.19
664.056	216.57
664.247	144.89
664.439	280.06
664.631	163.33
664.822	323.07
665.014	171.52
665.205	212.48
665.397	146.94
665.588	230.91
665.78	220.67
665.971	171.52
666.163	130.56
666.354	200.19
666.546	165.37
666.737	142.85
666.929	169.47
667.12	50.69
667.311	202.24
667.503	165.37
667.694	251.39
667.885	157.18
668.077	208.38
668.268	108.03
668.459	157.18
668.651	216.57
668.842	210.43
669.033	116.22
669.224	62.98
669.416	339.45
669.607	112.13
669.798	89.6
669.989	173.57
670.18	116.22
670.371	163.33
670.563	130.56
670.754	200.19
670.945	194.05
671.136	206.33
671.327	87.55
671.518	155.13
671.709	261.63
671.9	212.48
672.091	267.77
672.282	179.71
672.473	146.94
672.664	58.88
672.855	146.94
673.046	140.8
673.237	247.29
673.428	224.76
673.619	179.71
673.809	132.61
674	202.24
674.191	148.99
674.382	173.57
674.573	116.22
674.764	165.37
674.954	157.18
675.145	73.21
675.336	85.5
675.527	60.93
675.717	48.64
675.908	124.41
676.099	112.13
676.289	204.28
676.48	120.32
676.671	181.76
676.861	85.5
677.052	169.47
677.243	103.93
677.433	7.68
677.624	183.81
677.814	146.94
678.005	81.41
678.195	220.67
678.386	62.98
678.576	148.99
678.767	142.85
678.957	140.8
679.148	235
679.338	200.19
679.529	218.62
679.719	179.71
679.909	212.48
680.1	245.24
680.29	196.09
680.481	40.45
680.671	255.48
680.861	228.86
681.052	206.33
681.242	157.18
681.432	247.29
681.622	222.72
681.813	148.99
682.003	175.61
682.193	93.69
682.383	232.96
682.573	220.67
682.764	212.48
682.954	235
683.144	275.96
683.334	79.36
683.524	167.42
683.714	134.65
683.904	237.05
684.094	175.61
684.284	232.96
684.474	376.31
684.664	202.24
684.854	200.19
685.044	179.71
685.234	175.61
685.424	204.28
685.614	222.72
685.804	357.88
685.994	222.72
686.184	192
686.374	255.48
686.564	220.67
686.753	122.37
686.943	112.13
687.133	167.42
687.323	165.37
687.513	261.63
687.702	204.28
687.892	208.38
688.082	288.25
688.272	226.81
688.461	204.28
688.651	345.59
688.841	198.14
689.03	122.37
689.22	132.61
689.41	300.54
689.599	247.29
689.789	126.46
689.979	402.94
690.168	230.91
690.358	214.52
690.547	204.28
690.737	243.2
690.926	308.73
691.116	275.96
691.305	267.77
691.495	280.06
691.684	196.09
691.874	155.13
692.063	214.52
692.252	226.81
692.442	212.48
692.631	228.86
692.82	161.28
693.01	194.05
693.199	179.71
693.388	200.19
693.578	239.1
693.767	304.64
693.956	249.34
694.146	228.86
694.335	280.06
694.524	208.38
694.713	304.64
694.902	226.81
695.092	163.33
695.281	257.53
695.47	179.71
695.659	132.61
695.848	255.48
696.037	138.75
696.226	294.4
696.415	245.24
696.604	339.45
696.793	255.48
696.982	157.18
697.171	271.87
697.36	153.09
697.549	239.1
697.738	85.5
697.927	208.38
698.116	183.81
698.305	216.57
698.494	275.96
698.683	165.37
698.872	345.59
699.061	151.04
699.25	151.04
699.438	245.24
699.627	218.62
699.816	321.02
700.005	81.41
700.193	144.89
700.382	194.05
700.571	210.43
700.76	321.02
700.948	243.2
701.137	237.05
701.326	257.53
701.514	85.5
701.703	194.05
701.892	196.09
702.08	425.47
702.269	187.9
702.457	77.31
702.646	175.61
702.834	232.96
703.023	175.61
703.212	265.72
703.4	183.81
703.589	171.52
703.777	138.75
703.965	116.22
704.154	192
704.342	85.5
704.531	56.83
704.719	173.57
704.907	267.77
705.096	91.65
705.284	153.09
705.472	194.05
705.661	288.25
705.849	243.2
706.037	230.91
706.226	157.18
706.414	218.62
706.602	114.17
706.79	280.06
706.979	54.78
707.167	253.44
707.355	108.03
707.543	237.05
707.731	169.47
707.919	157.18
708.107	93.69
708.296	181.76
708.484	120.32
708.672	142.85
708.86	239.1
709.048	148.99
709.236	151.04
709.424	175.61
709.612	212.48
709.8	99.84
709.988	165.37
710.176	185.85
710.364	316.92
710.551	112.13
710.739	155.13
710.927	189.95
711.115	155.13
711.303	302.59
711.491	302.59
711.679	159.23
711.866	189.95
712.054	198.14
712.242	142.85
712.43	216.57
712.617	46.59
712.805	198.14
712.993	110.08
713.181	93.69
713.368	232.96
713.556	132.61
713.744	153.09
713.931	376.31
714.119	284.16
714.306	204.28
714.494	198.14
714.682	181.76
714.869	120.32
715.057	198.14
715.244	161.28
715.432	175.61
715.619	132.61
715.807	202.24
715.994	198.14
716.182	208.38
716.369	255.48
716.556	179.71
716.744	148.99
716.931	52.74
717.119	247.29
717.306	249.34
717.493	308.73
717.681	169.47
717.868	194.05
718.055	118.27
718.242	163.33
718.43	114.17
718.617	302.59
718.804	200.19
718.991	243.2
719.179	247.29
719.366	198.14
719.553	288.25
719.74	230.91
719.927	124.41
720.114	206.33
720.301	159.23
720.488	87.55
720.676	185.85
720.863	300.54
721.05	357.88
721.237	241.15
721.424	239.1
721.611	179.71
721.798	232.96
721.985	165.37
722.172	237.05
722.358	267.77
722.545	251.39
722.732	200.19
722.919	304.64
723.106	226.81
723.293	239.1
723.48	185.85
723.667	132.61
723.853	282.11
724.04	241.15
724.227	347.64
724.414	183.81
724.6	239.1
724.787	357.88
724.974	290.3
725.161	185.85
725.347	128.51
725.534	271.87
725.72	249.34
725.907	253.44
726.094	265.72
726.28	230.91
726.467	261.63
726.653	134.65
726.84	337.4
727.027	349.69
727.213	189.95
727.4	282.11
727.586	286.2
727.773	275.96
727.959	202.24
728.145	161.28
728.332	198.14
728.518	165.37
728.705	235
728.891	237.05
729.077	192
729.264	146.94
729.45	183.81
729.636	331.26
729.823	212.48
730.009	220.67
730.195	267.77
730.382	308.73
730.568	177.66
730.754	310.78
730.94	198.14
731.126	189.95
731.313	275.96
731.499	220.67
731.685	255.48
731.871	218.62
732.057	253.44
732.243	263.68
732.429	228.86
732.615	325.12
732.801	140.8
732.987	267.77
733.173	218.62
733.359	185.85
733.545	323.07
733.731	263.68
733.917	300.54
734.103	249.34
734.289	292.35
734.475	194.05
734.661	349.69
734.847	187.9
735.033	294.4
735.219	261.63
735.404	157.18
735.59	198.14
735.776	175.61
735.962	200.19
736.148	296.44
736.333	271.87
736.519	230.91
736.705	255.48
736.89	267.77
737.076	226.81
737.262	237.05
737.447	173.57
737.633	222.72
737.819	257.53
738.004	228.86
738.19	280.06
738.375	312.83
738.561	261.63
738.747	278.01
738.932	151.04
739.118	427.51
739.303	347.64
739.489	339.45
739.674	275.96
739.859	179.71
740.045	259.58
740.23	263.68
740.416	142.85
740.601	339.45
740.786	269.82
740.972	243.2
741.157	181.76
741.342	204.28
741.528	140.8
741.713	212.48
741.898	235
742.084	284.16
742.269	214.52
742.454	237.05
742.639	329.21
742.824	300.54
743.01	290.3
743.195	402.94
743.38	163.33
743.565	218.62
743.75	241.15
743.935	284.16
744.12	300.54
744.305	138.75
744.49	243.2
744.675	275.96
744.86	241.15
745.045	286.2
745.23	226.81
745.415	161.28
745.6	339.45
745.785	196.09
745.97	224.76
746.155	171.52
746.34	269.82
746.525	202.24
746.71	292.35
746.895	110.08
747.079	132.61
747.264	239.1
747.449	263.68
747.634	282.11
747.819	263.68
748.003	151.04
748.188	216.57
748.373	284.16
748.557	288.25
748.742	206.33
748.927	208.38
749.111	173.57
749.296	198.14
749.481	278.01
749.665	243.2
749.85	202.24
750.034	249.34
750.219	284.16
750.404	206.33
750.588	140.8
750.773	126.46
750.957	157.18
751.141	128.51
751.326	267.77
751.51	48.64
751.695	202.24
751.879	103.93
752.064	314.88
752.248	79.36
752.432	312.83
752.617	304.64
752.801	259.58
752.985	171.52
753.17	210.43
753.354	226.81
753.538	122.37
753.722	132.61
753.907	196.09
754.091	58.88
754.275	228.86
754.459	58.88
754.643	112.13
754.828	214.52
755.012	212.48
755.196	105.98
755.38	230.91
755.564	177.66
755.748	130.56
755.932	167.42
756.116	179.71
756.3	271.87
756.484	97.79
756.668	206.33
756.852	-6.66
757.036	89.6
757.22	198.14
757.404	112.13
757.588	112.13
757.772	194.05
757.956	206.33
758.14	167.42
758.323	83.45
758.507	226.81
758.691	142.85
758.875	177.66
759.059	196.09
759.242	134.65
759.426	175.61
759.61	120.32
759.794	19.97
759.977	185.85
760.161	294.4
760.345	187.9
760.528	202.24
760.712	95.74
760.895	155.13
761.079	200.19
761.263	54.78
761.446	103.93
761.63	148.99
761.813	173.57
761.997	-29.18
762.18	89.6
762.364	144.89
762.547	9.73
762.731	157.18
762.914	54.78
763.098	32.26
763.281	140.8
763.464	91.65
763.648	120.32
763.831	58.88
764.015	54.78
764.198	138.75
764.381	179.71
764.564	118.27
764.748	132.61
764.931	120.32
765.114	128.51
765.297	130.56
765.481	60.93
765.664	79.36
765.847	93.69
766.03	161.28
766.213	71.17
766.397	89.6
766.58	3.58
766.763	155.13
766.946	60.93
767.129	77.31
767.312	87.55
767.495	52.74
767.678	89.6
767.861	122.37
768.044	-6.66
768.227	140.8
768.41	116.22
768.593	54.78
768.776	206.33
768.959	46.59
769.142	173.57
769.324	83.45
769.507	69.12
769.69	30.21
769.873	130.56
770.056	321.02
770.239	87.55
770.421	118.27
770.604	124.41
770.787	28.16
770.97	93.69
771.152	28.16
771.335	167.42
771.518	36.35
771.7	177.66
771.883	179.71
772.066	1.54
772.248	71.17
772.431	189.95
772.613	132.61
772.796	28.16
772.978	126.46
773.161	118.27
773.343	73.21
773.526	-16.9
773.708	-20.99
773.891	26.11
774.073	24.06
774.256	93.69
774.438	235
774.621	5.63
774.803	67.07
774.985	54.78
775.168	118.27
775.35	144.89
775.532	95.74
775.715	54.78
775.897	118.27
776.079	44.54
776.261	105.98
776.444	40.45
776.626	194.05
776.808	128.51
776.99	24.06
777.173	103.93
777.355	103.93
777.537	73.21
777.719	56.83
777.901	91.65
778.083	36.35
778.265	-35.33
778.447	52.74
778.629	48.64
778.811	5.63
778.993	83.45
779.175	79.36
779.357	69.12
779.539	-10.75
779.721	91.65
779.903	58.88
780.085	77.31
780.267	118.27
780.449	118.27
780.631	108.03
780.812	181.76
780.994	36.35
781.176	15.87
781.358	58.88
781.54	3.58
781.721	151.04
781.903	130.56
782.085	7.68
782.267	183.81
782.448	-82.43
782.63	11.78
782.812	34.3
782.993	179.71
783.175	130.56
783.357	71.17
783.538	97.79
783.72	71.17
783.901	95.74
784.083	85.5
784.264	79.36
784.446	-53.76
784.627	13.82
784.809	105.98
784.99	-8.7
785.172	159.23
785.353	48.64
785.535	58.88
785.716	32.26
785.897	3.58
786.079	69.12
786.26	124.41
786.441	140.8
786.623	-0.51
786.804	77.31
786.985	36.35
787.167	130.56
787.348	56.83
787.529	112.13
787.71	212.48
787.891	77.31
788.073	9.73
788.254	24.06
788.435	165.37
788.616	73.21
788.797	30.21
788.978	-0.51
789.159	-0.51
789.34	56.83
789.522	67.07
789.703	24.06
789.884	56.83
790.065	42.5
790.246	206.33
790.427	-29.18
790.607	175.61
790.788	179.71
790.969	-10.75
791.15	19.97
791.331	-59.9
791.512	40.45
791.693	-31.23
791.874	67.07
792.054	202.24
792.235	77.31
792.416	26.11
792.597	-80.38
792.778	28.16
792.958	108.03
793.139	1.54
793.32	42.5
793.5	9.73
793.681	103.93
793.862	101.89
794.042	-59.9
794.223	-86.53
794.404	-10.75
794.584	-70.14
794.765	30.21
794.945	-14.85
795.126	58.88
795.306	42.5
795.487	-80.38
795.667	46.59
795.848	67.07
796.028	67.07
796.209	17.92
796.389	103.93
796.57	65.02
796.75	-78.33
796.93	30.21
797.111	-104.96
797.291	-20.99
797.471	89.6
797.652	11.78
797.832	-27.14
798.012	185.85
798.192	99.84
798.373	-117.25
798.553	-2.56
798.733	95.74
798.913	-55.81
799.093	9.73
799.274	67.07
799.454	71.17
799.634	75.26
799.814	89.6
799.994	105.98
800.174	46.59
800.354	46.59
800.534	-72.19
800.714	122.37
800.894	-82.43
801.074	-68.09
801.254	-57.86
801.434	79.36
801.614	-18.94
801.794	-55.81
801.974	1732.07
802.154	1.54
802.334	91.65
802.514	-27.14
802.693	13.82
802.873	-25.09
803.053	46.59
803.233	42.5
803.413	62.98
803.592	11.78
803.772	28.16
803.952	28.16
804.131	-64
804.311	54.78
804.491	65.02
804.67	-57.86
804.85	-66.05
805.03	-37.38
805.209	124.41
805.389	-16.9
805.568	-80.38
805.748	22.02
805.928	40.45
806.107	58.88
806.287	48.64
806.466	101.89
806.646	-39.42
806.825	65.02
807.004	46.59
807.184	26.11
807.363	7.68
807.543	81.41
807.722	-14.85
807.901	30.21
808.081	40.45
808.26	-70.14
808.439	130.56
808.619	77.31
808.798	-64
808.977	-25.09
809.156	79.36
809.336	-2.56
809.515	89.6
809.694	-68.09
809.873	5.63
810.052	120.32
810.231	79.36
810.411	52.74
810.59	83.45
810.769	-23.04
810.948	67.07
811.127	-123.39
811.306	44.54
811.485	-25.09
811.664	67.07
811.843	17.92
812.022	-10.75
812.201	-29.18
812.38	-0.51
812.559	-2.56
812.737	9.73
812.916	-86.53
813.095	-102.91
813.274	-6.66
813.453	-55.81
813.632	67.07
813.811	9.73
813.989	-96.77
814.168	-8.7
814.347	-80.38
814.526	11.78
814.704	11.78
814.883	214.52
815.062	-37.38
815.24	40.45
815.419	28.16
815.598	103.93
815.776	-113.15
815.955	58.88
816.133	-139.77
816.312	44.54
816.49	-35.33
816.669	17.92
816.847	73.21
817.026	5.63
817.204	-39.42
817.383	124.41
817.561	-57.86
817.74	42.5
817.918	3.58
818.097	48.64
818.275	-84.48
818.453	50.69
818.632	30.21
818.81	-14.85
818.988	-23.04
819.167	-12.8
819.345	-10.75
819.523	-25.09
819.701	77.31
819.879	50.69
820.058	34.3
820.236	3.58
820.414	50.69
820.592	-35.33
820.77	24.06
820.948	-27.14
821.127	24.06
821.305	9.73
821.483	-66.05
821.661	97.79
821.839	42.5
822.017	-53.76
822.195	19.97
822.373	95.74
822.551	50.69
822.729	54.78
822.907	42.5
823.085	-8.7
823.262	22.02
823.44	-94.72
823.618	50.69
823.796	32.26
823.974	15.87
824.152	-51.71
824.329	-31.23
824.507	-2.56
824.685	140.8
824.863	36.35
825.04	36.35
825.218	71.17
825.396	67.07
825.574	128.51
825.751	116.22
825.929	13.82
826.107	44.54
826.284	1.54
826.462	77.31
826.639	-70.14
826.817	-121.34
826.994	28.16
827.172	-74.24
827.349	71.17
827.527	30.21
827.704	89.6
827.882	87.55
828.059	-66.05
828.237	-25.09
828.414	56.83
828.591	-104.96
828.769	81.41
828.946	-33.28
829.124	50.69
829.301	7.68
829.478	52.74
829.655	-10.75
829.833	22.02
830.01	-121.34
830.187	83.45
830.364	60.93
830.542	54.78
830.719	97.79
830.896	-45.57
831.073	103.93
831.25	105.98
831.427	38.4
831.604	-0.51
831.782	-27.14
831.959	13.82
832.136	13.82
832.313	-10.75
832.49	-0.51
832.667	22.02
832.844	-25.09
833.021	99.84
833.198	-76.29
833.374	-23.04
833.551	97.79
833.728	-2.56
833.905	38.4
834.082	-25.09
834.259	40.45
834.436	105.98
834.612	-12.8
834.789	65.02
834.966	13.82
835.143	19.97
835.319	-45.57
835.496	124.41
835.673	-27.14
835.85	40.45
836.026	89.6
836.203	30.21
836.38	-29.18
836.556	46.59
836.733	17.92
836.909	173.57
837.086	-0.51
837.262	-104.96
837.439	-31.23
837.616	-10.75
837.792	11.78
837.968	36.35
838.145	-51.71
838.321	77.31
838.498	28.16
838.674	69.12
838.851	60.93
839.027	48.64
839.203	1.54
839.38	34.3
839.556	17.92
839.732	155.13
839.909	-14.85
840.085	71.17
840.261	-41.47
840.437	13.82
840.614	-25.09
840.79	65.02
840.966	87.55
841.142	44.54
841.318	5.63
841.494	101.89
841.671	83.45
841.847	-76.29
842.023	-18.94
842.199	11.78
842.375	179.71
842.551	-121.34
842.727	-16.9
842.903	196.09
843.079	-8.7
843.255	32.26
843.431	-49.66
843.607	56.83
843.783	-78.33
843.959	-6.66
844.134	-68.09
844.31	148.99
844.486	32.26
844.662	-27.14
844.838	-51.71
845.013	26.11
845.189	108.03
845.365	-23.04
845.541	38.4
845.716	-8.7
845.892	120.32
846.068	-53.76
846.244	-43.52
846.419	5.63
846.595	-47.62
846.77	-33.28
846.946	83.45
847.122	5.63
847.297	-0.51
847.473	157.18
847.648	-76.29
847.824	9.73
847.999	-45.57
848.175	-2.56
848.35	65.02
848.526	22.02
848.701	108.03
848.876	108.03
849.052	93.69
849.227	40.45
849.403	73.21
849.578	15.87
849.753	34.3
849.929	34.3
850.104	-64
850.279	17.92
850.454	44.54
850.63	9.73
850.805	62.98
850.98	28.16
851.155	5.63
851.33	19.97
851.505	-47.62
851.681	52.74
851.856	-20.99
852.031	1.54
852.206	75.26
852.381	-12.8
852.556	24.06
852.731	69.12
852.906	83.45
853.081	65.02
853.256	73.21
853.431	-41.47
853.606	5.63
853.781	1.54
853.956	-43.52
854.131	54.78
854.305	-86.53
854.48	-25.09
854.655	-84.48
854.83	-80.38
855.005	-49.66
855.18	56.83
855.354	-45.57
855.529	17.92
855.704	-80.38
855.879	81.41
856.053	-90.62
856.228	87.55
856.403	-18.94
856.577	32.26
856.752	-141.82
856.926	-2.56
857.101	11.78
857.276	-53.76
857.45	95.74
857.625	7.68
857.799	54.78
857.974	52.74
858.148	-84.48
858.323	75.26
858.497	-43.52
858.672	-10.75
858.846	-70.14
859.02	122.37
859.195	-72.19
859.369	-55.81
859.543	58.88
859.718	-41.47
859.892	38.4
860.066	-8.7
860.241	-0.51
860.415	-37.38
860.589	62.98
860.763	-14.85
860.938	-39.42
861.112	38.4
861.286	-59.9
861.46	19.97
861.634	-14.85
861.808	97.79
861.982	-68.09
862.157	-49.66
862.331	-72.19
862.505	-102.91
862.679	-2.56
862.853	56.83
863.027	11.78
863.201	138.75
863.375	-25.09
863.549	30.21
863.722	-23.04
863.896	87.55
864.07	-66.05
864.244	-55.81
864.418	54.78
864.592	73.21
864.766	46.59
864.939	-8.7
865.113	-41.47
865.287	93.69
865.461	-59.9
865.634	67.07
865.808	15.87
865.982	-49.66
866.156	7.68
866.329	-88.57
866.503	46.59
866.676	22.02
866.85	54.78
867.024	-41.47
867.197	38.4
867.371	54.78
867.544	73.21
867.718	-57.86
867.891	85.5
868.065	-74.24
868.238	-35.33
868.412	112.13
868.585	17.92
868.759	38.4
868.932	9.73
869.105	-92.67
869.279	22.02
869.452	-41.47
869.625	-78.33
869.799	5.63
869.972	-119.29
870.145	-33.28
870.319	130.56
870.492	-14.85
870.665	36.35
870.838	-41.47
871.011	-158.21
871.185	-18.94
871.358	-6.66
871.531	73.21
871.704	3.58
871.877	83.45
872.05	-8.7
872.223	-37.38
872.396	62.98
872.569	38.4
872.742	-20.99
872.915	65.02
873.088	7.68
873.261	-143.87
873.434	110.08
873.607	-4.61
873.78	110.08
873.953	-107.01
874.126	42.5
874.299	24.06
874.471	19.97
874.644	99.84
874.817	34.3
874.99	81.41
875.163	-47.62
875.335	62.98
875.508	15.87
875.681	95.74
875.853	58.88
876.026	40.45
876.199	17.92
876.371	69.12
876.544	-10.75
876.717	48.64
876.889	-80.38
877.062	19.97
877.234	-92.67
877.407	7.68
877.579	22.02
877.752	24.06
877.924	42.5
878.097	44.54
878.269	-25.09
878.442	-29.18
878.614	42.5
878.786	56.83
878.959	19.97
879.131	-27.14
879.303	-29.18
879.476	-6.66
879.648	108.03
879.82	79.36
879.993	-59.9
880.165	19.97
880.337	-45.57
880.509	48.64
880.681	-82.43
880.854	-0.51
881.026	28.16
881.198	165.37
881.37	-76.29
881.542	-61.95
881.714	-23.04
881.886	-10.75
882.058	-2.56
882.23	62.98
882.402	52.74
882.574	-8.7
882.746	138.75
882.918	116.22
883.09	62.98
883.262	-27.14
883.434	30.21
883.606	-92.67
883.778	-6.66
883.95	120.32
884.122	-29.18
884.293	48.64
884.465	60.93
884.637	114.17
884.809	-92.67
884.98	73.21
885.152	75.26
885.324	67.07
885.496	-10.75
885.667	-74.24
885.839	-2.56
886.011	89.6
886.182	13.82
886.354	42.5
886.525	-4.61
886.697	-0.51
886.869	-80.38
887.04	13.82
887.212	75.26
887.383	171.52
887.555	-16.9
887.726	-74.24
887.897	-29.18
888.069	5.63
888.24	132.61
888.412	56.83
888.583	-2.56
888.754	11.78
888.926	-92.67
889.097	-57.86
889.268	-10.75
889.44	-27.14
889.611	-49.66
889.782	-20.99
889.953	38.4
890.125	73.21
890.296	-64
890.467	-0.51
890.638	-109.05
890.809	-6.66
890.98	-53.76
891.151	-6.66
891.323	3.58
891.494	-84.48
891.665	48.64
891.836	9.73
892.007	11.78
892.178	22.02
892.349	52.74
892.52	-47.62
892.691	17.92
892.862	-55.81
893.032	-100.86
893.203	5.63
893.374	30.21
893.545	73.21
893.716	-4.61
893.887	46.59
894.057	7.68
894.228	67.07
894.399	-20.99
894.57	112.13
894.74	24.06
894.911	97.79
895.082	77.31
895.253	-41.47
895.423	32.26
895.594	-12.8
895.764	26.11
895.935	-92.67
896.106	56.83
896.276	-90.62
896.447	46.59
896.617	-72.19
896.788	-109.05
896.958	7.68
897.129	-8.7
897.299	-27.14
897.47	128.51
897.64	71.17
897.81	-16.9
897.981	1.54
898.151	-94.72
898.322	-0.51
898.492	42.5
898.662	-25.09
898.832	-139.77
899.003	-78.33
899.173	62.98
899.343	-98.81
899.513	-64
