Data from USB4F104151__115__10-45-54-960.txt Node

Date: Wed Feb 26 10:45:54 EST 2025
User: louis
Spectrometer: USB4F10415
Trigger mode: 4
Integration Time (sec): 1.000000E-1
Scans to average: 1
Electric dark correction enabled: true
Nonlinearity correction enabled: false
Boxcar width: 0
XAxis mode: Wavelengths
Number of Pixels in Spectrum: 3648
>>>>>Begin Spectral Data<<<<<
178.204	-364.88
178.424	-364.88
178.644	-364.88
178.864	-385.36
179.084	-371.02
179.304	30.38
179.524	32.43
179.744	-53.59
179.964	1.71
180.184	18.09
180.404	-10.58
180.624	-39.25
180.844	-37.2
181.064	-69.97
181.283	42.67
181.503	36.52
181.723	48.81
181.943	-47.44
182.163	126.63
182.383	18.09
182.602	-8.53
182.822	128.68
183.042	28.33
183.262	-18.77
183.482	3.75
183.701	-20.82
183.921	26.28
184.141	-26.96
184.361	36.52
184.58	73.39
184.8	85.67
185.02	87.72
185.239	-10.58
185.459	40.62
185.679	116.39
185.898	-43.35
186.118	77.48
186.338	69.29
186.557	143.02
186.777	3.75
186.997	-22.87
187.216	11.95
187.436	181.93
187.655	102.06
187.875	65.19
188.095	28.33
188.314	120.49
188.534	13.99
188.753	-63.83
188.973	110.25
189.192	151.21
189.412	1.71
189.631	-14.68
189.851	75.43
190.07	159.4
190.29	5.8
190.509	-22.87
190.729	-0.34
190.948	102.06
191.168	186.02
191.387	97.96
191.607	-4.44
191.826	140.97
192.045	40.62
192.265	73.39
192.484	-16.73
192.704	32.43
192.923	-47.44
193.142	116.39
193.362	112.3
193.581	159.4
193.8	95.91
194.02	75.43
194.239	77.48
194.458	67.24
194.678	73.39
194.897	-39.25
195.116	85.67
195.335	104.11
195.555	97.96
195.774	132.78
195.993	155.3
196.212	67.24
196.432	-22.87
196.651	-14.68
196.87	44.71
197.089	222.89
197.308	40.62
197.528	108.2
197.747	32.43
197.966	63.15
198.185	169.64
198.404	1.71
198.623	171.69
198.842	181.93
199.062	40.62
199.281	89.77
199.5	32.43
199.719	95.91
199.938	104.11
200.157	16.04
200.376	167.59
200.595	151.21
200.814	73.39
201.033	42.67
201.252	155.3
201.471	91.82
201.69	79.53
201.909	38.57
202.128	97.96
202.347	57
202.566	28.33
202.785	-94.55
203.004	-16.73
203.223	218.79
203.442	85.67
203.661	61.1
203.879	126.63
204.098	167.59
204.317	44.71
204.536	57
204.755	153.26
204.974	120.49
205.193	40.62
205.411	104.11
205.63	188.07
205.849	126.63
206.068	18.09
206.287	1.71
206.505	188.07
206.724	9.9
206.943	-0.34
207.162	30.38
207.381	100.01
207.599	54.95
207.818	20.14
208.037	1.71
208.255	63.15
208.474	44.71
208.693	50.86
208.911	24.23
209.13	52.91
209.349	44.71
209.567	136.87
209.786	87.72
210.005	24.23
210.223	85.67
210.442	-96.6
210.661	87.72
210.879	91.82
211.098	42.67
211.316	40.62
211.535	40.62
211.753	30.38
211.972	44.71
212.191	-49.49
212.409	40.62
212.628	44.71
212.846	38.57
213.065	100.01
213.283	63.15
213.502	7.85
213.72	44.71
213.938	89.77
214.157	-0.34
214.375	124.58
214.594	18.09
214.812	52.91
215.031	71.34
215.249	93.87
215.467	95.91
215.686	85.67
215.904	77.48
216.122	57
216.341	157.35
216.559	81.58
216.778	157.35
216.996	165.54
217.214	-31.06
217.432	20.14
217.651	11.95
217.869	50.86
218.087	97.96
218.306	-49.49
218.524	61.1
218.742	-12.63
218.96	145.06
219.179	61.1
219.397	-12.63
219.615	280.23
219.833	147.11
220.051	-51.54
220.27	198.31
220.488	159.4
220.706	44.71
220.924	-12.63
221.142	87.72
221.36	1.71
221.578	50.86
221.796	-2.39
222.015	38.57
222.233	50.86
222.451	165.54
222.669	24.23
222.887	69.29
223.105	22.19
223.323	73.39
223.541	40.62
223.759	20.14
223.977	104.11
224.195	116.39
224.413	143.02
224.631	44.71
224.849	3.75
225.067	263.85
225.285	61.1
225.503	-2.39
225.721	-51.54
225.939	-10.58
226.157	-18.77
226.375	186.02
226.592	32.43
226.81	26.28
227.028	122.54
227.246	143.02
227.464	97.96
227.682	65.19
227.9	69.29
228.117	59.05
228.335	28.33
228.553	22.19
228.771	34.47
228.989	83.63
229.206	104.11
229.424	7.85
229.642	57
229.86	-24.92
230.077	140.97
230.295	44.71
230.513	46.76
230.731	7.85
230.948	106.15
231.166	165.54
231.384	-74.07
231.601	5.8
231.819	147.11
232.037	-12.63
232.254	-35.16
232.472	57
232.689	18.09
232.907	140.97
233.125	1.71
233.342	34.47
233.56	1.71
233.777	-2.39
233.995	73.39
234.213	48.81
234.43	155.3
234.648	59.05
234.865	-51.54
235.083	79.53
235.3	36.52
235.518	143.02
235.735	151.21
235.953	106.15
236.17	54.95
236.388	30.38
236.605	42.67
236.822	100.01
237.04	77.48
237.257	95.91
237.475	-26.96
237.692	16.04
237.909	93.87
238.127	-14.68
238.344	73.39
238.562	20.14
238.779	-31.06
238.996	-41.3
239.214	106.15
239.431	100.01
239.648	38.57
239.865	87.72
240.083	40.62
240.3	83.63
240.517	-6.49
240.735	28.33
240.952	202.41
241.169	38.57
241.386	226.98
241.603	26.28
241.821	34.47
242.038	122.54
242.255	75.43
242.472	-18.77
242.689	46.76
242.907	145.06
243.124	102.06
243.341	110.25
243.558	-49.49
243.775	-80.21
243.992	-45.4
244.209	75.43
244.426	145.06
244.643	75.43
244.86	3.75
245.078	65.19
245.295	128.68
245.512	34.47
245.729	-59.73
245.946	48.81
246.163	67.24
246.38	57
246.597	38.57
246.814	44.71
247.031	69.29
247.248	28.33
247.464	87.72
247.681	36.52
247.898	42.67
248.115	36.52
248.332	-12.63
248.549	89.77
248.766	167.59
248.983	81.58
249.2	9.9
249.417	124.58
249.633	59.05
249.85	57
250.067	75.43
250.284	52.91
250.501	65.19
250.717	44.71
250.934	-39.25
251.151	32.43
251.368	67.24
251.585	69.29
251.801	95.91
252.018	-26.96
252.235	73.39
252.451	-20.82
252.668	20.14
252.885	95.91
253.102	52.91
253.318	59.05
253.535	67.24
253.752	11.95
253.968	26.28
254.185	-14.68
254.401	132.78
254.618	69.29
254.835	-24.92
255.051	102.06
255.268	122.54
255.484	93.87
255.701	32.43
255.917	85.67
256.134	20.14
256.351	67.24
256.567	-51.54
256.784	20.14
257	-69.97
257.217	175.78
257.433	167.59
257.65	73.39
257.866	145.06
258.082	3.75
258.299	-14.68
258.515	40.62
258.732	38.57
258.948	-67.92
259.165	89.77
259.381	-24.92
259.597	59.05
259.814	65.19
260.03	18.09
260.246	22.19
260.463	120.49
260.679	128.68
260.895	106.15
261.112	175.78
261.328	57
261.544	67.24
261.761	165.54
261.977	3.75
262.193	-47.44
262.409	132.78
262.626	79.53
262.842	52.91
263.058	38.57
263.274	77.48
263.49	67.24
263.707	91.82
263.923	130.73
264.139	-39.25
264.355	-10.58
264.571	69.29
264.787	65.19
265.004	169.64
265.22	22.19
265.436	11.95
265.652	28.33
265.868	73.39
266.084	-26.96
266.3	83.63
266.516	97.96
266.732	157.35
266.948	-24.92
267.164	34.47
267.38	69.29
267.596	13.99
267.812	134.82
268.028	157.35
268.244	46.76
268.46	52.91
268.676	3.75
268.892	87.72
269.108	-0.34
269.324	-2.39
269.54	-24.92
269.756	100.01
269.972	38.57
270.188	46.76
270.403	-63.83
270.619	42.67
270.835	52.91
271.051	75.43
271.267	-2.39
271.483	-61.78
271.698	69.29
271.914	59.05
272.13	54.95
272.346	44.71
272.562	85.67
272.777	26.28
272.993	-65.88
273.209	57
273.425	69.29
273.64	-26.96
273.856	57
274.072	-22.87
274.287	54.95
274.503	54.95
274.719	61.1
274.934	-63.83
275.15	-16.73
275.366	44.71
275.581	-86.36
275.797	71.34
276.012	59.05
276.228	44.71
276.444	65.19
276.659	65.19
276.875	-57.68
277.09	-16.73
277.306	42.67
277.521	143.02
277.737	77.48
277.952	132.78
278.168	-67.92
278.383	42.67
278.599	63.15
278.814	46.76
279.03	32.43
279.245	136.87
279.461	20.14
279.676	120.49
279.892	-24.92
280.107	5.8
280.322	-26.96
280.538	128.68
280.753	-22.87
280.969	52.91
281.184	44.71
281.399	89.77
281.615	-31.06
281.83	44.71
282.045	-20.82
282.26	32.43
282.476	26.28
282.691	83.63
282.906	63.15
283.122	102.06
283.337	-10.58
283.552	28.33
283.767	-8.53
283.983	134.82
284.198	75.43
284.413	36.52
284.628	-12.63
284.843	89.77
285.058	145.06
285.274	69.29
285.489	-53.59
285.704	54.95
285.919	-51.54
286.134	-2.39
286.349	36.52
286.564	-29.01
286.779	128.68
286.995	-8.53
287.21	-76.12
287.425	110.25
287.64	65.19
287.855	108.2
288.07	-41.3
288.285	134.82
288.5	89.77
288.715	34.47
288.93	-8.53
289.145	-49.49
289.36	85.67
289.575	16.04
289.79	159.4
290.004	-2.39
290.219	73.39
290.434	-20.82
290.649	34.47
290.864	22.19
291.079	-22.87
291.294	165.54
291.509	79.53
291.724	77.48
291.938	-12.63
292.153	110.25
292.368	46.76
292.583	42.67
292.798	3.75
293.012	104.11
293.227	77.48
293.442	-20.82
293.657	138.92
293.871	93.87
294.086	85.67
294.301	198.31
294.516	89.77
294.73	85.67
294.945	-20.82
295.16	-61.78
295.374	108.2
295.589	65.19
295.804	83.63
296.018	118.44
296.233	128.68
296.447	50.86
296.662	-10.58
296.877	124.58
297.091	114.34
297.306	46.76
297.52	30.38
297.735	81.58
297.949	136.87
298.164	32.43
298.378	77.48
298.593	-47.44
298.807	-14.68
299.022	30.38
299.236	145.06
299.451	28.33
299.665	57
299.88	38.57
300.094	120.49
300.309	9.9
300.523	26.28
300.737	-35.16
300.952	91.82
301.166	136.87
301.381	-24.92
301.595	24.23
301.809	-8.53
302.024	54.95
302.238	24.23
302.452	216.74
302.667	11.95
302.881	126.63
303.095	81.58
303.309	75.43
303.524	-2.39
303.738	91.82
303.952	-67.92
304.166	52.91
304.381	-106.84
304.595	126.63
304.809	18.09
305.023	-6.49
305.237	11.95
305.452	11.95
305.666	61.1
305.88	44.71
306.094	93.87
306.308	67.24
306.522	104.11
306.736	40.62
306.95	89.77
307.164	91.82
307.379	-18.77
307.593	175.78
307.807	79.53
308.021	54.95
308.235	87.72
308.449	-47.44
308.663	40.62
308.877	212.65
309.091	16.04
309.305	42.67
309.519	-96.6
309.733	136.87
309.947	-51.54
310.161	30.38
310.374	95.91
310.588	153.26
310.802	20.14
311.016	79.53
311.23	114.34
311.444	-37.2
311.658	61.1
311.872	100.01
312.085	177.83
312.299	204.46
312.513	134.82
312.727	34.47
312.941	-22.87
313.154	-0.34
313.368	52.91
313.582	44.71
313.796	87.72
314.009	13.99
314.223	77.48
314.437	106.15
314.651	100.01
314.864	1.71
315.078	-78.16
315.292	61.1
315.505	40.62
315.719	32.43
315.933	65.19
316.146	32.43
316.36	-12.63
316.573	155.3
316.787	81.58
317.001	93.87
317.214	16.04
317.428	81.58
317.641	-57.68
317.855	-37.2
318.068	93.87
318.282	93.87
318.495	181.93
318.709	83.63
318.922	71.34
319.136	153.26
319.349	128.68
319.563	-6.49
319.776	65.19
319.99	-14.68
320.203	151.21
320.417	36.52
320.63	134.82
320.843	138.92
321.057	81.58
321.27	-16.73
321.483	59.05
321.697	149.16
321.91	28.33
322.124	108.2
322.337	83.63
322.55	22.19
322.763	11.95
322.977	-39.25
323.19	77.48
323.403	71.34
323.617	83.63
323.83	97.96
324.043	26.28
324.256	57
324.469	-8.53
324.683	132.78
324.896	-57.68
325.109	95.91
325.322	-90.45
325.535	100.01
325.748	120.49
325.962	5.8
326.175	28.33
326.388	38.57
326.601	108.2
326.814	42.67
327.027	24.23
327.24	188.07
327.453	-61.78
327.666	44.71
327.879	186.02
328.092	122.54
328.305	145.06
328.518	26.28
328.731	50.86
328.944	57
329.157	59.05
329.37	50.86
329.583	235.18
329.796	93.87
330.009	18.09
330.222	46.76
330.435	128.68
330.648	24.23
330.861	50.86
331.073	34.47
331.286	67.24
331.499	120.49
331.712	11.95
331.925	120.49
332.138	-14.68
332.35	81.58
332.563	13.99
332.776	145.06
332.989	24.23
333.202	18.09
333.414	85.67
333.627	54.95
333.84	28.33
334.053	52.91
334.265	34.47
334.478	22.19
334.691	-14.68
334.903	46.76
335.116	30.38
335.329	-0.34
335.541	46.76
335.754	149.16
335.966	5.8
336.179	18.09
336.392	65.19
336.604	65.19
336.817	114.34
337.029	3.75
337.242	7.85
337.454	140.97
337.667	67.24
337.88	171.69
338.092	151.21
338.305	95.91
338.517	-0.34
338.729	157.35
338.942	147.11
339.154	-80.21
339.367	-37.2
339.579	97.96
339.792	3.75
340.004	104.11
340.217	28.33
340.429	67.24
340.641	-10.58
340.854	-26.96
341.066	46.76
341.278	161.45
341.491	188.07
341.703	42.67
341.915	38.57
342.128	28.33
342.34	32.43
342.552	3.75
342.764	13.99
342.977	34.47
343.189	87.72
343.401	65.19
343.613	-10.58
343.826	63.15
344.038	57
344.25	57
344.462	-26.96
344.674	126.63
344.886	30.38
345.099	44.71
345.311	65.19
345.523	1.71
345.735	-74.07
345.947	65.19
346.159	34.47
346.371	13.99
346.583	42.67
346.795	120.49
347.007	42.67
347.219	134.82
347.431	54.95
347.643	106.15
347.855	-26.96
348.067	108.2
348.279	1.71
348.491	9.9
348.703	67.24
348.915	59.05
349.127	-8.53
349.339	50.86
349.551	-4.44
349.763	122.54
349.975	-16.73
350.187	48.81
350.399	124.58
350.61	100.01
350.822	69.29
351.034	57
351.246	38.57
351.458	52.91
351.669	104.11
351.881	157.35
352.093	161.45
352.305	126.63
352.517	63.15
352.728	175.78
352.94	67.24
353.152	116.39
353.363	48.81
353.575	136.87
353.787	229.03
353.999	28.33
354.21	212.65
354.422	9.9
354.633	-14.68
354.845	110.25
355.057	46.76
355.268	9.9
355.48	77.48
355.692	7.85
355.903	54.95
356.115	-106.84
356.326	-104.79
356.538	147.11
356.749	122.54
356.961	159.4
357.172	26.28
357.384	-20.82
357.595	198.31
357.807	73.39
358.018	30.38
358.23	63.15
358.441	112.3
358.653	13.99
358.864	13.99
359.075	-61.78
359.287	95.91
359.498	181.93
359.709	71.34
359.921	73.39
360.132	89.77
360.344	46.76
360.555	26.28
360.766	42.67
360.977	38.57
361.189	89.77
361.4	26.28
361.611	102.06
361.823	114.34
362.034	93.87
362.245	-22.87
362.456	46.76
362.667	57
362.879	-4.44
363.09	100.01
363.301	54.95
363.512	136.87
363.723	-43.35
363.935	22.19
364.146	163.5
364.357	3.75
364.568	73.39
364.779	-115.03
364.99	81.58
365.201	-4.44
365.412	175.78
365.623	-74.07
365.834	36.52
366.045	69.29
366.256	97.96
366.467	106.15
366.678	-12.63
366.889	81.58
367.1	-16.73
367.311	194.22
367.522	63.15
367.733	163.5
367.944	63.15
368.155	-41.3
368.366	126.63
368.577	108.2
368.788	97.96
368.999	65.19
369.209	26.28
369.42	272.04
369.631	206.5
369.842	52.91
370.053	-0.34
370.264	110.25
370.474	-78.16
370.685	79.53
370.896	83.63
371.107	118.44
371.317	149.16
371.528	59.05
371.739	100.01
371.95	81.58
372.16	110.25
372.371	-26.96
372.582	20.14
372.792	30.38
373.003	79.53
373.214	71.34
373.424	50.86
373.635	-61.78
373.846	75.43
374.056	120.49
374.267	54.95
374.477	149.16
374.688	16.04
374.898	83.63
375.109	77.48
375.319	93.87
375.53	116.39
375.74	181.93
375.951	1.71
376.161	42.67
376.372	145.06
376.582	-22.87
376.793	102.06
377.003	13.99
377.214	79.53
377.424	177.83
377.635	87.72
377.845	-14.68
378.055	147.11
378.266	-100.69
378.476	48.81
378.686	26.28
378.897	108.2
379.107	134.82
379.317	116.39
379.528	16.04
379.738	87.72
379.948	-37.2
380.158	169.64
380.369	36.52
380.579	75.43
380.789	28.33
380.999	26.28
381.21	32.43
381.42	212.65
381.63	7.85
381.84	42.67
382.05	83.63
382.261	79.53
382.471	124.58
382.681	50.86
382.891	140.97
383.101	95.91
383.311	11.95
383.521	-33.11
383.731	13.99
383.941	50.86
384.151	-4.44
384.361	-14.68
384.571	65.19
384.781	87.72
384.991	147.11
385.201	167.59
385.411	122.54
385.621	85.67
385.831	-4.44
386.041	61.1
386.251	9.9
386.461	59.05
386.671	63.15
386.881	9.9
387.091	3.75
387.301	75.43
387.511	93.87
387.72	112.3
387.93	97.96
388.14	-0.34
388.35	71.34
388.56	116.39
388.769	91.82
388.979	69.29
389.189	-67.92
389.399	-72.02
389.609	171.69
389.818	65.19
390.028	85.67
390.238	114.34
390.447	-12.63
390.657	26.28
390.867	77.48
391.076	-69.97
391.286	81.58
391.496	46.76
391.705	20.14
391.915	126.63
392.125	100.01
392.334	-0.34
392.544	85.67
392.753	28.33
392.963	-39.25
393.172	106.15
393.382	-37.2
393.591	208.55
393.801	81.58
394.01	177.83
394.22	57
394.429	5.8
394.639	44.71
394.848	63.15
395.058	145.06
395.267	40.62
395.477	171.69
395.686	16.04
395.895	224.94
396.105	198.31
396.314	65.19
396.524	32.43
396.733	104.11
396.942	102.06
397.152	89.77
397.361	69.29
397.57	120.49
397.78	83.63
397.989	83.63
398.198	145.06
398.407	59.05
398.617	-0.34
398.826	48.81
399.035	16.04
399.244	134.82
399.453	81.58
399.663	34.47
399.872	9.9
400.081	-29.01
400.29	192.17
400.499	18.09
400.708	118.44
400.917	87.72
401.127	9.9
401.336	-12.63
401.545	110.25
401.754	116.39
401.963	79.53
402.172	34.47
402.381	24.23
402.59	24.23
402.799	46.76
403.008	140.97
403.217	30.38
403.426	173.74
403.635	-49.49
403.844	40.62
404.053	54.95
404.262	-0.34
404.471	226.98
404.68	83.63
404.888	48.81
405.097	-12.63
405.306	61.1
405.515	54.95
405.724	48.81
405.933	100.01
406.142	-0.34
406.35	75.43
406.559	22.19
406.768	97.96
406.977	134.82
407.185	46.76
407.394	87.72
407.603	-47.44
407.812	77.48
408.02	163.5
408.229	97.96
408.438	40.62
408.646	-86.36
408.855	44.71
409.064	81.58
409.272	79.53
409.481	73.39
409.69	-22.87
409.898	16.04
410.107	93.87
410.315	114.34
410.524	22.19
410.733	102.06
410.941	100.01
411.15	75.43
411.358	155.3
411.567	79.53
411.775	52.91
411.984	63.15
412.192	32.43
412.401	-10.58
412.609	179.88
412.818	134.82
413.026	57
413.234	30.38
413.443	34.47
413.651	-18.77
413.86	34.47
414.068	85.67
414.276	159.4
414.485	-29.01
414.693	173.74
414.901	183.98
415.11	65.19
415.318	147.11
415.526	30.38
415.734	91.82
415.943	32.43
416.151	188.07
416.359	69.29
416.567	34.47
416.776	97.96
416.984	138.92
417.192	147.11
417.4	-45.4
417.608	38.57
417.817	-76.12
418.025	149.16
418.233	140.97
418.441	-20.82
418.649	-76.12
418.857	24.23
419.065	181.93
419.273	-0.34
419.481	77.48
419.689	100.01
419.897	65.19
420.105	5.8
420.313	75.43
420.521	149.16
420.729	157.35
420.937	42.67
421.145	28.33
421.353	89.77
421.561	194.22
421.769	147.11
421.977	-41.3
422.185	120.49
422.393	57
422.601	122.54
422.809	75.43
423.017	46.76
423.224	26.28
423.432	132.78
423.64	65.19
423.848	216.74
424.056	1.71
424.263	161.45
424.471	40.62
424.679	194.22
424.887	30.38
425.094	112.3
425.302	89.77
425.51	61.1
425.718	120.49
425.925	114.34
426.133	85.67
426.341	224.94
426.548	11.95
426.756	61.1
426.964	132.78
427.171	11.95
427.379	87.72
427.586	161.45
427.794	114.34
428.001	167.59
428.209	89.77
428.417	218.79
428.624	79.53
428.832	134.82
429.039	118.44
429.247	89.77
429.454	226.98
429.662	151.21
429.869	114.34
430.076	114.34
430.284	202.41
430.491	257.7
430.699	112.3
430.906	253.61
431.114	83.63
431.321	93.87
431.528	116.39
431.736	114.34
431.943	155.3
432.15	229.03
432.358	173.74
432.565	235.18
432.772	5.8
432.979	145.06
433.187	143.02
433.394	229.03
433.601	138.92
433.808	243.37
434.016	214.7
434.223	136.87
434.43	188.07
434.637	208.55
434.844	163.5
435.052	169.64
435.259	204.46
435.466	308.9
435.673	333.48
435.88	274.09
436.087	310.95
436.294	274.09
436.501	368.29
436.708	239.27
436.915	229.03
437.122	292.52
437.329	229.03
437.537	339.62
437.743	319.14
437.95	384.68
438.157	366.25
438.364	382.63
438.571	269.99
438.778	349.86
438.985	401.06
439.192	507.55
439.399	411.3
439.606	417.44
439.813	491.17
440.02	523.94
440.227	700.06
440.433	468.64
440.64	566.95
440.847	515.75
441.054	614.05
441.261	659.1
441.467	624.29
441.674	466.6
441.881	769.69
442.088	550.56
442.294	704.16
442.501	738.98
442.708	730.78
442.914	708.26
443.121	781.98
443.328	767.65
443.534	917.15
443.741	933.53
443.948	726.69
444.154	941.72
444.361	992.92
444.568	1009.31
444.774	992.92
444.981	978.59
445.187	1097.37
445.394	978.59
445.6	1080.99
445.807	1154.71
446.013	1132.19
446.22	1134.23
446.426	1296.02
446.633	1322.65
446.839	1599.12
447.046	1365.65
447.252	1554.07
447.459	1490.58
447.665	1474.2
447.871	1670.8
448.078	1820.3
448.284	1771.15
448.491	1777.3
448.697	1980.04
448.903	1980.04
449.11	2035.34
449.316	2072.2
449.522	2244.23
449.728	2199.18
449.935	2397.83
450.141	2375.3
450.347	2594.44
450.553	2401.93
450.76	2496.13
450.966	2719.36
451.172	2709.12
451.378	2850.43
451.584	2961.02
451.791	3272.31
451.997	3255.93
452.203	3337.85
452.409	3475.06
452.615	3657.33
452.821	3638.9
453.027	3632.76
453.233	3933.81
453.44	3866.22
453.646	3997.29
453.852	4212.33
454.058	4466.28
454.264	4578.92
454.47	4812.39
454.676	4851.3
454.882	5416.54
455.088	5056.09
455.294	5437.02
455.5	5834.32
455.705	6080.08
455.911	6002.26
456.117	6301.26
456.323	6379.08
456.529	6483.53
456.735	6934.08
456.941	7274.04
457.147	7644.73
457.352	7835.19
457.558	7951.92
457.764	8291.88
457.97	8408.62
458.176	8916.51
458.381	9451.03
458.587	9649.69
458.793	10032.66
458.999	9938.45
459.204	11171.33
459.41	11591.16
459.616	11658.74
459.821	12260.85
460.027	12580.33
460.233	13270.5
460.438	13366.75
460.644	14067.16
460.85	14185.94
461.055	14923.21
461.261	15472.06
461.466	15166.92
461.672	15353.28
461.878	17294.75
462.083	17116.58
462.289	17112.49
462.494	18277.78
462.7	18255.25
462.905	18517.39
463.111	20041.08
463.316	20991.34
463.522	21273.96
463.727	22134.1
463.932	22928.72
464.138	23549.25
464.343	24565.04
464.549	24884.53
464.754	26184.99
464.959	27399.43
465.165	27442.44
465.37	27540.74
465.575	27270.41
465.781	29390.06
465.986	29631.72
466.191	29445.35
466.397	29701.35
466.602	29048.05
466.807	30485.72
467.012	31302.86
467.218	32210.11
467.423	31927.49
467.628	32746.68
467.833	34626.71
468.038	33883.3
468.244	33379.5
468.449	35249.3
468.654	34380.96
468.859	34411.68
469.064	34208.93
469.269	33600.68
469.474	33811.62
469.679	35226.77
469.885	33895.59
470.09	34538.65
470.295	34671.77
470.5	33625.26
470.705	34190.5
470.91	32707.77
471.115	32867.51
471.32	33248.43
471.525	32920.76
471.73	32074.95
471.935	31968.45
472.139	30665.94
472.344	30811.35
472.549	30641.37
472.754	29840.61
472.959	29332.72
473.164	28441.85
473.369	28003.58
473.574	28634.36
473.778	28030.21
473.983	27565.32
474.188	27321.61
474.393	25894.18
474.598	25814.3
474.802	25068.84
475.007	25036.08
475.212	24769.84
475.417	23545.16
475.621	23414.09
475.826	23153.99
476.031	22467.92
476.235	22023.51
476.44	22193.5
476.645	21669.22
476.849	21484.9
477.054	21161.32
477.259	20594.03
477.463	20745.58
477.668	19809.66
477.872	19662.21
478.077	19395.97
478.282	19002.76
478.486	18828.68
478.691	18644.37
478.895	18365.84
479.1	18234.77
479.304	18001.3
479.509	17376.67
479.713	17577.37
479.918	17323.43
480.122	16774.57
480.326	17012.14
480.531	16936.36
480.735	16741.8
480.94	16539.05
481.144	17030.57
481.348	16319.92
481.553	16508.33
481.757	15689.15
481.961	15875.51
482.166	16086.45
482.37	15726.01
482.574	15216.07
482.778	15687.1
482.983	15898.04
483.187	15410.62
483.391	15312.32
483.595	15060.42
483.8	14749.13
484.004	14849.48
484.208	14673.35
484.412	14759.37
484.616	14734.79
484.821	14288.34
485.025	13827.54
485.229	14009.81
485.433	13704.67
485.637	13585.88
485.841	13356.51
486.045	13118.95
486.249	13243.87
486.453	12871.14
486.657	12719.59
486.861	12477.93
487.065	12197.36
487.269	12135.92
487.473	11535.87
487.677	11996.66
487.881	11937.27
488.085	11357.69
488.289	11365.89
488.493	10901
488.697	11099.65
488.901	10675.72
489.105	10587.66
489.309	10270.22
489.512	10282.51
489.716	9877.01
489.92	9780.76
490.124	9436.7
490.328	9614.87
490.531	9360.92
490.735	9061.92
490.939	9145.89
491.143	8777.25
491.346	8470.06
491.55	8392.23
491.754	8476.2
491.958	8474.15
492.161	8173.1
492.365	8087.09
492.569	7798.32
492.772	7640.63
492.976	7704.12
493.18	7667.25
493.383	7472.7
493.587	7499.32
493.79	7464.5
493.994	7179.84
494.197	6979.14
494.401	7085.63
494.605	7044.67
494.808	7134.78
495.012	6970.94
495.215	6854.21
495.419	6827.59
495.622	6665.8
495.825	6708.8
496.029	6395.47
496.232	6846.02
496.436	6485.58
496.639	6561.35
496.843	6516.3
497.046	6497.86
497.249	6809.15
497.453	6475.34
497.656	6407.75
497.859	6487.62
498.063	6575.69
498.266	6569.54
498.469	6372.94
498.673	6544.97
498.876	6553.16
499.079	6688.32
499.282	6581.83
499.485	6792.77
499.689	6702.66
499.892	6803.01
500.095	6727.24
500.298	6737.48
500.501	6710.85
500.705	7059.01
500.908	7024.19
501.111	6987.33
501.314	7169.6
501.517	7341.63
501.72	7083.58
501.923	7265.85
502.126	7392.83
502.329	7403.07
502.532	7673.4
502.735	7468.6
502.938	7761.46
503.141	7593.53
503.344	7847.47
503.547	8156.72
503.75	8023.6
503.953	8328.75
504.156	8302.12
504.359	8322.6
504.562	8240.68
504.765	8437.29
504.968	8789.54
505.17	8668.71
505.373	8889.89
505.576	9104.93
505.779	9125.41
505.982	9123.36
506.185	9541.15
506.387	9627.16
506.59	9971.22
506.793	10167.82
506.996	10063.38
507.198	10544.65
507.401	10661.38
507.604	10673.67
507.807	11075.07
508.009	11150.85
508.212	11380.22
508.415	11585.02
508.617	11591.16
508.82	11994.61
509.022	12193.26
509.225	12488.17
509.428	12609
509.63	12991.97
509.833	12989.92
510.035	13827.54
510.238	13725.15
510.44	14147.03
510.643	14546.38
510.845	14978.5
511.048	14986.69
511.25	15191.49
511.453	15685.05
511.655	16481.71
511.858	16346.55
512.06	17087.91
512.262	17126.82
512.465	17108.39
512.667	17804.7
512.87	18304.4
513.072	18582.93
513.274	19264.9
513.477	19584.38
513.679	20039.03
513.881	20573.55
514.084	20895.08
514.286	21292.39
514.488	21450.08
514.69	22441.3
514.893	22699.34
515.095	23078.22
515.297	23584.07
515.499	24153.4
515.701	24290.62
515.904	25232.68
516.106	25830.69
516.308	26709.27
516.51	26895.63
516.712	26971.41
516.914	27696.39
517.116	28419.32
517.318	28488.95
517.52	29236.46
517.722	29877.47
517.925	30414.04
518.127	30649.56
518.329	31638.73
518.531	31773.89
518.733	32355.52
518.935	32627.9
519.136	33371.31
519.338	33881.25
519.54	34081.95
519.742	35300.5
519.944	35656.84
520.146	36308.1
520.348	36551.8
520.55	37186.68
520.752	37497.97
520.954	37901.42
521.155	38179.94
521.357	38765.66
521.559	39261.27
521.761	40322.12
521.963	40137.8
522.164	40528.96
522.366	40559.68
522.568	41319.48
522.77	41305.14
522.971	42193.96
523.173	41954.35
523.375	42544.16
523.576	42767.39
523.778	42431.52
523.98	43129.88
524.181	43392.02
524.383	43316.25
524.584	43963.4
524.786	43363.35
524.988	43906.06
525.189	44452.87
525.391	44110.86
525.592	43881.49
525.794	44264.46
525.995	44284.93
526.197	43875.34
526.398	43973.64
526.6	44000.27
526.801	43695.12
527.003	44030.99
527.204	43818
527.406	43627.54
527.607	43179.03
527.808	43377.68
528.01	42505.25
528.211	42910.75
528.412	43058.2
528.614	42538.02
528.815	42073.13
529.016	42073.13
529.218	41194.55
529.419	41485.36
529.62	40627.26
529.822	40518.72
530.023	40156.23
530.224	39916.62
530.425	39408.72
530.626	38573.15
530.828	38290.53
531.029	38704.22
531.23	37608.56
531.431	37059.7
531.632	37033.08
531.833	36529.28
532.035	36131.97
532.236	35878.02
532.437	35785.86
532.638	35013.78
532.839	34716.82
533.04	34202.78
533.241	33473.71
533.442	33582.25
533.643	32865.46
533.844	32758.97
534.045	32115.9
534.246	31673.54
534.447	31155.41
534.648	30717.14
534.849	30629.08
535.05	29854.95
535.251	29369.58
535.451	29562.09
535.652	29019.38
535.853	28431.61
536.054	28132.61
536.255	28005.63
536.456	26907.92
536.657	27125
536.857	26547.48
537.058	26203.42
537.259	25947.42
537.46	25615.65
537.66	25298.22
537.861	24737.07
538.062	24485.17
538.263	24417.59
538.463	24151.35
538.664	23831.87
538.865	23389.51
539.065	23104.84
539.266	22574.42
539.466	22558.03
539.667	21945.69
539.868	22097.24
540.068	21841.25
540.269	21515.62
540.469	21081.45
540.67	21200.23
540.87	20598.13
541.071	20317.56
541.271	20303.22
541.472	20063.61
541.672	19715.45
541.873	19455.36
542.073	18916.75
542.274	19260.8
542.474	18902.41
542.675	18433.43
542.875	18617.74
543.075	18298.26
543.276	17937.82
543.476	17798.56
543.676	17733.02
543.877	17550.75
544.077	17061.29
544.277	17210.79
544.478	16694.7
544.678	16532.91
544.878	16287.15
545.078	16371.12
545.279	16041.4
545.479	16065.97
545.679	15984.05
545.879	15476.16
546.079	15386.05
546.28	15551.93
546.48	14964.17
546.68	15265.22
546.88	14732.75
547.08	14636.49
547.28	14355.92
547.48	14114.26
547.68	14292.43
547.88	13762.01
548.081	13565.4
548.281	13559.26
548.481	13254.11
548.681	13436.38
548.881	13043.17
549.081	13084.13
549.28	12713.45
549.48	12629.48
549.68	12201.46
549.88	12230.13
550.08	11994.61
550.28	11888.12
550.48	11605.5
550.68	11832.82
550.88	11374.08
551.08	11105.79
551.279	11298.3
551.479	10751.49
551.679	10931.72
551.879	10479.11
552.079	10278.41
552.278	10356.24
552.478	10432.01
552.678	10085.9
552.878	9979.41
553.077	9645.59
553.277	9522.71
553.477	9491.99
553.676	9414.17
553.876	9096.74
554.076	8990.24
554.275	8609.32
554.475	8613.42
554.674	8715.81
554.874	8551.98
555.074	8291.88
555.273	8318.51
555.473	8039.98
555.672	7786.04
555.872	7706.17
556.071	7638.58
556.271	7808.56
556.47	7267.9
556.67	7071.29
556.869	7245.37
557.068	7020.1
557.268	6991.42
557.467	6659.65
557.667	6893.12
557.866	6704.71
558.065	6514.25
558.265	6342.22
558.464	6180.43
558.663	6319.69
558.863	6035.02
559.062	6012.49
559.261	5746.26
559.461	5854.8
559.66	5686.87
559.859	5656.15
560.058	5512.79
560.258	5310.04
560.457	5387.86
560.656	5455.45
560.855	5185.12
561.054	5123.68
561.253	5080.67
561.453	5099.1
561.652	4902.5
561.851	4836.96
562.05	4712.03
562.249	4537.96
562.448	4615.78
562.647	4376.17
562.846	4515.43
563.045	4339.3
563.244	4413.03
563.443	4378.22
563.642	4120.17
563.841	4302.44
564.04	4107.88
564.239	4126.32
564.438	4064.88
564.637	3827.31
564.836	3939.95
565.035	3743.35
565.234	3608.18
565.432	3673.71
565.631	3634.8
565.83	3516.02
566.029	3477.11
566.228	3489.4
566.427	3544.69
566.625	3358.33
566.824	3423.86
567.023	3341.94
567.222	3090.04
567.42	3088
567.619	3182.2
567.818	2979.45
568.016	3182.2
568.215	3004.03
568.414	3176.06
568.612	2934.4
568.811	2930.3
569.01	2891.39
569.208	2889.34
569.407	2842.24
569.605	2739.84
569.804	2633.35
570.002	2705.03
570.201	2471.56
570.4	2653.83
570.598	2594.44
570.797	2487.94
570.995	2332.3
571.193	2403.97
571.392	2418.31
571.59	2289.29
571.789	2340.49
571.987	2322.06
572.186	2279.05
572.384	2174.6
572.582	2121.35
572.781	2154.12
572.979	2035.34
573.177	2025.1
573.376	2088.59
573.574	2033.29
573.772	1863.31
573.971	1875.6
574.169	1678.99
574.367	1916.56
574.565	1889.93
574.763	1793.68
574.962	1742.48
575.16	1750.67
575.358	1767.06
575.556	1697.42
575.754	1617.55
575.952	1611.41
576.151	1670.8
576.349	1728.14
576.547	1461.91
576.745	1662.61
576.943	1537.68
577.141	1502.87
577.339	1435.28
577.537	1427.09
577.735	1494.68
577.933	1504.92
578.131	1302.17
578.329	1437.33
578.527	1373.85
578.725	1375.89
578.923	1179.29
579.121	1365.65
579.319	1117.85
579.516	1273.5
579.714	1474.2
579.912	1236.63
580.11	1132.19
580.308	1142.43
580.506	1154.71
580.704	917.15
580.901	1103.51
581.099	1142.43
581.297	1056.41
581.495	1062.55
581.692	1031.83
581.89	1222.3
582.088	1146.52
582.285	1054.36
582.483	1040.03
582.681	954.01
582.878	970.4
583.076	1013.4
583.274	1019.55
583.471	1171.1
583.669	917.15
583.866	788.13
584.064	868
584.262	747.17
584.459	816.8
584.657	818.85
584.854	896.67
585.052	919.2
585.249	853.66
585.447	810.65
585.644	677.54
585.841	878.24
586.039	818.85
586.236	896.67
586.434	745.12
586.631	757.41
586.828	665.25
587.026	788.13
587.223	589.47
587.42	648.86
587.618	822.94
587.815	726.69
588.012	700.06
588.21	669.34
588.407	757.41
588.604	716.45
588.801	640.67
588.999	624.29
589.196	661.15
589.393	642.72
589.59	612
589.787	630.43
589.984	626.34
590.182	665.25
590.379	536.23
590.576	644.77
590.773	607.91
590.97	564.9
591.167	702.11
591.364	657.06
591.561	646.82
591.758	614.05
591.955	595.62
592.152	657.06
592.349	478.88
592.546	542.37
592.743	556.71
592.94	575.14
593.137	620.19
593.334	659.1
593.531	650.91
593.727	679.58
593.924	528.03
594.121	657.06
594.318	650.91
594.515	642.72
594.712	661.15
594.908	667.3
595.105	542.37
595.302	630.43
595.499	712.35
595.696	751.26
595.892	648.86
596.089	706.21
596.286	591.52
596.482	814.75
596.679	673.44
596.876	714.4
597.072	857.76
597.269	714.4
597.466	810.65
597.662	784.03
597.859	698.02
598.055	777.89
598.252	798.37
598.448	917.15
598.645	976.54
598.841	966.3
599.038	1025.69
599.234	1095.32
599.431	1162.9
599.627	1146.52
599.824	1068.7
600.02	1115.8
600.217	1179.29
600.413	1265.3
600.609	1379.99
600.806	1582.74
601.002	1431.19
601.198	1420.95
601.395	1582.74
601.591	1578.64
601.787	1689.23
601.984	1666.71
602.18	1826.45
602.376	1715.86
602.572	1955.47
602.769	2027.15
602.965	2023.05
603.161	2197.13
603.357	2274.95
603.553	2309.77
603.75	2365.06
603.946	2494.08
604.142	2563.72
604.338	2664.07
604.534	2637.44
604.73	2752.13
604.926	2731.65
605.122	2985.6
605.318	3077.76
605.514	3167.87
605.71	3174.01
605.906	3374.71
606.102	3341.94
606.298	3571.32
606.494	3700.34
606.69	3837.55
606.886	3794.54
607.082	3796.59
607.278	3982.96
607.474	4247.15
607.67	4300.39
607.866	4335.21
608.062	4574.82
608.257	4677.22
608.453	4617.83
608.649	4834.91
608.845	4859.49
609.041	5052
609.236	5408.34
609.432	5316.19
609.628	5742.16
609.824	5836.37
610.019	5654.1
610.215	6078.03
610.411	6368.84
610.606	6430.28
610.802	6524.49
610.998	6594.12
611.193	6968.9
611.389	6903.36
611.584	7335.48
611.78	7427.64
611.976	7474.74
612.171	7982.64
612.367	8166.96
612.562	8318.51
612.758	8414.76
612.953	8427.05
613.149	8982.05
613.344	9195.04
613.539	9256.48
613.735	9766.42
613.93	9627.16
614.126	10073.62
614.321	10522.12
614.517	10743.3
614.712	10964.48
614.907	11111.94
615.103	11503.1
615.298	11630.07
615.493	12094.96
615.688	12342.77
615.884	12811.75
616.079	12703.21
616.274	13223.39
616.47	13518.3
616.665	13934.04
616.86	13913.56
617.055	14636.49
617.25	14783.95
617.445	15515.07
617.641	15611.32
617.836	16311.73
618.031	16283.06
618.226	16790.95
618.421	17266.08
618.616	17845.66
618.811	17933.72
619.006	18591.12
619.201	18863.5
619.396	19447.17
619.591	19412.35
619.786	20108.66
619.981	20557.17
620.176	21034.35
620.371	21110.12
620.566	21927.26
620.761	22142.3
620.956	23121.23
621.151	22887.76
621.346	23754.05
621.541	23809.34
621.735	24622.39
621.93	24888.62
622.125	25300.26
622.32	25722.15
622.515	26385.69
622.709	27084.05
622.904	27286.79
623.099	27817.22
623.294	28493.05
623.488	28591.35
623.683	29134.06
623.878	29289.71
624.072	29996.26
624.267	30457.05
624.462	31349.96
624.656	31245.52
624.851	32187.58
625.046	32332.99
625.24	33109.17
625.435	33170.61
625.629	33785
625.824	34198.69
626.018	34456.73
626.213	34716.82
626.407	35202.19
626.602	35255.44
626.796	36050.05
626.991	36123.78
627.185	36508.8
627.38	36914.3
627.574	37223.54
627.768	37137.52
627.963	37252.21
628.157	37567.6
628.352	37973.1
628.546	37436.53
628.74	38290.53
628.935	37549.17
629.129	38151.27
629.323	37487.73
629.517	37469.29
629.712	37370.99
629.906	36897.91
630.1	36101.25
630.294	36496.51
630.489	35961.99
630.683	35857.54
630.877	34571.42
631.071	34206.88
631.265	33662.12
631.459	33273.01
631.653	32797.88
631.848	32007.36
632.042	31059.15
632.236	30694.61
632.43	29517.03
632.624	28949.74
632.818	27936
633.012	26991.89
633.206	26182.94
633.4	25568.55
633.594	24149.31
633.788	23688.51
633.982	23377.22
634.176	22238.55
634.369	21257.57
634.563	20817.26
634.757	19826.04
634.951	19180.93
635.145	18179.48
635.339	17786.27
635.533	16833.96
635.726	16436.66
635.92	15386.05
636.114	15113.67
636.308	14300.62
636.501	13979.09
636.695	13436.38
636.889	12895.72
637.083	12027.38
637.276	11591.16
637.47	11120.13
637.664	10722.82
637.857	10376.72
638.051	9889.3
638.244	9684.5
638.438	9027.1
638.632	8980
638.825	8455.72
639.019	8189.49
639.212	7691.83
639.406	7546.42
639.599	7042.62
639.793	6987.33
639.986	6598.21
640.18	6487.62
640.373	6024.78
640.567	5914.19
640.76	5762.64
640.954	5484.12
641.147	5097.05
641.34	5138.01
641.534	4839.01
641.727	4808.29
641.92	4560.49
642.114	4374.12
642.307	4265.58
642.5	4087.4
642.694	3786.35
642.887	3718.77
643.08	3640.95
643.273	3448.44
643.467	3305.08
643.66	2973.31
643.853	3077.76
644.046	3044.99
644.239	2913.92
644.432	2633.35
644.626	2598.53
644.819	2410.12
645.012	2395.78
645.205	2451.08
645.398	2303.62
645.591	2113.16
645.784	1939.09
645.977	1924.75
646.17	2008.72
646.363	1820.3
646.556	1750.67
646.749	1695.38
646.942	1633.94
647.135	1638.03
647.328	1535.64
647.521	1519.25
647.714	1447.57
647.907	1529.49
648.099	1300.12
648.292	1302.17
648.485	1128.09
648.678	1169.05
648.871	1146.52
649.064	1091.23
649.256	974.49
649.449	980.64
649.642	986.78
649.835	945.82
650.027	781.98
650.22	888.48
650.413	898.72
650.605	824.99
650.798	767.65
650.991	792.22
651.183	800.41
651.376	693.92
651.568	689.82
651.761	689.82
651.954	736.93
652.146	646.82
652.339	673.44
652.531	771.74
652.724	538.27
652.916	487.08
653.109	462.5
653.301	667.3
653.494	667.3
653.686	444.07
653.879	609.95
654.071	544.42
654.263	538.27
654.456	454.31
654.648	507.55
654.84	507.55
655.033	392.87
655.225	544.42
655.417	263.85
655.61	536.23
655.802	497.32
655.994	407.2
656.186	274.09
656.379	427.68
656.571	308.9
656.763	253.61
656.955	265.89
657.148	243.37
657.34	388.77
657.532	319.14
657.724	269.99
657.916	325.29
658.108	325.29
658.3	233.13
658.492	366.25
658.684	224.94
658.876	313
659.068	159.4
659.26	145.06
659.452	200.36
659.644	286.37
659.836	372.39
660.028	335.53
660.22	140.97
660.412	208.55
660.604	147.11
660.796	198.31
660.988	282.28
661.18	224.94
661.372	216.74
661.563	216.74
661.755	263.85
661.947	220.84
662.139	202.41
662.331	159.4
662.522	143.02
662.714	97.96
662.906	122.54
663.097	237.22
663.289	155.3
663.481	7.85
663.673	214.7
663.864	204.46
664.056	233.13
664.247	85.67
664.439	253.61
664.631	132.78
664.822	220.84
665.014	173.74
665.205	97.96
665.397	218.79
665.588	186.02
665.78	145.06
665.971	192.17
666.163	120.49
666.354	231.08
666.546	132.78
666.737	169.64
666.929	91.82
667.12	11.95
667.311	167.59
667.503	183.98
667.694	175.78
667.885	143.02
668.077	171.69
668.268	1.71
668.459	85.67
668.651	165.54
668.842	196.26
669.033	85.67
669.224	73.39
669.416	288.42
669.607	100.01
669.798	89.77
669.989	222.89
670.18	83.63
670.371	263.85
670.563	57
670.754	194.22
670.945	235.18
671.136	175.78
671.327	120.49
671.518	149.16
671.709	192.17
671.9	226.98
672.091	290.47
672.282	118.44
672.473	114.34
672.664	93.87
672.855	138.92
673.046	132.78
673.237	218.79
673.428	153.26
673.619	200.36
673.809	183.98
674	229.03
674.191	188.07
674.382	151.21
674.573	83.63
674.764	95.91
674.954	198.31
675.145	97.96
675.336	108.2
675.527	188.07
675.717	85.67
675.908	143.02
676.099	114.34
676.289	134.82
676.48	132.78
676.671	122.54
676.861	132.78
677.052	278.18
677.243	85.67
677.433	147.11
677.624	253.61
677.814	149.16
678.005	91.82
678.195	290.47
678.386	128.68
678.576	167.59
678.767	73.39
678.957	116.39
679.148	280.23
679.338	294.57
679.529	122.54
679.719	147.11
679.909	212.65
680.1	310.95
680.29	147.11
680.481	36.52
680.671	276.13
680.861	218.79
681.052	210.6
681.242	112.3
681.432	200.36
681.622	206.5
681.813	69.29
682.003	175.78
682.193	171.69
682.383	253.61
682.573	177.83
682.764	163.5
682.954	274.09
683.144	245.41
683.334	114.34
683.524	229.03
683.714	200.36
683.904	259.75
684.094	243.37
684.284	224.94
684.474	214.7
684.664	261.8
684.854	251.56
685.044	163.5
685.234	226.98
685.424	198.31
685.614	202.41
685.804	362.15
685.994	155.3
686.184	257.7
686.374	192.17
686.564	183.98
686.753	233.13
686.943	161.45
687.133	224.94
687.323	269.99
687.513	179.88
687.702	208.55
687.892	218.79
688.082	308.9
688.272	231.08
688.461	243.37
688.651	358.05
688.841	310.95
689.03	145.06
689.22	196.26
689.41	216.74
689.599	267.94
689.789	196.26
689.979	333.48
690.168	128.68
690.358	257.7
690.547	239.27
690.737	181.93
690.926	282.28
691.116	253.61
691.305	241.32
691.495	313
691.684	204.46
691.874	159.4
692.063	138.92
692.252	280.23
692.442	284.33
692.631	188.07
692.82	226.98
693.01	249.51
693.199	143.02
693.388	278.18
693.578	165.54
693.767	263.85
693.956	261.8
694.146	153.26
694.335	206.5
694.524	212.65
694.713	220.84
694.902	233.13
695.092	100.01
695.281	171.69
695.47	226.98
695.659	186.02
695.848	179.88
696.037	224.94
696.226	300.71
696.415	183.98
696.604	360.1
696.793	218.79
696.982	151.21
697.171	306.85
697.36	145.06
697.549	292.52
697.738	134.82
697.927	186.02
698.116	171.69
698.305	286.37
698.494	261.8
698.683	91.82
698.872	278.18
699.061	243.37
699.25	214.7
699.438	202.41
699.627	114.34
699.816	429.73
700.005	122.54
700.193	124.58
700.382	237.22
700.571	165.54
700.76	276.13
700.948	226.98
701.137	181.93
701.326	220.84
701.514	77.48
701.703	292.52
701.892	214.7
702.08	384.68
702.269	296.61
702.457	224.94
702.646	222.89
702.834	216.74
703.023	194.22
703.212	286.37
703.4	241.32
703.589	241.32
703.777	183.98
703.965	145.06
704.154	169.64
704.342	151.21
704.531	134.82
704.719	175.78
704.907	294.57
705.096	126.63
705.284	157.35
705.472	245.41
705.661	183.98
705.849	212.65
706.037	329.38
706.226	194.22
706.414	239.27
706.602	159.4
706.79	222.89
706.979	132.78
707.167	212.65
707.355	124.58
707.543	267.94
707.731	257.7
707.919	214.7
708.107	114.34
708.296	165.54
708.484	140.97
708.672	188.07
708.86	233.13
709.048	153.26
709.236	145.06
709.424	253.61
709.612	239.27
709.8	151.21
709.988	194.22
710.176	280.23
710.364	208.55
710.551	87.72
710.739	161.45
710.927	198.31
711.115	200.36
711.303	179.88
711.491	308.9
711.679	208.55
711.866	253.61
712.054	210.6
712.242	202.41
712.43	269.99
712.617	159.4
712.805	290.47
712.993	194.22
713.181	206.5
713.368	186.02
713.556	216.74
713.744	177.83
713.931	339.62
714.119	267.94
714.306	237.22
714.494	116.39
714.682	181.93
714.869	100.01
715.057	179.88
715.244	126.63
715.432	261.8
715.619	163.5
715.807	120.49
715.994	143.02
716.182	272.04
716.369	247.46
716.556	181.93
716.744	147.11
716.931	171.69
717.119	239.27
717.306	169.64
717.493	241.32
717.681	202.41
717.868	134.82
718.055	171.69
718.242	274.09
718.43	308.9
718.617	310.95
718.804	212.65
718.991	251.56
719.179	222.89
719.366	245.41
719.553	286.37
719.74	206.5
719.927	194.22
720.114	208.55
720.301	171.69
720.488	220.84
720.676	157.35
720.863	329.38
721.05	380.58
721.237	306.85
721.424	306.85
721.611	306.85
721.798	132.78
721.985	177.83
722.172	179.88
722.358	218.79
722.545	308.9
722.732	218.79
722.919	290.47
723.106	255.65
723.293	245.41
723.48	243.37
723.667	175.78
723.853	302.76
724.04	272.04
724.227	325.29
724.414	265.89
724.6	263.85
724.787	349.86
724.974	411.3
725.161	261.8
725.347	204.46
725.534	183.98
725.72	272.04
725.907	321.19
726.094	319.14
726.28	235.18
726.467	267.94
726.653	153.26
726.84	376.48
727.027	368.29
727.213	278.18
727.4	218.79
727.586	183.98
727.773	300.71
727.959	317.09
728.145	241.32
728.332	265.89
728.518	267.94
728.705	368.29
728.891	159.4
729.077	255.65
729.264	126.63
729.45	186.02
729.636	327.33
729.823	302.76
730.009	247.46
730.195	298.66
730.382	331.43
730.568	132.78
730.754	216.74
730.94	317.09
731.126	269.99
731.313	333.48
731.499	278.18
731.685	282.28
731.871	302.76
732.057	325.29
732.243	280.23
732.429	269.99
732.615	304.81
732.801	360.1
732.987	276.13
733.173	218.79
733.359	171.69
733.545	282.28
733.731	249.51
733.917	313
734.103	239.27
734.289	280.23
734.475	226.98
734.661	476.84
734.847	251.56
735.033	235.18
735.219	290.47
735.404	280.23
735.59	241.32
735.776	251.56
735.962	325.29
736.148	280.23
736.333	315.05
736.519	341.67
736.705	235.18
736.89	319.14
737.076	224.94
737.262	216.74
737.447	237.22
737.633	253.61
737.819	339.62
738.004	251.56
738.19	265.89
738.375	251.56
738.561	347.81
738.747	333.48
738.932	210.6
739.118	403.11
739.303	333.48
739.489	294.57
739.674	233.13
739.859	216.74
740.045	319.14
740.23	274.09
740.416	87.72
740.601	300.71
740.786	286.37
740.972	147.11
741.157	261.8
741.342	204.46
741.528	198.31
741.713	339.62
741.898	245.41
742.084	212.65
742.269	290.47
742.454	366.25
742.639	241.32
742.824	229.03
743.01	339.62
743.195	356.01
743.38	245.41
743.565	329.38
743.75	218.79
743.935	319.14
744.12	317.09
744.305	251.56
744.49	296.61
744.675	329.38
744.86	157.35
745.045	304.81
745.23	259.75
745.415	257.7
745.6	351.91
745.785	282.28
745.97	317.09
746.155	274.09
746.34	284.33
746.525	253.61
746.71	384.68
746.895	186.02
747.079	235.18
747.264	204.46
747.449	278.18
747.634	292.52
747.819	220.84
748.003	196.26
748.188	222.89
748.373	284.33
748.557	220.84
748.742	218.79
748.927	267.94
749.111	198.31
749.296	247.46
749.481	335.53
749.665	267.94
749.85	173.74
750.034	263.85
750.219	224.94
750.404	138.92
750.588	181.93
750.773	147.11
750.957	218.79
751.141	274.09
751.326	294.57
751.51	169.64
751.695	171.69
751.879	192.17
752.064	286.37
752.248	192.17
752.432	317.09
752.617	245.41
752.801	253.61
752.985	167.59
753.17	253.61
753.354	233.13
753.538	278.18
753.722	167.59
753.907	130.73
754.091	116.39
754.275	222.89
754.459	87.72
754.643	122.54
754.828	210.6
755.012	235.18
755.196	159.4
755.38	118.44
755.564	161.45
755.748	87.72
755.932	229.03
756.116	306.85
756.3	159.4
756.484	89.77
756.668	222.89
756.852	34.47
757.036	89.77
757.22	204.46
757.404	63.15
757.588	116.39
757.772	196.26
757.956	181.93
758.14	226.98
758.323	179.88
758.507	138.92
758.691	110.25
758.875	104.11
759.059	261.8
759.242	153.26
759.426	192.17
759.61	73.39
759.794	130.73
759.977	212.65
760.161	378.53
760.345	243.37
760.528	282.28
760.712	165.54
760.895	204.46
761.079	36.52
761.263	44.71
761.446	122.54
761.63	100.01
761.813	216.74
761.997	65.19
762.18	118.44
762.364	192.17
762.547	16.04
762.731	136.87
762.914	140.97
763.098	46.76
763.281	132.78
763.464	112.3
763.648	175.78
763.831	106.15
764.015	100.01
764.198	93.87
764.381	89.77
764.564	126.63
764.748	91.82
764.931	122.54
765.114	97.96
765.297	128.68
765.481	50.86
765.664	140.97
765.847	147.11
766.03	175.78
766.213	57
766.397	91.82
766.58	40.62
766.763	140.97
766.946	124.58
767.129	52.91
767.312	42.67
767.495	151.21
767.678	20.14
767.861	100.01
768.044	32.43
768.227	147.11
768.41	77.48
768.593	120.49
768.776	177.83
768.959	50.86
769.142	208.55
769.324	124.58
769.507	93.87
769.69	36.52
769.873	106.15
770.056	323.24
770.239	149.16
770.421	112.3
770.604	175.78
770.787	122.54
770.97	106.15
771.152	97.96
771.335	136.87
771.518	38.57
771.7	126.63
771.883	192.17
772.066	73.39
772.248	63.15
772.431	140.97
772.613	186.02
772.796	71.34
772.978	100.01
773.161	243.37
773.343	40.62
773.526	46.76
773.708	-24.92
773.891	16.04
774.073	36.52
774.256	183.98
774.438	196.26
774.621	28.33
774.803	122.54
774.985	57
775.168	106.15
775.35	26.28
775.532	120.49
775.715	26.28
775.897	116.39
776.079	-26.96
776.261	54.95
776.444	130.73
776.626	44.71
776.808	77.48
776.99	-31.06
777.173	57
777.355	106.15
777.537	124.58
777.719	126.63
777.901	48.81
778.083	-16.73
778.265	97.96
778.447	134.82
778.629	-14.68
778.811	34.47
778.993	65.19
779.175	138.92
779.357	171.69
779.539	-26.96
779.721	20.14
779.903	147.11
780.085	57
780.267	71.34
780.449	93.87
780.631	79.53
780.812	138.92
780.994	59.05
781.176	22.19
781.358	-20.82
781.54	24.23
781.721	93.87
781.903	177.83
782.085	44.71
782.267	155.3
782.448	-22.87
782.63	40.62
782.812	100.01
782.993	71.34
783.175	192.17
783.357	61.1
783.538	36.52
783.72	63.15
783.901	48.81
784.083	50.86
784.264	13.99
784.446	-33.11
784.627	-90.45
784.809	134.82
784.99	18.09
785.172	79.53
785.353	11.95
785.535	54.95
785.716	7.85
785.897	11.95
786.079	48.81
786.26	116.39
786.441	140.97
786.623	5.8
786.804	40.62
786.985	40.62
787.167	44.71
787.348	40.62
787.529	26.28
787.71	106.15
787.891	57
788.073	18.09
788.254	-72.02
788.435	198.31
788.616	57
788.797	-16.73
788.978	34.47
789.159	-16.73
789.34	73.39
789.522	42.67
789.703	-45.4
789.884	61.1
790.065	71.34
790.246	97.96
790.427	63.15
790.607	198.31
790.788	132.78
790.969	-24.92
791.15	36.52
791.331	20.14
791.512	-0.34
791.693	11.95
791.874	89.77
792.054	163.5
792.235	57
792.416	-45.4
792.597	-53.59
792.778	91.82
792.958	9.9
793.139	61.1
793.32	46.76
793.5	-33.11
793.681	167.59
793.862	73.39
794.042	-18.77
794.223	-26.96
794.404	-43.35
794.584	-133.46
794.765	22.19
794.945	61.1
795.126	69.29
795.306	87.72
795.487	-26.96
795.667	32.43
795.848	44.71
796.028	-51.54
796.209	-31.06
796.389	73.39
796.57	34.47
796.75	-43.35
796.93	-20.82
797.111	-8.53
797.291	-10.58
797.471	63.15
797.652	-12.63
797.832	-47.44
798.012	87.72
798.192	-51.54
798.373	24.23
798.553	3.75
798.733	128.68
798.913	-18.77
799.093	-16.73
799.274	11.95
799.454	36.52
799.634	57
799.814	104.11
799.994	130.73
800.174	89.77
800.354	67.24
800.534	-45.4
800.714	61.1
800.894	-76.12
801.074	-29.01
801.254	-35.16
801.434	112.3
801.614	-86.36
801.794	-37.2
801.974	1683.09
802.154	-37.2
802.334	122.54
802.514	-102.74
802.693	11.95
802.873	-18.77
803.053	71.34
803.233	16.04
803.413	-26.96
803.592	-51.54
803.772	34.47
803.952	44.71
804.131	-78.16
804.311	108.2
804.491	128.68
804.67	-61.78
804.85	18.09
805.03	91.82
805.209	100.01
805.389	20.14
805.568	3.75
805.748	44.71
805.928	-41.3
806.107	52.91
806.287	87.72
806.466	38.57
806.646	-24.92
806.825	20.14
807.004	-22.87
807.184	-8.53
807.363	79.53
807.543	22.19
807.722	-18.77
807.901	122.54
808.081	61.1
808.26	-90.45
808.439	-33.11
808.619	5.8
808.798	-74.07
808.977	24.23
809.156	5.8
809.336	16.04
809.515	81.58
809.694	-96.6
809.873	-24.92
810.052	28.33
810.231	100.01
810.411	5.8
810.59	104.11
810.769	11.95
810.948	38.57
811.127	-112.98
811.306	-41.3
811.485	-10.58
811.664	65.19
811.843	52.91
812.022	1.71
812.201	-20.82
812.38	32.43
812.559	-12.63
812.737	87.72
812.916	-33.11
813.095	7.85
813.274	95.91
813.453	34.47
813.632	118.44
813.811	110.25
813.989	-37.2
814.168	-41.3
814.347	-35.16
814.526	-24.92
814.704	124.58
814.883	32.43
815.062	-33.11
815.24	100.01
815.419	13.99
815.598	42.67
815.776	-123.22
815.955	-65.88
816.133	-129.36
816.312	40.62
816.49	-69.97
816.669	24.23
816.847	79.53
817.026	42.67
817.204	42.67
817.383	-12.63
817.561	-29.01
817.74	22.19
817.918	30.38
818.097	36.52
818.275	-41.3
818.453	54.95
818.632	87.72
818.81	-14.68
818.988	-14.68
819.167	-41.3
819.345	38.57
819.523	-29.01
819.701	-4.44
819.879	5.8
820.058	61.1
820.236	48.81
820.414	5.8
820.592	63.15
820.77	9.9
820.948	-41.3
821.127	9.9
821.305	-57.68
821.483	-26.96
821.661	59.05
821.839	-4.44
822.017	-31.06
822.195	13.99
822.373	143.02
822.551	-0.34
822.729	-12.63
822.907	-37.2
823.085	1.71
823.262	50.86
823.44	-53.59
823.618	-47.44
823.796	69.29
823.974	-61.78
824.152	-117.08
824.329	42.67
824.507	106.15
824.685	40.62
824.863	34.47
825.04	-74.07
825.218	40.62
825.396	-6.49
825.574	30.38
825.751	-0.34
825.929	46.76
826.107	-67.92
826.284	48.81
826.462	124.58
826.639	-8.53
826.817	-86.36
826.994	-39.25
827.172	-82.26
827.349	59.05
827.527	48.81
827.704	63.15
827.882	81.58
828.059	16.04
828.237	5.8
828.414	9.9
828.591	-63.83
828.769	18.09
828.946	-67.92
829.124	63.15
829.301	106.15
829.478	20.14
829.655	83.63
829.833	7.85
830.01	-215.38
830.187	79.53
830.364	-18.77
830.542	-82.26
830.719	120.49
830.896	91.82
831.073	83.63
831.25	73.39
831.427	89.77
831.604	-24.92
831.782	-41.3
831.959	9.9
832.136	-49.49
832.313	18.09
832.49	7.85
832.667	-8.53
832.844	-53.59
833.021	81.58
833.198	89.77
833.374	73.39
833.551	54.95
833.728	-6.49
833.905	83.63
834.082	-80.21
834.259	79.53
834.436	73.39
834.612	22.19
834.789	-4.44
834.966	-47.44
835.143	36.52
835.319	-76.12
835.496	40.62
835.673	85.67
835.85	18.09
836.026	108.2
836.203	59.05
836.38	3.75
836.556	-16.73
836.733	7.85
836.909	95.91
837.086	26.28
837.262	-108.88
837.439	-6.49
837.616	30.38
837.792	20.14
837.968	-14.68
838.145	-31.06
838.321	-4.44
838.498	1.71
838.674	30.38
838.851	3.75
839.027	-108.88
839.203	7.85
839.38	44.71
839.556	-61.78
839.732	52.91
839.909	7.85
840.085	3.75
840.261	-76.12
840.437	36.52
840.614	7.85
840.79	44.71
840.966	71.34
841.142	-88.4
841.318	7.85
841.494	26.28
841.671	140.97
841.847	-4.44
842.023	-59.73
842.199	93.87
842.375	102.06
842.551	-106.84
842.727	-90.45
842.903	112.3
843.079	-67.92
843.255	44.71
843.431	-45.4
843.607	54.95
843.783	-155.99
843.959	1.71
844.134	-10.58
844.31	85.67
844.486	-61.78
844.662	-65.88
844.838	54.95
845.013	67.24
845.189	67.24
845.365	-2.39
845.541	-20.82
845.716	63.15
845.892	120.49
846.068	-35.16
846.244	-31.06
846.419	-12.63
846.595	-117.08
846.77	-61.78
846.946	30.38
847.122	-84.31
847.297	5.8
847.473	114.34
847.648	-35.16
847.824	-12.63
847.999	-110.93
848.175	36.52
848.35	50.86
848.526	63.15
848.701	48.81
848.876	54.95
849.052	61.1
849.227	-8.53
849.403	-33.11
849.578	-22.87
849.753	-8.53
849.929	40.62
850.104	-123.22
850.279	24.23
850.454	32.43
850.63	57
850.805	32.43
850.98	7.85
851.155	-59.73
851.33	100.01
851.505	-100.69
851.681	153.26
851.856	-80.21
852.031	16.04
852.206	61.1
852.381	-43.35
852.556	-0.34
852.731	85.67
852.906	120.49
853.081	69.29
853.256	173.74
853.431	1.71
853.606	30.38
853.781	-29.01
853.956	-74.07
854.131	7.85
854.305	-51.54
854.48	-24.92
854.655	7.85
854.83	-76.12
855.005	38.57
855.18	7.85
855.354	-51.54
855.529	3.75
855.704	5.8
855.879	7.85
856.053	-67.92
856.228	16.04
856.403	-86.36
856.577	20.14
856.752	-119.12
856.926	59.05
857.101	46.76
857.276	-90.45
857.45	106.15
857.625	69.29
857.799	-29.01
857.974	110.25
858.148	-47.44
858.323	3.75
858.497	-29.01
858.672	-117.08
858.846	-22.87
859.02	79.53
859.195	-129.36
859.369	-41.3
859.543	93.87
859.718	59.05
859.892	87.72
860.066	44.71
860.241	-35.16
860.415	-53.59
860.589	-24.92
860.763	52.91
860.938	-0.34
861.112	44.71
861.286	-53.59
861.46	7.85
861.634	-16.73
861.808	44.71
861.982	-98.64
862.157	-37.2
862.331	-76.12
862.505	-115.03
862.679	-55.64
862.853	-31.06
863.027	-20.82
863.201	89.77
863.375	-82.26
863.549	97.96
863.722	-20.82
863.896	167.59
864.07	-86.36
864.244	-6.49
864.418	52.91
864.592	16.04
864.766	-72.02
864.939	11.95
865.113	-53.59
865.287	87.72
865.461	-104.79
865.634	-53.59
865.808	-33.11
865.982	-96.6
866.156	-16.73
866.329	-31.06
866.503	-14.68
866.676	48.81
866.85	85.67
867.024	5.8
867.197	40.62
867.371	71.34
867.544	28.33
867.718	-92.5
867.891	100.01
868.065	-72.02
868.238	-16.73
868.412	106.15
868.585	63.15
868.759	-94.55
868.932	-26.96
869.105	-49.49
869.279	52.91
869.452	-16.73
869.625	-16.73
869.799	20.14
869.972	-131.41
870.145	-74.07
870.319	44.71
870.492	-57.68
870.665	-16.73
870.838	-106.84
871.011	-37.2
871.185	7.85
871.358	-41.3
871.531	116.39
871.704	-59.73
871.877	-63.83
872.05	-72.02
872.223	-135.51
872.396	57
872.569	-6.49
872.742	-43.35
872.915	50.86
873.088	-24.92
873.261	-20.82
873.434	83.63
873.607	-51.54
873.78	73.39
873.953	-69.97
874.126	-59.73
874.299	20.14
874.471	-106.84
874.644	-63.83
874.817	50.86
874.99	73.39
875.163	20.14
875.335	46.76
875.508	22.19
875.681	57
875.853	59.05
876.026	-47.44
876.199	89.77
876.371	11.95
876.544	-65.88
876.717	59.05
876.889	-41.3
877.062	97.96
877.234	-123.22
877.407	-12.63
877.579	-4.44
877.752	-57.68
877.924	16.04
878.097	20.14
878.269	20.14
878.442	-0.34
878.614	81.58
878.786	71.34
878.959	79.53
879.131	59.05
879.303	-112.98
879.476	-53.59
879.648	83.63
879.82	26.28
879.993	-16.73
880.165	67.24
880.337	-0.34
880.509	26.28
880.681	-115.03
880.854	-35.16
881.026	61.1
881.198	108.2
881.37	-20.82
881.542	22.19
881.714	-90.45
881.886	26.28
882.058	5.8
882.23	-0.34
882.402	16.04
882.574	-8.53
882.746	18.09
882.918	44.71
883.09	3.75
883.262	11.95
883.434	-4.44
883.606	-43.35
883.778	-0.34
883.95	171.69
884.122	32.43
884.293	102.06
884.465	16.04
884.637	69.29
884.809	-92.5
884.98	34.47
885.152	-33.11
885.324	57
885.496	22.19
885.667	30.38
885.839	-41.3
886.011	22.19
886.182	118.44
886.354	26.28
886.525	-2.39
886.697	34.47
886.869	-43.35
887.04	11.95
887.212	120.49
887.383	175.78
887.555	50.86
887.726	34.47
887.897	59.05
888.069	1.71
888.24	40.62
888.412	-26.96
888.583	7.85
888.754	69.29
888.926	-82.26
889.097	-20.82
889.268	-65.88
889.44	42.67
889.611	-84.31
889.782	-176.47
889.953	-74.07
890.125	145.06
890.296	-82.26
890.467	-10.58
890.638	18.09
890.809	-8.53
890.98	-26.96
891.151	140.97
891.323	97.96
891.494	40.62
891.665	20.14
891.836	-33.11
892.007	-41.3
892.178	44.71
892.349	-24.92
892.52	-92.5
892.691	-76.12
892.862	-39.25
893.032	-90.45
893.203	-31.06
893.374	-57.68
893.545	118.44
893.716	-41.3
893.887	65.19
894.057	-61.78
894.228	38.57
894.399	-59.73
894.57	63.15
894.74	-2.39
894.911	38.57
895.082	3.75
895.253	50.86
895.423	-35.16
895.594	13.99
895.764	104.11
895.935	-80.21
896.106	30.38
896.276	-43.35
896.447	-45.4
896.617	-41.3
896.788	-49.49
896.958	-61.78
897.129	-12.63
897.299	-10.58
897.47	71.34
897.64	11.95
897.81	-76.12
897.981	-29.01
898.151	-12.63
898.322	42.67
898.492	1.71
898.662	-86.36
898.832	20.14
899.003	69.29
899.173	40.62
899.343	-31.06
899.513	-47.44
