Data from USB4F104151__20__10-41-58-386.txt Node

Date: Wed Feb 26 10:41:58 EST 2025
User: louis
Spectrometer: USB4F10415
Trigger mode: 4
Integration Time (sec): 1.000000E-1
Scans to average: 1
Electric dark correction enabled: true
Nonlinearity correction enabled: false
Boxcar width: 0
XAxis mode: Wavelengths
Number of Pixels in Spectrum: 3648
>>>>>Begin Spectral Data<<<<<
178.204	-428.03
178.424	-428.03
178.644	-428.03
178.864	-475.13
179.084	-397.31
179.304	-4.1
179.524	-2.05
179.744	12.29
179.964	16.38
180.184	40.96
180.404	69.63
180.624	-34.82
180.844	-53.25
181.064	-61.44
181.283	30.72
181.503	-75.77
181.723	61.44
181.943	-83.97
182.163	202.75
182.383	-34.82
182.602	131.07
182.822	57.34
183.042	55.3
183.262	22.53
183.482	24.58
183.701	40.96
183.921	26.62
184.141	-81.92
184.361	26.62
184.58	22.53
184.8	24.58
185.02	-18.43
185.239	38.91
185.459	63.49
185.679	129.02
185.898	-65.54
186.118	8.19
186.338	47.1
186.557	124.93
186.777	2.05
186.997	-36.86
187.216	28.67
187.436	118.78
187.655	77.82
187.875	34.82
188.095	18.43
188.314	92.16
188.534	174.08
188.753	-51.2
188.973	137.21
189.192	245.76
189.412	2.05
189.631	61.44
189.851	57.34
190.07	149.5
190.29	-106.49
190.509	-14.34
190.729	22.53
190.948	120.83
191.168	241.66
191.387	22.53
191.607	-65.54
191.826	28.67
192.045	18.43
192.265	-77.82
192.484	67.58
192.704	2.05
192.923	-59.39
193.142	212.99
193.362	180.22
193.581	184.32
193.8	22.53
194.02	88.06
194.239	0
194.458	112.64
194.678	-22.53
194.897	65.54
195.116	51.2
195.335	83.97
195.555	63.49
195.774	55.3
195.993	36.86
196.212	129.02
196.432	-36.86
196.651	61.44
196.87	69.63
197.089	206.84
197.308	75.77
197.528	51.2
197.747	-126.97
197.966	135.17
198.185	200.7
198.404	-79.87
198.623	157.69
198.842	53.25
199.062	38.91
199.281	79.87
199.5	26.62
199.719	94.21
199.938	30.72
200.157	63.49
200.376	102.4
200.595	141.31
200.814	73.73
201.033	14.34
201.252	180.22
201.471	49.15
201.69	106.49
201.909	83.97
202.128	90.11
202.347	73.73
202.566	34.82
202.785	-75.77
203.004	57.34
203.223	337.91
203.442	-12.29
203.661	-14.34
203.879	32.77
204.098	73.73
204.317	-22.53
204.536	65.54
204.755	104.45
204.974	96.25
205.193	-79.87
205.411	161.79
205.63	163.84
205.849	51.2
206.068	26.62
206.287	30.72
206.505	182.27
206.724	0
206.943	18.43
207.162	-22.53
207.381	116.73
207.599	-43.01
207.818	61.44
208.037	38.91
208.255	2.05
208.474	120.83
208.693	12.29
208.911	-57.34
209.13	139.26
209.349	116.73
209.567	51.2
209.786	94.21
210.005	71.68
210.223	77.82
210.442	-30.72
210.661	-30.72
210.879	77.82
211.098	-4.1
211.316	126.97
211.535	102.4
211.753	61.44
211.972	102.4
212.191	2.05
212.409	-12.29
212.628	149.5
212.846	-2.05
213.065	63.49
213.283	165.89
213.502	22.53
213.72	20.48
213.938	22.53
214.157	-43.01
214.375	77.82
214.594	-10.24
214.812	73.73
215.031	-34.82
215.249	-55.3
215.467	49.15
215.686	-26.62
215.904	100.35
216.122	55.3
216.341	59.39
216.559	67.58
216.778	114.69
216.996	147.45
217.214	0
217.432	26.62
217.651	-149.5
217.869	14.34
218.087	16.38
218.306	43.01
218.524	57.34
218.742	51.2
218.96	116.73
219.179	45.06
219.397	32.77
219.615	258.04
219.833	174.08
220.051	-40.96
220.27	184.32
220.488	81.92
220.706	108.54
220.924	36.86
221.142	8.19
221.36	114.69
221.578	90.11
221.796	47.1
222.015	90.11
222.233	71.68
222.451	190.46
222.669	10.24
222.887	65.54
223.105	-12.29
223.323	47.1
223.541	30.72
223.759	22.53
223.977	65.54
224.195	133.12
224.413	118.78
224.631	45.06
224.849	36.86
225.067	202.75
225.285	38.91
225.503	4.1
225.721	-36.86
225.939	22.53
226.157	-32.77
226.375	176.13
226.592	4.1
226.81	53.25
227.028	126.97
227.246	86.01
227.464	110.59
227.682	40.96
227.9	-8.19
228.117	57.34
228.335	110.59
228.553	61.44
228.771	63.49
228.989	43.01
229.206	141.31
229.424	88.06
229.642	0
229.86	-47.1
230.077	184.32
230.295	94.21
230.513	75.77
230.731	79.87
230.948	227.32
231.166	88.06
231.384	-59.39
231.601	-47.1
231.819	110.59
232.037	2.05
232.254	-24.58
232.472	10.24
232.689	-106.49
232.907	133.12
233.125	-16.38
233.342	-61.44
233.56	14.34
233.777	22.53
233.995	-51.2
234.213	165.89
234.43	75.77
234.648	49.15
234.865	-2.05
235.083	124.93
235.3	124.93
235.518	63.49
235.735	114.69
235.953	63.49
236.17	28.67
236.388	0
236.605	45.06
236.822	92.16
237.04	165.89
237.257	118.78
237.475	-20.48
237.692	83.97
237.909	-28.67
238.127	63.49
238.344	-4.1
238.562	-2.05
238.779	-61.44
238.996	-22.53
239.214	47.1
239.431	149.5
239.648	28.67
239.865	71.68
240.083	75.77
240.3	4.1
240.517	-32.77
240.735	73.73
240.952	75.77
241.169	4.1
241.386	124.93
241.603	-40.96
241.821	-12.29
242.038	104.45
242.255	43.01
242.472	-106.49
242.689	-2.05
242.907	-26.62
243.124	92.16
243.341	34.82
243.558	69.63
243.775	-49.15
243.992	-69.63
244.209	129.02
244.426	165.89
244.643	112.64
244.86	59.39
245.078	77.82
245.295	59.39
245.512	67.58
245.729	10.24
245.946	86.01
246.163	83.97
246.38	-6.14
246.597	36.86
246.814	22.53
247.031	-16.38
247.248	24.58
247.464	40.96
247.681	73.73
247.898	96.25
248.115	-30.72
248.332	-22.53
248.549	141.31
248.766	186.37
248.983	126.97
249.2	110.59
249.417	77.82
249.633	30.72
249.85	86.01
250.067	8.19
250.284	61.44
250.501	169.98
250.717	20.48
250.934	-16.38
251.151	38.91
251.368	-45.06
251.585	81.92
251.801	73.73
252.018	-4.1
252.235	126.97
252.451	-53.25
252.668	-28.67
252.885	147.45
253.102	116.73
253.318	2.05
253.535	-59.39
253.752	-40.96
253.968	24.58
254.185	-34.82
254.401	79.87
254.618	30.72
254.835	8.19
255.051	147.45
255.268	88.06
255.484	-24.58
255.701	88.06
255.917	45.06
256.134	-155.65
256.351	16.38
256.567	40.96
256.784	45.06
257	-83.97
257.217	153.6
257.433	47.1
257.65	2.05
257.866	176.13
258.082	-49.15
258.299	0
258.515	81.92
258.732	-32.77
258.948	-16.38
259.165	69.63
259.381	-43.01
259.597	47.1
259.814	2.05
260.03	-6.14
260.246	-24.58
260.463	81.92
260.679	159.74
260.895	47.1
261.112	79.87
261.328	53.25
261.544	36.86
261.761	165.89
261.977	69.63
262.193	-43.01
262.409	198.65
262.626	40.96
262.842	59.39
263.058	-32.77
263.274	96.25
263.49	120.83
263.707	141.31
263.923	79.87
264.139	-157.69
264.355	43.01
264.571	122.88
264.787	90.11
265.004	129.02
265.22	6.14
265.436	8.19
265.652	-38.91
265.868	55.3
266.084	-71.68
266.3	43.01
266.516	-135.17
266.732	-6.14
266.948	73.73
267.164	12.29
267.38	26.62
267.596	100.35
267.812	221.18
268.028	57.34
268.244	-24.58
268.46	26.62
268.676	47.1
268.892	-26.62
269.108	-38.91
269.324	14.34
269.54	0
269.756	83.97
269.972	-71.68
270.188	55.3
270.403	-38.91
270.619	38.91
270.835	14.34
271.051	40.96
271.267	-4.1
271.483	53.25
271.698	71.68
271.914	92.16
272.13	71.68
272.346	-22.53
272.562	28.67
272.777	143.36
272.993	0
273.209	-2.05
273.425	67.58
273.64	-81.92
273.856	122.88
274.072	-26.62
274.287	20.48
274.503	45.06
274.719	116.73
274.934	28.67
275.15	-71.68
275.366	2.05
275.581	-20.48
275.797	73.73
276.012	49.15
276.228	4.1
276.444	96.25
276.659	75.77
276.875	-34.82
277.09	38.91
277.306	24.58
277.521	28.67
277.737	61.44
277.952	206.84
278.168	32.77
278.383	61.44
278.599	98.3
278.814	43.01
279.03	34.82
279.245	149.5
279.461	92.16
279.676	122.88
279.892	20.48
280.107	63.49
280.322	-49.15
280.538	65.54
280.753	-34.82
280.969	94.21
281.184	24.58
281.399	169.98
281.615	14.34
281.83	51.2
282.045	-53.25
282.26	-18.43
282.476	79.87
282.691	59.39
282.906	8.19
283.122	2.05
283.337	-38.91
283.552	94.21
283.767	100.35
283.983	126.97
284.198	-6.14
284.413	77.82
284.628	-43.01
284.843	69.63
285.058	51.2
285.274	34.82
285.489	-69.63
285.704	161.79
285.919	-14.34
286.134	-49.15
286.349	47.1
286.564	67.58
286.779	202.75
286.995	12.29
287.21	-20.48
287.425	55.3
287.64	59.39
287.855	61.44
288.07	-49.15
288.285	94.21
288.5	118.78
288.715	65.54
288.93	55.3
289.145	2.05
289.36	118.78
289.575	24.58
289.79	157.69
290.004	53.25
290.219	151.55
290.434	2.05
290.649	-18.43
290.864	-6.14
291.079	-18.43
291.294	86.01
291.509	120.83
291.724	34.82
291.938	2.05
292.153	6.14
292.368	18.43
292.583	61.44
292.798	112.64
293.012	-6.14
293.227	90.11
293.442	57.34
293.657	79.87
293.871	131.07
294.086	122.88
294.301	233.47
294.516	169.98
294.73	36.86
294.945	-47.1
295.16	34.82
295.374	53.25
295.589	114.69
295.804	-45.06
296.018	24.58
296.233	79.87
296.447	-73.73
296.662	45.06
296.877	147.45
297.091	81.92
297.306	-16.38
297.52	-24.58
297.735	102.4
297.949	18.43
298.164	28.67
298.378	75.77
298.593	-38.91
298.807	-26.62
299.022	67.58
299.236	182.27
299.451	20.48
299.665	22.53
299.88	196.61
300.094	45.06
300.309	32.77
300.523	79.87
300.737	55.3
300.952	94.21
301.166	55.3
301.381	22.53
301.595	-38.91
301.809	30.72
302.024	28.67
302.238	-40.96
302.452	155.65
302.667	4.1
302.881	137.21
303.095	116.73
303.309	90.11
303.524	-38.91
303.738	53.25
303.952	-26.62
304.166	32.77
304.381	-102.4
304.595	131.07
304.809	57.34
305.023	53.25
305.237	-6.14
305.452	65.54
305.666	116.73
305.88	20.48
306.094	176.13
306.308	65.54
306.522	112.64
306.736	61.44
306.95	106.49
307.164	30.72
307.379	47.1
307.593	114.69
307.807	212.99
308.021	43.01
308.235	57.34
308.449	-20.48
308.663	43.01
308.877	237.56
309.091	22.53
309.305	106.49
309.519	-12.29
309.733	124.93
309.947	-30.72
310.161	18.43
310.374	28.67
310.588	71.68
310.802	8.19
311.016	32.77
311.23	49.15
311.444	-38.91
311.658	12.29
311.872	126.97
312.085	186.37
312.299	137.21
312.513	153.6
312.727	81.92
312.941	75.77
313.154	67.58
313.368	75.77
313.582	98.3
313.796	34.82
314.009	79.87
314.223	141.31
314.437	157.69
314.651	124.93
314.864	-57.34
315.078	6.14
315.292	-71.68
315.505	-28.67
315.719	53.25
315.933	139.26
316.146	24.58
316.36	-18.43
316.573	88.06
316.787	155.65
317.001	57.34
317.214	-61.44
317.428	26.62
317.641	-24.58
317.855	71.68
318.068	65.54
318.282	-28.67
318.495	233.47
318.709	12.29
318.922	-12.29
319.136	118.78
319.349	147.45
319.563	-49.15
319.776	112.64
319.99	-92.16
320.203	71.68
320.417	-2.05
320.63	55.3
320.843	129.02
321.057	65.54
321.27	59.39
321.483	51.2
321.697	163.84
321.91	75.77
322.124	49.15
322.337	14.34
322.55	-77.82
322.763	81.92
322.977	-22.53
323.19	20.48
323.403	96.25
323.617	81.92
323.83	12.29
324.043	12.29
324.256	145.41
324.469	-102.4
324.683	159.74
324.896	88.06
325.109	32.77
325.322	-98.3
325.535	98.3
325.748	94.21
325.962	18.43
326.175	81.92
326.388	38.91
326.601	104.45
326.814	8.19
327.027	90.11
327.24	102.4
327.453	-86.01
327.666	120.83
327.879	102.4
328.092	96.25
328.305	73.73
328.518	-34.82
328.731	-16.38
328.944	2.05
329.157	26.62
329.37	83.97
329.583	176.13
329.796	118.78
330.009	-47.1
330.222	112.64
330.435	61.44
330.648	18.43
330.861	61.44
331.073	73.73
331.286	59.39
331.499	10.24
331.712	-12.29
331.925	22.53
332.138	174.08
332.35	88.06
332.563	-28.67
332.776	118.78
332.989	-43.01
333.202	28.67
333.414	53.25
333.627	47.1
333.84	0
334.053	86.01
334.265	-36.86
334.478	-36.86
334.691	36.86
334.903	131.07
335.116	-8.19
335.329	92.16
335.541	57.34
335.754	153.6
335.966	-16.38
336.179	40.96
336.392	61.44
336.604	86.01
336.817	116.73
337.029	53.25
337.242	34.82
337.454	94.21
337.667	18.43
337.88	104.45
338.092	18.43
338.305	24.58
338.517	-30.72
338.729	145.41
338.942	124.93
339.154	10.24
339.367	-18.43
339.579	34.82
339.792	-12.29
340.004	108.54
340.217	-75.77
340.429	69.63
340.641	77.82
340.854	-38.91
341.066	-18.43
341.278	38.91
341.491	139.26
341.703	-8.19
341.915	-83.97
342.128	18.43
342.34	73.73
342.552	34.82
342.764	-43.01
342.977	45.06
343.189	20.48
343.401	63.49
343.613	-45.06
343.826	28.67
344.038	-30.72
344.25	-32.77
344.462	57.34
344.674	137.21
344.886	49.15
345.099	26.62
345.311	77.82
345.523	32.77
345.735	-2.05
345.947	43.01
346.159	49.15
346.371	73.73
346.583	65.54
346.795	163.84
347.007	18.43
347.219	34.82
347.431	-59.39
347.643	71.68
347.855	-18.43
348.067	88.06
348.279	-10.24
348.491	67.58
348.703	129.02
348.915	45.06
349.127	-10.24
349.339	18.43
349.551	-38.91
349.763	61.44
349.975	122.88
350.187	86.01
350.399	102.4
350.61	124.93
350.822	6.14
351.034	53.25
351.246	32.77
351.458	124.93
351.669	71.68
351.881	172.03
352.093	86.01
352.305	182.27
352.517	-18.43
352.728	65.54
352.94	-34.82
353.152	61.44
353.363	-22.53
353.575	61.44
353.787	77.82
353.999	108.54
354.21	174.08
354.422	38.91
354.633	14.34
354.845	-32.77
355.057	-32.77
355.268	36.86
355.48	81.92
355.692	-16.38
355.903	-18.43
356.115	-4.1
356.326	22.53
356.538	233.47
356.749	118.78
356.961	147.45
357.172	28.67
357.384	18.43
357.595	169.98
357.807	49.15
358.018	-24.58
358.23	34.82
358.441	190.46
358.653	59.39
358.864	26.62
359.075	43.01
359.287	10.24
359.498	137.21
359.709	77.82
359.921	-30.72
360.132	104.45
360.344	-32.77
360.555	-32.77
360.766	40.96
360.977	0
361.189	88.06
361.4	61.44
361.611	94.21
361.823	145.41
362.034	65.54
362.245	-24.58
362.456	8.19
362.667	96.25
362.879	-24.58
363.09	135.17
363.301	59.39
363.512	26.62
363.723	36.86
363.935	-34.82
364.146	88.06
364.357	90.11
364.568	71.68
364.779	-45.06
364.99	151.55
365.201	-79.87
365.412	100.35
365.623	-116.73
365.834	155.65
366.045	-18.43
366.256	94.21
366.467	77.82
366.678	4.1
366.889	-24.58
367.1	4.1
367.311	143.36
367.522	55.3
367.733	112.64
367.944	40.96
368.155	26.62
368.366	51.2
368.577	94.21
368.788	106.49
368.999	34.82
369.209	32.77
369.42	247.8
369.631	231.42
369.842	69.63
370.053	14.34
370.264	133.12
370.474	-38.91
370.685	86.01
370.896	-4.1
371.107	182.27
371.317	28.67
371.528	16.38
371.739	69.63
371.95	141.31
372.16	184.32
372.371	4.1
372.582	10.24
372.792	59.39
373.003	65.54
373.214	40.96
373.424	100.35
373.635	8.19
373.846	135.17
374.056	-32.77
374.267	98.3
374.477	73.73
374.688	57.34
374.898	71.68
375.109	38.91
375.319	55.3
375.53	51.2
375.74	83.97
375.951	61.44
376.161	106.49
376.372	153.6
376.582	-79.87
376.793	59.39
377.003	-30.72
377.214	-2.05
377.424	51.2
377.635	12.29
377.845	-10.24
378.055	126.97
378.266	0
378.476	-30.72
378.686	100.35
378.897	47.1
379.107	145.41
379.317	4.1
379.528	16.38
379.738	65.54
379.948	-79.87
380.158	106.49
380.369	120.83
380.579	167.93
380.789	63.49
380.999	34.82
381.21	71.68
381.42	180.22
381.63	118.78
381.84	126.97
382.05	65.54
382.261	81.92
382.471	102.4
382.681	-14.34
382.891	235.52
383.101	63.49
383.311	-4.1
383.521	-65.54
383.731	34.82
383.941	63.49
384.151	18.43
384.361	51.2
384.571	26.62
384.781	90.11
384.991	253.95
385.201	188.41
385.411	108.54
385.621	79.87
385.831	79.87
386.041	83.97
386.251	73.73
386.461	135.17
386.671	14.34
386.881	51.2
387.091	38.91
387.301	77.82
387.511	14.34
387.72	55.3
387.93	57.34
388.14	36.86
388.35	-6.14
388.56	137.21
388.769	131.07
388.979	8.19
389.189	16.38
389.399	106.49
389.609	77.82
389.818	182.27
390.028	161.79
390.238	129.02
390.447	4.1
390.657	169.98
390.867	12.29
391.076	-116.73
391.286	86.01
391.496	83.97
391.705	55.3
391.915	129.02
392.125	79.87
392.334	-12.29
392.544	182.27
392.753	98.3
392.963	-38.91
393.172	63.49
393.382	2.05
393.591	172.03
393.801	2.05
394.01	108.54
394.22	102.4
394.429	-18.43
394.639	-18.43
394.848	10.24
395.058	30.72
395.267	18.43
395.477	26.62
395.686	67.58
395.895	237.56
396.105	202.75
396.314	88.06
396.524	118.78
396.733	98.3
396.942	182.27
397.152	79.87
397.361	206.84
397.57	59.39
397.78	71.68
397.989	77.82
398.198	313.34
398.407	-34.82
398.617	102.4
398.826	71.68
399.035	30.72
399.244	77.82
399.453	2.05
399.663	149.5
399.872	59.39
400.081	-49.15
400.29	139.26
400.499	-20.48
400.708	141.31
400.917	16.38
401.127	-10.24
401.336	65.54
401.545	210.94
401.754	151.55
401.963	120.83
402.172	47.1
402.381	47.1
402.59	-53.25
402.799	51.2
403.008	139.26
403.217	153.6
403.426	2.05
403.635	-24.58
403.844	86.01
404.053	20.48
404.262	16.38
404.471	188.41
404.68	67.58
404.888	96.25
405.097	38.91
405.306	38.91
405.515	88.06
405.724	-63.49
405.933	133.12
406.142	67.58
406.35	124.93
406.559	-67.58
406.768	110.59
406.977	151.55
407.185	30.72
407.394	40.96
407.603	-71.68
407.812	28.67
408.02	159.74
408.229	38.91
408.438	-8.19
408.646	-22.53
408.855	6.14
409.064	106.49
409.272	36.86
409.481	133.12
409.69	14.34
409.898	32.77
410.107	77.82
410.315	94.21
410.524	86.01
410.733	98.3
410.941	79.87
411.15	38.91
411.358	-6.14
411.567	120.83
411.775	24.58
411.984	75.77
412.192	63.49
412.401	51.2
412.609	196.61
412.818	118.78
413.026	129.02
413.234	-4.1
413.443	55.3
413.651	-14.34
413.86	28.67
414.068	159.74
414.276	88.06
414.485	12.29
414.693	159.74
414.901	194.56
415.11	77.82
415.318	73.73
415.526	40.96
415.734	34.82
415.943	112.64
416.151	126.97
416.359	32.77
416.567	86.01
416.776	159.74
416.984	126.97
417.192	249.85
417.4	34.82
417.608	86.01
417.817	-36.86
418.025	71.68
418.233	137.21
418.441	18.43
418.649	22.53
418.857	71.68
419.065	143.36
419.273	43.01
419.481	34.82
419.689	2.05
419.897	20.48
420.105	10.24
420.313	172.03
420.521	149.5
420.729	114.69
420.937	4.1
421.145	-10.24
421.353	172.03
421.561	260.09
421.769	47.1
421.977	71.68
422.185	215.04
422.393	139.26
422.601	133.12
422.809	61.44
423.017	116.73
423.224	63.49
423.432	108.54
423.64	86.01
423.848	100.35
424.056	96.25
424.263	147.45
424.471	30.72
424.679	184.32
424.887	-47.1
425.094	110.59
425.302	65.54
425.51	63.49
425.718	114.69
425.925	40.96
426.133	59.39
426.341	206.84
426.548	22.53
426.756	112.64
426.964	102.4
427.171	51.2
427.379	94.21
427.586	20.48
427.794	219.13
428.001	149.5
428.209	104.45
428.417	108.54
428.624	188.41
428.832	67.58
429.039	165.89
429.247	40.96
429.454	139.26
429.662	182.27
429.869	126.97
430.076	104.45
430.284	114.69
430.491	245.76
430.699	186.37
430.906	204.8
431.114	180.22
431.321	124.93
431.528	147.45
431.736	178.17
431.943	106.49
432.15	333.82
432.358	264.19
432.565	307.2
432.772	116.73
432.979	264.19
433.187	182.27
433.394	284.67
433.601	129.02
433.808	229.37
434.016	358.39
434.223	262.14
434.43	309.24
434.637	348.15
434.844	380.92
435.052	260.09
435.259	325.63
435.466	348.15
435.673	225.28
435.88	282.62
436.087	438.27
436.294	329.72
436.501	376.83
436.708	339.96
436.915	342.01
437.122	311.29
437.329	327.67
437.537	403.45
437.743	452.6
437.95	497.66
438.157	430.07
438.364	460.79
438.571	475.13
438.778	491.51
438.985	526.33
439.192	559.1
439.399	460.79
439.606	569.34
439.813	694.26
440.02	634.87
440.227	786.42
440.433	774.13
440.64	643.06
440.847	645.11
441.054	731.12
441.261	884.72
441.467	761.84
441.674	675.83
441.881	890.87
442.088	776.18
442.294	858.1
442.501	976.88
442.708	940.02
442.914	972.79
443.121	1036.27
443.328	958.45
443.534	1128.43
443.741	1062.9
443.948	1048.56
444.154	1167.34
444.361	1353.71
444.568	1271.79
444.774	1265.64
444.981	1187.82
445.187	1368.04
445.394	1406.95
445.6	1335.28
445.807	1488.87
446.013	1468.39
446.22	1535.98
446.426	1701.86
446.633	1763.3
446.839	1896.42
447.046	1697.77
447.252	2033.63
447.459	2127.84
447.665	1937.38
447.871	2224.09
448.078	2269.15
448.284	2220
448.491	2469.85
448.697	2480.09
448.903	2605.02
449.11	2672.6
449.316	2625.5
449.522	2932.69
449.728	2947.03
449.935	3055.57
450.141	2957.27
450.347	3424.2
450.553	3235.79
450.76	3272.65
450.966	3590.09
451.172	3639.24
451.378	3839.94
451.584	3858.37
451.791	4149.18
451.997	4239.3
452.203	4315.07
452.409	4695.99
452.615	4841.4
452.821	4589.5
453.027	4681.66
453.233	5318.57
453.44	5085.11
453.646	5414.83
453.852	5752.74
454.058	5722.02
454.264	5877.67
454.47	6633.37
454.676	6375.33
454.882	7028.63
455.088	6670.23
455.294	7118.74
455.5	7434.13
455.705	8144.77
455.911	7995.27
456.117	8171.4
456.323	8482.69
456.529	8345.47
456.735	9262.96
456.941	9492.34
457.147	9842.54
457.352	10233.7
457.558	10420.06
457.764	11165.53
457.97	11323.22
458.176	11769.68
458.381	12345.16
458.587	12697.41
458.793	13100.86
458.999	13197.11
459.204	14823.2
459.41	15474.45
459.616	15206.17
459.821	16150.28
460.027	16830.21
460.233	17471.22
460.438	17645.3
460.644	18788.07
460.85	18493.16
461.055	19619.54
461.261	20414.15
461.466	19973.84
461.672	20158.16
461.878	22609.57
462.083	22851.24
462.289	22947.49
462.494	24012.43
462.7	24116.88
462.905	24471.18
463.111	26510.96
463.316	27907.67
463.522	28085.84
463.727	29374.02
463.932	30420.53
464.138	31352.35
464.343	32486.93
464.549	32661.01
464.754	34862.57
464.959	35886.56
465.165	36371.93
465.37	35960.28
465.575	36455.89
465.781	38522.29
465.986	40215.96
466.191	39763.36
466.397	39476.65
466.602	39052.72
466.807	40887.7
467.012	41442.7
467.218	42108.29
467.423	42159.48
467.628	43699.56
467.833	45671.75
468.038	44862.8
468.244	44051.81
468.449	46415.16
468.654	45530.44
468.859	45215.05
469.064	45491.53
469.269	44541.27
469.474	44619.1
469.679	45948.23
469.885	44414.3
470.09	45290.83
470.295	45110.61
470.5	44469.59
470.705	44989.78
470.91	43658.6
471.115	42906.99
471.32	43818.34
471.525	43330.92
471.73	41973.12
471.935	41999.74
472.139	40541.59
472.344	40955.28
472.549	40373.66
472.754	39454.12
472.959	38583.73
473.164	37359.05
473.369	36752.85
473.574	37742.02
473.778	37000.65
473.983	36441.56
474.188	35648.99
474.393	33990.14
474.598	33889.79
474.802	33445.38
475.007	32935.43
475.212	32880.14
475.417	31444.51
475.621	31237.67
475.826	31000.1
476.031	30099
476.235	29566.52
476.44	29541.95
476.645	28239.44
476.849	28620.36
477.054	27571.8
477.259	27045.48
477.463	27203.17
477.668	26504.81
477.872	26297.97
478.077	25675.38
478.282	24798.85
478.486	24655.5
478.691	24747.65
478.895	24331.92
479.1	23998.1
479.304	24106.64
479.509	23355.04
479.713	23408.28
479.918	22970.02
480.122	22480.55
480.326	22560.42
480.531	22486.7
480.735	22263.47
480.94	21817.01
481.144	22769.32
481.348	21589.69
481.553	21753.52
481.757	20946.62
481.961	21423.8
482.166	21448.38
482.37	20874.95
482.574	20207.31
482.778	20539.08
482.983	20926.14
483.187	20428.49
483.391	20274.89
483.595	19934.93
483.8	20049.61
484.004	19717.84
484.208	19861.2
484.412	19451.61
484.616	19232.47
484.821	19054.3
485.025	18570.98
485.229	18753.25
485.433	18339.56
485.637	18071.28
485.841	17745.65
486.045	17645.3
486.249	17682.16
486.453	17276.66
486.657	17157.88
486.861	16789.25
487.065	16269.06
487.269	16269.06
487.473	15650.58
487.677	15965.96
487.881	15566.61
488.085	15361.81
488.289	14896.92
488.493	14528.29
488.697	14579.49
488.901	14509.86
489.105	14028.59
489.309	14006.06
489.512	13555.51
489.716	13406
489.92	13166.39
490.124	12775.23
490.328	12902.2
490.531	12199.75
490.735	12384.07
490.939	12076.87
491.143	11681.61
491.346	11589.46
491.55	11460.43
491.754	11296.6
491.958	11290.45
492.161	10839.9
492.365	10813.27
492.569	10735.45
492.772	10542.94
492.976	10385.25
493.18	10164.07
493.383	10053.48
493.587	10045.29
493.79	10002.28
493.994	9596.78
494.197	9715.56
494.401	9340.79
494.605	9541.49
494.808	9504.62
495.012	9367.41
495.215	9445.23
495.419	9246.58
495.622	9129.84
495.825	8945.53
496.029	8890.23
496.232	9103.22
496.436	9033.59
496.639	9123.7
496.843	8771.45
497.046	8980.34
497.249	9076.6
497.453	8945.53
497.656	9099.13
497.859	8998.77
498.063	8970.1
498.266	9187.19
498.469	9060.21
498.673	8976.25
498.876	9119.6
499.079	9338.74
499.282	8978.3
499.485	9430.9
499.689	9432.94
499.892	9471.86
500.095	9555.82
500.298	9373.55
500.501	9439.09
500.705	9756.52
500.908	9633.64
501.111	9742.19
501.314	10002.28
501.517	9996.14
501.72	9936.74
501.923	10039.14
502.126	10188.64
502.329	10696.54
502.532	10534.75
502.735	10743.64
502.938	10887
503.141	10839.9
503.344	10784.6
503.547	11398.99
503.75	11216.72
503.953	11480.91
504.156	11544.4
504.359	11718.48
504.562	11859.79
504.765	12115.78
504.968	12330.82
505.17	12638.02
505.373	12773.18
505.576	12941.11
505.779	13274.93
505.982	13080.38
506.185	13692.72
506.387	13725.49
506.59	13909.8
506.793	14108.46
506.996	14481.19
507.198	14858.01
507.401	14819.1
507.604	15132.44
507.807	15793.93
508.009	15976.2
508.212	16123.66
508.415	16873.21
508.617	16604.93
508.82	17032.96
509.022	17190.65
509.225	17880.82
509.428	18353.9
509.63	18579.17
509.833	18939.61
510.035	19541.72
510.238	19766.99
510.44	20377.29
510.643	20807.36
510.845	21225.15
511.048	21499.58
511.25	22154.93
511.453	22173.36
511.655	23447.19
511.858	23367.32
512.06	24401.55
512.262	24204.94
512.465	24757.89
512.667	25871.99
512.87	26220.14
513.072	26488.43
513.274	27373.15
513.477	27999.83
513.679	28548.68
513.881	29060.68
514.084	29834.81
514.286	30547.5
514.488	31151.65
514.69	31667.74
514.893	32452.11
515.095	33175.05
515.297	33955.32
515.499	34139.64
515.701	35247.59
515.904	35954.14
516.106	36400.6
516.308	37373.38
516.51	38229.43
516.712	38688.18
516.914	39407.01
517.116	40709.52
517.318	40730
517.52	41553.29
517.722	42001.79
517.925	43228.52
518.127	44066.14
518.329	44485.98
518.531	44924.24
518.733	46062.91
518.935	46986.55
519.136	47478.06
519.338	48160.03
519.54	48698.65
519.742	49683.72
519.944	49839.37
520.146	51178.74
520.348	51348.72
520.55	52049.13
520.752	52313.31
520.954	53890.25
521.155	53863.63
521.357	54578.37
521.559	55407.79
521.761	56093.86
521.963	56290.47
522.164	56755.36
522.366	57064.6
522.568	57801.87
522.77	57734.29
522.971	59112.57
523.173	58457.22
523.375	59169.91
523.576	59268.22
523.778	59196.54
523.98	60095.6
524.181	60218.47
524.383	59997.29
524.584	60634.21
524.786	60716.13
524.988	60566.63
525.189	61017.18
525.391	61068.38
525.592	61168.73
525.794	61600.85
525.995	60771.42
526.197	60873.82
526.398	60830.82
526.6	60603.49
526.801	60654.69
527.003	60462.18
527.204	60107.88
527.406	60906.59
527.607	59798.64
527.808	60183.66
528.01	59069.56
528.211	58813.57
528.412	59413.62
528.614	58936.44
528.815	58137.74
529.016	58473.6
529.218	57009.31
529.419	57150.62
529.62	56317.09
529.822	56302.76
530.023	55641.26
530.224	55440.56
530.425	54750.4
530.626	53542.1
530.828	53265.62
531.029	54076.61
531.23	52358.37
531.431	52042.98
531.632	51866.86
531.833	51373.3
532.035	50420.99
532.236	49878.28
532.437	49409.29
532.638	48608.54
532.839	47983.91
533.04	47385.9
533.241	46748.98
533.442	47162.67
533.643	46275.9
533.844	44944.72
534.045	44485.98
534.246	43740.52
534.447	43566.44
534.648	42800.5
534.849	42472.82
535.05	41285
535.251	41076.11
535.451	40537.49
535.652	40111.52
535.853	39648.68
536.054	39247.27
536.255	38434.23
536.456	37868.99
536.657	37678.53
536.857	36832.72
537.058	36443.6
537.259	36568.53
537.46	35405.28
537.66	35081.7
537.861	34979.31
538.062	34326
538.263	34070.01
538.463	33121.8
538.664	32652.81
538.865	32843.27
539.065	32323.09
539.266	31512.1
539.466	31696.41
539.667	30858.79
539.868	31165.99
540.068	30273.07
540.269	29744.7
540.469	29783.61
540.67	29183.55
540.87	28917.32
541.071	28550.73
541.271	28413.52
541.472	28061.27
541.672	27453.02
541.873	27117.15
542.073	26572.39
542.274	26852.97
542.474	26494.57
542.675	25765.49
542.875	25915
543.075	25710.2
543.276	25050.75
543.476	24989.31
543.676	24729.22
543.877	24450.7
544.077	24323.72
544.277	23842.45
544.478	23535.26
544.678	23443.1
544.878	23133.85
545.078	22695.59
545.279	22400.68
545.479	22169.26
545.679	22023.86
545.879	21733.04
546.079	21626.55
546.28	21319.35
546.48	20958.91
546.68	20731.59
546.88	20758.21
547.08	20117.2
547.28	20156.11
547.48	19467.99
547.68	19926.74
547.88	19381.98
548.081	19123.93
548.281	18845.41
548.481	18712.29
548.681	18673.38
548.881	18409.19
549.081	18007.79
549.28	17600.24
549.48	17428.21
549.68	17420.02
549.88	17272.57
550.08	16701.19
550.28	16473.86
550.48	16193.29
550.68	16049.93
550.88	15996.68
551.08	15406.87
551.279	15251.22
551.479	15073.05
551.679	14929.69
551.879	14649.12
552.079	14540.58
552.278	14159.66
552.478	14108.46
552.678	13897.52
552.878	13662
553.077	13561.65
553.277	13100.86
553.477	13186.87
553.676	12822.33
553.876	12728.13
554.076	12556.1
554.275	12363.59
554.475	12040.01
554.674	12023.62
554.874	11829.07
555.074	11401.04
555.273	11423.57
555.473	11001.69
555.672	11044.7
555.872	10760.03
556.071	10690.4
556.271	10659.68
556.47	10250.08
556.67	9985.9
556.869	9951.08
557.068	9744.24
557.268	9768.81
557.467	9602.93
557.667	9521.01
557.866	9217.91
558.065	9084.79
558.265	8961.91
558.464	8712.06
558.663	8707.96
558.863	8425.34
559.062	8671.1
559.261	8238.98
559.461	8124.29
559.66	7860.1
559.859	7765.9
560.058	7597.96
560.258	7505.81
560.457	7540.62
560.656	7501.71
560.855	7235.47
561.054	7323.54
561.253	7102.36
561.453	6885.27
561.652	6889.37
561.851	6967.19
562.05	6741.91
562.249	6440.86
562.448	6496.16
562.647	6385.57
562.846	6047.65
563.045	6297.5
563.244	6031.27
563.443	6051.75
563.642	5914.53
563.841	5963.68
564.04	5754.79
564.239	5664.68
564.438	5535.66
564.637	5490.6
564.836	5351.34
565.035	5277.62
565.234	5222.32
565.432	5136.31
565.631	5191.6
565.83	4958.13
566.029	4880.31
566.228	4722.62
566.427	4679.61
566.625	4620.22
566.824	4640.7
567.023	4544.44
567.222	4456.38
567.42	4425.66
567.619	4454.33
567.818	4300.73
568.016	4407.23
568.215	4218.82
568.414	4169.66
568.612	4169.66
568.811	4124.61
569.01	4036.55
569.208	3760.07
569.407	4100.03
569.605	3852.23
569.804	3852.23
570.002	3641.29
570.201	3569.61
570.4	3588.04
570.598	3477.45
570.797	3561.42
570.995	3440.59
571.193	3420.11
571.392	3293.13
571.59	3237.84
571.789	3293.13
571.987	3227.6
572.186	3209.17
572.384	3141.58
572.582	2955.22
572.781	3184.59
572.979	2873.3
573.177	2932.69
573.376	2934.74
573.574	2811.86
573.772	2789.33
573.971	2736.09
574.169	2572.25
574.367	2705.37
574.565	2625.5
574.763	2617.3
574.962	2525.15
575.16	2498.52
575.358	2385.88
575.556	2381.79
575.754	2586.58
575.952	2324.44
576.151	2269.15
576.349	2328.54
576.547	2093.02
576.745	2277.34
576.943	2246.62
577.141	2070.5
577.339	1998.82
577.537	2111.46
577.735	2119.65
577.933	1955.81
578.131	2054.11
578.329	2041.82
578.527	1849.32
578.725	1961.95
578.923	1830.88
579.121	2013.15
579.319	1800.16
579.516	1832.93
579.714	1925.09
579.912	1757.16
580.11	1578.98
580.308	1671.14
580.506	1722.34
580.704	1587.18
580.901	1615.85
581.099	1753.06
581.297	1624.04
581.495	1529.83
581.692	1560.55
581.89	1544.17
582.088	1630.18
582.285	1464.3
582.483	1380.33
582.681	1380.33
582.878	1388.52
583.076	1316.84
583.274	1415.15
583.471	1503.21
583.669	1347.56
583.866	1366
584.064	1273.84
584.262	1187.82
584.459	1216.49
584.657	1216.49
584.854	1169.39
585.052	1253.36
585.249	1277.93
585.447	1175.53
585.644	1062.9
585.841	1214.45
586.039	1196.01
586.236	1208.3
586.434	1087.47
586.631	1036.27
586.828	1069.04
587.026	1036.27
587.223	966.64
587.42	903.15
587.618	1069.04
587.815	1023.98
588.012	972.79
588.21	948.21
588.407	1048.56
588.604	1081.33
588.801	870.39
588.999	868.34
589.196	972.79
589.393	776.18
589.59	907.25
589.787	944.11
589.984	954.35
590.182	757.75
590.379	759.8
590.576	847.86
590.773	778.23
590.97	868.34
591.167	878.58
591.364	878.58
591.561	767.99
591.758	886.77
591.955	911.35
592.152	942.07
592.349	819.19
592.546	817.14
592.743	794.61
592.94	770.04
593.137	806.9
593.334	962.55
593.531	876.53
593.727	849.91
593.924	925.68
594.121	856.05
594.318	851.96
594.515	872.43
594.712	1044.46
594.908	942.07
595.105	806.9
595.302	819.19
595.499	897.01
595.696	972.79
595.892	792.56
596.089	966.64
596.286	907.25
596.482	1026.03
596.679	980.98
596.876	1085.42
597.072	1107.95
597.269	917.49
597.466	1095.66
597.662	1112.05
597.859	1044.46
598.055	1085.42
598.252	1169.39
598.448	1292.27
598.645	1329.13
598.841	1404.91
599.038	1394.67
599.234	1517.54
599.431	1488.87
599.627	1484.78
599.824	1626.09
600.02	1658.85
600.217	1724.39
600.413	1783.78
600.609	1785.83
600.806	2240.48
601.002	1896.42
601.198	1961.95
601.395	2217.95
601.591	2172.89
601.787	2154.46
601.984	2349.02
602.18	2412.51
602.376	2432.99
602.572	2656.22
602.769	2811.86
602.965	2748.37
603.161	2940.88
603.357	2942.93
603.553	3141.58
603.75	3098.58
603.946	3237.84
604.142	3426.25
604.338	3622.86
604.534	3561.42
604.73	3747.78
604.926	3741.64
605.122	4050.88
605.318	4054.98
605.514	4310.97
605.71	4257.73
605.906	4478.91
606.102	4675.51
606.298	4814.77
606.494	4964.28
606.69	5038
606.886	5281.71
607.082	5355.44
607.278	5545.9
607.474	5638.06
607.67	5863.33
607.866	5703.59
608.062	6283.17
608.257	6397.85
608.453	6277.02
608.649	6983.57
608.845	6754.2
609.041	6864.79
609.236	7376.78
609.432	7528.33
609.628	7673.74
609.824	7792.52
610.019	8071.04
610.215	8040.33
610.411	8621.95
610.606	8667
610.802	8820.6
610.998	9068.41
611.193	9506.67
611.389	9543.53
611.584	9867.11
611.78	10030.95
611.976	10288.99
612.171	10704.73
612.367	11036.5
612.562	11030.36
612.758	11159.38
612.953	11575.12
613.149	11964.23
613.344	12455.75
613.539	12832.57
613.735	13121.34
613.93	13406
614.126	13801.26
614.321	14038.83
614.517	14446.37
614.712	14927.64
614.907	15200.02
615.103	15705.87
615.298	15865.61
615.493	16480
615.688	16703.23
615.884	17393.4
616.079	17399.54
616.274	18233.07
616.47	18460.39
616.665	18843.36
616.86	19408.6
617.055	20084.43
617.25	20354.76
617.445	21188.28
617.641	21063.36
617.836	22085.29
618.031	21900.98
618.226	23121.57
618.421	23631.51
618.616	24237.71
618.811	24442.51
619.006	25306.75
619.201	25630.33
619.396	26214
619.591	26400.37
619.786	27545.18
619.981	27995.73
620.176	28522.06
620.371	28882.5
620.566	29634.11
620.761	30101.04
620.956	31383.07
621.151	31473.18
621.346	32456.21
621.541	32501.26
621.735	33922.55
621.93	33967.61
622.125	34385.4
622.32	34565.62
622.515	36064.73
622.709	36378.07
622.904	37105.1
623.099	37868.99
623.294	38501.81
623.488	38641.07
623.683	39792.03
623.878	39603.62
624.072	41063.82
624.267	41667.97
624.462	41899.39
624.656	42335.61
624.851	43390.31
625.046	43605.35
625.24	44346.72
625.435	44469.59
625.629	45469
625.824	46181.7
626.018	46456.12
626.213	46871.86
626.407	47781.16
626.602	47836.45
626.796	48852.25
626.991	49161.49
627.185	49650.95
627.38	49722.63
627.574	49868.04
627.768	49816.84
627.963	50531.58
628.157	50400.51
628.352	51082.48
628.546	50398.46
628.74	51303.67
628.935	50521.34
629.129	51248.37
629.323	50253.06
629.517	50101.51
629.712	49630.47
629.906	49917.19
630.1	48827.67
630.294	48825.62
630.489	48246.05
630.683	47588.65
630.877	46744.89
631.071	46030.15
631.265	46124.35
631.459	44774.74
631.653	43566.44
631.848	42976.62
632.042	41735.56
632.236	40979.85
632.43	39722.4
632.624	38763.95
632.818	37506.5
633.012	36584.91
633.206	35407.33
633.4	34917.87
633.594	32710.16
633.788	31979.03
633.982	31192.61
634.176	30103.09
634.369	28687.95
634.563	27743.83
634.757	26400.37
634.951	25955.96
635.145	24843.91
635.339	23797.4
635.533	22734.5
635.726	22093.49
635.92	20874.95
636.114	20070.09
636.308	19392.22
636.501	18749.15
636.695	17774.32
636.889	17053.44
637.083	16408.33
637.276	15468.31
637.47	15038.23
637.664	14362.4
637.857	13768.49
638.051	13340.47
638.244	12816.19
638.438	12361.54
638.632	12019.53
638.825	11071.32
639.019	10757.98
639.212	10299.23
639.406	10006.38
639.599	9629.55
639.793	9244.53
639.986	8824.7
640.18	8576.89
640.373	8085.38
640.567	7952.26
640.76	7616.4
640.954	7481.23
641.147	7206.8
641.34	6678.43
641.534	6479.77
641.727	6309.79
641.92	6170.53
642.114	5906.34
642.307	5568.43
642.5	5420.97
642.694	5093.3
642.887	4884.41
643.08	4769.72
643.273	4650.94
643.467	4364.22
643.66	4048.83
643.853	4071.36
644.046	3917.76
644.239	3825.61
644.432	3649.48
644.626	3495.88
644.819	3250.13
645.012	3344.33
645.205	3145.68
645.398	2979.79
645.591	2828.24
645.784	2818
645.977	2551.77
646.17	2752.47
646.363	2508.76
646.556	2369.5
646.749	2293.72
646.942	2142.18
647.135	2181.09
647.328	2058.21
647.521	1966.05
647.714	1830.88
647.907	1843.17
648.099	1763.3
648.292	1701.86
648.485	1617.9
648.678	1462.25
648.871	1505.26
649.064	1427.43
649.256	1312.75
649.449	1275.88
649.642	1193.97
649.835	1277.93
650.027	1165.29
650.22	1286.12
650.413	1054.7
650.605	1118.19
650.798	997.36
650.991	1015.79
651.183	1054.7
651.376	978.93
651.568	1040.37
651.761	860.15
651.954	921.59
652.146	782.32
652.339	833.52
652.531	890.87
652.724	655.35
652.916	759.8
653.109	598.01
653.301	825.33
653.494	710.65
653.686	702.45
653.879	782.32
654.071	677.88
654.263	536.57
654.456	581.62
654.648	614.39
654.84	550.9
655.033	573.43
655.225	649.21
655.417	417.79
655.61	643.06
655.802	612.34
655.994	542.71
656.186	421.88
656.379	514.04
656.571	315.39
656.763	473.08
656.955	485.37
657.148	397.31
657.34	530.42
657.532	286.72
657.724	391.16
657.916	327.67
658.108	501.75
658.3	382.97
658.492	444.41
658.684	239.61
658.876	487.42
659.068	350.2
659.26	182.27
659.452	329.72
659.644	256
659.836	514.04
660.028	354.3
660.22	276.48
660.412	337.91
660.604	321.53
660.796	290.81
660.988	397.31
661.18	256
661.372	309.24
661.563	176.13
661.755	315.39
661.947	137.21
662.139	237.56
662.331	274.43
662.522	270.33
662.714	172.03
662.906	137.21
663.097	212.99
663.289	161.79
663.481	90.11
663.673	272.38
663.864	235.52
664.056	239.61
664.247	202.75
664.439	290.81
664.631	276.48
664.822	264.19
665.014	239.61
665.205	145.41
665.397	169.98
665.588	249.85
665.78	174.08
665.971	114.69
666.163	233.47
666.354	249.85
666.546	133.12
666.737	67.58
666.929	163.84
667.12	135.17
667.311	182.27
667.503	223.23
667.694	149.5
667.885	233.47
668.077	204.8
668.268	163.84
668.459	172.03
668.651	270.33
668.842	194.56
669.033	212.99
669.224	131.07
669.416	321.53
669.607	131.07
669.798	135.17
669.989	346.11
670.18	202.75
670.371	143.36
670.563	38.91
670.754	430.07
670.945	217.08
671.136	190.46
671.327	143.36
671.518	272.38
671.709	276.48
671.9	268.28
672.091	210.94
672.282	264.19
672.473	126.97
672.664	100.35
672.855	233.47
673.046	172.03
673.237	184.32
673.428	241.66
673.619	274.43
673.809	174.08
674	233.47
674.191	194.56
674.382	192.51
674.573	190.46
674.764	188.41
674.954	251.9
675.145	133.12
675.336	208.89
675.527	184.32
675.717	176.13
675.908	251.9
676.099	186.37
676.289	245.76
676.48	81.92
676.671	208.89
676.861	264.19
677.052	176.13
677.243	174.08
677.433	219.13
677.624	245.76
677.814	184.32
678.005	251.9
678.195	389.11
678.386	100.35
678.576	204.8
678.767	112.64
678.957	208.89
679.148	350.2
679.338	333.82
679.529	276.48
679.719	212.99
679.909	319.48
680.1	299
680.29	282.62
680.481	219.13
680.671	303.1
680.861	296.96
681.052	282.62
681.242	186.37
681.432	354.3
681.622	333.82
681.813	202.75
682.003	208.89
682.193	225.28
682.383	262.14
682.573	229.37
682.764	268.28
682.954	301.05
683.144	370.68
683.334	317.44
683.524	282.62
683.714	360.44
683.904	348.15
684.094	329.72
684.284	299
684.474	419.83
684.664	360.44
684.854	309.24
685.044	374.78
685.234	350.2
685.424	247.8
685.614	241.66
685.804	380.92
685.994	342.01
686.184	184.32
686.374	307.2
686.564	374.78
686.753	358.39
686.943	184.32
687.133	284.67
687.323	260.09
687.513	301.05
687.702	249.85
687.892	290.81
688.082	309.24
688.272	272.38
688.461	311.29
688.651	440.31
688.841	292.86
689.03	268.28
689.22	296.96
689.41	305.15
689.599	325.63
689.789	264.19
689.979	387.07
690.168	264.19
690.358	333.82
690.547	401.4
690.737	333.82
690.926	315.39
691.116	286.72
691.305	333.82
691.495	258.04
691.684	198.65
691.874	278.52
692.063	251.9
692.252	440.31
692.442	391.16
692.631	264.19
692.82	235.52
693.01	331.77
693.199	344.06
693.388	358.39
693.578	251.9
693.767	342.01
693.956	329.72
694.146	225.28
694.335	284.67
694.524	321.53
694.713	311.29
694.902	233.47
695.092	249.85
695.281	342.01
695.47	270.33
695.659	276.48
695.848	274.43
696.037	174.08
696.226	239.61
696.415	245.76
696.604	264.19
696.793	251.9
696.982	198.65
697.171	331.77
697.36	292.86
697.549	219.13
697.738	172.03
697.927	194.56
698.116	176.13
698.305	333.82
698.494	245.76
698.683	274.43
698.872	323.58
699.061	249.85
699.25	239.61
699.438	237.56
699.627	221.18
699.816	311.29
700.005	159.74
700.193	206.84
700.382	319.48
700.571	292.86
700.76	280.57
700.948	305.15
701.137	253.95
701.326	317.44
701.514	270.33
701.703	362.49
701.892	366.59
702.08	305.15
702.269	262.14
702.457	176.13
702.646	319.48
702.834	221.18
703.023	315.39
703.212	299
703.4	253.95
703.589	196.61
703.777	280.57
703.965	221.18
704.154	129.02
704.342	198.65
704.531	163.84
704.719	223.23
704.907	233.47
705.096	63.49
705.284	231.42
705.472	239.61
705.661	292.86
705.849	294.91
706.037	358.39
706.226	227.32
706.414	217.08
706.602	174.08
706.79	266.24
706.979	260.09
707.167	256
707.355	149.5
707.543	253.95
707.731	198.65
707.919	182.27
708.107	219.13
708.296	165.89
708.484	176.13
708.672	249.85
708.86	307.2
709.048	286.72
709.236	258.04
709.424	256
709.612	286.72
709.8	188.41
709.988	307.2
710.176	294.91
710.364	323.58
710.551	169.98
710.739	260.09
710.927	223.23
711.115	286.72
711.303	292.86
711.491	305.15
711.679	143.36
711.866	245.76
712.054	245.76
712.242	268.28
712.43	333.82
712.617	208.89
712.805	327.67
712.993	247.8
713.181	225.28
713.368	380.92
713.556	325.63
713.744	233.47
713.931	401.4
714.119	323.58
714.306	249.85
714.494	301.05
714.682	231.42
714.869	176.13
715.057	204.8
715.244	110.59
715.432	215.04
715.619	241.66
715.807	274.43
715.994	180.22
716.182	280.57
716.369	376.83
716.556	317.44
716.744	172.03
716.931	174.08
717.119	321.53
717.306	256
717.493	266.24
717.681	262.14
717.868	149.5
718.055	309.24
718.242	245.76
718.43	247.8
718.617	258.04
718.804	231.42
718.991	325.63
719.179	313.34
719.366	325.63
719.553	313.34
719.74	256
719.927	335.87
720.114	276.48
720.301	241.66
720.488	266.24
720.676	208.89
720.863	407.55
721.05	335.87
721.237	294.91
721.424	307.2
721.611	264.19
721.798	253.95
721.985	241.66
722.172	325.63
722.358	231.42
722.545	315.39
722.732	346.11
722.919	337.91
723.106	292.86
723.293	210.94
723.48	288.76
723.667	229.37
723.853	352.25
724.04	311.29
724.227	303.1
724.414	274.43
724.6	372.73
724.787	411.64
724.974	358.39
725.161	299
725.347	198.65
725.534	264.19
725.72	342.01
725.907	360.44
726.094	360.44
726.28	245.76
726.467	307.2
726.653	225.28
726.84	348.15
727.027	389.11
727.213	329.72
727.4	370.68
727.586	301.05
727.773	303.1
727.959	292.86
728.145	280.57
728.332	335.87
728.518	225.28
728.705	366.59
728.891	301.05
729.077	282.62
729.264	204.8
729.45	239.61
729.636	407.55
729.823	264.19
730.009	378.87
730.195	393.21
730.382	342.01
730.568	264.19
730.754	315.39
730.94	299
731.126	315.39
731.313	348.15
731.499	262.14
731.685	288.76
731.871	419.83
732.057	346.11
732.243	342.01
732.429	397.31
732.615	368.63
732.801	307.2
732.987	401.4
733.173	348.15
733.359	319.48
733.545	360.44
733.731	350.2
733.917	442.36
734.103	387.07
734.289	339.96
734.475	333.82
734.661	442.36
734.847	319.48
735.033	249.85
735.219	370.68
735.404	301.05
735.59	202.75
735.776	309.24
735.962	323.58
736.148	258.04
736.333	446.46
736.519	364.54
736.705	305.15
736.89	299
737.076	296.96
737.262	260.09
737.447	309.24
737.633	339.96
737.819	385.02
738.004	280.57
738.19	325.63
738.375	286.72
738.561	358.39
738.747	325.63
738.932	278.52
739.118	454.65
739.303	366.59
739.489	391.16
739.674	331.77
739.859	194.56
740.045	389.11
740.23	278.52
740.416	159.74
740.601	346.11
740.786	313.34
740.972	253.95
741.157	262.14
741.342	286.72
741.528	276.48
741.713	385.02
741.898	327.67
742.084	274.43
742.269	356.35
742.454	415.74
742.639	419.83
742.824	376.83
743.01	380.92
743.195	358.39
743.38	344.06
743.565	360.44
743.75	344.06
743.935	397.31
744.12	401.4
744.305	294.91
744.49	239.61
744.675	313.34
744.86	319.48
745.045	352.25
745.23	354.3
745.415	237.56
745.6	395.26
745.785	350.2
745.97	380.92
746.155	323.58
746.34	403.45
746.525	221.18
746.71	331.77
746.895	219.13
747.079	231.42
747.264	268.28
747.449	366.59
747.634	317.44
747.819	352.25
748.003	360.44
748.188	192.51
748.373	239.61
748.557	315.39
748.742	344.06
748.927	241.66
749.111	221.18
749.296	194.56
749.481	327.67
749.665	229.37
749.85	215.04
750.034	264.19
750.219	245.76
750.404	305.15
750.588	354.3
750.773	165.89
750.957	282.62
751.141	217.08
751.326	260.09
751.51	174.08
751.695	202.75
751.879	241.66
752.064	303.1
752.248	202.75
752.432	317.44
752.617	288.76
752.801	241.66
752.985	210.94
753.17	323.58
753.354	249.85
753.538	264.19
753.722	180.22
753.907	206.84
754.091	122.88
754.275	229.37
754.459	159.74
754.643	190.46
754.828	280.57
755.012	264.19
755.196	116.73
755.38	225.28
755.564	176.13
755.748	212.99
755.932	241.66
756.116	251.9
756.3	241.66
756.484	186.37
756.668	258.04
756.852	129.02
757.036	178.17
757.22	180.22
757.404	145.41
757.588	210.94
757.772	172.03
757.956	124.93
758.14	319.48
758.323	139.26
758.507	167.93
758.691	116.73
758.875	288.76
759.059	301.05
759.242	90.11
759.426	131.07
759.61	221.18
759.794	159.74
759.977	229.37
760.161	389.11
760.345	280.57
760.528	315.39
760.712	210.94
760.895	251.9
761.079	118.78
761.263	63.49
761.446	110.59
761.63	122.88
761.813	253.95
761.997	124.93
762.18	116.73
762.364	163.84
762.547	38.91
762.731	147.45
762.914	79.87
763.098	94.21
763.281	153.6
763.464	167.93
763.648	149.5
763.831	210.94
764.015	67.58
764.198	219.13
764.381	106.49
764.564	59.39
764.748	192.51
764.931	194.56
765.114	204.8
765.297	235.52
765.481	0
765.664	94.21
765.847	114.69
766.03	206.84
766.213	102.4
766.397	139.26
766.58	12.29
766.763	215.04
766.946	98.3
767.129	98.3
767.312	112.64
767.495	145.41
767.678	67.58
767.861	169.98
768.044	110.59
768.227	77.82
768.41	106.49
768.593	102.4
768.776	153.6
768.959	81.92
769.142	215.04
769.324	145.41
769.507	67.58
769.69	65.54
769.873	139.26
770.056	256
770.239	184.32
770.421	122.88
770.604	104.45
770.787	81.92
770.97	153.6
771.152	83.97
771.335	174.08
771.518	10.24
771.7	196.61
771.883	176.13
772.066	88.06
772.248	96.25
772.431	215.04
772.613	182.27
772.796	114.69
772.978	120.83
773.161	155.65
773.343	102.4
773.526	75.77
773.708	71.68
773.891	-36.86
774.073	145.41
774.256	104.45
774.438	198.65
774.621	55.3
774.803	114.69
774.985	100.35
775.168	165.89
775.35	2.05
775.532	196.61
775.715	63.49
775.897	124.93
776.079	88.06
776.261	120.83
776.444	75.77
776.626	67.58
776.808	79.87
776.99	75.77
777.173	6.14
777.355	20.48
777.537	122.88
777.719	57.34
777.901	26.62
778.083	114.69
778.265	96.25
778.447	116.73
778.629	32.77
778.811	94.21
778.993	217.08
779.175	141.31
779.357	86.01
779.539	-18.43
779.721	63.49
779.903	137.21
780.085	22.53
780.267	118.78
780.449	110.59
780.631	120.83
780.812	178.17
780.994	104.45
781.176	71.68
781.358	75.77
781.54	61.44
781.721	96.25
781.903	120.83
782.085	49.15
782.267	145.41
782.448	-10.24
782.63	40.96
782.812	22.53
782.993	145.41
783.175	92.16
783.357	-18.43
783.538	118.78
783.72	38.91
783.901	12.29
784.083	53.25
784.264	94.21
784.446	-108.54
784.627	-30.72
784.809	108.54
784.99	71.68
785.172	59.39
785.353	71.68
785.535	114.69
785.716	36.86
785.897	-38.91
786.079	36.86
786.26	90.11
786.441	86.01
786.623	-45.06
786.804	-32.77
786.985	12.29
787.167	96.25
787.348	77.82
787.529	77.82
787.71	141.31
787.891	131.07
788.073	4.1
788.254	-79.87
788.435	104.45
788.616	40.96
788.797	-8.19
788.978	79.87
789.159	8.19
789.34	131.07
789.522	57.34
789.703	22.53
789.884	59.39
790.065	71.68
790.246	110.59
790.427	100.35
790.607	172.03
790.788	104.45
790.969	57.34
791.15	49.15
791.331	-8.19
791.512	24.58
791.693	-8.19
791.874	2.05
792.054	202.75
792.235	192.51
792.416	16.38
792.597	-38.91
792.778	133.12
792.958	98.3
793.139	133.12
793.32	-18.43
793.5	18.43
793.681	73.73
793.862	90.11
794.042	88.06
794.223	-77.82
794.404	-16.38
794.584	-71.68
794.765	-77.82
794.945	36.86
795.126	100.35
795.306	98.3
795.487	45.06
795.667	12.29
795.848	61.44
796.028	47.1
796.209	55.3
796.389	63.49
796.57	47.1
796.75	-38.91
796.93	-4.1
797.111	10.24
797.291	0
797.471	131.07
797.652	-88.06
797.832	-16.38
798.012	172.03
798.192	-45.06
798.373	-77.82
798.553	30.72
798.733	-6.14
798.913	-10.24
799.093	-16.38
799.274	36.86
799.454	36.86
799.634	67.58
799.814	69.63
799.994	63.49
800.174	-6.14
800.354	-67.58
800.534	-57.34
800.714	110.59
800.894	-65.54
801.074	-67.58
801.254	-40.96
801.434	163.84
801.614	4.1
801.794	-47.1
801.974	1798.12
802.154	0
802.334	88.06
802.514	-67.58
802.693	-2.05
802.873	34.82
803.053	98.3
803.233	36.86
803.413	26.62
803.592	18.43
803.772	-2.05
803.952	55.3
804.131	-86.01
804.311	88.06
804.491	26.62
804.67	-2.05
804.85	-43.01
805.03	112.64
805.209	36.86
805.389	-12.29
805.568	-8.19
805.748	40.96
805.928	22.53
806.107	102.4
806.287	-2.05
806.466	32.77
806.646	0
806.825	45.06
807.004	22.53
807.184	26.62
807.363	55.3
807.543	32.77
807.722	-69.63
807.901	59.39
808.081	28.67
808.26	-114.69
808.439	-18.43
808.619	28.67
808.798	47.1
808.977	38.91
809.156	81.92
809.336	6.14
809.515	67.58
809.694	-53.25
809.873	28.67
810.052	90.11
810.231	90.11
810.411	45.06
810.59	100.35
810.769	59.39
810.948	71.68
811.127	-75.77
811.306	-38.91
811.485	10.24
811.664	190.46
811.843	-28.67
812.022	38.91
812.201	34.82
812.38	-71.68
812.559	12.29
812.737	51.2
812.916	-104.45
813.095	10.24
813.274	-30.72
813.453	90.11
813.632	38.91
813.811	77.82
813.989	-63.49
814.168	38.91
814.347	-114.69
814.526	18.43
814.704	147.45
814.883	94.21
815.062	-53.25
815.24	16.38
815.419	-45.06
815.598	59.39
815.776	-110.59
815.955	6.14
816.133	-110.59
816.312	167.93
816.49	-47.1
816.669	-30.72
816.847	34.82
817.026	94.21
817.204	6.14
817.383	-6.14
817.561	-30.72
817.74	100.35
817.918	26.62
818.097	-14.34
818.275	-49.15
818.453	-32.77
818.632	16.38
818.81	43.01
818.988	-43.01
819.167	-67.58
819.345	57.34
819.523	-32.77
819.701	34.82
819.879	-34.82
820.058	69.63
820.236	40.96
820.414	18.43
820.592	4.1
820.77	22.53
820.948	-4.1
821.127	-14.34
821.305	43.01
821.483	-36.86
821.661	40.96
821.839	-40.96
822.017	-26.62
822.195	28.67
822.373	69.63
822.551	6.14
822.729	26.62
822.907	96.25
823.085	40.96
823.262	12.29
823.44	-53.25
823.618	-40.96
823.796	51.2
823.974	20.48
824.152	24.58
824.329	2.05
824.507	-16.38
824.685	83.97
824.863	-12.29
825.04	63.49
825.218	38.91
825.396	-22.53
825.574	28.67
825.751	34.82
825.929	137.21
826.107	0
826.284	34.82
826.462	43.01
826.639	-131.07
826.817	-145.41
826.994	-14.34
827.172	-100.35
827.349	163.84
827.527	63.49
827.704	59.39
827.882	108.54
828.059	-34.82
828.237	20.48
828.414	112.64
828.591	-120.83
828.769	0
828.946	-88.06
829.124	2.05
829.301	71.68
829.478	-28.67
829.655	18.43
829.833	12.29
830.01	-122.88
830.187	10.24
830.364	-40.96
830.542	75.77
830.719	137.21
830.896	112.64
831.073	-4.1
831.25	43.01
831.427	14.34
831.604	-20.48
831.782	-55.3
831.959	55.3
832.136	67.58
832.313	26.62
832.49	2.05
832.667	61.44
832.844	-49.15
833.021	71.68
833.198	51.2
833.374	16.38
833.551	77.82
833.728	-100.35
833.905	86.01
834.082	-159.74
834.259	40.96
834.436	47.1
834.612	-14.34
834.789	129.02
834.966	26.62
835.143	10.24
835.319	-26.62
835.496	2.05
835.673	18.43
835.85	-2.05
836.026	12.29
836.203	106.49
836.38	-67.58
836.556	-75.77
836.733	0
836.909	75.77
837.086	2.05
837.262	-45.06
837.439	-26.62
837.616	-143.36
837.792	-32.77
837.968	6.14
838.145	-51.2
838.321	10.24
838.498	36.86
838.674	69.63
838.851	59.39
839.027	-28.67
839.203	81.92
839.38	49.15
839.556	0
839.732	45.06
839.909	-45.06
840.085	47.1
840.261	-77.82
840.437	40.96
840.614	-38.91
840.79	114.69
840.966	110.59
841.142	32.77
841.318	-6.14
841.494	10.24
841.671	120.83
841.847	-77.82
842.023	6.14
842.199	40.96
842.375	100.35
842.551	-143.36
842.727	-43.01
842.903	122.88
843.079	-47.1
843.255	26.62
843.431	53.25
843.607	43.01
843.783	-188.41
843.959	47.1
844.134	4.1
844.31	110.59
844.486	2.05
844.662	2.05
844.838	-61.44
845.013	57.34
845.189	110.59
845.365	49.15
845.541	26.62
845.716	47.1
845.892	32.77
846.068	51.2
846.244	-88.06
846.419	38.91
846.595	-67.58
846.77	-79.87
846.946	65.54
847.122	-65.54
847.297	-47.1
847.473	49.15
847.648	-108.54
847.824	-30.72
847.999	-129.02
848.175	-2.05
848.35	10.24
848.526	63.49
848.701	36.86
848.876	116.73
849.052	120.83
849.227	-12.29
849.403	-92.16
849.578	-22.53
849.753	10.24
849.929	38.91
850.104	-75.77
850.279	10.24
850.454	59.39
850.63	57.34
850.805	-2.05
850.98	12.29
851.155	-24.58
851.33	32.77
851.505	-40.96
851.681	135.17
851.856	-40.96
852.031	59.39
852.206	24.58
852.381	-57.34
852.556	20.48
852.731	0
852.906	73.73
853.081	32.77
853.256	77.82
853.431	-65.54
853.606	-2.05
853.781	-30.72
853.956	-40.96
854.131	59.39
854.305	-71.68
854.48	-26.62
854.655	-32.77
854.83	32.77
855.005	38.91
855.18	-77.82
855.354	-16.38
855.529	-28.67
855.704	-4.1
855.879	34.82
856.053	-18.43
856.228	12.29
856.403	-100.35
856.577	-14.34
856.752	-20.48
856.926	-36.86
857.101	73.73
857.276	-47.1
857.45	28.67
857.625	51.2
857.799	-53.25
857.974	-32.77
858.148	-90.11
858.323	14.34
858.497	12.29
858.672	-26.62
858.846	-114.69
859.02	124.93
859.195	-18.43
859.369	28.67
859.543	30.72
859.718	16.38
859.892	12.29
860.066	14.34
860.241	-71.68
860.415	8.19
860.589	-30.72
860.763	45.06
860.938	0
861.112	22.53
861.286	14.34
861.46	98.3
861.634	-28.67
861.808	106.49
861.982	-108.54
862.157	-43.01
862.331	-45.06
862.505	-10.24
862.679	-104.45
862.853	43.01
863.027	-57.34
863.201	75.77
863.375	-88.06
863.549	16.38
863.722	38.91
863.896	131.07
864.07	-30.72
864.244	-59.39
864.418	67.58
864.592	-16.38
864.766	104.45
864.939	61.44
865.113	-104.45
865.287	57.34
865.461	-65.54
865.634	-36.86
865.808	-34.82
865.982	-14.34
866.156	6.14
866.329	12.29
866.503	26.62
866.676	49.15
866.85	-20.48
867.024	36.86
867.197	53.25
867.371	28.67
867.544	2.05
867.718	-73.73
867.891	137.21
868.065	-86.01
868.238	-4.1
868.412	59.39
868.585	10.24
868.759	-49.15
868.932	-51.2
869.105	-71.68
869.279	47.1
869.452	-73.73
869.625	4.1
869.799	-34.82
869.972	-43.01
870.145	-75.77
870.319	71.68
870.492	-2.05
870.665	6.14
870.838	-79.87
871.011	-157.69
871.185	-24.58
871.358	-12.29
871.531	22.53
871.704	-38.91
871.877	-20.48
872.05	-10.24
872.223	-63.49
872.396	12.29
872.569	22.53
872.742	-165.89
872.915	53.25
873.088	18.43
873.261	-28.67
873.434	-6.14
873.607	20.48
873.78	176.13
873.953	-36.86
874.126	18.43
874.299	100.35
874.471	-67.58
874.644	-4.1
874.817	-2.05
874.99	53.25
875.163	-53.25
875.335	26.62
875.508	8.19
875.681	57.34
875.853	-88.06
876.026	0
876.199	198.65
876.371	-18.43
876.544	14.34
876.717	0
876.889	-18.43
877.062	43.01
877.234	-65.54
877.407	12.29
877.579	0
877.752	-24.58
877.924	86.01
878.097	-12.29
878.269	-12.29
878.442	-28.67
878.614	12.29
878.786	34.82
878.959	-16.38
879.131	-16.38
879.303	-194.56
879.476	-10.24
879.648	110.59
879.82	96.25
879.993	0
880.165	6.14
880.337	-108.54
880.509	30.72
880.681	-96.25
880.854	-6.14
881.026	88.06
881.198	81.92
881.37	14.34
881.542	18.43
881.714	-55.3
881.886	-8.19
882.058	6.14
882.23	-24.58
882.402	32.77
882.574	34.82
882.746	22.53
882.918	116.73
883.09	20.48
883.262	-34.82
883.434	18.43
883.606	-83.97
883.778	4.1
883.95	34.82
884.122	12.29
884.293	65.54
884.465	-38.91
884.637	53.25
884.809	6.14
884.98	2.05
885.152	30.72
885.324	51.2
885.496	-20.48
885.667	-22.53
885.839	-40.96
886.011	71.68
886.182	14.34
886.354	6.14
886.525	12.29
886.697	30.72
886.869	-86.01
887.04	36.86
887.212	88.06
887.383	88.06
887.555	43.01
887.726	-12.29
887.897	-18.43
888.069	-45.06
888.24	4.1
888.412	-32.77
888.583	96.25
888.754	8.19
888.926	-118.78
889.097	-34.82
889.268	-94.21
889.44	4.1
889.611	-83.97
889.782	-63.49
889.953	-14.34
890.125	71.68
890.296	-65.54
890.467	-106.49
890.638	-43.01
890.809	-24.58
890.98	12.29
891.151	45.06
891.323	43.01
891.494	-16.38
891.665	28.67
891.836	34.82
892.007	75.77
892.178	61.44
892.349	6.14
892.52	-55.3
892.691	22.53
892.862	22.53
893.032	-145.41
893.203	-120.83
893.374	-16.38
893.545	126.97
893.716	-34.82
893.887	51.2
894.057	8.19
894.228	26.62
894.399	-26.62
894.57	69.63
894.74	-45.06
894.911	20.48
895.082	-40.96
895.253	-94.21
895.423	-57.34
895.594	61.44
895.764	67.58
895.935	-120.83
896.106	-4.1
896.276	38.91
896.447	-43.01
896.617	-30.72
896.788	-98.3
896.958	16.38
897.129	-67.58
897.299	-98.3
897.47	36.86
897.64	43.01
897.81	-45.06
897.981	-67.58
898.151	-81.92
898.322	0
898.492	55.3
898.662	-24.58
898.832	20.48
899.003	-112.64
899.173	8.19
899.343	-67.58
899.513	-20.48
