Data from USB4F104151__168__11-04-52-635.txt Node

Date: Wed Feb 26 11:04:52 EST 2025
User: louis
Spectrometer: USB4F10415
Trigger mode: 4
Integration Time (sec): 1.000000E-1
Scans to average: 1
Electric dark correction enabled: true
Nonlinearity correction enabled: false
Boxcar width: 0
XAxis mode: Wavelengths
Number of Pixels in Spectrum: 3648
>>>>>Begin Spectral Data<<<<<
178.204	-387.75
178.424	-387.75
178.644	-387.75
178.864	-397.99
179.084	-402.08
179.304	34.13
179.524	-17.07
179.744	21.84
179.964	-15.02
180.184	-21.16
180.404	34.13
180.624	-27.31
180.844	-12.97
181.064	-23.21
181.283	-25.26
181.503	7.51
181.723	44.37
181.943	-23.21
182.163	251.22
182.383	-90.79
182.602	30.04
182.822	83.28
183.042	128.34
183.262	-19.11
183.482	17.75
183.701	-17.07
183.921	73.04
184.141	27.99
184.361	85.33
184.58	89.43
184.8	-25.26
185.02	-4.78
185.239	197.97
185.459	66.9
185.679	138.58
185.898	5.46
186.118	71
186.338	81.24
186.557	116.05
186.777	-35.5
186.997	25.94
187.216	71
187.436	144.72
187.655	60.76
187.875	177.49
188.095	85.33
188.314	181.59
188.534	136.53
188.753	-70.31
188.973	128.34
189.192	134.48
189.412	-45.74
189.631	15.7
189.851	23.89
190.07	122.2
190.29	-60.07
190.509	13.65
190.729	140.63
190.948	71
191.168	173.39
191.387	105.81
191.607	-2.73
191.826	130.39
192.045	7.51
192.265	40.28
192.484	128.34
192.704	-43.69
192.923	-37.55
193.142	175.44
193.362	56.66
193.581	150.87
193.8	3.41
194.02	-0.68
194.239	9.56
194.458	142.68
194.678	13.65
194.897	21.84
195.116	89.43
195.335	87.38
195.555	91.48
195.774	19.8
195.993	89.43
196.212	42.32
196.432	-21.16
196.651	23.89
196.87	54.61
197.089	296.27
197.308	46.42
197.528	64.85
197.747	21.84
197.966	-17.07
198.185	107.86
198.404	9.56
198.623	42.32
198.842	118.1
199.062	134.48
199.281	95.57
199.5	66.9
199.719	130.39
199.938	25.94
200.157	101.72
200.376	144.72
200.595	120.15
200.814	107.86
201.033	-37.55
201.252	124.24
201.471	101.72
201.69	48.47
201.909	62.8
202.128	159.06
202.347	134.48
202.566	27.99
202.785	-19.11
203.004	-23.21
203.223	202.07
203.442	40.28
203.661	-66.22
203.879	91.48
204.098	154.96
204.317	-21.16
204.536	116.05
204.755	99.67
204.974	191.83
205.193	27.99
205.411	146.77
205.63	60.76
205.849	111.96
206.068	-10.92
206.287	-35.5
206.505	181.59
206.724	-37.55
206.943	15.7
207.162	-17.07
207.381	77.14
207.599	42.32
207.818	56.66
208.037	27.99
208.255	60.76
208.474	66.9
208.693	44.37
208.911	-39.59
209.13	27.99
209.349	163.15
209.567	77.14
209.786	73.04
210.005	97.62
210.223	111.96
210.442	-74.41
210.661	-35.5
210.879	60.76
211.098	-31.4
211.316	99.67
211.535	38.23
211.753	62.8
211.972	56.66
212.191	-2.73
212.409	21.84
212.628	101.72
212.846	-4.78
213.065	13.65
213.283	99.67
213.502	30.04
213.72	101.72
213.938	32.08
214.157	64.85
214.375	165.2
214.594	-10.92
214.812	73.04
215.031	36.18
215.249	42.32
215.467	97.62
215.686	9.56
215.904	23.89
216.122	101.72
216.341	152.91
216.559	85.33
216.778	54.61
216.996	116.05
217.214	-8.87
217.432	15.7
217.651	-4.78
217.869	34.13
218.087	52.56
218.306	36.18
218.524	83.28
218.742	56.66
218.96	91.48
219.179	42.32
219.397	87.38
219.615	234.83
219.833	136.53
220.051	-58.03
220.27	122.2
220.488	107.86
220.706	56.66
220.924	54.61
221.142	-6.83
221.36	54.61
221.578	56.66
221.796	15.7
222.015	40.28
222.233	30.04
222.451	157.01
222.669	-29.35
222.887	120.15
223.105	34.13
223.323	30.04
223.541	17.75
223.759	89.43
223.977	44.37
224.195	208.21
224.413	91.48
224.631	52.56
224.849	91.48
225.067	210.26
225.285	-31.4
225.503	-41.64
225.721	-60.07
225.939	-6.83
226.157	-0.68
226.375	220.5
226.592	-25.26
226.81	19.8
227.028	116.05
227.246	177.49
227.464	93.52
227.682	109.91
227.9	48.47
228.117	52.56
228.335	68.95
228.553	36.18
228.771	9.56
228.989	9.56
229.206	73.04
229.424	-23.21
229.642	91.48
229.86	17.75
230.077	120.15
230.295	17.75
230.513	138.58
230.731	52.56
230.948	138.58
231.166	138.58
231.384	-4.78
231.601	9.56
231.819	187.73
232.037	-17.07
232.254	-12.97
232.472	-15.02
232.689	-12.97
232.907	132.44
233.125	-78.51
233.342	7.51
233.56	-49.83
233.777	-35.5
233.995	40.28
234.213	73.04
234.43	62.8
234.648	38.23
234.865	-21.16
235.083	95.57
235.3	46.42
235.518	46.42
235.735	142.68
235.953	105.81
236.17	114
236.388	46.42
236.605	-2.73
236.822	109.91
237.04	144.72
237.257	93.52
237.475	17.75
237.692	116.05
237.909	161.11
238.127	52.56
238.344	128.34
238.562	79.19
238.779	-41.64
238.996	-10.92
239.214	93.52
239.431	120.15
239.648	81.24
239.865	136.53
240.083	19.8
240.3	-4.78
240.517	-94.89
240.735	52.56
240.952	124.24
241.169	228.69
241.386	27.99
241.603	130.39
241.821	5.46
242.038	73.04
242.255	85.33
242.472	-12.97
242.689	107.86
242.907	148.82
243.124	77.14
243.341	9.56
243.558	7.51
243.775	5.46
243.992	-60.07
244.209	5.46
244.426	173.39
244.643	5.46
244.86	54.61
245.078	62.8
245.295	66.9
245.512	7.51
245.729	50.52
245.946	46.42
246.163	101.72
246.38	-51.88
246.597	46.42
246.814	81.24
247.031	50.52
247.248	105.81
247.464	73.04
247.681	38.23
247.898	48.47
248.115	93.52
248.332	-53.93
248.549	132.44
248.766	140.63
248.983	126.29
249.2	38.23
249.417	58.71
249.633	34.13
249.85	122.2
250.067	-10.92
250.284	87.38
250.501	73.04
250.717	140.63
250.934	5.46
251.151	32.08
251.368	130.39
251.585	-0.68
251.801	-12.97
252.018	60.76
252.235	75.09
252.451	-64.17
252.668	27.99
252.885	122.2
253.102	109.91
253.318	-35.5
253.535	-12.97
253.752	36.18
253.968	-19.11
254.185	-86.7
254.401	91.48
254.618	21.84
254.835	-33.45
255.051	177.49
255.268	107.86
255.484	58.71
255.701	50.52
255.917	128.34
256.134	-84.65
256.351	-0.68
256.567	40.28
256.784	17.75
257	-123.56
257.217	71
257.433	85.33
257.65	54.61
257.866	140.63
258.082	-8.87
258.299	83.28
258.515	95.57
258.732	48.47
258.948	-2.73
259.165	165.2
259.381	-6.83
259.597	46.42
259.814	-29.35
260.03	17.75
260.246	36.18
260.463	101.72
260.679	177.49
260.895	97.62
261.112	66.9
261.328	-21.16
261.544	5.46
261.761	157.01
261.977	97.62
262.193	27.99
262.409	128.34
262.626	126.29
262.842	3.41
263.058	52.56
263.274	126.29
263.49	130.39
263.707	83.28
263.923	56.66
264.139	-25.26
264.355	93.52
264.571	71
264.787	36.18
265.004	157.01
265.22	-70.31
265.436	13.65
265.652	3.41
265.868	75.09
266.084	17.75
266.3	21.84
266.516	23.89
266.732	48.47
266.948	40.28
267.164	-8.87
267.38	214.35
267.596	64.85
267.812	140.63
268.028	93.52
268.244	-17.07
268.46	71
268.676	62.8
268.892	81.24
269.108	116.05
269.324	-19.11
269.54	40.28
269.756	132.44
269.972	-6.83
270.188	19.8
270.403	-17.07
270.619	50.52
270.835	120.15
271.051	48.47
271.267	-80.55
271.483	-19.11
271.698	130.39
271.914	58.71
272.13	23.89
272.346	5.46
272.562	5.46
272.777	167.25
272.993	7.51
273.209	17.75
273.425	134.48
273.64	-51.88
273.856	101.72
274.072	-25.26
274.287	25.94
274.503	148.82
274.719	114
274.934	66.9
275.15	-49.83
275.366	-12.97
275.581	21.84
275.797	77.14
276.012	40.28
276.228	66.9
276.444	-17.07
276.659	132.44
276.875	-43.69
277.09	-10.92
277.306	11.61
277.521	83.28
277.737	56.66
277.952	77.14
278.168	40.28
278.383	42.32
278.599	30.04
278.814	99.67
279.03	114
279.245	234.83
279.461	50.52
279.676	165.2
279.892	-76.46
280.107	-10.92
280.322	-62.12
280.538	52.56
280.753	-12.97
280.969	62.8
281.184	58.71
281.399	257.36
281.615	64.85
281.83	83.28
282.045	56.66
282.26	-31.4
282.476	-12.97
282.691	93.52
282.906	161.11
283.122	146.77
283.337	56.66
283.552	105.81
283.767	1.37
283.983	62.8
284.198	91.48
284.413	140.63
284.628	-21.16
284.843	109.91
285.058	15.7
285.274	36.18
285.489	-31.4
285.704	97.62
285.919	-64.17
286.134	87.38
286.349	19.8
286.564	52.56
286.779	169.3
286.995	1.37
287.21	-45.74
287.425	124.24
287.64	-17.07
287.855	75.09
288.07	3.41
288.285	66.9
288.5	136.53
288.715	83.28
288.93	-39.59
289.145	-15.02
289.36	109.91
289.575	-4.78
289.79	116.05
290.004	1.37
290.219	146.77
290.434	75.09
290.649	1.37
290.864	-8.87
291.079	62.8
291.294	179.54
291.509	48.47
291.724	-23.21
291.938	-66.22
292.153	62.8
292.368	-6.83
292.583	93.52
292.798	161.11
293.012	60.76
293.227	38.23
293.442	42.32
293.657	89.43
293.871	85.33
294.086	91.48
294.301	177.49
294.516	85.33
294.73	77.14
294.945	-17.07
295.16	46.42
295.374	118.1
295.589	175.44
295.804	-64.17
296.018	27.99
296.233	148.82
296.447	89.43
296.662	-21.16
296.877	128.34
297.091	150.87
297.306	44.37
297.52	56.66
297.735	118.1
297.949	36.18
298.164	38.23
298.378	3.41
298.593	-17.07
298.807	1.37
299.022	81.24
299.236	167.25
299.451	-8.87
299.665	1.37
299.88	93.52
300.094	36.18
300.309	75.09
300.523	93.52
300.737	25.94
300.952	95.57
301.166	103.76
301.381	-23.21
301.595	-33.45
301.809	134.48
302.024	44.37
302.238	-33.45
302.452	181.59
302.667	32.08
302.881	103.76
303.095	120.15
303.309	62.8
303.524	-2.73
303.738	-31.4
303.952	42.32
304.166	116.05
304.381	-131.75
304.595	144.72
304.809	3.41
305.023	71
305.237	124.24
305.452	38.23
305.666	140.63
305.88	107.86
306.094	130.39
306.308	64.85
306.522	87.38
306.736	146.77
306.95	83.28
307.164	7.51
307.379	27.99
307.593	146.77
307.807	152.91
308.021	122.2
308.235	73.04
308.449	-6.83
308.663	103.76
308.877	179.54
309.091	15.7
309.305	68.95
309.519	-47.79
309.733	81.24
309.947	13.65
310.161	130.39
310.374	58.71
310.588	152.91
310.802	-35.5
311.016	-123.56
311.23	81.24
311.444	-105.13
311.658	93.52
311.872	169.3
312.085	118.1
312.299	177.49
312.513	167.25
312.727	105.81
312.941	25.94
313.154	101.72
313.368	13.65
313.582	44.37
313.796	77.14
314.009	118.1
314.223	161.11
314.437	38.23
314.651	128.34
314.864	7.51
315.078	52.56
315.292	-39.59
315.505	-45.74
315.719	91.48
315.933	64.85
316.146	-64.17
316.36	3.41
316.573	120.15
316.787	54.61
317.001	79.19
317.214	52.56
317.428	48.47
317.641	19.8
317.855	9.56
318.068	75.09
318.282	62.8
318.495	200.02
318.709	91.48
318.922	38.23
319.136	181.59
319.349	91.48
319.563	50.52
319.776	87.38
319.99	-70.31
320.203	44.37
320.417	56.66
320.63	136.53
320.843	167.25
321.057	85.33
321.27	-80.55
321.483	46.42
321.697	175.44
321.91	-19.11
322.124	71
322.337	46.42
322.55	-2.73
322.763	91.48
322.977	56.66
323.19	-21.16
323.403	23.89
323.617	97.62
323.83	19.8
324.043	40.28
324.256	101.72
324.469	5.46
324.683	118.1
324.896	101.72
325.109	15.7
325.322	9.56
325.535	120.15
325.748	42.32
325.962	52.56
326.175	79.19
326.388	71
326.601	81.24
326.814	-4.78
327.027	85.33
327.24	122.2
327.453	-43.69
327.666	116.05
327.879	138.58
328.092	81.24
328.305	101.72
328.518	-31.4
328.731	27.99
328.944	-27.31
329.157	101.72
329.37	42.32
329.583	200.02
329.796	210.26
330.009	-12.97
330.222	95.57
330.435	54.61
330.648	93.52
330.861	48.47
331.073	91.48
331.286	152.91
331.499	73.04
331.712	54.61
331.925	40.28
332.138	27.99
332.35	130.39
332.563	19.8
332.776	138.58
332.989	36.18
333.202	27.99
333.414	89.43
333.627	23.89
333.84	21.84
334.053	1.37
334.265	-12.97
334.478	107.86
334.691	85.33
334.903	128.34
335.116	5.46
335.329	60.76
335.541	81.24
335.754	66.9
335.966	62.8
336.179	40.28
336.392	5.46
336.604	-33.45
336.817	132.44
337.029	40.28
337.242	1.37
337.454	52.56
337.667	15.7
337.88	114
338.092	44.37
338.305	85.33
338.517	-21.16
338.729	157.01
338.942	116.05
339.154	-43.69
339.367	-66.22
339.579	185.68
339.792	-27.31
340.004	122.2
340.217	-2.73
340.429	54.61
340.641	36.18
340.854	-0.68
341.066	56.66
341.278	130.39
341.491	197.97
341.703	17.75
341.915	1.37
342.128	177.49
342.34	126.29
342.552	-0.68
342.764	34.13
342.977	52.56
343.189	44.37
343.401	107.86
343.613	-10.92
343.826	48.47
344.038	52.56
344.25	157.01
344.462	21.84
344.674	122.2
344.886	17.75
345.099	32.08
345.311	161.11
345.523	13.65
345.735	-43.69
345.947	89.43
346.159	-2.73
346.371	-4.78
346.583	-19.11
346.795	247.12
347.007	32.08
347.219	81.24
347.431	73.04
347.643	193.87
347.855	38.23
348.067	171.35
348.279	-23.21
348.491	54.61
348.703	118.1
348.915	44.37
349.127	21.84
349.339	122.2
349.551	7.51
349.763	66.9
349.975	83.28
350.187	97.62
350.399	128.34
350.61	83.28
350.822	30.04
351.034	83.28
351.246	34.13
351.458	138.58
351.669	132.44
351.881	93.52
352.093	220.5
352.305	134.48
352.517	46.42
352.728	91.48
352.94	44.37
353.152	3.41
353.363	50.52
353.575	87.38
353.787	177.49
353.999	85.33
354.21	118.1
354.422	54.61
354.633	-23.21
354.845	56.66
355.057	79.19
355.268	46.42
355.48	95.57
355.692	-37.55
355.903	75.09
356.115	-58.03
356.326	-60.07
356.538	165.2
356.749	52.56
356.961	150.87
357.172	9.56
357.384	-33.45
357.595	281.94
357.807	30.04
358.018	-0.68
358.23	48.47
358.441	193.87
358.653	85.33
358.864	95.57
359.075	-74.41
359.287	60.76
359.498	91.48
359.709	89.43
359.921	52.56
360.132	30.04
360.344	89.43
360.555	91.48
360.766	85.33
360.977	-15.02
361.189	120.15
361.4	25.94
361.611	165.2
361.823	193.87
362.034	73.04
362.245	-27.31
362.456	52.56
362.667	89.43
362.879	1.37
363.09	25.94
363.301	130.39
363.512	103.76
363.723	25.94
363.935	68.95
364.146	109.91
364.357	9.56
364.568	38.23
364.779	38.23
364.99	87.38
365.201	44.37
365.412	87.38
365.623	-41.64
365.834	75.09
366.045	81.24
366.256	23.89
366.467	64.85
366.678	40.28
366.889	109.91
367.1	-49.83
367.311	97.62
367.522	38.23
367.733	66.9
367.944	68.95
368.155	58.71
368.366	109.91
368.577	58.71
368.788	50.52
368.999	44.37
369.209	46.42
369.42	265.55
369.631	161.11
369.842	136.53
370.053	34.13
370.264	134.48
370.474	19.8
370.685	87.38
370.896	46.42
371.107	128.34
371.317	83.28
371.528	54.61
371.739	163.15
371.95	109.91
372.16	44.37
372.371	-12.97
372.582	27.99
372.792	122.2
373.003	87.38
373.214	101.72
373.424	62.8
373.635	-15.02
373.846	140.63
374.056	36.18
374.267	50.52
374.477	38.23
374.688	62.8
374.898	68.95
375.109	60.76
375.319	64.85
375.53	101.72
375.74	99.67
375.951	38.23
376.161	101.72
376.372	132.44
376.582	50.52
376.793	52.56
377.003	-39.59
377.214	17.75
377.424	56.66
377.635	83.28
377.845	1.37
378.055	138.58
378.266	-29.35
378.476	58.71
378.686	109.91
378.897	128.34
379.107	73.04
379.317	73.04
379.528	34.13
379.738	128.34
379.948	-35.5
380.158	66.9
380.369	13.65
380.579	3.41
380.789	-8.87
380.999	56.66
381.21	38.23
381.42	218.45
381.63	5.46
381.84	99.67
382.05	48.47
382.261	191.83
382.471	132.44
382.681	-66.22
382.891	167.25
383.101	50.52
383.311	-12.97
383.521	-6.83
383.731	116.05
383.941	97.62
384.151	15.7
384.361	13.65
384.571	44.37
384.781	134.48
384.991	183.63
385.201	220.5
385.411	48.47
385.621	56.66
385.831	56.66
386.041	79.19
386.251	-37.55
386.461	105.81
386.671	87.38
386.881	-15.02
387.091	23.89
387.301	128.34
387.511	25.94
387.72	5.46
387.93	159.06
388.14	9.56
388.35	46.42
388.56	138.58
388.769	118.1
388.979	60.76
389.189	-51.88
389.399	73.04
389.609	130.39
389.818	111.96
390.028	58.71
390.238	154.96
390.447	-45.74
390.657	109.91
390.867	64.85
391.076	-70.31
391.286	99.67
391.496	62.8
391.705	32.08
391.915	99.67
392.125	81.24
392.334	75.09
392.544	187.73
392.753	71
392.963	-53.93
393.172	91.48
393.382	111.96
393.591	210.26
393.801	58.71
394.01	212.31
394.22	109.91
394.429	32.08
394.639	95.57
394.848	89.43
395.058	93.52
395.267	42.32
395.477	85.33
395.686	126.29
395.895	232.79
396.105	183.63
396.314	122.2
396.524	19.8
396.733	44.37
396.942	44.37
397.152	66.9
397.361	93.52
397.57	189.78
397.78	81.24
397.989	85.33
398.198	140.63
398.407	25.94
398.617	17.75
398.826	118.1
399.035	36.18
399.244	142.68
399.453	87.38
399.663	68.95
399.872	68.95
400.081	-82.6
400.29	173.39
400.499	-80.55
400.708	179.54
400.917	58.71
401.127	89.43
401.336	5.46
401.545	226.64
401.754	173.39
401.963	167.25
402.172	-45.74
402.381	52.56
402.59	11.61
402.799	54.61
403.008	116.05
403.217	44.37
403.426	87.38
403.635	-47.79
403.844	50.52
404.053	48.47
404.262	-31.4
404.471	204.11
404.68	101.72
404.888	34.13
405.097	-6.83
405.306	71
405.515	130.39
405.724	56.66
405.933	126.29
406.142	120.15
406.35	173.39
406.559	23.89
406.768	97.62
406.977	177.49
407.185	128.34
407.394	58.71
407.603	-12.97
407.812	107.86
408.02	140.63
408.229	-4.78
408.438	114
408.646	-8.87
408.855	89.43
409.064	99.67
409.272	-4.78
409.481	77.14
409.69	-25.26
409.898	-23.21
410.107	89.43
410.315	107.86
410.524	11.61
410.733	68.95
410.941	52.56
411.15	60.76
411.358	79.19
411.567	193.87
411.775	13.65
411.984	48.47
412.192	167.25
412.401	-15.02
412.609	154.96
412.818	120.15
413.026	50.52
413.234	5.46
413.443	161.11
413.651	42.32
413.86	62.8
414.068	36.18
414.276	152.91
414.485	46.42
414.693	146.77
414.901	204.11
415.11	95.57
415.318	25.94
415.526	27.99
415.734	87.38
415.943	79.19
416.151	136.53
416.359	-8.87
416.567	101.72
416.776	120.15
416.984	81.24
417.192	165.2
417.4	-0.68
417.608	56.66
417.817	7.51
418.025	122.2
418.233	73.04
418.441	34.13
418.649	-29.35
418.857	73.04
419.065	157.01
419.273	44.37
419.481	27.99
419.689	95.57
419.897	-49.83
420.105	-23.21
420.313	222.55
420.521	171.35
420.729	161.11
420.937	-12.97
421.145	21.84
421.353	111.96
421.561	181.59
421.769	93.52
421.977	7.51
422.185	87.38
422.393	79.19
422.601	36.18
422.809	87.38
423.017	38.23
423.224	85.33
423.432	107.86
423.64	11.61
423.848	290.13
424.056	64.85
424.263	109.91
424.471	89.43
424.679	126.29
424.887	-10.92
425.094	175.44
425.302	116.05
425.51	44.37
425.718	193.87
425.925	68.95
426.133	19.8
426.341	220.5
426.548	54.61
426.756	38.23
426.964	111.96
427.171	-51.88
427.379	23.89
427.586	44.37
427.794	114
428.001	118.1
428.209	142.68
428.417	243.03
428.624	175.44
428.832	81.24
429.039	56.66
429.247	85.33
429.454	165.2
429.662	195.92
429.869	114
430.076	165.2
430.284	193.87
430.491	271.7
430.699	128.34
430.906	238.93
431.114	134.48
431.321	48.47
431.528	157.01
431.736	189.78
431.943	142.68
432.15	183.63
432.358	236.88
432.565	267.6
432.772	140.63
432.979	185.68
433.187	101.72
433.394	111.96
433.601	185.68
433.808	126.29
434.016	253.27
434.223	265.55
434.43	249.17
434.637	265.55
434.844	238.93
435.052	226.64
435.259	261.46
435.466	302.42
435.673	136.53
435.88	320.85
436.087	273.75
436.294	322.9
436.501	427.34
436.708	308.56
436.915	265.55
437.122	257.36
437.329	310.61
437.537	374.1
437.743	226.64
437.95	423.25
438.157	359.76
438.364	402.77
438.571	499.02
438.778	431.44
438.985	458.06
439.192	544.08
439.399	406.86
439.606	419.15
439.813	482.64
440.02	562.51
440.227	632.14
440.433	560.46
440.64	544.08
440.847	556.36
441.054	558.41
441.261	681.29
441.467	535.89
441.674	591.18
441.881	752.97
442.088	630.09
442.294	730.44
442.501	748.87
442.708	841.03
442.914	793.93
443.121	908.62
443.328	871.75
443.534	965.96
443.741	898.38
443.948	873.8
444.154	1037.64
444.361	1181
444.568	963.91
444.774	1097.03
444.981	900.42
445.187	1201.47
445.394	1156.42
445.6	1117.51
445.807	1314.11
446.013	1244.48
446.22	1199.43
446.426	1357.12
446.633	1490.24
446.839	1639.74
447.046	1477.95
447.252	1611.07
447.459	1572.16
447.665	1674.56
447.871	1770.81
448.078	1959.22
448.284	1899.83
448.491	2084.15
448.697	2022.71
448.903	2139.44
449.11	2061.62
449.316	2200.88
449.522	2440.5
449.728	2489.65
449.935	2524.46
450.141	2544.94
450.347	2719.02
450.553	2725.16
450.76	2784.55
450.966	2905.38
451.172	2972.97
451.378	3136.81
451.584	3097.89
451.791	3525.92
451.997	3482.91
452.203	3585.31
452.409	3775.77
452.615	3814.68
452.821	3738.91
453.027	3792.16
453.233	4474.13
453.44	4271.38
453.646	4422.93
453.852	4541.71
454.058	4748.56
454.264	4848.91
454.47	5244.17
454.676	5203.21
454.882	5725.44
455.088	5498.11
455.294	5737.73
455.5	6210.81
455.705	6604.02
455.911	6630.64
456.117	6659.31
456.323	7058.67
456.529	6999.27
456.735	7797.98
456.941	7871.71
457.147	8099.03
457.352	8244.44
457.558	8531.16
457.764	9176.27
457.97	9254.09
458.176	9635.01
458.381	10169.53
458.587	10519.73
458.793	11015.34
458.999	10728.63
459.204	12555.41
459.41	12778.64
459.616	12262.55
459.821	13253.77
460.027	13802.63
460.233	14541.94
460.438	14597.24
460.644	15268.97
460.85	15328.36
461.055	16141.41
461.261	16950.35
461.466	16583.77
461.672	16702.55
461.878	18824.25
462.083	19012.66
462.289	18773.05
462.494	19647.53
462.7	19792.94
462.905	20190.24
463.111	21904.39
463.316	23051.25
463.522	23198.71
463.727	24165.35
463.932	25439.19
464.138	25615.31
464.343	26821.56
464.549	26809.28
464.754	28767.13
464.959	29754.26
465.165	30520.2
465.37	29879.18
465.575	30012.3
465.781	31894.38
465.986	32787.3
466.191	32541.54
466.397	32772.96
466.602	32191.34
466.807	34054.99
467.012	34532.17
467.218	35087.17
467.423	35334.97
467.628	35945.26
467.833	37772.05
468.038	36840.23
468.244	36401.96
468.449	38155.02
468.654	37755.67
468.859	37432.09
469.064	37397.27
469.269	36496.17
469.474	37024.54
469.679	37970.71
469.885	36619.05
470.09	37544.73
470.295	37589.78
470.5	36756.26
470.705	37137.18
470.91	36346.67
471.115	35992.37
471.32	36430.63
471.525	35599.16
471.73	34749.25
471.935	34487.11
472.139	33162.08
472.344	33395.54
472.549	33350.49
472.754	32686.95
472.959	31822.7
473.164	30520.2
473.369	30020.49
473.574	31007.61
473.778	30509.96
473.983	30149.51
474.188	29516.69
474.393	28056.49
474.598	27833.26
474.802	27343.8
475.007	27122.62
475.212	26602.43
475.417	25463.76
475.621	25191.38
475.826	25252.82
476.031	24820.7
476.235	23925.74
476.44	23993.32
476.645	23448.56
476.849	23202.8
477.054	22922.23
477.259	22301.7
477.463	22279.17
477.668	21562.38
477.872	21793.8
478.077	20919.32
478.282	20247.58
478.486	20229.15
478.691	20259.87
478.895	20122.66
479.1	19819.56
479.304	19729.45
479.509	18996.28
479.713	19276.85
479.918	18641.98
480.122	18299.97
480.326	18676.79
480.531	18512.95
480.735	18132.03
480.94	17663.05
481.144	18269.25
481.348	17536.07
481.553	17685.58
481.757	16921.68
481.961	17384.52
482.166	17572.94
482.37	17243.21
482.574	16942.16
482.778	16852.05
482.983	16553.05
483.187	16538.71
483.391	16606.3
483.595	16591.96
483.8	16024.67
484.004	16116.83
484.208	16014.43
484.412	15516.78
484.616	16032.86
484.821	15484.01
485.025	15107.18
485.229	15389.8
485.433	15115.37
485.637	14498.94
485.841	14539.9
486.045	14216.32
486.249	14466.17
486.453	13941.89
486.657	13845.63
486.861	13483.14
487.065	13128.84
487.269	13108.37
487.473	12549.27
487.677	12694.68
487.881	12901.52
488.085	12219.55
488.289	12231.83
488.493	11912.35
488.697	11871.39
488.901	11453.61
489.105	11490.47
489.309	11211.95
489.512	11023.53
489.716	11001.01
489.92	10517.68
490.124	10409.14
490.328	10472.63
490.531	10144.95
490.735	10134.71
490.939	9866.43
491.143	9473.22
491.346	9331.91
491.55	9245.9
491.754	9163.98
491.958	9188.55
492.161	8680.66
492.365	8678.61
492.569	8393.94
492.772	8426.71
492.976	8492.24
493.18	8117.47
493.383	8226.01
493.587	8004.83
493.79	8025.31
493.994	7793.89
494.197	7884
494.401	7625.95
494.605	7474.4
494.808	7513.31
495.012	7519.46
495.215	7519.46
495.419	7419.11
495.622	7167.21
495.825	7118.06
496.029	7261.41
496.232	7134.44
496.436	7324.9
496.639	7281.89
496.843	7105.77
497.046	7265.51
497.249	7253.22
497.453	7220.46
497.656	6995.18
497.859	7193.83
498.063	7128.3
498.266	7322.85
498.469	7232.74
498.673	7261.41
498.876	7101.67
499.079	7296.23
499.282	7292.13
499.485	7707.87
499.689	7222.5
499.892	7599.33
500.095	7386.34
500.298	7546.08
500.501	7453.92
500.705	7578.85
500.908	7644.38
501.111	7689.44
501.314	7988.44
501.517	8088.79
501.72	7976.16
501.923	7970.01
502.126	8209.62
502.329	8381.65
502.532	8307.93
502.735	8453.33
502.938	8754.38
503.141	8662.23
503.344	8631.51
503.547	8723.66
503.75	8899.79
503.953	9002.19
504.156	9188.55
504.359	9235.66
504.562	9381.06
504.765	9528.52
504.968	9739.46
505.17	9749.7
505.373	9862.33
505.576	10065.08
505.779	10280.12
505.982	10312.89
506.185	10749.11
506.387	10929.33
506.59	11080.88
506.793	11316.39
506.996	11439.27
507.198	11824.29
507.401	11822.24
507.604	12178.59
507.807	12426.39
508.009	12575.89
508.212	13030.54
508.415	13051.02
508.617	13319.31
508.82	13544.58
509.022	13720.71
509.225	14384.25
509.428	14310.52
509.63	14615.67
509.833	15109.23
510.035	15598.7
510.238	15436.91
510.44	15834.21
510.643	16491.61
510.845	16860.24
511.048	16843.86
511.25	17429.58
511.453	17562.7
511.655	18566.2
511.858	18760.76
512.06	18936.88
512.262	19510.32
512.465	19835.94
512.667	20169.76
512.87	20802.58
513.072	21128.21
513.274	21957.64
513.477	22273.03
513.679	22662.14
513.881	23299.06
514.084	23634.92
514.286	24024.04
514.488	24581.09
514.69	25539.54
514.893	26024.9
515.095	26381.25
515.297	26911.67
515.499	27476.91
515.701	27777.97
515.904	28750.75
516.106	29270.93
516.308	29635.47
516.51	30262.15
516.712	30469
516.914	31341.43
517.116	32273.26
517.318	32633.7
517.52	33645.4
517.722	33635.16
517.925	34497.35
518.127	35265.34
518.329	35758.9
518.531	35763
518.733	36872.99
518.935	37679.89
519.136	37720.85
519.338	38449.93
519.54	39394.04
519.742	39901.94
519.944	40499.95
520.146	41171.68
520.348	41595.61
520.55	41851.61
520.752	42312.4
520.954	43422.4
521.155	43018.95
521.357	43856.57
521.559	44759.72
521.761	45144.74
521.963	45212.32
522.164	45800.09
522.366	46205.59
522.568	46752.4
522.77	46879.37
522.971	47362.69
523.173	47557.25
523.375	47465.09
523.576	48099.96
523.778	48337.52
523.98	48538.22
524.181	48976.49
524.383	48671.34
524.584	49425
524.786	49506.91
524.988	49410.66
525.189	49511.01
525.391	49853.02
525.592	49648.22
525.794	49685.09
525.995	49844.83
526.197	49306.21
526.398	49969.75
526.6	49697.38
526.801	49410.66
527.003	49373.8
527.204	49056.36
527.406	49312.36
527.607	48880.24
527.808	48837.23
528.01	47956.6
528.211	47723.13
528.412	48333.43
528.614	47585.92
528.815	47780.48
529.016	47393.41
529.218	46195.35
529.419	46451.34
529.62	45718.17
529.822	45460.13
530.023	45128.36
530.224	44655.28
530.425	44208.82
530.626	43590.33
530.828	43023.04
531.029	43612.86
531.23	42453.71
531.431	42226.39
531.632	41579.23
531.833	41097.95
532.035	40751.85
532.236	40088.31
532.437	40018.67
532.638	39039.75
532.839	39275.26
533.04	38507.27
533.241	37602.07
533.442	37479.19
533.643	37016.35
533.844	36420.39
534.045	36021.04
534.246	35007.3
534.447	35038.01
534.648	34521.93
534.849	34177.87
535.05	33645.4
535.251	33098.59
535.451	32654.18
535.652	32318.31
535.853	31861.62
536.054	31376.25
536.255	31126.39
536.456	30366.6
536.657	30741.38
536.857	29713.3
537.058	29293.46
537.259	29016.99
537.46	28320.68
537.66	28253.09
537.861	27927.47
538.062	27435.95
538.263	27157.43
538.463	26846.14
538.664	26760.12
538.865	26225.61
539.065	25928.65
539.266	25306.07
539.466	25265.11
539.667	24878.04
539.868	24900.57
540.068	24320.99
540.269	24282.08
540.469	23960.55
540.67	23477.23
540.87	23047.16
541.071	22709.24
541.271	22801.4
541.472	22365.18
541.672	21992.45
541.873	21949.45
542.073	21369.87
542.274	21660.68
542.474	21320.72
542.675	20960.28
542.875	20849.69
543.075	20513.82
543.276	20046.88
543.476	19989.54
543.676	19622.95
543.877	19899.43
544.077	19479.6
544.277	19285.04
544.478	19221.55
544.678	18943.03
544.878	18639.93
545.078	18347.07
545.279	17871.94
545.479	17966.15
545.679	17568.84
545.879	17538.12
546.079	17439.82
546.28	17208.4
546.48	16981.07
546.68	16796.76
546.88	16675.93
547.08	16464.99
547.28	15885.41
547.48	15709.29
547.68	15764.58
547.88	15524.97
548.081	15447.15
548.281	15027.31
548.481	14630.01
548.681	14845.04
548.881	14617.72
549.081	14431.35
549.28	14226.56
549.48	14083.2
549.68	13786.24
549.88	13823.11
550.08	13278.35
550.28	13313.16
550.48	13315.21
550.68	13005.97
550.88	12704.92
551.08	12536.98
551.279	12450.97
551.479	12051.61
551.679	12147.87
551.879	11852.96
552.079	11955.36
552.278	11547.81
552.478	11469.99
552.678	11197.61
552.878	11146.41
553.077	10646.71
553.277	10529.97
553.477	10714.29
553.676	10429.62
553.876	10101.95
554.076	10050.75
554.275	9919.68
554.475	9696.45
554.674	9671.87
554.874	9508.04
555.074	9254.09
555.273	9127.11
555.473	8973.52
555.672	8824.01
555.872	8803.53
556.071	8500.44
556.271	8627.41
556.47	8565.97
556.67	8049.88
556.869	8121.56
557.068	7967.96
557.268	7863.52
557.467	7691.49
557.667	7607.52
557.866	7359.72
558.065	7343.33
558.265	7116.01
558.464	6903.02
558.663	6765.81
558.863	6995.18
559.062	6712.56
559.261	6558.96
559.461	6610.16
559.66	6329.59
559.859	6180.09
560.058	6169.85
560.258	6108.41
560.457	6147.32
560.656	6151.42
560.855	5715.2
561.054	5926.14
561.253	5682.43
561.453	5471.49
561.652	5577.98
561.851	5575.94
562.05	5319.94
562.249	5002.5
562.448	5182.73
562.647	5008.65
562.846	5049.61
563.045	5045.51
563.244	4828.43
563.443	4795.66
563.642	4597.01
563.841	4678.93
564.04	4705.55
564.239	4611.34
564.438	4510.99
564.637	4386.07
564.836	4224.28
565.035	4226.32
565.234	4267.28
565.432	4105.49
565.631	4144.41
565.83	4046.1
566.029	3917.08
566.228	3841.31
566.427	3876.12
566.625	3900.7
566.824	3773.72
567.023	3638.56
567.222	3652.89
567.42	3613.98
567.619	3421.47
567.818	3527.97
568.016	3544.35
568.215	3364.13
568.414	3450.14
568.612	3298.59
568.811	3265.83
569.01	3157.29
569.208	3280.16
569.407	3181.86
569.605	3138.85
569.804	2948.39
570.002	2964.78
570.201	2850.09
570.4	2921.77
570.598	2776.36
570.797	2833.71
570.995	2655.53
571.193	2784.55
571.392	2700.59
571.59	2475.31
571.789	2616.62
571.987	2608.43
572.186	2686.25
572.384	2424.11
572.582	2467.12
572.781	2422.06
572.979	2334
573.177	2352.43
573.376	2387.25
573.574	2325.81
573.772	2194.74
573.971	2243.89
574.169	2092.34
574.367	2194.74
574.565	1912.12
574.763	1987.89
574.962	2098.49
575.16	2045.24
575.358	1799.48
575.556	1942.84
575.754	1881.4
575.952	1760.57
576.151	1889.59
576.349	1869.11
576.547	1713.47
576.745	1783.1
576.943	1690.94
577.141	1703.23
577.339	1563.97
577.537	1613.12
577.735	1641.79
577.933	1623.36
578.131	1535.29
578.329	1733.95
578.527	1459.52
578.725	1604.92
578.923	1350.98
579.121	1551.68
579.319	1383.74
579.516	1451.33
579.714	1678.65
579.912	1408.32
580.11	1234.24
580.308	1287.49
580.506	1242.43
580.704	1160.52
580.901	1117.51
581.099	1389.89
581.297	1250.63
581.495	1273.15
581.692	1207.62
581.89	1363.26
582.088	1254.72
582.285	1250.63
582.483	1142.08
582.681	1066.31
582.878	1103.17
583.076	1080.64
583.274	1045.83
583.471	1228.1
583.669	1006.92
583.866	996.68
584.064	978.25
584.262	986.44
584.459	879.94
584.657	972.1
584.854	943.43
585.052	957.77
585.249	968.01
585.447	953.67
585.644	781.64
585.841	1004.87
586.039	949.57
586.236	894.28
586.434	851.27
586.631	857.42
586.828	841.03
587.026	881.99
587.223	716.11
587.42	755.02
587.618	826.7
587.815	968.01
588.012	736.59
588.21	728.39
588.407	834.89
588.604	851.27
588.801	611.66
588.999	789.83
589.196	791.88
589.393	605.52
589.59	746.83
589.787	701.77
589.984	697.67
590.182	734.54
590.379	652.62
590.576	685.39
590.773	675.15
590.97	675.15
591.167	712.01
591.364	746.83
591.561	644.43
591.758	857.42
591.955	767.31
592.152	666.96
592.349	615.76
592.546	552.27
592.743	675.15
592.94	658.76
593.137	722.25
593.334	767.31
593.531	752.97
593.727	666.96
593.924	738.63
594.121	677.19
594.318	695.63
594.515	709.96
594.712	861.51
594.908	775.5
595.105	529.74
595.302	697.67
595.499	652.62
595.696	798.03
595.892	716.11
596.089	795.98
596.286	744.78
596.482	824.65
596.679	841.03
596.876	767.31
597.072	859.46
597.269	771.4
597.466	947.53
597.662	910.66
597.859	896.33
598.055	922.95
598.252	982.34
598.448	1060.17
598.645	1062.21
598.841	1174.85
599.038	1187.14
599.234	1273.15
599.431	1281.35
599.627	1279.3
599.824	1385.79
600.02	1379.65
600.217	1338.69
600.413	1418.56
600.609	1545.53
600.806	1740.09
601.002	1688.89
601.198	1592.64
601.395	1699.13
601.591	1735.99
601.787	1815.87
601.984	2037.05
602.18	2047.29
602.376	2100.53
602.572	2227.51
602.769	2221.36
602.965	2252.08
603.161	2518.32
603.357	2393.39
603.553	2506.03
603.75	2643.24
603.946	2676.01
604.142	2825.51
604.338	2929.96
604.534	2991.4
604.73	3058.98
604.926	3202.34
605.122	3300.64
605.318	3290.4
605.514	3513.63
605.71	3513.63
605.906	3767.58
606.102	3849.5
606.298	3896.6
606.494	4130.07
606.69	4271.38
606.886	4384.02
607.082	4293.91
607.278	4478.22
607.474	4551.95
607.67	4867.34
607.866	4603.15
608.062	4984.07
608.257	5057.8
608.453	5291.27
608.649	5451.01
608.845	5584.13
609.041	5813.5
609.236	5979.39
609.432	6003.96
609.628	6243.57
609.824	6352.12
610.019	6550.77
610.215	6802.67
610.411	6964.46
610.606	7073
610.802	7222.5
610.998	7304.42
611.193	7642.34
611.389	7597.28
611.584	7939.29
611.78	8287.45
611.976	8357.08
612.171	8658.13
612.367	8850.64
612.562	9249.99
612.758	9206.98
612.953	9694.4
613.149	9843.9
613.344	9901.25
613.539	10448.05
613.735	10523.83
613.93	10941.61
614.126	11076.78
614.321	11332.78
614.517	11889.82
614.712	11977.89
614.907	12350.62
615.103	12582.04
615.298	12971.15
615.493	13218.96
615.688	13374.6
615.884	14046.33
616.079	14109.82
616.274	14918.77
616.47	15025.26
616.665	15293.55
616.86	15672.42
617.055	15901.79
617.25	16200.8
617.445	17036.37
617.641	17075.28
617.836	17669.19
618.031	17884.23
618.226	18605.11
618.421	18990.13
618.616	19727.4
618.811	19887.14
619.006	20436
619.201	20771.86
619.396	20935.7
619.591	21367.82
619.786	22295.55
619.981	22311.94
620.176	23282.67
620.371	23286.77
620.566	24073.19
620.761	24470.5
620.956	24792.03
621.151	25375.7
621.346	26194.89
621.541	25953.23
621.735	27083.7
621.93	27337.65
622.125	27913.13
622.32	28064.68
622.515	28916.64
622.709	29557.65
622.904	29985.68
623.099	30342.02
623.294	31011.71
623.488	31208.31
623.683	32267.11
623.878	32271.21
624.072	33301.34
624.267	33456.98
624.462	34376.52
624.656	34265.93
624.851	34859.84
625.046	35175.23
625.24	36107.05
625.435	36342.57
625.629	37192.48
625.824	37419.8
626.018	37862.16
626.213	37690.13
626.407	38679.3
626.602	38650.63
626.796	39394.04
626.991	39420.67
627.185	39965.43
627.38	40346.35
627.574	40112.88
627.768	40729.32
627.963	40610.54
628.157	40379.12
628.352	41136.87
628.546	40448.75
628.74	41071.33
628.935	40547.05
629.129	40940.26
629.323	40196.85
629.517	40350.45
629.712	40149.74
629.906	39920.37
630.1	39058.18
630.294	38744.84
630.489	38449.93
630.683	38099.73
630.877	36791.08
631.071	36725.54
631.265	36096.81
631.459	35234.62
631.653	34214.73
631.848	34306.89
632.042	32906.08
632.236	32215.91
632.43	31183.74
632.624	30710.66
632.818	29176.73
633.012	28541.86
633.206	27610.03
633.4	27009.98
633.594	25635.79
633.788	25031.64
633.982	24323.04
634.176	23370.74
634.369	22324.22
634.563	21380.11
634.757	20775.96
634.951	20122.66
635.145	19401.77
635.339	18433.08
635.533	17769.54
635.726	16874.58
635.92	16057.44
636.114	15283.31
636.308	14857.33
636.501	14636.15
636.695	13862.02
636.889	13134.99
637.083	12696.72
637.276	12088.48
637.47	11521.19
637.664	11308.2
637.857	10818.74
638.051	10298.55
638.244	9858.24
638.438	9315.53
638.632	9305.29
638.825	8815.82
639.019	8500.44
639.212	8223.96
639.406	7732.45
639.599	7392.48
639.793	6986.99
639.986	7007.47
640.18	6747.37
640.373	6249.72
640.567	6092.02
640.76	5844.22
640.954	5633.28
641.147	5344.52
641.34	5152.01
641.534	4951.31
641.727	4812.04
641.92	4697.36
642.114	4537.62
642.307	4365.59
642.5	4365.59
642.694	3921.18
642.887	3894.55
643.08	3740.96
643.273	3732.76
643.467	3378.47
643.66	3126.57
643.853	3089.7
644.046	3071.27
644.239	2972.97
644.432	2811.18
644.626	2630.96
644.819	2661.68
645.012	2524.46
645.205	2364.72
645.398	2334
645.591	2288.95
645.784	2082.1
645.977	2084.15
646.17	1991.99
646.363	1955.13
646.556	1750.33
646.749	1758.52
646.942	1764.67
647.135	1662.27
647.328	1547.58
647.521	1527.1
647.714	1398.08
647.907	1420.61
648.099	1324.35
648.292	1451.33
648.485	1373.5
648.678	1217.86
648.871	1107.27
649.064	1068.36
649.256	1080.64
649.449	1011.01
649.642	986.44
649.835	994.63
650.027	925
650.22	918.86
650.413	857.42
650.605	933.19
650.798	773.45
650.991	748.87
651.183	746.83
651.376	783.69
651.568	752.97
651.761	671.05
651.954	752.97
652.146	732.49
652.339	701.77
652.531	695.63
652.724	578.89
652.916	640.33
653.109	458.06
653.301	638.28
653.494	626
653.686	515.41
653.879	564.56
654.071	546.12
654.263	494.93
654.456	437.58
654.648	521.55
654.84	519.5
655.033	439.63
655.225	505.17
655.417	259.41
655.61	466.25
655.802	476.49
655.994	439.63
656.186	359.76
656.379	410.96
656.571	267.6
656.763	302.42
656.955	265.55
657.148	365.9
657.34	363.86
657.532	302.42
657.724	304.46
657.916	320.85
658.108	314.7
658.3	331.09
658.492	331.09
658.684	253.27
658.876	318.8
659.068	126.29
659.26	236.88
659.452	273.75
659.644	202.07
659.836	316.75
660.028	236.88
660.22	275.79
660.412	220.5
660.604	240.98
660.796	245.07
660.988	320.85
661.18	253.27
661.372	249.17
661.563	312.66
661.755	150.87
661.947	161.11
662.139	163.15
662.331	200.02
662.522	220.5
662.714	146.77
662.906	195.92
663.097	193.87
663.289	103.76
663.481	68.95
663.673	251.22
663.864	103.76
664.056	152.91
664.247	146.77
664.439	177.49
664.631	224.59
664.822	204.11
665.014	122.2
665.205	140.63
665.397	200.02
665.588	191.83
665.78	195.92
665.971	163.15
666.163	159.06
666.354	245.07
666.546	167.25
666.737	212.31
666.929	165.2
667.12	105.81
667.311	146.77
667.503	114
667.694	101.72
667.885	150.87
668.077	195.92
668.268	79.19
668.459	97.62
668.651	148.82
668.842	87.38
669.033	50.52
669.224	23.89
669.416	281.94
669.607	95.57
669.798	48.47
669.989	247.12
670.18	130.39
670.371	159.06
670.563	75.09
670.754	181.59
670.945	171.35
671.136	130.39
671.327	42.32
671.518	204.11
671.709	302.42
671.9	132.44
672.091	243.03
672.282	183.63
672.473	79.19
672.664	13.65
672.855	197.97
673.046	179.54
673.237	146.77
673.428	169.3
673.619	91.48
673.809	161.11
674	238.93
674.191	202.07
674.382	159.06
674.573	140.63
674.764	105.81
674.954	173.39
675.145	27.99
675.336	144.72
675.527	71
675.717	32.08
675.908	68.95
676.099	89.43
676.289	152.91
676.48	42.32
676.671	132.44
676.861	83.28
677.052	120.15
677.243	105.81
677.433	60.76
677.624	83.28
677.814	183.63
678.005	142.68
678.195	189.78
678.386	114
678.576	116.05
678.767	64.85
678.957	222.55
679.148	167.25
679.338	214.35
679.529	206.16
679.719	97.62
679.909	175.44
680.1	189.78
680.29	60.76
680.481	42.32
680.671	181.59
680.861	173.39
681.052	177.49
681.242	116.05
681.432	138.58
681.622	159.06
681.813	34.13
682.003	140.63
682.193	83.28
682.383	111.96
682.573	152.91
682.764	120.15
682.954	189.78
683.144	341.33
683.334	136.53
683.524	91.48
683.714	157.01
683.904	200.02
684.094	154.96
684.284	159.06
684.474	206.16
684.664	157.01
684.854	142.68
685.044	181.59
685.234	157.01
685.424	120.15
685.614	89.43
685.804	283.98
685.994	208.21
686.184	122.2
686.374	134.48
686.564	154.96
686.753	150.87
686.943	5.46
687.133	189.78
687.323	138.58
687.513	191.83
687.702	255.31
687.892	105.81
688.082	267.6
688.272	187.73
688.461	179.54
688.651	251.22
688.841	169.3
689.03	122.2
689.22	175.44
689.41	146.77
689.599	181.59
689.789	89.43
689.979	251.22
690.168	114
690.358	220.5
690.547	109.91
690.737	136.53
690.926	181.59
691.116	247.12
691.305	200.02
691.495	181.59
691.684	107.86
691.874	81.24
692.063	152.91
692.252	226.64
692.442	296.27
692.631	154.96
692.82	87.38
693.01	165.2
693.199	142.68
693.388	177.49
693.578	146.77
693.767	140.63
693.956	249.17
694.146	161.11
694.335	214.35
694.524	68.95
694.713	277.84
694.902	187.73
695.092	150.87
695.281	122.2
695.47	105.81
695.659	157.01
695.848	62.8
696.037	85.33
696.226	253.27
696.415	103.76
696.604	257.36
696.793	195.92
696.982	163.15
697.171	222.55
697.36	114
697.549	183.63
697.738	95.57
697.927	138.58
698.116	157.01
698.305	216.4
698.494	228.69
698.683	124.24
698.872	224.59
699.061	218.45
699.25	122.2
699.438	152.91
699.627	148.82
699.816	259.41
700.005	34.13
700.193	167.25
700.382	269.65
700.571	214.35
700.76	91.48
700.948	263.51
701.137	177.49
701.326	243.03
701.514	109.91
701.703	169.3
701.892	171.35
702.08	349.52
702.269	140.63
702.457	109.91
702.646	128.34
702.834	105.81
703.023	191.83
703.212	183.63
703.4	167.25
703.589	103.76
703.777	173.39
703.965	60.76
704.154	169.3
704.342	171.35
704.531	60.76
704.719	212.31
704.907	200.02
705.096	77.14
705.284	66.9
705.472	97.62
705.661	228.69
705.849	228.69
706.037	218.45
706.226	140.63
706.414	197.97
706.602	71
706.79	224.59
706.979	46.42
707.167	93.52
707.355	52.56
707.543	208.21
707.731	228.69
707.919	161.11
708.107	187.73
708.296	118.1
708.484	111.96
708.672	206.16
708.86	214.35
709.048	261.46
709.236	114
709.424	265.55
709.612	167.25
709.8	-41.64
709.988	138.58
710.176	150.87
710.364	279.89
710.551	124.24
710.739	122.2
710.927	150.87
711.115	126.29
711.303	232.79
711.491	224.59
711.679	169.3
711.866	363.86
712.054	148.82
712.242	236.88
712.43	228.69
712.617	206.16
712.805	138.58
712.993	163.15
713.181	46.42
713.368	298.32
713.556	97.62
713.744	118.1
713.931	363.86
714.119	267.6
714.306	154.96
714.494	191.83
714.682	232.79
714.869	54.61
715.057	159.06
715.244	52.56
715.432	154.96
715.619	93.52
715.807	124.24
715.994	204.11
716.182	171.35
716.369	222.55
716.556	175.44
716.744	122.2
716.931	42.32
717.119	218.45
717.306	159.06
717.493	220.5
717.681	85.33
717.868	216.4
718.055	173.39
718.242	148.82
718.43	208.21
718.617	259.41
718.804	157.01
718.991	259.41
719.179	173.39
719.366	159.06
719.553	202.07
719.74	187.73
719.927	157.01
720.114	200.02
720.301	122.2
720.488	161.11
720.676	118.1
720.863	355.66
721.05	388.43
721.237	265.55
721.424	273.75
721.611	183.63
721.798	144.72
721.985	120.15
722.172	187.73
722.358	210.26
722.545	249.17
722.732	204.11
722.919	277.84
723.106	177.49
723.293	154.96
723.48	290.13
723.667	193.87
723.853	226.64
724.04	202.07
724.227	298.32
724.414	91.48
724.6	214.35
724.787	300.37
724.974	324.94
725.161	148.82
725.347	103.76
725.534	187.73
725.72	267.6
725.907	312.66
726.094	267.6
726.28	142.68
726.467	234.83
726.653	136.53
726.84	306.51
727.027	331.09
727.213	214.35
727.4	294.22
727.586	257.36
727.773	177.49
727.959	202.07
728.145	138.58
728.332	214.35
728.518	154.96
728.705	286.03
728.891	206.16
729.077	122.2
729.264	23.89
729.45	216.4
729.636	329.04
729.823	191.83
730.009	298.32
730.195	193.87
730.382	253.27
730.568	177.49
730.754	228.69
730.94	226.64
731.126	224.59
731.313	298.32
731.499	204.11
731.685	243.03
731.871	331.09
732.057	210.26
732.243	333.14
732.429	210.26
732.615	224.59
732.801	269.65
732.987	210.26
733.173	204.11
733.359	128.34
733.545	224.59
733.731	245.07
733.917	341.33
734.103	200.02
734.289	216.4
734.475	163.15
734.661	413.01
734.847	281.94
735.033	197.97
735.219	286.03
735.404	251.22
735.59	152.91
735.776	232.79
735.962	220.5
736.148	263.51
736.333	343.38
736.519	189.78
736.705	234.83
736.89	245.07
737.076	216.4
737.262	161.11
737.447	130.39
737.633	165.2
737.819	243.03
738.004	214.35
738.19	220.5
738.375	204.11
738.561	326.99
738.747	208.21
738.932	152.91
739.118	386.38
739.303	286.03
739.489	202.07
739.674	204.11
739.859	163.15
740.045	292.18
740.23	232.79
740.416	124.24
740.601	212.31
740.786	218.45
740.972	71
741.157	93.52
741.342	103.76
741.528	152.91
741.713	296.27
741.898	253.27
742.084	202.07
742.269	179.54
742.454	281.94
742.639	173.39
742.824	152.91
743.01	314.7
743.195	286.03
743.38	226.64
743.565	167.25
743.75	314.7
743.935	263.51
744.12	294.22
744.305	173.39
744.49	216.4
744.675	288.08
744.86	181.59
745.045	316.75
745.23	179.54
745.415	253.27
745.6	296.27
745.785	249.17
745.97	265.55
746.155	214.35
746.34	236.88
746.525	177.49
746.71	318.8
746.895	114
747.079	99.67
747.264	140.63
747.449	292.18
747.634	232.79
747.819	202.07
748.003	128.34
748.188	124.24
748.373	150.87
748.557	148.82
748.742	234.83
748.927	120.15
749.111	195.92
749.296	173.39
749.481	220.5
749.665	222.55
749.85	220.5
750.034	238.93
750.219	345.42
750.404	171.35
750.588	222.55
750.773	36.18
750.957	187.73
751.141	169.3
751.326	243.03
751.51	107.86
751.695	226.64
751.879	140.63
752.064	294.22
752.248	197.97
752.432	312.66
752.617	169.3
752.801	318.8
752.985	140.63
753.17	269.65
753.354	169.3
753.538	214.35
753.722	152.91
753.907	148.82
754.091	44.37
754.275	214.35
754.459	148.82
754.643	128.34
754.828	146.77
755.012	179.54
755.196	101.72
755.38	197.97
755.564	97.62
755.748	148.82
755.932	130.39
756.116	202.07
756.3	191.83
756.484	64.85
756.668	253.27
756.852	81.24
757.036	116.05
757.22	163.15
757.404	71
757.588	93.52
757.772	234.83
757.956	109.91
758.14	228.69
758.323	60.76
758.507	228.69
758.691	68.95
758.875	189.78
759.059	175.44
759.242	120.15
759.426	32.08
759.61	187.73
759.794	32.08
759.977	185.68
760.161	326.99
760.345	222.55
760.528	214.35
760.712	101.72
760.895	161.11
761.079	116.05
761.263	52.56
761.446	25.94
761.63	85.33
761.813	171.35
761.997	-4.78
762.18	103.76
762.364	152.91
762.547	13.65
762.731	68.95
762.914	128.34
763.098	79.19
763.281	130.39
763.464	97.62
763.648	101.72
763.831	75.09
764.015	-8.87
764.198	165.2
764.381	109.91
764.564	93.52
764.748	101.72
764.931	103.76
765.114	105.81
765.297	109.91
765.481	-21.16
765.664	89.43
765.847	79.19
766.03	179.54
766.213	25.94
766.397	97.62
766.58	17.75
766.763	89.43
766.946	32.08
767.129	136.53
767.312	138.58
767.495	85.33
767.678	-64.17
767.861	111.96
768.044	79.19
768.227	40.28
768.41	171.35
768.593	89.43
768.776	87.38
768.959	118.1
769.142	142.68
769.324	118.1
769.507	73.04
769.69	75.09
769.873	87.38
770.056	255.31
770.239	62.8
770.421	157.01
770.604	154.96
770.787	34.13
770.97	109.91
771.152	-8.87
771.335	27.99
771.518	21.84
771.7	204.11
771.883	185.68
772.066	136.53
772.248	111.96
772.431	152.91
772.613	77.14
772.796	68.95
772.978	81.24
773.161	163.15
773.343	89.43
773.526	13.65
773.708	-90.79
773.891	-43.69
774.073	71
774.256	50.52
774.438	202.07
774.621	32.08
774.803	124.24
774.985	27.99
775.168	93.52
775.35	44.37
775.532	89.43
775.715	23.89
775.897	36.18
776.079	27.99
776.261	93.52
776.444	103.76
776.626	30.04
776.808	142.68
776.99	-86.7
777.173	52.56
777.355	58.71
777.537	-12.97
777.719	150.87
777.901	17.75
778.083	54.61
778.265	5.46
778.447	-4.78
778.629	9.56
778.811	73.04
778.993	200.02
779.175	146.77
779.357	130.39
779.539	56.66
779.721	87.38
779.903	87.38
780.085	50.52
780.267	95.57
780.449	109.91
780.631	105.81
780.812	114
780.994	25.94
781.176	52.56
781.358	93.52
781.54	5.46
781.721	157.01
781.903	132.44
782.085	7.51
782.267	161.11
782.448	-107.18
782.63	71
782.812	146.77
782.993	150.87
783.175	87.38
783.357	-17.07
783.538	9.56
783.72	27.99
783.901	15.7
784.083	95.57
784.264	36.18
784.446	3.41
784.627	-66.22
784.809	68.95
784.99	9.56
785.172	62.8
785.353	-6.83
785.535	71
785.716	30.04
785.897	-0.68
786.079	-2.73
786.26	97.62
786.441	5.46
786.623	-25.26
786.804	23.89
786.985	21.84
787.167	38.23
787.348	64.85
787.529	-2.73
787.71	128.34
787.891	62.8
788.073	64.85
788.254	-29.35
788.435	234.83
788.616	114
788.797	-0.68
788.978	38.23
789.159	-51.88
789.34	13.65
789.522	30.04
789.703	-62.12
789.884	103.76
790.065	46.42
790.246	83.28
790.427	15.7
790.607	114
790.788	105.81
790.969	-17.07
791.15	122.2
791.331	71
791.512	23.89
791.693	21.84
791.874	-8.87
792.054	169.3
792.235	148.82
792.416	25.94
792.597	9.56
792.778	77.14
792.958	62.8
793.139	77.14
793.32	93.52
793.5	-10.92
793.681	97.62
793.862	11.61
794.042	11.61
794.223	-90.79
794.404	52.56
794.584	11.61
794.765	-4.78
794.945	52.56
795.126	163.15
795.306	40.28
795.487	21.84
795.667	50.52
795.848	52.56
796.028	38.23
796.209	32.08
796.389	81.24
796.57	58.71
796.75	-49.83
796.93	17.75
797.111	-45.74
797.291	50.52
797.471	132.44
797.652	34.13
797.832	-51.88
798.012	48.47
798.192	-25.26
798.373	-2.73
798.553	13.65
798.733	120.15
798.913	-31.4
799.093	-2.73
799.274	40.28
799.454	105.81
799.634	83.28
799.814	40.28
799.994	95.57
800.174	99.67
800.354	58.71
800.534	-58.03
800.714	87.38
800.894	-47.79
801.074	-37.55
801.254	-23.21
801.434	71
801.614	-8.87
801.794	-60.07
801.974	1899.83
802.154	-23.21
802.334	101.72
802.514	30.04
802.693	-41.64
802.873	-17.07
803.053	130.39
803.233	124.24
803.413	46.42
803.592	-80.55
803.772	-39.59
803.952	46.42
804.131	-8.87
804.311	95.57
804.491	99.67
804.67	-29.35
804.85	-8.87
805.03	89.43
805.209	87.38
805.389	11.61
805.568	44.37
805.748	77.14
805.928	50.52
806.107	7.51
806.287	23.89
806.466	83.28
806.646	-17.07
806.825	-0.68
807.004	-58.03
807.184	75.09
807.363	130.39
807.543	116.05
807.722	-41.64
807.901	140.63
808.081	83.28
808.26	-150.18
808.439	21.84
808.619	77.14
808.798	44.37
808.977	21.84
809.156	83.28
809.336	-0.68
809.515	13.65
809.694	-123.56
809.873	-23.21
810.052	46.42
810.231	169.3
810.411	5.46
810.59	9.56
810.769	52.56
810.948	148.82
811.127	-68.27
811.306	-8.87
811.485	3.41
811.664	87.38
811.843	38.23
812.022	-53.93
812.201	34.13
812.38	-4.78
812.559	66.9
812.737	71
812.916	15.7
813.095	-12.97
813.274	13.65
813.453	27.99
813.632	81.24
813.811	52.56
813.989	-84.65
814.168	75.09
814.347	40.28
814.526	-15.02
814.704	87.38
814.883	122.2
815.062	-60.07
815.24	75.09
815.419	-62.12
815.598	25.94
815.776	-58.03
815.955	-37.55
816.133	-74.41
816.312	66.9
816.49	-15.02
816.669	71
816.847	23.89
817.026	7.51
817.204	-8.87
817.383	52.56
817.561	-43.69
817.74	-0.68
817.918	23.89
818.097	7.51
818.275	-15.02
818.453	128.34
818.632	62.8
818.81	36.18
818.988	-82.6
819.167	-31.4
819.345	-35.5
819.523	-25.26
819.701	46.42
819.879	-8.87
820.058	60.76
820.236	23.89
820.414	66.9
820.592	-10.92
820.77	-31.4
820.948	-72.36
821.127	25.94
821.305	38.23
821.483	-39.59
821.661	103.76
821.839	5.46
822.017	-21.16
822.195	-64.17
822.373	122.2
822.551	32.08
822.729	50.52
822.907	-41.64
823.085	46.42
823.262	-21.16
823.44	-6.83
823.618	3.41
823.796	34.13
823.974	-53.93
824.152	-72.36
824.329	40.28
824.507	-51.88
824.685	38.23
824.863	66.9
825.04	1.37
825.218	30.04
825.396	25.94
825.574	-0.68
825.751	-23.21
825.929	34.13
826.107	-49.83
826.284	50.52
826.462	75.09
826.639	-45.74
826.817	-96.94
826.994	-39.59
827.172	-78.51
827.349	120.15
827.527	126.29
827.704	-35.5
827.882	136.53
828.059	52.56
828.237	-49.83
828.414	187.73
828.591	-96.94
828.769	-21.16
828.946	-10.92
829.124	91.48
829.301	122.2
829.478	-53.93
829.655	42.32
829.833	36.18
830.01	-139.94
830.187	46.42
830.364	42.32
830.542	36.18
830.719	126.29
830.896	44.37
831.073	101.72
831.25	46.42
831.427	-8.87
831.604	21.84
831.782	-19.11
831.959	21.84
832.136	7.51
832.313	-0.68
832.49	-49.83
832.667	71
832.844	-10.92
833.021	77.14
833.198	-8.87
833.374	-27.31
833.551	15.7
833.728	58.71
833.905	44.37
834.082	-135.85
834.259	79.19
834.436	66.9
834.612	-12.97
834.789	99.67
834.966	-60.07
835.143	109.91
835.319	-33.45
835.496	87.38
835.673	36.18
835.85	-15.02
836.026	105.81
836.203	101.72
836.38	-33.45
836.556	56.66
836.733	-39.59
836.909	177.49
837.086	-39.59
837.262	-55.98
837.439	-31.4
837.616	-74.41
837.792	-35.5
837.968	-31.4
838.145	-121.51
838.321	17.75
838.498	15.7
838.674	128.34
838.851	32.08
839.027	-8.87
839.203	-31.4
839.38	-4.78
839.556	-62.12
839.732	62.8
839.909	42.32
840.085	13.65
840.261	-53.93
840.437	-64.17
840.614	-21.16
840.79	91.48
840.966	140.63
841.142	66.9
841.318	62.8
841.494	85.33
841.671	79.19
841.847	-55.98
842.023	-115.37
842.199	34.13
842.375	56.66
842.551	-45.74
842.727	-19.11
842.903	148.82
843.079	19.8
843.255	136.53
843.431	36.18
843.607	101.72
843.783	-137.9
843.959	62.8
844.134	-68.27
844.31	146.77
844.486	-62.12
844.662	-41.64
844.838	3.41
845.013	89.43
845.189	60.76
845.365	1.37
845.541	-25.26
845.716	42.32
845.892	73.04
846.068	-10.92
846.244	-31.4
846.419	44.37
846.595	-62.12
846.77	36.18
846.946	60.76
847.122	-10.92
847.297	-19.11
847.473	120.15
847.648	-68.27
847.824	11.61
847.999	-139.94
848.175	38.23
848.35	15.7
848.526	120.15
848.701	87.38
848.876	146.77
849.052	62.8
849.227	1.37
849.403	30.04
849.578	-2.73
849.753	64.85
849.929	89.43
850.104	-101.03
850.279	7.51
850.454	-39.59
850.63	46.42
850.805	9.56
850.98	52.56
851.155	-62.12
851.33	-10.92
851.505	-62.12
851.681	111.96
851.856	-53.93
852.031	124.24
852.206	5.46
852.381	-68.27
852.556	-49.83
852.731	15.7
852.906	30.04
853.081	50.52
853.256	79.19
853.431	-119.46
853.606	-47.79
853.781	-53.93
853.956	-109.23
854.131	58.71
854.305	-76.46
854.48	-49.83
854.655	-2.73
854.83	-55.98
855.005	-35.5
855.18	19.8
855.354	-6.83
855.529	-10.92
855.704	-60.07
855.879	13.65
856.053	-39.59
856.228	-27.31
856.403	3.41
856.577	42.32
856.752	-127.66
856.926	-45.74
857.101	3.41
857.276	-111.27
857.45	-21.16
857.625	38.23
857.799	-51.88
857.974	32.08
858.148	-103.08
858.323	-49.83
858.497	-31.4
858.672	-98.99
858.846	3.41
859.02	60.76
859.195	-92.84
859.369	-51.88
859.543	34.13
859.718	3.41
859.892	13.65
860.066	25.94
860.241	-23.21
860.415	-31.4
860.589	30.04
860.763	32.08
860.938	19.8
861.112	38.23
861.286	-41.64
861.46	-41.64
861.634	-41.64
861.808	105.81
861.982	-23.21
862.157	-23.21
862.331	-45.74
862.505	-90.79
862.679	-88.75
862.853	5.46
863.027	-55.98
863.201	87.38
863.375	-33.45
863.549	-19.11
863.722	32.08
863.896	150.87
864.07	-101.03
864.244	-31.4
864.418	116.05
864.592	-27.31
864.766	56.66
864.939	3.41
865.113	-37.55
865.287	159.06
865.461	-76.46
865.634	48.47
865.808	9.56
865.982	-82.6
866.156	-53.93
866.329	-131.75
866.503	7.51
866.676	89.43
866.85	132.44
867.024	-2.73
867.197	9.56
867.371	40.28
867.544	52.56
867.718	-58.03
867.891	54.61
868.065	-90.79
868.238	21.84
868.412	116.05
868.585	-31.4
868.759	-62.12
868.932	-43.69
869.105	-90.79
869.279	-53.93
869.452	-66.22
869.625	44.37
869.799	-8.87
869.972	-96.94
870.145	-49.83
870.319	30.04
870.492	-55.98
870.665	-21.16
870.838	-17.07
871.011	-94.89
871.185	-131.75
871.358	9.56
871.531	44.37
871.704	-55.98
871.877	9.56
872.05	-58.03
872.223	15.7
872.396	46.42
872.569	13.65
872.742	-88.75
872.915	40.28
873.088	1.37
873.261	11.61
873.434	13.65
873.607	7.51
873.78	71
873.953	-123.56
874.126	-47.79
874.299	50.52
874.471	11.61
874.644	15.7
874.817	9.56
874.99	136.53
875.163	-39.59
875.335	42.32
875.508	15.7
875.681	124.24
875.853	-94.89
876.026	46.42
876.199	50.52
876.371	9.56
876.544	36.18
876.717	48.47
876.889	19.8
877.062	68.95
877.234	-86.7
877.407	-82.6
877.579	42.32
877.752	21.84
877.924	30.04
878.097	21.84
878.269	-6.83
878.442	79.19
878.614	21.84
878.786	48.47
878.959	-64.17
879.131	11.61
879.303	-78.51
879.476	-12.97
879.648	36.18
879.82	17.75
879.993	13.65
880.165	-8.87
880.337	-37.55
880.509	42.32
880.681	-129.7
880.854	-21.16
881.026	46.42
881.198	154.96
881.37	19.8
881.542	15.7
881.714	34.13
881.886	81.24
882.058	48.47
882.23	11.61
882.402	15.7
882.574	54.61
882.746	75.09
882.918	73.04
883.09	-23.21
883.262	7.51
883.434	27.99
883.606	-84.65
883.778	-96.94
883.95	132.44
884.122	-41.64
884.293	56.66
884.465	-23.21
884.637	60.76
884.809	-29.35
884.98	-0.68
885.152	52.56
885.324	44.37
885.496	-55.98
885.667	15.7
885.839	-72.36
886.011	107.86
886.182	17.75
886.354	97.62
886.525	25.94
886.697	73.04
886.869	-43.69
887.04	-47.79
887.212	144.72
887.383	79.19
887.555	9.56
887.726	-58.03
887.897	-66.22
888.069	-17.07
888.24	3.41
888.412	-41.64
888.583	19.8
888.754	-86.7
888.926	-88.75
889.097	-6.83
889.268	-72.36
889.44	-17.07
889.611	-82.6
889.782	-70.31
889.953	-62.12
890.125	81.24
890.296	-49.83
890.467	-12.97
890.638	-35.5
890.809	-19.11
890.98	-131.75
891.151	30.04
891.323	48.47
891.494	-64.17
891.665	-17.07
891.836	-8.87
892.007	-23.21
892.178	-72.36
892.349	-6.83
892.52	-15.02
892.691	25.94
892.862	-94.89
893.032	-82.6
893.203	-31.4
893.374	15.7
893.545	68.95
893.716	-23.21
893.887	64.85
894.057	-60.07
894.228	38.23
894.399	-74.41
894.57	157.01
894.74	-39.59
894.911	-23.21
895.082	7.51
895.253	-23.21
895.423	-49.83
895.594	42.32
895.764	93.52
895.935	-49.83
896.106	1.37
896.276	-12.97
896.447	52.56
896.617	-49.83
896.788	-53.93
896.958	-25.26
897.129	-51.88
897.299	-4.78
897.47	109.91
897.64	89.43
897.81	-45.74
897.981	-27.31
898.151	-72.36
898.322	44.37
898.492	30.04
898.662	-68.27
898.832	25.94
899.003	-84.65
899.173	-31.4
899.343	21.84
899.513	-111.27
