Data from USB4F104151__219__11-06-02-527.txt Node

Date: Wed Feb 26 11:06:02 EST 2025
User: louis
Spectrometer: USB4F10415
Trigger mode: 4
Integration Time (sec): 1.000000E-1
Scans to average: 1
Electric dark correction enabled: true
Nonlinearity correction enabled: false
Boxcar width: 0
XAxis mode: Wavelengths
Number of Pixels in Spectrum: 3648
>>>>>Begin Spectral Data<<<<<
178.204	-354.64
178.424	-354.64
178.644	-354.64
178.864	-399.7
179.084	-411.98
179.304	32.43
179.524	-51.54
179.744	9.9
179.964	59.05
180.184	46.76
180.404	20.14
180.624	1.71
180.844	-65.88
181.064	-90.45
181.283	57
181.503	-63.83
181.723	44.71
181.943	-110.93
182.163	247.46
182.383	11.95
182.602	63.15
182.822	177.83
183.042	77.48
183.262	-18.77
183.482	-14.68
183.701	-12.63
183.921	1.71
184.141	-82.26
184.361	120.49
184.58	73.39
184.8	40.62
185.02	18.09
185.239	38.57
185.459	128.68
185.679	83.63
185.898	-92.5
186.118	57
186.338	79.53
186.557	110.25
186.777	-53.59
186.997	52.91
187.216	69.29
187.436	216.74
187.655	79.53
187.875	50.86
188.095	3.75
188.314	163.5
188.534	126.63
188.753	-33.11
188.973	149.16
189.192	140.97
189.412	11.95
189.631	97.96
189.851	118.44
190.07	181.93
190.29	-78.16
190.509	-4.44
190.729	54.95
190.948	183.98
191.168	183.98
191.387	116.39
191.607	5.8
191.826	34.47
192.045	5.8
192.265	-29.01
192.484	102.06
192.704	24.23
192.923	-31.06
193.142	147.11
193.362	46.76
193.581	153.26
193.8	81.58
194.02	102.06
194.239	-18.77
194.458	167.59
194.678	-4.44
194.897	5.8
195.116	-0.34
195.335	63.15
195.555	24.23
195.774	7.85
195.993	145.06
196.212	-4.44
196.432	50.86
196.651	40.62
196.87	-0.34
197.089	204.46
197.308	100.01
197.528	95.91
197.747	-16.73
197.966	-29.01
198.185	183.98
198.404	1.71
198.623	40.62
198.842	83.63
199.062	120.49
199.281	167.59
199.5	24.23
199.719	-16.73
199.938	36.52
200.157	30.38
200.376	73.39
200.595	26.28
200.814	104.11
201.033	-22.87
201.252	145.06
201.471	106.15
201.69	13.99
201.909	30.38
202.128	67.24
202.347	104.11
202.566	87.72
202.785	-47.44
203.004	-22.87
203.223	267.94
203.442	5.8
203.661	-59.73
203.879	59.05
204.098	38.57
204.317	-57.68
204.536	40.62
204.755	77.48
204.974	159.4
205.193	20.14
205.411	155.3
205.63	87.72
205.849	89.77
206.068	63.15
206.287	-10.58
206.505	157.35
206.724	26.28
206.943	-18.77
207.162	-31.06
207.381	124.58
207.599	-16.73
207.818	11.95
208.037	-6.49
208.255	87.72
208.474	52.91
208.693	93.87
208.911	-102.74
209.13	138.92
209.349	149.16
209.567	24.23
209.786	122.54
210.005	73.39
210.223	59.05
210.442	-82.26
210.661	32.43
210.879	46.76
211.098	30.38
211.316	11.95
211.535	69.29
211.753	79.53
211.972	61.1
212.191	-10.58
212.409	42.67
212.628	48.81
212.846	-29.01
213.065	71.34
213.283	30.38
213.502	1.71
213.72	67.24
213.938	-6.49
214.157	-41.3
214.375	124.58
214.594	106.15
214.812	75.43
215.031	13.99
215.249	-22.87
215.467	71.34
215.686	5.8
215.904	52.91
216.122	38.57
216.341	161.45
216.559	57
216.778	102.06
216.996	118.44
217.214	-24.92
217.432	-10.58
217.651	-49.49
217.869	26.28
218.087	24.23
218.306	3.75
218.524	42.67
218.742	18.09
218.96	63.15
219.179	48.81
219.397	-20.82
219.615	198.31
219.833	157.35
220.051	-82.26
220.27	147.11
220.488	149.16
220.706	24.23
220.924	-14.68
221.142	42.67
221.36	48.81
221.578	93.87
221.796	36.52
222.015	24.23
222.233	97.96
222.451	145.06
222.669	40.62
222.887	48.81
223.105	-33.11
223.323	48.81
223.541	-6.49
223.759	44.71
223.977	77.48
224.195	206.5
224.413	9.9
224.631	30.38
224.849	69.29
225.067	165.54
225.285	71.34
225.503	59.05
225.721	-96.6
225.939	-0.34
226.157	50.86
226.375	226.98
226.592	-57.68
226.81	26.28
227.028	75.43
227.246	69.29
227.464	52.91
227.682	77.48
227.9	104.11
228.117	122.54
228.335	32.43
228.553	71.34
228.771	5.8
228.989	83.63
229.206	81.58
229.424	87.72
229.642	48.81
229.86	-43.35
230.077	192.17
230.295	-24.92
230.513	132.78
230.731	22.19
230.948	181.93
231.166	83.63
231.384	-41.3
231.601	-10.58
231.819	120.49
232.037	-26.96
232.254	-45.4
232.472	50.86
232.689	-24.92
232.907	183.98
233.125	-8.53
233.342	-76.12
233.56	32.43
233.777	16.04
233.995	-14.68
234.213	36.52
234.43	87.72
234.648	38.57
234.865	69.29
235.083	69.29
235.3	61.1
235.518	34.47
235.735	132.78
235.953	65.19
236.17	48.81
236.388	20.14
236.605	-18.77
236.822	75.43
237.04	132.78
237.257	9.9
237.475	-6.49
237.692	-2.39
237.909	36.52
238.127	-22.87
238.344	77.48
238.562	-16.73
238.779	-41.3
238.996	-39.25
239.214	20.14
239.431	38.57
239.648	44.71
239.865	44.71
240.083	128.68
240.3	11.95
240.517	-12.63
240.735	100.01
240.952	110.25
241.169	118.44
241.386	65.19
241.603	67.24
241.821	-22.87
242.038	83.63
242.255	87.72
242.472	11.95
242.689	108.2
242.907	46.76
243.124	48.81
243.341	32.43
243.558	-53.59
243.775	-61.78
243.992	-16.73
244.209	102.06
244.426	216.74
244.643	40.62
244.86	30.38
245.078	63.15
245.295	106.15
245.512	65.19
245.729	7.85
245.946	48.81
246.163	34.47
246.38	-20.82
246.597	57
246.814	-78.16
247.031	-4.44
247.248	95.91
247.464	124.58
247.681	-16.73
247.898	-10.58
248.115	114.34
248.332	-24.92
248.549	114.34
248.766	192.17
248.983	71.34
249.2	42.67
249.417	54.95
249.633	-2.39
249.85	67.24
250.067	16.04
250.284	-26.96
250.501	118.44
250.717	57
250.934	-65.88
251.151	36.52
251.368	83.63
251.585	-4.44
251.801	-24.92
252.018	-35.16
252.235	36.52
252.451	-20.82
252.668	85.67
252.885	73.39
253.102	75.43
253.318	61.1
253.535	-63.83
253.752	-8.53
253.968	3.75
254.185	-80.21
254.401	38.57
254.618	28.33
254.835	-24.92
255.051	210.6
255.268	7.85
255.484	44.71
255.701	-33.11
255.917	83.63
256.134	-61.78
256.351	16.04
256.567	-47.44
256.784	24.23
257	-98.64
257.217	124.58
257.433	34.47
257.65	77.48
257.866	114.34
258.082	-39.25
258.299	-8.53
258.515	34.47
258.732	-10.58
258.948	-76.12
259.165	67.24
259.381	18.09
259.597	143.02
259.814	93.87
260.03	-10.58
260.246	22.19
260.463	75.43
260.679	87.72
260.895	65.19
261.112	-35.16
261.328	30.38
261.544	-20.82
261.761	114.34
261.977	-20.82
262.193	16.04
262.409	73.39
262.626	-4.44
262.842	32.43
263.058	-4.44
263.274	40.62
263.49	69.29
263.707	52.91
263.923	40.62
264.139	-74.07
264.355	-8.53
264.571	151.21
264.787	32.43
265.004	104.11
265.22	42.67
265.436	13.99
265.652	52.91
265.868	81.58
266.084	-20.82
266.3	-10.58
266.516	-67.92
266.732	143.02
266.948	59.05
267.164	-41.3
267.38	97.96
267.596	5.8
267.812	138.92
268.028	36.52
268.244	-24.92
268.46	18.09
268.676	42.67
268.892	136.87
269.108	-43.35
269.324	-59.73
269.54	-43.35
269.756	89.77
269.972	-20.82
270.188	-55.64
270.403	-37.2
270.619	24.23
270.835	97.96
271.051	18.09
271.267	54.95
271.483	20.14
271.698	104.11
271.914	112.3
272.13	1.71
272.346	-12.63
272.562	40.62
272.777	85.67
272.993	52.91
273.209	3.75
273.425	149.16
273.64	-74.07
273.856	151.21
274.072	-20.82
274.287	-22.87
274.503	145.06
274.719	81.58
274.934	-37.2
275.15	-10.58
275.366	22.19
275.581	16.04
275.797	22.19
276.012	140.97
276.228	-41.3
276.444	-6.49
276.659	161.45
276.875	7.85
277.09	-16.73
277.306	-41.3
277.521	77.48
277.737	-6.49
277.952	18.09
278.168	89.77
278.383	38.57
278.599	89.77
278.814	46.76
279.03	59.05
279.245	102.06
279.461	-22.87
279.676	118.44
279.892	-57.68
280.107	-92.5
280.322	-82.26
280.538	20.14
280.753	75.43
280.969	48.81
281.184	34.47
281.399	167.59
281.615	30.38
281.83	59.05
282.045	-59.73
282.26	1.71
282.476	-57.68
282.691	69.29
282.906	100.01
283.122	-2.39
283.337	65.19
283.552	52.91
283.767	30.38
283.983	134.82
284.198	24.23
284.413	50.86
284.628	-20.82
284.843	42.67
285.058	161.45
285.274	59.05
285.489	1.71
285.704	153.26
285.919	3.75
286.134	-45.4
286.349	-35.16
286.564	-18.77
286.779	108.2
286.995	-41.3
287.21	9.9
287.425	-6.49
287.64	-37.2
287.855	79.53
288.07	-82.26
288.285	100.01
288.5	163.5
288.715	73.39
288.93	-43.35
289.145	-74.07
289.36	93.87
289.575	13.99
289.79	85.67
290.004	16.04
290.219	126.63
290.434	-14.68
290.649	44.71
290.864	-22.87
291.079	30.38
291.294	40.62
291.509	5.8
291.724	28.33
291.938	9.9
292.153	3.75
292.368	59.05
292.583	3.75
292.798	77.48
293.012	50.86
293.227	116.39
293.442	22.19
293.657	63.15
293.871	91.82
294.086	40.62
294.301	159.4
294.516	128.68
294.73	50.86
294.945	-24.92
295.16	-53.59
295.374	130.73
295.589	110.25
295.804	-39.25
296.018	38.57
296.233	79.53
296.447	65.19
296.662	-67.92
296.877	120.49
297.091	38.57
297.306	20.14
297.52	24.23
297.735	-24.92
297.949	48.81
298.164	69.29
298.378	28.33
298.593	-37.2
298.807	5.8
299.022	67.24
299.236	159.4
299.451	-8.53
299.665	-10.58
299.88	36.52
300.094	87.72
300.309	-12.63
300.523	75.43
300.737	-22.87
300.952	87.72
301.166	22.19
301.381	5.8
301.595	11.95
301.809	-10.58
302.024	67.24
302.238	7.85
302.452	77.48
302.667	38.57
302.881	97.96
303.095	93.87
303.309	11.95
303.524	75.43
303.738	16.04
303.952	3.75
304.166	93.87
304.381	-119.12
304.595	124.58
304.809	-35.16
305.023	24.23
305.237	-16.73
305.452	16.04
305.666	52.91
305.88	11.95
306.094	61.1
306.308	106.15
306.522	57
306.736	13.99
306.95	57
307.164	-14.68
307.379	30.38
307.593	126.63
307.807	124.58
308.021	77.48
308.235	75.43
308.449	-53.59
308.663	24.23
308.877	155.3
309.091	95.91
309.305	36.52
309.519	-76.12
309.733	40.62
309.947	-41.3
310.161	95.91
310.374	67.24
310.588	140.97
310.802	-84.31
311.016	-10.58
311.23	63.15
311.444	-121.17
311.658	-0.34
311.872	13.99
312.085	165.54
312.299	126.63
312.513	73.39
312.727	42.67
312.941	-37.2
313.154	46.76
313.368	42.67
313.582	36.52
313.796	110.25
314.009	16.04
314.223	145.06
314.437	50.86
314.651	81.58
314.864	16.04
315.078	24.23
315.292	-55.64
315.505	-29.01
315.719	7.85
315.933	50.86
316.146	-16.73
316.36	-53.59
316.573	126.63
316.787	108.2
317.001	26.28
317.214	-78.16
317.428	18.09
317.641	13.99
317.855	-10.58
318.068	-37.2
318.282	120.49
318.495	167.59
318.709	67.24
318.922	44.71
319.136	50.86
319.349	71.34
319.563	11.95
319.776	79.53
319.99	-69.97
320.203	106.15
320.417	3.75
320.63	79.53
320.843	214.7
321.057	52.91
321.27	81.58
321.483	89.77
321.697	87.72
321.91	54.95
322.124	7.85
322.337	32.43
322.55	-39.25
322.763	67.24
322.977	18.09
323.19	-47.44
323.403	-53.59
323.617	83.63
323.83	108.2
324.043	67.24
324.256	65.19
324.469	-115.03
324.683	110.25
324.896	71.34
325.109	32.43
325.322	-69.97
325.535	54.95
325.748	157.35
325.962	-20.82
326.175	-2.39
326.388	11.95
326.601	97.96
326.814	3.75
327.027	48.81
327.24	118.44
327.453	-94.55
327.666	22.19
327.879	120.49
328.092	67.24
328.305	110.25
328.518	-69.97
328.731	69.29
328.944	-18.77
329.157	83.63
329.37	-39.25
329.583	95.91
329.796	112.3
330.009	-45.4
330.222	48.81
330.435	102.06
330.648	38.57
330.861	46.76
331.073	38.57
331.286	97.96
331.499	57
331.712	-33.11
331.925	69.29
332.138	22.19
332.35	155.3
332.563	13.99
332.776	202.41
332.989	24.23
333.202	-26.96
333.414	-26.96
333.627	116.39
333.84	-10.58
334.053	116.39
334.265	-67.92
334.478	9.9
334.691	-14.68
334.903	36.52
335.116	-10.58
335.329	16.04
335.541	89.77
335.754	132.78
335.966	57
336.179	71.34
336.392	20.14
336.604	106.15
336.817	104.11
337.029	7.85
337.242	-10.58
337.454	81.58
337.667	77.48
337.88	75.43
338.092	110.25
338.305	42.67
338.517	-37.2
338.729	52.91
338.942	95.91
339.154	3.75
339.367	-49.49
339.579	110.25
339.792	-8.53
340.004	163.5
340.217	-76.12
340.429	-8.53
340.641	-18.77
340.854	-6.49
341.066	40.62
341.278	130.73
341.491	147.11
341.703	36.52
341.915	-29.01
342.128	122.54
342.34	59.05
342.552	-22.87
342.764	32.43
342.977	38.57
343.189	63.15
343.401	-6.49
343.613	-90.45
343.826	36.52
344.038	-8.53
344.25	20.14
344.462	85.67
344.674	28.33
344.886	-8.53
345.099	134.82
345.311	54.95
345.523	30.38
345.735	-76.12
345.947	36.52
346.159	28.33
346.371	71.34
346.583	63.15
346.795	149.16
347.007	-22.87
347.219	71.34
347.431	-41.3
347.643	214.7
347.855	48.81
348.067	118.44
348.279	-47.44
348.491	13.99
348.703	151.21
348.915	22.19
349.127	-0.34
349.339	40.62
349.551	5.8
349.763	132.78
349.975	42.67
350.187	95.91
350.399	130.73
350.61	71.34
350.822	-10.58
351.034	24.23
351.246	50.86
351.458	85.67
351.669	77.48
351.881	42.67
352.093	149.16
352.305	79.53
352.517	73.39
352.728	110.25
352.94	52.91
353.152	59.05
353.363	34.47
353.575	61.1
353.787	122.54
353.999	124.58
354.21	143.02
354.422	-26.96
354.633	-57.68
354.845	48.81
355.057	-35.16
355.268	48.81
355.48	159.4
355.692	-67.92
355.903	52.91
356.115	-31.06
356.326	-78.16
356.538	173.74
356.749	104.11
356.961	165.54
357.172	-29.01
357.384	-53.59
357.595	181.93
357.807	-20.82
358.018	26.28
358.23	93.87
358.441	175.78
358.653	38.57
358.864	1.71
359.075	-65.88
359.287	57
359.498	124.58
359.709	83.63
359.921	-51.54
360.132	24.23
360.344	67.24
360.555	61.1
360.766	85.67
360.977	16.04
361.189	79.53
361.4	54.95
361.611	112.3
361.823	122.54
362.034	30.38
362.245	-0.34
362.456	-55.64
362.667	13.99
362.879	-43.35
363.09	38.57
363.301	40.62
363.512	122.54
363.723	-0.34
363.935	-29.01
364.146	112.3
364.357	81.58
364.568	108.2
364.779	-39.25
364.99	186.02
365.201	-31.06
365.412	100.01
365.623	-8.53
365.834	120.49
366.045	73.39
366.256	97.96
366.467	30.38
366.678	3.75
366.889	1.71
367.1	-12.63
367.311	87.72
367.522	26.28
367.733	93.87
367.944	38.57
368.155	-37.2
368.366	48.81
368.577	95.91
368.788	-20.82
368.999	50.86
369.209	-31.06
369.42	206.5
369.631	229.03
369.842	126.63
370.053	-39.25
370.264	81.58
370.474	-6.49
370.685	46.76
370.896	24.23
371.107	100.01
371.317	1.71
371.528	-14.68
371.739	126.63
371.95	140.97
372.16	110.25
372.371	-53.59
372.582	-41.3
372.792	145.06
373.003	13.99
373.214	36.52
373.424	34.47
373.635	42.67
373.846	93.87
374.056	-2.39
374.267	104.11
374.477	50.86
374.688	-10.58
374.898	57
375.109	48.81
375.319	63.15
375.53	38.57
375.74	116.39
375.951	28.33
376.161	71.34
376.372	130.73
376.582	11.95
376.793	24.23
377.003	32.43
377.214	16.04
377.424	161.45
377.635	11.95
377.845	24.23
378.055	104.11
378.266	-45.4
378.476	16.04
378.686	57
378.897	83.63
379.107	32.43
379.317	108.2
379.528	48.81
379.738	59.05
379.948	5.8
380.158	100.01
380.369	79.53
380.579	20.14
380.789	-2.39
380.999	126.63
381.21	73.39
381.42	190.12
381.63	77.48
381.84	16.04
382.05	46.76
382.261	157.35
382.471	95.91
382.681	-18.77
382.891	126.63
383.101	106.15
383.311	-72.02
383.521	11.95
383.731	100.01
383.941	102.06
384.151	77.48
384.361	-26.96
384.571	32.43
384.781	38.57
384.991	186.02
385.201	237.22
385.411	50.86
385.621	44.71
385.831	83.63
386.041	93.87
386.251	57
386.461	177.83
386.671	18.09
386.881	75.43
387.091	9.9
387.301	140.97
387.511	83.63
387.72	81.58
387.93	104.11
388.14	-20.82
388.35	89.77
388.56	124.58
388.769	69.29
388.979	34.47
389.189	48.81
389.399	48.81
389.609	85.67
389.818	48.81
390.028	48.81
390.238	85.67
390.447	44.71
390.657	-10.58
390.867	13.99
391.076	-90.45
391.286	54.95
391.496	85.67
391.705	34.47
391.915	140.97
392.125	71.34
392.334	-41.3
392.544	95.91
392.753	40.62
392.963	-26.96
393.172	48.81
393.382	-33.11
393.591	147.11
393.801	-29.01
394.01	138.92
394.22	28.33
394.429	95.91
394.639	24.23
394.848	83.63
395.058	40.62
395.267	28.33
395.477	-10.58
395.686	32.43
395.895	183.98
396.105	257.7
396.314	79.53
396.524	77.48
396.733	26.28
396.942	91.82
397.152	132.78
397.361	136.87
397.57	116.39
397.78	75.43
397.989	87.72
398.198	194.22
398.407	24.23
398.617	1.71
398.826	32.43
399.035	32.43
399.244	73.39
399.453	22.19
399.663	40.62
399.872	18.09
400.081	-61.78
400.29	79.53
400.499	-43.35
400.708	97.96
400.917	91.82
401.127	40.62
401.336	20.14
401.545	212.65
401.754	126.63
401.963	50.86
402.172	16.04
402.381	-18.77
402.59	28.33
402.799	50.86
403.008	108.2
403.217	-10.58
403.426	18.09
403.635	-37.2
403.844	65.19
404.053	7.85
404.262	38.57
404.471	128.68
404.68	110.25
404.888	65.19
405.097	38.57
405.306	52.91
405.515	16.04
405.724	44.71
405.933	110.25
406.142	77.48
406.35	112.3
406.559	59.05
406.768	77.48
406.977	159.4
407.185	153.26
407.394	57
407.603	-24.92
407.812	38.57
408.02	91.82
408.229	1.71
408.438	69.29
408.646	-31.06
408.855	-8.53
409.064	91.82
409.272	-47.44
409.481	161.45
409.69	-78.16
409.898	-86.36
410.107	57
410.315	155.3
410.524	-22.87
410.733	81.58
410.941	-0.34
411.15	57
411.358	52.91
411.567	151.21
411.775	3.75
411.984	-53.59
412.192	81.58
412.401	18.09
412.609	95.91
412.818	91.82
413.026	44.71
413.234	-2.39
413.443	104.11
413.651	32.43
413.86	-0.34
414.068	104.11
414.276	177.83
414.485	3.75
414.693	159.4
414.901	143.02
415.11	114.34
415.318	36.52
415.526	26.28
415.734	116.39
415.943	87.72
416.151	140.97
416.359	38.57
416.567	-6.49
416.776	77.48
416.984	93.87
417.192	167.59
417.4	32.43
417.608	34.47
417.817	11.95
418.025	75.43
418.233	181.93
418.441	-69.97
418.649	-26.96
418.857	67.24
419.065	108.2
419.273	30.38
419.481	159.4
419.689	50.86
419.897	28.33
420.105	-88.4
420.313	108.2
420.521	126.63
420.729	28.33
420.937	-0.34
421.145	61.1
421.353	159.4
421.561	143.02
421.769	20.14
421.977	50.86
422.185	73.39
422.393	-0.34
422.601	44.71
422.809	65.19
423.017	1.71
423.224	5.8
423.432	85.67
423.64	95.91
423.848	136.87
424.056	36.52
424.263	100.01
424.471	83.63
424.679	177.83
424.887	-31.06
425.094	122.54
425.302	61.1
425.51	89.77
425.718	67.24
425.925	112.3
426.133	65.19
426.341	173.74
426.548	54.95
426.756	20.14
426.964	87.72
427.171	20.14
427.379	145.06
427.586	16.04
427.794	132.78
428.001	159.4
428.209	50.86
428.417	112.3
428.624	173.74
428.832	65.19
429.039	50.86
429.247	75.43
429.454	89.77
429.662	255.65
429.869	83.63
430.076	83.63
430.284	73.39
430.491	163.5
430.699	110.25
430.906	157.35
431.114	110.25
431.321	77.48
431.528	71.34
431.736	110.25
431.943	140.97
432.15	81.58
432.358	235.18
432.565	282.28
432.772	36.52
432.979	257.7
433.187	151.21
433.394	226.98
433.601	138.92
433.808	188.07
434.016	251.56
434.223	179.88
434.43	282.28
434.637	245.41
434.844	220.84
435.052	286.37
435.259	321.19
435.466	218.79
435.673	222.89
435.88	257.7
436.087	310.95
436.294	292.52
436.501	269.99
436.708	210.6
436.915	315.05
437.122	331.43
437.329	339.62
437.537	349.86
437.743	384.68
437.95	523.94
438.157	376.48
438.364	368.29
438.571	392.87
438.778	401.06
438.985	386.72
439.192	478.88
439.399	450.21
439.606	360.1
439.813	581.28
440.02	548.51
440.227	614.05
440.433	532.13
440.64	525.99
440.847	501.41
441.054	568.99
441.261	669.34
441.467	575.14
441.674	554.66
441.881	734.88
442.088	638.62
442.294	616.1
442.501	712.35
442.708	751.26
442.914	765.6
443.121	896.67
443.328	898.72
443.534	935.58
443.741	870.05
443.948	790.17
444.154	976.54
444.361	1173.14
444.568	1021.6
444.774	1066.65
444.981	958.11
445.187	1140.38
445.394	1185.43
445.6	1021.6
445.807	1257.11
446.013	1240.73
446.22	1232.54
446.426	1488.53
446.633	1502.87
446.839	1654.42
447.046	1353.37
447.252	1527.44
447.459	1656.47
447.665	1660.56
447.871	1853.07
448.078	1945.23
448.284	1863.31
448.491	1947.28
448.697	2045.58
448.903	2072.2
449.11	2203.27
449.316	2180.75
449.522	2434.69
449.728	2504.32
449.935	2512.52
450.141	2565.76
450.347	2588.29
450.553	2684.55
450.76	2807.42
450.966	2956.93
451.172	3040.89
451.378	3122.81
451.584	3221.11
451.791	3305.08
451.997	3462.77
452.203	3464.82
452.409	3784.3
452.615	3855.98
452.821	3827.31
453.027	3925.61
453.233	4396.65
453.44	4204.14
453.646	4310.63
453.852	4519.53
454.058	4679.27
454.264	4828.77
454.47	5283.42
454.676	5326.43
454.882	5901.9
455.088	5609.05
455.294	5875.28
455.5	6188.62
455.705	6538.82
455.911	6690.37
456.117	6696.52
456.323	7145.02
456.529	7013.95
456.735	7509.56
456.941	7806.52
457.147	7962.16
457.352	8429.1
457.558	8644.13
457.764	9023.01
457.97	9285.15
458.176	9700.89
458.381	10094.1
458.587	10386.96
458.793	10800.65
458.999	10954.24
459.204	12234.22
459.41	12809.7
459.616	12889.57
459.821	13127.14
460.027	13632.99
460.233	14290.38
460.438	14511.57
460.644	15355.33
460.85	15365.57
461.055	16133.56
461.261	16952.74
461.466	16545.2
461.672	16786.86
461.878	19051.91
462.083	18742.67
462.289	19180.93
462.494	19953.02
462.7	19735.93
462.905	20297.08
463.111	22150.49
463.316	23041.36
463.522	23356.74
463.727	23967.04
463.932	24859.95
464.138	26058.01
464.343	26764.56
464.549	27305.23
464.754	28853.49
464.959	29869.28
465.165	30328.03
465.37	30246.11
465.575	30033.12
465.781	32236.73
465.986	33127.6
466.191	31898.82
466.397	32879.8
466.602	32079.04
466.807	33768.62
467.012	34835.61
467.218	34964.63
467.423	35112.08
467.628	36459.65
467.833	37827.69
468.038	37178.48
468.244	36471.93
468.449	38528.09
468.654	37370.99
468.859	37801.07
469.064	37608.56
469.269	36842.62
469.474	37524.59
469.679	38245.48
469.885	37352.56
470.09	37819.5
470.295	37749.87
470.5	36787.32
470.705	37061.75
470.91	36240.51
471.115	36158.59
471.32	36615.29
471.525	36258.95
471.73	35091.6
471.935	34808.98
472.139	33346.73
472.344	33834.15
472.549	33817.77
472.754	32847.03
472.959	32167.1
473.164	31200.46
473.369	30620.89
473.574	31489.23
473.778	30639.32
473.983	30508.25
474.188	29977.83
474.393	28540.15
474.598	28017.92
474.802	27737.35
475.007	27221.26
475.212	27270.41
475.417	25992.48
475.621	25810.21
475.826	25494.82
476.031	25031.98
476.235	24679.73
476.44	24438.07
476.645	23606.59
476.849	23309.64
477.054	22818.13
477.259	22594.9
477.463	22562.13
477.668	21949.79
477.872	22154.58
478.077	21443.94
478.282	20989.29
478.486	20841.84
478.691	20313.46
478.895	19867
479.1	19926.39
479.304	19727.74
479.509	19152.26
479.713	19514.75
479.918	19107.21
480.122	18453.91
480.326	18863.5
480.531	18290.07
480.735	18400.66
480.94	18105.75
481.144	19275.14
481.348	17778.08
481.553	17669.53
481.757	17302.95
481.961	17894.81
482.166	17468.83
482.37	17501.6
482.574	16952.74
482.778	17124.77
482.983	17366.43
483.187	16913.83
483.391	16563.63
483.595	16450.99
483.8	16248.24
484.004	16491.95
484.208	16068.02
484.412	15867.32
484.616	15861.18
484.821	15580.6
485.025	15191.49
485.229	15386.05
485.433	14966.21
485.637	15138.24
485.841	14566.86
486.045	14570.96
486.249	14294.48
486.453	14048.72
486.657	13891.03
486.861	13843.93
487.065	13387.23
487.269	13391.33
487.473	13073.89
487.677	13192.67
487.881	12885.48
488.085	12463.6
488.289	12443.12
488.493	11992.56
488.697	12006.9
488.901	11881.97
489.105	11439.61
489.309	11265.53
489.512	11202.05
489.716	10948.1
489.92	10712.58
490.124	10597.9
490.328	10806.79
490.531	10100.24
490.735	10235.41
490.939	9911.83
491.143	9614.87
491.346	9539.1
491.55	9391.64
491.754	9207.33
491.958	9178.65
492.161	8934.95
492.365	8883.75
492.569	8521.26
492.772	8361.52
492.976	8435.24
493.18	8459.82
493.383	8169.01
493.587	8009.26
493.79	8144.43
493.994	7857.71
494.197	7843.38
494.401	7859.76
494.605	7814.71
494.808	7685.69
495.012	7761.46
495.215	7581.24
495.419	7548.47
495.622	7276.09
495.825	7665.21
496.029	7425.59
496.232	7454.26
496.436	7280.19
496.639	7321.15
496.843	7272
497.046	7300.67
497.249	7298.62
497.453	7169.6
497.656	7341.63
497.859	7300.67
498.063	7382.59
498.266	7296.57
498.469	7216.7
498.673	7214.65
498.876	7403.07
499.079	7276.09
499.282	7396.92
499.485	7558.71
499.689	7374.39
499.892	7614.01
500.095	7366.2
500.298	7644.73
500.501	7374.39
500.705	7751.22
500.908	7870
501.111	7669.3
501.314	8048.18
501.517	7988.78
501.72	8164.91
501.923	8212.01
502.126	8420.91
502.329	8355.37
502.532	8449.58
502.735	8619.56
502.938	8855.08
503.141	8668.71
503.344	8678.95
503.547	8838.69
503.75	8922.66
503.953	9023.01
504.156	9205.28
504.359	9311.77
504.562	9479.71
504.765	9700.89
504.968	9907.73
505.17	9954.83
505.373	10053.14
505.576	10364.43
505.779	10405.39
505.982	10395.15
506.185	10853.89
506.387	10671.62
506.59	11156.99
506.793	11281.92
506.996	11542.01
507.198	12015.09
507.401	11890.17
507.604	12332.53
507.807	12527.08
508.009	12729.83
508.212	12928.49
508.415	13209.06
508.617	13481.44
508.82	13542.88
509.022	13741.53
509.225	14587.34
509.428	14587.34
509.63	14847.43
509.833	15007.17
510.035	15590.84
510.238	15619.52
510.44	16051.64
510.643	16788.91
510.845	16926.12
511.048	16971.18
511.25	17653.15
511.453	18124.18
511.655	18650.51
511.858	18750.86
512.06	19146.12
512.262	19529.09
512.465	19869.05
512.667	20411.76
512.87	20737.39
513.072	21396.84
513.274	21843.29
513.477	22461.78
513.679	22898
513.881	23424.33
514.084	23878.97
514.286	24454.45
514.488	24769.84
514.69	25617.7
514.893	25961.76
515.095	26363.16
515.297	27000.08
515.499	27796.74
515.701	28097.79
515.904	28939.51
516.106	29363.43
516.308	30082.27
516.51	30727.38
516.712	31413.45
516.914	31812.81
517.116	32115.9
517.318	32740.54
517.52	33555.63
517.722	33909.93
517.925	34643.1
518.127	35828.87
518.329	36187.27
518.531	36326.53
518.733	37319.79
518.935	37962.86
519.136	38337.63
519.338	39191.64
519.54	39326.8
519.742	40354.88
519.944	40983.61
520.146	41600.05
520.348	41954.35
520.55	42574.88
520.752	42591.26
520.954	43856.91
521.155	43820.05
521.357	44628.99
521.559	44917.76
521.761	45573.11
521.963	45992.94
522.164	46248.94
522.366	46582.76
522.568	47281.11
522.77	47422.42
522.971	48006.09
523.173	48008.14
523.375	48878.53
523.576	48720.84
523.778	48325.58
523.98	49277.88
524.181	49370.04
524.383	49542.07
524.584	49859.51
524.786	50060.21
524.988	49890.23
525.189	50455.46
525.391	50459.56
525.592	50299.82
525.794	50316.2
525.995	50504.62
526.197	50316.2
526.398	50363.31
526.6	50486.18
526.801	50371.5
527.003	50199.47
527.204	49789.87
527.406	50195.37
527.607	49525.69
527.808	49572.79
528.01	48638.92
528.211	48393.16
528.412	48845.76
528.614	48305.1
528.815	47856.59
529.016	47756.24
529.218	47293.4
529.419	46965.73
529.62	46758.88
529.822	45908.97
530.023	46265.32
530.224	45614.07
530.425	45382.65
530.626	44205.06
530.828	43686.93
531.029	44112.91
531.23	42996.76
531.431	42556.45
531.632	42292.26
531.833	41874.48
532.035	41372.72
532.236	40850.49
532.437	40674.37
532.638	39791.69
532.839	39629.9
533.04	39105.62
533.241	37932.14
533.442	38294.63
533.643	37745.77
533.844	37125.24
534.045	36361.34
534.246	36052.1
534.447	35726.47
534.648	35218.58
534.849	34423.97
535.05	33907.88
535.251	33524.91
535.451	32992.44
535.652	33014.96
535.853	32502.97
536.054	31950.02
536.255	31417.55
536.456	30792.92
536.657	31136.98
536.857	30311.64
537.058	29705.45
537.259	29619.43
537.46	29211.88
537.66	28650.74
537.861	28620.02
538.062	27938.05
538.263	27493.64
538.463	27391.24
538.664	27247.88
538.865	26510.61
539.065	26570.01
539.266	26064.16
539.466	25709.86
539.667	25085.23
539.868	25259.31
540.068	24931.63
540.269	24417.59
540.469	24427.83
540.67	23715.14
540.87	23723.33
541.071	23278.92
541.271	23407.94
541.472	22994.25
541.672	22234.46
541.873	22340.95
542.073	21792.09
542.274	21661.02
542.474	21452.13
542.675	21398.88
542.875	21028.2
543.075	20704.62
543.276	20325.75
543.476	20508.02
543.676	20182.39
543.877	19916.15
544.077	19629.44
544.277	19869.05
544.478	19266.95
544.678	19096.97
544.878	18881.93
545.078	18687.37
545.279	18138.52
545.479	18281.88
545.679	18257.3
545.879	17823.13
546.079	17626.53
546.28	17358.24
546.48	17257.89
546.68	17341.86
546.88	16862.63
547.08	16553.39
547.28	16373.17
547.48	16225.72
547.68	16141.75
547.88	15953.34
548.081	15556.03
548.281	15625.66
548.481	15132.1
548.681	15310.27
548.881	14923.21
549.081	14814.66
549.28	14601.68
549.48	14022.1
549.68	14052.82
549.88	14235.09
550.08	13643.23
550.28	13534.68
550.48	13585.88
550.68	13229.54
550.88	13086.18
551.08	12910.05
551.279	12742.12
551.479	12436.97
551.679	12381.68
551.879	12170.74
552.079	12109.3
552.278	11697.66
552.478	11789.81
552.678	11437.56
552.878	11384.32
553.077	11247.1
553.277	10743.3
553.477	10950.15
553.676	10710.54
553.876	10659.34
554.076	10223.12
554.275	10241.55
554.475	10003.99
554.674	9670.17
554.874	9801.24
555.074	9121.31
555.273	9408.03
555.473	9223.71
555.672	9006.63
555.872	8785.44
556.071	8834.6
556.271	8748.58
556.47	8508.97
556.67	8115.76
556.869	8293.93
557.068	8048.18
557.268	7857.71
557.467	7851.57
557.667	7710.26
557.866	7521.85
558.065	7435.83
558.265	7116.35
558.464	7022.14
558.663	7179.84
558.863	6876.74
559.062	7052.86
559.261	6854.21
559.461	6901.31
559.66	6592.07
559.859	6512.2
560.058	6243.92
560.258	6274.63
560.457	6092.37
560.656	6215.24
560.855	5920.34
561.054	5897.81
561.253	5774.93
561.453	5760.59
561.652	5766.74
561.851	5596.76
562.05	5402.2
562.249	5508.69
562.448	5398.1
562.647	5133.92
562.846	5109.34
563.045	5215.84
563.244	5008.99
563.443	5101.15
563.642	4836.96
563.841	4787.81
564.04	4718.18
564.239	4613.73
564.438	4554.34
564.637	4521.57
564.836	4355.69
565.035	4259.43
565.234	4351.59
565.432	4312.68
565.631	4181.61
565.83	4091.5
566.029	4140.65
566.228	3898.99
566.427	4071.02
566.625	3806.83
566.824	3821.17
567.023	3843.7
567.222	3673.71
567.42	3765.87
567.619	3579.51
567.818	3616.37
568.016	3776.11
568.215	3491.45
568.414	3540.6
568.612	3321.46
568.811	3384.95
569.01	3280.5
569.208	3124.86
569.407	3294.84
569.605	3128.95
569.804	2999.93
570.002	2971.26
570.201	2973.31
570.4	3047.04
570.598	2850.43
570.797	2856.58
570.995	2772.61
571.193	2760.32
571.392	2780.8
571.59	2469.51
571.789	2549.38
571.987	2811.52
572.186	2727.55
572.384	2530.95
572.582	2576
572.781	2561.67
572.979	2383.49
573.177	2324.1
573.376	2393.73
573.574	2406.02
573.772	2248.33
573.971	2227.85
574.169	2154.12
574.367	2152.07
574.565	2201.23
574.763	2025.1
574.962	2115.21
575.16	1969.8
575.358	1963.66
575.556	1971.85
575.754	1926.8
575.952	2029.2
576.151	1930.89
576.349	2043.53
576.547	1728.14
576.745	1801.87
576.943	1855.12
577.141	1783.44
577.339	1695.38
577.537	1805.97
577.735	1765.01
577.933	1748.62
578.131	1502.87
578.329	1707.66
578.527	1568.4
578.725	1584.79
578.923	1437.33
579.121	1511.06
579.319	1394.33
579.516	1445.52
579.714	1736.34
579.912	1486.48
580.11	1349.27
580.308	1367.7
580.506	1351.32
580.704	1287.83
580.901	1281.69
581.099	1468.05
581.297	1308.31
581.495	1197.72
581.692	1218.2
581.89	1410.71
582.088	1177.24
582.285	1201.82
582.483	1076.89
582.681	1175.19
582.878	1080.99
583.076	1103.51
583.274	1033.88
583.471	1275.54
583.669	1025.69
583.866	951.96
584.064	992.92
584.262	937.63
584.459	992.92
584.657	1013.4
584.854	954.01
585.052	1048.22
585.249	941.72
585.447	982.68
585.644	784.03
585.841	949.92
586.039	997.02
586.236	947.87
586.434	759.46
586.631	765.6
586.828	853.66
587.026	851.61
587.223	710.3
587.42	747.17
587.618	777.89
587.815	884.38
588.012	806.56
588.21	794.27
588.407	720.54
588.604	814.75
588.801	630.43
588.999	779.93
589.196	784.03
589.393	730.78
589.59	693.92
589.787	761.5
589.984	730.78
590.182	743.07
590.379	677.54
590.576	640.67
590.773	636.58
590.97	669.34
591.167	796.32
591.364	638.62
591.561	663.2
591.758	753.31
591.955	773.79
592.152	689.82
592.349	673.44
592.546	601.76
592.743	655.01
592.94	659.1
593.137	685.73
593.334	700.06
593.531	685.73
593.727	736.93
593.924	698.02
594.121	683.68
594.318	542.37
594.515	683.68
594.712	816.8
594.908	749.22
595.105	612
595.302	751.26
595.499	837.28
595.696	837.28
595.892	771.74
596.089	818.85
596.286	661.15
596.482	841.37
596.679	777.89
596.876	802.46
597.072	865.95
597.269	876.19
597.466	882.33
597.662	868
597.859	800.41
598.055	906.91
598.252	958.11
598.448	990.88
598.645	1072.79
598.841	1179.29
599.038	1191.58
599.234	1271.45
599.431	1244.82
599.627	1361.56
599.824	1230.49
600.02	1343.13
600.217	1316.5
600.413	1439.38
600.609	1418.9
600.806	1801.87
601.002	1633.94
601.198	1509.01
601.395	1818.25
601.591	1805.97
601.787	1904.27
601.984	1949.32
602.18	1939.09
602.376	2035.34
602.572	2303.62
602.769	2352.77
602.965	2180.75
603.161	2422.41
603.357	2573.96
603.553	2590.34
603.75	2604.67
603.946	2768.51
604.142	2819.71
604.338	2952.83
604.534	2977.41
604.73	3143.29
604.926	3036.8
605.122	3409.53
605.318	3458.68
605.514	3552.88
605.71	3573.36
605.906	3802.74
606.102	3661.43
606.298	3933.81
606.494	4007.53
606.69	4249.19
606.886	4269.67
607.082	4298.35
607.278	4525.67
607.474	4673.12
607.67	4882.02
607.866	4726.37
608.062	5095
608.257	5346.91
608.453	5322.33
608.649	5500.5
608.845	5574.23
609.041	5809.75
609.236	5867.09
609.432	6010.45
609.628	6014.54
609.824	6278.73
610.019	6411.85
610.215	6708.8
610.411	6936.13
610.606	7157.31
610.802	7272
610.998	7564.86
611.193	7425.59
611.389	7792.18
611.584	7968.31
611.78	7970.35
611.976	8257.07
612.171	8900.13
612.367	8965.67
612.562	9205.28
612.758	9352.73
612.953	9481.75
613.149	9774.61
613.344	9922.07
613.539	10466.83
613.735	10575.37
613.93	10929.67
614.126	11191.81
614.321	11509.24
614.517	11511.29
614.712	12041.71
614.907	12301.81
615.103	12785.13
615.298	12709.35
615.493	13254.11
615.688	13508.06
615.884	14015.96
616.079	14079.44
616.274	14804.42
616.47	14872.01
616.665	15478.21
616.86	15832.51
617.055	15984.05
617.25	16528.81
617.445	16928.17
617.641	17270.18
617.836	17730.97
618.031	17952.15
618.226	18613.65
618.421	19008.9
618.616	19615.1
618.811	19678.59
619.006	20700.53
619.201	20493.68
619.396	21163.37
619.591	21472.61
619.786	22420.82
619.981	22277.46
620.176	23088.46
620.371	23481.67
620.566	24286.52
620.761	24542.52
620.956	25365.8
621.151	25138.48
621.346	26127.64
621.541	25871.65
621.735	27084.05
621.93	27227.4
622.125	27993.34
622.32	28241.15
622.515	29021.42
622.709	29385.96
622.904	30061.79
623.099	30291.16
623.294	31225.04
623.488	31517.9
623.683	31818.95
623.878	32214.21
624.072	32980.15
624.267	33526.96
624.462	34067.62
624.656	34307.23
624.851	35284.11
625.046	34972.82
625.24	35935.37
625.435	36213.89
625.629	36942.97
625.824	37428.34
626.018	38046.82
626.213	37348.46
626.407	38646.88
626.602	38200.42
626.796	39140.44
626.991	39810.12
627.185	40053.83
627.38	39955.53
627.574	40354.88
627.768	40096.84
627.963	40535.1
628.157	40625.21
628.352	41288.76
628.546	40791.1
628.74	41077.82
628.935	40723.52
629.129	40676.41
629.323	40039.5
629.517	40608.83
629.712	40387.65
629.906	39715.92
630.1	38925.4
630.294	39418.96
630.489	38378.59
630.683	38124.64
630.877	37188.72
631.071	36732.03
631.265	36387.97
631.459	35775.62
631.653	34827.42
631.848	33862.82
632.042	32873.65
632.236	32728.25
632.43	31245.52
632.624	30645.46
632.818	29488.36
633.012	28902.64
633.206	27608.33
633.4	27067.66
633.594	25709.86
633.788	25349.42
633.982	24606
634.176	23575.87
634.369	22332.76
634.563	21845.34
634.757	20962.67
634.951	20211.06
635.145	19469.7
635.339	18584.98
635.533	17767.84
635.726	17194.4
635.92	16428.46
636.114	15635.9
636.308	15281.6
636.501	14609.87
636.695	14101.97
636.889	13510.11
637.083	12817.9
637.276	12301.81
637.47	11845.11
637.664	11212.29
637.857	10999.3
638.051	10311.18
638.244	10098.19
638.438	9563.67
638.632	9276.96
638.825	8724.01
639.019	8480.3
639.212	8037.94
639.406	7714.36
639.599	7591.48
639.793	7317.05
639.986	6944.32
640.18	6577.73
640.373	6393.42
640.567	6116.94
640.76	6010.45
640.954	5731.92
641.147	5529.17
641.34	5185.12
641.534	5148.25
641.727	4873.82
641.92	4916.83
642.114	4468.33
642.307	4300.39
642.5	4214.38
642.694	3911.28
642.887	3749.49
643.08	3757.68
643.273	3462.77
643.467	3346.04
643.66	3225.21
643.853	3155.58
644.046	3055.23
644.239	2981.5
644.432	2823.81
644.626	2637.44
644.819	2641.54
645.012	2375.3
645.205	2627.2
645.398	2313.86
645.591	2360.97
645.784	2080.39
645.977	1959.56
646.17	2010.76
646.363	1881.74
646.556	1812.11
646.749	1658.51
646.942	1785.49
647.135	1693.33
647.328	1529.49
647.521	1570.45
647.714	1511.06
647.907	1521.3
648.099	1320.6
648.292	1386.13
648.485	1253.02
648.678	1259.16
648.871	1169.05
649.064	1183.38
649.256	1021.6
649.449	986.78
649.642	878.24
649.835	853.66
650.027	904.86
650.22	1033.88
650.413	876.19
650.605	896.67
650.798	802.46
650.991	757.41
651.183	753.31
651.376	777.89
651.568	781.98
651.761	722.59
651.954	661.15
652.146	683.68
652.339	710.3
652.531	745.12
652.724	573.09
652.916	485.03
653.109	394.92
653.301	568.99
653.494	548.51
653.686	480.93
653.879	550.56
654.071	513.7
654.263	523.94
654.456	405.16
654.648	530.08
654.84	544.42
655.033	353.96
655.225	503.46
655.417	315.05
655.61	491.17
655.802	427.68
655.994	515.75
656.186	267.94
656.379	485.03
656.571	300.71
656.763	298.66
656.955	290.47
657.148	247.46
657.34	437.92
657.532	298.66
657.724	259.75
657.916	360.1
658.108	304.81
658.3	327.33
658.492	300.71
658.684	192.17
658.876	325.29
659.068	181.93
659.26	208.55
659.452	218.79
659.644	192.17
659.836	298.66
660.028	282.28
660.22	204.46
660.412	204.46
660.604	183.98
660.796	237.22
660.988	308.9
661.18	212.65
661.372	265.89
661.563	179.88
661.755	284.33
661.947	16.04
662.139	126.63
662.331	159.4
662.522	153.26
662.714	26.28
662.906	89.77
663.097	175.78
663.289	59.05
663.481	48.81
663.673	214.7
663.864	108.2
664.056	198.31
664.247	138.92
664.439	229.03
664.631	67.24
664.822	118.44
665.014	149.16
665.205	30.38
665.397	122.54
665.588	159.4
665.78	112.3
665.971	231.08
666.163	116.39
666.354	173.74
666.546	77.48
666.737	89.77
666.929	93.87
667.12	134.82
667.311	177.83
667.503	149.16
667.694	173.74
667.885	149.16
668.077	157.35
668.268	83.63
668.459	63.15
668.651	138.92
668.842	110.25
669.033	69.29
669.224	120.49
669.416	245.41
669.607	30.38
669.798	91.82
669.989	108.2
670.18	65.19
670.371	75.43
670.563	-6.49
670.754	143.02
670.945	171.69
671.136	89.77
671.327	52.91
671.518	173.74
671.709	196.26
671.9	143.02
672.091	188.07
672.282	89.77
672.473	171.69
672.664	81.58
672.855	118.44
673.046	196.26
673.237	175.78
673.428	118.44
673.619	190.12
673.809	100.01
674	108.2
674.191	155.3
674.382	102.06
674.573	87.72
674.764	118.44
674.954	106.15
675.145	132.78
675.336	85.67
675.527	124.58
675.717	9.9
675.908	-37.2
676.099	77.48
676.289	-8.53
676.48	-12.63
676.671	120.49
676.861	54.95
677.052	89.77
677.243	75.43
677.433	-8.53
677.624	110.25
677.814	157.35
678.005	112.3
678.195	278.18
678.386	24.23
678.576	112.3
678.767	-18.77
678.957	44.71
679.148	120.49
679.338	247.46
679.529	159.4
679.719	136.87
679.909	149.16
680.1	235.18
680.29	81.58
680.481	13.99
680.671	95.91
680.861	153.26
681.052	161.45
681.242	69.29
681.432	124.58
681.622	126.63
681.813	24.23
682.003	124.58
682.193	-16.73
682.383	143.02
682.573	126.63
682.764	54.95
682.954	222.89
683.144	282.28
683.334	132.78
683.524	116.39
683.714	200.36
683.904	120.49
684.094	145.06
684.284	83.63
684.474	331.43
684.664	257.7
684.854	91.82
685.044	149.16
685.234	132.78
685.424	218.79
685.614	34.47
685.804	261.8
685.994	218.79
686.184	106.15
686.374	161.45
686.564	202.41
686.753	220.84
686.943	85.67
687.133	169.64
687.323	114.34
687.513	241.32
687.702	196.26
687.892	128.68
688.082	149.16
688.272	239.27
688.461	177.83
688.651	263.85
688.841	110.25
689.03	151.21
689.22	149.16
689.41	261.8
689.599	138.92
689.789	153.26
689.979	229.03
690.168	126.63
690.358	210.6
690.547	167.59
690.737	183.98
690.926	194.22
691.116	136.87
691.305	280.23
691.495	308.9
691.684	87.72
691.874	79.53
692.063	134.82
692.252	216.74
692.442	243.37
692.631	147.11
692.82	136.87
693.01	192.17
693.199	75.43
693.388	243.37
693.578	136.87
693.767	274.09
693.956	87.72
694.146	110.25
694.335	87.72
694.524	124.58
694.713	186.02
694.902	171.69
695.092	106.15
695.281	267.94
695.47	175.78
695.659	104.11
695.848	169.64
696.037	155.3
696.226	239.27
696.415	153.26
696.604	200.36
696.793	218.79
696.982	175.78
697.171	186.02
697.36	71.34
697.549	196.26
697.738	-20.82
697.927	167.59
698.116	44.71
698.305	194.22
698.494	138.92
698.683	81.58
698.872	177.83
699.061	145.06
699.25	95.91
699.438	143.02
699.627	112.3
699.816	269.99
700.005	44.71
700.193	120.49
700.382	163.5
700.571	218.79
700.76	159.4
700.948	110.25
701.137	173.74
701.326	233.13
701.514	77.48
701.703	126.63
701.892	190.12
702.08	399.01
702.269	155.3
702.457	167.59
702.646	251.56
702.834	169.64
703.023	255.65
703.212	310.95
703.4	89.77
703.589	87.72
703.777	132.78
703.965	91.82
704.154	91.82
704.342	106.15
704.531	138.92
704.719	87.72
704.907	243.37
705.096	161.45
705.284	52.91
705.472	163.5
705.661	147.11
705.849	288.42
706.037	263.85
706.226	196.26
706.414	130.73
706.602	57
706.79	163.5
706.979	122.54
707.167	183.98
707.355	22.19
707.543	188.07
707.731	177.83
707.919	224.94
708.107	140.97
708.296	91.82
708.484	143.02
708.672	110.25
708.86	175.78
709.048	91.82
709.236	120.49
709.424	157.35
709.612	274.09
709.8	81.58
709.988	91.82
710.176	188.07
710.364	188.07
710.551	102.06
710.739	128.68
710.927	126.63
711.115	138.92
711.303	249.51
711.491	267.94
711.679	126.63
711.866	204.46
712.054	73.39
712.242	243.37
712.43	192.17
712.617	93.87
712.805	231.08
712.993	151.21
713.181	34.47
713.368	229.03
713.556	102.06
713.744	124.58
713.931	298.66
714.119	210.6
714.306	157.35
714.494	130.73
714.682	165.54
714.869	108.2
715.057	120.49
715.244	-12.63
715.432	161.45
715.619	106.15
715.807	128.68
715.994	126.63
716.182	171.69
716.369	186.02
716.556	241.32
716.744	79.53
716.931	54.95
717.119	175.78
717.306	204.46
717.493	163.5
717.681	159.4
717.868	134.82
718.055	202.41
718.242	183.98
718.43	106.15
718.617	233.13
718.804	206.5
718.991	239.27
719.179	175.78
719.366	208.55
719.553	167.59
719.74	149.16
719.927	50.86
720.114	145.06
720.301	83.63
720.488	212.65
720.676	57
720.863	292.52
721.05	272.04
721.237	161.45
721.424	190.12
721.611	181.93
721.798	83.63
721.985	116.39
722.172	140.97
722.358	196.26
722.545	204.46
722.732	208.55
722.919	296.61
723.106	181.93
723.293	214.7
723.48	163.5
723.667	155.3
723.853	179.88
724.04	278.18
724.227	272.04
724.414	163.5
724.6	239.27
724.787	362.15
724.974	347.81
725.161	183.98
725.347	71.34
725.534	200.36
725.72	296.61
725.907	284.33
726.094	263.85
726.28	155.3
726.467	161.45
726.653	83.63
726.84	229.03
727.027	333.48
727.213	95.91
727.4	192.17
727.586	200.36
727.773	294.57
727.959	155.3
728.145	249.51
728.332	110.25
728.518	110.25
728.705	220.84
728.891	159.4
729.077	222.89
729.264	75.43
729.45	140.97
729.636	218.79
729.823	198.31
730.009	163.5
730.195	237.22
730.382	284.33
730.568	196.26
730.754	181.93
730.94	165.54
731.126	208.55
731.313	194.22
731.499	165.54
731.685	231.08
731.871	265.89
732.057	179.88
732.243	280.23
732.429	183.98
732.615	288.42
732.801	319.14
732.987	204.46
733.173	206.5
733.359	161.45
733.545	220.84
733.731	278.18
733.917	296.61
734.103	280.23
734.289	161.45
734.475	145.06
734.661	302.76
734.847	259.75
735.033	253.61
735.219	259.75
735.404	175.78
735.59	212.65
735.776	183.98
735.962	224.94
736.148	233.13
736.333	290.47
736.519	194.22
736.705	179.88
736.89	194.22
737.076	208.55
737.262	128.68
737.447	124.58
737.633	132.78
737.819	282.28
738.004	204.46
738.19	245.41
738.375	237.22
738.561	233.13
738.747	231.08
738.932	229.03
739.118	362.15
739.303	306.85
739.489	229.03
739.674	179.88
739.859	143.02
740.045	214.7
740.23	292.52
740.416	106.15
740.601	224.94
740.786	183.98
740.972	183.98
741.157	143.02
741.342	95.91
741.528	116.39
741.713	249.51
741.898	196.26
742.084	171.69
742.269	196.26
742.454	208.55
742.639	294.57
742.824	241.32
743.01	274.09
743.195	339.62
743.38	200.36
743.565	233.13
743.75	50.86
743.935	243.37
744.12	269.99
744.305	122.54
744.49	190.12
744.675	220.84
744.86	110.25
745.045	214.7
745.23	198.31
745.415	251.56
745.6	290.47
745.785	132.78
745.97	298.66
746.155	194.22
746.34	292.52
746.525	224.94
746.71	331.43
746.895	100.01
747.079	112.3
747.264	128.68
747.449	255.65
747.634	122.54
747.819	255.65
748.003	44.71
748.188	102.06
748.373	186.02
748.557	233.13
748.742	239.27
748.927	140.97
749.111	132.78
749.296	190.12
749.481	181.93
749.665	132.78
749.85	67.24
750.034	245.41
750.219	208.55
750.404	134.82
750.588	161.45
750.773	110.25
750.957	116.39
751.141	206.5
751.326	222.89
751.51	77.48
751.695	161.45
751.879	81.58
752.064	237.22
752.248	208.55
752.432	202.41
752.617	229.03
752.801	214.7
752.985	54.95
753.17	222.89
753.354	159.4
753.538	134.82
753.722	130.73
753.907	120.49
754.091	50.86
754.275	208.55
754.459	-6.49
754.643	54.95
754.828	114.34
755.012	151.21
755.196	30.38
755.38	130.73
755.564	87.72
755.748	151.21
755.932	231.08
756.116	124.58
756.3	118.44
756.484	102.06
756.668	171.69
756.852	3.75
757.036	18.09
757.22	169.64
757.404	130.73
757.588	69.29
757.772	134.82
757.956	153.26
758.14	220.84
758.323	81.58
758.507	145.06
758.691	108.2
758.875	206.5
759.059	200.36
759.242	122.54
759.426	104.11
759.61	93.87
759.794	87.72
759.977	116.39
760.161	315.05
760.345	233.13
760.528	196.26
760.712	120.49
760.895	179.88
761.079	30.38
761.263	63.15
761.446	108.2
761.63	91.82
761.813	206.5
761.997	-22.87
762.18	130.73
762.364	136.87
762.547	-49.49
762.731	52.91
762.914	143.02
763.098	7.85
763.281	67.24
763.464	95.91
763.648	73.39
763.831	5.8
764.015	69.29
764.198	153.26
764.381	46.76
764.564	93.87
764.748	77.48
764.931	102.06
765.114	59.05
765.297	210.6
765.481	13.99
765.664	81.58
765.847	-0.34
766.03	202.41
766.213	-6.49
766.397	73.39
766.58	7.85
766.763	157.35
766.946	85.67
767.129	34.47
767.312	28.33
767.495	61.1
767.678	18.09
767.861	44.71
768.044	97.96
768.227	16.04
768.41	69.29
768.593	89.77
768.776	81.58
768.959	-8.53
769.142	153.26
769.324	-24.92
769.507	79.53
769.69	118.44
769.873	93.87
770.056	224.94
770.239	126.63
770.421	226.98
770.604	140.97
770.787	104.11
770.97	77.48
771.152	71.34
771.335	97.96
771.518	-18.77
771.7	155.3
771.883	186.02
772.066	89.77
772.248	50.86
772.431	134.82
772.613	118.44
772.796	7.85
772.978	153.26
773.161	130.73
773.343	85.67
773.526	11.95
773.708	-20.82
773.891	-69.97
774.073	106.15
774.256	-29.01
774.438	126.63
774.621	34.47
774.803	108.2
774.985	-12.63
775.168	59.05
775.35	40.62
775.532	67.24
775.715	-45.4
775.897	54.95
776.079	85.67
776.261	34.47
776.444	57
776.626	20.14
776.808	-8.53
776.99	34.47
777.173	77.48
777.355	5.8
777.537	100.01
777.719	118.44
777.901	1.71
778.083	-0.34
778.265	-10.58
778.447	147.11
778.629	-31.06
778.811	20.14
778.993	71.34
779.175	130.73
779.357	5.8
779.539	-24.92
779.721	16.04
779.903	50.86
780.085	-24.92
780.267	108.2
780.449	26.28
780.631	71.34
780.812	83.63
780.994	81.58
781.176	-57.68
781.358	22.19
781.54	63.15
781.721	52.91
781.903	63.15
782.085	20.14
782.267	38.57
782.448	-102.74
782.63	16.04
782.812	95.91
782.993	57
783.175	91.82
783.357	22.19
783.538	77.48
783.72	-0.34
783.901	20.14
784.083	95.91
784.264	67.24
784.446	-6.49
784.627	-45.4
784.809	87.72
784.99	-20.82
785.172	188.07
785.353	-2.39
785.535	52.91
785.716	13.99
785.897	-100.69
786.079	-8.53
786.26	46.76
786.441	65.19
786.623	-123.22
786.804	-33.11
786.985	-6.49
787.167	75.43
787.348	-12.63
787.529	26.28
787.71	145.06
787.891	24.23
788.073	1.71
788.254	-14.68
788.435	93.87
788.616	20.14
788.797	-10.58
788.978	-4.44
789.159	-41.3
789.34	59.05
789.522	28.33
789.703	-41.3
789.884	89.77
790.065	54.95
790.246	118.44
790.427	28.33
790.607	89.77
790.788	126.63
790.969	26.28
791.15	-10.58
791.331	22.19
791.512	-47.44
791.693	-102.74
791.874	71.34
792.054	233.13
792.235	71.34
792.416	-39.25
792.597	11.95
792.778	149.16
792.958	63.15
793.139	83.63
793.32	-16.73
793.5	-41.3
793.681	179.88
793.862	34.47
794.042	-43.35
794.223	-61.78
794.404	3.75
794.584	-112.98
794.765	-41.3
794.945	16.04
795.126	48.81
795.306	57
795.487	-43.35
795.667	59.05
795.848	-26.96
796.028	-63.83
796.209	32.43
796.389	100.01
796.57	1.71
796.75	-88.4
796.93	5.8
797.111	-2.39
797.291	1.71
797.471	67.24
797.652	59.05
797.832	-90.45
798.012	57
798.192	-57.68
798.373	1.71
798.553	28.33
798.733	116.39
798.913	-65.88
799.093	11.95
799.274	87.72
799.454	57
799.634	11.95
799.814	26.28
799.994	48.81
800.174	34.47
800.354	40.62
800.534	-149.84
800.714	95.91
800.894	-16.73
801.074	-57.68
801.254	-29.01
801.434	83.63
801.614	-92.5
801.794	-121.17
801.974	1889.93
802.154	-6.49
802.334	67.24
802.514	-26.96
802.693	42.67
802.873	-43.35
803.053	136.87
803.233	32.43
803.413	22.19
803.592	-35.16
803.772	-90.45
803.952	20.14
804.131	-55.64
804.311	102.06
804.491	-6.49
804.67	24.23
804.85	-100.69
805.03	42.67
805.209	69.29
805.389	-16.73
805.568	16.04
805.748	-18.77
805.928	13.99
806.107	75.43
806.287	59.05
806.466	-10.58
806.646	61.1
806.825	13.99
807.004	-121.17
807.184	61.1
807.363	16.04
807.543	28.33
807.722	-57.68
807.901	85.67
808.081	61.1
808.26	-143.7
808.439	-53.59
808.619	-24.92
808.798	26.28
808.977	-20.82
809.156	67.24
809.336	13.99
809.515	102.06
809.694	-76.12
809.873	-59.73
810.052	54.95
810.231	50.86
810.411	77.48
810.59	46.76
810.769	28.33
810.948	59.05
811.127	-45.4
811.306	-12.63
811.485	36.52
811.664	85.67
811.843	-26.96
812.022	7.85
812.201	13.99
812.38	3.75
812.559	-12.63
812.737	-6.49
812.916	-67.92
813.095	-4.44
813.274	16.04
813.453	26.28
813.632	30.38
813.811	93.87
813.989	-104.79
814.168	-0.34
814.347	-72.02
814.526	32.43
814.704	122.54
814.883	38.57
815.062	20.14
815.24	18.09
815.419	-55.64
815.598	36.52
815.776	-57.68
815.955	61.1
816.133	-121.17
816.312	69.29
816.49	-43.35
816.669	102.06
816.847	-63.83
817.026	48.81
817.204	-33.11
817.383	-57.68
817.561	-57.68
817.74	28.33
817.918	-16.73
818.097	-24.92
818.275	-98.64
818.453	61.1
818.632	44.71
818.81	-67.92
818.988	-37.2
819.167	-57.68
819.345	-0.34
819.523	-39.25
819.701	1.71
819.879	20.14
820.058	9.9
820.236	-6.49
820.414	18.09
820.592	-57.68
820.77	-43.35
820.948	-86.36
821.127	-41.3
821.305	54.95
821.483	-74.07
821.661	65.19
821.839	-22.87
822.017	-47.44
822.195	-12.63
822.373	7.85
822.551	-29.01
822.729	28.33
822.907	-43.35
823.085	3.75
823.262	-102.74
823.44	-53.59
823.618	11.95
823.796	-63.83
823.974	-90.45
824.152	-59.73
824.329	-2.39
824.507	61.1
824.685	59.05
824.863	-6.49
825.04	-26.96
825.218	57
825.396	16.04
825.574	16.04
825.751	-74.07
825.929	122.54
826.107	-82.26
826.284	42.67
826.462	-35.16
826.639	-61.78
826.817	-112.98
826.994	-22.87
827.172	-131.41
827.349	104.11
827.527	89.77
827.704	16.04
827.882	69.29
828.059	-33.11
828.237	42.67
828.414	42.67
828.591	-180.56
828.769	52.91
828.946	-117.08
829.124	46.76
829.301	71.34
829.478	79.53
829.655	-33.11
829.833	24.23
830.01	-203.09
830.187	-45.4
830.364	-14.68
830.542	-6.49
830.719	95.91
830.896	140.97
831.073	3.75
831.25	95.91
831.427	-43.35
831.604	-74.07
831.782	-37.2
831.959	20.14
832.136	-26.96
832.313	-74.07
832.49	-57.68
832.667	1.71
832.844	-63.83
833.021	38.57
833.198	24.23
833.374	20.14
833.551	-55.64
833.728	36.52
833.905	44.71
834.082	-121.17
834.259	20.14
834.436	50.86
834.612	18.09
834.789	50.86
834.966	-33.11
835.143	-96.6
835.319	-59.73
835.496	85.67
835.673	46.76
835.85	44.71
836.026	3.75
836.203	104.11
836.38	-57.68
836.556	-47.44
836.733	-49.49
836.909	112.3
837.086	-51.54
837.262	-12.63
837.439	24.23
837.616	-53.59
837.792	83.63
837.968	-20.82
838.145	-57.68
838.321	-8.53
838.498	83.63
838.674	26.28
838.851	-26.96
839.027	-65.88
839.203	1.71
839.38	24.23
839.556	-65.88
839.732	132.78
839.909	-45.4
840.085	9.9
840.261	-121.17
840.437	61.1
840.614	-31.06
840.79	40.62
840.966	122.54
841.142	-61.78
841.318	-6.49
841.494	-6.49
841.671	95.91
841.847	-84.31
842.023	-94.55
842.199	18.09
842.375	54.95
842.551	-88.4
842.727	-4.44
842.903	52.91
843.079	-31.06
843.255	18.09
843.431	-39.25
843.607	-6.49
843.783	-135.51
843.959	-14.68
844.134	-88.4
844.31	85.67
844.486	13.99
844.662	-84.31
844.838	71.34
845.013	22.19
845.189	13.99
845.365	16.04
845.541	-2.39
845.716	85.67
845.892	40.62
846.068	-18.77
846.244	-47.44
846.419	1.71
846.595	-72.02
846.77	-18.77
846.946	102.06
847.122	-59.73
847.297	-74.07
847.473	85.67
847.648	-108.88
847.824	-49.49
847.999	-69.97
848.175	-61.78
848.35	7.85
848.526	83.63
848.701	44.71
848.876	95.91
849.052	16.04
849.227	3.75
849.403	28.33
849.578	-106.84
849.753	40.62
849.929	85.67
850.104	-129.36
850.279	16.04
850.454	7.85
850.63	9.9
850.805	-6.49
850.98	30.38
851.155	7.85
851.33	-65.88
851.505	-96.6
851.681	24.23
851.856	-47.44
852.031	36.52
852.206	11.95
852.381	-57.68
852.556	11.95
852.731	79.53
852.906	36.52
853.081	20.14
853.256	-8.53
853.431	-49.49
853.606	5.8
853.781	-8.53
853.956	-141.65
854.131	-41.3
854.305	-33.11
854.48	-33.11
854.655	-133.46
854.83	-65.88
855.005	-49.49
855.18	22.19
855.354	-22.87
855.529	11.95
855.704	-57.68
855.879	-2.39
856.053	-49.49
856.228	-4.44
856.403	-53.59
856.577	52.91
856.752	-110.93
856.926	-26.96
857.101	40.62
857.276	-100.69
857.45	-18.77
857.625	40.62
857.799	-29.01
857.974	-14.68
858.148	-123.22
858.323	48.81
858.497	7.85
858.672	-55.64
858.846	-59.73
859.02	71.34
859.195	-160.08
859.369	-57.68
859.543	20.14
859.718	-20.82
859.892	102.06
860.066	-10.58
860.241	-4.44
860.415	-49.49
860.589	-39.25
860.763	-59.73
860.938	-2.39
861.112	-59.73
861.286	-59.73
861.46	-41.3
861.634	-10.58
861.808	81.58
861.982	-74.07
862.157	-137.56
862.331	-72.02
862.505	-61.78
862.679	-57.68
862.853	-72.02
863.027	71.34
863.201	81.58
863.375	-61.78
863.549	75.43
863.722	-6.49
863.896	91.82
864.07	-110.93
864.244	-16.73
864.418	102.06
864.592	75.43
864.766	-10.58
864.939	-59.73
865.113	-51.54
865.287	61.1
865.461	-78.16
865.634	16.04
865.808	-47.44
865.982	13.99
866.156	-49.49
866.329	-88.4
866.503	5.8
866.676	63.15
866.85	-12.63
867.024	-12.63
867.197	143.02
867.371	126.63
867.544	-16.73
867.718	-43.35
867.891	63.15
868.065	-125.27
868.238	26.28
868.412	83.63
868.585	-4.44
868.759	-4.44
868.932	-67.92
869.105	-125.27
869.279	57
869.452	-55.64
869.625	-2.39
869.799	-51.54
869.972	-104.79
870.145	3.75
870.319	11.95
870.492	-35.16
870.665	9.9
870.838	-53.59
871.011	-139.6
871.185	-47.44
871.358	-43.35
871.531	16.04
871.704	-59.73
871.877	-22.87
872.05	-37.2
872.223	-110.93
872.396	108.2
872.569	69.29
872.742	-78.16
872.915	77.48
873.088	-61.78
873.261	-63.83
873.434	24.23
873.607	24.23
873.78	93.87
873.953	-139.6
874.126	-14.68
874.299	61.1
874.471	-59.73
874.644	-90.45
874.817	-20.82
874.99	130.73
875.163	-86.36
875.335	42.67
875.508	-29.01
875.681	61.1
875.853	-31.06
876.026	-72.02
876.199	1.71
876.371	-18.77
876.544	-41.3
876.717	-14.68
876.889	-47.44
877.062	136.87
877.234	-63.83
877.407	-90.45
877.579	-14.68
877.752	-2.39
877.924	-10.58
878.097	-31.06
878.269	-0.34
878.442	52.91
878.614	9.9
878.786	18.09
878.959	-8.53
879.131	-65.88
879.303	-123.22
879.476	-26.96
879.648	140.97
879.82	57
879.993	-45.4
880.165	38.57
880.337	-86.36
880.509	61.1
880.681	-98.64
880.854	-88.4
881.026	-41.3
881.198	145.06
881.37	13.99
881.542	-29.01
881.714	-24.92
881.886	54.95
882.058	-45.4
882.23	7.85
882.402	16.04
882.574	13.99
882.746	75.43
882.918	44.71
883.09	50.86
883.262	-78.16
883.434	-18.77
883.606	-110.93
883.778	38.57
883.95	65.19
884.122	-2.39
884.293	69.29
884.465	46.76
884.637	-4.44
884.809	-55.64
884.98	28.33
885.152	-12.63
885.324	48.81
885.496	-59.73
885.667	-51.54
885.839	-39.25
886.011	63.15
886.182	42.67
886.354	124.58
886.525	38.57
886.697	-35.16
886.869	-49.49
887.04	-67.92
887.212	112.3
887.383	28.33
887.555	22.19
887.726	-168.27
887.897	-166.23
888.069	24.23
888.24	13.99
888.412	-67.92
888.583	-35.16
888.754	-4.44
888.926	-125.27
889.097	42.67
889.268	-98.64
889.44	-24.92
889.611	-10.58
889.782	-147.8
889.953	-6.49
890.125	59.05
890.296	-86.36
890.467	28.33
890.638	-29.01
890.809	-72.02
890.98	-92.5
891.151	13.99
891.323	95.91
891.494	28.33
891.665	-33.11
891.836	-0.34
892.007	16.04
892.178	32.43
892.349	18.09
892.52	-108.88
892.691	7.85
892.862	-57.68
893.032	-119.12
893.203	-45.4
893.374	26.28
893.545	57
893.716	-39.25
893.887	118.44
894.057	-6.49
894.228	9.9
894.399	-43.35
894.57	65.19
894.74	1.71
894.911	-16.73
895.082	-20.82
895.253	-10.58
895.423	-43.35
895.594	34.47
895.764	-37.2
895.935	-151.89
896.106	-43.35
896.276	-47.44
896.447	-24.92
896.617	-65.88
896.788	-37.2
896.958	-37.2
897.129	32.43
897.299	1.71
897.47	67.24
897.64	89.77
897.81	-61.78
897.981	-2.39
898.151	-59.73
898.322	22.19
898.492	34.47
898.662	-86.36
898.832	11.95
899.003	-41.3
899.173	61.1
899.343	-98.64
899.513	-135.51
