Data from USB4F104151__29__10-42-16-484.txt Node

Date: Wed Feb 26 10:42:16 EST 2025
User: louis
Spectrometer: USB4F10415
Trigger mode: 4
Integration Time (sec): 1.000000E-1
Scans to average: 1
Electric dark correction enabled: true
Nonlinearity correction enabled: false
Boxcar width: 0
XAxis mode: Wavelengths
Number of Pixels in Spectrum: 3648
>>>>>Begin Spectral Data<<<<<
178.204	-350.03
178.424	-350.03
178.644	-350.03
178.864	-399.18
179.084	-386.9
179.304	-32.6
179.524	-5.97
179.744	28.84
179.964	4.27
180.184	30.89
180.404	4.27
180.624	-59.22
180.844	26.79
181.064	-51.03
181.283	73.9
181.503	-40.79
181.723	20.65
181.943	-87.89
182.163	159.91
182.383	6.31
182.602	149.67
182.822	98.47
183.042	88.23
183.262	28.84
183.482	0.17
183.701	-1.88
183.921	20.65
184.141	-132.95
184.361	135.34
184.58	41.13
184.8	34.99
185.02	10.41
185.239	86.19
185.459	69.8
185.679	102.57
185.898	-87.89
186.118	90.28
186.338	67.75
186.557	30.89
186.777	-75.6
186.997	61.61
187.216	-32.6
187.436	161.96
187.655	73.9
187.875	22.7
188.095	14.51
188.314	98.47
188.534	96.43
188.753	-24.4
188.973	131.24
189.192	172.2
189.412	-22.36
189.631	67.75
189.851	82.09
190.07	137.38
190.29	-100.18
190.509	8.36
190.729	49.32
190.948	176.3
191.168	254.12
191.387	98.47
191.607	2.22
191.826	77.99
192.045	-18.26
192.265	26.79
192.484	-5.97
192.704	86.19
192.923	-100.18
193.142	129.19
193.362	135.34
193.581	137.38
193.8	20.65
194.02	86.19
194.239	30.89
194.458	47.27
194.678	-18.26
194.897	47.27
195.116	39.08
195.335	16.55
195.555	14.51
195.774	-8.02
195.993	161.96
196.212	135.34
196.432	-26.45
196.651	-57.17
196.87	-1.88
197.089	221.35
197.308	34.99
197.528	102.57
197.747	-28.5
197.966	14.51
198.185	108.71
198.404	-42.84
198.623	94.38
198.842	86.19
199.062	80.04
199.281	147.62
199.5	71.85
199.719	-14.17
199.938	28.84
200.157	47.27
200.376	168.1
200.595	143.53
200.814	86.19
201.033	-5.97
201.252	153.77
201.471	90.28
201.69	69.8
201.909	47.27
202.128	114.86
202.347	37.03
202.566	82.09
202.785	-20.31
203.004	8.36
203.223	280.74
203.442	43.18
203.661	-81.75
203.879	127.14
204.098	71.85
204.317	-71.51
204.536	32.94
204.755	41.13
204.974	131.24
205.193	-38.74
205.411	121
205.63	123.05
205.849	0.17
206.068	14.51
206.287	-8.02
206.505	157.86
206.724	12.46
206.943	-65.36
207.162	6.31
207.381	131.24
207.599	26.79
207.818	22.7
208.037	-40.79
208.255	108.71
208.474	-24.4
208.693	104.62
208.911	28.84
209.13	69.8
209.349	86.19
209.567	96.43
209.786	45.23
210.005	92.33
210.223	82.09
210.442	-120.66
210.661	24.75
210.879	55.47
211.098	53.42
211.316	41.13
211.535	34.99
211.753	30.89
211.972	104.62
212.191	-102.23
212.409	-8.02
212.628	139.43
212.846	-12.12
213.065	16.55
213.283	116.9
213.502	84.14
213.72	10.41
213.938	65.71
214.157	34.99
214.375	65.71
214.594	51.37
214.812	-10.07
215.031	-5.97
215.249	14.51
215.467	-10.07
215.686	16.55
215.904	100.52
216.122	-14.17
216.341	207.02
216.559	37.03
216.778	69.8
216.996	127.14
217.214	4.27
217.432	86.19
217.651	-73.56
217.869	-12.12
218.087	-10.07
218.306	30.89
218.524	84.14
218.742	4.27
218.96	98.47
219.179	-48.98
219.397	0.17
219.615	235.69
219.833	61.61
220.051	24.75
220.27	133.29
220.488	108.71
220.706	-12.12
220.924	-34.64
221.142	-22.36
221.36	77.99
221.578	82.09
221.796	-42.84
222.015	88.23
222.233	161.96
222.451	151.72
222.669	30.89
222.887	90.28
223.105	-44.88
223.323	37.03
223.541	-51.03
223.759	59.56
223.977	0.17
224.195	90.28
224.413	123.05
224.631	98.47
224.849	211.11
225.067	258.21
225.285	10.41
225.503	6.31
225.721	-163.67
225.939	30.89
226.157	32.94
226.375	186.54
226.592	-69.46
226.81	26.79
227.028	129.19
227.246	139.43
227.464	-3.93
227.682	145.58
227.9	10.41
228.117	65.71
228.335	96.43
228.553	30.89
228.771	-22.36
228.989	41.13
229.206	30.89
229.424	-8.02
229.642	-38.74
229.86	-87.89
230.077	73.9
230.295	55.47
230.513	86.19
230.731	61.61
230.948	157.86
231.166	198.82
231.384	39.08
231.601	34.99
231.819	114.86
232.037	-59.22
232.254	-30.55
232.472	37.03
232.689	2.22
232.907	75.95
233.125	55.47
233.342	20.65
233.56	2.22
233.777	-3.93
233.995	71.85
234.213	116.9
234.43	147.62
234.648	77.99
234.865	26.79
235.083	53.42
235.3	4.27
235.518	110.76
235.735	112.81
235.953	125.1
236.17	-12.12
236.388	63.66
236.605	37.03
236.822	77.99
237.04	174.25
237.257	-5.97
237.475	-8.02
237.692	28.84
237.909	82.09
238.127	16.55
238.344	90.28
238.562	71.85
238.779	-24.4
238.996	-24.4
239.214	-38.74
239.431	102.57
239.648	12.46
239.865	28.84
240.083	69.8
240.3	2.22
240.517	49.32
240.735	110.76
240.952	190.63
241.169	14.51
241.386	82.09
241.603	-12.12
241.821	-73.56
242.038	75.95
242.255	137.38
242.472	-46.93
242.689	0.17
242.907	92.33
243.124	47.27
243.341	8.36
243.558	-73.56
243.775	-79.7
243.992	-42.84
244.209	49.32
244.426	164.01
244.643	0.17
244.86	-12.12
245.078	164.01
245.295	114.86
245.512	-3.93
245.729	73.9
245.946	84.14
246.163	84.14
246.38	-104.28
246.597	59.56
246.814	82.09
247.031	59.56
247.248	-38.74
247.464	61.61
247.681	59.56
247.898	80.04
248.115	-5.97
248.332	8.36
248.549	125.1
248.766	180.39
248.983	92.33
249.2	88.23
249.417	118.95
249.633	16.55
249.85	125.1
250.067	-28.5
250.284	92.33
250.501	69.8
250.717	69.8
250.934	-16.21
251.151	37.03
251.368	4.27
251.585	65.71
251.801	28.84
252.018	-26.45
252.235	41.13
252.451	6.31
252.668	51.37
252.885	82.09
253.102	67.75
253.318	-46.93
253.535	22.7
253.752	-48.98
253.968	-14.17
254.185	-10.07
254.401	59.56
254.618	41.13
254.835	14.51
255.051	135.34
255.268	71.85
255.484	61.61
255.701	71.85
255.917	47.27
256.134	-28.5
256.351	65.71
256.567	-38.74
256.784	34.99
257	-36.69
257.217	137.38
257.433	34.99
257.65	32.94
257.866	182.44
258.082	-18.26
258.299	-40.79
258.515	129.19
258.732	2.22
258.948	-5.97
259.165	37.03
259.381	-51.03
259.597	131.24
259.814	-18.26
260.03	-1.88
260.246	-46.93
260.463	67.75
260.679	141.48
260.895	80.04
261.112	63.66
261.328	18.6
261.544	-34.64
261.761	137.38
261.977	-8.02
262.193	-8.02
262.409	71.85
262.626	-22.36
262.842	0.17
263.058	-14.17
263.274	51.37
263.49	41.13
263.707	86.19
263.923	121
264.139	-57.17
264.355	-30.55
264.571	168.1
264.787	6.31
265.004	137.38
265.22	63.66
265.436	-79.7
265.652	143.53
265.868	32.94
266.084	-1.88
266.3	18.6
266.516	-40.79
266.732	-18.26
266.948	-1.88
267.164	55.47
267.38	118.95
267.596	16.55
267.812	151.72
268.028	24.75
268.244	-5.97
268.46	75.95
268.676	55.47
268.892	28.84
269.108	20.65
269.324	-14.17
269.54	-42.84
269.756	106.67
269.972	-71.51
270.188	-26.45
270.403	-26.45
270.619	18.6
270.835	82.09
271.051	71.85
271.267	34.99
271.483	2.22
271.698	53.42
271.914	30.89
272.13	12.46
272.346	55.47
272.562	39.08
272.777	118.95
272.993	39.08
273.209	-18.26
273.425	112.81
273.64	-89.94
273.856	112.81
274.072	-14.17
274.287	2.22
274.503	59.56
274.719	77.99
274.934	8.36
275.15	-30.55
275.366	18.6
275.581	-28.5
275.797	34.99
276.012	-22.36
276.228	28.84
276.444	16.55
276.659	123.05
276.875	-16.21
277.09	-28.5
277.306	51.37
277.521	96.43
277.737	10.41
277.952	77.99
278.168	41.13
278.383	12.46
278.599	28.84
278.814	127.14
279.03	16.55
279.245	104.62
279.461	-18.26
279.676	86.19
279.892	-44.88
280.107	-5.97
280.322	73.9
280.538	39.08
280.753	-22.36
280.969	94.38
281.184	10.41
281.399	157.86
281.615	80.04
281.83	98.47
282.045	-81.75
282.26	51.37
282.476	26.79
282.691	112.81
282.906	71.85
283.122	47.27
283.337	-42.84
283.552	30.89
283.767	32.94
283.983	94.38
284.198	-38.74
284.413	84.14
284.628	-51.03
284.843	-34.64
285.058	116.9
285.274	39.08
285.489	51.37
285.704	59.56
285.919	-36.69
286.134	-38.74
286.349	30.89
286.564	37.03
286.779	102.57
286.995	12.46
287.21	-104.28
287.425	88.23
287.64	34.99
287.855	88.23
288.07	-30.55
288.285	139.43
288.5	86.19
288.715	41.13
288.93	96.43
289.145	-18.26
289.36	32.94
289.575	-83.8
289.79	106.67
290.004	75.95
290.219	88.23
290.434	-28.5
290.649	16.55
290.864	16.55
291.079	-16.21
291.294	108.71
291.509	94.38
291.724	26.79
291.938	-18.26
292.153	125.1
292.368	51.37
292.583	10.41
292.798	114.86
293.012	59.56
293.227	24.75
293.442	-8.02
293.657	96.43
293.871	94.38
294.086	45.23
294.301	174.25
294.516	139.43
294.73	-3.93
294.945	-145.24
295.16	-10.07
295.374	143.53
295.589	71.85
295.804	30.89
296.018	84.14
296.233	123.05
296.447	75.95
296.662	-32.6
296.877	116.9
297.091	92.33
297.306	-18.26
297.52	49.32
297.735	131.24
297.949	-3.93
298.164	55.47
298.378	18.6
298.593	-73.56
298.807	-24.4
299.022	73.9
299.236	135.34
299.451	-34.64
299.665	2.22
299.88	-10.07
300.094	32.94
300.309	51.37
300.523	22.7
300.737	-8.02
300.952	90.28
301.166	22.7
301.381	-57.17
301.595	-1.88
301.809	110.76
302.024	-20.31
302.238	-8.02
302.452	98.47
302.667	-104.28
302.881	131.24
303.095	96.43
303.309	75.95
303.524	-24.4
303.738	37.03
303.952	6.31
304.166	37.03
304.381	-75.6
304.595	184.49
304.809	12.46
305.023	49.32
305.237	49.32
305.452	28.84
305.666	86.19
305.88	75.95
306.094	63.66
306.308	43.18
306.522	86.19
306.736	104.62
306.95	80.04
307.164	49.32
307.379	22.7
307.593	80.04
307.807	161.96
308.021	84.14
308.235	37.03
308.449	-61.27
308.663	-32.6
308.877	231.59
309.091	55.47
309.305	24.75
309.519	-40.79
309.733	84.14
309.947	14.51
310.161	133.29
310.374	14.51
310.588	129.19
310.802	-59.22
311.016	2.22
311.23	127.14
311.444	-67.41
311.658	61.61
311.872	102.57
312.085	137.38
312.299	116.9
312.513	155.82
312.727	47.27
312.941	-67.41
313.154	96.43
313.368	82.09
313.582	-42.84
313.796	26.79
314.009	10.41
314.223	125.1
314.437	26.79
314.651	125.1
314.864	14.51
315.078	22.7
315.292	-63.32
315.505	0.17
315.719	47.27
315.933	6.31
316.146	16.55
316.36	-22.36
316.573	174.25
316.787	131.24
317.001	57.51
317.214	-46.93
317.428	88.23
317.641	-51.03
317.855	-28.5
318.068	55.47
318.282	2.22
318.495	172.2
318.709	-1.88
318.922	12.46
319.136	172.2
319.349	71.85
319.563	16.55
319.776	98.47
319.99	-98.13
320.203	123.05
320.417	34.99
320.63	125.1
320.843	180.39
321.057	34.99
321.27	4.27
321.483	157.86
321.697	164.01
321.91	-30.55
322.124	75.95
322.337	-3.93
322.55	26.79
322.763	43.18
322.977	96.43
323.19	-16.21
323.403	43.18
323.617	116.9
323.83	104.62
324.043	10.41
324.256	57.51
324.469	-10.07
324.683	121
324.896	86.19
325.109	63.66
325.322	-24.4
325.535	170.15
325.748	86.19
325.962	-26.45
326.175	86.19
326.388	110.76
326.601	110.76
326.814	14.51
327.027	45.23
327.24	104.62
327.453	-65.36
327.666	51.37
327.879	82.09
328.092	135.34
328.305	45.23
328.518	28.84
328.731	41.13
328.944	-16.21
329.157	47.27
329.37	-38.74
329.583	112.81
329.796	127.14
330.009	-59.22
330.222	98.47
330.435	110.76
330.648	82.09
330.861	86.19
331.073	43.18
331.286	69.8
331.499	8.36
331.712	-96.08
331.925	80.04
332.138	0.17
332.35	90.28
332.563	-34.64
332.776	186.54
332.989	20.65
333.202	73.9
333.414	2.22
333.627	63.66
333.84	63.66
334.053	26.79
334.265	47.27
334.478	12.46
334.691	108.71
334.903	47.27
335.116	53.42
335.329	59.56
335.541	-3.93
335.754	129.19
335.966	-77.65
336.179	12.46
336.392	6.31
336.604	22.7
336.817	131.24
337.029	41.13
337.242	16.55
337.454	53.42
337.667	4.27
337.88	143.53
338.092	51.37
338.305	53.42
338.517	-5.97
338.729	55.47
338.942	176.3
339.154	-18.26
339.367	20.65
339.579	-24.4
339.792	-12.12
340.004	192.68
340.217	51.37
340.429	127.14
340.641	-28.5
340.854	24.75
341.066	51.37
341.278	106.67
341.491	176.3
341.703	82.09
341.915	-5.97
342.128	145.58
342.34	84.14
342.552	-8.02
342.764	18.6
342.977	86.19
343.189	4.27
343.401	96.43
343.613	-73.56
343.826	41.13
344.038	-55.12
344.25	34.99
344.462	6.31
344.674	69.8
344.886	-40.79
345.099	61.61
345.311	30.89
345.523	-44.88
345.735	-22.36
345.947	65.71
346.159	16.55
346.371	86.19
346.583	20.65
346.795	133.29
347.007	57.51
347.219	94.38
347.431	41.13
347.643	219.3
347.855	55.47
348.067	127.14
348.279	4.27
348.491	43.18
348.703	49.32
348.915	-18.26
349.127	-67.41
349.339	12.46
349.551	-10.07
349.763	84.14
349.975	28.84
350.187	59.56
350.399	100.52
350.61	88.23
350.822	59.56
351.034	88.23
351.246	102.57
351.458	108.71
351.669	59.56
351.881	86.19
352.093	164.01
352.305	123.05
352.517	10.41
352.728	94.38
352.94	41.13
353.152	90.28
353.363	-73.56
353.575	41.13
353.787	121
353.999	57.51
354.21	164.01
354.422	26.79
354.633	-12.12
354.845	106.67
355.057	59.56
355.268	77.99
355.48	149.67
355.692	-18.26
355.903	18.6
356.115	-18.26
356.326	-120.66
356.538	184.49
356.749	73.9
356.961	127.14
357.172	86.19
357.384	-34.64
357.595	247.97
357.807	57.51
358.018	-36.69
358.23	28.84
358.441	139.43
358.653	61.61
358.864	65.71
359.075	-59.22
359.287	84.14
359.498	65.71
359.709	145.58
359.921	-20.31
360.132	90.28
360.344	86.19
360.555	-18.26
360.766	90.28
360.977	-12.12
361.189	139.43
361.4	51.37
361.611	133.29
361.823	106.67
362.034	30.89
362.245	-48.98
362.456	104.62
362.667	71.85
362.879	-83.8
363.09	153.77
363.301	51.37
363.512	34.99
363.723	-57.17
363.935	-18.26
364.146	133.29
364.357	59.56
364.568	59.56
364.779	-83.8
364.99	180.39
365.201	4.27
365.412	180.39
365.623	-96.08
365.834	90.28
366.045	30.89
366.256	180.39
366.467	88.23
366.678	-34.64
366.889	-30.55
367.1	22.7
367.311	28.84
367.522	4.27
367.733	61.61
367.944	57.51
368.155	86.19
368.366	110.76
368.577	161.96
368.788	90.28
368.999	0.17
369.209	131.24
369.42	180.39
369.631	276.65
369.842	141.48
370.053	67.75
370.264	168.1
370.474	-34.64
370.685	77.99
370.896	-22.36
371.107	172.2
371.317	86.19
371.528	63.66
371.739	129.19
371.95	127.14
372.16	69.8
372.371	-38.74
372.582	-34.64
372.792	47.27
373.003	63.66
373.214	49.32
373.424	159.91
373.635	49.32
373.846	153.77
374.056	6.31
374.267	86.19
374.477	90.28
374.688	61.61
374.898	116.9
375.109	98.47
375.319	153.77
375.53	129.19
375.74	116.9
375.951	43.18
376.161	92.33
376.372	168.1
376.582	-32.6
376.793	80.04
377.003	-36.69
377.214	63.66
377.424	47.27
377.635	-14.17
377.845	4.27
378.055	96.43
378.266	-18.26
378.476	41.13
378.686	55.47
378.897	88.23
379.107	155.82
379.317	26.79
379.528	116.9
379.738	82.09
379.948	-18.26
380.158	139.43
380.369	30.89
380.579	71.85
380.789	-26.45
380.999	133.29
381.21	164.01
381.42	245.93
381.63	34.99
381.84	129.19
382.05	141.48
382.261	114.86
382.471	196.78
382.681	80.04
382.891	143.53
383.101	57.51
383.311	12.46
383.521	8.36
383.731	145.58
383.941	84.14
384.151	18.6
384.361	67.75
384.571	-3.93
384.781	53.42
384.991	178.34
385.201	90.28
385.411	59.56
385.621	65.71
385.831	104.62
386.041	80.04
386.251	53.42
386.461	139.43
386.671	43.18
386.881	92.33
387.091	73.9
387.301	176.3
387.511	2.22
387.72	100.52
387.93	125.1
388.14	24.75
388.35	51.37
388.56	170.15
388.769	112.81
388.979	61.61
389.189	39.08
389.399	4.27
389.609	86.19
389.818	84.14
390.028	100.52
390.238	69.8
390.447	28.84
390.657	-28.5
390.867	26.79
391.076	-28.5
391.286	30.89
391.496	57.51
391.705	39.08
391.915	127.14
392.125	147.62
392.334	22.7
392.544	202.92
392.753	63.66
392.963	-8.02
393.172	98.47
393.382	16.55
393.591	172.2
393.801	55.47
394.01	151.72
394.22	121
394.429	47.27
394.639	16.55
394.848	94.38
395.058	57.51
395.267	59.56
395.477	94.38
395.686	55.47
395.895	196.78
396.105	235.69
396.314	90.28
396.524	49.32
396.733	43.18
396.942	112.81
397.152	65.71
397.361	161.96
397.57	34.99
397.78	123.05
397.989	63.66
398.198	221.35
398.407	55.47
398.617	-22.36
398.826	65.71
399.035	51.37
399.244	114.86
399.453	61.61
399.663	51.37
399.872	34.99
400.081	65.71
400.29	121
400.499	20.65
400.708	114.86
400.917	14.51
401.127	-24.4
401.336	22.7
401.545	176.3
401.754	104.62
401.963	121
402.172	8.36
402.381	-67.41
402.59	73.9
402.799	-18.26
403.008	108.71
403.217	153.77
403.426	88.23
403.635	-12.12
403.844	37.03
404.053	30.89
404.262	100.52
404.471	161.96
404.68	55.47
404.888	82.09
405.097	10.41
405.306	69.8
405.515	149.67
405.724	61.61
405.933	168.1
406.142	61.61
406.35	129.19
406.559	116.9
406.768	-1.88
406.977	166.06
407.185	45.23
407.394	139.43
407.603	-42.84
407.812	6.31
408.02	153.77
408.229	90.28
408.438	172.2
408.646	-3.93
408.855	2.22
409.064	61.61
409.272	26.79
409.481	90.28
409.69	-16.21
409.898	-65.36
410.107	84.14
410.315	166.06
410.524	-8.02
410.733	80.04
410.941	77.99
411.15	168.1
411.358	110.76
411.567	157.86
411.775	110.76
411.984	96.43
412.192	59.56
412.401	14.51
412.609	168.1
412.818	90.28
413.026	30.89
413.234	-24.4
413.443	57.51
413.651	-10.07
413.86	37.03
414.068	166.06
414.276	182.44
414.485	-22.36
414.693	149.67
414.901	250.02
415.11	32.94
415.318	86.19
415.526	100.52
415.734	118.95
415.943	41.13
416.151	184.49
416.359	59.56
416.567	63.66
416.776	88.23
416.984	114.86
417.192	135.34
417.4	4.27
417.608	98.47
417.817	-34.64
418.025	147.62
418.233	192.68
418.441	-44.88
418.649	55.47
418.857	53.42
419.065	166.06
419.273	45.23
419.481	84.14
419.689	28.84
419.897	65.71
420.105	-12.12
420.313	137.38
420.521	168.1
420.729	133.29
420.937	34.99
421.145	10.41
421.353	51.37
421.561	245.93
421.769	73.9
421.977	2.22
422.185	131.24
422.393	84.14
422.601	225.45
422.809	92.33
423.017	141.48
423.224	30.89
423.432	129.19
423.64	12.46
423.848	137.38
424.056	67.75
424.263	153.77
424.471	143.53
424.679	131.24
424.887	30.89
425.094	194.73
425.302	75.95
425.51	104.62
425.718	198.82
425.925	182.44
426.133	12.46
426.341	325.8
426.548	164.01
426.756	61.61
426.964	137.38
427.171	-26.45
427.379	114.86
427.586	104.62
427.794	184.49
428.001	207.02
428.209	141.48
428.417	196.78
428.624	106.67
428.832	209.06
429.039	139.43
429.247	202.92
429.454	159.91
429.662	250.02
429.869	200.87
430.076	71.85
430.284	161.96
430.491	317.61
430.699	178.34
430.906	245.93
431.114	178.34
431.321	209.06
431.528	151.72
431.736	145.58
431.943	161.96
432.15	198.82
432.358	252.07
432.565	313.51
432.772	39.08
432.979	243.88
433.187	211.11
433.394	282.79
433.601	209.06
433.808	254.12
434.016	415.91
434.223	338.09
434.43	317.61
434.637	352.42
434.844	389.28
435.052	340.13
435.259	354.47
435.466	313.51
435.673	366.76
435.88	352.42
436.087	489.64
436.294	463.01
436.501	420
436.708	331.94
436.915	444.58
437.122	460.96
437.329	368.81
437.537	465.06
437.743	485.54
437.95	551.07
438.157	495.78
438.364	553.12
438.571	563.36
438.778	546.98
438.985	688.29
439.192	690.34
439.399	614.56
439.606	714.91
439.813	645.28
440.02	778.4
440.227	888.99
440.433	837.79
440.64	829.6
440.847	772.25
441.054	872.61
441.261	960.67
441.467	915.61
441.674	897.18
441.881	1087.64
442.088	934.04
442.294	1093.79
442.501	1075.35
442.708	1214.62
442.914	1114.27
443.121	1208.47
443.328	1286.3
443.534	1409.17
443.741	1317.01
443.948	1196.18
444.154	1446.04
444.361	1554.58
444.568	1472.66
444.774	1560.72
444.981	1544.34
445.187	1697.94
445.394	1767.57
445.6	1702.03
445.807	1972.36
446.013	1894.54
446.22	1837.2
446.426	2193.55
446.633	2209.93
446.839	2414.73
447.046	2082.95
447.252	2422.92
447.459	2539.65
447.665	2412.68
447.871	2631.81
448.078	2883.71
448.284	2820.22
448.491	2881.66
448.697	3061.88
448.903	3367.03
449.11	3348.6
449.316	3180.67
449.522	3487.86
449.728	3657.84
449.935	3739.76
450.141	3801.2
450.347	4020.33
450.553	4192.36
450.76	4253.8
450.966	4257.9
451.172	4397.16
451.378	4700.26
451.584	4878.43
451.791	5150.81
451.997	5183.58
452.203	5234.78
452.409	5609.56
452.615	5785.68
452.821	5673.04
453.027	5775.44
453.233	6692.93
453.44	6269
453.646	6721.6
453.852	6891.59
454.058	7268.41
454.264	7407.67
454.47	7733.3
454.676	7878.71
454.882	8765.48
455.088	8278.06
455.294	8796.2
455.5	9240.61
455.705	9766.93
455.911	9838.61
456.117	10180.62
456.323	10479.63
456.529	10373.13
456.735	11417.6
456.941	11827.19
457.147	12126.19
457.352	12363.76
457.558	12795.88
457.764	13733.85
457.97	14153.68
458.176	14421.97
458.381	15130.56
458.587	15669.18
458.793	16314.29
458.999	16320.43
459.204	18448.27
459.41	18683.79
459.616	18677.65
459.821	19922.81
460.027	20742
460.233	21682.02
460.438	21749.6
460.644	23195.46
460.85	23140.17
461.055	23994.17
461.261	25448.23
461.466	24872.75
461.672	25102.12
461.878	28258.04
462.083	27944.7
462.289	28653.3
462.494	29587.18
462.7	29630.18
462.905	30357.21
463.111	32681.66
463.316	33959.59
463.522	35135.12
463.727	36060.8
463.932	37668.46
464.138	38209.12
464.343	39894.6
464.549	40382.02
464.754	43187.74
464.959	44248.58
465.165	45067.77
465.37	44535.3
465.575	44680.7
465.781	47896.02
465.986	49126.85
466.191	48555.46
466.397	49055.17
466.602	47619.54
466.807	50197.93
467.012	51619.22
467.218	51752.34
467.423	52002.19
467.628	53300.61
467.833	56055.12
468.038	54877.54
468.244	54109.55
468.449	56802.63
468.654	55866.71
468.859	55459.16
469.064	55995.73
469.269	54689.13
469.474	55082.34
469.679	56118.61
469.885	55192.93
470.09	55557.47
470.295	55844.18
470.5	54848.87
470.705	55190.88
470.91	53376.38
471.115	53327.23
471.32	53998.96
471.525	53876.08
471.73	52336.01
471.935	52379.02
472.139	50175.41
472.344	50681.25
472.549	50148.78
472.754	49282.49
472.959	48201.16
473.164	46624.23
473.369	45811.18
473.574	47101.4
473.778	45829.62
473.983	45557.24
474.188	44914.17
474.393	42538.53
474.598	42483.23
474.802	41561.65
475.007	41322.04
475.212	40779.32
475.417	39016.02
475.621	38407.78
475.826	38389.34
476.031	37240.43
476.235	36753.02
476.44	36720.25
476.645	35741.32
476.849	35253.9
477.054	34815.64
477.259	34395.81
477.463	34117.28
477.668	32974.52
477.872	33205.94
478.077	32198.34
478.282	31600.33
478.486	31069.9
478.691	30652.12
478.895	30506.71
479.1	30148.32
479.304	30209.76
479.509	29017.84
479.713	29290.22
479.918	28999.41
480.122	27961.09
480.326	28411.64
480.531	28645.11
480.735	28014.34
480.94	27815.68
481.144	28368.63
481.348	26996.49
481.553	27184.91
481.757	26464.02
481.961	26777.36
482.166	26849.04
482.37	26314.52
482.574	25777.95
482.778	25765.67
482.983	26021.66
483.187	25845.54
483.391	25812.77
483.595	25179.95
483.8	24672.05
484.004	24848.18
484.208	25134.89
484.412	24532.79
484.616	24260.41
484.821	23799.62
485.025	23344.97
485.229	23332.68
485.433	23297.86
485.637	23080.78
485.841	22374.23
486.045	22079.32
486.249	21858.14
486.453	21548.9
486.657	21387.11
486.861	21077.87
487.065	20375.41
487.269	20320.12
487.473	19908.47
487.677	20336.5
487.881	19695.49
488.085	19074.95
488.289	19115.91
488.493	18526.1
488.697	18573.2
488.901	17840.03
489.105	17498.02
489.309	17581.98
489.512	17235.88
489.716	16998.31
489.92	16320.43
490.124	16154.55
490.328	16248.75
490.531	15839.16
490.735	15396.8
490.939	15198.15
491.143	14806.98
491.346	14485.45
491.55	14702.54
491.754	14432.21
491.958	14061.52
492.161	14012.37
492.365	13684.7
492.569	13494.24
492.772	13262.82
492.976	13209.57
493.18	12906.47
493.383	12871.65
493.587	12705.77
493.79	12664.81
493.994	12136.43
494.197	12046.32
494.401	12109.81
494.605	11681.78
494.808	12089.33
495.012	11859.96
495.215	11718.65
495.419	11737.08
495.622	11286.53
495.825	11657.21
496.029	11241.47
496.232	11589.63
496.436	11225.09
496.639	11634.68
496.843	11358.21
497.046	11411.45
497.249	11325.44
497.453	11313.15
497.656	11452.41
497.859	11304.96
498.063	11347.97
498.266	11657.21
498.469	11161.6
498.673	11364.35
498.876	11507.71
499.079	11718.65
499.282	11667.45
499.485	11892.73
499.689	11675.64
499.892	12019.7
500.095	11819
500.298	11980.79
500.501	11960.31
500.705	12128.24
500.908	12488.68
501.111	12224.5
501.314	12537.84
501.517	12904.42
501.72	12912.61
501.923	12881.89
502.126	13033.44
502.329	13139.94
502.532	13326.3
502.735	13404.13
502.938	13535.2
503.141	13723.61
503.344	14010.32
503.547	14088.15
503.75	14202.83
503.953	14483.41
504.156	14868.42
504.359	14829.51
504.562	15048.65
504.765	15411.14
504.968	15816.63
505.17	15955.9
505.373	16062.39
505.576	16123.83
505.779	16654.25
505.982	16799.66
506.185	17160.1
506.387	17416.1
506.59	17657.76
506.793	18245.52
506.996	18169.75
507.198	18962.31
507.401	19015.56
507.604	19224.45
507.807	19793.79
508.009	19996.54
508.212	20490.1
508.415	20936.56
508.617	21284.71
508.82	21901.15
509.022	22142.81
509.225	22675.28
509.428	23125.83
509.63	23605.06
509.833	23729.98
510.035	24868.66
510.238	25126.7
510.44	25644.84
510.643	26107.68
510.845	26603.28
511.048	26853.14
511.25	27789.06
511.453	28249.85
511.655	29519.59
511.858	29617.89
512.06	30361.31
512.262	31141.58
512.465	31522.51
512.667	32329.41
512.87	33081.01
513.072	33484.46
513.274	34752.15
513.477	35331.73
513.679	36617.85
513.881	36769.4
514.084	37635.69
514.286	37989.99
514.488	38962.78
514.69	40468.03
514.893	40556.1
515.095	41614.9
515.297	42616.35
515.499	43089.43
515.701	44240.39
515.904	44830.21
516.106	46398.95
516.308	46710.24
516.51	47545.81
516.712	48377.29
516.914	49089.98
517.116	50621.86
517.318	50519.46
517.52	51838.36
517.722	52663.69
517.925	53710.2
518.127	54953.32
518.329	55893.33
518.531	55795.03
518.733	57087.3
518.935	57900.34
519.136	58572.08
519.338	59940.12
519.54	60321.04
519.742	61488.38
519.944	61656.32
520.146	62588.14
520.348	63556.83
520.55	63749.34
520.752	63749.34
520.954	63749.34
521.155	63749.34
521.357	63749.34
521.559	63749.34
521.761	63749.34
521.963	63749.34
522.164	63749.34
522.366	63749.34
522.568	63749.34
522.77	63749.34
522.971	63749.34
523.173	63749.34
523.375	63749.34
523.576	63749.34
523.778	63749.34
523.98	63749.34
524.181	63749.34
524.383	63749.34
524.584	63749.34
524.786	63749.34
524.988	63749.34
525.189	63749.34
525.391	63749.34
525.592	63749.34
525.794	63749.34
525.995	63749.34
526.197	63749.34
526.398	63749.34
526.6	63749.34
526.801	63749.34
527.003	63749.34
527.204	63749.34
527.406	63749.34
527.607	63749.34
527.808	63749.34
528.01	63749.34
528.211	63749.34
528.412	63749.34
528.614	63749.34
528.815	63749.34
529.016	63749.34
529.218	63749.34
529.419	63749.34
529.62	63749.34
529.822	63749.34
530.023	63749.34
530.224	63749.34
530.425	63749.34
530.626	63749.34
530.828	63749.34
531.029	63749.34
531.23	63749.34
531.431	63552.74
531.632	63585.5
531.833	62565.62
532.035	62131.45
532.236	61162.76
532.437	60536.08
532.638	59307.3
532.839	58961.19
533.04	58572.08
533.241	57294.14
533.442	58359.09
533.643	56241.49
533.844	55608.67
534.045	55008.61
534.246	54048.11
534.447	53476.73
534.648	52522.38
534.849	52542.86
535.05	51576.22
535.251	51221.92
535.451	50032.05
535.652	50095.53
535.853	48707.01
536.054	48338.38
536.255	47832.53
536.456	46855.65
536.657	46718.43
536.857	45612.53
537.058	44961.28
537.259	44998.14
537.46	44305.93
537.66	43642.38
537.861	43214.36
538.062	42278.44
538.263	42053.16
538.463	41305.65
538.664	41373.24
538.865	40676.93
539.065	40447.55
539.266	39255.64
539.466	39212.63
539.667	38149.73
539.868	38422.11
540.068	37760.62
540.269	37138.04
540.469	36994.68
540.67	36255.36
540.87	35872.39
541.071	35573.39
541.271	35436.17
541.472	34721.43
541.672	34404
541.873	33685.16
542.073	33294
542.274	33693.35
542.474	32521.91
542.675	31960.77
542.875	32044.74
543.075	31860.42
543.276	31426.25
543.476	31106.77
543.676	30746.33
543.877	30424.79
544.077	29855.46
544.277	29501.16
544.478	29550.31
544.678	29095.66
544.878	28741.36
545.078	28176.12
545.279	28040.96
545.479	27676.42
545.679	27741.96
545.879	26949.39
546.079	27217.68
546.28	26529.56
546.48	26040.09
546.68	25835.3
546.88	25831.2
547.08	25636.64
547.28	25218.86
547.48	24448.82
547.68	24510.26
547.88	23883.58
548.081	24092.48
548.281	23392.07
548.481	23140.17
548.681	23191.37
548.881	22937.42
549.081	22368.09
549.28	22251.35
549.48	21823.33
549.68	21733.22
549.88	21460.84
550.08	20961.13
550.28	20875.12
550.48	20539.25
550.68	20428.66
550.88	19982.2
551.08	19449.73
551.279	19392.39
551.479	18972.55
551.679	19150.73
551.879	18407.31
552.079	18345.87
552.278	17809.31
552.478	17813.4
552.678	17469.34
552.878	17338.27
553.077	16918.44
553.277	16752.56
553.477	16400.3
553.676	16199.6
553.876	15820.73
554.076	16017.33
554.275	15429.57
554.475	15105.99
554.674	15103.94
554.874	14778.31
555.074	14469.07
555.273	14428.11
555.473	14020.56
555.672	13957.08
555.872	13653.98
556.071	13750.23
556.271	13498.33
556.47	13187.04
556.67	12750.82
556.869	12625.9
557.068	12509.16
557.268	12244.98
557.467	11931.64
557.667	11986.93
557.866	11706.36
558.065	11464.7
558.265	11370.49
558.464	10901.51
558.663	11030.53
558.863	10881.03
559.062	10717.19
559.261	10309.65
559.461	10352.65
559.66	10053.65
559.859	9730.07
560.058	9551.9
560.258	9390.11
560.457	9371.68
560.656	9764.89
560.855	8974.37
561.054	9031.71
561.253	8968.23
561.453	8808.48
561.652	8779.81
561.851	8833.06
562.05	8409.13
562.249	8130.61
562.448	8259.63
562.647	7938.1
562.846	7913.52
563.045	7800.88
563.244	7702.58
563.443	7571.51
563.642	7530.55
563.841	7299.13
564.04	7387.19
564.239	7067.71
564.438	7045.18
564.637	6940.74
564.836	6737.99
565.035	6637.64
565.234	6748.23
565.432	6398.03
565.631	6490.18
565.83	6467.66
566.029	6344.78
566.228	6178.89
566.427	6236.24
566.625	5908.56
566.824	5836.88
567.023	5890.13
567.222	5697.62
567.42	5761.11
567.619	5576.79
567.818	5640.28
568.016	5679.19
568.215	5396.57
568.414	5419.1
568.612	5380.18
568.811	5116
569.01	5116
569.208	4929.63
569.407	4941.92
569.605	4884.58
569.804	4790.37
570.002	4886.62
570.201	4583.52
570.4	4669.54
570.598	4599.91
570.797	4507.75
570.995	4348.01
571.193	4491.37
571.392	4411.5
571.59	4040.81
571.789	4153.45
571.987	4061.29
572.186	4147.31
572.384	3883.12
572.582	4122.73
572.781	3981.42
572.979	3743.86
573.177	3709.04
573.376	3639.41
573.574	3907.7
573.772	3528.82
573.971	3485.81
574.169	3344.5
574.367	3385.46
574.565	3375.22
574.763	3317.88
574.962	3317.88
575.16	3129.47
575.358	2953.34
575.556	3127.42
575.754	3027.07
575.952	3037.31
576.151	3031.16
576.349	3061.88
576.547	2764.93
576.745	2912.38
576.943	2871.42
577.141	2820.22
577.339	2711.68
577.537	2730.11
577.735	2754.69
577.933	2531.46
578.131	2553.99
578.329	2609.28
578.527	2408.58
578.725	2586.76
578.923	2283.66
579.121	2250.89
579.319	2334.86
579.516	2281.61
579.714	2541.7
579.912	2248.84
580.11	2201.74
580.308	2021.52
580.506	2160.78
580.704	1958.03
580.901	2052.24
581.099	2230.41
581.297	2009.23
581.495	1976.46
581.692	1937.55
581.89	2087.05
582.088	1919.12
582.285	1849.49
582.483	1810.58
582.681	1687.7
582.878	1792.14
583.076	1732.75
583.274	1910.93
583.471	1802.38
583.669	1618.07
583.866	1593.49
584.064	1642.64
584.262	1620.11
584.459	1515.67
584.657	1513.62
584.854	1673.36
585.052	1534.1
585.249	1534.1
585.447	1517.72
585.644	1443.99
585.841	1413.27
586.039	1487
586.236	1480.85
586.434	1390.74
586.631	1278.1
586.828	1233.05
587.026	1276.06
587.223	1278.1
587.42	1319.06
587.618	1243.29
587.815	1433.75
588.012	1366.17
588.21	1265.82
588.407	1351.83
588.604	1255.58
588.801	1151.13
588.999	1155.23
589.196	1263.77
589.393	1161.37
589.59	1124.51
589.787	1192.09
589.984	1233.05
590.182	1218.71
590.379	1067.16
590.576	1040.54
590.773	1077.4
590.97	1075.35
591.167	1128.6
591.364	1130.65
591.561	1108.12
591.758	1173.66
591.955	1087.64
592.152	1089.69
592.349	1007.77
592.546	1001.63
592.743	975
592.94	1077.4
593.137	1058.97
593.334	1071.26
593.531	1106.07
593.727	1108.12
593.924	1200.28
594.121	1110.17
594.318	1013.92
594.515	1087.64
594.712	1247.38
594.908	1237.14
595.105	1081.5
595.302	1161.37
595.499	1165.46
595.696	1333.4
595.892	1112.22
596.089	1321.11
596.286	1118.36
596.482	1392.79
596.679	1325.21
596.876	1269.91
597.072	1454.23
597.269	1314.97
597.466	1441.94
597.662	1470.61
597.859	1417.37
598.055	1538.2
598.252	1626.26
598.448	1738.9
598.645	1761.42
598.841	1755.28
599.038	1900.69
599.234	2066.57
599.431	1880.21
599.627	1992.84
599.824	2156.68
600.02	2117.77
600.217	2261.13
600.413	2207.88
600.609	2467.97
600.806	2746.5
601.002	2609.28
601.198	2683.01
601.395	2824.32
601.591	2873.47
601.787	2959.49
601.984	3068.03
602.18	3272.82
602.376	3225.72
602.572	3510.39
602.769	3758.19
602.965	3883.12
603.161	3893.36
603.357	3983.47
603.553	4135.02
603.75	4296.81
603.946	4425.83
604.142	4630.63
604.338	4903.01
604.534	4683.88
604.73	4845.66
604.926	5105.76
605.122	5470.3
605.318	5466.2
605.514	5720.15
605.71	5761.11
605.906	6115.41
606.102	6185.04
606.298	6414.41
606.494	6529.1
606.69	6889.54
606.886	7233.6
607.082	7137.34
607.278	7331.9
607.474	7438.39
607.67	7768.12
607.866	7829.56
608.062	8310.83
608.257	8515.62
608.453	8792.1
608.649	8996.9
608.845	9070.62
609.041	9308.19
609.236	9766.93
609.432	10029.07
609.628	10227.73
609.824	10469.39
610.019	10561.55
610.215	10987.52
610.411	11325.44
610.606	11698.17
610.802	11765.75
610.998	12462.06
611.193	12703.72
611.389	12787.69
611.584	13447.13
611.78	13334.5
611.976	13801.43
612.171	14454.73
612.367	14614.48
612.562	15040.45
612.758	15417.28
612.953	15642.56
613.149	16156.6
613.344	16762.79
613.539	17350.56
613.735	17450.91
613.93	17981.34
614.126	18071.45
614.321	19187.59
614.517	19545.98
614.712	19758.97
614.907	20074.36
615.103	20830.06
615.298	21061.48
615.493	22206.3
615.688	22230.87
615.884	23424.84
616.079	23224.14
616.274	24291.13
616.47	24706.87
616.665	25734.95
616.86	25972.51
617.055	26922.77
617.25	27719.43
617.445	28153.6
617.641	28143.36
617.836	29570.79
618.031	30256.86
618.226	30832.34
618.421	31274.7
618.616	32538.3
618.811	32775.86
619.006	34043.56
619.201	34070.18
619.396	35501.71
619.591	35741.32
619.786	36875.9
619.981	37035.64
620.176	38467.17
620.371	38383.2
620.566	39896.65
620.761	40488.51
620.956	41418.29
621.151	41530.93
621.346	42933.79
621.541	43478.55
621.735	44738.05
621.93	44946.94
622.125	46206.44
622.32	46351.85
622.515	47687.12
622.709	48078.29
622.904	49601.97
623.099	49847.73
623.294	50877.86
623.488	51238.3
623.683	52895.11
623.878	52823.43
624.072	54244.72
624.267	54904.16
624.462	55799.13
624.656	56024.4
624.851	57032
625.046	57247.04
625.24	58647.85
625.435	59041.06
625.629	60251.41
625.824	60484.88
626.018	61629.69
626.213	61111.56
626.407	62856.43
626.602	62493.94
626.796	63749.34
626.991	63749.34
627.185	63749.34
627.38	63749.34
627.574	63749.34
627.768	63749.34
627.963	63749.34
628.157	63749.34
628.352	63749.34
628.546	63749.34
628.74	63749.34
628.935	63749.34
629.129	63749.34
629.323	63749.34
629.517	63749.34
629.712	63749.34
629.906	63749.34
630.1	63749.34
630.294	63749.34
630.489	63343.84
630.683	63403.24
630.877	61656.32
631.071	60841.23
631.265	60321.04
631.459	59213.09
631.653	57916.73
631.848	57400.64
632.042	55401.82
632.236	54607.21
632.43	52753.8
632.624	51996.05
632.818	50058.67
633.012	48481.73
633.206	47205.85
633.4	46173.67
633.594	43914.76
633.788	42819.1
633.982	42098.22
634.176	40439.36
634.369	38467.17
634.563	37138.04
634.757	35597.96
634.951	34621.08
635.145	33273.52
635.339	32034.5
635.533	30838.48
635.726	29456.11
635.92	27995.9
636.114	26902.29
636.308	25894.69
636.501	25151.27
636.695	24002.36
636.889	22808.4
637.083	21991.26
637.276	21385.06
637.47	20492.15
637.664	19658.62
637.857	18706.32
638.051	18309.01
638.244	17356.71
638.438	16500.65
638.632	16164.79
638.825	15271.87
639.019	14876.62
639.212	13813.72
639.406	13733.85
639.599	12990.44
639.793	12521.45
639.986	11814.9
640.18	11538.43
640.373	10926.08
640.567	10688.52
640.76	10278.93
640.954	9848.85
641.147	9529.37
641.34	9041.95
641.534	8767.52
641.727	8685.61
641.92	8114.22
642.114	7972.91
642.307	7645.24
642.5	7264.32
642.694	6916.16
642.887	6838.34
643.08	6543.43
643.273	6404.17
643.467	5965.9
643.66	5679.19
643.853	5318.75
644.046	5181.53
644.239	5261.4
644.432	4769.89
644.626	4628.58
644.819	4634.72
645.012	4419.69
645.205	4483.17
645.398	4173.93
645.591	4030.57
645.784	3782.77
645.977	3606.64
646.17	3407.99
646.363	3319.93
646.556	3096.7
646.749	3004.54
646.942	2889.85
647.135	3000.44
647.328	2826.37
647.521	2750.59
647.714	2562.18
647.907	2326.66
648.099	2328.71
648.292	2373.77
648.485	2177.16
648.678	2072.72
648.871	2019.47
649.064	1812.62
649.256	1896.59
649.449	1742.99
649.642	1652.88
649.835	1536.15
650.027	1644.69
650.22	1552.53
650.413	1505.43
650.605	1566.87
650.798	1353.88
650.991	1460.37
651.183	1409.17
651.376	1364.12
651.568	1185.94
651.761	1251.48
651.954	1224.86
652.146	1085.59
652.339	1198.23
652.531	1110.17
652.724	917.66
652.916	929.95
653.109	850.08
653.301	977.05
653.494	972.96
653.686	897.18
653.879	923.8
654.071	876.7
654.263	794.78
654.456	770.21
654.648	850.08
654.84	815.26
655.033	739.49
655.225	776.35
655.417	639.14
655.61	768.16
655.802	733.34
655.994	755.87
656.186	489.64
656.379	686.24
656.571	628.9
656.763	534.69
656.955	524.45
657.148	577.7
657.34	596.13
657.532	487.59
657.724	536.74
657.916	467.11
658.108	598.18
658.3	520.35
658.492	442.53
658.684	387.24
658.876	471.2
659.068	411.81
659.26	387.24
659.452	391.33
659.644	411.81
659.836	506.02
660.028	391.33
660.22	344.23
660.412	321.7
660.604	356.52
660.796	403.62
660.988	479.4
661.18	368.81
661.372	323.75
661.563	268.45
661.755	293.03
661.947	213.16
662.139	313.51
662.331	260.26
662.522	262.31
662.714	217.26
662.906	270.5
663.097	250.02
663.289	227.5
663.481	133.29
663.673	354.47
663.864	290.98
664.056	356.52
664.247	217.26
664.439	364.71
664.631	266.41
664.822	303.27
665.014	198.82
665.205	227.5
665.397	221.35
665.588	329.89
665.78	266.41
665.971	342.18
666.163	172.2
666.354	333.99
666.546	241.83
666.737	147.62
666.929	155.82
667.12	198.82
667.311	235.69
667.503	194.73
667.694	264.36
667.885	233.64
668.077	297.13
668.268	61.61
668.459	198.82
668.651	170.15
668.842	303.27
669.033	196.78
669.224	129.19
669.416	297.13
669.607	159.91
669.798	143.53
669.989	336.04
670.18	258.21
670.371	204.97
670.563	147.62
670.754	168.1
670.945	225.45
671.136	247.97
671.327	174.25
671.518	307.37
671.709	276.65
671.9	321.7
672.091	286.89
672.282	317.61
672.473	143.53
672.664	114.86
672.855	233.64
673.046	317.61
673.237	280.74
673.428	178.34
673.619	219.3
673.809	166.06
674	358.57
674.191	231.59
674.382	247.97
674.573	229.54
674.764	198.82
674.954	315.56
675.145	102.57
675.336	194.73
675.527	174.25
675.717	202.92
675.908	155.82
676.099	86.19
676.289	141.48
676.48	110.76
676.671	155.82
676.861	157.86
677.052	333.99
677.243	264.36
677.433	161.96
677.624	266.41
677.814	276.65
678.005	207.02
678.195	383.14
678.386	213.16
678.576	260.26
678.767	49.32
678.957	221.35
679.148	311.46
679.338	317.61
679.529	268.45
679.719	186.54
679.909	370.85
680.1	391.33
680.29	321.7
680.481	243.88
680.671	321.7
680.861	159.91
681.052	299.17
681.242	194.73
681.432	266.41
681.622	272.55
681.813	137.38
682.003	354.47
682.193	227.5
682.383	342.18
682.573	266.41
682.764	188.58
682.954	348.33
683.144	348.33
683.334	235.69
683.524	317.61
683.714	319.65
683.904	364.71
684.094	207.02
684.284	321.7
684.474	381.09
684.664	346.28
684.854	270.5
685.044	317.61
685.234	331.94
685.424	374.95
685.614	239.78
685.804	358.57
685.994	422.05
686.184	333.99
686.374	346.28
686.564	333.99
686.753	241.83
686.943	217.26
687.133	290.98
687.323	321.7
687.513	348.33
687.702	293.03
687.892	321.7
688.082	309.41
688.272	342.18
688.461	366.76
688.651	444.58
688.841	282.79
689.03	264.36
689.22	309.41
689.41	321.7
689.599	352.42
689.789	286.89
689.979	319.65
690.168	268.45
690.358	379.04
690.547	336.04
690.737	354.47
690.926	319.65
691.116	315.56
691.305	338.09
691.495	278.69
691.684	213.16
691.874	178.34
692.063	254.12
692.252	395.43
692.442	286.89
692.631	245.93
692.82	250.02
693.01	346.28
693.199	252.07
693.388	270.5
693.578	286.89
693.767	331.94
693.956	350.37
694.146	164.01
694.335	284.84
694.524	202.92
694.713	293.03
694.902	198.82
695.092	229.54
695.281	272.55
695.47	239.78
695.659	153.77
695.848	204.97
696.037	151.72
696.226	313.51
696.415	235.69
696.604	456.87
696.793	364.71
696.982	225.45
697.171	430.24
697.36	286.89
697.549	241.83
697.738	157.86
697.927	194.73
698.116	153.77
698.305	286.89
698.494	336.04
698.683	258.21
698.872	364.71
699.061	241.83
699.25	180.39
699.438	223.4
699.627	215.21
699.816	405.67
700.005	141.48
700.193	297.13
700.382	329.89
700.571	209.06
700.76	274.6
700.948	262.31
701.137	237.74
701.326	364.71
701.514	137.38
701.703	311.46
701.892	280.74
702.08	391.33
702.269	245.93
702.457	180.39
702.646	223.4
702.834	276.65
703.023	323.75
703.212	315.56
703.4	233.64
703.589	196.78
703.777	258.21
703.965	262.31
704.154	155.82
704.342	161.96
704.531	278.69
704.719	290.98
704.907	245.93
705.096	155.82
705.284	174.25
705.472	284.84
705.661	299.17
705.849	254.12
706.037	323.75
706.226	260.26
706.414	278.69
706.602	207.02
706.79	231.59
706.979	157.86
707.167	315.56
707.355	141.48
707.543	295.08
707.731	372.9
707.919	262.31
708.107	231.59
708.296	254.12
708.484	133.29
708.672	268.45
708.86	200.87
709.048	268.45
709.236	143.53
709.424	225.45
709.612	303.27
709.8	92.33
709.988	219.3
710.176	313.51
710.364	368.81
710.551	172.2
710.739	196.78
710.927	239.78
711.115	264.36
711.303	364.71
711.491	299.17
711.679	256.17
711.866	260.26
712.054	202.92
712.242	229.54
712.43	258.21
712.617	303.27
712.805	276.65
712.993	225.45
713.181	145.58
713.368	325.8
713.556	221.35
713.744	288.93
713.931	372.9
714.119	333.99
714.306	188.58
714.494	188.58
714.682	215.21
714.869	153.77
715.057	243.88
715.244	61.61
715.432	266.41
715.619	149.67
715.807	217.26
715.994	196.78
716.182	219.3
716.369	301.22
716.556	233.64
716.744	94.38
716.931	198.82
717.119	266.41
717.306	221.35
717.493	329.89
717.681	151.72
717.868	176.3
718.055	336.04
718.242	178.34
718.43	219.3
718.617	311.46
718.804	204.97
718.991	295.08
719.179	280.74
719.366	286.89
719.553	327.85
719.74	219.3
719.927	141.48
720.114	227.5
720.301	157.86
720.488	180.39
720.676	221.35
720.863	360.61
721.05	399.52
721.237	229.54
721.424	217.26
721.611	262.31
721.798	127.14
721.985	182.44
722.172	221.35
722.358	204.97
722.545	329.89
722.732	266.41
722.919	346.28
723.106	303.27
723.293	235.69
723.48	282.79
723.667	258.21
723.853	278.69
724.04	307.37
724.227	309.41
724.414	239.78
724.6	288.93
724.787	424.1
724.974	411.81
725.161	213.16
725.347	151.72
725.534	319.65
725.72	336.04
725.907	338.09
726.094	243.88
726.28	229.54
726.467	237.74
726.653	139.43
726.84	295.08
727.027	450.72
727.213	256.17
727.4	331.94
727.586	290.98
727.773	309.41
727.959	235.69
728.145	325.8
728.332	303.27
728.518	229.54
728.705	366.76
728.891	188.58
729.077	233.64
729.264	233.64
729.45	284.84
729.636	389.28
729.823	342.18
730.009	368.81
730.195	252.07
730.382	293.03
730.568	207.02
730.754	299.17
730.94	307.37
731.126	295.08
731.313	254.12
731.499	274.6
731.685	372.9
731.871	336.04
732.057	321.7
732.243	286.89
732.429	305.32
732.615	362.66
732.801	405.67
732.987	325.8
733.173	336.04
733.359	311.46
733.545	264.36
733.731	237.74
733.917	399.52
734.103	272.55
734.289	327.85
734.475	264.36
734.661	360.61
734.847	235.69
735.033	213.16
735.219	340.13
735.404	235.69
735.59	211.11
735.776	231.59
735.962	387.24
736.148	301.22
736.333	350.37
736.519	342.18
736.705	352.42
736.89	262.31
737.076	313.51
737.262	256.17
737.447	272.55
737.633	303.27
737.819	403.62
738.004	239.78
738.19	319.65
738.375	385.19
738.561	323.75
738.747	301.22
738.932	270.5
739.118	436.39
739.303	280.74
739.489	401.57
739.674	247.97
739.859	196.78
740.045	368.81
740.23	358.57
740.416	192.68
740.601	288.93
740.786	336.04
740.972	338.09
741.157	243.88
741.342	194.73
741.528	188.58
741.713	436.39
741.898	270.5
742.084	348.33
742.269	268.45
742.454	397.48
742.639	348.33
742.824	317.61
743.01	379.04
743.195	426.15
743.38	336.04
743.565	309.41
743.75	311.46
743.935	391.33
744.12	368.81
744.305	278.69
744.49	213.16
744.675	321.7
744.86	252.07
745.045	225.45
745.23	321.7
745.415	290.98
745.6	413.86
745.785	227.5
745.97	313.51
746.155	288.93
746.34	313.51
746.525	282.79
746.71	403.62
746.895	186.54
747.079	170.15
747.264	204.97
747.449	284.84
747.634	315.56
747.819	338.09
748.003	268.45
748.188	182.44
748.373	288.93
748.557	266.41
748.742	227.5
748.927	356.52
749.111	219.3
749.296	207.02
749.481	260.26
749.665	241.83
749.85	106.67
750.034	276.65
750.219	237.74
750.404	170.15
750.588	243.88
750.773	192.68
750.957	188.58
751.141	231.59
751.326	340.13
751.51	176.3
751.695	231.59
751.879	198.82
752.064	319.65
752.248	272.55
752.432	372.9
752.617	333.99
752.801	219.3
752.985	295.08
753.17	256.17
753.354	262.31
753.538	219.3
753.722	192.68
753.907	159.91
754.091	176.3
754.275	299.17
754.459	114.86
754.643	125.1
754.828	221.35
755.012	178.34
755.196	129.19
755.38	217.26
755.564	143.53
755.748	188.58
755.932	254.12
756.116	231.59
756.3	219.3
756.484	123.05
756.668	258.21
756.852	147.62
757.036	157.86
757.22	184.49
757.404	104.62
757.588	118.95
757.772	237.74
757.956	178.34
758.14	315.56
758.323	75.95
758.507	233.64
758.691	106.67
758.875	282.79
759.059	172.2
759.242	157.86
759.426	215.21
759.61	184.49
759.794	151.72
759.977	184.49
760.161	344.23
760.345	217.26
760.528	211.11
760.712	168.1
760.895	133.29
761.079	231.59
761.263	116.9
761.446	141.48
761.63	141.48
761.813	215.21
761.997	69.8
762.18	114.86
762.364	221.35
762.547	47.27
762.731	213.16
762.914	182.44
763.098	98.47
763.281	153.77
763.464	-1.88
763.648	141.48
763.831	188.58
764.015	112.81
764.198	225.45
764.381	96.43
764.564	170.15
764.748	123.05
764.931	100.52
765.114	57.51
765.297	159.91
765.481	-32.6
765.664	53.42
765.847	65.71
766.03	170.15
766.213	75.95
766.397	114.86
766.58	43.18
766.763	153.77
766.946	43.18
767.129	80.04
767.312	67.75
767.495	67.75
767.678	65.71
767.861	149.67
768.044	139.43
768.227	94.38
768.41	116.9
768.593	37.03
768.776	164.01
768.959	73.9
769.142	200.87
769.324	92.33
769.507	100.52
769.69	71.85
769.873	67.75
770.056	305.32
770.239	55.47
770.421	184.49
770.604	121
770.787	69.8
770.97	147.62
771.152	20.65
771.335	164.01
771.518	55.47
771.7	159.91
771.883	176.3
772.066	65.71
772.248	147.62
772.431	180.39
772.613	170.15
772.796	65.71
772.978	159.91
773.161	305.32
773.343	43.18
773.526	86.19
773.708	-12.12
773.891	-16.21
774.073	22.7
774.256	73.9
774.438	164.01
774.621	22.7
774.803	75.95
774.985	14.51
775.168	53.42
775.35	57.51
775.532	151.72
775.715	14.51
775.897	75.95
776.079	30.89
776.261	84.14
776.444	147.62
776.626	6.31
776.808	53.42
776.99	14.51
777.173	84.14
777.355	39.08
777.537	73.9
777.719	123.05
777.901	71.85
778.083	49.32
778.265	32.94
778.447	80.04
778.629	14.51
778.811	26.79
778.993	82.09
779.175	241.83
779.357	139.43
779.539	18.6
779.721	106.67
779.903	98.47
780.085	112.81
780.267	106.67
780.449	67.75
780.631	108.71
780.812	112.81
780.994	106.67
781.176	20.65
781.358	32.94
781.54	63.66
781.721	32.94
781.903	84.14
782.085	49.32
782.267	166.06
782.448	-71.51
782.63	41.13
782.812	67.75
782.993	73.9
783.175	121
783.357	16.55
783.538	88.23
783.72	-30.55
783.901	22.7
784.083	125.1
784.264	104.62
784.446	-46.93
784.627	-28.5
784.809	10.41
784.99	6.31
785.172	104.62
785.353	67.75
785.535	43.18
785.716	12.46
785.897	-38.74
786.079	41.13
786.26	-3.93
786.441	49.32
786.623	-79.7
786.804	82.09
786.985	-53.08
787.167	88.23
787.348	-18.26
787.529	12.46
787.71	174.25
787.891	94.38
788.073	-5.97
788.254	-48.98
788.435	149.67
788.616	39.08
788.797	-3.93
788.978	-1.88
789.159	37.03
789.34	69.8
789.522	28.84
789.703	22.7
789.884	30.89
790.065	86.19
790.246	125.1
790.427	-28.5
790.607	164.01
790.788	69.8
790.969	-14.17
791.15	53.42
791.331	10.41
791.512	69.8
791.693	-51.03
791.874	-10.07
792.054	227.5
792.235	71.85
792.416	-12.12
792.597	-32.6
792.778	135.34
792.958	51.37
793.139	6.31
793.32	10.41
793.5	-28.5
793.681	104.62
793.862	71.85
794.042	22.7
794.223	-87.89
794.404	139.43
794.584	-42.84
794.765	-5.97
794.945	12.46
795.126	116.9
795.306	16.55
795.487	-53.08
795.667	20.65
795.848	61.61
796.028	22.7
796.209	-22.36
796.389	88.23
796.57	-20.31
796.75	-63.32
796.93	71.85
797.111	-5.97
797.291	-1.88
797.471	24.75
797.652	-14.17
797.832	67.75
798.012	123.05
798.192	16.55
798.373	-110.42
798.553	-1.88
798.733	49.32
798.913	-57.17
799.093	28.84
799.274	71.85
799.454	80.04
799.634	86.19
799.814	123.05
799.994	30.89
800.174	94.38
800.354	-14.17
800.534	-59.22
800.714	77.99
800.894	12.46
801.074	-96.08
801.254	-5.97
801.434	28.84
801.614	-61.27
801.794	2.22
801.974	1839.25
802.154	-28.5
802.334	67.75
802.514	-112.47
802.693	20.65
802.873	-24.4
803.053	159.91
803.233	-14.17
803.413	-14.17
803.592	4.27
803.772	-53.08
803.952	-10.07
804.131	20.65
804.311	114.86
804.491	34.99
804.67	-85.84
804.85	-46.93
805.03	18.6
805.209	96.43
805.389	16.55
805.568	-34.64
805.748	-34.64
805.928	16.55
806.107	69.8
806.287	80.04
806.466	2.22
806.646	-18.26
806.825	69.8
807.004	14.51
807.184	18.6
807.363	53.42
807.543	-1.88
807.722	-110.42
807.901	139.43
808.081	34.99
808.26	-67.41
808.439	24.75
808.619	-5.97
808.798	30.89
808.977	-16.21
809.156	55.47
809.336	-3.93
809.515	41.13
809.694	-96.08
809.873	-26.45
810.052	39.08
810.231	110.76
810.411	53.42
810.59	145.58
810.769	12.46
810.948	16.55
811.127	12.46
811.306	-26.45
811.485	-77.65
811.664	92.33
811.843	4.27
812.022	-14.17
812.201	-26.45
812.38	10.41
812.559	-14.17
812.737	75.95
812.916	-108.37
813.095	-5.97
813.274	-14.17
813.453	-24.4
813.632	10.41
813.811	73.9
813.989	-85.84
814.168	6.31
814.347	-26.45
814.526	24.75
814.704	57.51
814.883	65.71
815.062	-71.51
815.24	114.86
815.419	-42.84
815.598	8.36
815.776	-104.28
815.955	-42.84
816.133	-104.28
816.312	8.36
816.49	-87.89
816.669	-1.88
816.847	-87.89
817.026	73.9
817.204	18.6
817.383	-1.88
817.561	-57.17
817.74	20.65
817.918	-51.03
818.097	-73.56
818.275	-38.74
818.453	98.47
818.632	69.8
818.81	6.31
818.988	-85.84
819.167	-22.36
819.345	-1.88
819.523	-36.69
819.701	39.08
819.879	2.22
820.058	-71.51
820.236	51.37
820.414	-65.36
820.592	-96.08
820.77	-20.31
820.948	-55.12
821.127	-32.6
821.305	51.37
821.483	-46.93
821.661	47.27
821.839	6.31
822.017	6.31
822.195	-5.97
822.373	125.1
822.551	-8.02
822.729	49.32
822.907	-48.98
823.085	47.27
823.262	-5.97
823.44	-16.21
823.618	45.23
823.796	0.17
823.974	-3.93
824.152	-87.89
824.329	-10.07
824.507	-26.45
824.685	112.81
824.863	16.55
825.04	26.79
825.218	-28.5
825.396	39.08
825.574	-8.02
825.751	-3.93
825.929	127.14
826.107	-40.79
826.284	-18.26
826.462	-5.97
826.639	-42.84
826.817	-22.36
826.994	-3.93
827.172	-40.79
827.349	112.81
827.527	14.51
827.704	-24.4
827.882	84.14
828.059	28.84
828.237	-48.98
828.414	75.95
828.591	-96.08
828.769	-20.31
828.946	-73.56
829.124	63.66
829.301	57.51
829.478	-57.17
829.655	59.56
829.833	-24.4
830.01	-128.85
830.187	53.42
830.364	-42.84
830.542	18.6
830.719	200.87
830.896	22.7
831.073	-24.4
831.25	-22.36
831.427	69.8
831.604	10.41
831.782	-63.32
831.959	-24.4
832.136	0.17
832.313	-61.27
832.49	30.89
832.667	-16.21
832.844	-61.27
833.021	24.75
833.198	28.84
833.374	18.6
833.551	-32.6
833.728	-1.88
833.905	57.51
834.082	-102.23
834.259	47.27
834.436	192.68
834.612	-116.56
834.789	57.51
834.966	24.75
835.143	-5.97
835.319	-89.94
835.496	37.03
835.673	-12.12
835.85	161.96
836.026	108.71
836.203	34.99
836.38	-77.65
836.556	-51.03
836.733	24.75
836.909	110.76
837.086	-1.88
837.262	-149.33
837.439	-55.12
837.616	-102.23
837.792	2.22
837.968	-28.5
838.145	-116.56
838.321	-32.6
838.498	32.94
838.674	108.71
838.851	92.33
839.027	-102.23
839.203	26.79
839.38	55.47
839.556	16.55
839.732	34.99
839.909	10.41
840.085	69.8
840.261	-1.88
840.437	57.51
840.614	4.27
840.79	69.8
840.966	84.14
841.142	10.41
841.318	18.6
841.494	121
841.671	43.18
841.847	-69.46
842.023	-57.17
842.199	80.04
842.375	77.99
842.551	-57.17
842.727	-71.51
842.903	102.57
843.079	-63.32
843.255	80.04
843.431	-102.23
843.607	49.32
843.783	-225.11
843.959	47.27
844.134	-69.46
844.31	92.33
844.486	-75.6
844.662	-48.98
844.838	14.51
845.013	45.23
845.189	59.56
845.365	59.56
845.541	24.75
845.716	-36.69
845.892	43.18
846.068	-94.04
846.244	-46.93
846.419	-5.97
846.595	-59.22
846.77	-46.93
846.946	49.32
847.122	-83.8
847.297	-32.6
847.473	110.76
847.648	-83.8
847.824	61.61
847.999	-106.32
848.175	2.22
848.35	114.86
848.526	84.14
848.701	96.43
848.876	51.37
849.052	53.42
849.227	-18.26
849.403	-53.08
849.578	28.84
849.753	39.08
849.929	57.51
850.104	-63.32
850.279	24.75
850.454	61.61
850.63	37.03
850.805	20.65
850.98	-34.64
851.155	-48.98
851.33	20.65
851.505	-77.65
851.681	90.28
851.856	0.17
852.031	-3.93
852.206	-12.12
852.381	-94.04
852.556	-69.46
852.731	-12.12
852.906	61.61
853.081	24.75
853.256	192.68
853.431	6.31
853.606	-36.69
853.781	-89.94
853.956	-100.18
854.131	10.41
854.305	14.51
854.48	-153.43
854.655	-87.89
854.83	-118.61
855.005	-26.45
855.18	43.18
855.354	-73.56
855.529	14.51
855.704	-18.26
855.879	-12.12
856.053	-71.51
856.228	8.36
856.403	-28.5
856.577	-36.69
856.752	-79.7
856.926	6.31
857.101	-40.79
857.276	-67.41
857.45	8.36
857.625	65.71
857.799	30.89
857.974	-51.03
858.148	-145.24
858.323	-16.21
858.497	43.18
858.672	-46.93
858.846	24.75
859.02	57.51
859.195	-73.56
859.369	-55.12
859.543	16.55
859.718	55.47
859.892	-38.74
860.066	41.13
860.241	-24.4
860.415	-104.28
860.589	-30.55
860.763	-40.79
860.938	-8.02
861.112	45.23
861.286	-51.03
861.46	12.46
861.634	-32.6
861.808	86.19
861.982	-71.51
862.157	-141.14
862.331	14.51
862.505	-22.36
862.679	-73.56
862.853	-71.51
863.027	-71.51
863.201	129.19
863.375	-38.74
863.549	20.65
863.722	12.46
863.896	43.18
864.07	-63.32
864.244	-30.55
864.418	16.55
864.592	18.6
864.766	59.56
864.939	20.65
865.113	-63.32
865.287	61.61
865.461	-83.8
865.634	-14.17
865.808	-20.31
865.982	-79.7
866.156	-30.55
866.329	-126.8
866.503	-46.93
866.676	110.76
866.85	30.89
867.024	-71.51
867.197	67.75
867.371	22.7
867.544	-22.36
867.718	-104.28
867.891	59.56
868.065	-124.76
868.238	-28.5
868.412	24.75
868.585	-30.55
868.759	-20.31
868.932	-1.88
869.105	-53.08
869.279	-12.12
869.452	-51.03
869.625	-8.02
869.799	39.08
869.972	-67.41
870.145	-81.75
870.319	49.32
870.492	-51.03
870.665	-26.45
870.838	-110.42
871.011	-100.18
871.185	14.51
871.358	-40.79
871.531	75.95
871.704	49.32
871.877	-51.03
872.05	-38.74
872.223	-100.18
872.396	75.95
872.569	26.79
872.742	-175.95
872.915	94.38
873.088	18.6
873.261	-75.6
873.434	71.85
873.607	-89.94
873.78	34.99
873.953	-114.52
874.126	-20.31
874.299	18.6
874.471	-34.64
874.644	-16.21
874.817	47.27
874.99	110.76
875.163	-3.93
875.335	28.84
875.508	-30.55
875.681	100.52
875.853	-34.64
876.026	-5.97
876.199	57.51
876.371	22.7
876.544	-40.79
876.717	2.22
876.889	6.31
877.062	-12.12
877.234	-18.26
877.407	-112.47
877.579	-24.4
877.752	47.27
877.924	47.27
878.097	-8.02
878.269	110.76
878.442	14.51
878.614	41.13
878.786	-30.55
878.959	41.13
879.131	47.27
879.303	-178
879.476	-44.88
879.648	61.61
879.82	-18.26
879.993	-112.47
880.165	-55.12
880.337	-67.41
880.509	-65.36
880.681	-132.95
880.854	-102.23
881.026	-20.31
881.198	151.72
881.37	-8.02
881.542	-91.99
881.714	-51.03
881.886	0.17
882.058	-40.79
882.23	-10.07
882.402	2.22
882.574	-8.02
882.746	102.57
882.918	135.34
883.09	28.84
883.262	6.31
883.434	-18.26
883.606	-159.57
883.778	-85.84
883.95	147.62
884.122	-32.6
884.293	92.33
884.465	63.66
884.637	94.38
884.809	-53.08
884.98	55.47
885.152	73.9
885.324	57.51
885.496	-89.94
885.667	-1.88
885.839	-59.22
886.011	100.52
886.182	34.99
886.354	55.47
886.525	-30.55
886.697	-69.46
886.869	-30.55
887.04	-44.88
887.212	116.9
887.383	131.24
887.555	-38.74
887.726	-14.17
887.897	-8.02
888.069	14.51
888.24	69.8
888.412	12.46
888.583	-42.84
888.754	10.41
888.926	-141.14
889.097	-44.88
889.268	-83.8
889.44	-12.12
889.611	-44.88
889.782	-87.89
889.953	-32.6
890.125	118.95
890.296	-120.66
890.467	-38.74
890.638	-22.36
890.809	14.51
890.98	-18.26
891.151	-8.02
891.323	65.71
891.494	4.27
891.665	-1.88
891.836	22.7
892.007	22.7
892.178	32.94
892.349	-16.21
892.52	-48.98
892.691	-10.07
892.862	-55.12
893.032	-73.56
893.203	-22.36
893.374	45.23
893.545	26.79
893.716	-24.4
893.887	45.23
894.057	-89.94
894.228	-1.88
894.399	-51.03
894.57	71.85
894.74	10.41
894.911	37.03
895.082	10.41
895.253	-77.65
895.423	-18.26
895.594	-73.56
895.764	-26.45
895.935	-77.65
896.106	20.65
896.276	-61.27
896.447	-16.21
896.617	-89.94
896.788	-77.65
896.958	-87.89
897.129	-59.22
897.299	-24.4
897.47	12.46
897.64	65.71
897.81	-34.64
897.981	32.94
898.151	-61.27
898.322	51.37
898.492	104.62
898.662	-87.89
898.832	-24.4
899.003	-65.36
899.173	59.56
899.343	-132.95
899.513	-108.37
