Data from USB4F104151__286__11-21-04-129.txt Node

Date: Wed Feb 26 11:21:04 EST 2025
User: louis
Spectrometer: USB4F10415
Trigger mode: 4
Integration Time (sec): 1.000000E-1
Scans to average: 1
Electric dark correction enabled: true
Nonlinearity correction enabled: false
Boxcar width: 0
XAxis mode: Wavelengths
Number of Pixels in Spectrum: 3648
>>>>>Begin Spectral Data<<<<<
178.204	-306
178.424	-306
178.644	-306
178.864	-306
179.084	-432.97
179.304	-2.9
179.524	-31.57
179.744	-43.86
179.964	48.3
180.184	17.58
180.404	64.68
180.624	-23.38
180.844	-0.85
181.064	-97.11
181.283	81.07
181.503	-47.96
181.723	36.01
181.943	-109.4
182.163	175.27
182.383	38.06
182.602	40.11
182.822	203.94
183.042	29.87
183.262	-39.76
183.482	99.5
183.701	-4.95
183.921	95.4
184.141	7.34
184.361	138.41
184.58	169.13
184.8	13.48
185.02	1.19
185.239	97.45
185.459	64.68
185.679	162.98
185.898	-66.39
186.118	103.59
186.338	13.48
186.557	154.79
186.777	-25.43
186.997	9.39
187.216	58.54
187.436	152.74
187.655	38.06
187.875	89.26
188.095	27.82
188.314	167.08
188.534	70.83
188.753	13.48
188.973	136.36
189.192	173.22
189.412	25.77
189.631	-11.09
189.851	27.82
190.07	224.42
190.29	38.06
190.509	27.82
190.729	15.53
190.948	87.21
191.168	191.66
191.387	79.02
191.607	97.45
191.826	101.55
192.045	83.11
192.265	5.29
192.484	95.4
192.704	1.19
192.923	-9.05
193.142	85.16
193.362	148.65
193.581	148.65
193.8	19.63
194.02	156.84
194.239	58.54
194.458	117.93
194.678	68.78
194.897	21.67
195.116	76.97
195.335	83.11
195.555	126.12
195.774	44.2
195.993	119.98
196.212	44.2
196.432	-0.85
196.651	-2.9
196.87	31.91
197.089	162.98
197.308	54.44
197.528	124.07
197.747	66.73
197.966	5.29
198.185	165.03
198.404	-33.62
198.623	95.4
198.842	64.68
199.062	83.11
199.281	64.68
199.5	-2.9
199.719	140.46
199.938	126.12
200.157	29.87
200.376	103.59
200.595	136.36
200.814	54.44
201.033	-74.58
201.252	144.55
201.471	169.13
201.69	128.17
201.909	9.39
202.128	179.37
202.347	107.69
202.566	58.54
202.785	-82.77
203.004	-4.95
203.223	324.77
203.442	58.54
203.661	-17.24
203.879	40.11
204.098	70.83
204.317	25.77
204.536	152.74
204.755	93.35
204.974	93.35
205.193	29.87
205.411	144.55
205.63	144.55
205.849	99.5
206.068	52.39
206.287	-70.48
206.505	124.07
206.724	29.87
206.943	3.24
207.162	-15.19
207.381	27.82
207.599	15.53
207.818	21.67
208.037	-4.95
208.255	89.26
208.474	89.26
208.693	124.07
208.911	79.02
209.13	111.78
209.349	27.82
209.567	42.15
209.786	29.87
210.005	107.69
210.223	126.12
210.442	-84.82
210.661	-21.33
210.879	124.07
211.098	46.25
211.316	72.87
211.535	95.4
211.753	85.16
211.972	144.55
212.191	-50
212.409	38.06
212.628	111.78
212.846	1.19
213.065	46.25
213.283	58.54
213.502	15.53
213.72	113.83
213.938	-2.9
214.157	7.34
214.375	103.59
214.594	68.78
214.812	165.03
215.031	-11.09
215.249	-72.53
215.467	60.59
215.686	87.21
215.904	68.78
216.122	54.44
216.341	138.41
216.559	-13.14
216.778	95.4
216.996	165.03
217.214	38.06
217.432	38.06
217.651	-21.33
217.869	95.4
218.087	42.15
218.306	36.01
218.524	85.16
218.742	38.06
218.96	107.69
219.179	-4.95
219.397	99.5
219.615	203.94
219.833	54.44
220.051	-35.67
220.27	83.11
220.488	95.4
220.706	54.44
220.924	62.63
221.142	-2.9
221.36	76.97
221.578	23.72
221.796	36.01
222.015	17.58
222.233	113.83
222.451	158.89
222.669	-68.44
222.887	54.44
223.105	3.24
223.323	5.29
223.541	-35.67
223.759	-25.43
223.977	23.72
224.195	119.98
224.413	60.59
224.631	142.5
224.849	64.68
225.067	195.75
225.285	-41.81
225.503	-45.91
225.721	-78.68
225.939	58.54
226.157	79.02
226.375	271.53
226.592	36.01
226.81	-50
227.028	93.35
227.246	175.27
227.464	62.63
227.682	124.07
227.9	85.16
228.117	23.72
228.335	66.73
228.553	31.91
228.771	54.44
228.989	-54.1
229.206	117.93
229.424	5.29
229.642	95.4
229.86	46.25
230.077	124.07
230.295	58.54
230.513	87.21
230.731	103.59
230.948	177.32
231.166	156.84
231.384	-0.85
231.601	-9.05
231.819	181.42
232.037	-19.29
232.254	-27.48
232.472	1.19
232.689	-33.62
232.907	95.4
233.125	54.44
233.342	21.67
233.56	50.35
233.777	70.83
233.995	70.83
234.213	128.17
234.43	97.45
234.648	21.67
234.865	-7
235.083	11.43
235.3	95.4
235.518	95.4
235.735	183.46
235.953	60.59
236.17	76.97
236.388	64.68
236.605	11.43
236.822	142.5
237.04	89.26
237.257	85.16
237.475	-62.29
237.692	-0.85
237.909	83.11
238.127	7.34
238.344	91.31
238.562	36.01
238.779	9.39
238.996	5.29
239.214	113.83
239.431	152.74
239.648	38.06
239.865	128.17
240.083	83.11
240.3	87.21
240.517	76.97
240.735	21.67
240.952	162.98
241.169	95.4
241.386	99.5
241.603	23.72
241.821	-25.43
242.038	91.31
242.255	144.55
242.472	-52.05
242.689	93.35
242.907	42.15
243.124	109.74
243.341	44.2
243.558	-64.34
243.775	-35.67
243.992	-45.91
244.209	134.31
244.426	181.42
244.643	119.98
244.86	11.43
245.078	89.26
245.295	68.78
245.512	23.72
245.729	-37.72
245.946	81.07
246.163	62.63
246.38	40.11
246.597	115.88
246.814	62.63
247.031	13.48
247.248	54.44
247.464	76.97
247.681	50.35
247.898	52.39
248.115	101.55
248.332	-31.57
248.549	173.22
248.766	113.83
248.983	56.49
249.2	89.26
249.417	109.74
249.633	7.34
249.85	115.88
250.067	58.54
250.284	93.35
250.501	50.35
250.717	68.78
250.934	-17.24
251.151	60.59
251.368	60.59
251.585	44.2
251.801	79.02
252.018	-43.86
252.235	109.74
252.451	-0.85
252.668	3.24
252.885	158.89
253.102	19.63
253.318	36.01
253.535	-13.14
253.752	7.34
253.968	19.63
254.185	38.06
254.401	9.39
254.618	111.78
254.835	13.48
255.051	66.73
255.268	109.74
255.484	109.74
255.701	62.63
255.917	21.67
256.134	-23.38
256.351	154.79
256.567	21.67
256.784	19.63
257	-33.62
257.217	130.22
257.433	199.85
257.65	68.78
257.866	138.41
258.082	-93.01
258.299	-27.48
258.515	115.88
258.732	3.24
258.948	-33.62
259.165	23.72
259.381	-7
259.597	70.83
259.814	-15.19
260.03	99.5
260.246	56.49
260.463	64.68
260.679	113.83
260.895	15.53
261.112	97.45
261.328	29.87
261.544	-19.29
261.761	187.56
261.977	-84.82
262.193	-45.91
262.409	54.44
262.626	-19.29
262.842	60.59
263.058	-2.9
263.274	74.92
263.49	95.4
263.707	91.31
263.923	124.07
264.139	-37.72
264.355	87.21
264.571	140.46
264.787	83.11
265.004	109.74
265.22	54.44
265.436	-15.19
265.652	-7
265.868	109.74
266.084	-72.53
266.3	83.11
266.516	-74.58
266.732	103.59
266.948	1.19
267.164	-41.81
267.38	74.92
267.596	91.31
267.812	165.03
268.028	-23.38
268.244	5.29
268.46	56.49
268.676	79.02
268.892	130.22
269.108	70.83
269.324	-4.95
269.54	25.77
269.756	111.78
269.972	-13.14
270.188	33.96
270.403	-70.48
270.619	-7
270.835	56.49
271.051	70.83
271.267	97.45
271.483	15.53
271.698	70.83
271.914	101.55
272.13	5.29
272.346	-15.19
272.562	79.02
272.777	216.23
272.993	-9.05
273.209	-35.67
273.425	42.15
273.64	17.58
273.856	105.64
274.072	5.29
274.287	21.67
274.503	119.98
274.719	91.31
274.934	-13.14
275.15	-39.76
275.366	175.27
275.581	-50
275.797	-7
276.012	68.78
276.228	-33.62
276.444	38.06
276.659	181.42
276.875	-84.82
277.09	40.11
277.306	62.63
277.521	60.59
277.737	31.91
277.952	87.21
278.168	54.44
278.383	81.07
278.599	64.68
278.814	150.7
279.03	54.44
279.245	132.26
279.461	130.22
279.676	21.67
279.892	-52.05
280.107	-4.95
280.322	-41.81
280.538	105.64
280.753	-47.96
280.969	66.73
281.184	79.02
281.399	162.98
281.615	33.96
281.83	-21.33
282.045	13.48
282.26	-33.62
282.476	74.92
282.691	99.5
282.906	91.31
283.122	46.25
283.337	81.07
283.552	76.97
283.767	5.29
283.983	109.74
284.198	15.53
284.413	76.97
284.628	-50
284.843	122.02
285.058	101.55
285.274	13.48
285.489	-47.96
285.704	140.46
285.919	52.39
286.134	1.19
286.349	21.67
286.564	17.58
286.779	109.74
286.995	83.11
287.21	-103.25
287.425	93.35
287.64	31.91
287.855	105.64
288.07	-70.48
288.285	171.18
288.5	150.7
288.715	62.63
288.93	-27.48
289.145	-2.9
289.36	144.55
289.575	54.44
289.79	156.84
290.004	29.87
290.219	101.55
290.434	-15.19
290.649	52.39
290.864	46.25
291.079	11.43
291.294	66.73
291.509	117.93
291.724	68.78
291.938	85.16
292.153	113.83
292.368	-70.48
292.583	60.59
292.798	19.63
293.012	33.96
293.227	89.26
293.442	91.31
293.657	66.73
293.871	169.13
294.086	95.4
294.301	183.46
294.516	148.65
294.73	95.4
294.945	-60.24
295.16	-19.29
295.374	50.35
295.589	128.17
295.804	-2.9
296.018	29.87
296.233	105.64
296.447	93.35
296.662	-56.15
296.877	181.42
297.091	62.63
297.306	46.25
297.52	64.68
297.735	38.06
297.949	119.98
298.164	81.07
298.378	-9.05
298.593	-23.38
298.807	-0.85
299.022	44.2
299.236	148.65
299.451	85.16
299.665	42.15
299.88	36.01
300.094	58.54
300.309	31.91
300.523	74.92
300.737	38.06
300.952	87.21
301.166	-2.9
301.381	-11.09
301.595	40.11
301.809	21.67
302.024	-45.91
302.238	13.48
302.452	50.35
302.667	23.72
302.881	146.6
303.095	152.74
303.309	111.78
303.524	5.29
303.738	-37.72
303.952	42.15
304.166	62.63
304.381	-2.9
304.595	169.13
304.809	21.67
305.023	7.34
305.237	27.82
305.452	95.4
305.666	29.87
305.88	113.83
306.094	54.44
306.308	44.2
306.522	91.31
306.736	126.12
306.95	154.79
307.164	48.3
307.379	-15.19
307.593	171.18
307.807	165.03
308.021	142.5
308.235	50.35
308.449	-62.29
308.663	17.58
308.877	259.24
309.091	-25.43
309.305	83.11
309.519	-101.2
309.733	146.6
309.947	-105.3
310.161	97.45
310.374	115.88
310.588	136.36
310.802	-23.38
311.016	-23.38
311.23	113.83
311.444	7.34
311.658	23.72
311.872	152.74
312.085	173.22
312.299	126.12
312.513	171.18
312.727	115.88
312.941	-0.85
313.154	58.54
313.368	105.64
313.582	19.63
313.796	113.83
314.009	62.63
314.223	154.79
314.437	87.21
314.651	107.69
314.864	-9.05
315.078	103.59
315.292	-35.67
315.505	19.63
315.719	105.64
315.933	66.73
316.146	-41.81
316.36	1.19
316.573	167.08
316.787	113.83
317.001	56.49
317.214	-60.24
317.428	38.06
317.641	-90.96
317.855	13.48
318.068	76.97
318.282	95.4
318.495	148.65
318.709	132.26
318.922	29.87
319.136	138.41
319.349	175.27
319.563	-13.14
319.776	111.78
319.99	-62.29
320.203	111.78
320.417	27.82
320.63	119.98
320.843	115.88
321.057	-11.09
321.27	-0.85
321.483	140.46
321.697	197.8
321.91	-0.85
322.124	124.07
322.337	93.35
322.55	76.97
322.763	122.02
322.977	52.39
323.19	-9.05
323.403	27.82
323.617	134.31
323.83	136.36
324.043	46.25
324.256	52.39
324.469	-88.92
324.683	136.36
324.896	79.02
325.109	52.39
325.322	-72.53
325.535	126.12
325.748	74.92
325.962	93.35
326.175	56.49
326.388	99.5
326.601	83.11
326.814	-41.81
327.027	50.35
327.24	105.64
327.453	-125.78
327.666	1.19
327.879	79.02
328.092	87.21
328.305	87.21
328.518	81.07
328.731	62.63
328.944	13.48
329.157	15.53
329.37	-2.9
329.583	183.46
329.796	99.5
330.009	-31.57
330.222	107.69
330.435	38.06
330.648	1.19
330.861	109.74
331.073	89.26
331.286	169.13
331.499	54.44
331.712	-31.57
331.925	31.91
332.138	27.82
332.35	126.12
332.563	-0.85
332.776	191.66
332.989	-56.15
333.202	27.82
333.414	-13.14
333.627	46.25
333.84	40.11
334.053	109.74
334.265	3.24
334.478	29.87
334.691	-4.95
334.903	107.69
335.116	23.72
335.329	58.54
335.541	46.25
335.754	226.47
335.966	58.54
336.179	126.12
336.392	-41.81
336.604	7.34
336.817	103.59
337.029	15.53
337.242	52.39
337.454	158.89
337.667	66.73
337.88	167.08
338.092	113.83
338.305	60.59
338.517	23.72
338.729	160.94
338.942	165.03
339.154	-13.14
339.367	-17.24
339.579	99.5
339.792	21.67
340.004	113.83
340.217	-21.33
340.429	76.97
340.641	-23.38
340.854	5.29
341.066	48.3
341.278	113.83
341.491	162.98
341.703	46.25
341.915	-62.29
342.128	74.92
342.34	74.92
342.552	-13.14
342.764	66.73
342.977	72.87
343.189	167.08
343.401	85.16
343.613	-43.86
343.826	191.66
344.038	-33.62
344.25	115.88
344.462	-9.05
344.674	23.72
344.886	87.21
345.099	72.87
345.311	111.78
345.523	-35.67
345.735	-23.38
345.947	83.11
346.159	111.78
346.371	-11.09
346.583	31.91
346.795	214.18
347.007	46.25
347.219	81.07
347.431	21.67
347.643	79.02
347.855	1.19
348.067	148.65
348.279	-17.24
348.491	-4.95
348.703	105.64
348.915	7.34
349.127	-35.67
349.339	85.16
349.551	19.63
349.763	70.83
349.975	103.59
350.187	128.17
350.399	132.26
350.61	62.63
350.822	91.31
351.034	87.21
351.246	105.64
351.458	117.93
351.669	50.35
351.881	105.64
352.093	144.55
352.305	103.59
352.517	91.31
352.728	156.84
352.94	99.5
353.152	76.97
353.363	-4.95
353.575	62.63
353.787	150.7
353.999	109.74
354.21	214.18
354.422	-99.16
354.633	-13.14
354.845	56.49
355.057	60.59
355.268	38.06
355.48	119.98
355.692	19.63
355.903	85.16
356.115	-11.09
356.326	-138.07
356.538	105.64
356.749	107.69
356.961	175.27
357.172	31.91
357.384	-62.29
357.595	152.74
357.807	-37.72
358.018	1.19
358.23	87.21
358.441	158.89
358.653	46.25
358.864	15.53
359.075	-4.95
359.287	42.15
359.498	95.4
359.709	56.49
359.921	-17.24
360.132	15.53
360.344	76.97
360.555	1.19
360.766	79.02
360.977	31.91
361.189	48.3
361.4	27.82
361.611	128.17
361.823	132.26
362.034	105.64
362.245	7.34
362.456	58.54
362.667	99.5
362.879	5.29
363.09	68.78
363.301	95.4
363.512	132.26
363.723	-60.24
363.935	-31.57
364.146	101.55
364.357	21.67
364.568	132.26
364.779	-13.14
364.99	193.7
365.201	-15.19
365.412	105.64
365.623	-33.62
365.834	144.55
366.045	93.35
366.256	83.11
366.467	113.83
366.678	15.53
366.889	25.77
367.1	25.77
367.311	130.22
367.522	38.06
367.733	17.58
367.944	58.54
368.155	33.96
368.366	99.5
368.577	119.98
368.788	74.92
368.999	33.96
369.209	48.3
369.42	236.71
369.631	226.47
369.842	128.17
370.053	27.82
370.264	85.16
370.474	13.48
370.685	58.54
370.896	95.4
371.107	142.5
371.317	99.5
371.528	5.29
371.739	117.93
371.95	72.87
372.16	134.31
372.371	-15.19
372.582	36.01
372.792	101.55
373.003	93.35
373.214	48.3
373.424	44.2
373.635	-27.48
373.846	195.75
374.056	72.87
374.267	64.68
374.477	103.59
374.688	-39.76
374.898	31.91
375.109	36.01
375.319	42.15
375.53	95.4
375.74	138.41
375.951	17.58
376.161	70.83
376.372	124.07
376.582	-52.05
376.793	40.11
377.003	31.91
377.214	44.2
377.424	144.55
377.635	87.21
377.845	-0.85
378.055	142.5
378.266	-58.2
378.476	-7
378.686	111.78
378.897	50.35
379.107	74.92
379.317	52.39
379.528	-15.19
379.738	119.98
379.948	-76.63
380.158	124.07
380.369	44.2
380.579	44.2
380.789	36.01
380.999	122.02
381.21	162.98
381.42	296.1
381.63	33.96
381.84	140.46
382.05	97.45
382.261	136.36
382.471	150.7
382.681	3.24
382.891	107.69
383.101	101.55
383.311	15.53
383.521	-54.1
383.731	87.21
383.941	136.36
384.151	89.26
384.361	19.63
384.571	117.93
384.781	85.16
384.991	169.13
385.201	210.09
385.411	154.79
385.621	142.5
385.831	38.06
386.041	50.35
386.251	122.02
386.461	99.5
386.671	17.58
386.881	-43.86
387.091	58.54
387.301	97.45
387.511	13.48
387.72	48.3
387.93	87.21
388.14	17.58
388.35	89.26
388.56	109.74
388.769	117.93
388.979	64.68
389.189	31.91
389.399	124.07
389.609	93.35
389.818	89.26
390.028	70.83
390.238	101.55
390.447	-54.1
390.657	103.59
390.867	52.39
391.076	25.77
391.286	144.55
391.496	107.69
391.705	27.82
391.915	203.94
392.125	152.74
392.334	-9.05
392.544	160.94
392.753	21.67
392.963	5.29
393.172	101.55
393.382	38.06
393.591	109.74
393.801	48.3
394.01	158.89
394.22	79.02
394.429	36.01
394.639	7.34
394.848	152.74
395.058	56.49
395.267	38.06
395.477	169.13
395.686	101.55
395.895	171.18
396.105	189.61
396.314	52.39
396.524	5.29
396.733	40.11
396.942	95.4
397.152	101.55
397.361	117.93
397.57	109.74
397.78	-15.19
397.989	56.49
398.198	228.52
398.407	103.59
398.617	38.06
398.826	38.06
399.035	-11.09
399.244	119.98
399.453	91.31
399.663	25.77
399.872	33.96
400.081	13.48
400.29	136.36
400.499	-86.87
400.708	179.37
400.917	85.16
401.127	-41.81
401.336	89.26
401.545	195.75
401.754	150.7
401.963	81.07
402.172	1.19
402.381	15.53
402.59	3.24
402.799	29.87
403.008	185.51
403.217	70.83
403.426	52.39
403.635	3.24
403.844	54.44
404.053	79.02
404.262	33.96
404.471	109.74
404.68	25.77
404.888	83.11
405.097	27.82
405.306	72.87
405.515	136.36
405.724	23.72
405.933	191.66
406.142	91.31
406.35	181.42
406.559	29.87
406.768	62.63
406.977	205.99
407.185	107.69
407.394	66.73
407.603	-66.39
407.812	66.73
408.02	113.83
408.229	42.15
408.438	79.02
408.646	58.54
408.855	76.97
409.064	113.83
409.272	40.11
409.481	122.02
409.69	48.3
409.898	-2.9
410.107	99.5
410.315	115.88
410.524	-15.19
410.733	97.45
410.941	136.36
411.15	101.55
411.358	91.31
411.567	152.74
411.775	56.49
411.984	56.49
412.192	119.98
412.401	60.59
412.609	220.33
412.818	169.13
413.026	103.59
413.234	109.74
413.443	97.45
413.651	1.19
413.86	93.35
414.068	152.74
414.276	87.21
414.485	58.54
414.693	218.28
414.901	97.45
415.11	89.26
415.318	60.59
415.526	85.16
415.734	122.02
415.943	144.55
416.151	169.13
416.359	103.59
416.567	17.58
416.776	124.07
416.984	136.36
417.192	144.55
417.4	40.11
417.608	62.63
417.817	13.48
418.025	136.36
418.233	183.46
418.441	-25.43
418.649	13.48
418.857	101.55
419.065	193.7
419.273	70.83
419.481	111.78
419.689	97.45
419.897	-25.43
420.105	15.53
420.313	134.31
420.521	173.22
420.729	201.9
420.937	85.16
421.145	46.25
421.353	105.64
421.561	189.61
421.769	171.18
421.977	89.26
422.185	179.37
422.393	105.64
422.601	197.8
422.809	113.83
423.017	66.73
423.224	66.73
423.432	169.13
423.64	134.31
423.848	160.94
424.056	15.53
424.263	76.97
424.471	115.88
424.679	165.03
424.887	-37.72
425.094	218.28
425.302	85.16
425.51	23.72
425.718	171.18
425.925	93.35
426.133	23.72
426.341	203.94
426.548	138.41
426.756	99.5
426.964	115.88
427.171	38.06
427.379	144.55
427.586	91.31
427.794	105.64
428.001	156.84
428.209	48.3
428.417	201.9
428.624	199.85
428.832	197.8
429.039	117.93
429.247	156.84
429.454	132.26
429.662	269.48
429.869	113.83
430.076	169.13
430.284	222.38
430.491	218.28
430.699	187.56
430.906	199.85
431.114	240.81
431.321	173.22
431.528	205.99
431.736	222.38
431.943	191.66
432.15	224.42
432.358	212.14
432.565	292.01
432.772	97.45
432.979	275.62
433.187	173.22
433.394	214.18
433.601	136.36
433.808	244.9
434.016	273.57
434.223	345.25
434.43	330.92
434.637	326.82
434.844	240.81
435.052	296.1
435.259	361.64
435.466	332.97
435.673	335.01
435.88	355.49
436.087	455.84
436.294	453.8
436.501	433.32
436.708	316.58
436.915	347.3
437.122	423.08
437.329	365.73
437.537	439.46
437.743	421.03
437.95	500.9
438.157	482.47
438.364	439.46
438.571	558.24
438.778	568.48
438.985	541.86
439.192	607.39
439.399	511.14
439.606	515.23
439.813	588.96
440.02	740.51
440.227	847.01
440.433	717.98
440.64	668.83
440.847	664.74
441.054	726.18
441.261	793.76
441.467	789.66
441.674	767.13
441.881	760.99
442.088	763.04
442.294	933.02
442.501	941.21
442.708	971.93
442.914	978.08
443.121	1066.14
443.328	1109.15
443.534	1160.34
443.741	1094.81
443.948	1070.23
444.154	1307.8
444.361	1387.67
444.568	1356.95
444.774	1348.76
444.981	1272.98
445.187	1414.29
445.394	1406.1
445.6	1404.05
445.807	1686.67
446.013	1569.94
446.22	1674.39
446.426	1840.27
446.633	1879.18
446.839	2006.16
447.046	1827.98
447.252	2073.74
447.459	2057.36
447.665	2000.01
447.871	2309.26
448.078	2342.02
448.284	2411.65
448.491	2485.38
448.697	2698.37
448.903	2628.74
449.11	2835.58
449.316	2708.61
449.522	3013.76
449.728	3036.28
449.935	3071.1
450.141	3193.98
450.347	3458.17
450.553	3337.34
450.76	3378.3
450.966	3794.03
451.172	3667.06
451.378	4047.98
451.584	3959.92
451.791	4383.85
451.997	4265.07
452.203	4455.53
452.409	4709.47
452.615	4744.29
452.821	4748.39
453.027	4754.53
453.233	5565.53
453.44	5461.08
453.646	5520.47
453.852	5878.86
454.058	5846.1
454.264	6190.16
454.47	6466.63
454.676	6648.9
454.882	7033.92
455.088	6790.21
455.294	7128.13
455.5	7857.2
455.705	8145.97
455.911	8102.96
456.117	8422.44
456.323	8469.55
456.529	8641.57
456.735	9499.67
456.941	9636.89
457.147	10005.52
457.352	10226.7
457.558	10509.32
457.764	11529.21
457.97	11518.97
458.176	12055.54
458.381	12706.79
458.587	12811.24
458.793	13614.04
458.999	13319.14
459.204	15152.07
459.41	15590.33
459.616	15571.9
459.821	16569.26
460.027	17208.23
460.233	17904.54
460.438	17650.59
460.644	19344.26
460.85	19528.58
461.055	19794.81
461.261	21072.75
461.466	20624.24
461.672	21035.88
461.878	23655.23
462.083	23147.34
462.289	23753.54
462.494	24630.07
462.7	25060.14
462.905	24929.07
463.111	26997.52
463.316	28371.71
463.522	28914.42
463.727	29799.14
463.932	30825.17
464.138	32391.87
464.343	33069.75
464.549	33272.49
464.754	35797.64
464.959	36825.72
465.165	37225.07
465.37	37034.61
465.575	37112.44
465.781	39455.31
465.986	40778.3
466.191	40221.25
466.397	40780.35
466.602	39455.31
466.807	42035.75
467.012	42412.58
467.218	43096.6
467.423	43424.28
467.628	44730.88
467.833	46875.1
468.038	45992.43
468.244	44943.87
468.449	47399.38
468.654	46516.71
468.859	46273
469.064	46361.06
469.269	45642.23
469.474	46264.81
469.679	47639
469.885	46064.11
470.09	46496.23
470.295	46795.23
470.5	45427.19
470.705	46107.12
470.91	44995.07
471.115	44827.13
471.32	45087.23
471.525	44786.18
471.73	43559.44
471.935	43452.95
472.139	41509.43
472.344	42125.86
472.549	41499.19
472.754	40929.85
472.959	40012.36
473.164	38767.2
473.369	38234.72
473.574	38967.9
473.778	38167.14
473.983	37829.23
474.188	37075.57
474.393	35330.7
474.598	34925.21
474.802	34488.99
475.007	34364.06
475.212	33614.51
475.417	32312
475.621	31816.39
475.826	31988.42
476.031	31105.74
476.235	30372.57
476.44	30452.44
476.645	29518.57
476.849	29221.61
477.054	28951.28
477.259	28437.24
477.463	27910.91
477.668	27269.9
477.872	27464.46
478.077	26592.02
478.282	26032.93
478.486	25936.67
478.691	25441.06
478.895	25228.07
479.1	25010.99
479.304	24847.15
479.509	23853.89
479.713	24322.87
479.918	23767.87
480.122	23597.89
480.326	23501.64
480.531	23638.85
480.735	23124.81
480.94	22614.87
481.144	23624.51
481.348	22184.79
481.553	22274.9
481.757	21861.21
481.961	22006.62
482.166	22248.28
482.37	21623.65
482.574	21173.1
482.778	21672.8
482.983	21605.22
483.187	21242.73
483.391	21185.38
483.595	20829.04
483.8	20179.83
484.004	20394.87
484.208	20724.59
484.412	20315
484.616	19975.03
484.821	20044.66
485.025	19268.48
485.229	19225.48
485.433	18869.13
485.637	18932.62
485.841	18277.27
486.045	18410.39
486.249	18043.8
486.453	17669.02
486.657	17249.19
486.861	17496.99
487.065	16757.67
487.269	17028.01
487.473	16268.21
487.677	16540.59
487.881	16182.2
488.085	15801.27
488.289	15690.68
488.493	15207.36
488.697	15344.58
488.901	14955.46
489.105	14461.9
489.309	14273.49
489.512	14029.78
489.716	13804.5
489.92	13466.59
490.124	13241.31
490.328	13370.33
490.531	12946.41
490.735	12671.98
490.939	12465.13
491.143	12258.29
491.346	12022.77
491.55	11838.45
491.754	11715.58
491.958	11551.74
492.161	11127.81
492.365	11136
492.569	10892.29
492.772	10636.3
492.976	10593.29
493.18	10640.39
493.383	10445.84
493.587	10134.54
493.79	10122.26
493.994	9901.08
494.197	9804.82
494.401	9827.35
494.605	9640.98
494.808	9729.05
495.012	9438.23
495.215	9614.36
495.419	9526.3
495.622	9092.13
495.825	9276.45
496.029	9196.57
496.232	9430.04
496.436	9239.58
496.639	9255.97
496.843	9004.07
497.046	9188.38
497.249	9468.95
497.453	9065.5
497.656	9030.69
497.859	8891.43
498.063	9069.6
498.266	9262.11
498.469	9190.43
498.673	8922.15
498.876	9169.95
499.079	9192.48
499.282	9143.33
499.485	9511.96
499.689	9376.8
499.892	9554.97
500.095	9192.48
500.298	9501.72
500.501	9344.03
500.705	9731.09
500.908	9716.76
501.111	9524.25
501.314	9982.99
501.517	10019.86
501.72	10050.58
501.923	10011.67
502.126	10105.87
502.329	10435.6
502.532	10312.72
502.735	10302.48
502.938	10570.76
503.141	10644.49
503.344	10814.47
503.547	10761.22
503.75	11033.6
503.953	10988.55
504.156	11529.21
504.359	11443.2
504.562	11523.07
504.765	11906.04
504.968	11979.76
505.17	12356.59
505.373	12405.74
505.576	12583.91
505.779	12631.02
505.982	12735.46
506.185	13196.26
506.387	13241.31
506.59	13695.96
506.793	13652.95
506.996	13880.28
507.198	14371.79
507.401	14181.33
507.604	14779.34
507.807	14969.8
508.009	15283.14
508.212	15510.46
508.415	15686.59
508.617	16126.9
508.82	16481.2
509.022	16382.9
509.225	17343.39
509.428	17773.47
509.63	17734.56
509.833	17879.96
510.035	18697.1
510.238	18740.11
510.44	19266.44
510.643	19817.34
510.845	20261.75
511.048	20570.99
511.25	21005.16
511.453	21414.76
511.655	22463.32
511.858	22365.01
512.06	23008.08
512.262	23362.37
512.465	23442.24
512.667	24398.65
512.87	24890.16
513.072	25312.04
513.274	25869.09
513.477	26495.77
513.679	26872.59
513.881	28148.48
514.084	28224.25
514.286	28771.06
514.488	29041.39
514.69	30362.33
514.893	30661.33
515.095	31296.21
515.297	32154.3
515.499	32809.65
515.701	33266.35
515.904	33966.76
516.106	34785.94
516.308	35189.39
516.51	36268.67
516.712	36545.15
516.914	37194.36
517.116	38091.37
517.318	38720.09
517.52	39291.48
517.722	39647.82
517.925	40512.06
518.127	41765.42
518.329	42011.18
518.531	42291.75
518.733	43305.49
518.935	44157.45
519.136	44669.44
519.338	46012.91
519.54	45881.84
519.742	46696.93
519.944	47180.25
520.146	48462.28
520.348	48425.42
520.55	49263.03
520.752	49363.39
520.954	50962.85
521.155	50739.62
521.357	51517.85
521.559	52044.18
521.761	53311.87
521.963	52988.29
522.164	53201.28
522.366	53602.68
522.568	54554.99
522.77	54638.95
522.971	55372.13
523.173	55427.42
523.375	55716.18
523.576	55789.91
523.778	56084.82
523.98	56863.05
524.181	56994.12
524.383	56772.94
524.584	57416
524.786	57313.6
524.988	57655.61
525.189	57841.98
525.391	57602.36
525.592	57649.47
525.794	57553.21
525.995	57633.08
526.197	57332.03
526.398	57225.54
526.6	57868.6
526.801	57454.91
527.003	57035.08
527.204	57178.43
527.406	57041.22
527.607	56568.14
527.808	56889.67
528.01	55882.07
528.211	55882.07
528.412	56207.7
528.614	55370.08
528.815	55099.75
529.016	54839.65
529.218	54038.9
529.419	53651.83
529.62	53256.57
529.822	52951.43
530.023	52246.93
530.224	52078.99
530.425	51775.89
530.626	50854.31
530.828	50420.14
531.029	50489.77
531.23	49650.1
531.431	48183.76
531.632	48355.78
531.833	48001.49
532.035	46938.59
532.236	46461.41
532.437	46469.61
532.638	45472.24
532.839	45402.61
533.04	44679.68
533.241	43553.3
533.442	44177.93
533.643	43508.24
533.844	42117.67
534.045	41957.93
534.246	41251.38
534.447	41034.3
534.648	40176.2
534.849	39950.92
535.05	39062.1
535.251	38838.87
535.451	37997.16
535.652	37735.02
535.853	37145.2
536.054	36659.84
536.255	36326.02
536.456	35680.91
536.657	35629.71
536.857	35017.36
537.058	34382.49
537.259	33825.45
537.46	33266.35
537.66	32676.54
537.861	32582.33
538.062	31943.36
538.263	31742.66
538.463	30995.15
538.664	30894.8
538.865	30599.9
539.065	30323.42
539.266	29268.72
539.466	29557.48
539.667	28472.06
539.868	28848.88
540.068	28414.71
540.269	27919.1
540.469	27896.58
540.67	27679.49
540.87	27366.15
541.071	27009.81
541.271	26565.4
541.472	26118.94
541.672	26065.69
541.873	25609
542.073	24978.22
542.274	25385.77
542.474	24660.79
542.675	24365.88
542.875	24288.06
543.075	23843.65
543.276	23178.06
543.476	23814.98
543.676	23206.73
543.877	22676.3
544.077	22750.03
544.277	22270.81
544.478	22076.25
544.678	21910.36
544.878	21619.55
545.078	21392.23
545.279	21115.75
545.479	21003.11
545.679	20722.54
545.879	20261.75
546.079	20196.21
546.28	19833.72
546.48	19655.55
546.68	19696.51
546.88	19164.04
547.08	18899.85
547.28	18830.22
547.48	18148.25
547.68	18473.87
547.88	18084.76
548.081	17957.78
548.281	17839
548.481	17273.76
548.681	17210.28
548.881	17136.55
549.081	16999.34
549.28	16513.97
549.48	16411.57
549.68	15981.49
549.88	15940.54
550.08	15670.2
550.28	15547.33
550.48	15225.79
550.68	15088.58
550.88	14789.58
551.08	14488.53
551.279	14592.97
551.479	13999.06
551.679	14097.36
551.879	13620.19
552.079	13747.16
552.278	13368.29
552.478	13255.65
552.678	13042.66
552.878	12788.71
553.077	12723.18
553.277	12280.82
553.477	12456.94
553.676	12116.98
553.876	11764.73
554.076	11793.4
554.275	11584.51
554.475	11136
554.674	11103.23
554.874	10968.07
555.074	10793.99
555.273	10843.14
555.473	10345.48
555.672	10204.17
555.872	10161.17
556.071	10128.4
556.271	10007.57
556.47	9638.94
556.67	9374.75
556.869	9368.6
557.068	9319.45
557.268	8973.35
557.467	9212.96
557.667	8832.04
557.866	8617
558.065	8473.64
558.265	8416.3
558.464	8272.94
558.663	8315.95
558.863	7918.64
559.062	8051.76
559.261	7611.45
559.461	7601.21
559.66	7410.75
559.859	7367.74
560.058	7210.04
560.258	7081.02
560.457	6816.83
560.656	7138.37
560.855	6693.96
561.054	6755.4
561.253	6653
561.453	6429.77
561.652	6589.51
561.851	6302.79
562.05	6202.44
562.249	5950.54
562.448	6040.65
562.647	5903.44
562.846	6007.89
563.045	5909.58
563.244	5555.29
563.443	5565.53
563.642	5620.82
563.841	5534.81
564.04	5436.5
564.239	5305.43
564.438	5254.23
564.637	5047.39
564.836	5098.59
565.035	5035.1
565.234	5074.01
565.432	4750.43
565.631	4789.35
565.83	4842.59
566.029	4664.42
566.228	4510.82
566.427	4600.93
566.625	4361.32
566.824	4527.21
567.023	4285.55
567.222	4183.15
567.42	4283.5
567.619	4162.67
567.818	4166.76
568.016	4250.73
568.215	4119.66
568.414	4078.7
568.612	3880.05
568.811	3757.17
569.01	3728.5
569.208	3744.88
569.407	3880.05
569.605	3581.04
569.804	3593.33
570.002	3576.95
570.201	3388.53
570.4	3492.98
570.598	3290.23
570.797	3204.22
570.995	3294.33
571.193	3251.32
571.392	3153.02
571.59	3083.39
571.789	3183.74
571.987	3101.82
572.186	2980.99
572.384	2827.39
572.582	2978.94
572.781	3007.61
572.979	2759.81
573.177	2790.53
573.376	2800.77
573.574	2798.72
573.772	2690.18
573.971	2544.77
574.169	2493.57
574.367	2544.77
574.565	2546.82
574.763	2477.19
574.962	2499.72
575.16	2360.45
575.358	2253.96
575.556	2409.61
575.754	2229.38
575.952	2217.1
576.151	2329.74
576.349	2333.83
576.547	2006.16
576.745	2151.56
576.943	2135.18
577.141	2032.78
577.339	1877.13
577.537	2112.65
577.735	2030.73
577.933	1973.39
578.131	1924.24
578.329	1977.48
578.527	1780.88
578.725	1909.9
578.923	1762.45
579.121	1756.3
579.319	1596.56
579.516	1696.91
579.714	1993.87
579.912	1791.12
580.11	1537.17
580.308	1541.27
580.506	1574.03
580.704	1438.87
580.901	1447.06
581.099	1614.99
581.297	1565.84
581.495	1432.72
581.692	1406.1
581.89	1492.12
582.088	1463.44
582.285	1348.76
582.483	1352.85
582.681	1326.23
582.878	1320.09
583.076	1242.26
583.274	1369.24
583.471	1299.61
583.669	1219.74
583.866	1221.78
584.064	1318.04
584.262	1047.71
584.459	1143.96
584.657	1168.54
584.854	1279.13
585.052	1152.15
585.249	1270.94
585.447	1160.34
585.644	994.46
585.841	1236.12
586.039	1103
586.236	1094.81
586.434	1029.27
586.631	1103
586.828	955.55
587.026	1098.91
587.223	900.25
587.42	900.25
587.618	912.54
587.815	1010.84
588.012	926.88
588.21	849.05
588.407	990.36
588.604	973.98
588.801	855.2
588.999	945.31
589.196	1035.42
589.393	873.63
589.59	908.44
589.787	980.12
589.984	877.73
590.182	910.49
590.379	851.1
590.576	867.49
590.773	797.85
590.97	808.09
591.167	892.06
591.364	885.92
591.561	730.27
591.758	1025.18
591.955	844.96
592.152	804
592.349	754.85
592.546	828.57
592.743	738.46
592.94	771.23
593.137	797.85
593.334	892.06
593.531	859.29
593.727	943.26
593.924	789.66
594.121	816.29
594.318	789.66
594.515	951.45
594.712	959.64
594.908	863.39
595.105	791.71
595.302	941.21
595.499	832.67
595.696	933.02
595.892	875.68
596.089	1025.18
596.286	926.88
596.482	1123.48
596.679	1033.37
596.876	955.55
597.072	1105.05
597.269	1010.84
597.466	1207.45
597.662	1059.99
597.859	1172.63
598.055	1205.4
598.252	1295.51
598.448	1215.64
598.645	1285.27
598.841	1424.53
599.038	1510.55
599.234	1524.88
599.431	1504.4
599.627	1543.32
599.824	1537.17
600.02	1541.27
600.217	1614.99
600.413	1842.32
600.609	1903.76
600.806	2081.93
601.002	2081.93
601.198	1977.48
601.395	2190.47
601.591	2292.87
601.787	2313.35
601.984	2454.66
602.18	2518.15
602.376	2501.76
602.572	2618.5
602.769	2970.75
602.965	2970.75
603.161	3048.57
603.357	3048.57
603.553	3202.17
603.75	3200.12
603.946	3417.21
604.142	3312.76
604.338	3667.06
604.534	3751.03
604.73	3906.67
604.926	3974.25
605.122	4295.79
605.318	4125.8
605.514	4330.6
605.71	4437.09
605.906	4568.16
606.102	4668.52
606.298	5074.01
606.494	5061.73
606.69	5395.54
606.886	5422.17
607.082	5319.77
607.278	5712.98
607.474	5831.76
607.67	6054.99
607.866	6138.96
608.062	6313.03
608.257	6474.82
608.453	6685.76
608.649	6831.17
608.845	6958.14
609.041	7214.14
609.236	7234.62
609.432	7476.28
609.628	7978.03
609.824	7963.7
610.019	8123.44
610.215	8526.89
610.411	8754.21
610.606	9030.69
610.802	9321.5
610.998	9274.4
611.193	9788.44
611.389	9849.88
611.584	10224.65
611.78	10230.8
611.976	10722.31
612.171	11015.17
612.367	11324.41
612.562	11637.75
612.758	11633.66
612.953	12022.77
613.149	12569.58
613.344	12860.39
613.539	13155.3
613.735	13511.64
613.93	14066.64
614.126	13968.34
614.321	14840.78
614.517	15070.15
614.712	15387.58
614.907	15696.83
615.103	16282.55
615.298	16468.91
615.493	16941.99
615.688	17253.28
615.884	18086.81
616.079	18017.18
616.274	18631.57
616.47	19196.81
616.665	19606.4
616.86	20179.83
617.055	20589.42
617.25	21001.07
617.445	21685.09
617.641	22016.86
617.836	22801.23
618.031	22985.55
618.226	23794.5
618.421	24097.59
618.616	25217.83
618.811	25189.16
619.006	26280.73
619.201	26602.26
619.396	27253.51
619.591	27466.5
619.786	28601.08
619.981	28347.13
620.176	29594.34
620.371	29803.24
620.566	30659.29
620.761	30993.11
620.956	31955.65
621.151	32334.53
621.346	33378.99
621.541	33694.38
621.735	34886.29
621.93	34624.15
622.125	35582.6
622.32	36266.63
622.515	37096.05
622.709	37657.2
622.904	38136.42
623.099	38730.33
623.294	39551.57
623.488	40061.51
623.683	41300.53
623.878	40829.5
624.072	42543.65
624.267	43090.46
624.462	43418.13
624.656	43608.59
624.851	44689.92
625.046	45099.51
625.24	46115.31
625.435	46266.86
625.629	46787.04
625.824	47774.16
626.018	48280.01
626.213	48298.44
626.407	49152.44
626.602	49461.69
626.796	50356.65
626.991	50866.59
627.185	50952.61
627.38	51454.36
627.574	51806.61
627.768	52025.74
627.963	52078.99
628.157	52142.48
628.352	53012.87
628.546	51992.98
628.74	52922.76
628.935	52556.17
629.129	52633.99
629.323	52097.42
629.517	52283.79
629.712	51900.82
629.906	52097.42
630.1	50932.13
630.294	50762.15
630.489	50217.39
630.683	49996.21
630.877	48703.94
631.071	48296.39
631.265	47593.94
631.459	46635.49
631.653	45300.22
631.848	44806.65
632.042	43489.81
632.236	42906.14
632.43	41302.58
632.624	40655.42
632.818	39459.41
633.012	37722.73
633.206	36366.98
633.4	35795.59
633.594	34415.26
633.788	33544.87
633.982	32606.91
634.176	31240.91
634.369	30063.33
634.563	29209.32
634.757	27573
634.951	27134.73
635.145	25758.5
635.339	25035.56
635.533	24062.78
635.726	23085.9
635.92	21713.76
636.114	21392.23
636.308	20142.97
636.501	19919.74
636.695	18695.05
636.889	17931.16
637.083	17599.39
637.276	16479.15
637.47	15582.14
637.664	15010.76
637.857	14633.93
638.051	13892.57
638.244	13341.66
638.438	13116.39
638.632	12329.97
638.825	11811.83
639.019	11686.9
639.212	11000.83
639.406	10705.93
639.599	10032.15
639.793	9700.37
639.986	9319.45
640.18	9073.7
640.373	8612.9
640.567	8141.87
640.76	8148.01
640.954	7633.97
641.147	7328.83
641.34	6974.53
641.534	6906.95
641.727	6632.52
641.92	6333.51
642.114	6073.42
642.307	5860.43
642.5	5696.6
642.694	5289.05
642.887	5168.22
643.08	5157.98
643.273	4981.85
643.467	4592.74
643.66	4588.64
643.853	4344.94
644.046	4240.49
644.239	3986.54
644.432	3802.22
644.626	3617.91
644.819	3562.61
645.012	3454.07
645.205	3415.16
645.398	3263.61
645.591	3015.8
645.784	2864.25
645.977	2761.86
646.17	2718.85
646.363	2614.4
646.556	2546.82
646.749	2331.78
646.942	2415.75
647.135	2354.31
647.328	2135.18
647.521	2190.47
647.714	2069.64
647.907	1965.2
648.099	1754.26
648.292	1938.57
648.485	1791.12
648.678	1707.15
648.871	1488.02
649.064	1571.99
649.256	1447.06
649.449	1320.09
649.642	1320.09
649.835	1287.32
650.027	1262.74
650.22	1318.04
650.413	1203.35
650.605	1240.22
650.798	1062.04
650.991	1049.75
651.183	1094.81
651.376	1014.94
651.568	965.79
651.761	849.05
651.954	898.2
652.146	937.12
652.339	910.49
652.531	900.25
652.724	801.95
652.916	799.9
653.109	683.17
653.301	828.57
653.494	822.43
653.686	689.31
653.879	808.09
654.071	687.26
654.263	677.02
654.456	568.48
654.648	677.02
654.84	658.59
655.033	607.39
655.225	591.01
655.417	457.89
655.61	650.4
655.802	617.63
655.994	605.35
656.186	496.8
656.379	527.52
656.571	425.12
656.763	472.23
656.955	431.27
657.148	435.36
657.34	511.14
657.532	402.6
657.724	384.16
657.916	480.42
658.108	392.36
658.3	470.18
658.492	412.84
658.684	328.87
658.876	410.79
659.068	310.44
659.26	289.96
659.452	345.25
659.644	361.64
659.836	416.93
660.028	265.38
660.22	269.48
660.412	337.06
660.604	246.95
660.796	310.44
660.988	396.45
661.18	337.06
661.372	277.67
661.563	285.86
661.755	298.15
661.947	224.42
662.139	218.28
662.331	201.9
662.522	330.92
662.714	169.13
662.906	203.94
663.097	259.24
663.289	185.51
663.481	97.45
663.673	253.09
663.864	242.85
664.056	246.95
664.247	162.98
664.439	187.56
664.631	281.77
664.822	257.19
665.014	269.48
665.205	210.09
665.397	144.55
665.588	294.05
665.78	205.99
665.971	316.58
666.163	222.38
666.354	210.09
666.546	95.4
666.737	181.42
666.929	101.55
667.12	171.18
667.311	265.38
667.503	173.22
667.694	181.42
667.885	199.85
668.077	298.15
668.268	105.64
668.459	150.7
668.651	251.05
668.842	218.28
669.033	154.79
669.224	171.18
669.416	277.67
669.607	146.6
669.798	179.37
669.989	318.63
670.18	97.45
670.371	199.85
670.563	171.18
670.754	210.09
670.945	234.66
671.136	187.56
671.327	175.27
671.518	156.84
671.709	298.15
671.9	242.85
672.091	306.34
672.282	228.52
672.473	214.18
672.664	144.55
672.855	165.03
673.046	183.46
673.237	271.53
673.428	226.47
673.619	117.93
673.809	177.32
674	230.57
674.191	177.32
674.382	132.26
674.573	111.78
674.764	210.09
674.954	224.42
675.145	62.63
675.336	165.03
675.527	105.64
675.717	152.74
675.908	183.46
676.099	97.45
676.289	244.9
676.48	197.8
676.671	263.33
676.861	138.41
677.052	292.01
677.243	208.04
677.433	187.56
677.624	228.52
677.814	234.66
678.005	134.31
678.195	339.11
678.386	177.32
678.576	158.89
678.767	113.83
678.957	228.52
679.148	261.29
679.338	396.45
679.529	193.7
679.719	113.83
679.909	261.29
680.1	287.91
680.29	273.57
680.481	175.27
680.671	240.81
680.861	269.48
681.052	214.18
681.242	160.94
681.432	179.37
681.622	257.19
681.813	261.29
682.003	177.32
682.193	242.85
682.383	253.09
682.573	197.8
682.764	162.98
682.954	242.85
683.144	302.25
683.334	167.08
683.524	175.27
683.714	296.1
683.904	289.96
684.094	205.99
684.284	253.09
684.474	365.73
684.664	273.57
684.854	279.72
685.044	214.18
685.234	296.1
685.424	324.77
685.614	162.98
685.804	339.11
685.994	275.62
686.184	269.48
686.374	332.97
686.564	257.19
686.753	269.48
686.943	216.23
687.133	281.77
687.323	246.95
687.513	322.73
687.702	300.2
687.892	251.05
688.082	437.41
688.272	337.06
688.461	273.57
688.651	351.4
688.841	339.11
689.03	244.9
689.22	296.1
689.41	265.38
689.599	255.14
689.789	185.51
689.979	457.89
690.168	234.66
690.358	271.53
690.547	173.22
690.737	226.47
690.926	357.54
691.116	296.1
691.305	298.15
691.495	289.96
691.684	205.99
691.874	234.66
692.063	205.99
692.252	257.19
692.442	353.45
692.631	240.81
692.82	197.8
693.01	189.61
693.199	187.56
693.388	220.33
693.578	193.7
693.767	238.76
693.956	210.09
694.146	214.18
694.335	304.29
694.524	240.81
694.713	316.58
694.902	216.23
695.092	242.85
695.281	261.29
695.47	175.27
695.659	230.57
695.848	222.38
696.037	216.23
696.226	324.77
696.415	255.14
696.604	296.1
696.793	244.9
696.982	230.57
697.171	281.77
697.36	181.42
697.549	240.81
697.738	152.74
697.927	199.85
698.116	154.79
698.305	242.85
698.494	216.23
698.683	205.99
698.872	300.2
699.061	150.7
699.25	238.76
699.438	234.66
699.627	138.41
699.816	351.4
700.005	177.32
700.193	195.75
700.382	257.19
700.571	249
700.76	304.29
700.948	249
701.137	259.24
701.326	208.04
701.514	130.22
701.703	339.11
701.892	265.38
702.08	427.17
702.269	152.74
702.457	103.59
702.646	261.29
702.834	232.62
703.023	349.35
703.212	343.21
703.4	283.81
703.589	226.47
703.777	208.04
703.965	265.38
704.154	126.12
704.342	130.22
704.531	222.38
704.719	236.71
704.907	316.58
705.096	81.07
705.284	93.35
705.472	234.66
705.661	341.16
705.849	308.39
706.037	265.38
706.226	244.9
706.414	220.33
706.602	175.27
706.79	228.52
706.979	167.08
707.167	175.27
707.355	162.98
707.543	298.15
707.731	279.72
707.919	232.62
708.107	181.42
708.296	240.81
708.484	134.31
708.672	312.49
708.86	240.81
709.048	236.71
709.236	165.03
709.424	242.85
709.612	214.18
709.8	107.69
709.988	312.49
710.176	361.64
710.364	355.49
710.551	261.29
710.739	185.51
710.927	173.22
711.115	205.99
711.303	210.09
711.491	265.38
711.679	87.21
711.866	267.43
712.054	242.85
712.242	238.76
712.43	281.77
712.617	212.14
712.805	269.48
712.993	226.47
713.181	95.4
713.368	298.15
713.556	263.33
713.744	181.42
713.931	351.4
714.119	287.91
714.306	205.99
714.494	218.28
714.682	255.14
714.869	167.08
715.057	246.95
715.244	150.7
715.432	234.66
715.619	154.79
715.807	199.85
715.994	185.51
716.182	257.19
716.369	394.4
716.556	308.39
716.744	203.94
716.931	156.84
717.119	201.9
717.306	234.66
717.493	244.9
717.681	292.01
717.868	212.14
718.055	228.52
718.242	236.71
718.43	326.82
718.617	306.34
718.804	255.14
718.991	355.49
719.179	271.53
719.366	337.06
719.553	232.62
719.74	208.04
719.927	212.14
720.114	259.24
720.301	132.26
720.488	222.38
720.676	171.18
720.863	345.25
721.05	388.26
721.237	273.57
721.424	371.88
721.611	281.77
721.798	187.56
721.985	236.71
722.172	253.09
722.358	224.42
722.545	273.57
722.732	314.53
722.919	378.02
723.106	249
723.293	210.09
723.48	294.05
723.667	193.7
723.853	263.33
724.04	294.05
724.227	341.16
724.414	285.86
724.6	349.35
724.787	437.41
724.974	437.41
725.161	365.73
725.347	240.81
725.534	296.1
725.72	326.82
725.907	310.44
726.094	287.91
726.28	179.37
726.467	285.86
726.653	205.99
726.84	378.02
727.027	398.5
727.213	226.47
727.4	322.73
727.586	320.68
727.773	287.91
727.959	259.24
728.145	322.73
728.332	353.45
728.518	277.67
728.705	361.64
728.891	310.44
729.077	292.01
729.264	199.85
729.45	228.52
729.636	392.36
729.823	249
730.009	330.92
730.195	294.05
730.382	263.33
730.568	214.18
730.754	283.81
730.94	259.24
731.126	363.69
731.313	339.11
731.499	283.81
731.685	337.06
731.871	386.21
732.057	193.7
732.243	390.31
732.429	335.01
732.615	423.08
732.801	302.25
732.987	300.2
733.173	328.87
733.359	232.62
733.545	320.68
733.731	275.62
733.917	468.13
734.103	345.25
734.289	318.63
734.475	263.33
734.661	476.32
734.847	371.88
735.033	394.4
735.219	365.73
735.404	232.62
735.59	298.15
735.776	302.25
735.962	330.92
736.148	267.43
736.333	345.25
736.519	294.05
736.705	312.49
736.89	332.97
737.076	369.83
737.262	169.13
737.447	285.86
737.633	283.81
737.819	361.64
738.004	244.9
738.19	251.05
738.375	390.31
738.561	320.68
738.747	355.49
738.932	257.19
739.118	439.46
739.303	312.49
739.489	271.53
739.674	218.28
739.859	218.28
740.045	312.49
740.23	414.88
740.416	265.38
740.601	359.59
740.786	326.82
740.972	214.18
741.157	251.05
741.342	191.66
741.528	128.17
741.713	324.77
741.898	296.1
742.084	283.81
742.269	289.96
742.454	355.49
742.639	472.23
742.824	273.57
743.01	386.21
743.195	494.76
743.38	367.78
743.565	273.57
743.75	289.96
743.935	324.77
744.12	418.98
744.305	275.62
744.49	263.33
744.675	308.39
744.86	228.52
745.045	349.35
745.23	339.11
745.415	212.14
745.6	402.6
745.785	277.67
745.97	418.98
746.155	306.34
746.34	355.49
746.525	322.73
746.71	371.88
746.895	240.81
747.079	242.85
747.264	271.53
747.449	275.62
747.634	271.53
747.819	306.34
748.003	289.96
748.188	263.33
748.373	285.86
748.557	347.3
748.742	261.29
748.927	277.67
749.111	308.39
749.296	283.81
749.481	386.21
749.665	267.43
749.85	214.18
750.034	335.01
750.219	201.9
750.404	224.42
750.588	234.66
750.773	234.66
750.957	300.2
751.141	189.61
751.326	300.2
751.51	269.48
751.695	191.66
751.879	201.9
752.064	406.69
752.248	263.33
752.432	341.16
752.617	249
752.801	265.38
752.985	300.2
753.17	296.1
753.354	236.71
753.538	263.33
753.722	189.61
753.907	224.42
754.091	244.9
754.275	177.32
754.459	119.98
754.643	134.31
754.828	220.33
755.012	271.53
755.196	191.66
755.38	267.43
755.564	181.42
755.748	187.56
755.932	246.95
756.116	242.85
756.3	253.09
756.484	99.5
756.668	201.9
756.852	19.63
757.036	148.65
757.22	193.7
757.404	138.41
757.588	173.22
757.772	189.61
757.956	144.55
758.14	332.97
758.323	158.89
758.507	216.23
758.691	113.83
758.875	208.04
759.059	322.73
759.242	165.03
759.426	132.26
759.61	216.23
759.794	101.55
759.977	226.47
760.161	402.6
760.345	191.66
760.528	296.1
760.712	117.93
760.895	169.13
761.079	109.74
761.263	-0.85
761.446	156.84
761.63	117.93
761.813	197.8
761.997	111.78
762.18	105.64
762.364	165.03
762.547	62.63
762.731	124.07
762.914	191.66
763.098	111.78
763.281	185.51
763.464	36.01
763.648	144.55
763.831	128.17
764.015	119.98
764.198	152.74
764.381	154.79
764.564	140.46
764.748	97.45
764.931	162.98
765.114	79.02
765.297	152.74
765.481	111.78
765.664	146.6
765.847	146.6
766.03	226.47
766.213	56.49
766.397	117.93
766.58	-4.95
766.763	173.22
766.946	36.01
767.129	48.3
767.312	42.15
767.495	91.31
767.678	148.65
767.861	152.74
768.044	189.61
768.227	99.5
768.41	85.16
768.593	158.89
768.776	68.78
768.959	91.31
769.142	91.31
769.324	117.93
769.507	142.5
769.69	72.87
769.873	1.19
770.056	320.68
770.239	136.36
770.421	267.43
770.604	173.22
770.787	60.59
770.97	167.08
771.152	95.4
771.335	152.74
771.518	-31.57
771.7	85.16
771.883	265.38
772.066	48.3
772.248	197.8
772.431	197.8
772.613	177.32
772.796	87.21
772.978	87.21
773.161	249
773.343	99.5
773.526	93.35
773.708	60.59
773.891	-21.33
774.073	74.92
774.256	89.26
774.438	285.86
774.621	38.06
774.803	119.98
774.985	17.58
775.168	130.22
775.35	83.11
775.532	142.5
775.715	132.26
775.897	169.13
776.079	54.44
776.261	81.07
776.444	54.44
776.626	29.87
776.808	95.4
776.99	-72.53
777.173	173.22
777.355	27.82
777.537	87.21
777.719	19.63
777.901	113.83
778.083	52.39
778.265	1.19
778.447	64.68
778.629	19.63
778.811	122.02
778.993	70.83
779.175	165.03
779.357	58.54
779.539	-43.86
779.721	64.68
779.903	142.5
780.085	44.2
780.267	150.7
780.449	68.78
780.631	109.74
780.812	210.09
780.994	-2.9
781.176	107.69
781.358	60.59
781.54	42.15
781.721	128.17
781.903	111.78
782.085	25.77
782.267	201.9
782.448	-21.33
782.63	74.92
782.812	132.26
782.993	33.96
783.175	111.78
783.357	83.11
783.538	60.59
783.72	-33.62
783.901	-37.72
784.083	19.63
784.264	29.87
784.446	-35.67
784.627	11.43
784.809	187.56
784.99	13.48
785.172	85.16
785.353	48.3
785.535	130.22
785.716	-43.86
785.897	29.87
786.079	115.88
786.26	117.93
786.441	97.45
786.623	-47.96
786.804	-29.52
786.985	1.19
787.167	111.78
787.348	72.87
787.529	7.34
787.71	150.7
787.891	111.78
788.073	-54.1
788.254	-33.62
788.435	142.5
788.616	74.92
788.797	5.29
788.978	48.3
789.159	7.34
789.34	109.74
789.522	83.11
789.703	29.87
789.884	11.43
790.065	54.44
790.246	150.7
790.427	-33.62
790.607	115.88
790.788	60.59
790.969	-19.29
791.15	66.73
791.331	29.87
791.512	31.91
791.693	50.35
791.874	52.39
792.054	238.76
792.235	109.74
792.416	13.48
792.597	56.49
792.778	46.25
792.958	11.43
793.139	48.3
793.32	93.35
793.5	79.02
793.681	185.51
793.862	38.06
794.042	54.44
794.223	1.19
794.404	48.3
794.584	-25.43
794.765	46.25
794.945	103.59
795.126	89.26
795.306	162.98
795.487	33.96
795.667	21.67
795.848	105.64
796.028	62.63
796.209	44.2
796.389	109.74
796.57	-11.09
796.75	-23.38
796.93	52.39
797.111	7.34
797.291	-7
797.471	42.15
797.652	50.35
797.832	-37.72
798.012	70.83
798.192	40.11
798.373	-31.57
798.553	50.35
798.733	48.3
798.913	-11.09
799.093	-4.95
799.274	56.49
799.454	-2.9
799.634	132.26
799.814	99.5
799.994	76.97
800.174	76.97
800.354	23.72
800.534	-54.1
800.714	44.2
800.894	21.67
801.074	-82.77
801.254	-93.01
801.434	19.63
801.614	-7
801.794	-76.63
801.974	1889.42
802.154	-15.19
802.334	-13.14
802.514	-93.01
802.693	54.44
802.873	27.82
803.053	119.98
803.233	105.64
803.413	33.96
803.592	9.39
803.772	-23.38
803.952	36.01
804.131	-35.67
804.311	11.43
804.491	185.51
804.67	-39.76
804.85	-13.14
805.03	95.4
805.209	66.73
805.389	-43.86
805.568	85.16
805.748	5.29
805.928	-21.33
806.107	40.11
806.287	83.11
806.466	48.3
806.646	-15.19
806.825	33.96
807.004	27.82
807.184	58.54
807.363	101.55
807.543	103.59
807.722	56.49
807.901	138.41
808.081	21.67
808.26	-80.72
808.439	42.15
808.619	25.77
808.798	60.59
808.977	3.24
809.156	68.78
809.336	52.39
809.515	58.54
809.694	-17.24
809.873	-56.15
810.052	13.48
810.231	199.85
810.411	50.35
810.59	107.69
810.769	21.67
810.948	152.74
811.127	-84.82
811.306	-86.87
811.485	-27.48
811.664	87.21
811.843	66.73
812.022	3.24
812.201	-4.95
812.38	15.53
812.559	-156.5
812.737	74.92
812.916	3.24
813.095	-47.96
813.274	60.59
813.453	79.02
813.632	25.77
813.811	134.31
813.989	-105.3
814.168	83.11
814.347	-60.24
814.526	-9.05
814.704	89.26
814.883	70.83
815.062	-54.1
815.24	60.59
815.419	23.72
815.598	52.39
815.776	-172.88
815.955	58.54
816.133	-107.35
816.312	52.39
816.49	7.34
816.669	19.63
816.847	-4.95
817.026	64.68
817.204	-23.38
817.383	23.72
817.561	-97.11
817.74	44.2
817.918	72.87
818.097	-2.9
818.275	17.58
818.453	62.63
818.632	74.92
818.81	3.24
818.988	42.15
819.167	-11.09
819.345	38.06
819.523	-21.33
819.701	-43.86
819.879	115.88
820.058	7.34
820.236	52.39
820.414	107.69
820.592	-29.52
820.77	42.15
820.948	-31.57
821.127	-7
821.305	48.3
821.483	-29.52
821.661	83.11
821.839	5.29
822.017	-33.62
822.195	48.3
822.373	89.26
822.551	-52.05
822.729	134.31
822.907	50.35
823.085	50.35
823.262	89.26
823.44	-19.29
823.618	5.29
823.796	97.45
823.974	-31.57
824.152	15.53
824.329	23.72
824.507	52.39
824.685	64.68
824.863	11.43
825.04	5.29
825.218	44.2
825.396	-39.76
825.574	-35.67
825.751	19.63
825.929	83.11
826.107	-68.44
826.284	48.3
826.462	38.06
826.639	-90.96
826.817	-29.52
826.994	70.83
827.172	11.43
827.349	150.7
827.527	95.4
827.704	3.24
827.882	11.43
828.059	44.2
828.237	40.11
828.414	-11.09
828.591	-111.44
828.769	68.78
828.946	-84.82
829.124	48.3
829.301	103.59
829.478	-4.95
829.655	52.39
829.833	17.58
830.01	-101.2
830.187	-15.19
830.364	7.34
830.542	9.39
830.719	128.17
830.896	87.21
831.073	93.35
831.25	76.97
831.427	7.34
831.604	-9.05
831.782	-11.09
831.959	70.83
832.136	-0.85
832.313	36.01
832.49	-2.9
832.667	-23.38
832.844	-17.24
833.021	142.5
833.198	60.59
833.374	-19.29
833.551	85.16
833.728	-11.09
833.905	107.69
834.082	-103.25
834.259	31.91
834.436	76.97
834.612	-47.96
834.789	97.45
834.966	25.77
835.143	-27.48
835.319	-60.24
835.496	93.35
835.673	111.78
835.85	27.82
836.026	74.92
836.203	113.83
836.38	54.44
836.556	-76.63
836.733	52.39
836.909	167.08
837.086	19.63
837.262	-58.2
837.439	-41.81
837.616	1.19
837.792	-21.33
837.968	44.2
838.145	-170.83
838.321	-13.14
838.498	76.97
838.674	38.06
838.851	3.24
839.027	-74.58
839.203	91.31
839.38	74.92
839.556	-35.67
839.732	40.11
839.909	-52.05
840.085	29.87
840.261	-62.29
840.437	29.87
840.614	-29.52
840.79	115.88
840.966	79.02
841.142	29.87
841.318	-11.09
841.494	-0.85
841.671	70.83
841.847	-58.2
842.023	-101.2
842.199	23.72
842.375	27.82
842.551	-80.72
842.727	-50
842.903	148.65
843.079	-25.43
843.255	91.31
843.431	33.96
843.607	17.58
843.783	-60.24
843.959	-19.29
844.134	-105.3
844.31	40.11
844.486	17.58
844.662	-41.81
844.838	-11.09
845.013	58.54
845.189	56.49
845.365	66.73
845.541	42.15
845.716	1.19
845.892	33.96
846.068	-31.57
846.244	-54.1
846.419	-2.9
846.595	-60.24
846.77	-2.9
846.946	101.55
847.122	-93.01
847.297	-33.62
847.473	72.87
847.648	-68.44
847.824	-43.86
847.999	-74.58
848.175	-27.48
848.35	33.96
848.526	132.26
848.701	58.54
848.876	44.2
849.052	79.02
849.227	-9.05
849.403	-23.38
849.578	-64.34
849.753	42.15
849.929	17.58
850.104	-95.06
850.279	-29.52
850.454	44.2
850.63	76.97
850.805	23.72
850.98	52.39
851.155	-19.29
851.33	-7
851.505	-50
851.681	126.12
851.856	-56.15
852.031	17.58
852.206	56.49
852.381	-37.72
852.556	-82.77
852.731	27.82
852.906	101.55
853.081	60.59
853.256	124.07
853.431	-35.67
853.606	-43.86
853.781	-86.87
853.956	-119.64
854.131	58.54
854.305	-11.09
854.48	-33.62
854.655	-45.91
854.83	-64.34
855.005	13.48
855.18	19.63
855.354	3.24
855.529	58.54
855.704	17.58
855.879	72.87
856.053	72.87
856.228	29.87
856.403	-58.2
856.577	66.73
856.752	-35.67
856.926	33.96
857.101	-50
857.276	-58.2
857.45	-15.19
857.625	124.07
857.799	85.16
857.974	-11.09
858.148	-97.11
858.323	66.73
858.497	33.96
858.672	-47.96
858.846	-41.81
859.02	85.16
859.195	-78.68
859.369	-107.35
859.543	-23.38
859.718	33.96
859.892	76.97
860.066	7.34
860.241	-15.19
860.415	11.43
860.589	33.96
860.763	17.58
860.938	-35.67
861.112	72.87
861.286	-7
861.46	40.11
861.634	-39.76
861.808	79.02
861.982	-113.49
862.157	-111.44
862.331	-64.34
862.505	-60.24
862.679	-95.06
862.853	-60.24
863.027	-58.2
863.201	185.51
863.375	54.44
863.549	44.2
863.722	7.34
863.896	107.69
864.07	-41.81
864.244	38.06
864.418	38.06
864.592	25.77
864.766	44.2
864.939	62.63
865.113	-35.67
865.287	38.06
865.461	-52.05
865.634	-7
865.808	-7
865.982	-2.9
866.156	-33.62
866.329	-127.83
866.503	5.29
866.676	42.15
866.85	52.39
867.024	-4.95
867.197	66.73
867.371	25.77
867.544	38.06
867.718	-58.2
867.891	68.78
868.065	-86.87
868.238	-19.29
868.412	144.55
868.585	-23.38
868.759	-54.1
868.932	-15.19
869.105	-72.53
869.279	-11.09
869.452	9.39
869.625	31.91
869.799	-13.14
869.972	-80.72
870.145	-39.76
870.319	76.97
870.492	-84.82
870.665	-37.72
870.838	-86.87
871.011	-131.92
871.185	-21.33
871.358	5.29
871.531	91.31
871.704	-2.9
871.877	23.72
872.05	-58.2
872.223	-119.64
872.396	27.82
872.569	101.55
872.742	-125.78
872.915	46.25
873.088	-21.33
873.261	-88.92
873.434	44.2
873.607	-19.29
873.78	-9.05
873.953	-70.48
874.126	52.39
874.299	13.48
874.471	-47.96
874.644	-31.57
874.817	56.49
874.99	109.74
875.163	19.63
875.335	89.26
875.508	-68.44
875.681	122.02
875.853	-29.52
876.026	15.53
876.199	64.68
876.371	-4.95
876.544	13.48
876.717	5.29
876.889	-25.43
877.062	23.72
877.234	-88.92
877.407	62.63
877.579	-95.06
877.752	115.88
877.924	17.58
878.097	15.53
878.269	74.92
878.442	3.24
878.614	148.65
878.786	48.3
878.959	21.67
879.131	15.53
879.303	-66.39
879.476	-47.96
879.648	50.35
879.82	36.01
879.993	-27.48
880.165	15.53
880.337	-68.44
880.509	-21.33
880.681	-113.49
880.854	-54.1
881.026	62.63
881.198	132.26
881.37	-15.19
881.542	-11.09
881.714	64.68
881.886	-136.02
882.058	-27.48
882.23	81.07
882.402	-74.58
882.574	1.19
882.746	23.72
882.918	103.59
883.09	134.31
883.262	-33.62
883.434	-25.43
883.606	-37.72
883.778	-17.24
883.95	113.83
884.122	-52.05
884.293	58.54
884.465	38.06
884.637	76.97
884.809	-35.67
884.98	50.35
885.152	-21.33
885.324	115.88
885.496	5.29
885.667	-72.53
885.839	-21.33
886.011	128.17
886.182	-54.1
886.354	103.59
886.525	17.58
886.697	7.34
886.869	-47.96
887.04	-82.77
887.212	72.87
887.383	169.13
887.555	56.49
887.726	48.3
887.897	-47.96
888.069	40.11
888.24	23.72
888.412	-58.2
888.583	29.87
888.754	9.39
888.926	-166.74
889.097	-19.29
889.268	-119.64
889.44	21.67
889.611	-90.96
889.782	-31.57
889.953	-131.92
890.125	136.36
890.296	-37.72
890.467	-15.19
890.638	1.19
890.809	-70.48
890.98	-107.35
891.151	-0.85
891.323	95.4
891.494	-21.33
891.665	60.59
891.836	-33.62
892.007	95.4
892.178	29.87
892.349	-19.29
892.52	-138.07
892.691	7.34
892.862	-11.09
893.032	-109.4
893.203	-7
893.374	11.43
893.545	21.67
893.716	-31.57
893.887	83.11
894.057	-54.1
894.228	19.63
894.399	-23.38
894.57	122.02
894.74	-2.9
894.911	13.48
895.082	52.39
895.253	-41.81
895.423	23.72
895.594	-13.14
895.764	74.92
895.935	-82.77
896.106	3.24
896.276	-66.39
896.447	15.53
896.617	-74.58
896.788	-74.58
896.958	-66.39
897.129	-88.92
897.299	-52.05
897.47	138.41
897.64	11.43
897.81	-21.33
897.981	-27.48
898.151	-9.05
898.322	48.3
898.492	107.69
898.662	-60.24
898.832	54.44
899.003	21.67
899.173	27.82
899.343	48.3
899.513	-84.82
