Data from USB4F104151__163__11-04-46-635.txt Node

Date: Wed Feb 26 11:04:46 EST 2025
User: louis
Spectrometer: USB4F10415
Trigger mode: 4
Integration Time (sec): 1.000000E-1
Scans to average: 1
Electric dark correction enabled: true
Nonlinearity correction enabled: false
Boxcar width: 0
XAxis mode: Wavelengths
Number of Pixels in Spectrum: 3648
>>>>>Begin Spectral Data<<<<<
178.204	-349.35
178.424	-349.35
178.644	-349.35
178.864	-414.88
179.084	-386.21
179.304	29.52
179.524	29.52
179.744	-54.44
179.964	-31.91
180.184	39.76
180.404	-21.67
180.624	0.85
180.844	-15.53
181.064	-109.74
181.283	105.3
181.503	-40.11
181.723	68.44
181.943	-70.83
182.163	176.98
182.383	-9.39
182.602	105.3
182.822	166.74
183.042	47.96
183.262	-1.19
183.482	29.52
183.701	39.76
183.921	-44.2
184.141	-9.39
184.361	88.92
184.58	80.72
184.8	33.62
185.02	-9.39
185.239	150.36
185.459	72.53
185.679	119.64
185.898	-105.64
186.118	-15.53
186.338	113.49
186.557	166.74
186.777	-33.96
186.997	-1.19
187.216	21.33
187.436	236.37
187.655	70.48
187.875	127.83
188.095	50
188.314	209.75
188.534	140.12
188.753	-99.5
188.973	164.69
189.192	76.63
189.412	84.82
189.631	-7.34
189.851	7
190.07	164.69
190.29	-70.83
190.509	-38.06
190.729	47.96
190.948	117.59
191.168	193.36
191.387	103.25
191.607	-25.77
191.826	70.48
192.045	95.06
192.265	-44.2
192.484	43.86
192.704	21.33
192.923	-21.67
193.142	285.52
193.362	144.21
193.581	123.73
193.8	47.96
194.02	45.91
194.239	97.11
194.458	133.97
194.678	37.72
194.897	70.48
195.116	68.44
195.335	56.15
195.555	41.81
195.774	17.24
195.993	82.77
196.212	35.67
196.432	-27.82
196.651	-68.78
196.87	17.24
197.089	271.19
197.308	4.95
197.528	93.01
197.747	19.29
197.966	-36.01
198.185	125.78
198.404	60.24
198.623	119.64
198.842	174.93
199.062	127.83
199.281	60.24
199.5	23.38
199.719	47.96
199.938	136.02
200.157	60.24
200.376	101.2
200.595	84.82
200.814	11.09
201.033	35.67
201.252	127.83
201.471	54.1
201.69	119.64
201.909	56.15
202.128	140.12
202.347	37.72
202.566	72.53
202.785	-40.11
203.004	-5.29
203.223	312.14
203.442	-11.43
203.661	13.14
203.879	105.3
204.098	154.45
204.317	-21.67
204.536	113.49
204.755	111.44
204.974	115.54
205.193	15.19
205.411	195.41
205.63	172.88
205.849	37.72
206.068	45.91
206.287	-1.19
206.505	90.96
206.724	-31.91
206.943	-27.82
207.162	15.19
207.381	103.25
207.599	7
207.818	78.68
208.037	-21.67
208.255	56.15
208.474	52.05
208.693	7
208.911	60.24
209.13	152.4
209.349	82.77
209.567	60.24
209.786	162.64
210.005	115.54
210.223	25.43
210.442	-83.11
210.661	37.72
210.879	93.01
211.098	21.33
211.316	84.82
211.535	131.92
211.753	64.34
211.972	144.21
212.191	-64.68
212.409	115.54
212.628	56.15
212.846	37.72
213.065	84.82
213.283	187.22
213.502	-31.91
213.72	31.57
213.938	21.33
214.157	64.34
214.375	133.97
214.594	60.24
214.812	127.83
215.031	31.57
215.249	117.59
215.467	97.11
215.686	15.19
215.904	111.44
216.122	129.88
216.341	224.08
216.559	64.34
216.778	84.82
216.996	158.55
217.214	25.43
217.432	-23.72
217.651	-33.96
217.869	68.44
218.087	88.92
218.306	84.82
218.524	17.24
218.742	-23.72
218.96	74.58
219.179	131.92
219.397	19.29
219.615	219.99
219.833	164.69
220.051	4.95
220.27	168.79
220.488	99.16
220.706	113.49
220.924	-1.19
221.142	45.91
221.36	103.25
221.578	56.15
221.796	7
222.015	68.44
222.233	47.96
222.451	189.27
222.669	21.33
222.887	88.92
223.105	25.43
223.323	45.91
223.541	15.19
223.759	86.87
223.977	4.95
224.195	133.97
224.413	84.82
224.631	35.67
224.849	113.49
225.067	205.65
225.285	-9.39
225.503	11.09
225.721	-85.16
225.939	82.77
226.157	39.76
226.375	185.17
226.592	-31.91
226.81	-1.19
227.028	162.64
227.246	166.74
227.464	47.96
227.682	64.34
227.9	23.38
228.117	39.76
228.335	142.16
228.553	2.9
228.771	43.86
228.989	56.15
229.206	117.59
229.424	97.11
229.642	37.72
229.86	-58.54
230.077	174.93
230.295	-15.53
230.513	68.44
230.731	43.86
230.948	209.75
231.166	195.41
231.384	19.29
231.601	-3.24
231.819	181.07
232.037	29.52
232.254	41.81
232.472	43.86
232.689	86.87
232.907	47.96
233.125	13.14
233.342	-54.44
233.56	11.09
233.777	27.48
233.995	58.2
234.213	131.92
234.43	64.34
234.648	39.76
234.865	29.52
235.083	99.16
235.3	41.81
235.518	70.48
235.735	181.07
235.953	60.24
236.17	105.3
236.388	43.86
236.605	76.63
236.822	84.82
237.04	111.44
237.257	50
237.475	-33.96
237.692	80.72
237.909	95.06
238.127	-21.67
238.344	50
238.562	95.06
238.779	-52.39
238.996	-81.07
239.214	29.52
239.431	21.33
239.648	-25.77
239.865	136.02
240.083	88.92
240.3	11.09
240.517	64.34
240.735	72.53
240.952	166.74
241.169	39.76
241.386	54.1
241.603	9.05
241.821	7
242.038	88.92
242.255	129.88
242.472	25.43
242.689	80.72
242.907	109.4
243.124	82.77
243.341	41.81
243.558	-50.35
243.775	43.86
243.992	0.85
244.209	76.63
244.426	150.36
244.643	97.11
244.86	64.34
245.078	160.59
245.295	78.68
245.512	21.33
245.729	-60.59
245.946	142.16
246.163	35.67
246.38	52.05
246.597	33.62
246.814	52.05
247.031	109.4
247.248	54.1
247.464	131.92
247.681	31.57
247.898	66.39
248.115	105.3
248.332	-44.2
248.549	150.36
248.766	199.51
248.983	117.59
249.2	88.92
249.417	101.2
249.633	-21.67
249.85	54.1
250.067	15.19
250.284	21.33
250.501	136.02
250.717	64.34
250.934	-42.15
251.151	23.38
251.368	-9.39
251.585	97.11
251.801	111.44
252.018	-56.49
252.235	109.4
252.451	-42.15
252.668	11.09
252.885	70.48
253.102	52.05
253.318	70.48
253.535	4.95
253.752	62.29
253.968	-5.29
254.185	-23.72
254.401	41.81
254.618	93.01
254.835	17.24
255.051	152.4
255.268	119.64
255.484	99.16
255.701	80.72
255.917	86.87
256.134	29.52
256.351	27.48
256.567	-91.31
256.784	39.76
257	-58.54
257.217	50
257.433	142.16
257.65	23.38
257.866	95.06
258.082	-91.31
258.299	-42.15
258.515	88.92
258.732	13.14
258.948	-58.54
259.165	86.87
259.381	-13.48
259.597	107.35
259.814	56.15
260.03	68.44
260.246	-19.63
260.463	133.97
260.679	121.68
260.895	11.09
261.112	54.1
261.328	13.14
261.544	99.16
261.761	201.55
261.977	-17.58
262.193	-54.44
262.409	88.92
262.626	4.95
262.842	70.48
263.058	7
263.274	105.3
263.49	4.95
263.707	133.97
263.923	76.63
264.139	-60.59
264.355	27.48
264.571	115.54
264.787	62.29
265.004	113.49
265.22	-3.24
265.436	-3.24
265.652	19.29
265.868	140.12
266.084	-21.67
266.3	29.52
266.516	-17.58
266.732	11.09
266.948	33.62
267.164	-21.67
267.38	33.62
267.596	164.69
267.812	129.88
268.028	58.2
268.244	9.05
268.46	105.3
268.676	52.05
268.892	47.96
269.108	9.05
269.324	-44.2
269.54	50
269.756	43.86
269.972	7
270.188	17.24
270.403	31.57
270.619	43.86
270.835	131.92
271.051	78.68
271.267	13.14
271.483	-19.63
271.698	95.06
271.914	37.72
272.13	82.77
272.346	88.92
272.562	37.72
272.777	142.16
272.993	54.1
273.209	15.19
273.425	101.2
273.64	-42.15
273.856	70.48
274.072	41.81
274.287	-56.49
274.503	68.44
274.719	166.74
274.934	-38.06
275.15	-38.06
275.366	-33.96
275.581	39.76
275.797	9.05
276.012	41.81
276.228	64.34
276.444	56.15
276.659	156.5
276.875	-1.19
277.09	64.34
277.306	25.43
277.521	43.86
277.737	76.63
277.952	39.76
278.168	72.53
278.383	88.92
278.599	29.52
278.814	84.82
279.03	-46.25
279.245	86.87
279.461	-15.53
279.676	123.73
279.892	-40.11
280.107	-27.82
280.322	-46.25
280.538	37.72
280.753	-5.29
280.969	78.68
281.184	33.62
281.399	101.2
281.615	60.24
281.83	101.2
282.045	-89.26
282.26	37.72
282.476	74.58
282.691	140.12
282.906	78.68
283.122	50
283.337	-93.35
283.552	76.63
283.767	23.38
283.983	58.2
284.198	-5.29
284.413	119.64
284.628	-19.63
284.843	97.11
285.058	7
285.274	-17.58
285.489	-46.25
285.704	82.77
285.919	84.82
286.134	45.91
286.349	-31.91
286.564	35.67
286.779	131.92
286.995	4.95
287.21	4.95
287.425	95.06
287.64	-17.58
287.855	115.54
288.07	-99.5
288.285	168.79
288.5	162.64
288.715	113.49
288.93	33.62
289.145	-21.67
289.36	121.68
289.575	7
289.79	160.59
290.004	0.85
290.219	95.06
290.434	-31.91
290.649	23.38
290.864	-62.63
291.079	0.85
291.294	11.09
291.509	39.76
291.724	9.05
291.938	105.3
292.153	82.77
292.368	2.9
292.583	99.16
292.798	84.82
293.012	54.1
293.227	107.35
293.442	80.72
293.657	52.05
293.871	142.16
294.086	107.35
294.301	131.92
294.516	140.12
294.73	54.1
294.945	-64.68
295.16	25.43
295.374	170.83
295.589	109.4
295.804	7
296.018	74.58
296.233	133.97
296.447	60.24
296.662	39.76
296.877	148.31
297.091	86.87
297.306	31.57
297.52	70.48
297.735	93.01
297.949	17.24
298.164	72.53
298.378	58.2
298.593	-7.34
298.807	43.86
299.022	78.68
299.236	217.94
299.451	68.44
299.665	72.53
299.88	-38.06
300.094	109.4
300.309	-7.34
300.523	-9.39
300.737	56.15
300.952	52.05
301.166	56.15
301.381	-29.87
301.595	31.57
301.809	47.96
302.024	-21.67
302.238	-3.24
302.452	119.64
302.667	4.95
302.881	125.78
303.095	119.64
303.309	136.02
303.524	-31.91
303.738	4.95
303.952	-79.02
304.166	136.02
304.381	-58.54
304.595	158.55
304.809	-7.34
305.023	97.11
305.237	50
305.452	-48.3
305.666	93.01
305.88	93.01
306.094	127.83
306.308	148.31
306.522	111.44
306.736	101.2
306.95	50
307.164	99.16
307.379	60.24
307.593	203.6
307.807	164.69
308.021	160.59
308.235	127.83
308.449	-97.45
308.663	13.14
308.877	230.23
309.091	121.68
309.305	47.96
309.519	-56.49
309.733	90.96
309.947	-25.77
310.161	39.76
310.374	78.68
310.588	95.06
310.802	-93.35
311.016	15.19
311.23	125.78
311.444	84.82
311.658	64.34
311.872	125.78
312.085	90.96
312.299	189.27
312.513	138.07
312.727	72.53
312.941	-1.19
313.154	25.43
313.368	43.86
313.582	7
313.796	74.58
314.009	58.2
314.223	183.12
314.437	52.05
314.651	125.78
314.864	-46.25
315.078	45.91
315.292	-89.26
315.505	15.19
315.719	86.87
315.933	86.87
316.146	21.33
316.36	70.48
316.573	154.45
316.787	33.62
317.001	29.52
317.214	50
317.428	78.68
317.641	9.05
317.855	-46.25
318.068	127.83
318.282	37.72
318.495	172.88
318.709	97.11
318.922	27.48
319.136	95.06
319.349	86.87
319.563	-7.34
319.776	70.48
319.99	-44.2
320.203	88.92
320.417	29.52
320.63	66.39
320.843	193.36
321.057	64.34
321.27	62.29
321.483	115.54
321.697	158.55
321.91	-29.87
322.124	29.52
322.337	64.34
322.55	-9.39
322.763	70.48
322.977	-11.43
323.19	4.95
323.403	31.57
323.617	43.86
323.83	158.55
324.043	60.24
324.256	58.2
324.469	-66.73
324.683	158.55
324.896	84.82
325.109	2.9
325.322	-42.15
325.535	142.16
325.748	72.53
325.962	29.52
326.175	43.86
326.388	72.53
326.601	187.22
326.814	90.96
327.027	111.44
327.24	191.31
327.453	-33.96
327.666	136.02
327.879	70.48
328.092	64.34
328.305	31.57
328.518	54.1
328.731	-50.35
328.944	33.62
329.157	52.05
329.37	56.15
329.583	146.26
329.796	119.64
330.009	-97.45
330.222	93.01
330.435	35.67
330.648	117.59
330.861	66.39
331.073	27.48
331.286	158.55
331.499	86.87
331.712	-40.11
331.925	111.44
332.138	27.48
332.35	78.68
332.563	35.67
332.776	74.58
332.989	11.09
333.202	35.67
333.414	41.81
333.627	-13.48
333.84	31.57
334.053	115.54
334.265	-31.91
334.478	27.48
334.691	-1.19
334.903	-5.29
335.116	-36.01
335.329	72.53
335.541	66.39
335.754	144.21
335.966	31.57
336.179	62.29
336.392	-15.53
336.604	4.95
336.817	129.88
337.029	76.63
337.242	37.72
337.454	113.49
337.667	41.81
337.88	164.69
338.092	97.11
338.305	82.77
338.517	-27.82
338.729	109.4
338.942	113.49
339.154	-9.39
339.367	19.29
339.579	86.87
339.792	-66.73
340.004	66.39
340.217	31.57
340.429	133.97
340.641	-56.49
340.854	4.95
341.066	-5.29
341.278	113.49
341.491	172.88
341.703	23.38
341.915	-29.87
342.128	138.07
342.34	97.11
342.552	-13.48
342.764	88.92
342.977	13.14
343.189	68.44
343.401	121.68
343.613	-38.06
343.826	52.05
344.038	-93.35
344.25	125.78
344.462	-44.2
344.674	86.87
344.886	74.58
345.099	74.58
345.311	90.96
345.523	23.38
345.735	50
345.947	-1.19
346.159	90.96
346.371	56.15
346.583	-3.24
346.795	174.93
347.007	19.29
347.219	93.01
347.431	80.72
347.643	88.92
347.855	-9.39
348.067	84.82
348.279	-33.96
348.491	27.48
348.703	142.16
348.915	19.29
349.127	-1.19
349.339	80.72
349.551	88.92
349.763	115.54
349.975	27.48
350.187	70.48
350.399	125.78
350.61	93.01
350.822	43.86
351.034	117.59
351.246	60.24
351.458	80.72
351.669	70.48
351.881	70.48
352.093	90.96
352.305	78.68
352.517	29.52
352.728	172.88
352.94	45.91
353.152	113.49
353.363	4.95
353.575	80.72
353.787	144.21
353.999	4.95
354.21	191.31
354.422	58.2
354.633	0.85
354.845	15.19
355.057	52.05
355.268	39.76
355.48	33.62
355.692	-87.21
355.903	78.68
356.115	-60.59
356.326	-122.02
356.538	193.36
356.749	76.63
356.961	148.31
357.172	62.29
357.384	-17.58
357.595	226.13
357.807	27.48
358.018	66.39
358.23	17.24
358.441	199.51
358.653	56.15
358.864	9.05
359.075	4.95
359.287	56.15
359.498	205.65
359.709	172.88
359.921	50
360.132	103.25
360.344	-27.82
360.555	-23.72
360.766	45.91
360.977	-11.43
361.189	162.64
361.4	-27.82
361.611	101.2
361.823	111.44
362.034	52.05
362.245	-42.15
362.456	4.95
362.667	170.83
362.879	-38.06
363.09	74.58
363.301	70.48
363.512	88.92
363.723	-50.35
363.935	29.52
364.146	131.92
364.357	68.44
364.568	21.33
364.779	-54.44
364.99	138.07
365.201	-40.11
365.412	154.45
365.623	-25.77
365.834	101.2
366.045	45.91
366.256	74.58
366.467	50
366.678	2.9
366.889	19.29
367.1	80.72
367.311	84.82
367.522	17.24
367.733	138.07
367.944	72.53
368.155	86.87
368.366	129.88
368.577	56.15
368.788	109.4
368.999	7
369.209	82.77
369.42	199.51
369.631	162.64
369.842	123.73
370.053	72.53
370.264	78.68
370.474	17.24
370.685	119.64
370.896	80.72
371.107	131.92
371.317	93.01
371.528	103.25
371.739	140.12
371.95	174.93
372.16	142.16
372.371	-60.59
372.582	-1.19
372.792	68.44
373.003	31.57
373.214	115.54
373.424	115.54
373.635	-15.53
373.846	250.71
374.056	45.91
374.267	13.14
374.477	168.79
374.688	45.91
374.898	70.48
375.109	105.3
375.319	62.29
375.53	125.78
375.74	148.31
375.951	17.24
376.161	52.05
376.372	54.1
376.582	25.43
376.793	74.58
377.003	-33.96
377.214	19.29
377.424	109.4
377.635	19.29
377.845	17.24
378.055	183.12
378.266	-19.63
378.476	19.29
378.686	95.06
378.897	86.87
379.107	136.02
379.317	58.2
379.528	4.95
379.738	101.2
379.948	-83.11
380.158	160.59
380.369	47.96
380.579	140.12
380.789	21.33
380.999	68.44
381.21	68.44
381.42	279.38
381.63	70.48
381.84	33.62
382.05	76.63
382.261	93.01
382.471	158.55
382.681	39.76
382.891	170.83
383.101	43.86
383.311	-38.06
383.521	-42.15
383.731	131.92
383.941	121.68
384.151	78.68
384.361	66.39
384.571	111.44
384.781	54.1
384.991	262.99
385.201	123.73
385.411	72.53
385.621	109.4
385.831	25.43
386.041	13.14
386.251	129.88
386.461	179.03
386.671	-33.96
386.881	54.1
387.091	7
387.301	168.79
387.511	72.53
387.72	95.06
387.93	144.21
388.14	-15.53
388.35	115.54
388.56	138.07
388.769	95.06
388.979	80.72
389.189	66.39
389.399	33.62
389.609	0.85
389.818	109.4
390.028	86.87
390.238	136.02
390.447	37.72
390.657	39.76
390.867	62.29
391.076	17.24
391.286	50
391.496	39.76
391.705	162.64
391.915	148.31
392.125	123.73
392.334	-1.19
392.544	99.16
392.753	31.57
392.963	60.24
393.172	80.72
393.382	-42.15
393.591	236.37
393.801	11.09
394.01	148.31
394.22	121.68
394.429	-50.35
394.639	70.48
394.848	-9.39
395.058	66.39
395.267	131.92
395.477	131.92
395.686	64.34
395.895	138.07
396.105	170.83
396.314	70.48
396.524	-3.24
396.733	-29.87
396.942	193.36
397.152	74.58
397.361	105.3
397.57	43.86
397.78	117.59
397.989	133.97
398.198	234.32
398.407	56.15
398.617	93.01
398.826	25.43
399.035	-27.82
399.244	82.77
399.453	90.96
399.663	88.92
399.872	129.88
400.081	27.48
400.29	189.27
400.499	-27.82
400.708	107.35
400.917	43.86
401.127	31.57
401.336	58.2
401.545	209.75
401.754	144.21
401.963	64.34
402.172	11.09
402.381	23.38
402.59	29.52
402.799	88.92
403.008	127.83
403.217	23.38
403.426	50
403.635	-25.77
403.844	47.96
404.053	31.57
404.262	41.81
404.471	166.74
404.68	68.44
404.888	58.2
405.097	62.29
405.306	47.96
405.515	140.12
405.724	27.48
405.933	97.11
406.142	111.44
406.35	226.13
406.559	4.95
406.768	88.92
406.977	121.68
407.185	66.39
407.394	95.06
407.603	25.43
407.812	4.95
408.02	131.92
408.229	52.05
408.438	60.24
408.646	11.09
408.855	-9.39
409.064	136.02
409.272	58.2
409.481	119.64
409.69	-36.01
409.898	0.85
410.107	56.15
410.315	133.97
410.524	-7.34
410.733	60.24
410.941	35.67
411.15	99.16
411.358	84.82
411.567	234.32
411.775	15.19
411.984	23.38
412.192	13.14
412.401	21.33
412.609	154.45
412.818	136.02
413.026	64.34
413.234	27.48
413.443	133.97
413.651	13.14
413.86	17.24
414.068	209.75
414.276	185.17
414.485	-64.68
414.693	93.01
414.901	129.88
415.11	119.64
415.318	25.43
415.526	62.29
415.734	58.2
415.943	-11.43
416.151	187.22
416.359	86.87
416.567	52.05
416.776	84.82
416.984	127.83
417.192	127.83
417.4	-44.2
417.608	37.72
417.817	97.11
418.025	58.2
418.233	154.45
418.441	39.76
418.649	-36.01
418.857	95.06
419.065	60.24
419.273	86.87
419.481	115.54
419.689	-11.43
419.897	39.76
420.105	-11.43
420.313	131.92
420.521	189.27
420.729	93.01
420.937	43.86
421.145	37.72
421.353	115.54
421.561	144.21
421.769	107.35
421.977	-13.48
422.185	158.55
422.393	2.9
422.601	88.92
422.809	101.2
423.017	64.34
423.224	146.26
423.432	191.31
423.64	2.9
423.848	64.34
424.056	-25.77
424.263	90.96
424.471	35.67
424.679	168.79
424.887	-23.72
425.094	158.55
425.302	76.63
425.51	33.62
425.718	103.25
425.925	82.77
426.133	-46.25
426.341	183.12
426.548	56.15
426.756	84.82
426.964	97.11
427.171	17.24
427.379	56.15
427.586	164.69
427.794	136.02
428.001	136.02
428.209	129.88
428.417	164.69
428.624	150.36
428.832	70.48
429.039	68.44
429.247	152.4
429.454	80.72
429.662	174.93
429.869	99.16
430.076	113.49
430.284	174.93
430.491	201.55
430.699	115.54
430.906	191.31
431.114	97.11
431.321	158.55
431.528	90.96
431.736	162.64
431.943	123.73
432.15	238.42
432.358	150.36
432.565	318.29
432.772	-9.39
432.979	242.51
433.187	76.63
433.394	262.99
433.601	133.97
433.808	238.42
434.016	207.7
434.223	269.14
434.43	254.8
434.637	211.79
434.844	295.76
435.052	228.18
435.259	254.8
435.466	246.61
435.673	226.13
435.88	344.91
436.087	277.33
436.294	396.11
436.501	250.71
436.708	269.14
436.915	340.82
437.122	336.72
437.329	224.08
437.537	316.24
437.743	371.54
437.95	480.08
438.157	342.86
438.364	357.2
438.571	404.3
438.778	394.06
438.985	439.12
439.192	506.7
439.399	381.78
439.606	430.93
439.813	531.28
440.02	611.15
440.227	641.87
440.433	566.09
440.64	449.36
440.847	568.14
441.054	539.47
441.261	660.3
441.467	562
441.674	549.71
441.881	643.92
442.088	576.33
442.294	770.89
442.501	717.64
442.708	758.6
442.914	846.66
443.121	828.23
443.328	881.48
443.534	887.62
443.741	881.48
443.948	815.94
444.154	981.83
444.361	1186.63
444.568	942.92
444.774	850.76
444.981	932.68
445.187	1153.86
445.394	1071.94
445.6	1117
445.807	1325.89
446.013	1291.07
446.22	1055.56
446.426	1286.98
446.633	1344.32
446.839	1592.13
447.046	1391.42
447.252	1555.26
447.459	1633.08
447.665	1657.66
447.871	1878.84
448.078	1868.6
448.284	1907.51
448.491	2063.16
448.697	2036.53
448.903	2210.61
449.11	2214.71
449.316	2036.53
449.522	2478.9
449.728	2388.78
449.935	2372.4
450.141	2468.66
450.347	2583.34
450.553	2632.49
450.76	2710.32
450.966	2933.54
451.172	3031.85
451.378	3048.23
451.584	3160.87
451.791	3431.2
451.997	3447.58
452.203	3304.23
452.409	3738.4
452.615	3908.38
452.821	3699.48
453.027	3939.1
453.233	4408.08
453.44	4240.15
453.646	4569.87
453.852	4616.97
454.058	4696.85
454.264	4870.92
454.47	5331.72
454.676	5366.53
454.882	5663.49
455.088	5384.96
455.294	5747.45
455.5	6222.58
455.705	6447.86
455.911	6568.69
456.117	6636.27
456.323	7088.87
456.529	7047.91
456.735	7770.85
456.941	7820
457.147	8182.49
457.352	8260.31
457.558	8579.79
457.764	9263.82
457.97	9321.16
458.176	9722.56
458.381	10119.87
458.587	10228.41
458.793	10789.55
458.999	10947.25
459.204	12087.96
459.41	12468.89
459.616	12386.97
459.821	13257.36
460.027	13736.58
460.233	14533.24
460.438	14389.88
460.644	15417.96
460.85	15170.16
461.055	16245.34
461.261	16855.64
461.466	16527.96
461.672	16489.05
461.878	18461.24
462.083	18541.11
462.289	18965.04
462.494	19733.03
462.7	19581.48
462.905	20056.61
463.111	21936.65
463.316	23079.41
463.522	22940.15
463.727	24041.96
463.932	24705.5
464.138	25709.01
464.343	26448.32
464.549	26878.4
464.754	28918.17
464.959	29366.68
465.165	29780.37
465.37	29671.82
465.575	29712.78
465.781	31922.54
465.986	32608.61
466.191	31963.5
466.397	32538.98
466.602	31781.23
466.807	33792.34
467.012	33892.69
467.218	34609.48
467.423	34654.53
467.628	35832.11
467.833	37486.87
468.038	36673.83
468.244	36557.1
468.449	38361.36
468.654	37431.58
468.859	37390.62
469.064	37081.38
469.269	36567.34
469.474	36620.58
469.679	37505.31
469.885	36616.49
470.09	37429.53
470.295	37327.13
470.5	36186.41
470.705	36913.44
470.91	35715.38
471.115	35410.23
471.32	35776.82
471.525	35971.38
471.73	34589
471.935	34246.99
472.139	33241.43
472.344	33272.15
472.549	33106.27
472.754	32375.14
472.959	31463.8
473.164	30423.43
473.369	30167.43
473.574	31037.82
473.778	30030.22
473.983	29741.46
474.188	29204.89
474.393	27888.04
474.598	27898.28
474.802	27105.72
475.007	26823.1
475.212	26649.02
475.417	25549.26
475.621	25291.22
475.826	25170.39
476.031	24576.48
476.235	24066.53
476.44	23941.61
476.645	23101.94
476.849	22886.9
477.054	22561.28
477.259	22297.09
477.463	22161.92
477.668	21627.4
477.872	21465.61
478.077	21039.64
478.282	20142.63
478.486	20281.89
478.691	19880.49
478.895	19845.67
479.1	19630.63
479.304	19323.44
479.509	18774.58
479.713	18893.37
479.918	18774.58
480.122	18311.74
480.326	18457.15
480.531	18436.67
480.735	17975.88
480.94	17941.06
481.144	18393.66
481.348	17427.02
481.553	17592.9
481.757	17117.78
481.961	17502.79
482.166	17597
482.37	16990.8
482.574	16503.39
482.778	16640.6
482.983	16951.89
483.187	16681.56
483.391	16734.81
483.595	16403.04
483.8	15999.59
484.004	15954.53
484.208	16194.14
484.412	15827.56
484.616	15479.4
484.821	15321.71
485.025	14918.26
485.229	15399.53
485.433	14887.54
485.637	14643.83
485.841	14303.87
486.045	14226.04
486.249	14295.68
486.453	13757.06
486.657	14008.96
486.861	13611.65
487.065	13191.82
487.269	13134.48
487.473	12464.79
487.677	13030.03
487.881	12921.49
488.085	12534.42
488.289	12133.02
488.493	11905.7
488.697	11803.3
488.901	11555.49
489.105	11358.89
489.309	10992.3
489.512	11109.04
489.716	10973.87
489.92	10488.5
490.124	10128.06
490.328	10435.25
490.531	9870.01
490.735	10037.95
490.939	9728.7
491.143	9485
491.346	9214.66
491.55	9489.09
491.754	9091.79
491.958	9022.16
492.161	8839.89
492.365	8751.82
492.569	8368.85
492.772	8465.11
492.976	8278.74
493.18	8071.9
493.383	8190.68
493.587	7826.14
493.79	8116.95
493.994	7695.07
494.197	7596.77
494.401	7772.89
494.605	7455.46
494.808	7543.52
495.012	7547.62
495.215	7523.04
495.419	7465.7
495.622	7164.65
495.825	7232.23
496.029	7092.97
496.232	7250.66
496.436	6951.66
496.639	7064.3
496.843	7080.68
497.046	7113.45
497.249	7207.66
497.453	7197.42
497.656	7246.57
497.859	7113.45
498.063	7099.11
498.266	7414.5
498.469	7049.96
498.673	7234.28
498.876	7289.57
499.079	7221.99
499.282	7267.05
499.485	7500.51
499.689	7385.83
499.892	7375.59
500.095	7447.27
500.298	7494.37
500.501	7396.07
500.705	7713.5
500.908	7475.94
501.111	7865.05
501.314	7826.14
501.517	7932.64
501.72	8055.51
501.923	7955.16
502.126	8151.77
502.329	8172.25
502.532	8383.19
502.735	8338.13
502.938	8764.11
503.141	8508.12
503.344	8612.56
503.547	9018.06
503.75	8878.8
503.953	9079.5
504.156	9032.4
504.359	9278.15
504.562	9398.98
504.765	9634.5
504.968	9779.9
505.17	9736.9
505.373	9972.41
505.576	10277.56
505.779	10371.77
505.982	10242.75
506.185	10681.01
506.387	10721.97
506.59	11102.89
506.793	11123.37
506.996	11229.87
507.198	11561.64
507.401	11645.6
507.604	12188.32
507.807	12331.67
508.009	12518.04
508.212	12669.59
508.415	12933.78
508.617	13326.99
508.82	13308.55
509.022	13486.73
509.225	14113.41
509.428	14326.39
509.63	14701.17
509.833	14686.84
510.035	15465.07
510.238	15606.38
510.44	15950.43
510.643	16331.36
510.845	16706.13
511.048	16898.64
511.25	17435.21
511.453	17558.09
511.655	18471.48
511.858	18586.17
512.06	18709.05
512.262	19413.55
512.465	19751.46
512.667	20111.91
512.87	20716.06
513.072	21115.41
513.274	21621.26
513.477	21983.75
513.679	22612.48
513.881	23474.67
514.084	23542.25
514.286	23632.36
514.488	24556
514.69	25577.94
514.893	25881.03
515.095	26208.71
515.297	26769.85
515.499	27486.64
515.701	28012.97
515.904	28455.33
516.106	29743.5
516.308	30114.19
516.51	30196.1
516.712	30523.78
516.914	31543.67
517.116	32317.8
517.318	32465.25
517.52	33169.76
517.722	33694.04
517.925	34531.65
518.127	35176.76
518.329	35813.68
518.531	36051.25
518.733	36716.84
518.935	37527.83
519.136	38027.54
519.338	38633.74
519.54	39125.25
519.742	39934.2
519.944	40130.8
520.146	41042.15
520.348	41386.21
520.55	41984.21
520.752	42070.23
520.954	43129.03
521.155	43120.84
521.357	44212.4
521.559	44746.92
521.761	45340.83
521.963	45387.94
522.164	45854.87
522.366	45666.46
522.568	46805.13
522.77	46588.05
522.971	47693.95
523.173	47081.61
523.375	47968.38
523.576	48457.84
523.778	47911.03
523.98	48975.98
524.181	49033.32
524.383	48928.87
524.584	49432.68
524.786	49193.06
524.988	48853.1
525.189	49627.23
525.391	49578.08
525.592	49965.15
525.794	49774.69
525.995	49573.98
526.197	49459.3
526.398	49055.85
526.6	49422.44
526.801	49412.2
527.003	49320.04
527.204	48951.4
527.406	49074.28
527.607	48533.62
527.808	49000.55
528.01	47661.18
528.211	48386.16
528.412	47896.7
528.614	47845.5
528.815	47239.3
529.016	47593.6
529.218	46071.96
529.419	46549.14
529.62	45883.55
529.822	45596.83
530.023	44820.65
530.224	44527.79
530.425	43915.45
530.626	43589.82
530.828	42979.53
531.029	43569.34
531.23	42363.09
531.431	41898.2
531.632	41732.31
531.833	41216.22
532.035	40759.53
532.236	40012.02
532.437	39727.35
532.638	38983.94
532.839	38793.48
533.04	38490.38
533.241	37306.65
533.442	37464.35
533.643	36931.87
533.844	36704.55
534.045	35746.1
534.246	35115.33
534.447	35008.83
534.648	34773.31
534.849	34316.62
535.05	33579.35
535.251	32649.57
535.451	32672.1
535.652	32299.37
535.853	31596.92
536.054	31396.21
536.255	30630.27
536.456	30257.54
536.657	30798.21
536.857	29368.73
537.058	29274.52
537.259	29338.01
537.46	28551.59
537.66	28369.32
537.861	28000.68
538.062	27543.99
538.263	27017.66
538.463	26814.91
538.664	26286.53
538.865	26116.55
539.065	25739.72
539.266	25258.45
539.466	25469.39
539.667	24502.75
539.868	24533.47
540.068	24089.06
540.269	24031.72
540.469	23671.28
540.67	23452.14
540.87	23157.24
541.071	22823.42
541.271	22735.35
541.472	22346.24
541.672	21940.74
541.873	21674.51
542.073	21281.3
542.274	21758.47
542.474	21168.66
542.675	20816.41
542.875	20544.03
543.075	20560.41
543.276	19958.31
543.476	20417.05
543.676	19833.38
543.877	19481.13
544.077	19524.14
544.277	19255.86
544.478	19044.91
544.678	18856.5
544.878	18481.72
545.078	18405.95
545.279	17910.34
545.479	17982.02
545.679	17482.31
545.879	17566.28
546.079	17457.74
546.28	17203.79
546.48	16939.6
546.68	16831.06
546.88	16300.64
547.08	16333.4
547.28	16089.7
547.48	15606.38
547.68	15784.55
547.88	15622.76
548.081	15448.68
548.281	14860.91
548.481	14750.32
548.681	14957.17
548.881	14533.24
549.081	14494.33
549.28	14236.28
549.48	14084.73
549.68	13900.42
549.88	13939.33
550.08	13275.79
550.28	13271.69
550.48	13122.19
550.68	13021.84
550.88	12661.4
551.08	12472.98
551.279	12626.58
551.479	12051.1
551.679	12165.79
551.879	11684.52
552.079	11797.15
552.278	11350.7
552.478	11608.74
552.678	11248.3
552.878	11051.69
553.077	10662.58
553.277	10750.64
553.477	10672.82
553.676	10570.42
553.876	10162.87
554.076	9984.7
554.275	10001.08
554.475	9528
554.674	9624.26
554.874	9278.15
555.074	9110.22
555.273	9149.13
555.473	8964.81
555.672	8719.06
555.872	8547.03
556.071	8630.99
556.271	8461.01
556.47	8176.34
556.67	8168.15
556.869	7985.88
557.068	7891.68
557.268	7774.94
557.467	7537.38
557.667	7490.28
557.866	7305.96
558.065	7215.85
558.265	7162.6
558.464	7052.01
558.663	6966
558.863	6894.32
559.062	6886.12
559.261	6525.68
559.461	6695.66
559.66	6425.33
559.859	6320.88
560.058	6159.1
560.258	6081.27
560.457	6036.22
560.656	6253.3
560.855	5827.32
561.054	5823.23
561.253	5649.15
561.453	5671.68
561.652	5550.85
561.851	5524.23
562.05	5225.22
562.249	5067.53
562.448	5194.5
562.647	4875.02
562.846	5004.04
563.045	4958.99
563.244	4895.5
563.443	4887.31
563.642	4645.65
563.841	4655.89
564.04	4651.79
564.239	4604.69
564.438	4492.05
564.637	4367.12
564.836	4248.34
565.035	4176.66
565.234	4172.57
565.432	4244.24
565.631	4127.51
565.83	3967.77
566.029	3857.18
566.228	3902.23
566.427	3869.47
566.625	3709.72
566.824	3822.36
567.023	3650.33
567.222	3636
567.42	3523.36
567.619	3638.05
567.818	3529.5
568.016	3621.66
568.215	3537.7
568.414	3392.29
568.612	3353.38
568.811	3261.22
569.01	3259.17
569.208	3054.37
569.407	3179.3
569.605	3095.33
569.804	3064.61
570.002	3013.42
570.201	2964.26
570.4	2982.7
570.598	2769.71
570.797	2786.09
570.995	2761.52
571.193	2775.85
571.392	2743.08
571.59	2632.49
571.789	2687.79
571.987	2577.2
572.186	2691.88
572.384	2427.7
572.582	2499.38
572.781	2554.67
572.979	2278.19
573.177	2331.44
573.376	2319.15
573.574	2392.88
573.772	2347.83
573.971	2153.27
574.169	2202.42
574.367	2179.89
574.565	2108.21
574.763	2073.4
574.962	2147.12
575.16	1858.36
575.358	1981.24
575.556	1973.05
575.754	1989.43
575.952	1973.05
576.151	1850.17
576.349	2018.1
576.547	1801.02
576.745	1860.41
576.943	1882.94
577.141	1708.86
577.339	1663.8
577.537	1622.84
577.735	1710.91
577.933	1669.95
578.131	1506.11
578.329	1645.37
578.527	1416
578.725	1600.32
578.923	1436.48
579.121	1436.48
579.319	1280.83
579.516	1452.86
579.714	1514.3
579.912	1338.18
580.11	1284.93
580.308	1241.92
580.506	1291.07
580.704	1186.63
580.901	1258.31
581.099	1286.98
581.297	1295.17
581.495	1286.98
581.692	1295.17
581.89	1416
582.088	1227.59
582.285	1180.48
582.483	1252.16
582.681	1078.08
582.878	1243.97
583.076	1170.24
583.274	1153.86
583.471	1192.77
583.669	1065.8
583.866	951.11
584.064	1024.84
584.262	897.86
584.459	957.25
584.657	1045.32
584.854	1033.03
585.052	1006.41
585.249	990.02
585.447	947.01
585.644	826.18
585.841	928.58
586.039	1018.69
586.236	965.45
586.434	840.52
586.631	709.45
586.828	836.42
587.026	828.23
587.223	715.59
587.42	746.31
587.618	858.95
587.815	850.76
588.012	768.84
588.21	727.88
588.407	783.18
588.604	797.51
588.801	789.32
588.999	674.64
589.196	779.08
589.393	725.83
589.59	789.32
589.787	766.79
589.984	781.13
590.182	672.59
590.379	611.15
590.576	535.37
590.773	631.63
590.97	727.88
591.167	705.35
591.364	648.01
591.561	645.96
591.758	754.51
591.955	686.92
592.152	686.92
592.349	672.59
592.546	592.72
592.743	562
592.94	662.35
593.137	768.84
593.334	740.17
593.531	752.46
593.727	781.13
593.924	758.6
594.121	658.25
594.318	643.92
594.515	736.07
594.712	871.24
594.908	824.14
595.105	668.49
595.302	676.68
595.499	787.27
595.696	832.33
595.892	709.45
596.089	781.13
596.286	729.93
596.482	914.25
596.679	817.99
596.876	695.11
597.072	904.01
597.269	920.39
597.466	889.67
597.662	873.29
597.859	979.78
598.055	965.45
598.252	1030.98
598.448	1157.96
598.645	1094.47
598.841	1092.42
599.038	1190.72
599.234	1256.26
599.431	1160
599.627	1334.08
599.824	1377.09
600.02	1346.37
600.217	1416
600.413	1456.96
600.609	1450.82
600.806	1780.54
601.002	1624.89
601.198	1633.08
601.395	1719.1
601.591	1764.15
601.787	1850.17
601.984	1973.05
602.18	2044.73
602.376	2136.88
602.572	2214.71
602.769	2476.85
602.965	2255.67
603.161	2366.26
603.357	2515.76
603.553	2585.39
603.75	2652.97
603.946	2675.5
604.142	2843.43
604.338	3019.56
604.534	3070.76
604.73	3234.6
604.926	3158.82
605.122	3363.62
605.318	3390.24
605.514	3554.08
605.71	3560.22
605.906	3865.37
606.102	3894.04
606.298	4143.89
606.494	4191
606.69	4268.82
606.886	4401.94
607.082	4426.51
607.278	4444.95
607.474	4729.61
607.67	4825.87
607.866	4805.39
608.062	5155.59
608.257	5264.13
608.453	5182.21
608.649	5567.23
608.845	5554.94
609.041	5761.79
609.236	6038.27
609.432	6189.81
609.628	6277.88
609.824	6396.66
610.019	6398.71
610.215	6834.93
610.411	7174.89
610.606	7299.81
610.802	7273.19
610.998	7371.49
611.193	7664.35
611.389	7811.81
611.584	8092.38
611.78	8112.86
611.976	8483.54
612.171	8866.51
612.367	9052.88
612.562	9173.71
612.758	9339.59
612.953	9519.81
613.149	9976.51
613.344	10246.84
613.539	10490.55
613.735	10533.56
613.93	10930.86
614.126	11131.56
614.321	11661.99
614.517	11870.88
614.712	12311.19
614.907	12374.68
615.103	12880.53
615.298	13048.46
615.493	13310.6
615.688	13607.56
615.884	14512.76
616.079	14088.83
616.274	14983.79
616.47	15039.09
616.665	15577.7
616.86	15768.16
617.055	16163.42
617.25	16540.25
617.445	17035.86
617.641	17373.77
617.836	18000.45
618.031	18491.96
618.226	18786.87
618.421	19059.25
618.616	20034.08
618.811	19968.55
619.006	20476.44
619.201	20840.98
619.396	21473.81
619.591	21690.89
619.786	22665.72
619.981	22698.49
620.176	23349.75
620.371	23697.9
620.566	24261.09
620.761	24768.99
620.956	25332.18
621.151	25326.03
621.346	26229.19
621.541	26440.13
621.735	27462.07
621.93	27691.44
622.125	28281.25
622.32	28299.69
622.515	29063.58
622.709	29704.59
622.904	30206.34
623.099	30423.43
623.294	31392.12
623.488	31502.71
623.683	32371.05
623.878	32412.01
624.072	33079.64
624.267	33616.21
624.462	34289.99
624.656	34470.22
624.851	34947.39
625.046	35494.2
625.24	36239.66
625.435	36303.15
625.629	36817.19
625.824	37609.75
626.018	37984.53
626.213	37495.07
626.407	38826.24
626.602	38478.09
626.796	39155.97
626.991	39803.13
627.185	39934.2
627.38	40128.75
627.574	40417.52
627.768	40048.88
627.963	40823.01
628.157	40577.26
628.352	41081.06
628.546	40706.28
628.74	41695.45
628.935	40376.56
629.129	40751.34
629.323	40046.83
629.517	40071.41
629.712	39645.43
629.906	39997.68
630.1	38897.92
630.294	38773
630.489	37982.48
630.683	37681.43
630.877	36878.63
631.071	36376.87
631.265	36172.08
631.459	34998.59
631.653	33913.17
631.848	33380.7
632.042	32555.36
632.236	31838.58
632.43	30916.99
632.624	30187.91
632.818	29018.52
633.012	28023.21
633.206	27357.62
633.4	26458.56
633.594	25366.99
633.788	24836.57
633.982	23835.11
634.176	23030.26
634.369	21924.36
634.563	21246.48
634.757	20290.08
634.951	19579.43
635.145	19030.58
635.339	18145.86
635.533	17322.57
635.726	16804.44
635.92	15819.36
636.114	15487.59
636.308	14686.84
636.501	14201.47
636.695	13560.45
636.889	12896.91
637.083	12374.68
637.276	11963.04
637.47	11496.1
637.664	11156.14
637.857	10595
638.051	10144.44
638.244	9669.31
638.438	9437.89
638.632	8960.72
638.825	8565.46
639.019	8358.61
639.212	7850.72
639.406	7744.22
639.599	7305.96
639.793	7056.11
639.986	6777.58
640.18	6601.46
640.373	6337.27
640.567	5743.36
640.76	5849.85
640.954	5524.23
641.147	5329.67
641.34	4932.36
641.534	4938.51
641.727	4883.21
641.92	4672.27
642.114	4475.67
642.307	4238.1
642.5	4082.46
642.694	3932.95
642.887	3633.95
643.08	3799.84
643.273	3636
643.467	3226.4
643.66	3167.01
643.853	3109.67
644.046	3093.29
644.239	2886.44
644.432	2691.88
644.626	2591.53
644.819	2523.95
645.012	2394.93
645.205	2497.33
645.398	2325.3
645.591	2130.74
645.784	2110.26
645.977	1864.5
646.17	1809.21
646.363	1903.42
646.556	1667.9
646.749	1628.99
646.942	1731.39
647.135	1573.69
647.328	1567.55
647.521	1469.25
647.714	1522.49
647.907	1379.14
648.099	1182.53
648.292	1350.46
648.485	1391.42
648.678	1102.66
648.871	1162.05
649.064	1129.28
649.256	1033.03
649.449	883.53
649.642	944.97
649.835	944.97
650.027	912.2
650.22	1020.74
650.413	852.81
650.605	793.42
650.798	766.79
650.991	799.56
651.183	815.94
651.376	774.99
651.568	820.04
651.761	668.49
651.954	729.93
652.146	682.83
652.339	772.94
652.531	625.48
652.724	518.99
652.916	555.85
653.109	422.73
653.301	672.59
653.494	619.34
653.686	551.76
653.879	609.1
654.071	488.27
654.263	437.07
654.456	459.6
654.648	535.37
654.84	492.37
655.033	310.1
655.225	529.23
655.417	291.66
655.61	574.28
655.802	467.79
655.994	480.08
656.186	269.14
656.379	394.06
656.571	240.47
656.763	271.19
656.955	238.42
657.148	322.38
657.34	385.87
657.532	244.56
657.724	291.66
657.916	273.23
658.108	340.82
658.3	340.82
658.492	330.58
658.684	170.83
658.876	269.14
659.068	152.4
659.26	211.79
659.452	170.83
659.644	326.48
659.836	371.54
660.028	258.9
660.22	211.79
660.412	281.43
660.604	217.94
660.796	283.47
660.988	322.38
661.18	242.51
661.372	236.37
661.563	138.07
661.755	152.4
661.947	150.36
662.139	172.88
662.331	232.27
662.522	166.74
662.714	168.79
662.906	164.69
663.097	152.4
663.289	201.55
663.481	47.96
663.673	154.45
663.864	136.02
664.056	168.79
664.247	68.44
664.439	244.56
664.631	232.27
664.822	189.27
665.014	248.66
665.205	156.5
665.397	160.59
665.588	172.88
665.78	90.96
665.971	199.51
666.163	41.81
666.354	170.83
666.546	72.53
666.737	148.31
666.929	158.55
667.12	158.55
667.311	131.92
667.503	93.01
667.694	162.64
667.885	146.26
668.077	170.83
668.268	19.29
668.459	107.35
668.651	168.79
668.842	127.83
669.033	72.53
669.224	43.86
669.416	271.19
669.607	35.67
669.798	86.87
669.989	209.75
670.18	119.64
670.371	115.54
670.563	64.34
670.754	166.74
670.945	140.12
671.136	160.59
671.327	86.87
671.518	254.8
671.709	240.47
671.9	176.98
672.091	191.31
672.282	160.59
672.473	146.26
672.664	9.05
672.855	70.48
673.046	170.83
673.237	133.97
673.428	76.63
673.619	197.46
673.809	117.59
674	150.36
674.191	181.07
674.382	123.73
674.573	185.17
674.764	97.11
674.954	105.3
675.145	35.67
675.336	97.11
675.527	109.4
675.717	43.86
675.908	76.63
676.099	0.85
676.289	136.02
676.48	9.05
676.671	150.36
676.861	105.3
677.052	129.88
677.243	68.44
677.433	74.58
677.624	217.94
677.814	121.68
678.005	84.82
678.195	271.19
678.386	52.05
678.576	103.25
678.767	-13.48
678.957	168.79
679.148	195.41
679.338	301.9
679.529	193.36
679.719	84.82
679.909	174.93
680.1	146.26
680.29	119.64
680.481	-40.11
680.671	240.47
680.861	234.32
681.052	119.64
681.242	131.92
681.432	219.99
681.622	170.83
681.813	93.01
682.003	109.4
682.193	119.64
682.383	170.83
682.573	121.68
682.764	105.3
682.954	224.08
683.144	242.51
683.334	152.4
683.524	156.5
683.714	174.93
683.904	203.6
684.094	150.36
684.284	219.99
684.474	267.09
684.664	164.69
684.854	217.94
685.044	170.83
685.234	127.83
685.424	162.64
685.614	119.64
685.804	269.14
685.994	193.36
686.184	224.08
686.374	211.79
686.564	140.12
686.753	166.74
686.943	119.64
687.133	232.27
687.323	193.36
687.513	154.45
687.702	150.36
687.892	258.9
688.082	199.51
688.272	256.85
688.461	201.55
688.651	332.62
688.841	179.03
689.03	211.79
689.22	195.41
689.41	136.02
689.599	183.12
689.789	84.82
689.979	242.51
690.168	224.08
690.358	125.78
690.547	152.4
690.737	219.99
690.926	242.51
691.116	232.27
691.305	219.99
691.495	183.12
691.684	74.58
691.874	119.64
692.063	160.59
692.252	201.55
692.442	211.79
692.631	152.4
692.82	127.83
693.01	217.94
693.199	140.12
693.388	199.51
693.578	164.69
693.767	170.83
693.956	162.64
694.146	170.83
694.335	189.27
694.524	93.01
694.713	236.37
694.902	86.87
695.092	125.78
695.281	148.31
695.47	156.5
695.659	121.68
695.848	140.12
696.037	117.59
696.226	273.23
696.415	224.08
696.604	246.61
696.793	222.03
696.982	146.26
697.171	262.99
697.36	86.87
697.549	84.82
697.738	86.87
697.927	166.74
698.116	72.53
698.305	224.08
698.494	199.51
698.683	103.25
698.872	238.42
699.061	95.06
699.25	113.49
699.438	191.31
699.627	117.59
699.816	260.95
700.005	35.67
700.193	162.64
700.382	199.51
700.571	236.37
700.76	164.69
700.948	207.7
701.137	199.51
701.326	119.64
701.514	146.26
701.703	158.55
701.892	158.55
702.08	340.82
702.269	109.4
702.457	111.44
702.646	183.12
702.834	101.2
703.023	203.6
703.212	197.46
703.4	125.78
703.589	58.2
703.777	146.26
703.965	84.82
704.154	74.58
704.342	193.36
704.531	68.44
704.719	146.26
704.907	262.99
705.096	41.81
705.284	111.44
705.472	160.59
705.661	154.45
705.849	193.36
706.037	285.52
706.226	174.93
706.414	117.59
706.602	144.21
706.79	181.07
706.979	50
707.167	176.98
707.355	7
707.543	228.18
707.731	189.27
707.919	131.92
708.107	158.55
708.296	97.11
708.484	50
708.672	230.23
708.86	105.3
709.048	158.55
709.236	170.83
709.424	211.79
709.612	146.26
709.8	43.86
709.988	119.64
710.176	260.95
710.364	207.7
710.551	189.27
710.739	164.69
710.927	179.03
711.115	127.83
711.303	217.94
711.491	183.12
711.679	99.16
711.866	191.31
712.054	197.46
712.242	205.65
712.43	269.14
712.617	156.5
712.805	246.61
712.993	103.25
713.181	72.53
713.368	168.79
713.556	86.87
713.744	35.67
713.931	301.9
714.119	234.32
714.306	119.64
714.494	93.01
714.682	156.5
714.869	45.91
715.057	109.4
715.244	56.15
715.432	156.5
715.619	148.31
715.807	131.92
715.994	144.21
716.182	156.5
716.369	252.75
716.556	224.08
716.744	37.72
716.931	133.97
717.119	230.23
717.306	166.74
717.493	195.41
717.681	109.4
717.868	119.64
718.055	215.89
718.242	160.59
718.43	211.79
718.617	279.38
718.804	146.26
718.991	240.47
719.179	217.94
719.366	183.12
719.553	217.94
719.74	213.84
719.927	154.45
720.114	174.93
720.301	66.39
720.488	68.44
720.676	123.73
720.863	213.84
721.05	387.92
721.237	301.9
721.424	205.65
721.611	142.16
721.798	152.4
721.985	129.88
722.172	66.39
722.358	115.54
722.545	357.2
722.732	176.98
722.919	246.61
723.106	267.09
723.293	160.59
723.48	162.64
723.667	170.83
723.853	238.42
724.04	209.75
724.227	246.61
724.414	285.52
724.6	289.62
724.787	322.38
724.974	396.11
725.161	160.59
725.347	95.06
725.534	156.5
725.72	254.8
725.907	195.41
726.094	215.89
726.28	66.39
726.467	203.6
726.653	131.92
726.84	277.33
727.027	346.96
727.213	230.23
727.4	197.46
727.586	150.36
727.773	269.14
727.959	146.26
728.145	144.21
728.332	176.98
728.518	160.59
728.705	199.51
728.891	213.84
729.077	207.7
729.264	111.44
729.45	181.07
729.636	219.99
729.823	258.9
730.009	236.37
730.195	187.22
730.382	334.67
730.568	113.49
730.754	226.13
730.94	127.83
731.126	262.99
731.313	301.9
731.499	219.99
731.685	295.76
731.871	281.43
732.057	228.18
732.243	211.79
732.429	297.81
732.615	316.24
732.801	191.31
732.987	215.89
733.173	234.32
733.359	164.69
733.545	217.94
733.731	181.07
733.917	275.28
734.103	242.51
734.289	219.99
734.475	154.45
734.661	328.53
734.847	230.23
735.033	176.98
735.219	279.38
735.404	195.41
735.59	133.97
735.776	136.02
735.962	207.7
736.148	271.19
736.333	279.38
736.519	226.13
736.705	222.03
736.89	187.22
737.076	240.47
737.262	133.97
737.447	170.83
737.633	244.56
737.819	297.81
738.004	156.5
738.19	238.42
738.375	281.43
738.561	248.66
738.747	230.23
738.932	129.88
739.118	351.06
739.303	240.47
739.489	260.95
739.674	164.69
739.859	138.07
740.045	250.71
740.23	224.08
740.416	84.82
740.601	142.16
740.786	197.46
740.972	152.4
741.157	150.36
741.342	187.22
741.528	129.88
741.713	275.28
741.898	176.98
742.084	146.26
742.269	193.36
742.454	209.75
742.639	269.14
742.824	215.89
743.01	279.38
743.195	342.86
743.38	187.22
743.565	172.88
743.75	234.32
743.935	213.84
744.12	285.52
744.305	80.72
744.49	181.07
744.675	207.7
744.86	203.6
745.045	269.14
745.23	103.25
745.415	205.65
745.6	349.01
745.785	224.08
745.97	301.9
746.155	168.79
746.34	230.23
746.525	252.75
746.71	267.09
746.895	97.11
747.079	160.59
747.264	101.2
747.449	248.66
747.634	381.78
747.819	176.98
748.003	148.31
748.188	136.02
748.373	211.79
748.557	258.9
748.742	195.41
748.927	213.84
749.111	179.03
749.296	154.45
749.481	236.37
749.665	136.02
749.85	80.72
750.034	176.98
750.219	209.75
750.404	121.68
750.588	179.03
750.773	60.24
750.957	176.98
751.141	189.27
751.326	226.13
751.51	47.96
751.695	111.44
751.879	150.36
752.064	291.66
752.248	131.92
752.432	232.27
752.617	256.85
752.801	217.94
752.985	76.63
753.17	232.27
753.354	209.75
753.538	228.18
753.722	70.48
753.907	123.73
754.091	74.58
754.275	185.17
754.459	35.67
754.643	103.25
754.828	172.88
755.012	170.83
755.196	76.63
755.38	99.16
755.564	84.82
755.748	179.03
755.932	176.98
756.116	246.61
756.3	174.93
756.484	129.88
756.668	152.4
756.852	60.24
757.036	111.44
757.22	117.59
757.404	101.2
757.588	152.4
757.772	68.44
757.956	133.97
758.14	297.81
758.323	82.77
758.507	213.84
758.691	119.64
758.875	217.94
759.059	213.84
759.242	35.67
759.426	162.64
759.61	97.11
759.794	205.65
759.977	230.23
760.161	283.47
760.345	174.93
760.528	232.27
760.712	174.93
760.895	215.89
761.079	162.64
761.263	56.15
761.446	146.26
761.63	119.64
761.813	131.92
761.997	-3.24
762.18	31.57
762.364	168.79
762.547	66.39
762.731	133.97
762.914	146.26
763.098	166.74
763.281	56.15
763.464	142.16
763.648	131.92
763.831	62.29
764.015	125.78
764.198	115.54
764.381	60.24
764.564	82.77
764.748	119.64
764.931	88.92
765.114	99.16
765.297	133.97
765.481	35.67
765.664	64.34
765.847	86.87
766.03	236.37
766.213	72.53
766.397	54.1
766.58	43.86
766.763	150.36
766.946	117.59
767.129	33.62
767.312	29.52
767.495	39.76
767.678	21.33
767.861	119.64
768.044	148.31
768.227	103.25
768.41	109.4
768.593	54.1
768.776	127.83
768.959	17.24
769.142	125.78
769.324	113.49
769.507	76.63
769.69	76.63
769.873	86.87
770.056	193.36
770.239	50
770.421	117.59
770.604	160.59
770.787	39.76
770.97	93.01
771.152	-1.19
771.335	88.92
771.518	35.67
771.7	179.03
771.883	193.36
772.066	29.52
772.248	66.39
772.431	170.83
772.613	121.68
772.796	74.58
772.978	164.69
773.161	174.93
773.343	78.68
773.526	45.91
773.708	35.67
773.891	29.52
774.073	70.48
774.256	86.87
774.438	142.16
774.621	17.24
774.803	88.92
774.985	-40.11
775.168	111.44
775.35	27.48
775.532	66.39
775.715	35.67
775.897	95.06
776.079	25.43
776.261	58.2
776.444	125.78
776.626	50
776.808	50
776.99	-42.15
777.173	68.44
777.355	72.53
777.537	76.63
777.719	146.26
777.901	60.24
778.083	21.33
778.265	21.33
778.447	109.4
778.629	-76.97
778.811	86.87
778.993	41.81
779.175	144.21
779.357	72.53
779.539	-56.49
779.721	95.06
779.903	80.72
780.085	21.33
780.267	64.34
780.449	82.77
780.631	72.53
780.812	144.21
780.994	80.72
781.176	41.81
781.358	-9.39
781.54	39.76
781.721	101.2
781.903	146.26
782.085	-17.58
782.267	185.17
782.448	-52.39
782.63	31.57
782.812	21.33
782.993	45.91
783.175	115.54
783.357	33.62
783.538	123.73
783.72	23.38
783.901	39.76
784.083	72.53
784.264	9.05
784.446	-33.96
784.627	23.38
784.809	35.67
784.99	123.73
785.172	82.77
785.353	56.15
785.535	72.53
785.716	-1.19
785.897	7
786.079	15.19
786.26	54.1
786.441	97.11
786.623	-97.45
786.804	50
786.985	-58.54
787.167	74.58
787.348	41.81
787.529	43.86
787.71	189.27
787.891	72.53
788.073	15.19
788.254	-29.87
788.435	160.59
788.616	11.09
788.797	-52.39
788.978	15.19
789.159	31.57
789.34	31.57
789.522	56.15
789.703	45.91
789.884	68.44
790.065	35.67
790.246	183.12
790.427	23.38
790.607	158.55
790.788	123.73
790.969	31.57
791.15	136.02
791.331	19.29
791.512	70.48
791.693	-36.01
791.874	17.24
792.054	283.47
792.235	115.54
792.416	-11.43
792.597	-42.15
792.778	105.3
792.958	31.57
793.139	27.48
793.32	101.2
793.5	-119.98
793.681	105.3
793.862	-13.48
794.042	54.1
794.223	15.19
794.404	45.91
794.584	-64.68
794.765	7
794.945	52.05
795.126	19.29
795.306	129.88
795.487	90.96
795.667	31.57
795.848	58.2
796.028	50
796.209	103.25
796.389	62.29
796.57	15.19
796.75	80.72
796.93	66.39
797.111	-62.63
797.291	41.81
797.471	27.48
797.652	35.67
797.832	-17.58
798.012	43.86
798.192	-19.63
798.373	-44.2
798.553	50
798.733	80.72
798.913	35.67
799.093	19.29
799.274	80.72
799.454	66.39
799.634	68.44
799.814	123.73
799.994	72.53
800.174	68.44
800.354	43.86
800.534	-23.72
800.714	88.92
800.894	-130.22
801.074	-68.78
801.254	4.95
801.434	154.45
801.614	43.86
801.794	-23.72
801.974	1880.89
802.154	-5.29
802.334	66.39
802.514	-66.73
802.693	7
802.873	27.48
803.053	136.02
803.233	64.34
803.413	-15.53
803.592	-52.39
803.772	-17.58
803.952	50
804.131	-95.4
804.311	80.72
804.491	88.92
804.67	-66.73
804.85	-29.87
805.03	35.67
805.209	119.64
805.389	-29.87
805.568	19.29
805.748	78.68
805.928	25.43
806.107	64.34
806.287	82.77
806.466	70.48
806.646	60.24
806.825	33.62
807.004	29.52
807.184	66.39
807.363	76.63
807.543	105.3
807.722	13.14
807.901	111.44
808.081	58.2
808.26	-38.06
808.439	-25.77
808.619	23.38
808.798	39.76
808.977	43.86
809.156	113.49
809.336	56.15
809.515	45.91
809.694	-64.68
809.873	-9.39
810.052	-1.19
810.231	78.68
810.411	31.57
810.59	70.48
810.769	88.92
810.948	-23.72
811.127	-48.3
811.306	45.91
811.485	93.01
811.664	142.16
811.843	4.95
812.022	-7.34
812.201	-5.29
812.38	25.43
812.559	-31.91
812.737	74.58
812.916	-64.68
813.095	-13.48
813.274	9.05
813.453	-13.48
813.632	13.14
813.811	150.36
813.989	-134.31
814.168	9.05
814.347	-68.78
814.526	76.63
814.704	45.91
814.883	93.01
815.062	-54.44
815.24	50
815.419	-101.55
815.598	119.64
815.776	-76.97
815.955	-9.39
816.133	-173.22
816.312	-15.53
816.49	-64.68
816.669	21.33
816.847	0.85
817.026	45.91
817.204	-5.29
817.383	-62.63
817.561	-46.25
817.74	50
817.918	-17.58
818.097	-11.43
818.275	7
818.453	64.34
818.632	29.52
818.81	9.05
818.988	-25.77
819.167	19.29
819.345	88.92
819.523	-1.19
819.701	17.24
819.879	31.57
820.058	19.29
820.236	138.07
820.414	19.29
820.592	-23.72
820.77	-9.39
820.948	-105.64
821.127	-44.2
821.305	23.38
821.483	-9.39
821.661	119.64
821.839	105.3
822.017	-19.63
822.195	-74.92
822.373	31.57
822.551	-17.58
822.729	78.68
822.907	60.24
823.085	43.86
823.262	66.39
823.44	58.2
823.618	21.33
823.796	27.48
823.974	-17.58
824.152	-40.11
824.329	7
824.507	31.57
824.685	56.15
824.863	-17.58
825.04	-5.29
825.218	37.72
825.396	-1.19
825.574	74.58
825.751	58.2
825.929	88.92
826.107	-17.58
826.284	35.67
826.462	70.48
826.639	-27.82
826.817	-29.87
826.994	66.39
827.172	-31.91
827.349	78.68
827.527	60.24
827.704	31.57
827.882	76.63
828.059	45.91
828.237	-25.77
828.414	52.05
828.591	-36.01
828.769	47.96
828.946	47.96
829.124	86.87
829.301	54.1
829.478	-58.54
829.655	19.29
829.833	-25.77
830.01	-58.54
830.187	-9.39
830.364	-58.54
830.542	2.9
830.719	58.2
830.896	43.86
831.073	-27.82
831.25	39.76
831.427	-17.58
831.604	-64.68
831.782	-5.29
831.959	99.16
832.136	27.48
832.313	80.72
832.49	-9.39
832.667	-31.91
832.844	-46.25
833.021	58.2
833.198	52.05
833.374	19.29
833.551	41.81
833.728	-27.82
833.905	33.62
834.082	-95.4
834.259	-46.25
834.436	101.2
834.612	-148.65
834.789	45.91
834.966	23.38
835.143	-17.58
835.319	-38.06
835.496	64.34
835.673	13.14
835.85	129.88
836.026	-21.67
836.203	21.33
836.38	-48.3
836.556	-29.87
836.733	2.9
836.909	152.4
837.086	52.05
837.262	-91.31
837.439	-56.49
837.616	-79.02
837.792	-60.59
837.968	17.24
838.145	-138.41
838.321	-13.48
838.498	86.87
838.674	33.62
838.851	21.33
839.027	-52.39
839.203	9.05
839.38	31.57
839.556	4.95
839.732	56.15
839.909	-33.96
840.085	50
840.261	-97.45
840.437	95.06
840.614	15.19
840.79	111.44
840.966	74.58
841.142	33.62
841.318	-27.82
841.494	101.2
841.671	80.72
841.847	-11.43
842.023	-74.92
842.199	35.67
842.375	103.25
842.551	-103.59
842.727	-66.73
842.903	136.02
843.079	-21.67
843.255	123.73
843.431	37.72
843.607	78.68
843.783	-93.35
843.959	15.19
844.134	-60.59
844.31	125.78
844.486	-27.82
844.662	-93.35
844.838	-31.91
845.013	19.29
845.189	31.57
845.365	66.39
845.541	62.29
845.716	21.33
845.892	45.91
846.068	-42.15
846.244	19.29
846.419	33.62
846.595	2.9
846.77	-13.48
846.946	90.96
847.122	-81.07
847.297	-25.77
847.473	90.96
847.648	-122.02
847.824	45.91
847.999	-89.26
848.175	-13.48
848.35	-46.25
848.526	88.92
848.701	39.76
848.876	60.24
849.052	109.4
849.227	39.76
849.403	23.38
849.578	11.09
849.753	2.9
849.929	11.09
850.104	-109.74
850.279	-56.49
850.454	70.48
850.63	11.09
850.805	13.14
850.98	4.95
851.155	-46.25
851.33	95.06
851.505	-29.87
851.681	123.73
851.856	-17.58
852.031	64.34
852.206	56.15
852.381	-144.55
852.556	-46.25
852.731	-87.21
852.906	-19.63
853.081	80.72
853.256	82.77
853.431	-46.25
853.606	33.62
853.781	-66.73
853.956	-105.64
854.131	70.48
854.305	25.43
854.48	39.76
854.655	-17.58
854.83	-9.39
855.005	9.05
855.18	-25.77
855.354	-27.82
855.529	-7.34
855.704	-19.63
855.879	127.83
856.053	-89.26
856.228	56.15
856.403	-44.2
856.577	62.29
856.752	-9.39
856.926	29.52
857.101	25.43
857.276	-36.01
857.45	21.33
857.625	78.68
857.799	72.53
857.974	-85.16
858.148	-117.93
858.323	-13.48
858.497	-21.67
858.672	-13.48
858.846	-29.87
859.02	54.1
859.195	-15.53
859.369	11.09
859.543	-15.53
859.718	-13.48
859.892	19.29
860.066	86.87
860.241	-46.25
860.415	-3.24
860.589	0.85
860.763	84.82
860.938	-70.83
861.112	107.35
861.286	-9.39
861.46	-9.39
861.634	2.9
861.808	60.24
861.982	-31.91
862.157	-140.46
862.331	-15.53
862.505	-140.46
862.679	-95.4
862.853	-46.25
863.027	17.24
863.201	179.03
863.375	-27.82
863.549	-3.24
863.722	54.1
863.896	17.24
864.07	-70.83
864.244	93.01
864.418	27.48
864.592	33.62
864.766	31.57
864.939	-48.3
865.113	-58.54
865.287	150.36
865.461	-21.67
865.634	19.29
865.808	-58.54
865.982	-62.63
866.156	-109.74
866.329	-105.64
866.503	0.85
866.676	68.44
866.85	45.91
867.024	-19.63
867.197	97.11
867.371	60.24
867.544	-1.19
867.718	-44.2
867.891	119.64
868.065	-64.68
868.238	-29.87
868.412	117.59
868.585	80.72
868.759	-83.11
868.932	-29.87
869.105	-99.5
869.279	37.72
869.452	-60.59
869.625	31.57
869.799	35.67
869.972	-119.98
870.145	-9.39
870.319	29.52
870.492	-81.07
870.665	-50.35
870.838	-124.07
871.011	-205.99
871.185	-58.54
871.358	7
871.531	27.48
871.704	39.76
871.877	-19.63
872.05	45.91
872.223	-99.5
872.396	58.2
872.569	93.01
872.742	-50.35
872.915	72.53
873.088	-13.48
873.261	-68.78
873.434	78.68
873.607	-44.2
873.78	58.2
873.953	-76.97
874.126	-13.48
874.299	154.45
874.471	-21.67
874.644	56.15
874.817	-7.34
874.99	123.73
875.163	35.67
875.335	33.62
875.508	60.24
875.681	99.16
875.853	-33.96
876.026	4.95
876.199	0.85
876.371	-21.67
876.544	-5.29
876.717	45.91
876.889	0.85
877.062	93.01
877.234	-70.83
877.407	2.9
877.579	27.48
877.752	41.81
877.924	84.82
878.097	27.48
878.269	45.91
878.442	-5.29
878.614	23.38
878.786	76.63
878.959	33.62
879.131	2.9
879.303	-107.69
879.476	29.52
879.648	7
879.82	23.38
879.993	-48.3
880.165	15.19
880.337	-66.73
880.509	-29.87
880.681	-99.5
880.854	19.29
881.026	35.67
881.198	146.26
881.37	41.81
881.542	-48.3
881.714	-21.67
881.886	-44.2
882.058	39.76
882.23	-3.24
882.402	-19.63
882.574	68.44
882.746	-11.43
882.918	101.2
883.09	11.09
883.262	7
883.434	4.95
883.606	-52.39
883.778	-27.82
883.95	121.68
884.122	-19.63
884.293	13.14
884.465	31.57
884.637	74.58
884.809	-117.93
884.98	39.76
885.152	56.15
885.324	136.02
885.496	-91.31
885.667	-38.06
885.839	-23.72
886.011	142.16
886.182	56.15
886.354	64.34
886.525	56.15
886.697	27.48
886.869	-83.11
887.04	21.33
887.212	93.01
887.383	138.07
887.555	27.48
887.726	25.43
887.897	-79.02
888.069	2.9
888.24	105.3
888.412	17.24
888.583	-3.24
888.754	11.09
888.926	-109.74
889.097	9.05
889.268	-132.26
889.44	0.85
889.611	-52.39
889.782	-95.4
889.953	-66.73
890.125	47.96
890.296	-134.31
890.467	7
890.638	-60.59
890.809	-17.58
890.98	-31.91
891.151	-29.87
891.323	84.82
891.494	-13.48
891.665	-11.43
891.836	27.48
892.007	27.48
892.178	54.1
892.349	21.33
892.52	-9.39
892.691	31.57
892.862	-13.48
893.032	-58.54
893.203	-19.63
893.374	82.77
893.545	78.68
893.716	-3.24
893.887	39.76
894.057	-36.01
894.228	2.9
894.399	2.9
894.57	107.35
894.74	17.24
894.911	9.05
895.082	21.33
895.253	-56.49
895.423	27.48
895.594	50
895.764	66.39
895.935	-173.22
896.106	39.76
896.276	-150.7
896.447	21.33
896.617	-107.69
896.788	-91.31
896.958	-48.3
897.129	-11.43
897.299	-23.72
897.47	90.96
897.64	66.39
897.81	33.62
897.981	-17.58
898.151	0.85
898.322	47.96
898.492	142.16
898.662	-40.11
898.832	41.81
899.003	15.19
899.173	66.39
899.343	-56.49
899.513	-42.15
