Data from USB4F104151__195__11-05-26-331.txt Node

Date: Wed Feb 26 11:05:26 EST 2025
User: louis
Spectrometer: USB4F10415
Trigger mode: 4
Integration Time (sec): 1.000000E-1
Scans to average: 1
Electric dark correction enabled: true
Nonlinearity correction enabled: false
Boxcar width: 0
XAxis mode: Wavelengths
Number of Pixels in Spectrum: 3648
>>>>>Begin Spectral Data<<<<<
178.204	-419.83
178.424	-419.83
178.644	-419.83
178.864	-442.36
179.084	-395.26
179.304	-57.34
179.524	-16.38
179.744	-8.19
179.964	-24.58
180.184	53.25
180.404	32.77
180.624	24.58
180.844	-24.58
181.064	-81.92
181.283	75.77
181.503	-32.77
181.723	59.39
181.943	-94.21
182.163	149.5
182.383	24.58
182.602	167.93
182.822	208.89
183.042	65.53
183.262	-22.53
183.482	-8.19
183.701	-16.38
183.921	16.38
184.141	-14.34
184.361	120.83
184.58	69.63
184.8	43.01
185.02	-16.38
185.239	104.45
185.459	77.82
185.679	137.21
185.898	-88.06
186.118	4.1
186.338	92.16
186.557	143.36
186.777	59.39
186.997	57.34
187.216	47.1
187.436	161.79
187.655	73.73
187.875	73.73
188.095	8.19
188.314	157.69
188.534	141.31
188.753	-30.72
188.973	149.5
189.192	180.22
189.412	-36.86
189.631	6.14
189.851	67.58
190.07	165.89
190.29	-55.3
190.509	75.77
190.729	57.34
190.948	129.02
191.168	264.19
191.387	90.11
191.607	-22.53
191.826	112.64
192.045	51.2
192.265	18.43
192.484	90.11
192.704	24.58
192.923	-77.82
193.142	202.75
193.362	63.49
193.581	188.41
193.8	16.38
194.02	69.63
194.239	16.38
194.458	108.54
194.678	-24.58
194.897	2.05
195.116	106.49
195.335	112.64
195.555	45.06
195.774	2.05
195.993	40.96
196.212	30.72
196.432	18.43
196.651	24.58
196.87	94.21
197.089	266.24
197.308	6.14
197.528	59.39
197.747	-86.01
197.966	110.59
198.185	212.99
198.404	-67.58
198.623	69.63
198.842	151.55
199.062	63.49
199.281	49.15
199.5	100.35
199.719	38.91
199.938	71.68
200.157	81.92
200.376	49.15
200.595	172.03
200.814	30.72
201.033	-57.34
201.252	202.75
201.471	55.3
201.69	112.64
201.909	53.25
202.128	157.69
202.347	137.21
202.566	79.87
202.785	-61.44
203.004	34.82
203.223	299
203.442	-10.24
203.661	2.05
203.879	69.63
204.098	149.5
204.317	-69.63
204.536	102.4
204.755	147.45
204.974	133.12
205.193	20.48
205.411	165.89
205.63	112.64
205.849	79.87
206.068	45.06
206.287	-45.06
206.505	151.55
206.724	-8.19
206.943	-32.77
207.162	77.82
207.381	176.13
207.599	71.68
207.818	-6.14
208.037	-22.53
208.255	-4.1
208.474	106.49
208.693	49.15
208.911	24.58
209.13	69.63
209.349	108.54
209.567	61.44
209.786	147.45
210.005	124.93
210.223	24.58
210.442	-61.44
210.661	18.43
210.879	90.11
211.098	155.65
211.316	90.11
211.535	118.78
211.753	6.14
211.972	43.01
212.191	10.24
212.409	65.53
212.628	79.87
212.846	-6.14
213.065	51.2
213.283	71.68
213.502	-18.43
213.72	90.11
213.938	102.4
214.157	6.14
214.375	135.17
214.594	4.1
214.812	94.21
215.031	36.86
215.249	53.25
215.467	81.92
215.686	32.77
215.904	47.1
216.122	141.31
216.341	161.79
216.559	96.25
216.778	116.73
216.996	139.26
217.214	75.77
217.432	-24.58
217.651	-12.29
217.869	28.67
218.087	30.72
218.306	38.91
218.524	22.53
218.742	40.96
218.96	67.58
219.179	-30.72
219.397	2.05
219.615	258.04
219.833	90.11
220.051	-40.96
220.27	110.59
220.488	116.73
220.706	71.68
220.924	-0
221.142	-20.48
221.36	22.53
221.578	137.21
221.796	6.14
222.015	114.69
222.233	143.36
222.451	210.94
222.669	79.87
222.887	118.78
223.105	26.62
223.323	88.06
223.541	16.38
223.759	22.53
223.977	49.15
224.195	131.07
224.413	172.03
224.631	63.49
224.849	100.35
225.067	243.71
225.285	-4.1
225.503	18.43
225.721	-45.06
225.939	51.2
226.157	114.69
226.375	202.75
226.592	32.77
226.81	38.91
227.028	92.16
227.246	135.17
227.464	110.59
227.682	51.2
227.9	112.64
228.117	-16.38
228.335	88.06
228.553	59.39
228.771	96.25
228.989	-8.19
229.206	100.35
229.424	100.35
229.642	4.1
229.86	-36.86
230.077	192.51
230.295	-4.1
230.513	104.45
230.731	63.49
230.948	182.27
231.166	129.02
231.384	88.06
231.601	-34.82
231.819	219.13
232.037	28.67
232.254	26.62
232.472	22.53
232.689	22.53
232.907	184.32
233.125	63.49
233.342	36.86
233.56	12.29
233.777	59.39
233.995	83.97
234.213	155.65
234.43	77.82
234.648	53.25
234.865	12.29
235.083	118.78
235.3	90.11
235.518	129.02
235.735	141.31
235.953	106.49
236.17	18.43
236.388	53.25
236.605	-6.14
236.822	167.93
237.04	110.59
237.257	12.29
237.475	22.53
237.692	45.06
237.909	118.78
238.127	4.1
238.344	135.17
238.562	-2.05
238.779	-36.86
238.996	53.25
239.214	16.38
239.431	102.4
239.648	47.1
239.865	122.88
240.083	118.78
240.3	63.49
240.517	47.1
240.735	20.48
240.952	143.36
241.169	108.54
241.386	92.16
241.603	63.49
241.821	-61.44
242.038	122.88
242.255	108.54
242.472	-92.16
242.689	57.34
242.907	73.73
243.124	61.44
243.341	63.49
243.558	14.34
243.775	-18.43
243.992	-16.38
244.209	94.21
244.426	135.17
244.643	49.15
244.86	47.1
245.078	53.25
245.295	59.39
245.512	94.21
245.729	2.05
245.946	2.05
246.163	-6.14
246.38	81.92
246.597	75.77
246.814	51.2
247.031	96.25
247.248	34.82
247.464	67.58
247.681	145.41
247.898	108.54
248.115	40.96
248.332	6.14
248.549	92.16
248.766	137.21
248.983	110.59
249.2	83.97
249.417	94.21
249.633	47.1
249.85	90.11
250.067	67.58
250.284	63.49
250.501	122.88
250.717	67.58
250.934	26.62
251.151	47.1
251.368	-34.82
251.585	59.39
251.801	-6.14
252.018	-43.01
252.235	67.58
252.451	-36.86
252.668	-45.06
252.885	176.13
253.102	36.86
253.318	14.34
253.535	65.53
253.752	59.39
253.968	47.1
254.185	-38.91
254.401	73.73
254.618	47.1
254.835	-36.86
255.051	165.89
255.268	96.25
255.484	51.2
255.701	26.62
255.917	100.35
256.134	-6.14
256.351	8.19
256.567	-24.58
256.784	55.3
257	-94.21
257.217	65.53
257.433	98.3
257.65	53.25
257.866	182.27
258.082	-73.73
258.299	4.1
258.515	-36.86
258.732	67.58
258.948	-2.05
259.165	57.34
259.381	-47.1
259.597	49.15
259.814	-8.19
260.03	-61.44
260.246	38.91
260.463	131.07
260.679	188.41
260.895	59.39
261.112	96.25
261.328	-34.82
261.544	81.92
261.761	155.65
261.977	67.58
262.193	16.38
262.409	79.87
262.626	71.68
262.842	94.21
263.058	47.1
263.274	47.1
263.49	-18.43
263.707	86.01
263.923	118.78
264.139	-69.63
264.355	18.43
264.571	186.37
264.787	4.1
265.004	131.07
265.22	26.62
265.436	-8.19
265.652	40.96
265.868	71.68
266.084	-61.44
266.3	61.44
266.516	53.25
266.732	90.11
266.948	18.43
267.164	-14.34
267.38	77.82
267.596	55.3
267.812	124.93
268.028	49.15
268.244	-2.05
268.46	94.21
268.676	61.44
268.892	104.45
269.108	-16.38
269.324	-30.72
269.54	-81.92
269.756	81.92
269.972	-57.34
270.188	10.24
270.403	-2.05
270.619	-14.34
270.835	124.93
271.051	49.15
271.267	26.62
271.483	-28.67
271.698	114.69
271.914	77.82
272.13	55.3
272.346	-51.2
272.562	40.96
272.777	106.49
272.993	40.96
273.209	38.91
273.425	67.58
273.64	6.14
273.856	145.41
274.072	-40.96
274.287	8.19
274.503	122.88
274.719	81.92
274.934	65.53
275.15	-20.48
275.366	98.3
275.581	10.24
275.797	71.68
276.012	34.82
276.228	12.29
276.444	38.91
276.659	73.73
276.875	-28.67
277.09	75.77
277.306	34.82
277.521	88.06
277.737	-14.34
277.952	22.53
278.168	16.38
278.383	59.39
278.599	69.63
278.814	180.22
279.03	26.62
279.245	167.93
279.461	-10.24
279.676	73.73
279.892	-55.3
280.107	-22.53
280.322	-16.38
280.538	94.21
280.753	-40.96
280.969	45.06
281.184	90.11
281.399	161.79
281.615	67.58
281.83	143.36
282.045	-22.53
282.26	69.63
282.476	38.91
282.691	112.64
282.906	51.2
283.122	59.39
283.337	-49.15
283.552	86.01
283.767	79.87
283.983	94.21
284.198	88.06
284.413	51.2
284.628	-49.15
284.843	55.3
285.058	143.36
285.274	28.67
285.489	-26.62
285.704	143.36
285.919	-32.77
286.134	49.15
286.349	32.77
286.564	55.3
286.779	141.31
286.995	38.91
287.21	-100.35
287.425	149.5
287.64	28.67
287.855	86.01
288.07	-88.06
288.285	163.84
288.5	86.01
288.715	57.34
288.93	43.01
289.145	30.72
289.36	163.84
289.575	-57.34
289.79	126.97
290.004	55.3
290.219	94.21
290.434	137.21
290.649	-36.86
290.864	45.06
291.079	32.77
291.294	57.34
291.509	149.5
291.724	-14.34
291.938	65.53
292.153	47.1
292.368	24.58
292.583	36.86
292.798	49.15
293.012	59.39
293.227	81.92
293.442	2.05
293.657	104.45
293.871	79.87
294.086	124.93
294.301	163.84
294.516	159.74
294.73	98.3
294.945	-79.87
295.16	-88.06
295.374	79.87
295.589	65.53
295.804	61.44
296.018	53.25
296.233	149.5
296.447	100.35
296.662	-8.19
296.877	38.91
297.091	116.73
297.306	16.38
297.52	-71.68
297.735	126.97
297.949	67.58
298.164	47.1
298.378	133.12
298.593	24.58
298.807	-24.58
299.022	32.77
299.236	159.74
299.451	-30.72
299.665	16.38
299.88	69.63
300.094	63.49
300.309	6.14
300.523	120.83
300.737	30.72
300.952	102.4
301.166	151.55
301.381	32.77
301.595	-32.77
301.809	4.1
302.024	26.62
302.238	-4.1
302.452	75.77
302.667	69.63
302.881	122.88
303.095	131.07
303.309	63.49
303.524	55.3
303.738	12.29
303.952	-36.86
304.166	57.34
304.381	-16.38
304.595	157.69
304.809	45.06
305.023	-69.63
305.237	28.67
305.452	67.58
305.666	106.49
305.88	145.41
306.094	110.59
306.308	65.53
306.522	141.31
306.736	73.73
306.95	135.17
307.164	30.72
307.379	83.97
307.593	159.74
307.807	104.45
308.021	120.83
308.235	88.06
308.449	-69.63
308.663	-0
308.877	182.27
309.091	75.77
309.305	106.49
309.519	-71.68
309.733	106.49
309.947	-110.59
310.161	90.11
310.374	77.82
310.588	116.73
310.802	-36.86
311.016	22.53
311.23	75.77
311.444	20.48
311.658	16.38
311.872	79.87
312.085	143.36
312.299	81.92
312.513	180.22
312.727	71.68
312.941	10.24
313.154	38.91
313.368	40.96
313.582	24.58
313.796	14.34
314.009	77.82
314.223	116.73
314.437	83.97
314.651	143.36
314.864	-40.96
315.078	26.62
315.292	4.1
315.505	-32.77
315.719	100.35
315.933	-55.3
316.146	40.96
316.36	26.62
316.573	110.59
316.787	47.1
317.001	75.77
317.214	-45.06
317.428	36.86
317.641	-28.67
317.855	30.72
318.068	38.91
318.282	83.97
318.495	233.47
318.709	153.6
318.922	55.3
319.136	24.58
319.349	104.45
319.563	79.87
319.776	135.17
319.99	-0
320.203	73.73
320.417	2.05
320.63	110.59
320.843	151.55
321.057	98.3
321.27	73.73
321.483	114.69
321.697	184.32
321.91	24.58
322.124	67.58
322.337	147.45
322.55	-2.05
322.763	81.92
322.977	71.68
323.19	18.43
323.403	32.77
323.617	110.59
323.83	139.26
324.043	30.72
324.256	116.73
324.469	-22.53
324.683	104.45
324.896	4.1
325.109	18.43
325.322	-10.24
325.535	77.82
325.748	155.65
325.962	6.14
326.175	51.2
326.388	129.02
326.601	204.8
326.814	-0
327.027	24.58
327.24	141.31
327.453	-43.01
327.666	55.3
327.879	149.5
328.092	92.16
328.305	2.05
328.518	49.15
328.731	-12.29
328.944	40.96
329.157	129.02
329.37	20.48
329.583	223.23
329.796	120.83
330.009	-57.34
330.222	65.53
330.435	18.43
330.648	133.12
330.861	26.62
331.073	65.53
331.286	112.64
331.499	16.38
331.712	14.34
331.925	47.1
332.138	49.15
332.35	143.36
332.563	12.29
332.776	184.32
332.989	-36.86
333.202	-10.24
333.414	6.14
333.627	90.11
333.84	22.53
334.053	63.49
334.265	-0
334.478	16.38
334.691	-34.82
334.903	32.77
335.116	28.67
335.329	36.86
335.541	100.35
335.754	215.04
335.966	-34.82
336.179	141.31
336.392	-6.14
336.604	22.53
336.817	118.78
337.029	90.11
337.242	153.6
337.454	98.3
337.667	75.77
337.88	200.7
338.092	38.91
338.305	47.1
338.517	45.06
338.729	90.11
338.942	153.6
339.154	-86.01
339.367	-4.1
339.579	135.17
339.792	-8.19
340.004	159.74
340.217	75.77
340.429	61.44
340.641	-6.14
340.854	-47.1
341.066	75.77
341.278	106.49
341.491	114.69
341.703	71.68
341.915	-45.06
342.128	71.68
342.34	96.25
342.552	8.19
342.764	26.62
342.977	98.3
343.189	24.58
343.401	131.07
343.613	-14.34
343.826	75.77
344.038	-63.49
344.25	75.77
344.462	47.1
344.674	-0
344.886	24.58
345.099	73.73
345.311	79.87
345.523	26.62
345.735	-18.43
345.947	57.34
346.159	96.25
346.371	20.48
346.583	-28.67
346.795	112.64
347.007	16.38
347.219	94.21
347.431	75.77
347.643	180.22
347.855	-88.06
348.067	131.07
348.279	-14.34
348.491	98.3
348.703	77.82
348.915	45.06
349.127	-73.73
349.339	77.82
349.551	30.72
349.763	108.54
349.975	45.06
350.187	151.55
350.399	151.55
350.61	104.45
350.822	49.15
351.034	32.77
351.246	4.1
351.458	49.15
351.669	100.35
351.881	118.78
352.093	182.27
352.305	153.6
352.517	69.63
352.728	98.3
352.94	94.21
353.152	118.78
353.363	61.44
353.575	81.92
353.787	200.7
353.999	102.4
354.21	206.84
354.422	-2.05
354.633	55.3
354.845	47.1
355.057	77.82
355.268	43.01
355.48	124.93
355.692	-40.96
355.903	77.82
356.115	67.58
356.326	-59.39
356.538	186.37
356.749	122.88
356.961	194.56
357.172	36.86
357.384	-32.77
357.595	182.27
357.807	-22.53
358.018	73.73
358.23	94.21
358.441	131.07
358.653	24.58
358.864	102.4
359.075	98.3
359.287	81.92
359.498	65.53
359.709	86.01
359.921	63.49
360.132	-2.05
360.344	16.38
360.555	61.44
360.766	79.87
360.977	-2.05
361.189	104.45
361.4	45.06
361.611	126.97
361.823	49.15
362.034	98.3
362.245	-86.01
362.456	79.87
362.667	69.63
362.879	43.01
363.09	55.3
363.301	63.49
363.512	161.79
363.723	-79.87
363.935	2.05
364.146	122.88
364.357	106.49
364.568	16.38
364.779	-81.92
364.99	221.18
365.201	36.86
365.412	196.6
365.623	-14.34
365.834	57.34
366.045	16.38
366.256	38.91
366.467	141.31
366.678	43.01
366.889	16.38
367.1	-40.96
367.311	77.82
367.522	106.49
367.733	90.11
367.944	102.4
368.155	53.25
368.366	38.91
368.577	100.35
368.788	83.97
368.999	-30.72
369.209	75.77
369.42	184.32
369.631	251.9
369.842	90.11
370.053	20.48
370.264	184.32
370.474	-40.96
370.685	77.82
370.896	26.62
371.107	122.88
371.317	83.97
371.528	32.77
371.739	198.65
371.95	108.54
372.16	81.92
372.371	-49.15
372.582	-4.1
372.792	38.91
373.003	139.26
373.214	131.07
373.424	61.44
373.635	-2.05
373.846	186.37
374.056	30.72
374.267	6.14
374.477	40.96
374.688	47.1
374.898	129.02
375.109	118.78
375.319	100.35
375.53	133.12
375.74	100.35
375.951	30.72
376.161	94.21
376.372	143.36
376.582	-2.05
376.793	79.87
377.003	8.19
377.214	-30.72
377.424	47.1
377.635	26.62
377.845	32.77
378.055	120.83
378.266	-47.1
378.476	38.91
378.686	100.35
378.897	40.96
379.107	167.93
379.317	104.45
379.528	47.1
379.738	124.93
379.948	-32.77
380.158	77.82
380.369	79.87
380.579	129.02
380.789	18.43
380.999	90.11
381.21	114.69
381.42	196.6
381.63	-2.05
381.84	83.97
382.05	94.21
382.261	129.02
382.471	133.12
382.681	-0
382.891	176.13
383.101	83.97
383.311	16.38
383.521	22.53
383.731	71.68
383.941	122.88
384.151	69.63
384.361	12.29
384.571	114.69
384.781	34.82
384.991	192.51
385.201	202.75
385.411	108.54
385.621	69.63
385.831	90.11
386.041	-10.24
386.251	47.1
386.461	174.08
386.671	22.53
386.881	88.06
387.091	6.14
387.301	141.31
387.511	63.49
387.72	61.44
387.93	57.34
388.14	-86.01
388.35	-14.34
388.56	83.97
388.769	110.59
388.979	81.92
389.189	-53.25
389.399	51.2
389.609	45.06
389.818	126.97
390.028	122.88
390.238	143.36
390.447	14.34
390.657	79.87
390.867	20.48
391.076	-16.38
391.286	-38.91
391.496	10.24
391.705	16.38
391.915	174.08
392.125	118.78
392.334	-28.67
392.544	190.46
392.753	30.72
392.963	-14.34
393.172	92.16
393.382	-22.53
393.591	161.79
393.801	28.67
394.01	120.83
394.22	135.17
394.429	12.29
394.639	6.14
394.848	4.1
395.058	14.34
395.267	32.77
395.477	102.4
395.686	69.63
395.895	198.65
396.105	208.89
396.314	53.25
396.524	43.01
396.733	32.77
396.942	112.64
397.152	57.34
397.361	176.13
397.57	63.49
397.78	59.39
397.989	114.69
398.198	161.79
398.407	63.49
398.617	61.44
398.826	40.96
399.035	22.53
399.244	106.49
399.453	90.11
399.663	61.44
399.872	69.63
400.081	-73.73
400.29	153.6
400.499	-18.43
400.708	151.55
400.917	22.53
401.127	63.49
401.336	-6.14
401.545	206.84
401.754	178.17
401.963	73.73
402.172	90.11
402.381	-28.67
402.59	73.73
402.799	34.82
403.008	65.53
403.217	45.06
403.426	57.34
403.635	12.29
403.844	22.53
404.053	-26.62
404.262	-65.54
404.471	124.93
404.68	59.39
404.888	94.21
405.097	79.87
405.306	8.19
405.515	124.93
405.724	51.2
405.933	149.5
406.142	73.73
406.35	217.08
406.559	79.87
406.768	36.86
406.977	219.13
407.185	143.36
407.394	65.53
407.603	-6.14
407.812	69.63
408.02	190.46
408.229	47.1
408.438	90.11
408.646	-40.96
408.855	67.58
409.064	118.78
409.272	43.01
409.481	147.45
409.69	30.72
409.898	55.3
410.107	77.82
410.315	161.79
410.524	30.72
410.733	90.11
410.941	-22.53
411.15	131.07
411.358	69.63
411.567	176.13
411.775	104.45
411.984	18.43
412.192	63.49
412.401	59.39
412.609	233.47
412.818	194.56
413.026	75.77
413.234	55.3
413.443	14.34
413.651	-16.38
413.86	2.05
414.068	133.12
414.276	172.03
414.485	63.49
414.693	161.79
414.901	129.02
415.11	118.78
415.318	43.01
415.526	22.53
415.734	120.83
415.943	75.77
416.151	163.84
416.359	40.96
416.567	102.4
416.776	61.44
416.984	126.97
417.192	108.54
417.4	38.91
417.608	40.96
417.817	12.29
418.025	167.93
418.233	184.32
418.441	-24.58
418.649	-8.19
418.857	143.36
419.065	223.23
419.273	61.44
419.481	26.62
419.689	94.21
419.897	94.21
420.105	-43.01
420.313	151.55
420.521	143.36
420.729	133.12
420.937	2.05
421.145	-10.24
421.353	88.06
421.561	206.84
421.769	53.25
421.977	79.87
422.185	151.55
422.393	102.4
422.601	118.78
422.809	98.3
423.017	34.82
423.224	114.69
423.432	188.41
423.64	51.2
423.848	135.17
424.056	8.19
424.263	88.06
424.471	16.38
424.679	147.45
424.887	2.05
425.094	204.8
425.302	40.96
425.51	86.01
425.718	221.18
425.925	16.38
426.133	86.01
426.341	233.47
426.548	94.21
426.756	90.11
426.964	155.65
427.171	-20.48
427.379	196.6
427.586	88.06
427.794	104.45
428.001	141.31
428.209	79.87
428.417	270.33
428.624	174.08
428.832	147.45
429.039	167.93
429.247	135.17
429.454	40.96
429.662	245.76
429.869	231.42
430.076	126.97
430.284	153.6
430.491	194.56
430.699	131.07
430.906	212.99
431.114	206.84
431.321	83.97
431.528	198.65
431.736	153.6
431.943	188.41
432.15	206.84
432.358	241.66
432.565	303.1
432.772	40.96
432.979	223.23
433.187	178.17
433.394	253.95
433.601	204.8
433.808	243.71
434.016	227.32
434.223	286.72
434.43	280.57
434.637	253.95
434.844	317.44
435.052	233.47
435.259	292.86
435.466	286.72
435.673	212.99
435.88	282.62
436.087	290.81
436.294	516.09
436.501	335.87
436.708	358.39
436.915	301.05
437.122	466.94
437.329	294.91
437.537	346.11
437.743	466.94
437.95	413.69
438.157	378.87
438.364	344.06
438.571	411.64
438.778	520.18
438.985	505.85
439.192	516.09
439.399	509.94
439.606	528.38
439.813	538.62
440.02	628.73
440.227	696.31
440.433	620.53
440.64	587.77
440.847	575.48
441.054	681.97
441.261	819.19
441.467	630.77
441.674	679.93
441.881	770.04
442.088	763.89
442.294	864.24
442.501	886.77
442.708	872.43
442.914	968.69
443.121	1023.98
443.328	1028.08
443.534	1019.89
443.741	1011.7
443.948	983.02
444.154	1081.33
444.361	1380.33
444.568	1200.11
444.774	1189.87
444.981	1134.57
445.187	1413.1
445.394	1292.27
445.6	1314.8
445.807	1548.26
446.013	1478.63
446.22	1359.85
446.426	1613.8
446.633	1695.72
446.839	1820.64
447.046	1720.29
447.252	1810.4
447.459	1787.88
447.665	1779.68
447.871	2136.03
448.078	2172.89
448.284	2093.02
448.491	2168.8
448.697	2367.45
448.903	2422.75
449.11	2349.02
449.316	2478.04
449.522	2750.42
449.728	2742.23
449.935	2963.41
450.141	2867.16
450.347	3172.3
450.553	3047.38
450.76	3145.68
450.966	3391.44
451.172	3514.31
451.378	3549.13
451.584	3553.23
451.791	3833.8
451.997	3968.96
452.203	4132.8
452.409	4267.97
452.615	4495.29
452.821	4323.26
453.027	4325.31
453.233	4974.52
453.44	4818.87
453.646	5109.68
453.852	5259.18
454.058	5474.22
454.264	5535.66
454.47	5957.54
454.676	5871.53
454.882	6397.85
455.088	6365.09
455.294	6680.47
455.5	7063.44
455.705	7378.83
455.911	7417.74
456.117	7735.18
456.323	7937.93
456.529	7933.83
456.735	8554.37
456.941	8896.38
457.147	9092.98
457.352	9453.42
457.558	9633.65
457.764	10186.6
457.97	10415.97
458.176	10973.02
458.381	11341.65
458.587	11638.61
458.793	12216.13
458.999	12214.09
459.204	13698.86
459.41	14278.44
459.616	14161.7
459.821	14685.98
460.027	15437.59
460.233	16299.78
460.438	16195.34
460.644	17307.38
460.85	17379.06
461.055	18171.63
461.261	18945.76
461.466	18704.1
461.672	19115.74
461.878	21468.86
462.083	20760.26
462.289	21356.22
462.494	22392.49
462.7	22337.2
462.905	22744.74
463.111	24778.37
463.316	25534.07
463.522	26361.45
463.727	27139.68
463.932	28130.9
464.138	29120.07
464.343	30283.31
464.549	30197.3
464.754	32622.09
464.959	33082.89
465.165	33719.81
465.37	33543.68
465.575	33594.88
465.781	35833.31
465.986	36855.25
466.191	36232.66
466.397	36701.65
466.602	35730.91
466.807	37848.51
467.012	38501.81
467.218	39009.71
467.423	39110.06
467.628	40316.31
467.833	42179.96
468.038	41702.79
468.244	40263.07
468.449	42599.8
468.654	42026.37
468.859	42007.93
469.064	42089.85
469.269	40828.31
469.474	41215.37
469.679	42067.33
469.885	41305.48
470.09	41878.91
470.295	42024.32
470.5	41244.04
470.705	41067.92
470.91	40506.77
471.115	39755.17
471.32	40332.7
471.525	40152.48
471.73	38956.46
471.935	38518.2
472.139	37553.6
472.344	37602.75
472.549	37098.95
472.754	36521.43
472.959	35468.77
473.164	34487.79
473.369	33943.03
473.574	35057.13
473.778	34106.87
473.983	33883.64
474.188	32888.33
474.393	31340.07
474.598	31299.11
474.802	30447.15
475.007	30195.25
475.212	30127.67
475.417	28737.1
475.621	28673.61
475.826	28309.07
476.031	27444.83
476.235	26824.29
476.44	26992.23
476.645	26304.11
476.849	25896.56
477.054	25353.85
477.259	24878.72
477.463	24759.94
477.668	24182.42
477.872	24399.5
478.077	23750.29
478.282	22527.66
478.486	22881.95
478.691	22302.38
478.895	22134.45
479.1	21939.89
479.304	22017.71
479.509	21057.21
479.713	21411.51
479.918	21243.58
480.122	20524.74
480.326	20811.46
480.531	20471.5
480.735	20442.82
480.94	19934.93
481.144	20719.3
481.348	19506.9
481.553	19902.16
481.757	19273.43
481.961	19455.7
482.166	19392.22
482.37	19234.52
482.574	18587.36
482.778	18968.29
482.983	19136.22
483.187	18491.11
483.391	18648.8
483.595	18411.24
483.8	17768.18
484.004	17921.77
484.208	17768.18
484.412	17493.75
484.616	17524.47
484.821	17313.53
485.025	16760.58
485.229	16938.75
485.433	16441.09
485.637	16330.5
485.841	16033.55
486.045	15937.29
486.249	15818.51
486.453	15503.12
486.657	15341.33
486.861	15181.59
487.065	14470.95
487.269	14604.07
487.473	14090.02
487.677	14280.49
487.881	14196.52
488.085	13778.73
488.289	13649.71
488.493	13172.53
488.697	13111.1
488.901	13018.94
489.105	12500.8
489.309	12635.97
489.512	12232.52
489.716	12017.48
489.92	11818.83
490.124	11595.6
490.328	11474.77
490.531	11237.2
490.735	11108.18
490.939	10768.22
491.143	10682.2
491.346	10379.11
491.55	10325.86
491.754	10194.79
491.958	10080.1
492.161	9766.76
492.365	9660.27
492.569	9564.01
492.772	9299.83
492.976	9326.45
493.18	9154.42
493.383	9166.71
493.587	9011.06
493.79	8933.24
493.994	8605.56
494.197	8468.35
494.401	8523.65
494.605	8374.14
494.808	8429.44
495.012	8339.33
495.215	8243.07
495.419	8365.95
495.622	7978.89
495.825	8013.7
496.029	7757.71
496.232	8204.16
496.436	7837.58
496.639	8044.42
496.843	7847.82
497.046	7976.84
497.249	7888.78
497.453	7894.92
497.656	7929.73
497.859	7899.02
498.063	7923.59
498.266	8105.86
498.469	7778.19
498.673	7907.21
498.876	7878.54
499.079	7937.93
499.282	7837.58
499.485	8290.18
499.689	8124.29
499.892	8365.95
500.095	8159.11
500.298	8327.04
500.501	8187.78
500.705	8447.87
500.908	8437.63
501.111	8533.89
501.314	8759.16
501.517	8648.57
501.72	8746.87
501.923	8619.9
502.126	8882.04
502.329	9078.65
502.532	9131.89
502.735	9348.98
502.938	9437.04
503.141	9422.7
503.344	9508.72
503.547	9568.11
503.75	9506.67
503.953	10157.92
504.156	10043.24
504.359	10178.4
504.562	10129.25
504.765	10475.36
504.968	10698.59
505.17	10878.81
505.373	10895.19
505.576	11231.06
505.779	11374.42
505.982	11329.36
506.185	11579.22
506.387	11741
506.59	11822.92
506.793	12382.02
506.996	12545.86
507.198	13115.19
507.401	12898.11
507.604	13121.34
507.807	13502.26
508.009	13647.66
508.212	13905.71
508.415	14300.97
508.617	14483.24
508.82	14593.83
509.022	14737.18
509.225	15382.29
509.428	15353.62
509.63	16041.74
509.833	16119.56
510.035	16797.44
510.238	16955.13
510.44	17215.23
510.643	18091.76
510.845	18067.18
511.048	18474.73
511.25	18530.02
511.453	19074.78
511.655	20176.59
511.858	19971.79
512.06	20645.57
512.262	21065.41
512.465	21053.12
512.667	21882.55
512.87	22386.35
513.072	22906.53
513.274	23645.85
513.477	23991.95
513.679	24297.1
513.881	25183.87
514.084	25939.57
514.286	25876.09
514.488	26541.67
514.69	27450.97
514.893	27661.91
515.095	28665.42
515.297	29185.6
515.499	29328.96
515.701	29972.02
515.904	30713.39
516.106	31430.18
516.308	32044.57
516.51	33127.94
516.712	33107.46
516.914	34151.93
517.116	34721.26
517.318	34788.85
517.52	35921.37
517.722	36314.58
517.925	37008.84
518.127	37862.85
518.329	38612.4
518.531	38659.51
518.733	40031.65
518.935	40519.06
519.136	40682.9
519.338	41827.71
519.54	42397.05
519.742	43199.85
519.944	43304.3
520.146	44367.19
520.348	44717.4
520.55	45487.43
520.752	45514.06
520.954	46316.86
521.155	46259.52
521.357	47795.49
521.559	47750.44
521.761	48911.64
521.963	48358.69
522.164	49278.22
522.366	50212.1
522.568	50128.13
522.77	50799.86
522.971	51469.55
523.173	50834.68
523.375	51662.06
523.576	51635.44
523.778	51840.23
523.98	52268.26
524.181	52430.05
524.383	52268.26
524.584	53372.11
524.786	53210.32
524.988	52653.28
525.189	53460.18
525.391	53503.18
525.592	53611.73
525.794	53628.11
525.995	53458.13
526.197	52827.35
526.398	53142.74
526.6	53585.1
526.801	53064.92
527.003	52745.44
527.204	52438.24
527.406	52618.46
527.607	52643.04
527.808	52657.37
528.01	51829.99
528.211	51610.86
528.412	51862.76
528.614	51281.14
528.815	50906.36
529.016	51100.92
529.218	49919.24
529.419	49743.11
529.62	49419.53
529.822	48764.18
530.023	48637.21
530.224	47938.85
530.425	47588.65
530.626	46716.22
530.828	46165.31
531.029	46937.4
531.23	45643.08
531.431	44889.43
531.632	44539.22
531.833	44453.21
532.035	43480.42
532.236	43330.92
532.437	42771.83
532.638	42290.55
532.839	41717.12
533.04	41497.99
533.241	40453.53
533.442	40824.21
533.643	39441.83
533.844	39001.52
534.045	38464.95
534.246	38198.71
534.447	37912
534.648	36943.31
534.849	36715.98
535.05	35786.21
535.251	35544.55
535.451	34983.4
535.652	34950.63
535.853	34110.97
536.054	33629.69
536.255	33558.02
536.456	32765.45
536.657	32867.85
536.857	31923.74
537.058	31317.54
537.259	31258.15
537.46	30948.9
537.66	30361.14
537.861	29834.81
538.062	29496.89
538.263	29480.51
538.463	28837.45
538.664	28616.27
538.865	28083.8
539.065	27989.59
539.266	27170.4
539.466	27051.62
539.667	26375.79
539.868	26435.18
540.068	26211.95
540.269	25994.87
540.469	25562.75
540.67	25392.76
540.87	24907.4
541.071	24600.2
541.271	24186.51
541.472	24235.66
541.672	23713.43
541.873	23420.57
542.073	23187.1
542.274	23037.6
542.474	22814.37
542.675	22050.48
542.875	21960.37
543.075	21681.85
543.276	21477.05
543.476	21669.56
543.676	21231.29
543.877	20770.5
544.077	20825.79
544.277	20448.97
544.478	20004.56
544.678	19793.62
544.878	19594.97
545.078	19525.33
545.279	19054.3
545.479	18951.9
545.679	19128.03
545.879	18554.6
546.079	18482.92
546.28	17923.82
546.48	17977.07
546.68	17905.39
546.88	17581.81
547.08	17538.8
547.28	17184.51
547.48	16527.11
547.68	16869.12
547.88	16234.25
548.081	16449.28
548.281	15959.82
548.481	16004.88
548.681	16008.97
548.881	15501.08
549.081	15494.93
549.28	14905.12
549.48	14874.4
549.68	14661.41
549.88	14614.31
550.08	14260.01
550.28	14139.18
550.48	13834.03
550.68	13866.8
550.88	13545.27
551.08	13578.03
551.279	13182.77
551.479	12982.07
551.679	13057.85
551.879	12592.96
552.079	12453.7
552.278	12431.17
552.478	12267.33
552.678	11788.11
552.878	11738.96
553.077	11448.15
553.277	11171.67
553.477	11231.06
553.676	11196.25
553.876	10702.68
554.076	10592.09
554.275	10516.32
554.475	10209.12
554.674	10237.8
554.874	9953.13
555.074	9748.33
555.273	9721.71
555.473	9793.39
555.672	9281.39
555.872	9353.07
556.071	9189.24
556.271	9146.23
556.47	8632.19
556.67	8468.35
556.869	8492.93
557.068	8396.67
557.268	8427.39
557.467	8294.27
557.667	8003.46
557.866	7722.89
558.065	7577.48
558.265	7569.29
558.464	7333.78
558.663	7307.15
558.863	7243.67
559.062	7194.51
559.261	6956.95
559.461	6946.71
559.66	6717.34
559.859	6625.18
560.058	6512.54
560.258	6512.54
560.457	6342.56
560.656	6315.94
560.855	6137.76
561.054	6270.88
561.253	5894.05
561.453	5855.14
561.652	5904.29
561.851	5810.09
562.05	5613.48
562.249	5572.52
562.448	5644.2
562.647	5447.6
562.846	5218.22
563.045	5287.86
563.244	5271.47
563.443	5207.98
563.642	4943.8
563.841	4898.74
564.04	4825.01
564.239	4771.77
564.438	4675.51
564.637	4609.98
564.836	4548.54
565.035	4480.96
565.234	4433.85
565.432	4339.65
565.631	4323.26
565.83	4302.78
566.029	4040.64
566.228	4089.79
566.427	4181.95
566.625	3952.58
566.824	3962.82
567.023	3893.19
567.222	3790.79
567.42	3712.97
567.619	3786.69
567.818	3532.75
568.016	3708.87
568.215	3575.75
568.414	3622.86
568.612	3516.36
568.811	3409.87
569.01	3401.68
569.208	3350.48
569.407	3307.47
569.605	3147.73
569.804	3117.01
570.002	3180.5
570.201	3026.9
570.4	3078.1
570.598	3041.23
570.797	2985.94
570.995	2850.77
571.193	2992.08
571.392	2727.89
571.59	2635.74
571.789	2656.22
571.987	2729.94
572.186	2791.38
572.384	2465.75
572.582	2471.9
572.781	2703.32
572.979	2435.03
573.177	2439.13
573.376	2346.97
573.574	2369.5
573.772	2338.78
573.971	2283.49
574.169	2220
574.367	2254.81
574.565	2273.25
574.763	2133.98
574.962	2211.81
575.16	2019.3
575.358	1990.63
575.556	2037.73
575.754	1949.67
575.952	1964
576.151	1961.95
576.349	1880.04
576.547	1695.72
576.745	1884.13
576.943	1791.97
577.141	1802.21
577.339	1726.44
577.537	1687.53
577.735	1802.21
577.933	1781.73
578.131	1533.93
578.329	1791.97
578.527	1667.05
578.725	1648.61
578.923	1443.82
579.121	1673.19
579.319	1425.39
579.516	1509.35
579.714	1699.81
579.912	1339.37
580.11	1378.28
580.308	1398.76
580.506	1339.37
580.704	1165.29
580.901	1271.79
581.099	1445.87
581.297	1273.84
581.495	1312.75
581.692	1331.18
581.89	1462.25
582.088	1200.11
582.285	1132.53
582.483	1189.87
582.681	1140.72
582.878	1101.81
583.076	1095.66
583.274	1034.22
583.471	1222.64
583.669	1097.71
583.866	1146.86
584.064	1054.7
584.262	1040.37
584.459	954.35
584.657	1060.85
584.854	995.31
585.052	980.98
585.249	1087.47
585.447	995.31
585.644	864.24
585.841	1099.76
586.039	1056.75
586.236	1058.8
586.434	950.26
586.631	837.62
586.828	784.37
587.026	899.06
587.223	694.26
587.42	774.13
587.618	935.92
587.815	944.11
588.012	737.27
588.21	774.13
588.407	845.81
588.604	802.8
588.801	806.9
588.999	790.52
589.196	788.47
589.393	690.17
589.59	813.04
589.787	718.84
589.984	751.6
590.182	767.99
590.379	708.6
590.576	593.91
590.773	739.32
590.97	765.94
591.167	645.11
591.364	792.56
591.561	690.17
591.758	767.99
591.955	753.65
592.152	755.7
592.349	653.3
592.546	647.16
592.743	700.41
592.94	714.74
593.137	667.64
593.334	741.36
593.531	647.16
593.727	788.47
593.924	747.51
594.121	651.25
594.318	657.4
594.515	796.66
594.712	815.09
594.908	823.28
595.105	587.77
595.302	835.57
595.499	821.24
595.696	849.91
595.892	696.31
596.089	784.37
596.286	778.23
596.482	897.01
596.679	827.38
596.876	858.1
597.072	966.64
597.269	935.92
597.466	913.39
597.662	921.59
597.859	960.5
598.055	952.31
598.252	980.98
598.448	1161.2
598.645	1107.95
598.841	1103.86
599.038	1224.69
599.234	1333.23
599.431	1419.24
599.627	1292.27
599.824	1433.58
600.02	1413.1
600.217	1312.75
600.413	1605.61
600.609	1529.83
600.806	1902.56
601.002	1701.86
601.198	1673.19
601.395	2002.91
601.591	1877.99
601.787	2033.63
601.984	1929.19
602.18	2125.79
602.376	2230.24
602.572	2371.55
602.769	2432.99
602.965	2359.26
603.161	2535.39
603.357	2648.02
603.553	2803.67
603.75	2791.38
603.946	2791.38
604.142	3026.9
604.338	3063.76
604.534	3098.58
604.73	3256.27
604.926	3297.23
605.122	3424.2
605.318	3540.94
605.514	3618.76
605.71	3803.08
605.906	3968.96
606.102	3977.16
606.298	4143.04
606.494	4155.33
606.69	4470.72
606.886	4319.17
607.082	4538.3
607.278	4609.98
607.474	4753.34
607.67	5048.24
607.866	5113.78
608.062	5294
608.257	5459.88
608.453	5562.28
608.649	5873.57
608.845	5857.19
609.041	5914.53
609.236	6184.87
609.432	6348.7
609.628	6473.63
609.824	6815.64
610.019	6852.5
610.215	7004.05
610.411	7395.22
610.606	7700.36
610.802	7559.05
610.998	7882.63
611.193	8241.03
611.389	8171.4
611.584	8521.6
611.78	8302.47
611.976	9070.45
612.171	9365.36
612.367	9404.27
612.562	9772.91
612.758	9709.42
612.953	9932.65
613.149	10669.92
613.344	10643.29
613.539	11038.55
613.735	11380.56
613.93	11536.21
614.126	11628.37
614.321	12230.47
614.517	12508.99
614.712	12685.12
614.907	12994.36
615.103	13461.3
615.298	13373.24
615.493	14124.84
615.688	14253.86
615.884	14855.97
616.079	15040.28
616.274	15734.54
616.47	15763.22
616.665	16193.29
616.86	16740.1
617.055	16944.89
617.25	17585.91
617.445	18192.11
617.641	18149.1
617.836	18894.56
618.031	19203.8
618.226	19893.97
618.421	20166.35
618.616	20936.38
618.811	21051.07
619.006	21546.68
619.201	21839.54
619.396	22572.71
619.591	22576.81
619.786	23705.24
619.981	23979.67
620.176	24243.85
620.371	24796.81
620.566	25513.59
620.761	25951.86
620.956	26984.04
621.151	27074.15
621.346	27901.53
621.541	28216.91
621.735	28833.35
621.93	28802.63
622.125	29607.48
622.32	29488.7
622.515	30533.17
622.709	31198.76
622.904	31933.98
623.099	32151.06
623.294	33195.53
623.488	33324.55
623.683	33900.03
623.878	34067.96
624.072	35184.1
624.267	35390.95
624.462	36154.84
624.656	36292.05
624.851	37297.61
625.046	37328.33
625.24	38012.35
625.435	38540.72
625.629	39228.84
625.824	39546.28
626.018	39861.66
626.213	39949.73
626.407	40777.11
626.602	40908.18
626.796	41964.93
626.991	42304.89
627.185	42382.71
627.38	42167.68
627.574	42732.92
627.768	42902.9
627.963	43197.8
628.157	43177.33
628.352	43914.59
628.546	42960.24
628.74	43658.6
628.935	42827.12
629.129	42968.43
629.323	42583.41
629.517	42605.94
629.712	42694
629.906	41674.12
630.1	41397.64
630.294	41532.81
630.489	41086.35
630.683	40740.24
630.877	39030.19
631.071	38952.37
631.265	38342.07
631.459	37885.37
631.653	36546
631.848	36122.07
632.042	34762.22
632.236	34452.98
632.43	33056.26
632.624	32648.72
632.818	31473.18
633.012	30359.09
633.206	29429.31
633.4	28669.51
633.594	27418.21
633.788	26879.59
633.982	26044.02
634.176	24841.86
634.369	23723.67
634.563	22929.06
634.757	22105.77
634.951	21436.09
635.145	20500.17
635.339	19900.11
635.533	18937.57
635.726	18231.02
635.92	17192.7
636.114	16670.47
636.308	15953.68
636.501	15562.51
636.695	14753.57
636.889	14083.88
637.083	13575.98
637.276	13053.75
637.47	12353.35
637.664	11824.97
637.857	11573.07
638.051	11161.43
638.244	10325.86
638.438	10233.7
638.632	9895.78
638.825	9246.58
639.019	9125.75
639.212	8585.08
639.406	8353.66
639.599	7823.24
639.793	7794.57
639.986	7268.24
640.18	7231.38
640.373	6879.13
640.567	6412.19
640.76	6195.11
640.954	6033.32
641.147	5658.54
641.34	5615.53
641.534	5410.73
641.727	5207.98
641.92	4966.32
642.114	5009.33
642.307	4538.3
642.5	4499.39
642.694	4212.67
642.887	4065.22
643.08	3966.92
643.273	3928
643.467	3622.86
643.66	3485.64
643.853	3348.43
644.046	3243.98
644.239	3014.61
644.432	2947.03
644.626	2787.29
644.819	2785.24
645.012	2717.65
645.205	2650.07
645.398	2492.38
645.591	2498.52
645.784	2279.39
645.977	2103.26
646.17	2123.74
646.363	2029.54
646.556	1923.04
646.749	1832.93
646.942	1830.88
647.135	1796.07
647.328	1650.66
647.521	1632.23
647.714	1544.17
647.907	1490.92
648.099	1425.39
648.292	1355.76
648.485	1329.13
648.678	1296.36
648.871	1196.01
649.064	1277.93
649.256	1126.38
649.449	1089.52
649.642	1015.79
649.835	1054.7
650.027	911.35
650.22	1032.18
650.413	1036.27
650.605	917.49
650.798	884.72
650.991	800.76
651.183	872.43
651.376	825.33
651.568	792.56
651.761	626.68
651.954	743.41
652.146	677.88
652.339	761.84
652.531	727.03
652.724	579.58
652.916	569.34
653.109	405.5
653.301	643.06
653.494	622.58
653.686	638.97
653.879	677.88
654.071	559.1
654.263	444.41
654.456	534.52
654.648	540.66
654.84	460.79
655.033	425.98
655.225	501.75
655.417	421.88
655.61	571.38
655.802	487.42
655.994	520.18
656.186	378.87
656.379	497.66
656.571	313.34
656.763	342.01
656.955	385.02
657.148	325.63
657.34	348.15
657.532	346.11
657.724	317.44
657.916	290.81
658.108	378.87
658.3	354.3
658.492	385.02
658.684	190.46
658.876	413.69
659.068	221.18
659.26	202.75
659.452	235.52
659.644	268.28
659.836	483.32
660.028	223.23
660.22	151.55
660.412	301.05
660.604	249.85
660.796	190.46
660.988	264.19
661.18	243.71
661.372	196.6
661.563	202.75
661.755	278.52
661.947	141.31
662.139	182.27
662.331	176.13
662.522	178.17
662.714	106.49
662.906	100.35
663.097	186.37
663.289	71.68
663.481	106.49
663.673	192.51
663.864	249.85
664.056	241.66
664.247	112.64
664.439	221.18
664.631	73.73
664.822	208.89
665.014	137.21
665.205	71.68
665.397	90.11
665.588	172.03
665.78	137.21
665.971	233.47
666.163	59.39
666.354	215.04
666.546	169.98
666.737	51.2
666.929	92.16
667.12	106.49
667.311	169.98
667.503	106.49
667.694	153.6
667.885	163.84
668.077	274.43
668.268	-26.62
668.459	90.11
668.651	100.35
668.842	237.56
669.033	59.39
669.224	67.58
669.416	292.86
669.607	143.36
669.798	92.16
669.989	264.19
670.18	180.22
670.371	198.65
670.563	81.92
670.754	239.61
670.945	192.51
671.136	212.99
671.327	65.53
671.518	262.14
671.709	229.37
671.9	167.93
672.091	212.99
672.282	135.17
672.473	188.41
672.664	69.63
672.855	122.88
673.046	192.51
673.237	215.04
673.428	116.73
673.619	139.26
673.809	79.87
674	262.14
674.191	225.28
674.382	96.25
674.573	45.06
674.764	145.41
674.954	198.65
675.145	122.88
675.336	28.67
675.527	110.59
675.717	-26.62
675.908	102.4
676.099	53.25
676.289	225.28
676.48	51.2
676.671	122.88
676.861	135.17
677.052	161.79
677.243	143.36
677.433	73.73
677.624	249.85
677.814	79.87
678.005	65.53
678.195	268.28
678.386	12.29
678.576	137.21
678.767	61.44
678.957	151.55
679.148	182.27
679.338	206.84
679.529	206.84
679.719	143.36
679.909	274.43
680.1	217.08
680.29	184.32
680.481	129.02
680.671	256
680.861	186.37
681.052	61.44
681.242	133.12
681.432	126.97
681.622	235.52
681.813	96.25
682.003	155.65
682.193	53.25
682.383	176.13
682.573	133.12
682.764	184.32
682.954	219.13
683.144	305.15
683.334	104.45
683.524	75.77
683.714	45.06
683.904	233.47
684.094	192.51
684.284	178.17
684.474	239.61
684.664	153.6
684.854	163.84
685.044	104.45
685.234	221.18
685.424	210.94
685.614	71.68
685.804	249.85
685.994	147.45
686.184	253.95
686.374	129.02
686.564	186.37
686.753	178.17
686.943	77.82
687.133	100.35
687.323	139.26
687.513	202.75
687.702	116.73
687.892	182.27
688.082	157.69
688.272	231.42
688.461	221.18
688.651	299
688.841	245.76
689.03	204.8
689.22	143.36
689.41	251.9
689.599	212.99
689.789	120.83
689.979	278.52
690.168	159.74
690.358	196.6
690.547	157.69
690.737	225.28
690.926	169.98
691.116	192.51
691.305	278.52
691.495	256
691.684	149.5
691.874	147.45
692.063	124.93
692.252	217.08
692.442	266.24
692.631	108.54
692.82	96.25
693.01	227.32
693.199	192.51
693.388	206.84
693.578	163.84
693.767	221.18
693.956	212.99
694.146	135.17
694.335	231.42
694.524	167.93
694.713	227.32
694.902	163.84
695.092	182.27
695.281	202.75
695.47	251.9
695.659	153.6
695.848	174.08
696.037	159.74
696.226	212.99
696.415	182.27
696.604	342.01
696.793	200.7
696.982	180.22
697.171	307.2
697.36	137.21
697.549	239.61
697.738	88.06
697.927	145.41
698.116	129.02
698.305	161.79
698.494	112.64
698.683	133.12
698.872	292.86
699.061	206.84
699.25	141.31
699.438	163.84
699.627	153.6
699.816	266.24
700.005	139.26
700.193	153.6
700.382	165.89
700.571	192.51
700.76	245.76
700.948	309.24
701.137	288.76
701.326	219.13
701.514	40.96
701.703	174.08
701.892	198.65
702.08	380.92
702.269	108.54
702.457	122.88
702.646	188.41
702.834	200.7
703.023	208.89
703.212	249.85
703.4	235.52
703.589	108.54
703.777	120.83
703.965	79.87
704.154	88.06
704.342	81.92
704.531	180.22
704.719	124.93
704.907	276.48
705.096	131.07
705.284	124.93
705.472	167.93
705.661	157.69
705.849	210.94
706.037	253.95
706.226	161.79
706.414	178.17
706.602	73.73
706.79	145.41
706.979	163.84
707.167	186.37
707.355	34.82
707.543	204.8
707.731	229.37
707.919	184.32
708.107	215.04
708.296	161.79
708.484	63.49
708.672	196.6
708.86	139.26
709.048	141.31
709.236	108.54
709.424	188.41
709.612	161.79
709.8	65.53
709.988	200.7
710.176	202.75
710.364	225.28
710.551	114.69
710.739	94.21
710.927	112.64
711.115	202.75
711.303	151.55
711.491	264.19
711.679	108.54
711.866	249.85
712.054	198.65
712.242	161.79
712.43	198.65
712.617	165.89
712.805	274.43
712.993	118.78
713.181	73.73
713.368	260.09
713.556	172.03
713.744	92.16
713.931	380.92
714.119	223.23
714.306	180.22
714.494	204.8
714.682	163.84
714.869	98.3
715.057	163.84
715.244	43.01
715.432	196.6
715.619	90.11
715.807	215.04
715.994	182.27
716.182	120.83
716.369	231.42
716.556	258.04
716.744	40.96
716.931	112.64
717.119	186.37
717.306	184.32
717.493	194.56
717.681	141.31
717.868	110.59
718.055	286.72
718.242	159.74
718.43	217.08
718.617	184.32
718.804	116.73
718.991	231.42
719.179	198.65
719.366	210.94
719.553	231.42
719.74	126.97
719.927	161.79
720.114	192.51
720.301	118.78
720.488	102.4
720.676	96.25
720.863	317.44
721.05	278.52
721.237	196.6
721.424	241.66
721.611	208.89
721.798	100.35
721.985	139.26
722.172	231.42
722.358	159.74
722.545	256
722.732	258.04
722.919	264.19
723.106	217.08
723.293	167.93
723.48	196.6
723.667	149.5
723.853	329.72
724.04	219.13
724.227	270.33
724.414	239.61
724.6	188.41
724.787	260.09
724.974	419.83
725.161	229.37
725.347	114.69
725.534	188.41
725.72	253.95
725.907	366.59
726.094	274.43
726.28	133.12
726.467	188.41
726.653	151.55
726.84	294.91
727.027	247.8
727.213	159.74
727.4	219.13
727.586	217.08
727.773	190.46
727.959	202.75
728.145	276.48
728.332	245.76
728.518	110.59
728.705	229.37
728.891	239.61
729.077	299
729.264	186.37
729.45	96.25
729.636	245.76
729.823	165.89
730.009	253.95
730.195	178.17
730.382	276.48
730.568	190.46
730.754	247.8
730.94	108.54
731.126	122.88
731.313	237.56
731.499	200.7
731.685	313.34
731.871	194.56
732.057	251.9
732.243	186.37
732.429	217.08
732.615	344.06
732.801	245.76
732.987	231.42
733.173	174.08
733.359	212.99
733.545	237.56
733.731	231.42
733.917	229.37
734.103	235.52
734.289	268.28
734.475	96.25
734.661	305.15
734.847	233.47
735.033	235.52
735.219	284.67
735.404	190.46
735.59	208.89
735.776	251.9
735.962	165.89
736.148	253.95
736.333	274.43
736.519	176.13
736.705	192.51
736.89	313.34
737.076	251.9
737.262	231.42
737.447	206.84
737.633	100.35
737.819	264.19
738.004	200.7
738.19	174.08
738.375	307.2
738.561	235.52
738.747	161.79
738.932	135.17
739.118	331.77
739.303	274.43
739.489	268.28
739.674	161.79
739.859	165.89
740.045	262.14
740.23	217.08
740.416	153.6
740.601	204.8
740.786	237.56
740.972	180.22
741.157	192.51
741.342	129.02
741.528	38.91
741.713	260.09
741.898	208.89
742.084	169.98
742.269	282.62
742.454	190.46
742.639	313.34
742.824	192.51
743.01	311.29
743.195	423.93
743.38	278.52
743.565	165.89
743.75	174.08
743.935	296.96
744.12	299
744.305	149.5
744.49	129.02
744.675	219.13
744.86	208.89
745.045	223.23
745.23	178.17
745.415	235.52
745.6	327.67
745.785	223.23
745.97	264.19
746.155	184.32
746.34	282.62
746.525	217.08
746.71	301.05
746.895	106.49
747.079	90.11
747.264	178.17
747.449	282.62
747.634	296.96
747.819	292.86
748.003	167.93
748.188	157.69
748.373	159.74
748.557	227.32
748.742	333.82
748.927	229.37
749.111	202.75
749.296	118.78
749.481	296.96
749.665	155.65
749.85	59.39
750.034	243.71
750.219	206.84
750.404	129.02
750.588	83.97
750.773	124.93
750.957	186.37
751.141	174.08
751.326	178.17
751.51	92.16
751.695	135.17
751.879	151.55
752.064	243.71
752.248	92.16
752.432	282.62
752.617	233.47
752.801	212.99
752.985	153.6
753.17	294.91
753.354	241.66
753.538	153.6
753.722	122.88
753.907	139.26
754.091	94.21
754.275	172.03
754.459	90.11
754.643	65.53
754.828	200.7
755.012	192.51
755.196	49.15
755.38	73.73
755.564	92.16
755.748	147.45
755.932	102.4
756.116	208.89
756.3	163.84
756.484	145.41
756.668	188.41
756.852	104.45
757.036	200.7
757.22	149.5
757.404	67.58
757.588	126.97
757.772	221.18
757.956	98.3
758.14	253.95
758.323	73.73
758.507	124.93
758.691	8.19
758.875	180.22
759.059	264.19
759.242	79.87
759.426	188.41
759.61	147.45
759.794	20.48
759.977	176.13
760.161	348.15
760.345	176.13
760.528	210.94
760.712	182.27
760.895	161.79
761.079	124.93
761.263	83.97
761.446	63.49
761.63	131.07
761.813	245.76
761.997	79.87
762.18	100.35
762.364	92.16
762.547	-55.3
762.731	124.93
762.914	88.06
763.098	102.4
763.281	73.73
763.464	81.92
763.648	182.27
763.831	96.25
764.015	98.3
764.198	122.88
764.381	65.53
764.564	124.93
764.748	137.21
764.931	94.21
765.114	26.62
765.297	227.32
765.481	94.21
765.664	40.96
765.847	114.69
766.03	229.37
766.213	77.82
766.397	83.97
766.58	30.72
766.763	94.21
766.946	20.48
767.129	34.82
767.312	-43.01
767.495	63.49
767.678	67.58
767.861	90.11
768.044	129.02
768.227	55.3
768.41	98.3
768.593	161.79
768.776	172.03
768.959	124.93
769.142	163.84
769.324	79.87
769.507	100.35
769.69	45.06
769.873	22.53
770.056	165.89
770.239	86.01
770.421	223.23
770.604	147.45
770.787	49.15
770.97	98.3
771.152	75.77
771.335	143.36
771.518	108.54
771.7	20.48
771.883	235.52
772.066	90.11
772.248	165.89
772.431	153.6
772.613	110.59
772.796	63.49
772.978	126.97
773.161	149.5
773.343	43.01
773.526	26.62
773.708	-43.01
773.891	-45.06
774.073	24.58
774.256	71.68
774.438	202.75
774.621	114.69
774.803	159.74
774.985	104.45
775.168	155.65
775.35	43.01
775.532	124.93
775.715	133.12
775.897	147.45
776.079	129.02
776.261	108.54
776.444	81.92
776.626	63.49
776.808	-8.19
776.99	12.29
777.173	77.82
777.355	75.77
777.537	96.25
777.719	133.12
777.901	120.83
778.083	-32.77
778.265	-112.64
778.447	116.73
778.629	20.48
778.811	26.62
778.993	139.26
779.175	217.08
779.357	77.82
779.539	-36.86
779.721	108.54
779.903	157.69
780.085	69.63
780.267	28.67
780.449	71.68
780.631	92.16
780.812	155.65
780.994	18.43
781.176	32.77
781.358	6.14
781.54	169.98
781.721	63.49
781.903	61.44
782.085	36.86
782.267	122.88
782.448	8.19
782.63	-59.39
782.812	100.35
782.993	112.64
783.175	106.49
783.357	-4.1
783.538	18.43
783.72	-22.53
783.901	90.11
784.083	81.92
784.264	145.41
784.446	-43.01
784.627	-4.1
784.809	116.73
784.99	-45.06
785.172	61.44
785.353	88.06
785.535	106.49
785.716	16.38
785.897	-55.3
786.079	63.49
786.26	-18.43
786.441	102.4
786.623	-14.34
786.804	14.34
786.985	26.62
787.167	53.25
787.348	81.92
787.529	16.38
787.71	145.41
787.891	75.77
788.073	-45.06
788.254	-38.91
788.435	157.69
788.616	22.53
788.797	-57.34
788.978	43.01
789.159	100.35
789.34	81.92
789.522	106.49
789.703	-36.86
789.884	79.87
790.065	32.77
790.246	159.74
790.427	36.86
790.607	126.97
790.788	118.78
790.969	-73.73
791.15	69.63
791.331	-4.1
791.512	79.87
791.693	-34.82
791.874	-12.29
792.054	176.13
792.235	122.88
792.416	-36.86
792.597	-2.05
792.778	114.69
792.958	8.19
793.139	57.34
793.32	92.16
793.5	-30.72
793.681	122.88
793.862	77.82
794.042	-0
794.223	-57.34
794.404	14.34
794.584	-28.67
794.765	-0
794.945	-2.05
795.126	77.82
795.306	32.77
795.487	77.82
795.667	-75.77
795.848	63.49
796.028	65.53
796.209	-16.38
796.389	112.64
796.57	24.58
796.75	-4.1
796.93	106.49
797.111	-55.3
797.291	20.48
797.471	67.58
797.652	-6.14
797.832	45.06
798.012	100.35
798.192	12.29
798.373	-92.16
798.553	10.24
798.733	94.21
798.913	-8.19
799.093	-24.58
799.274	20.48
799.454	12.29
799.634	2.05
799.814	108.54
799.994	-4.1
800.174	120.83
800.354	12.29
800.534	-104.45
800.714	73.73
800.894	24.58
801.074	8.19
801.254	-32.77
801.434	114.69
801.614	49.15
801.794	-45.06
801.974	2007.01
802.154	-10.24
802.334	83.97
802.514	-43.01
802.693	8.19
802.873	6.14
803.053	163.84
803.233	61.44
803.413	-67.58
803.592	20.48
803.772	-26.62
803.952	14.34
804.131	-88.06
804.311	40.96
804.491	161.79
804.67	22.53
804.85	-100.35
805.03	47.1
805.209	61.44
805.389	16.38
805.568	-79.87
805.748	28.67
805.928	8.19
806.107	55.3
806.287	32.77
806.466	49.15
806.646	53.25
806.825	61.44
807.004	-30.72
807.184	65.53
807.363	77.82
807.543	40.96
807.722	-4.1
807.901	71.68
808.081	106.49
808.26	-75.77
808.439	-0
808.619	14.34
808.798	-20.48
808.977	57.34
809.156	63.49
809.336	10.24
809.515	12.29
809.694	-4.1
809.873	-12.29
810.052	86.01
810.231	75.77
810.411	110.59
810.59	16.38
810.769	12.29
810.948	61.44
811.127	-102.4
811.306	-129.02
811.485	49.15
811.664	126.97
811.843	-0
812.022	6.14
812.201	20.48
812.38	73.73
812.559	-34.82
812.737	65.53
812.916	-112.64
813.095	12.29
813.274	96.25
813.453	-8.19
813.632	47.1
813.811	106.49
813.989	-73.73
814.168	47.1
814.347	-53.25
814.526	-12.29
814.704	108.54
814.883	61.44
815.062	-55.3
815.24	79.87
815.419	16.38
815.598	77.82
815.776	-86.01
815.955	-24.58
816.133	-47.1
816.312	-34.82
816.49	-77.82
816.669	8.19
816.847	69.63
817.026	77.82
817.204	36.86
817.383	88.06
817.561	-8.19
817.74	57.34
817.918	-49.15
818.097	86.01
818.275	20.48
818.453	77.82
818.632	135.17
818.81	-47.1
818.988	20.48
819.167	-32.77
819.345	4.1
819.523	-59.39
819.701	8.19
819.879	32.77
820.058	73.73
820.236	-36.86
820.414	12.29
820.592	40.96
820.77	-45.06
820.948	20.48
821.127	43.01
821.305	-20.48
821.483	-4.1
821.661	83.97
821.839	59.39
822.017	-8.19
822.195	-14.34
822.373	149.5
822.551	36.86
822.729	-22.53
822.907	24.58
823.085	153.6
823.262	-8.19
823.44	-10.24
823.618	36.86
823.796	-2.05
823.974	-28.67
824.152	40.96
824.329	47.1
824.507	-40.96
824.685	22.53
824.863	-45.06
825.04	-4.1
825.218	102.4
825.396	65.53
825.574	45.06
825.751	18.43
825.929	24.58
826.107	-73.73
826.284	16.38
826.462	30.72
826.639	40.96
826.817	-20.48
826.994	8.19
827.172	-110.59
827.349	139.26
827.527	-38.91
827.704	-38.91
827.882	151.55
828.059	-16.38
828.237	30.72
828.414	75.77
828.591	-106.49
828.769	34.82
828.946	-0
829.124	94.21
829.301	137.21
829.478	4.1
829.655	30.72
829.833	40.96
830.01	-120.83
830.187	-2.05
830.364	4.1
830.542	14.34
830.719	24.58
830.896	69.63
831.073	53.25
831.25	16.38
831.427	86.01
831.604	-73.73
831.782	16.38
831.959	12.29
832.136	61.44
832.313	73.73
832.49	-12.29
832.667	22.53
832.844	-18.43
833.021	104.45
833.198	-30.72
833.374	30.72
833.551	-22.53
833.728	106.49
833.905	104.45
834.082	-69.63
834.259	40.96
834.436	40.96
834.612	-53.25
834.789	32.77
834.966	24.58
835.143	24.58
835.319	-79.87
835.496	81.92
835.673	112.64
835.85	83.97
836.026	102.4
836.203	77.82
836.38	-2.05
836.556	-22.53
836.733	-61.44
836.909	100.35
837.086	-32.77
837.262	-53.25
837.439	-18.43
837.616	-26.62
837.792	22.53
837.968	22.53
838.145	-100.35
838.321	-28.67
838.498	-20.48
838.674	86.01
838.851	75.77
839.027	2.05
839.203	16.38
839.38	-2.05
839.556	-16.38
839.732	40.96
839.909	-26.62
840.085	-30.72
840.261	-71.68
840.437	43.01
840.614	36.86
840.79	45.06
840.966	34.82
841.142	-10.24
841.318	-88.06
841.494	-0
841.671	67.58
841.847	-63.49
842.023	-100.35
842.199	90.11
842.375	79.87
842.551	-124.93
842.727	-83.97
842.903	182.27
843.079	4.1
843.255	65.53
843.431	2.05
843.607	45.06
843.783	-200.7
843.959	-20.48
844.134	-26.62
844.31	163.84
844.486	12.29
844.662	-24.58
844.838	-4.1
845.013	65.53
845.189	55.3
845.365	71.68
845.541	-10.24
845.716	16.38
845.892	163.84
846.068	12.29
846.244	-55.3
846.419	-45.06
846.595	-34.82
846.77	-18.43
846.946	73.73
847.122	-75.77
847.297	-24.58
847.473	51.2
847.648	-32.77
847.824	63.49
847.999	-139.26
848.175	-45.06
848.35	12.29
848.526	90.11
848.701	-4.1
848.876	79.87
849.052	40.96
849.227	12.29
849.403	-20.48
849.578	-20.48
849.753	79.87
849.929	55.3
850.104	-86.01
850.279	-36.86
850.454	36.86
850.63	67.58
850.805	40.96
850.98	-0
851.155	10.24
851.33	6.14
851.505	-24.58
851.681	153.6
851.856	-88.06
852.031	-6.14
852.206	104.45
852.381	-124.93
852.556	-28.67
852.731	26.62
852.906	49.15
853.081	-4.1
853.256	151.55
853.431	-0
853.606	-49.15
853.781	12.29
853.956	-114.69
854.131	96.25
854.305	-4.1
854.48	28.67
854.655	-67.58
854.83	38.91
855.005	-8.19
855.18	8.19
855.354	-6.14
855.529	30.72
855.704	-22.53
855.879	83.97
856.053	-86.01
856.228	8.19
856.403	-10.24
856.577	8.19
856.752	-36.86
856.926	30.72
857.101	-0
857.276	-24.58
857.45	28.67
857.625	40.96
857.799	12.29
857.974	-6.14
858.148	-141.31
858.323	20.48
858.497	-8.19
858.672	-4.1
858.846	14.34
859.02	24.58
859.195	-43.01
859.369	-14.34
859.543	20.48
859.718	14.34
859.892	24.58
860.066	59.39
860.241	-45.06
860.415	-73.73
860.589	92.16
860.763	-12.29
860.938	-51.2
861.112	47.1
861.286	65.53
861.46	55.3
861.634	8.19
861.808	49.15
861.982	-6.14
862.157	-106.49
862.331	-57.34
862.505	-38.91
862.679	-20.48
862.853	-43.01
863.027	-8.19
863.201	122.88
863.375	24.58
863.549	32.77
863.722	75.77
863.896	88.06
864.07	-40.96
864.244	-34.82
864.418	36.86
864.592	104.45
864.766	88.06
864.939	63.49
865.113	-43.01
865.287	141.31
865.461	-0
865.634	-26.62
865.808	86.01
865.982	8.19
866.156	-43.01
866.329	-122.88
866.503	-14.34
866.676	57.34
866.85	53.25
867.024	14.34
867.197	51.2
867.371	73.73
867.544	20.48
867.718	-108.54
867.891	79.87
868.065	-94.21
868.238	30.72
868.412	45.06
868.585	-30.72
868.759	-40.96
868.932	-40.96
869.105	-112.64
869.279	-40.96
869.452	28.67
869.625	16.38
869.799	-4.1
869.972	-47.1
870.145	6.14
870.319	57.34
870.492	-40.96
870.665	-26.62
870.838	-59.39
871.011	-114.69
871.185	28.67
871.358	61.44
871.531	2.05
871.704	-59.39
871.877	49.15
872.05	12.29
872.223	-32.77
872.396	131.07
872.569	2.05
872.742	-122.88
872.915	36.86
873.088	-75.77
873.261	2.05
873.434	18.43
873.607	47.1
873.78	71.68
873.953	-49.15
874.126	40.96
874.299	-2.05
874.471	-28.67
874.644	-2.05
874.817	69.63
874.99	126.97
875.163	-45.06
875.335	-14.34
875.508	-34.82
875.681	88.06
875.853	-49.15
876.026	-24.58
876.199	49.15
876.371	61.44
876.544	12.29
876.717	-38.91
876.889	-14.34
877.062	18.43
877.234	-71.68
877.407	-104.45
877.579	12.29
877.752	40.96
877.924	61.44
878.097	32.77
878.269	51.2
878.442	55.3
878.614	45.06
878.786	57.34
878.959	69.63
879.131	65.53
879.303	-26.62
879.476	14.34
879.648	38.91
879.82	2.05
879.993	-133.12
880.165	8.19
880.337	-51.2
880.509	-34.82
880.681	-108.54
880.854	-26.62
881.026	-45.06
881.198	219.13
881.37	-34.82
881.542	-24.58
881.714	-8.19
881.886	-45.06
882.058	57.34
882.23	59.39
882.402	10.24
882.574	45.06
882.746	12.29
882.918	112.64
883.09	81.92
883.262	-71.68
883.434	26.62
883.606	-57.34
883.778	-24.58
883.95	116.73
884.122	69.63
884.293	79.87
884.465	-6.14
884.637	86.01
884.809	26.62
884.98	20.48
885.152	36.86
885.324	34.82
885.496	-77.82
885.667	8.19
885.839	24.58
886.011	73.73
886.182	83.97
886.354	73.73
886.525	-4.1
886.697	79.87
886.869	-51.2
887.04	-20.48
887.212	81.92
887.383	120.83
887.555	8.19
887.726	-24.58
887.897	-10.24
888.069	-57.34
888.24	45.06
888.412	-30.72
888.583	-40.96
888.754	24.58
888.926	-63.49
889.097	-73.73
889.268	-24.58
889.44	14.34
889.611	-100.35
889.782	-26.62
889.953	-18.43
890.125	122.88
890.296	-49.15
890.467	-65.54
890.638	-16.38
890.809	-43.01
890.98	-57.34
891.151	-0
891.323	57.34
891.494	38.91
891.665	-57.34
891.836	-24.58
892.007	8.19
892.178	4.1
892.349	-40.96
892.52	-28.67
892.691	43.01
892.862	-4.1
893.032	-110.59
893.203	-45.06
893.374	26.62
893.545	67.58
893.716	-124.93
893.887	106.49
894.057	-24.58
894.228	8.19
894.399	-102.4
894.57	26.62
894.74	-28.67
894.911	40.96
895.082	-12.29
895.253	67.58
895.423	24.58
895.594	2.05
895.764	47.1
895.935	-71.68
896.106	24.58
896.276	-65.54
896.447	69.63
896.617	-139.26
896.788	-14.34
896.958	-10.24
897.129	55.3
897.299	18.43
897.47	77.82
897.64	59.39
897.81	-8.19
897.981	30.72
898.151	-32.77
898.322	14.34
898.492	92.16
898.662	-55.3
898.832	-83.97
899.003	6.14
899.173	36.86
899.343	-20.48
899.513	-4.1
