Data from USB4F104151__254__11-20-09-334.txt Node

Date: Wed Feb 26 11:20:09 EST 2025
User: louis
Spectrometer: USB4F10415
Trigger mode: 4
Integration Time (sec): 1.000000E-1
Scans to average: 1
Electric dark correction enabled: true
Nonlinearity correction enabled: false
Boxcar width: 0
XAxis mode: Wavelengths
Number of Pixels in Spectrum: 3648
>>>>>Begin Spectral Data<<<<<
178.204	-495.78
178.424	-495.78
178.644	-495.78
178.864	-512.16
179.084	-432.29
179.304	18.26
179.524	1.88
179.744	112.47
179.964	28.5
180.184	-18.6
180.404	22.36
180.624	-88.23
180.844	-16.55
181.064	-88.23
181.283	-16.55
181.503	-18.6
181.723	63.32
181.943	-110.76
182.163	87.89
182.383	28.5
182.602	94.04
182.822	85.84
183.042	77.65
183.262	-6.31
183.482	-86.19
183.701	38.74
183.921	-10.41
184.141	-37.03
184.361	114.52
184.58	30.55
184.8	40.79
185.02	-49.32
185.239	28.5
185.459	116.56
185.679	59.22
185.898	-159.91
186.118	32.6
186.338	-4.27
186.557	85.84
186.777	10.07
186.997	-47.27
187.216	24.4
187.436	194.39
187.655	18.26
187.875	100.18
188.095	-4.27
188.314	145.24
188.534	48.98
188.753	-37.03
188.973	91.99
189.192	110.42
189.412	24.4
189.631	34.64
189.851	89.94
190.07	173.91
190.29	-118.95
190.509	10.07
190.729	38.74
190.948	206.67
191.168	245.59
191.387	91.99
191.607	22.36
191.826	122.71
192.045	79.7
192.265	18.26
192.484	71.51
192.704	30.55
192.923	-67.75
193.142	149.33
193.362	77.65
193.581	77.65
193.8	112.47
194.02	130.9
194.239	48.98
194.458	81.75
194.678	-12.46
194.897	-55.47
195.116	40.79
195.335	28.5
195.555	67.41
195.774	-24.75
195.993	104.28
196.212	22.36
196.432	-10.41
196.651	-75.95
196.87	-14.51
197.089	300.88
197.308	1.88
197.528	71.51
197.747	-84.14
197.966	48.98
198.185	102.23
198.404	-6.31
198.623	65.36
198.842	157.52
199.062	221.01
199.281	106.32
199.5	-22.7
199.719	-2.22
199.938	40.79
200.157	57.17
200.376	108.37
200.595	151.38
200.814	100.18
201.033	-71.85
201.252	178
201.471	65.36
201.69	65.36
201.909	48.98
202.128	139.09
202.347	57.17
202.566	-2.22
202.785	-110.76
203.004	14.17
203.223	227.15
203.442	-0.17
203.661	-26.79
203.879	34.64
204.098	132.95
204.317	10.07
204.536	81.75
204.755	155.47
204.974	55.12
205.193	-18.6
205.411	120.66
205.63	137.04
205.849	12.12
206.068	5.97
206.287	-28.84
206.505	63.32
206.724	57.17
206.943	22.36
207.162	42.84
207.381	108.37
207.599	3.93
207.818	-20.65
208.037	-18.6
208.255	18.26
208.474	46.93
208.693	61.27
208.911	-20.65
209.13	79.7
209.349	81.75
209.567	118.61
209.786	-10.41
210.005	128.85
210.223	14.17
210.442	-69.8
210.661	53.08
210.879	24.4
211.098	100.18
211.316	36.69
211.535	12.12
211.753	100.18
211.972	20.31
212.191	-8.36
212.409	-30.89
212.628	40.79
212.846	-8.36
213.065	69.46
213.283	48.98
213.502	57.17
213.72	57.17
213.938	71.51
214.157	40.79
214.375	65.36
214.594	-82.09
214.812	48.98
215.031	-26.79
215.249	24.4
215.467	44.88
215.686	46.93
215.904	57.17
216.122	26.45
216.341	163.67
216.559	81.75
216.778	91.99
216.996	149.33
217.214	5.97
217.432	-32.94
217.651	-82.09
217.869	-30.89
218.087	26.45
218.306	-20.65
218.524	55.12
218.742	57.17
218.96	116.56
219.179	22.36
219.397	-2.22
219.615	204.63
219.833	18.26
220.051	-18.6
220.27	44.88
220.488	81.75
220.706	81.75
220.924	-24.75
221.142	-49.32
221.36	46.93
221.578	42.84
221.796	-28.84
222.015	61.27
222.233	40.79
222.451	132.95
222.669	8.02
222.887	40.79
223.105	-22.7
223.323	-12.46
223.541	-26.79
223.759	26.45
223.977	42.84
224.195	128.85
224.413	94.04
224.631	-10.41
224.849	89.94
225.067	272.21
225.285	-26.79
225.503	8.02
225.721	-67.75
225.939	-43.18
226.157	-2.22
226.375	151.38
226.592	-37.03
226.81	24.4
227.028	73.56
227.246	69.46
227.464	83.8
227.682	63.32
227.9	77.65
228.117	53.08
228.335	57.17
228.553	32.6
228.771	26.45
228.989	44.88
229.206	106.32
229.424	1.88
229.642	-16.55
229.86	-4.27
230.077	165.71
230.295	91.99
230.513	98.13
230.731	77.65
230.948	192.34
231.166	122.71
231.384	-6.31
231.601	-39.08
231.819	180.05
232.037	30.55
232.254	-65.71
232.472	28.5
232.689	3.93
232.907	225.11
233.125	12.12
233.342	-26.79
233.56	-34.99
233.777	-26.79
233.995	3.93
234.213	104.28
234.43	159.57
234.648	3.93
234.865	-10.41
235.083	48.98
235.3	14.17
235.518	89.94
235.735	89.94
235.953	102.23
236.17	96.08
236.388	-14.51
236.605	73.56
236.822	57.17
237.04	149.33
237.257	53.08
237.475	14.17
237.692	3.93
237.909	106.32
238.127	48.98
238.344	132.95
238.562	8.02
238.779	-84.14
238.996	-53.42
239.214	73.56
239.431	91.99
239.648	44.88
239.865	14.17
240.083	46.93
240.3	-82.09
240.517	-49.32
240.735	71.51
240.952	102.23
241.169	38.74
241.386	57.17
241.603	5.97
241.821	-151.72
242.038	30.55
242.255	77.65
242.472	-8.36
242.689	112.47
242.907	30.55
243.124	-26.79
243.341	-4.27
243.558	-41.13
243.775	-77.99
243.992	-28.84
244.209	102.23
244.426	196.43
244.643	-34.99
244.86	48.98
245.078	16.21
245.295	30.55
245.512	-4.27
245.729	-41.13
245.946	85.84
246.163	53.08
246.38	-39.08
246.597	94.04
246.814	61.27
247.031	16.21
247.248	42.84
247.464	81.75
247.681	55.12
247.898	94.04
248.115	83.8
248.332	-49.32
248.549	139.09
248.766	165.71
248.983	65.36
249.2	38.74
249.417	143.19
249.633	48.98
249.85	26.45
250.067	53.08
250.284	-22.7
250.501	106.32
250.717	34.64
250.934	3.93
251.151	14.17
251.368	-6.31
251.585	53.08
251.801	65.36
252.018	-22.7
252.235	104.28
252.451	-92.33
252.668	18.26
252.885	143.19
253.102	44.88
253.318	124.76
253.535	-32.94
253.752	-26.79
253.968	-22.7
254.185	-24.75
254.401	8.02
254.618	81.75
254.835	-41.13
255.051	128.85
255.268	102.23
255.484	12.12
255.701	-16.55
255.917	53.08
256.134	-41.13
256.351	18.26
256.567	12.12
256.784	-20.65
257	-67.75
257.217	89.94
257.433	16.21
257.65	48.98
257.866	135
258.082	-59.56
258.299	28.5
258.515	51.03
258.732	-12.46
258.948	-14.51
259.165	16.21
259.381	-22.7
259.597	42.84
259.814	53.08
260.03	-10.41
260.246	-34.99
260.463	165.71
260.679	110.42
260.895	59.22
261.112	46.93
261.328	48.98
261.544	-55.47
261.761	192.34
261.977	-65.71
262.193	-67.75
262.409	40.79
262.626	69.46
262.842	24.4
263.058	-41.13
263.274	57.17
263.49	30.55
263.707	63.32
263.923	53.08
264.139	-71.85
264.355	20.31
264.571	112.47
264.787	135
265.004	55.12
265.22	-39.08
265.436	32.6
265.652	18.26
265.868	57.17
266.084	-88.23
266.3	85.84
266.516	-112.81
266.732	118.61
266.948	59.22
267.164	-24.75
267.38	-22.7
267.596	102.23
267.812	112.47
268.028	48.98
268.244	-28.84
268.46	85.84
268.676	-90.28
268.892	30.55
269.108	-51.37
269.324	-106.67
269.54	-45.23
269.756	75.6
269.972	-51.37
270.188	38.74
270.403	-86.19
270.619	44.88
270.835	-28.84
271.051	-2.22
271.267	-37.03
271.483	5.97
271.698	114.52
271.914	48.98
272.13	57.17
272.346	-51.37
272.562	98.13
272.777	75.6
272.993	67.41
273.209	38.74
273.425	100.18
273.64	22.36
273.856	30.55
274.072	-22.7
274.287	-26.79
274.503	81.75
274.719	36.69
274.934	18.26
275.15	-59.56
275.366	112.47
275.581	-6.31
275.797	-63.66
276.012	3.93
276.228	-69.8
276.444	8.02
276.659	61.27
276.875	1.88
277.09	-34.99
277.306	30.55
277.521	65.36
277.737	-65.71
277.952	71.51
278.168	-14.51
278.383	10.07
278.599	1.88
278.814	110.42
279.03	30.55
279.245	46.93
279.461	38.74
279.676	77.65
279.892	-49.32
280.107	-39.08
280.322	10.07
280.538	120.66
280.753	-86.19
280.969	81.75
281.184	28.5
281.399	108.37
281.615	-37.03
281.83	63.32
282.045	-12.46
282.26	-75.95
282.476	-8.36
282.691	106.32
282.906	24.4
283.122	5.97
283.337	-84.14
283.552	94.04
283.767	14.17
283.983	20.31
284.198	36.69
284.413	118.61
284.628	-82.09
284.843	89.94
285.058	38.74
285.274	-59.56
285.489	16.21
285.704	110.42
285.919	55.12
286.134	16.21
286.349	5.97
286.564	34.64
286.779	106.32
286.995	1.88
287.21	-24.75
287.425	112.47
287.64	-49.32
287.855	48.98
288.07	-57.51
288.285	124.76
288.5	96.08
288.715	87.89
288.93	36.69
289.145	8.02
289.36	77.65
289.575	10.07
289.79	116.56
290.004	-53.42
290.219	120.66
290.434	-34.99
290.649	40.79
290.864	-0.17
291.079	1.88
291.294	36.69
291.509	-0.17
291.724	-6.31
291.938	-59.56
292.153	124.76
292.368	48.98
292.583	69.46
292.798	151.38
293.012	71.51
293.227	106.32
293.442	48.98
293.657	202.58
293.871	206.67
294.086	48.98
294.301	157.52
294.516	104.28
294.73	-0.17
294.945	-102.57
295.16	-18.6
295.374	130.9
295.589	149.33
295.804	22.36
296.018	55.12
296.233	137.04
296.447	51.03
296.662	32.6
296.877	59.22
297.091	114.52
297.306	77.65
297.52	-2.22
297.735	-10.41
297.949	38.74
298.164	40.79
298.378	16.21
298.593	-24.75
298.807	-4.27
299.022	-84.14
299.236	157.52
299.451	-30.89
299.665	-49.32
299.88	73.56
300.094	108.37
300.309	-39.08
300.523	46.93
300.737	-2.22
300.952	110.42
301.166	-4.27
301.381	-32.94
301.595	-47.27
301.809	69.46
302.024	-14.51
302.238	-82.09
302.452	137.04
302.667	48.98
302.881	65.36
303.095	149.33
303.309	118.61
303.524	-49.32
303.738	53.08
303.952	-16.55
304.166	81.75
304.381	-41.13
304.595	98.13
304.809	-43.18
305.023	53.08
305.237	-24.75
305.452	-94.38
305.666	40.79
305.88	77.65
306.094	46.93
306.308	5.97
306.522	14.17
306.736	61.27
306.95	61.27
307.164	-55.47
307.379	-0.17
307.593	165.71
307.807	130.9
308.021	83.8
308.235	108.37
308.449	-155.82
308.663	-34.99
308.877	223.06
309.091	-8.36
309.305	71.51
309.519	-125.1
309.733	69.46
309.947	-43.18
310.161	77.65
310.374	108.37
310.588	190.29
310.802	-86.19
311.016	22.36
311.23	102.23
311.444	22.36
311.658	59.22
311.872	112.47
312.085	46.93
312.299	112.47
312.513	139.09
312.727	91.99
312.941	20.31
313.154	79.7
313.368	51.03
313.582	46.93
313.796	3.93
314.009	-18.6
314.223	120.66
314.437	-53.42
314.651	28.5
314.864	20.31
315.078	20.31
315.292	-6.31
315.505	32.6
315.719	89.94
315.933	36.69
316.146	57.17
316.36	-22.7
316.573	83.8
316.787	38.74
317.001	48.98
317.214	-2.22
317.428	38.74
317.641	-4.27
317.855	-16.55
318.068	-10.41
318.282	38.74
318.495	132.95
318.709	48.98
318.922	18.26
319.136	178
319.349	126.8
319.563	-104.62
319.776	10.07
319.99	38.74
320.203	173.91
320.417	20.31
320.63	79.7
320.843	192.34
321.057	53.08
321.27	61.27
321.483	81.75
321.697	135
321.91	-0.17
322.124	63.32
322.337	77.65
322.55	-16.55
322.763	61.27
322.977	30.55
323.19	-16.55
323.403	8.02
323.617	67.41
323.83	124.76
324.043	-2.22
324.256	3.93
324.469	-0.17
324.683	128.85
324.896	36.69
325.109	61.27
325.322	-49.32
325.535	96.08
325.748	143.19
325.962	26.45
326.175	-20.65
326.388	10.07
326.601	139.09
326.814	-0.17
327.027	122.71
327.24	104.28
327.453	-143.53
327.666	104.28
327.879	190.29
328.092	59.22
328.305	8.02
328.518	30.55
328.731	-12.46
328.944	-47.27
329.157	22.36
329.37	-22.7
329.583	126.8
329.796	151.38
330.009	-16.55
330.222	-16.55
330.435	79.7
330.648	12.12
330.861	5.97
331.073	1.88
331.286	46.93
331.499	59.22
331.712	-26.79
331.925	55.12
332.138	-4.27
332.35	151.38
332.563	-0.17
332.776	79.7
332.989	-22.7
333.202	-47.27
333.414	20.31
333.627	108.37
333.84	-53.42
334.053	59.22
334.265	-0.17
334.478	28.5
334.691	-30.89
334.903	40.79
335.116	-12.46
335.329	-69.8
335.541	98.13
335.754	151.38
335.966	-18.6
336.179	1.88
336.392	1.88
336.604	3.93
336.817	81.75
337.029	122.71
337.242	57.17
337.454	26.45
337.667	91.99
337.88	94.04
338.092	94.04
338.305	-0.17
338.517	-2.22
338.729	77.65
338.942	169.81
339.154	-61.61
339.367	-67.75
339.579	20.31
339.792	-80.04
340.004	114.52
340.217	-10.41
340.429	61.27
340.641	-8.36
340.854	10.07
341.066	44.88
341.278	65.36
341.491	104.28
341.703	79.7
341.915	-82.09
342.128	20.31
342.34	61.27
342.552	-57.51
342.764	16.21
342.977	-61.61
343.189	85.84
343.401	65.36
343.613	-104.62
343.826	-0.17
344.038	1.88
344.25	8.02
344.462	-55.47
344.674	55.12
344.886	-41.13
345.099	-41.13
345.311	130.9
345.523	-32.94
345.735	-121
345.947	-0.17
346.159	96.08
346.371	-24.75
346.583	-8.36
346.795	159.57
347.007	10.07
347.219	100.18
347.431	-41.13
347.643	122.71
347.855	16.21
348.067	169.81
348.279	-41.13
348.491	73.56
348.703	36.69
348.915	3.93
349.127	28.5
349.339	139.09
349.551	-4.27
349.763	81.75
349.975	-4.27
350.187	114.52
350.399	118.61
350.61	59.22
350.822	30.55
351.034	12.12
351.246	-37.03
351.458	96.08
351.669	118.61
351.881	96.08
352.093	100.18
352.305	81.75
352.517	100.18
352.728	108.37
352.94	-45.23
353.152	73.56
353.363	-30.89
353.575	118.61
353.787	130.9
353.999	98.13
354.21	184.15
354.422	-24.75
354.633	-32.94
354.845	-45.23
355.057	81.75
355.268	89.94
355.48	89.94
355.692	-73.9
355.903	-0.17
356.115	-47.27
356.326	-12.46
356.538	91.99
356.749	40.79
356.961	98.13
357.172	85.84
357.384	-73.9
357.595	208.72
357.807	-77.99
358.018	40.79
358.23	-41.13
358.441	180.05
358.653	165.71
358.864	-8.36
359.075	-67.75
359.287	24.4
359.498	83.8
359.709	159.57
359.921	98.13
360.132	67.41
360.344	-41.13
360.555	22.36
360.766	77.65
360.977	57.17
361.189	81.75
361.4	-43.18
361.611	55.12
361.823	126.8
362.034	26.45
362.245	-41.13
362.456	-67.75
362.667	110.42
362.879	-14.51
363.09	-16.55
363.301	63.32
363.512	36.69
363.723	46.93
363.935	-22.7
364.146	87.89
364.357	20.31
364.568	44.88
364.779	-61.61
364.99	128.85
365.201	44.88
365.412	132.95
365.623	-86.19
365.834	8.02
366.045	57.17
366.256	63.32
366.467	81.75
366.678	-0.17
366.889	65.36
367.1	12.12
367.311	57.17
367.522	-22.7
367.733	96.08
367.944	36.69
368.155	48.98
368.366	38.74
368.577	51.03
368.788	40.79
368.999	-34.99
369.209	-41.13
369.42	245.59
369.631	151.38
369.842	137.04
370.053	5.97
370.264	69.46
370.474	-80.04
370.685	-39.08
370.896	79.7
371.107	79.7
371.317	-57.51
371.528	85.84
371.739	167.76
371.95	77.65
372.16	63.32
372.371	10.07
372.582	77.65
372.792	67.41
373.003	38.74
373.214	-45.23
373.424	69.46
373.635	-43.18
373.846	128.85
374.056	38.74
374.267	1.88
374.477	59.22
374.688	-18.6
374.898	3.93
375.109	-2.22
375.319	38.74
375.53	126.8
375.74	36.69
375.951	-98.47
376.161	-16.55
376.372	87.89
376.582	-32.94
376.793	55.12
377.003	34.64
377.214	-6.31
377.424	51.03
377.635	63.32
377.845	-16.55
378.055	126.8
378.266	-104.62
378.476	57.17
378.686	34.64
378.897	22.36
379.107	81.75
379.317	69.46
379.528	20.31
379.738	30.55
379.948	-92.33
380.158	190.29
380.369	63.32
380.579	71.51
380.789	91.99
380.999	110.42
381.21	108.37
381.42	167.76
381.63	16.21
381.84	116.56
382.05	124.76
382.261	118.61
382.471	143.19
382.681	-24.75
382.891	167.76
383.101	94.04
383.311	-30.89
383.521	18.26
383.731	122.71
383.941	40.79
384.151	32.6
384.361	-10.41
384.571	65.36
384.781	85.84
384.991	167.76
385.201	178
385.411	87.89
385.621	102.23
385.831	69.46
386.041	30.55
386.251	-14.51
386.461	46.93
386.671	-41.13
386.881	91.99
387.091	65.36
387.301	59.22
387.511	22.36
387.72	75.6
387.93	128.85
388.14	-51.37
388.35	153.43
388.56	57.17
388.769	59.22
388.979	51.03
389.189	-45.23
389.399	65.36
389.609	118.61
389.818	157.52
390.028	48.98
390.238	85.84
390.447	-63.66
390.657	3.93
390.867	67.41
391.076	-69.8
391.286	42.84
391.496	32.6
391.705	42.84
391.915	122.71
392.125	108.37
392.334	46.93
392.544	186.19
392.753	79.7
392.963	3.93
393.172	34.64
393.382	30.55
393.591	210.77
393.801	36.69
394.01	87.89
394.22	87.89
394.429	-49.32
394.639	8.02
394.848	3.93
395.058	51.03
395.267	73.56
395.477	126.8
395.686	-32.94
395.895	165.71
396.105	255.83
396.314	77.65
396.524	16.21
396.733	63.32
396.942	94.04
397.152	147.28
397.361	153.43
397.57	22.36
397.78	126.8
397.989	57.17
398.198	75.6
398.407	91.99
398.617	57.17
398.826	44.88
399.035	-18.6
399.244	63.32
399.453	71.51
399.663	26.45
399.872	44.88
400.081	59.22
400.29	147.28
400.499	-69.8
400.708	83.8
400.917	-51.37
401.127	18.26
401.336	5.97
401.545	178
401.754	132.95
401.963	32.6
402.172	-4.27
402.381	-41.13
402.59	28.5
402.799	-6.31
403.008	106.32
403.217	38.74
403.426	-20.65
403.635	-49.32
403.844	75.6
404.053	40.79
404.262	-8.36
404.471	155.47
404.68	100.18
404.888	75.6
405.097	-4.27
405.306	12.12
405.515	106.32
405.724	65.36
405.933	53.08
406.142	89.94
406.35	106.32
406.559	-18.6
406.768	108.37
406.977	212.82
407.185	75.6
407.394	79.7
407.603	-61.61
407.812	53.08
408.02	204.63
408.229	32.6
408.438	85.84
408.646	-61.61
408.855	34.64
409.064	-30.89
409.272	24.4
409.481	65.36
409.69	-32.94
409.898	-75.95
410.107	10.07
410.315	57.17
410.524	-65.71
410.733	3.93
410.941	18.26
411.15	48.98
411.358	40.79
411.567	223.06
411.775	32.6
411.984	14.17
412.192	116.56
412.401	8.02
412.609	143.19
412.818	57.17
413.026	96.08
413.234	73.56
413.443	79.7
413.651	8.02
413.86	32.6
414.068	132.95
414.276	89.94
414.485	-32.94
414.693	208.72
414.901	163.67
415.11	3.93
415.318	51.03
415.526	16.21
415.734	120.66
415.943	91.99
416.151	67.41
416.359	8.02
416.567	85.84
416.776	53.08
416.984	128.85
417.192	128.85
417.4	-2.22
417.608	3.93
417.817	-12.46
418.025	161.62
418.233	214.87
418.441	-8.36
418.649	-82.09
418.857	75.6
419.065	151.38
419.273	-14.51
419.481	89.94
419.689	61.27
419.897	24.4
420.105	-63.66
420.313	173.91
420.521	202.58
420.729	130.9
420.937	-6.31
421.145	28.5
421.353	122.71
421.561	159.57
421.769	114.52
421.977	-51.37
422.185	67.41
422.393	102.23
422.601	132.95
422.809	55.12
423.017	89.94
423.224	77.65
423.432	155.47
423.64	61.27
423.848	126.8
424.056	-6.31
424.263	143.19
424.471	-2.22
424.679	126.8
424.887	-73.9
425.094	147.28
425.302	89.94
425.51	-10.41
425.718	71.51
425.925	10.07
426.133	-18.6
426.341	190.29
426.548	8.02
426.756	-2.22
426.964	120.66
427.171	-18.6
427.379	22.36
427.586	57.17
427.794	53.08
428.001	126.8
428.209	81.75
428.417	132.95
428.624	116.56
428.832	143.19
429.039	112.47
429.247	73.56
429.454	69.46
429.662	126.8
429.869	94.04
430.076	-37.03
430.284	89.94
430.491	192.34
430.699	98.13
430.906	216.91
431.114	108.37
431.321	51.03
431.528	118.61
431.736	141.14
431.943	147.28
432.15	171.86
432.358	196.43
432.565	266.07
432.772	-20.65
432.979	194.39
433.187	126.8
433.394	192.34
433.601	55.12
433.808	192.34
434.016	243.54
434.223	210.77
434.43	161.62
434.637	307.02
434.844	243.54
435.052	223.06
435.259	229.2
435.466	175.95
435.673	253.78
435.88	315.22
436.087	227.15
436.294	300.88
436.501	345.94
436.708	192.34
436.915	292.69
437.122	302.93
437.329	249.68
437.537	350.03
437.743	319.31
437.95	419.66
438.157	354.13
438.364	272.21
438.571	378.7
438.778	376.66
438.985	302.93
439.192	409.42
439.399	436.05
439.606	487.25
439.813	491.34
440.02	573.26
440.227	636.75
440.433	513.87
440.64	452.43
440.847	491.34
441.054	573.26
441.261	683.85
441.467	593.74
441.674	546.64
441.881	644.94
442.088	544.59
442.294	751.43
442.501	646.99
442.708	753.48
442.914	751.43
443.121	751.43
443.328	886.6
443.534	853.83
443.741	847.69
443.948	757.58
444.154	935.75
444.361	960.33
444.568	911.18
444.774	1042.25
444.981	941.89
445.187	1191.75
445.394	1165.12
445.6	1029.96
445.807	1285.95
446.013	1228.61
446.22	1216.32
446.426	1300.29
446.633	1386.3
446.839	1550.14
447.046	1378.11
447.252	1589.05
447.459	1470.27
447.665	1482.56
447.871	1664.83
448.078	1935.16
448.284	1773.37
448.491	1974.07
448.697	2047.8
448.903	1982.26
449.11	2168.63
449.316	2041.65
449.522	2252.59
449.728	2316.08
449.935	2402.1
450.141	2404.14
450.347	2633.52
450.553	2633.52
450.76	2637.61
450.966	2752.3
451.172	2879.27
451.378	2961.19
451.584	3039.01
451.791	3276.58
451.997	3338.02
452.203	3438.37
452.409	3516.19
452.615	3620.64
452.821	3555.1
453.027	3684.13
453.233	4271.89
453.44	4038.42
453.646	4112.15
453.852	4218.64
454.058	4579.09
454.264	4701.97
454.47	5097.22
454.676	5191.43
454.882	5463.81
455.088	5439.23
455.294	5527.3
455.5	5947.13
455.705	6211.32
455.911	6113.02
456.117	6436.6
456.323	6647.54
456.529	6770.41
456.735	7335.65
456.941	7403.24
457.147	7868.13
457.352	7919.32
457.558	8189.66
457.764	8859.34
457.97	9164.49
458.176	9211.59
458.381	9699.01
458.587	9893.57
458.793	10501.81
458.999	10264.25
459.204	11636.39
459.41	12127.9
459.616	11861.66
459.821	12445.34
460.027	13270.67
460.233	13676.16
460.438	13772.42
460.644	14612.09
460.85	14573.17
461.055	15160.94
461.261	16457.31
461.466	15654.5
461.672	15912.55
461.878	17927.75
462.083	17612.36
462.289	18177.6
462.494	18800.18
462.7	18978.36
462.905	19224.11
463.111	20737.56
463.316	21765.64
463.522	22498.81
463.727	23043.57
463.932	23795.18
464.138	24319.46
464.343	25542.1
464.549	25636.3
464.754	27461.04
464.959	28323.24
465.165	28853.66
465.37	28685.73
465.575	28431.78
465.781	30115.21
465.986	31090.04
466.191	30842.24
466.397	30963.07
466.602	30223.75
466.807	32165.23
467.012	32789.86
467.218	33351
467.423	33279.32
467.628	34198.86
467.833	35839.28
468.038	35427.64
468.244	34575.69
468.449	36693.29
468.654	35855.67
468.859	35843.38
469.064	36175.15
469.269	35228.99
469.474	35280.19
469.679	36177.2
469.885	35417.4
470.09	35644.73
470.295	35697.97
470.5	35200.32
470.705	35274.04
470.91	34276.68
471.115	34084.17
471.32	34497.86
471.525	34143.56
471.73	33535.32
471.935	33027.42
472.139	31948.14
472.344	32126.32
472.549	32093.55
472.754	31370.61
472.959	30487.94
473.164	29654.42
473.369	29097.37
473.574	30014.86
473.778	29345.17
473.983	28884.38
474.188	28456.36
474.393	27182.52
474.598	27094.46
474.802	26312.13
475.007	26070.47
475.212	26088.9
475.417	24655.33
475.621	24745.44
475.826	24380.9
476.031	23786.99
476.235	23180.79
476.44	23266.8
476.645	22705.66
476.849	22070.79
477.054	22064.64
477.259	21577.23
477.463	21599.76
477.668	20678.17
477.872	20852.25
478.077	20309.54
478.282	19502.64
478.486	19676.71
478.691	19136.05
478.895	19207.73
479.1	19158.58
479.304	18902.58
479.509	18222.66
479.713	18683.45
479.918	18081.35
480.122	17618.5
480.326	17811.01
480.531	17888.84
480.735	17716.81
480.94	17407.56
481.144	17784.39
481.348	17122.9
481.553	16817.75
481.757	16612.95
481.961	16701.01
482.166	16846.42
482.37	16594.52
482.574	16135.78
482.778	16279.13
482.983	16596.57
483.187	16035.42
483.391	16246.37
483.595	15662.69
483.8	15314.54
484.004	15498.86
484.208	15513.19
484.412	15136.37
484.616	14995.06
484.821	14911.09
485.025	14392.95
485.229	14716.53
485.433	14075.52
485.637	14376.57
485.841	13993.6
486.045	13880.96
486.249	13749.89
486.453	13289.1
486.657	13383.31
486.861	13325.96
487.065	12949.14
487.269	12908.18
487.473	12365.46
487.677	12502.68
487.881	12285.59
488.085	11912.86
488.289	11916.96
488.493	11468.45
488.697	11566.76
488.901	11353.77
489.105	10950.32
489.309	11067.05
489.512	10847.92
489.716	10411.7
489.92	10368.7
490.124	10118.84
490.328	10043.07
490.531	9543.36
490.735	9750.21
490.939	9492.16
491.143	9277.13
491.346	9019.08
491.55	9098.95
491.754	8806.09
491.958	8849.1
492.161	8625.87
492.365	8482.52
492.569	8136.41
492.772	8068.83
492.976	8410.84
493.18	7864.03
493.383	8050.39
493.587	7732.96
493.79	7616.23
493.994	7675.62
494.197	7442.15
494.401	7522.02
494.605	7272.17
494.808	7503.59
495.012	7358.18
495.215	7235.3
495.419	7196.39
495.622	7118.57
495.825	6991.59
496.029	7059.18
496.232	7126.76
496.436	7030.51
496.639	7325.41
496.843	6878.96
497.046	6889.2
497.249	6995.69
497.453	6979.31
497.656	6926.06
497.859	7020.27
498.063	6907.63
498.266	7034.6
498.469	6946.54
498.673	7050.99
498.876	7055.08
499.079	7022.31
499.282	7040.75
499.485	7429.86
499.689	7204.58
499.892	7352.04
500.095	7163.62
500.298	7370.47
500.501	7040.75
500.705	7501.54
500.908	7339.75
501.111	7421.67
501.314	7640.8
501.517	7816.93
501.72	7904.99
501.923	7753.44
502.126	7771.87
502.329	8169.18
502.532	8029.91
502.735	8167.13
502.938	8410.84
503.141	8378.07
503.344	8593.11
503.547	8652.5
503.75	8552.15
503.953	8834.77
504.156	9160.39
504.359	9017.04
504.562	8933.07
504.765	9189.07
504.968	9488.07
505.17	9649.86
505.373	9539.27
505.576	9928.38
505.779	9993.92
505.982	9883.33
506.185	10675.89
506.387	10337.98
506.59	10833.58
506.793	10809.01
506.996	10938.03
507.198	11384.49
507.401	11265.71
507.604	11802.27
507.807	11789.99
508.009	12000.93
508.212	12484.25
508.415	12566.17
508.617	12895.89
508.82	12883.6
509.022	13344.39
509.225	13727.36
509.428	14038.66
509.63	14093.95
509.833	14372.47
510.035	15019.63
510.238	15081.07
510.44	15228.52
510.643	15920.74
510.845	16336.48
511.048	16342.62
511.25	16651.86
511.453	16807.51
511.655	17946.18
511.858	18163.26
512.06	18218.56
512.262	18798.13
512.465	19199.54
512.667	19830.31
512.87	20143.65
513.072	20299.3
513.274	20915.73
513.477	21374.48
513.679	22189.57
513.881	22513.15
514.084	22623.74
514.286	23389.68
514.488	23799.27
514.69	24933.85
514.893	24958.42
515.095	25292.24
515.297	26228.17
515.499	26318.28
515.701	27041.21
515.904	27954.6
516.106	28409.25
516.308	28988.83
516.51	29734.29
516.712	29894.03
516.914	30379.4
517.116	31440.25
517.318	31751.54
517.52	32497
517.722	32519.53
517.925	33621.33
518.127	34440.52
518.329	34710.85
518.531	34923.84
518.733	35751.22
518.935	36080.94
519.136	36650.28
519.338	37614.87
519.54	37985.55
519.742	38888.71
519.944	39253.25
520.146	39711.99
520.348	40342.77
520.55	40744.17
520.752	41301.22
520.954	42071.25
521.155	41934.04
521.357	42929.35
521.559	43246.79
521.761	44055.73
521.963	44270.77
522.164	44698.8
522.366	45026.47
522.568	45581.47
522.77	45730.97
522.971	46240.92
523.173	46234.77
523.375	46806.16
523.576	47029.38
523.778	46822.54
523.98	47783.04
524.181	47617.15
524.383	48096.38
524.584	48600.18
524.786	48077.94
524.988	48155.77
525.189	48770.16
525.391	48624.75
525.592	48729.2
525.794	48858.22
525.995	48788.59
526.197	48886.89
526.398	48395.38
526.6	48786.54
526.801	48305.27
527.003	48372.85
527.204	47692.93
527.406	48305.27
527.607	47322.24
527.808	48104.57
528.01	46642.32
528.211	46953.61
528.412	47430.79
528.614	46634.13
528.815	46431.38
529.016	46517.39
529.218	45517.98
529.419	45245.6
529.62	45083.81
529.822	44919.98
530.023	44307.63
530.224	43936.95
530.425	43388.1
530.626	42841.29
530.828	42411.21
531.029	42747.08
531.23	41571.55
531.431	41280.74
531.632	40973.54
531.833	40469.74
532.035	39931.12
532.236	39290.11
532.437	39146.75
532.638	38651.14
532.839	38223.12
533.04	37977.36
533.241	36959.52
533.442	37475.61
533.643	36037.94
533.844	35587.38
534.045	35851.57
534.246	34829.63
534.447	34555.21
534.648	33738.07
534.849	33631.57
535.05	32740.71
535.251	32793.95
535.451	32308.58
535.652	31851.89
535.853	30981.5
536.054	30879.1
536.255	30643.59
536.456	29672.85
536.657	29932.94
536.857	29189.53
537.058	28839.33
537.259	28673.44
537.46	28206.5
537.66	27712.94
537.861	27360.69
538.062	27065.78
538.263	26643.9
538.463	26252.74
538.664	26293.7
538.865	25740.75
539.065	25343.44
539.266	24800.73
539.466	25013.72
539.667	24219.11
539.868	24503.78
540.068	23903.72
540.269	23684.59
540.469	23483.89
540.67	22951.42
540.87	22668.8
541.071	22543.87
541.271	22365.7
541.472	22181.38
541.672	21837.32
541.873	21499.41
542.073	20870.68
542.274	21204.5
542.474	20780.57
542.675	20528.67
542.875	20311.58
543.075	20121.12
543.276	19729.96
543.476	19627.56
543.676	19451.44
543.877	19267.12
544.077	19234.35
544.277	18894.39
544.478	18529.85
544.678	18560.57
544.878	18161.22
545.078	17876.55
545.279	17620.55
545.479	17641.03
545.679	17544.78
545.879	17026.64
546.079	16868.95
546.28	16649.82
546.48	16416.35
546.68	16512.6
546.88	16203.36
547.08	15947.36
547.28	15896.16
547.48	15550.06
547.68	15404.65
547.88	15122.03
548.081	15339.12
548.281	14927.47
548.481	14390.91
548.681	14419.58
548.881	14503.54
549.081	14075.52
549.28	13850.24
549.48	13563.53
549.68	13647.49
549.88	13495.94
550.08	13278.86
550.28	13037.2
550.48	12953.23
550.68	12687
550.88	12521.11
551.08	12115.61
551.279	12222.11
551.479	11814.56
551.679	11923.1
551.879	11583.14
552.079	11581.09
552.278	11380.39
552.478	11003.57
552.678	10991.28
552.878	10919.6
553.077	10696.37
553.277	10411.7
553.477	10241.72
553.676	10233.53
553.876	10049.21
554.076	9948.86
554.275	9711.3
554.475	9500.36
554.674	9400.01
554.874	9244.36
555.074	9250.5
555.273	9062.09
555.473	8875.73
555.672	8738.51
555.872	8548.05
556.071	8433.36
556.271	8416.98
556.47	8113.88
556.67	7900.89
556.869	7945.95
557.068	7657.18
557.268	7603.94
557.467	7444.2
557.667	7364.32
557.866	7122.66
558.065	7143.14
558.265	6891.24
558.464	6721.26
558.663	6657.78
558.863	6596.34
559.062	6588.14
559.261	6450.93
559.461	6559.47
559.66	6385.4
559.859	6186.74
560.058	6100.73
560.258	5672.7
560.457	5953.27
560.656	5908.22
560.855	5621.5
561.054	5738.24
561.253	5439.23
561.453	5736.19
561.652	5383.94
561.851	5439.23
562.05	5134.09
562.249	4906.76
562.448	5226.25
562.647	4790.03
562.846	4818.7
563.045	4830.99
563.244	4812.56
563.443	4706.06
563.642	4661.01
563.841	4591.38
564.04	4501.26
564.239	4511.5
564.438	4296.47
564.637	4282.13
564.836	4224.79
565.035	4044.57
565.234	4054.81
565.432	3960.6
565.631	3981.08
565.83	3860.25
566.029	3790.62
566.228	3686.17
566.427	3895.07
566.625	3540.77
566.824	3514.14
567.023	3686.17
567.222	3421.99
567.42	3413.79
567.619	3495.71
567.818	3378.98
568.016	3430.18
568.215	3292.96
568.414	3272.48
568.612	3282.72
568.811	3204.9
569.01	3149.61
569.208	3057.45
569.407	3092.26
569.605	2920.23
569.804	2932.52
570.002	2850.6
570.201	2776.87
570.4	2905.9
570.598	2697
570.797	2715.44
570.995	2658.09
571.193	2578.22
571.392	2567.98
571.59	2393.9
571.789	2531.12
571.987	2510.64
572.186	2504.5
572.384	2354.99
572.582	2369.33
572.781	2506.54
572.979	2158.39
573.177	2449.2
573.376	2330.42
573.574	2242.36
573.772	2215.73
573.971	2047.8
574.169	1988.41
574.367	2047.8
574.565	1886.01
574.763	1957.69
574.962	1894.2
575.16	2031.41
575.358	1804.09
575.556	1898.3
575.754	1861.43
575.952	1824.57
576.151	1871.67
576.349	1838.91
576.547	1738.55
576.745	1707.84
576.943	1648.44
577.141	1654.59
577.339	1556.29
577.537	1713.98
577.735	1562.43
577.933	1548.09
578.131	1550.14
578.329	1582.91
578.527	1519.42
578.725	1417.02
578.923	1335.1
579.121	1460.03
579.319	1374.02
579.516	1396.54
579.714	1558.33
579.912	1310.53
580.11	1244.99
580.308	1222.47
580.506	1177.41
580.704	1165.12
580.901	1253.19
581.099	1382.21
581.297	1204.03
581.495	1240.9
581.692	1138.5
581.89	1320.77
582.088	1138.5
582.285	1072.96
582.483	1036.1
582.681	1029.96
582.878	1044.29
583.076	1158.98
583.274	1015.62
583.471	1138.5
583.669	1025.86
583.866	935.75
584.064	962.37
584.262	876.36
584.459	884.55
584.657	917.32
584.854	927.56
585.052	958.28
585.249	896.84
585.447	886.6
585.644	835.4
585.841	851.78
586.039	864.07
586.236	956.23
586.434	880.46
586.631	773.96
586.828	841.54
587.026	837.45
587.223	743.24
587.42	716.62
587.618	694.09
587.815	890.7
588.012	800.59
588.21	708.43
588.407	812.87
588.604	745.29
588.801	712.52
588.999	669.52
589.196	681.8
589.393	651.08
589.59	667.47
589.787	655.18
589.984	737.1
590.182	706.38
590.379	700.23
590.576	651.08
590.773	685.9
590.97	673.61
591.167	667.47
591.364	661.32
591.561	540.49
591.758	763.72
591.955	706.38
592.152	610.12
592.349	618.32
592.546	563.02
592.743	542.54
592.94	589.64
593.137	679.75
593.334	689.99
593.531	724.81
593.727	599.88
593.924	610.12
594.121	583.5
594.318	575.31
594.515	649.04
594.712	753.48
594.908	831.3
595.105	528.21
595.302	659.28
595.499	671.56
595.696	816.97
595.892	651.08
596.089	728.91
596.286	737.1
596.482	798.54
596.679	784.2
596.876	784.2
597.072	859.98
597.269	823.11
597.466	870.22
597.662	769.87
597.859	722.76
598.055	927.56
598.252	950.09
598.448	941.89
598.645	1036.1
598.841	1085.25
599.038	1054.53
599.234	1181.51
599.431	1249.09
599.627	1308.48
599.824	1167.17
600.02	1265.47
600.217	1234.75
600.413	1382.21
600.609	1417.02
600.806	1660.73
601.002	1584.96
601.198	1503.04
601.395	1718.08
601.591	1658.68
601.787	1785.66
601.984	1873.72
602.18	1914.68
602.376	1959.74
602.572	2074.42
602.769	2203.44
602.965	2119.48
603.161	2330.42
603.357	2389.81
603.553	2520.88
603.75	2500.4
603.946	2516.78
604.142	2643.76
604.338	2914.09
604.534	2801.45
604.73	2883.37
604.926	2973.48
605.122	3159.85
605.318	3245.86
605.514	3225.38
605.71	3387.17
605.906	3583.77
606.102	3579.68
606.298	3786.52
606.494	3993.37
606.69	3940.12
606.886	4124.44
607.082	4112.15
607.278	4306.71
607.474	4513.55
607.67	4554.51
607.866	4460.31
608.062	4720.4
608.257	4830.99
608.453	4925.19
608.649	5351.17
608.845	5259.01
609.041	5543.68
609.236	5699.33
609.432	5809.92
609.628	6133.5
609.824	6115.06
610.019	6293.24
610.215	6565.62
610.411	6711.02
610.606	6784.75
610.802	6835.95
610.998	7061.23
611.193	7360.23
611.389	7446.24
611.584	7784.16
611.78	7646.94
611.976	8193.75
612.171	8451.8
612.367	8662.74
612.562	8636.11
612.758	9043.66
612.953	9076.43
613.149	9414.34
613.344	9727.68
613.539	10041.02
613.735	10344.12
613.93	10464.95
614.126	10591.92
614.321	11024.05
614.517	11202.22
614.712	11542.18
614.907	11785.89
615.103	12209.82
615.298	12351.13
615.493	12787.35
615.688	12840.59
615.884	13526.66
616.079	13563.53
616.274	13921.92
616.47	14190.2
616.665	14714.48
616.86	15013.49
617.055	15670.89
617.25	15799.91
617.445	16348.76
617.641	16434.78
617.836	17061.46
618.031	17256.01
618.226	18239.04
618.421	18069.06
618.616	18855.48
618.811	18976.31
619.006	19713.58
619.201	19912.23
619.396	20676.12
619.591	20229.66
619.786	21286.42
619.981	21620.24
620.176	22351.36
620.371	22398.46
620.566	23266.8
620.761	23784.94
620.956	24352.23
621.151	24495.58
621.346	25193.94
621.541	25271.76
621.735	26375.62
621.93	26252.74
622.125	26695.1
622.32	27102.65
622.515	27946.41
622.709	28343.72
622.904	29210.01
623.099	29164.95
623.294	30139.79
623.488	30297.48
623.683	30805.38
623.878	31118.71
624.072	31946.09
624.267	32245.1
624.462	32882.02
624.656	32855.39
624.851	34356.55
625.046	34420.04
625.24	34233.67
625.435	34972.99
625.629	35493.18
625.824	36101.42
626.018	36482.34
626.213	36300.08
626.407	37446.94
626.602	37379.35
626.796	37856.53
626.991	38728.97
627.185	38851.84
627.38	38970.63
627.574	39296.25
627.768	39169.28
627.963	38993.15
628.157	39318.78
628.352	39908.6
628.546	39476.47
628.74	40334.57
628.935	39380.22
629.129	39974.13
629.323	39699.7
629.517	39560.44
629.712	39036.16
629.906	38880.52
630.1	38503.69
630.294	38731.01
630.489	37791
630.683	37356.83
630.877	36379.95
631.071	36189.49
631.265	35804.47
631.459	34891.07
631.653	34303.31
631.848	33611.09
632.042	32978.27
632.236	32154.99
632.43	31190.39
632.624	30406.02
632.818	29347.22
633.012	28675.49
633.206	27671.98
633.4	26852.8
633.594	25710.03
633.788	25116.12
633.982	24442.34
634.176	23571.95
634.369	22484.48
634.563	21503.5
634.757	20317.73
634.951	20117.03
635.145	19277.36
635.339	18755.13
635.533	17978.95
635.726	17208.91
635.92	16330.33
636.114	15697.51
636.308	15054.45
636.501	14671.48
636.695	14026.37
636.889	13301.39
637.083	12775.06
637.276	12213.91
637.47	11566.76
637.664	11259.56
637.857	11044.52
638.051	10522.29
638.244	9909.95
638.438	9676.48
638.632	9459.4
638.825	8752.85
639.019	8568.53
639.212	8175.32
639.406	7943.9
639.599	7464.68
639.793	7249.64
639.986	6969.07
640.18	6778.61
640.373	6399.73
640.567	6338.29
640.76	6037.24
640.954	5807.87
641.147	5373.7
641.34	5146.37
641.534	5234.44
641.727	4806.41
641.92	4677.39
642.114	4554.51
642.307	4189.97
642.5	4214.55
642.694	3995.42
642.887	3880.73
643.08	3800.86
643.273	3583.77
643.467	3352.35
643.66	3239.72
643.853	3049.25
644.046	3094.31
644.239	2920.23
644.432	2774.83
644.626	2578.22
644.819	2697
645.012	2586.41
645.205	2455.34
645.398	2303.79
645.591	2244.4
645.784	1998.65
645.977	2068.28
646.17	1990.45
646.363	1818.43
646.556	1779.51
646.749	1630.01
646.942	1724.22
647.135	1687.36
647.328	1638.2
647.521	1601.34
647.714	1433.41
647.907	1382.21
648.099	1324.87
648.292	1404.74
648.485	1337.15
648.678	1261.38
648.871	1218.37
649.064	1107.78
649.256	989
649.449	917.32
649.642	913.22
649.835	1023.81
650.027	831.3
650.22	984.9
650.413	870.22
650.605	837.45
650.798	823.11
650.991	771.91
651.183	778.06
651.376	782.15
651.568	735.05
651.761	698.19
651.954	640.84
652.146	640.84
652.339	677.71
652.531	671.56
652.724	481.1
652.916	536.4
653.109	405.33
653.301	579.4
653.494	606.03
653.686	497.49
653.879	503.63
654.071	415.57
654.263	458.57
654.456	405.33
654.648	468.81
654.84	462.67
655.033	315.22
655.225	513.87
655.417	268.11
655.61	407.38
655.802	409.42
655.994	444.24
656.186	286.54
656.379	317.26
656.571	257.87
656.763	286.54
656.955	208.72
657.148	331.6
657.34	337.74
657.532	259.92
657.724	243.54
657.916	274.26
658.108	337.74
658.3	317.26
658.492	317.26
658.684	233.3
658.876	309.07
659.068	87.89
659.26	151.38
659.452	259.92
659.644	231.25
659.836	382.8
660.028	245.59
660.22	147.28
660.412	274.26
660.604	184.15
660.796	200.53
660.988	278.35
661.18	180.05
661.372	270.16
661.563	227.15
661.755	200.53
661.947	110.42
662.139	161.62
662.331	130.9
662.522	155.47
662.714	139.09
662.906	85.84
663.097	173.91
663.289	96.08
663.481	46.93
663.673	175.95
663.864	122.71
664.056	214.87
664.247	48.98
664.439	296.78
664.631	200.53
664.822	169.81
665.014	77.65
665.205	87.89
665.397	122.71
665.588	114.52
665.78	96.08
665.971	163.67
666.163	67.41
666.354	137.04
666.546	87.89
666.737	171.86
666.929	77.65
667.12	151.38
667.311	159.57
667.503	18.26
667.694	147.28
667.885	71.51
668.077	155.47
668.268	38.74
668.459	85.84
668.651	81.75
668.842	233.3
669.033	3.93
669.224	42.84
669.416	307.02
669.607	30.55
669.798	14.17
669.989	196.43
670.18	196.43
670.371	149.33
670.563	-32.94
670.754	212.82
670.945	128.85
671.136	108.37
671.327	48.98
671.518	175.95
671.709	163.67
671.9	153.43
672.091	212.82
672.282	96.08
672.473	94.04
672.664	55.12
672.855	87.89
673.046	182.1
673.237	200.53
673.428	94.04
673.619	143.19
673.809	-8.36
674	157.52
674.191	89.94
674.382	122.71
674.573	151.38
674.764	192.34
674.954	175.95
675.145	69.46
675.336	87.89
675.527	100.18
675.717	38.74
675.908	48.98
676.099	44.88
676.289	188.24
676.48	8.02
676.671	44.88
676.861	75.6
677.052	149.33
677.243	157.52
677.433	59.22
677.624	126.8
677.814	161.62
678.005	14.17
678.195	188.24
678.386	38.74
678.576	98.13
678.767	8.02
678.957	75.6
679.148	153.43
679.338	229.2
679.529	102.23
679.719	106.32
679.909	169.81
680.1	165.71
680.29	200.53
680.481	59.22
680.671	198.48
680.861	61.27
681.052	155.47
681.242	-30.89
681.432	167.76
681.622	51.03
681.813	61.27
682.003	63.32
682.193	159.57
682.383	169.81
682.573	124.76
682.764	69.46
682.954	69.46
683.144	274.26
683.334	159.57
683.524	202.58
683.714	132.95
683.904	188.24
684.094	198.48
684.284	104.28
684.474	171.86
684.664	83.8
684.854	145.24
685.044	141.14
685.234	165.71
685.424	196.43
685.614	51.03
685.804	284.5
685.994	210.77
686.184	128.85
686.374	192.34
686.564	112.47
686.753	145.24
686.943	28.5
687.133	34.64
687.323	169.81
687.513	196.43
687.702	169.81
687.892	61.27
688.082	218.96
688.272	233.3
688.461	165.71
688.651	331.6
688.841	190.29
689.03	106.32
689.22	77.65
689.41	100.18
689.599	106.32
689.789	67.41
689.979	257.87
690.168	102.23
690.358	245.59
690.547	71.51
690.737	218.96
690.926	223.06
691.116	145.24
691.305	206.67
691.495	210.77
691.684	102.23
691.874	120.66
692.063	69.46
692.252	151.38
692.442	233.3
692.631	69.46
692.82	159.57
693.01	198.48
693.199	110.42
693.388	167.76
693.578	163.67
693.767	145.24
693.956	227.15
694.146	100.18
694.335	173.91
694.524	116.56
694.713	206.67
694.902	182.1
695.092	120.66
695.281	180.05
695.47	167.76
695.659	124.76
695.848	200.53
696.037	77.65
696.226	223.06
696.415	151.38
696.604	159.57
696.793	229.2
696.982	180.05
697.171	329.55
697.36	61.27
697.549	159.57
697.738	-2.22
697.927	91.99
698.116	124.76
698.305	227.15
698.494	91.99
698.683	126.8
698.872	313.17
699.061	118.61
699.25	126.8
699.438	116.56
699.627	122.71
699.816	294.74
700.005	98.13
700.193	77.65
700.382	249.68
700.571	196.43
700.76	145.24
700.948	161.62
701.137	216.91
701.326	171.86
701.514	118.61
701.703	167.76
701.892	165.71
702.08	278.35
702.269	194.39
702.457	63.32
702.646	104.28
702.834	190.29
703.023	231.25
703.212	132.95
703.4	110.42
703.589	108.37
703.777	122.71
703.965	147.28
704.154	180.05
704.342	120.66
704.531	169.81
704.719	186.19
704.907	157.52
705.096	65.36
705.284	8.02
705.472	114.52
705.661	79.7
705.849	196.43
706.037	188.24
706.226	171.86
706.414	167.76
706.602	87.89
706.79	161.62
706.979	116.56
707.167	190.29
707.355	69.46
707.543	202.58
707.731	245.59
707.919	169.81
708.107	126.8
708.296	51.03
708.484	34.64
708.672	147.28
708.86	108.37
709.048	161.62
709.236	73.56
709.424	178
709.612	167.76
709.8	51.03
709.988	163.67
710.176	223.06
710.364	153.43
710.551	110.42
710.739	124.76
710.927	100.18
711.115	87.89
711.303	161.62
711.491	196.43
711.679	141.14
711.866	204.63
712.054	79.7
712.242	192.34
712.43	143.19
712.617	102.23
712.805	221.01
712.993	89.94
713.181	36.69
713.368	175.95
713.556	106.32
713.744	67.41
713.931	231.25
714.119	153.43
714.306	108.37
714.494	55.12
714.682	229.2
714.869	77.65
715.057	135
715.244	73.56
715.432	192.34
715.619	135
715.807	163.67
715.994	147.28
716.182	249.68
716.369	264.02
716.556	259.92
716.744	114.52
716.931	96.08
717.119	130.9
717.306	147.28
717.493	169.81
717.681	40.79
717.868	79.7
718.055	184.15
718.242	145.24
718.43	141.14
718.617	223.06
718.804	79.7
718.991	192.34
719.179	194.39
719.366	245.59
719.553	212.82
719.74	135
719.927	102.23
720.114	126.8
720.301	10.07
720.488	75.6
720.676	20.31
720.863	223.06
721.05	268.11
721.237	212.82
721.424	169.81
721.611	124.76
721.798	110.42
721.985	65.36
722.172	75.6
722.358	100.18
722.545	178
722.732	266.07
722.919	223.06
723.106	57.17
723.293	57.17
723.48	192.34
723.667	194.39
723.853	221.01
724.04	190.29
724.227	288.59
724.414	149.33
724.6	206.67
724.787	304.98
724.974	311.12
725.161	200.53
725.347	126.8
725.534	180.05
725.72	110.42
725.907	159.57
726.094	229.2
726.28	165.71
726.467	128.85
726.653	89.94
726.84	294.74
727.027	302.93
727.213	114.52
727.4	165.71
727.586	173.91
727.773	237.39
727.959	184.15
728.145	96.08
728.332	178
728.518	120.66
728.705	300.88
728.891	204.63
729.077	143.19
729.264	151.38
729.45	126.8
729.636	239.44
729.823	173.91
730.009	341.84
730.195	163.67
730.382	112.47
730.568	104.28
730.754	173.91
730.94	128.85
731.126	116.56
731.313	231.25
731.499	196.43
731.685	270.16
731.871	159.57
732.057	94.04
732.243	218.96
732.429	173.91
732.615	317.26
732.801	96.08
732.987	163.67
733.173	147.28
733.359	118.61
733.545	255.83
733.731	130.9
733.917	270.16
734.103	171.86
734.289	102.23
734.475	141.14
734.661	376.66
734.847	204.63
735.033	200.53
735.219	309.07
735.404	120.66
735.59	108.37
735.776	118.61
735.962	180.05
736.148	251.73
736.333	300.88
736.519	171.86
736.705	147.28
736.89	130.9
737.076	186.19
737.262	124.76
737.447	87.89
737.633	79.7
737.819	323.41
738.004	202.58
738.19	255.83
738.375	151.38
738.561	243.54
738.747	180.05
738.932	141.14
739.118	341.84
739.303	290.64
739.489	227.15
739.674	192.34
739.859	96.08
740.045	167.76
740.23	233.3
740.416	79.7
740.601	184.15
740.786	155.47
740.972	188.24
741.157	118.61
741.342	91.99
741.528	155.47
741.713	204.63
741.898	231.25
742.084	167.76
742.269	182.1
742.454	165.71
742.639	272.21
742.824	165.71
743.01	350.03
743.195	270.16
743.38	143.19
743.565	147.28
743.75	139.09
743.935	210.77
744.12	274.26
744.305	69.46
744.49	104.28
744.675	135
744.86	188.24
745.045	139.09
745.23	118.61
745.415	192.34
745.6	298.83
745.785	165.71
745.97	204.63
746.155	184.15
746.34	237.39
746.525	202.58
746.71	225.11
746.895	96.08
747.079	79.7
747.264	149.33
747.449	247.63
747.634	272.21
747.819	186.19
748.003	124.76
748.188	96.08
748.373	216.91
748.557	206.67
748.742	178
748.927	98.13
749.111	124.76
749.296	132.95
749.481	288.59
749.665	139.09
749.85	153.43
750.034	186.19
750.219	145.24
750.404	96.08
750.588	159.57
750.773	69.46
750.957	171.86
751.141	130.9
751.326	167.76
751.51	77.65
751.695	118.61
751.879	135
752.064	276.31
752.248	112.47
752.432	180.05
752.617	225.11
752.801	202.58
752.985	139.09
753.17	186.19
753.354	85.84
753.538	126.8
753.722	143.19
753.907	120.66
754.091	55.12
754.275	171.86
754.459	30.55
754.643	65.36
754.828	112.47
755.012	173.91
755.196	24.4
755.38	184.15
755.564	102.23
755.748	87.89
755.932	55.12
756.116	192.34
756.3	137.04
756.484	145.24
756.668	163.67
756.852	5.97
757.036	96.08
757.22	171.86
757.404	118.61
757.588	120.66
757.772	159.57
757.956	30.55
758.14	227.15
758.323	28.5
758.507	192.34
758.691	67.41
758.875	153.43
759.059	108.37
759.242	85.84
759.426	157.52
759.61	63.32
759.794	8.02
759.977	180.05
760.161	356.18
760.345	192.34
760.528	83.8
760.712	130.9
760.895	137.04
761.079	147.28
761.263	-16.55
761.446	28.5
761.63	42.84
761.813	218.96
761.997	-26.79
762.18	10.07
762.364	155.47
762.547	22.36
762.731	14.17
762.914	114.52
763.098	36.69
763.281	79.7
763.464	34.64
763.648	124.76
763.831	104.28
764.015	20.31
764.198	155.47
764.381	38.74
764.564	53.08
764.748	118.61
764.931	147.28
765.114	8.02
765.297	153.43
765.481	61.27
765.664	26.45
765.847	-20.65
766.03	145.24
766.213	-26.79
766.397	57.17
766.58	-22.7
766.763	104.28
766.946	108.37
767.129	-39.08
767.312	38.74
767.495	55.12
767.678	34.64
767.861	44.88
768.044	100.18
768.227	22.36
768.41	46.93
768.593	102.23
768.776	-10.41
768.959	59.22
769.142	165.71
769.324	36.69
769.507	65.36
769.69	122.71
769.873	-14.51
770.056	290.64
770.239	20.31
770.421	149.33
770.604	110.42
770.787	55.12
770.97	44.88
771.152	-26.79
771.335	87.89
771.518	94.04
771.7	122.71
771.883	169.81
772.066	-39.08
772.248	44.88
772.431	237.39
772.613	75.6
772.796	94.04
772.978	89.94
773.161	110.42
773.343	28.5
773.526	-4.27
773.708	-51.37
773.891	-12.46
774.073	69.46
774.256	-32.94
774.438	157.52
774.621	-22.7
774.803	104.28
774.985	73.56
775.168	143.19
775.35	-129.19
775.532	69.46
775.715	-2.22
775.897	169.81
776.079	16.21
776.261	77.65
776.444	73.56
776.626	89.94
776.808	-57.51
776.99	16.21
777.173	-6.31
777.355	22.36
777.537	-39.08
777.719	63.32
777.901	65.36
778.083	46.93
778.265	-18.6
778.447	32.6
778.629	-30.89
778.811	38.74
778.993	102.23
779.175	116.56
779.357	38.74
779.539	-22.7
779.721	-12.46
779.903	98.13
780.085	10.07
780.267	24.4
780.449	-37.03
780.631	79.7
780.812	137.04
780.994	20.31
781.176	85.84
781.358	-39.08
781.54	-45.23
781.721	36.69
781.903	14.17
782.085	-65.71
782.267	128.85
782.448	-28.84
782.63	-18.6
782.812	32.6
782.993	42.84
783.175	69.46
783.357	-12.46
783.538	48.98
783.72	69.46
783.901	-6.31
784.083	51.03
784.264	51.03
784.446	-55.47
784.627	-14.51
784.809	65.36
784.99	-18.6
785.172	67.41
785.353	-12.46
785.535	42.84
785.716	-6.31
785.897	-28.84
786.079	-16.55
786.26	-12.46
786.441	-2.22
786.623	-65.71
786.804	-55.47
786.985	77.65
787.167	30.55
787.348	48.98
787.529	61.27
787.71	89.94
787.891	51.03
788.073	-80.04
788.254	-41.13
788.435	104.28
788.616	46.93
788.797	-61.61
788.978	-51.37
789.159	30.55
789.34	-18.6
789.522	89.94
789.703	-30.89
789.884	-10.41
790.065	71.51
790.246	128.85
790.427	-55.47
790.607	116.56
790.788	71.51
790.969	-71.85
791.15	57.17
791.331	-32.94
791.512	3.93
791.693	-24.75
791.874	-96.43
792.054	175.95
792.235	130.9
792.416	-8.36
792.597	-55.47
792.778	87.89
792.958	53.08
793.139	81.75
793.32	10.07
793.5	-84.14
793.681	159.57
793.862	-4.27
794.042	-20.65
794.223	-18.6
794.404	-24.75
794.584	-100.52
794.765	-18.6
794.945	3.93
795.126	102.23
795.306	194.39
795.487	26.45
795.667	-4.27
795.848	40.79
796.028	-6.31
796.209	-4.27
796.389	-0.17
796.57	-34.99
796.75	-118.95
796.93	-18.6
797.111	-61.61
797.291	-41.13
797.471	24.4
797.652	16.21
797.832	-57.51
798.012	32.6
798.192	-73.9
798.373	-82.09
798.553	-102.57
798.733	42.84
798.913	-77.99
799.093	-51.37
799.274	42.84
799.454	108.37
799.634	167.76
799.814	20.31
799.994	61.27
800.174	73.56
800.354	-32.94
800.534	-90.28
800.714	104.28
800.894	-24.75
801.074	-84.14
801.254	38.74
801.434	81.75
801.614	-47.27
801.794	-59.56
801.974	1812.28
802.154	-106.67
802.334	110.42
802.514	-43.18
802.693	-0.17
802.873	16.21
803.053	173.91
803.233	42.84
803.413	-55.47
803.592	-67.75
803.772	-20.65
803.952	51.03
804.131	-92.33
804.311	67.41
804.491	44.88
804.67	-22.7
804.85	-125.1
805.03	-14.51
805.209	116.56
805.389	-28.84
805.568	-41.13
805.748	-96.43
805.928	16.21
806.107	20.31
806.287	71.51
806.466	-28.84
806.646	26.45
806.825	34.64
807.004	34.64
807.184	-2.22
807.363	98.13
807.543	3.93
807.722	-108.71
807.901	30.55
808.081	46.93
808.26	-112.81
808.439	12.12
808.619	-30.89
808.798	-102.57
808.977	151.38
809.156	75.6
809.336	51.03
809.515	98.13
809.694	-37.03
809.873	-84.14
810.052	51.03
810.231	98.13
810.411	8.02
810.59	8.02
810.769	-12.46
810.948	65.36
811.127	-28.84
811.306	16.21
811.485	-96.43
811.664	71.51
811.843	-73.9
812.022	51.03
812.201	-8.36
812.38	22.36
812.559	-82.09
812.737	-37.03
812.916	-65.71
813.095	-75.95
813.274	44.88
813.453	-34.99
813.632	8.02
813.811	126.8
813.989	-135.34
814.168	55.12
814.347	-59.56
814.526	-41.13
814.704	110.42
814.883	79.7
815.062	-116.9
815.24	34.64
815.419	-90.28
815.598	-18.6
815.776	-170.15
815.955	-59.56
816.133	-172.2
816.312	24.4
816.49	-51.37
816.669	-118.95
816.847	3.93
817.026	30.55
817.204	-20.65
817.383	-37.03
817.561	-102.57
817.74	-24.75
817.918	38.74
818.097	-102.57
818.275	5.97
818.453	-51.37
818.632	46.93
818.81	-34.99
818.988	-55.47
819.167	-47.27
819.345	-32.94
819.523	-86.19
819.701	-24.75
819.879	22.36
820.058	-69.8
820.236	-63.66
820.414	53.08
820.592	-37.03
820.77	8.02
820.948	-14.51
821.127	-2.22
821.305	59.22
821.483	-59.56
821.661	38.74
821.839	-26.79
822.017	-32.94
822.195	-75.95
822.373	38.74
822.551	96.08
822.729	48.98
822.907	-41.13
823.085	32.6
823.262	63.32
823.44	-49.32
823.618	-84.14
823.796	-53.42
823.974	-8.36
824.152	-55.47
824.329	10.07
824.507	-30.89
824.685	51.03
824.863	-49.32
825.04	14.17
825.218	57.17
825.396	-4.27
825.574	-18.6
825.751	91.99
825.929	5.97
826.107	-51.37
826.284	12.12
826.462	81.75
826.639	-90.28
826.817	-125.1
826.994	-102.57
827.172	-82.09
827.349	139.09
827.527	63.32
827.704	18.26
827.882	46.93
828.059	-22.7
828.237	83.8
828.414	100.18
828.591	-129.19
828.769	-6.31
828.946	-49.32
829.124	75.6
829.301	24.4
829.478	-45.23
829.655	5.97
829.833	20.31
830.01	-34.99
830.187	32.6
830.364	-8.36
830.542	-61.61
830.719	63.32
830.896	79.7
831.073	18.26
831.25	32.6
831.427	57.17
831.604	-73.9
831.782	-41.13
831.959	-73.9
832.136	-43.18
832.313	34.64
832.49	-47.27
832.667	38.74
832.844	-12.46
833.021	65.36
833.198	14.17
833.374	28.5
833.551	-2.22
833.728	-2.22
833.905	36.69
834.082	-71.85
834.259	26.45
834.436	55.12
834.612	-77.99
834.789	130.9
834.966	-16.55
835.143	12.12
835.319	-129.19
835.496	38.74
835.673	40.79
835.85	-4.27
836.026	22.36
836.203	-2.22
836.38	-2.22
836.556	-82.09
836.733	-41.13
836.909	100.18
837.086	-57.51
837.262	-82.09
837.439	44.88
837.616	-67.75
837.792	-53.42
837.968	10.07
838.145	-172.2
838.321	20.31
838.498	-47.27
838.674	42.84
838.851	-18.6
839.027	-20.65
839.203	28.5
839.38	73.56
839.556	-129.19
839.732	102.23
839.909	-6.31
840.085	-0.17
840.261	-65.71
840.437	-14.51
840.614	-98.47
840.79	-2.22
840.966	46.93
841.142	-69.8
841.318	-28.84
841.494	81.75
841.671	98.13
841.847	-77.99
842.023	-73.9
842.199	44.88
842.375	87.89
842.551	-155.82
842.727	-92.33
842.903	169.81
843.079	-110.76
843.255	38.74
843.431	-32.94
843.607	96.08
843.783	-168.1
843.959	18.26
844.134	-59.56
844.31	59.22
844.486	-65.71
844.662	-61.61
844.838	16.21
845.013	-34.99
845.189	24.4
845.365	8.02
845.541	71.51
845.716	-61.61
845.892	32.6
846.068	1.88
846.244	-106.67
846.419	34.64
846.595	-123.05
846.77	-45.23
846.946	-0.17
847.122	3.93
847.297	-90.28
847.473	178
847.648	-32.94
847.824	-26.79
847.999	-82.09
848.175	-51.37
848.35	32.6
848.526	85.84
848.701	75.6
848.876	59.22
849.052	61.27
849.227	-43.18
849.403	-55.47
849.578	-43.18
849.753	-22.7
849.929	69.46
850.104	-123.05
850.279	3.93
850.454	38.74
850.63	12.12
850.805	30.55
850.98	-24.75
851.155	-4.27
851.33	46.93
851.505	-69.8
851.681	128.85
851.856	28.5
852.031	18.26
852.206	48.98
852.381	-75.95
852.556	-49.32
852.731	-6.31
852.906	79.7
853.081	30.55
853.256	126.8
853.431	-84.14
853.606	-57.51
853.781	-75.95
853.956	-108.71
854.131	-14.51
854.305	8.02
854.48	10.07
854.655	-118.95
854.83	-104.62
855.005	-6.31
855.18	-43.18
855.354	-10.41
855.529	-47.27
855.704	-34.99
855.879	61.27
856.053	-12.46
856.228	-10.41
856.403	-82.09
856.577	-0.17
856.752	-98.47
856.926	-16.55
857.101	-73.9
857.276	-10.41
857.45	12.12
857.625	-0.17
857.799	18.26
857.974	-30.89
858.148	-157.86
858.323	-18.6
858.497	-53.42
858.672	-55.47
858.846	-98.47
859.02	24.4
859.195	-61.61
859.369	1.88
859.543	12.12
859.718	-16.55
859.892	-86.19
860.066	-12.46
860.241	10.07
860.415	-92.33
860.589	-59.56
860.763	-90.28
860.938	-34.99
861.112	-20.65
861.286	-77.99
861.46	-2.22
861.634	-84.14
861.808	98.13
861.982	-22.7
862.157	-121
862.331	-28.84
862.505	-102.57
862.679	-49.32
862.853	-82.09
863.027	-32.94
863.201	137.04
863.375	-24.75
863.549	42.84
863.722	-26.79
863.896	40.79
864.07	20.31
864.244	-22.7
864.418	128.85
864.592	-100.52
864.766	-32.94
864.939	38.74
865.113	12.12
865.287	124.76
865.461	-90.28
865.634	-20.65
865.808	-14.51
865.982	-77.99
866.156	-37.03
866.329	-153.77
866.503	-37.03
866.676	40.79
866.85	-0.17
867.024	-39.08
867.197	53.08
867.371	26.45
867.544	-43.18
867.718	-43.18
867.891	46.93
868.065	-161.96
868.238	-108.71
868.412	28.5
868.585	-71.85
868.759	-73.9
868.932	-14.51
869.105	-149.67
869.279	3.93
869.452	-26.79
869.625	32.6
869.799	-92.33
869.972	-84.14
870.145	-57.51
870.319	46.93
870.492	-37.03
870.665	-16.55
870.838	-71.85
871.011	-125.1
871.185	-16.55
871.358	-69.8
871.531	-8.36
871.704	-100.52
871.877	10.07
872.05	14.17
872.223	-108.71
872.396	61.27
872.569	51.03
872.742	-96.43
872.915	40.79
873.088	-121
873.261	-84.14
873.434	48.98
873.607	-34.99
873.78	96.08
873.953	-18.6
874.126	-43.18
874.299	26.45
874.471	-75.95
874.644	-84.14
874.817	26.45
874.99	96.08
875.163	-6.31
875.335	-22.7
875.508	-18.6
875.681	51.03
875.853	-41.13
876.026	-18.6
876.199	51.03
876.371	-4.27
876.544	-6.31
876.717	-4.27
876.889	-10.41
877.062	-98.47
877.234	-112.81
877.407	-88.23
877.579	-59.56
877.752	-24.75
877.924	42.84
878.097	-20.65
878.269	-63.66
878.442	-6.31
878.614	-77.99
878.786	44.88
878.959	48.98
879.131	-0.17
879.303	-135.34
879.476	-149.67
879.648	98.13
879.82	18.26
879.993	-45.23
880.165	-63.66
880.337	-100.52
880.509	-63.66
880.681	-129.19
880.854	-30.89
881.026	139.09
881.198	114.52
881.37	-14.51
881.542	-10.41
881.714	-55.47
881.886	-10.41
882.058	-22.7
882.23	20.31
882.402	5.97
882.574	-10.41
882.746	124.76
882.918	12.12
883.09	8.02
883.262	44.88
883.434	-55.47
883.606	-166.06
883.778	-59.56
883.95	106.32
884.122	-104.62
884.293	14.17
884.465	-14.51
884.637	30.55
884.809	-75.95
884.98	12.12
885.152	89.94
885.324	143.19
885.496	-96.43
885.667	-41.13
885.839	-135.34
886.011	87.89
886.182	110.42
886.354	44.88
886.525	16.21
886.697	24.4
886.869	-102.57
887.04	-16.55
887.212	44.88
887.383	98.13
887.555	28.5
887.726	-6.31
887.897	-127.14
888.069	-98.47
888.24	-32.94
888.412	-53.42
888.583	-0.17
888.754	-47.27
888.926	-65.71
889.097	-73.9
889.268	-135.34
889.44	-53.42
889.611	-190.63
889.782	-28.84
889.953	-57.51
890.125	65.36
890.296	-69.8
890.467	-73.9
890.638	-55.47
890.809	-32.94
890.98	-69.8
891.151	12.12
891.323	-6.31
891.494	-14.51
891.665	-30.89
891.836	-82.09
892.007	61.27
892.178	-14.51
892.349	3.93
892.52	-104.62
892.691	22.36
892.862	-100.52
893.032	-22.7
893.203	-18.6
893.374	-71.85
893.545	48.98
893.716	-53.42
893.887	71.51
894.057	-41.13
894.228	-63.66
894.399	-96.43
894.57	98.13
894.74	16.21
894.911	-20.65
895.082	-4.27
895.253	-69.8
895.423	-18.6
895.594	12.12
895.764	1.88
895.935	-69.8
896.106	5.97
896.276	-104.62
896.447	-20.65
896.617	-182.44
896.788	-30.89
896.958	-100.52
897.129	-28.84
897.299	-57.51
897.47	102.23
897.64	61.27
897.81	1.88
897.981	91.99
898.151	-26.79
898.322	-10.41
898.492	26.45
898.662	-86.19
898.832	-73.9
899.003	-73.9
899.173	-6.31
899.343	-51.37
899.513	-123.05
