Data from USB4F104151__249__11-19-59-135.txt Node

Date: Wed Feb 26 11:19:59 EST 2025
User: louis
Spectrometer: USB4F10415
Trigger mode: 4
Integration Time (sec): 1.000000E-1
Scans to average: 1
Electric dark correction enabled: true
Nonlinearity correction enabled: false
Boxcar width: 0
XAxis mode: Wavelengths
Number of Pixels in Spectrum: 3648
>>>>>Begin Spectral Data<<<<<
178.204	-366.59
178.424	-366.59
178.644	-366.59
178.864	-446.46
179.084	-397.31
179.304	-20.48
179.524	-73.73
179.744	-10.24
179.964	-8.19
180.184	53.25
180.404	57.34
180.624	-28.67
180.844	12.29
181.064	-8.19
181.283	34.82
181.503	-57.34
181.723	49.15
181.943	-79.87
182.163	143.36
182.383	-12.29
182.602	20.48
182.822	86.01
183.042	47.1
183.262	-53.25
183.482	-14.34
183.701	-36.86
183.921	18.43
184.141	-14.34
184.361	112.64
184.58	16.38
184.8	116.73
185.02	-77.82
185.239	26.62
185.459	59.39
185.679	34.82
185.898	-88.06
186.118	26.62
186.338	8.19
186.557	104.45
186.777	-55.3
186.997	-6.14
187.216	34.82
187.436	202.75
187.655	43.01
187.875	53.25
188.095	40.96
188.314	149.5
188.534	57.34
188.753	12.29
188.973	92.16
189.192	163.84
189.412	18.43
189.631	20.48
189.851	34.82
190.07	176.13
190.29	-43.01
190.509	-36.86
190.729	-38.91
190.948	67.58
191.168	202.75
191.387	61.44
191.607	38.91
191.826	20.48
192.045	20.48
192.265	-16.38
192.484	20.48
192.704	-92.16
192.923	-75.77
193.142	221.18
193.362	59.39
193.581	102.4
193.8	69.63
194.02	114.69
194.239	-22.53
194.458	69.63
194.678	-18.43
194.897	26.62
195.116	63.49
195.335	51.2
195.555	65.54
195.774	-108.54
195.993	73.73
196.212	55.3
196.432	28.67
196.651	-49.15
196.87	22.53
197.089	190.46
197.308	2.05
197.528	47.1
197.747	-6.14
197.966	28.67
198.185	153.6
198.404	-57.34
198.623	100.35
198.842	43.01
199.062	112.64
199.281	92.16
199.5	22.53
199.719	-30.72
199.938	59.39
200.157	83.97
200.376	83.97
200.595	90.11
200.814	49.15
201.033	8.19
201.252	122.88
201.471	106.49
201.69	143.36
201.909	-14.34
202.128	151.55
202.347	-4.1
202.566	-10.24
202.785	-67.58
203.004	18.43
203.223	112.64
203.442	45.06
203.661	-71.68
203.879	116.73
204.098	131.07
204.317	-12.29
204.536	57.34
204.755	34.82
204.974	45.06
205.193	18.43
205.411	133.12
205.63	63.49
205.849	59.39
206.068	40.96
206.287	-24.58
206.505	196.61
206.724	10.24
206.943	24.58
207.162	-75.77
207.381	118.78
207.599	51.2
207.818	69.63
208.037	-63.49
208.255	49.15
208.474	112.64
208.693	53.25
208.911	-26.62
209.13	137.21
209.349	65.54
209.567	20.48
209.786	16.38
210.005	88.06
210.223	77.82
210.442	-120.83
210.661	-22.53
210.879	77.82
211.098	8.19
211.316	43.01
211.535	55.3
211.753	-30.72
211.972	51.2
212.191	-63.49
212.409	30.72
212.628	49.15
212.846	-4.1
213.065	86.01
213.283	104.45
213.502	16.38
213.72	-116.73
213.938	10.24
214.157	-26.62
214.375	92.16
214.594	-38.91
214.812	34.82
215.031	-6.14
215.249	-10.24
215.467	16.38
215.686	131.07
215.904	8.19
216.122	61.44
216.341	137.21
216.559	38.91
216.778	141.31
216.996	69.63
217.214	30.72
217.432	-75.77
217.651	-90.11
217.869	83.97
218.087	6.14
218.306	-4.1
218.524	30.72
218.742	30.72
218.96	65.54
219.179	22.53
219.397	-45.06
219.615	124.93
219.833	59.39
220.051	-79.87
220.27	12.29
220.488	63.49
220.706	34.82
220.924	-45.06
221.142	-4.1
221.36	106.49
221.578	69.63
221.796	22.53
222.015	18.43
222.233	-45.06
222.451	141.31
222.669	-14.34
222.887	88.06
223.105	-34.82
223.323	32.77
223.541	28.67
223.759	26.62
223.977	55.3
224.195	198.65
224.413	124.93
224.631	69.63
224.849	36.86
225.067	190.46
225.285	12.29
225.503	-38.91
225.721	-12.29
225.939	94.21
226.157	-73.73
226.375	178.17
226.592	-22.53
226.81	30.72
227.028	118.78
227.246	139.26
227.464	71.68
227.682	116.73
227.9	34.82
228.117	96.25
228.335	124.93
228.553	-57.34
228.771	-45.06
228.989	-20.48
229.206	47.1
229.424	-40.96
229.642	-73.73
229.86	-86.01
230.077	88.06
230.295	6.14
230.513	92.16
230.731	61.44
230.948	145.41
231.166	143.36
231.384	14.34
231.601	-2.05
231.819	133.12
232.037	8.19
232.254	-67.58
232.472	-53.25
232.689	2.05
232.907	51.2
233.125	22.53
233.342	-96.25
233.56	-67.58
233.777	-10.24
233.995	16.38
234.213	106.49
234.43	69.63
234.648	38.91
234.865	-10.24
235.083	10.24
235.3	14.34
235.518	77.82
235.735	124.93
235.953	108.54
236.17	-2.05
236.388	-38.91
236.605	61.44
236.822	57.34
237.04	104.45
237.257	18.43
237.475	-79.87
237.692	28.67
237.909	86.01
238.127	-73.73
238.344	83.97
238.562	77.82
238.779	-22.53
238.996	20.48
239.214	28.67
239.431	53.25
239.648	18.43
239.865	139.26
240.083	26.62
240.3	-20.48
240.517	-104.45
240.735	18.43
240.952	49.15
241.169	61.44
241.386	20.48
241.603	-14.34
241.821	-24.58
242.038	22.53
242.255	38.91
242.472	2.05
242.689	67.58
242.907	83.97
243.124	28.67
243.341	34.82
243.558	-49.15
243.775	-137.21
243.992	-75.77
244.209	96.25
244.426	133.12
244.643	36.86
244.86	-20.48
245.078	108.54
245.295	10.24
245.512	0
245.729	-59.39
245.946	75.77
246.163	-6.14
246.38	75.77
246.597	34.82
246.814	73.73
247.031	-6.14
247.248	-20.48
247.464	110.59
247.681	59.39
247.898	8.19
248.115	51.2
248.332	-49.15
248.549	98.3
248.766	145.41
248.983	22.53
249.2	4.1
249.417	165.89
249.633	45.06
249.85	61.44
250.067	-20.48
250.284	73.73
250.501	67.58
250.717	69.63
250.934	0
251.151	36.86
251.368	-2.05
251.585	71.68
251.801	59.39
252.018	-102.4
252.235	43.01
252.451	-38.91
252.668	6.14
252.885	65.54
253.102	2.05
253.318	-51.2
253.535	26.62
253.752	10.24
253.968	-51.2
254.185	-40.96
254.401	30.72
254.618	-20.48
254.835	-38.91
255.051	51.2
255.268	-28.67
255.484	38.91
255.701	-59.39
255.917	51.2
256.134	12.29
256.351	83.97
256.567	10.24
256.784	-47.1
257	-53.25
257.217	129.02
257.433	63.49
257.65	-32.77
257.866	131.07
258.082	-53.25
258.299	16.38
258.515	22.53
258.732	22.53
258.948	14.34
259.165	40.96
259.381	-79.87
259.597	83.97
259.814	-24.58
260.03	-22.53
260.246	-71.68
260.463	129.02
260.679	190.46
260.895	83.97
261.112	14.34
261.328	30.72
261.544	-10.24
261.761	163.84
261.977	-86.01
262.193	0
262.409	28.67
262.626	-2.05
262.842	96.25
263.058	2.05
263.274	94.21
263.49	81.92
263.707	106.49
263.923	32.77
264.139	-96.25
264.355	20.48
264.571	53.25
264.787	92.16
265.004	102.4
265.22	75.77
265.436	-24.58
265.652	63.49
265.868	4.1
266.084	-53.25
266.3	2.05
266.516	-14.34
266.732	100.35
266.948	34.82
267.164	-6.14
267.38	43.01
267.596	-30.72
267.812	92.16
268.028	36.86
268.244	-38.91
268.46	-26.62
268.676	-57.34
268.892	81.92
269.108	28.67
269.324	-16.38
269.54	-2.05
269.756	75.77
269.972	-75.77
270.188	-18.43
270.403	-57.34
270.619	-71.68
270.835	94.21
271.051	-59.39
271.267	-30.72
271.483	-63.49
271.698	63.49
271.914	-16.38
272.13	-43.01
272.346	-47.1
272.562	-14.34
272.777	40.96
272.993	79.87
273.209	-28.67
273.425	57.34
273.64	-77.82
273.856	131.07
274.072	-49.15
274.287	16.38
274.503	63.49
274.719	12.29
274.934	-51.2
275.15	-67.58
275.366	45.06
275.581	16.38
275.797	73.73
276.012	151.55
276.228	18.43
276.444	65.54
276.659	24.58
276.875	-32.77
277.09	14.34
277.306	2.05
277.521	67.58
277.737	34.82
277.952	86.01
278.168	14.34
278.383	45.06
278.599	71.68
278.814	22.53
279.03	-38.91
279.245	157.69
279.461	12.29
279.676	51.2
279.892	12.29
280.107	-14.34
280.322	16.38
280.538	26.62
280.753	-43.01
280.969	-6.14
281.184	73.73
281.399	112.64
281.615	-2.05
281.83	133.12
282.045	-57.34
282.26	6.14
282.476	73.73
282.691	51.2
282.906	26.62
283.122	28.67
283.337	-75.77
283.552	90.11
283.767	-12.29
283.983	65.54
284.198	30.72
284.413	118.78
284.628	-57.34
284.843	26.62
285.058	90.11
285.274	-18.43
285.489	0
285.704	151.55
285.919	-45.06
286.134	24.58
286.349	-55.3
286.564	18.43
286.779	88.06
286.995	28.67
287.21	-65.53
287.425	43.01
287.64	-32.77
287.855	59.39
288.07	-104.45
288.285	100.35
288.5	102.4
288.715	40.96
288.93	-36.86
289.145	24.58
289.36	141.31
289.575	32.77
289.79	135.17
290.004	-47.1
290.219	67.58
290.434	0
290.649	12.29
290.864	-22.53
291.079	45.06
291.294	51.2
291.509	55.3
291.724	40.96
291.938	28.67
292.153	-4.1
292.368	40.96
292.583	26.62
292.798	-2.05
293.012	71.68
293.227	18.43
293.442	-71.68
293.657	47.1
293.871	77.82
294.086	98.3
294.301	122.88
294.516	122.88
294.73	28.67
294.945	-90.11
295.16	-59.39
295.374	151.55
295.589	124.93
295.804	-20.48
296.018	47.1
296.233	83.97
296.447	14.34
296.662	8.19
296.877	143.36
297.091	59.39
297.306	28.67
297.52	51.2
297.735	-14.34
297.949	143.36
298.164	10.24
298.378	-10.24
298.593	-10.24
298.807	-73.73
299.022	-32.77
299.236	94.21
299.451	-43.01
299.665	28.67
299.88	26.62
300.094	24.58
300.309	55.3
300.523	77.82
300.737	38.91
300.952	34.82
301.166	-24.58
301.381	-8.19
301.595	-73.73
301.809	16.38
302.024	43.01
302.238	-14.34
302.452	110.59
302.667	6.14
302.881	-8.19
303.095	49.15
303.309	77.82
303.524	40.96
303.738	-38.91
303.952	22.53
304.166	16.38
304.381	-112.64
304.595	108.54
304.809	-51.2
305.023	18.43
305.237	28.67
305.452	-2.05
305.666	90.11
305.88	100.35
306.094	172.03
306.308	18.43
306.522	73.73
306.736	81.92
306.95	51.2
307.164	8.19
307.379	34.82
307.593	40.96
307.807	116.73
308.021	106.49
308.235	124.93
308.449	-59.39
308.663	-63.49
308.877	262.14
309.091	94.21
309.305	71.68
309.519	-137.21
309.733	159.74
309.947	-63.49
310.161	102.4
310.374	30.72
310.588	169.98
310.802	-14.34
311.016	-14.34
311.23	100.35
311.444	-24.58
311.658	-38.91
311.872	65.54
312.085	122.88
312.299	100.35
312.513	118.78
312.727	47.1
312.941	-67.58
313.154	14.34
313.368	26.62
313.582	-59.39
313.796	79.87
314.009	-61.44
314.223	73.73
314.437	55.3
314.651	67.58
314.864	-16.38
315.078	-4.1
315.292	-12.29
315.505	4.1
315.719	40.96
315.933	4.1
316.146	-43.01
316.36	4.1
316.573	122.88
316.787	55.3
317.001	14.34
317.214	-55.3
317.428	26.62
317.641	-49.15
317.855	20.48
318.068	40.96
318.282	-61.44
318.495	217.08
318.709	106.49
318.922	-6.14
319.136	126.97
319.349	51.2
319.563	-10.24
319.776	28.67
319.99	-88.06
320.203	73.73
320.417	-10.24
320.63	83.97
320.843	110.59
321.057	69.63
321.27	-16.38
321.483	69.63
321.697	96.25
321.91	6.14
322.124	59.39
322.337	90.11
322.55	-114.69
322.763	24.58
322.977	-61.44
323.19	-18.43
323.403	55.3
323.617	36.86
323.83	81.92
324.043	6.14
324.256	30.72
324.469	-75.77
324.683	114.69
324.896	16.38
325.109	-53.25
325.322	-81.92
325.535	14.34
325.748	28.67
325.962	-43.01
326.175	30.72
326.388	57.34
326.601	147.45
326.814	-12.29
327.027	92.16
327.24	129.02
327.453	-159.74
327.666	96.25
327.879	106.49
328.092	14.34
328.305	34.82
328.518	0
328.731	100.35
328.944	-8.19
329.157	28.67
329.37	8.19
329.583	108.54
329.796	165.89
330.009	-100.35
330.222	47.1
330.435	96.25
330.648	-4.1
330.861	108.54
331.073	65.54
331.286	40.96
331.499	24.58
331.712	-30.72
331.925	-43.01
332.138	-10.24
332.35	118.78
332.563	-36.86
332.776	61.44
332.989	-14.34
333.202	-22.53
333.414	30.72
333.627	43.01
333.84	-10.24
334.053	151.55
334.265	32.77
334.478	30.72
334.691	75.77
334.903	86.01
335.116	-14.34
335.329	-38.91
335.541	24.58
335.754	141.31
335.966	-90.11
336.179	40.96
336.392	10.24
336.604	45.06
336.817	73.73
337.029	59.39
337.242	-12.29
337.454	88.06
337.667	83.97
337.88	79.87
338.092	32.77
338.305	67.58
338.517	-14.34
338.729	79.87
338.942	75.77
339.154	-79.87
339.367	-36.86
339.579	8.19
339.792	18.43
340.004	55.3
340.217	-10.24
340.429	-8.19
340.641	-22.53
340.854	-79.87
341.066	-88.06
341.278	71.68
341.491	96.25
341.703	86.01
341.915	-110.59
342.128	38.91
342.34	79.87
342.552	-47.1
342.764	49.15
342.977	-4.1
343.189	20.48
343.401	-20.48
343.613	-67.58
343.826	22.53
344.038	-20.48
344.25	141.31
344.462	-34.82
344.674	104.45
344.886	104.45
345.099	24.58
345.311	-8.19
345.523	-20.48
345.735	-53.25
345.947	55.3
346.159	26.62
346.371	65.54
346.583	-61.44
346.795	157.69
347.007	4.1
347.219	34.82
347.431	61.44
347.643	12.29
347.855	14.34
348.067	129.02
348.279	-77.82
348.491	-65.53
348.703	67.58
348.915	45.06
349.127	-61.44
349.339	90.11
349.551	63.49
349.763	61.44
349.975	26.62
350.187	90.11
350.399	102.4
350.61	0
350.822	20.48
351.034	83.97
351.246	18.43
351.458	61.44
351.669	-22.53
351.881	6.14
352.093	114.69
352.305	90.11
352.517	77.82
352.728	92.16
352.94	53.25
353.152	51.2
353.363	-38.91
353.575	43.01
353.787	159.74
353.999	0
354.21	114.69
354.422	-26.62
354.633	34.82
354.845	10.24
355.057	47.1
355.268	-10.24
355.48	163.84
355.692	-90.11
355.903	61.44
356.115	0
356.326	-120.83
356.538	86.01
356.749	30.72
356.961	131.07
357.172	71.68
357.384	-34.82
357.595	245.76
357.807	43.01
358.018	67.58
358.23	83.97
358.441	141.31
358.653	30.72
358.864	4.1
359.075	-73.73
359.287	26.62
359.498	57.34
359.709	47.1
359.921	34.82
360.132	6.14
360.344	-10.24
360.555	-67.58
360.766	49.15
360.977	-24.58
361.189	30.72
361.4	-2.05
361.611	34.82
361.823	114.69
362.034	88.06
362.245	-155.65
362.456	6.14
362.667	100.35
362.879	-36.86
363.09	77.82
363.301	22.53
363.512	38.91
363.723	-22.53
363.935	-45.06
364.146	108.54
364.357	-47.1
364.568	112.64
364.779	-24.58
364.99	135.17
365.201	-69.63
365.412	133.12
365.623	-118.78
365.834	47.1
366.045	26.62
366.256	40.96
366.467	71.68
366.678	36.86
366.889	98.3
367.1	0
367.311	110.59
367.522	8.19
367.733	112.64
367.944	43.01
368.155	-53.25
368.366	90.11
368.577	122.88
368.788	86.01
368.999	-51.2
369.209	10.24
369.42	167.93
369.631	258.04
369.842	112.64
370.053	10.24
370.264	77.82
370.474	-18.43
370.685	-16.38
370.896	-38.91
371.107	116.73
371.317	14.34
371.528	14.34
371.739	90.11
371.95	-10.24
372.16	47.1
372.371	-22.53
372.582	12.29
372.792	28.67
373.003	90.11
373.214	40.96
373.424	100.35
373.635	-32.77
373.846	55.3
374.056	6.14
374.267	45.06
374.477	22.53
374.688	-6.14
374.898	116.73
375.109	92.16
375.319	110.59
375.53	124.93
375.74	61.44
375.951	-26.62
376.161	65.54
376.372	120.83
376.582	57.34
376.793	43.01
377.003	-10.24
377.214	20.48
377.424	63.49
377.635	69.63
377.845	10.24
378.055	196.61
378.266	-55.3
378.476	-67.58
378.686	126.97
378.897	8.19
379.107	20.48
379.317	81.92
379.528	-22.53
379.738	79.87
379.948	-32.77
380.158	83.97
380.369	28.67
380.579	67.58
380.789	-8.19
380.999	145.41
381.21	114.69
381.42	165.89
381.63	-18.43
381.84	104.45
382.05	-16.38
382.261	73.73
382.471	96.25
382.681	-8.19
382.891	161.79
383.101	38.91
383.311	-61.44
383.521	-53.25
383.731	90.11
383.941	145.41
384.151	36.86
384.361	36.86
384.571	20.48
384.781	59.39
384.991	233.47
385.201	139.26
385.411	75.77
385.621	100.35
385.831	55.3
386.041	-10.24
386.251	2.05
386.461	28.67
386.671	40.96
386.881	45.06
387.091	-22.53
387.301	178.17
387.511	77.82
387.72	34.82
387.93	149.5
388.14	-51.2
388.35	36.86
388.56	118.78
388.769	120.83
388.979	49.15
389.189	-30.72
389.399	4.1
389.609	86.01
389.818	178.17
390.028	-40.96
390.238	118.78
390.447	-8.19
390.657	-38.91
390.867	-28.67
391.076	-126.97
391.286	49.15
391.496	8.19
391.705	94.21
391.915	182.27
392.125	63.49
392.334	22.53
392.544	102.4
392.753	-22.53
392.963	-45.06
393.172	55.3
393.382	49.15
393.591	174.08
393.801	-2.05
394.01	108.54
394.22	65.54
394.429	-61.44
394.639	-20.48
394.848	-6.14
395.058	10.24
395.267	0
395.477	75.77
395.686	83.97
395.895	217.08
396.105	120.83
396.314	32.77
396.524	49.15
396.733	-40.96
396.942	83.97
397.152	28.67
397.361	188.41
397.57	-8.19
397.78	55.3
397.989	65.54
398.198	212.99
398.407	30.72
398.617	47.1
398.826	38.91
399.035	-63.49
399.244	96.25
399.453	14.34
399.663	34.82
399.872	108.54
400.081	-92.16
400.29	90.11
400.499	-36.86
400.708	65.54
400.917	47.1
401.127	26.62
401.336	57.34
401.545	159.74
401.754	102.4
401.963	71.68
402.172	81.92
402.381	0
402.59	12.29
402.799	-51.2
403.008	49.15
403.217	-10.24
403.426	36.86
403.635	-26.62
403.844	12.29
404.053	43.01
404.262	26.62
404.471	184.32
404.68	43.01
404.888	43.01
405.097	-18.43
405.306	6.14
405.515	71.68
405.724	59.39
405.933	147.45
406.142	34.82
406.35	77.82
406.559	16.38
406.768	53.25
406.977	155.65
407.185	22.53
407.394	71.68
407.603	-12.29
407.812	69.63
408.02	75.77
408.229	24.58
408.438	34.82
408.646	-92.16
408.855	2.05
409.064	-26.62
409.272	24.58
409.481	122.88
409.69	-4.1
409.898	-45.06
410.107	40.96
410.315	57.34
410.524	59.39
410.733	73.73
410.941	79.87
411.15	38.91
411.358	69.63
411.567	153.6
411.775	-59.39
411.984	10.24
412.192	53.25
412.401	-16.38
412.609	198.65
412.818	100.35
413.026	79.87
413.234	4.1
413.443	10.24
413.651	53.25
413.86	10.24
414.068	126.97
414.276	198.65
414.485	-30.72
414.693	147.45
414.901	268.28
415.11	10.24
415.318	79.87
415.526	61.44
415.734	98.3
415.943	71.68
416.151	90.11
416.359	8.19
416.567	90.11
416.776	120.83
416.984	2.05
417.192	147.45
417.4	-30.72
417.608	-4.1
417.817	-12.29
418.025	61.44
418.233	110.59
418.441	-38.91
418.649	24.58
418.857	36.86
419.065	96.25
419.273	-45.06
419.481	57.34
419.689	20.48
419.897	-26.62
420.105	-40.96
420.313	75.77
420.521	149.5
420.729	124.93
420.937	34.82
421.145	-22.53
421.353	49.15
421.561	100.35
421.769	34.82
421.977	36.86
422.185	81.92
422.393	86.01
422.601	124.93
422.809	55.3
423.017	38.91
423.224	81.92
423.432	116.73
423.64	12.29
423.848	159.74
424.056	14.34
424.263	110.59
424.471	26.62
424.679	202.75
424.887	8.19
425.094	145.41
425.302	102.4
425.51	65.54
425.718	92.16
425.925	-16.38
426.133	-18.43
426.341	215.04
426.548	-45.06
426.756	22.53
426.964	149.5
427.171	-38.91
427.379	108.54
427.586	63.49
427.794	81.92
428.001	151.55
428.209	102.4
428.417	147.45
428.624	124.93
428.832	143.36
429.039	79.87
429.247	157.69
429.454	129.02
429.662	237.56
429.869	100.35
430.076	149.5
430.284	155.65
430.491	192.51
430.699	92.16
430.906	241.66
431.114	147.45
431.321	149.5
431.528	110.59
431.736	204.8
431.943	176.13
432.15	169.98
432.358	188.41
432.565	239.61
432.772	20.48
432.979	190.46
433.187	108.54
433.394	231.42
433.601	94.21
433.808	186.37
434.016	245.76
434.223	258.04
434.43	161.79
434.637	217.08
434.844	296.96
435.052	227.32
435.259	305.15
435.466	264.19
435.673	229.37
435.88	272.38
436.087	286.72
436.294	421.88
436.501	346.11
436.708	311.29
436.915	296.96
437.122	358.39
437.329	223.23
437.537	335.87
437.743	305.15
437.95	358.39
438.157	354.3
438.364	395.26
438.571	385.02
438.778	354.3
438.985	434.17
439.192	438.27
439.399	370.68
439.606	487.42
439.813	526.33
440.02	534.52
440.227	614.39
440.433	563.19
440.64	550.9
440.847	575.48
441.054	632.82
441.261	735.22
441.467	626.68
441.674	600.05
441.881	800.76
442.088	669.69
442.294	741.36
442.501	811
442.708	835.57
442.914	856.05
443.121	792.56
443.328	921.59
443.534	1095.66
443.741	937.97
443.948	829.43
444.154	956.4
444.361	1134.57
444.568	1066.99
444.774	1110
444.981	993.26
445.187	1185.77
445.394	1173.49
445.6	1214.45
445.807	1421.29
446.013	1339.37
446.22	1325.04
446.426	1454.06
446.633	1642.47
446.839	1669.09
447.046	1419.24
447.252	1785.83
447.459	1714.15
447.665	1794.02
447.871	2004.96
448.078	2119.65
448.284	1906.66
448.491	2074.59
448.697	2174.94
448.903	2187.23
449.11	2183.13
449.316	2238.43
449.522	2422.75
449.728	2566.1
449.935	2707.41
450.141	2643.93
450.347	2781.14
450.553	2760.66
450.76	2947.03
450.966	3166.16
451.172	3108.82
451.378	3227.6
451.584	3301.33
451.791	3499.98
451.997	3590.09
452.203	3762.12
452.409	3901.38
452.615	4136.9
452.821	3977.16
453.027	3977.16
453.233	4648.89
453.44	4417.47
453.646	4679.61
453.852	5007.28
454.058	5017.52
454.264	5136.31
454.47	5554.09
454.676	5560.24
454.882	6078.37
455.088	5662.63
455.294	6080.42
455.5	6508.44
455.705	6791.06
455.911	6791.06
456.117	7110.55
456.323	7290.77
456.529	7301.01
456.735	8167.3
456.941	8249.22
457.147	8626.04
457.352	8812.41
457.558	8939.38
457.764	9486.19
457.97	9797.48
458.176	10284.9
458.381	10538.85
458.587	10991.45
458.793	11376.47
458.999	11568.98
459.204	13113.14
459.41	13266.74
459.616	13053.75
459.821	13578.03
460.027	14554.91
460.233	15238.94
460.438	15009.56
460.644	16137.99
460.85	16330.5
461.055	16994.04
461.261	17594.1
461.466	17211.13
461.672	17739.51
461.878	20061.9
462.083	19554.01
462.289	19912.4
462.494	20764.36
462.7	20979.39
462.905	21161.66
463.111	22609.57
463.316	23633.56
463.522	24499.85
463.727	25386.62
463.932	26142.32
464.138	27012.71
464.343	27778.65
464.549	28067.41
464.754	30494.25
464.959	31153.7
465.165	31749.66
465.37	31495.71
465.575	31620.64
465.781	33730.05
465.986	34641.39
466.191	33940.99
466.397	34258.42
466.602	33234.44
466.807	35519.97
467.012	36142.55
467.218	36648.4
467.423	36781.52
467.628	37471.68
467.833	39456.17
468.038	39038.38
468.244	38188.47
468.449	40465.81
468.654	39507.37
468.859	39392.68
469.064	39697.83
469.269	38110.65
469.474	38845.87
469.679	39998.88
469.885	39148.97
470.09	39484.84
470.295	39425.45
470.5	38606.26
470.705	38903.21
470.91	38198.71
471.115	37457.35
471.32	38208.95
471.525	38010.3
471.73	36779.47
471.935	36750.8
472.139	35173.86
472.344	35323.37
472.549	35266.02
472.754	34647.54
472.959	33838.59
473.164	32812.56
473.369	32626.19
473.574	33357.32
473.778	32523.79
473.983	31876.63
474.188	31194.66
474.393	30088.76
474.598	29830.71
474.802	29091.4
475.007	28804.68
475.212	28653.13
475.417	27151.97
475.621	27172.45
475.826	26885.73
476.031	26472.04
476.235	25732.73
476.44	25405.05
476.645	24647.3
476.849	24741.51
477.054	24350.35
477.259	23768.73
477.463	24075.92
477.668	22814.37
477.872	22914.72
478.077	22550.18
478.282	21841.59
478.486	21720.76
478.691	21165.76
478.895	21139.13
479.1	21022.4
479.304	20969.15
479.509	20321.99
479.713	20815.55
479.918	19771.09
480.122	19637.97
480.326	19914.45
480.531	19701.46
480.735	19349.21
480.94	19222.23
481.144	19556.05
481.348	18599.65
481.553	18636.52
481.757	18022.12
481.961	18581.22
482.166	18644.71
482.37	18251.5
482.574	17876.72
482.778	18009.84
482.983	18280.17
483.187	17983.21
483.391	17706.74
483.595	17463.03
483.8	17002.24
484.004	17407.73
484.208	17221.37
484.412	16873.21
484.616	16566.02
484.821	16516.87
485.025	15988.49
485.229	16396.04
485.433	16135.95
485.637	15826.7
485.841	15519.51
486.045	15290.13
486.249	15329.05
486.453	14784.29
486.657	14661.41
486.861	14567.2
487.065	14092.07
487.269	14202.66
487.473	13481.78
487.677	13856.56
487.881	13766.45
488.085	13152.06
488.289	13178.68
488.493	12795.71
488.697	12629.82
488.901	12400.45
489.105	12234.57
489.309	11913.03
489.512	11829.07
489.716	11501.39
489.92	11210.58
490.124	11202.39
490.328	11237.2
490.531	10895.19
490.735	10557.28
490.939	10463.07
491.143	10276.71
491.346	10028.9
491.55	9897.83
491.754	9637.74
491.958	9635.69
492.161	9437.04
492.365	9195.38
492.569	9037.69
492.772	9006.97
492.976	8941.43
493.18	8818.55
493.383	8691.58
493.587	8578.94
493.79	8507.26
493.994	8314.75
494.197	8265.6
494.401	8284.03
494.605	8021.89
494.808	8247.17
495.012	7880.58
495.215	8069
495.419	7923.59
495.622	7645.07
495.825	7673.74
496.029	7698.31
496.232	7808.9
496.436	7573.39
496.639	7858.06
496.843	7505.81
497.046	7628.68
497.249	7720.84
497.453	7540.62
497.656	7655.31
497.859	7634.83
498.063	7729.03
498.266	7688.07
498.469	7497.61
498.673	7487.37
498.876	7600.01
499.079	7640.97
499.282	7720.84
499.485	7972.74
499.689	7808.9
499.892	7733.13
500.095	7784.33
500.298	8036.23
500.501	7804.81
500.705	8071.04
500.908	8079.24
501.111	8134.53
501.314	8255.36
501.517	8365.95
501.72	8372.1
501.923	8400.77
502.126	8378.24
502.329	8613.76
502.532	8716.15
502.735	8787.83
502.938	9031.54
503.141	8896.38
503.344	9082.74
503.547	9289.59
503.75	9242.48
503.953	9572.21
504.156	9455.47
504.359	9721.71
504.562	9588.59
504.765	10112.87
504.968	9985.9
505.17	10346.34
505.373	10313.57
505.576	10524.51
505.779	10772.32
505.982	10579.81
506.185	11253.59
506.387	11257.68
506.59	11366.23
506.793	11597.65
506.996	11890.51
507.198	12293.96
507.401	12078.92
507.604	12468.03
507.807	12914.49
508.009	13051.7
508.212	13317.94
508.415	13467.44
508.617	13512.5
508.82	14081.83
509.022	14198.57
509.225	14565.15
509.428	14821.15
509.63	15003.42
509.833	15396.63
510.035	15804.17
510.238	15859.47
510.44	16398.09
510.643	16811.78
510.845	17549.04
511.048	17393.4
511.25	17948.4
511.453	18171.63
511.655	19076.83
511.858	19214.04
512.06	19422.94
512.262	20084.43
512.465	20176.59
512.667	20788.93
512.87	21257.92
513.072	21860.02
513.274	22296.24
513.477	22646.44
513.679	23137.95
513.881	23715.48
514.084	24149.65
514.286	24469.13
514.488	24905.35
514.69	25968.24
514.893	26494.57
515.095	27172.45
515.297	27403.87
515.499	27897.43
515.701	28876.36
515.904	29322.82
516.106	30021.17
516.308	30692.91
516.51	31358.5
516.712	31577.63
516.914	32472.59
517.116	33013.26
517.318	33445.38
517.52	34033.14
517.722	34219.51
517.925	35479.01
518.127	35995.1
518.329	36912.59
518.531	36908.49
518.733	38071.74
518.935	38428.09
519.136	38907.31
519.338	39835.04
519.54	40261.02
519.742	41168.27
519.944	41477.51
520.146	42249.6
520.348	42614.13
520.55	43076.97
520.752	43511.14
520.954	44342.62
521.155	44254.56
521.357	44975.44
521.559	45305.16
521.761	46615.86
521.963	46325.05
522.164	47078.71
522.366	47156.53
522.568	47484.2
522.77	48608.54
522.971	48667.93
523.173	48508.19
523.375	49114.39
523.576	48958.74
523.778	49188.11
523.98	50085.12
524.181	49880.33
524.383	50013.44
524.584	50930.93
524.786	50576.64
524.988	50724.09
525.189	50554.11
525.391	51447.02
525.592	51178.74
525.794	51283.19
525.995	50765.05
526.197	50992.37
526.398	51102.96
526.6	50986.23
526.801	50711.8
527.003	50623.74
527.204	50236.67
527.406	50797.82
527.607	49876.23
527.808	49904.9
528.01	49405.2
528.211	49493.26
528.412	49829.13
528.614	49192.21
528.815	48833.81
529.016	49095.95
529.218	47445.29
529.419	47586.6
529.62	47447.34
529.822	46755.13
530.023	46619.96
530.224	45858.12
530.425	45579.59
530.626	44907.86
530.828	44223.84
531.029	44780.88
531.23	43836.77
531.431	43500.9
531.632	43093.36
531.833	42556.79
532.035	41946.5
532.236	41819.52
532.437	41272.71
532.638	40670.61
532.839	40304.02
533.04	39734.69
533.241	38772.14
533.442	39212.46
533.643	38274.49
533.844	37895.61
534.045	37332.42
534.246	36462.04
534.447	36271.57
534.648	35696.1
534.849	35339.75
535.05	34547.18
535.251	34606.58
535.451	33594.88
535.652	33267.2
535.853	33107.46
536.054	32794.12
536.255	32085.53
536.456	31450.66
536.657	31329.83
536.857	30920.23
537.058	30246.45
537.259	30074.42
537.46	29570.62
537.66	28874.31
537.861	29021.77
538.062	28384.85
538.263	27985.49
538.463	27729.5
538.664	27106.91
538.865	27047.52
539.065	26803.81
539.266	26244.72
539.466	26218.1
539.667	25783.93
539.868	25732.73
540.068	25247.36
540.269	24811.14
540.469	24422.03
540.67	24581.77
540.87	24053.39
541.071	23582.36
541.271	23498.39
541.472	23047.84
541.672	23103.14
541.873	22648.49
542.073	22048.43
542.274	22367.91
542.474	22023.86
542.675	21657.27
542.875	21612.21
543.075	21061.31
543.276	20496.07
543.476	20772.55
543.676	20666.05
543.877	20559.56
544.077	20076.24
544.277	19906.26
544.478	19537.62
544.678	19355.35
544.878	18960.09
545.078	19080.92
545.279	18403.05
545.479	18390.76
545.679	18165.48
545.879	18128.62
546.079	17852.14
546.28	17520.37
546.48	17301.24
546.68	17446.65
546.88	16969.47
547.08	16799.49
547.28	16688.9
547.48	16389.89
547.68	16424.71
547.88	15994.64
548.081	15826.7
548.281	15447.83
548.481	15486.74
548.681	15335.19
548.881	15165.21
549.081	14894.88
549.28	14718.75
549.48	14292.77
549.68	14108.46
549.88	14176.04
550.08	13803.31
550.28	13893.42
550.48	13518.64
550.68	13641.52
550.88	13150.01
551.08	13018.94
551.279	12832.57
551.479	12455.75
551.679	12468.03
551.879	12363.59
552.079	12322.63
552.278	11810.64
552.478	11824.97
552.678	11509.58
552.878	11552.59
553.077	11075.41
553.277	10792.8
553.477	10968.92
553.676	10729.31
553.876	10760.03
554.076	10104.68
554.275	10086.25
554.475	10159.97
554.674	9989.99
554.874	9746.28
555.074	9494.38
555.273	9475.95
555.473	9211.76
555.672	9150.32
555.872	8978.3
556.071	8947.58
556.271	9039.73
556.47	8523.65
556.67	8462.21
556.869	8251.27
557.068	8069
557.268	8079.24
557.467	8130.44
557.667	7733.13
557.866	7741.32
558.065	7552.91
558.265	7448.46
558.464	7247.76
558.663	7131.03
558.863	7092.12
559.062	6944.66
559.261	6733.72
559.461	6651.8
559.66	6649.75
559.859	6438.81
560.058	6328.22
560.258	6287.26
560.457	6096.8
560.656	6221.73
560.855	5914.53
561.054	6129.57
561.253	5775.27
561.453	5709.74
561.652	5611.43
561.851	5689.26
562.05	5554.09
562.249	5304.24
562.448	5373.87
562.647	5201.84
562.846	5097.39
563.045	5197.74
563.244	4949.94
563.443	4982.71
563.642	4655.03
563.841	4712.38
564.04	4581.31
564.239	4652.98
564.438	4642.75
564.637	4396.99
564.836	4431.8
565.035	4409.28
565.234	4325.31
565.432	4184
565.631	4235.2
565.83	4194.24
566.029	3962.82
566.228	3966.92
566.427	4093.89
566.625	3807.17
566.824	3983.3
567.023	3831.75
567.222	3665.86
567.42	3737.54
567.619	3784.65
567.818	3567.56
568.016	3700.68
568.215	3473.35
568.414	3467.21
568.612	3434.44
568.811	3309.52
569.01	3370.96
569.208	3225.55
569.407	3334.09
569.605	3196.88
569.804	3123.15
570.002	3035.09
570.201	3045.33
570.4	3039.19
570.598	2842.58
570.797	2830.29
570.995	2828.24
571.193	2789.33
571.392	2783.19
571.59	2574.3
571.789	2779.09
571.987	2670.55
572.186	2615.26
572.384	2432.99
572.582	2514.91
572.781	2572.25
572.979	2385.88
573.177	2420.7
573.376	2293.73
573.574	2283.49
573.772	2287.58
573.971	2222.05
574.169	2142.18
574.367	2070.5
574.565	2072.54
574.763	2142.18
574.962	2074.59
575.16	2093.02
575.358	1990.63
575.556	1955.81
575.754	1964
575.952	1957.86
576.151	1837.03
576.349	1843.17
576.547	1771.49
576.745	1855.46
576.943	1802.21
577.141	1624.04
577.339	1660.9
577.537	1667.05
577.735	1781.73
577.933	1699.81
578.131	1527.78
578.329	1644.52
578.527	1607.66
578.725	1587.18
578.923	1374.19
579.121	1464.3
579.319	1396.71
579.516	1527.78
579.714	1517.54
579.912	1449.96
580.11	1339.37
580.308	1310.7
580.506	1386.47
580.704	1247.21
580.901	1300.46
581.099	1376.24
581.297	1314.8
581.495	1249.26
581.692	1196.01
581.89	1300.46
582.088	1161.2
582.285	1107.95
582.483	1134.57
582.681	1124.33
582.878	1101.81
583.076	1142.77
583.274	1196.01
583.471	1193.97
583.669	1103.86
583.866	970.74
584.064	970.74
584.262	911.35
584.459	935.92
584.657	1023.98
584.854	1081.33
585.052	1103.86
585.249	1036.27
585.447	995.31
585.644	825.33
585.841	935.92
586.039	849.91
586.236	913.39
586.434	927.73
586.631	817.14
586.828	755.7
587.026	786.42
587.223	782.32
587.42	669.69
587.618	817.14
587.815	761.84
588.012	776.18
588.21	724.98
588.407	847.86
588.604	819.19
588.801	649.21
588.999	745.46
589.196	862.19
589.393	673.78
589.59	763.89
589.787	716.79
589.984	735.22
590.182	708.6
590.379	735.22
590.576	706.55
590.773	694.26
590.97	716.79
591.167	829.43
591.364	657.4
591.561	663.54
591.758	849.91
591.955	698.36
592.152	600.05
592.349	636.92
592.546	552.95
592.743	638.97
592.94	653.3
593.137	714.74
593.334	753.65
593.531	679.93
593.727	727.03
593.924	706.55
594.121	694.26
594.318	714.74
594.515	688.12
594.712	724.98
594.908	821.24
595.105	546.81
595.302	643.06
595.499	641.01
595.696	800.76
595.892	702.45
596.089	733.17
596.286	739.32
596.482	903.15
596.679	790.52
596.876	690.17
597.072	917.49
597.269	868.34
597.466	921.59
597.662	894.96
597.859	845.81
598.055	993.26
598.252	991.22
598.448	1073.14
598.645	1118.19
598.841	1124.33
599.038	1173.49
599.234	1312.75
599.431	1236.97
599.627	1284.08
599.824	1404.91
600.02	1359.85
600.217	1370.09
600.413	1417.19
600.609	1556.46
600.806	1798.12
601.002	1593.32
601.198	1697.77
601.395	1734.63
601.591	1744.87
601.787	1863.65
601.984	1877.99
602.18	1945.57
602.376	2054.11
602.572	2097.12
602.769	2349.02
602.965	2246.62
603.161	2527.19
603.357	2602.97
603.553	2754.52
603.75	2621.4
603.946	2740.18
604.142	2803.67
604.338	3033.04
604.534	2994.13
604.73	3211.22
604.926	3149.78
605.122	3538.89
605.318	3403.72
605.514	3588.04
605.71	3624.9
605.906	3774.41
606.102	3899.33
606.298	4075.46
606.494	4255.68
606.69	4267.97
606.886	4491.2
607.082	4392.89
607.278	4573.11
607.474	4622.27
607.67	4908.98
607.866	5001.14
608.062	5316.53
608.257	5201.84
608.453	5330.86
608.649	5642.15
608.845	5574.57
609.041	5873.57
609.236	6248.35
609.432	6285.22
609.628	6514.59
609.824	6569.88
610.019	6623.13
610.215	6981.53
610.411	7298.96
610.606	7395.22
610.802	7548.81
610.998	7673.74
611.193	7960.45
611.389	7929.73
611.584	8300.42
611.78	8421.25
611.976	8669.05
612.171	9011.06
612.367	9285.49
612.562	9373.55
612.758	9545.58
612.953	9666.41
613.149	10106.73
613.344	10358.63
613.539	10864.47
613.735	10856.28
613.93	11472.72
614.126	11564.88
614.321	11892.55
614.517	12334.92
614.712	12433.22
614.907	12795.71
615.103	13174.58
615.298	13438.77
615.493	13731.63
615.688	14018.35
615.884	14659.36
616.079	14608.16
616.274	15193.88
616.47	15277.85
616.665	15914.77
616.86	16299.78
617.055	16813.82
617.25	17082.11
617.445	17428.21
617.641	17698.55
617.836	18333.42
618.031	18587.36
618.226	19437.27
618.421	19433.18
618.616	20377.29
618.811	20559.56
619.006	21120.7
619.201	21276.35
619.396	22060.72
619.591	21960.37
619.786	22970.02
619.981	23121.57
620.176	23738.01
620.371	24168.08
620.566	24882.82
620.761	25316.99
620.956	26089.07
621.151	26498.67
621.346	27141.73
621.541	27348.57
621.735	27969.11
621.93	28509.77
622.125	29087.3
622.32	29251.14
622.515	29849.14
622.709	30238.26
622.904	31165.99
623.099	31243.81
623.294	32609.81
623.488	32181.78
623.683	33154.57
623.878	33869.31
624.072	34303.48
624.267	34770.41
624.462	35425.76
624.656	35749.34
624.851	36425.17
625.046	36511.19
625.24	37221.83
625.435	37723.58
625.629	38448.57
625.824	38477.24
626.018	39290.28
626.213	39314.86
626.407	40222.11
626.602	40082.84
626.796	41457.03
626.991	41561.48
627.185	41753.99
627.38	41938.3
627.574	42239.36
627.768	42237.31
627.963	42337.66
628.157	42493.3
628.352	43212.14
628.546	42351.99
628.74	43044.21
628.935	42270.07
629.129	42927.47
629.323	42503.54
629.517	42372.47
629.712	41983.36
629.906	41756.03
630.1	40848.78
630.294	41338.25
630.489	40254.87
630.683	40347.03
630.877	39361.96
631.071	39036.33
631.265	38196.67
631.459	37760.45
631.653	36898.25
631.848	36195.8
632.042	35010.03
632.236	34676.21
632.43	33328.64
632.624	32677.39
632.818	31581.73
633.012	30871.08
633.206	29550.14
633.4	29048.39
633.594	27334.24
633.788	26721.9
633.982	26410.6
634.176	25194.11
634.369	24102.54
634.563	23291.55
634.757	22343.34
634.951	21915.31
635.145	20651.72
635.339	19920.59
635.533	19173.08
635.726	18530.02
635.92	17540.85
636.114	16803.58
636.308	16004.88
636.501	15867.66
636.695	14741.28
636.889	14200.62
637.083	13745.97
637.276	13156.15
637.47	12552
637.664	12150.6
637.857	11689.81
638.051	11140.95
638.244	10727.26
638.438	10354.53
638.632	9887.59
638.825	9387.89
639.019	9117.56
639.212	8765.31
639.406	8484.73
639.599	8144.77
639.793	7659.4
639.986	7427.98
640.18	7278.48
640.373	6969.24
640.567	6725.53
640.76	6442.91
640.954	6221.73
641.147	5670.83
641.34	5609.39
641.534	5474.22
641.727	5377.97
641.92	5142.45
642.114	5009.33
642.307	4503.48
642.5	4493.24
642.694	4294.59
642.887	4102.08
643.08	4077.51
643.273	3993.54
643.467	3841.99
643.66	3430.35
643.853	3332.05
644.046	3385.29
644.239	3028.95
644.432	2975.7
644.626	2760.66
644.819	2791.38
645.012	2707.41
645.205	2621.4
645.398	2650.07
645.591	2289.63
645.784	2291.68
645.977	2265.05
646.17	2170.85
646.363	2099.17
646.556	1953.76
646.749	1736.68
646.942	1863.65
647.135	1818.6
647.328	1740.77
647.521	1697.77
647.714	1576.94
647.907	1599.46
648.099	1329.13
648.292	1482.73
648.485	1300.46
648.678	1271.79
648.871	1118.19
649.064	1345.52
649.256	1054.7
649.449	1021.94
649.642	1075.18
649.835	1060.85
650.027	956.4
650.22	1028.08
650.413	888.82
650.605	931.83
650.798	782.32
650.991	901.11
651.183	763.89
651.376	870.39
651.568	858.1
651.761	698.36
651.954	765.94
652.146	688.12
652.339	686.07
652.531	684.02
652.724	626.68
652.916	503.8
653.109	399.35
653.301	585.72
653.494	563.19
653.686	563.19
653.879	565.24
654.071	514.04
654.263	462.84
654.456	483.32
654.648	530.42
654.84	569.34
655.033	460.79
655.225	552.95
655.417	342.01
655.61	462.84
655.802	417.79
655.994	423.93
656.186	335.87
656.379	368.63
656.571	337.91
656.763	317.44
656.955	319.48
657.148	337.91
657.34	417.79
657.532	350.2
657.724	247.8
657.916	288.76
658.108	337.91
658.3	352.25
658.492	282.62
658.684	212.99
658.876	294.91
659.068	172.03
659.26	221.18
659.452	206.84
659.644	321.53
659.836	395.26
660.028	233.47
660.22	260.09
660.412	233.47
660.604	206.84
660.796	243.71
660.988	272.38
661.18	208.89
661.372	278.52
661.563	223.23
661.755	206.84
661.947	159.74
662.139	167.93
662.331	233.47
662.522	165.89
662.714	92.16
662.906	149.5
663.097	282.62
663.289	212.99
663.481	49.15
663.673	167.93
663.864	172.03
664.056	198.65
664.247	45.06
664.439	319.48
664.631	120.83
664.822	237.56
665.014	147.45
665.205	86.01
665.397	237.56
665.588	100.35
665.78	231.42
665.971	217.08
666.163	98.3
666.354	174.08
666.546	0
666.737	139.26
666.929	65.54
667.12	102.4
667.311	174.08
667.503	153.6
667.694	184.32
667.885	165.89
668.077	90.11
668.268	-8.19
668.459	69.63
668.651	163.84
668.842	165.89
669.033	71.68
669.224	112.64
669.416	286.72
669.607	124.93
669.798	61.44
669.989	249.85
670.18	157.69
670.371	165.89
670.563	34.82
670.754	217.08
670.945	155.65
671.136	233.47
671.327	67.58
671.518	186.37
671.709	266.24
671.9	153.6
672.091	231.42
672.282	83.97
672.473	135.17
672.664	135.17
672.855	212.99
673.046	151.55
673.237	176.13
673.428	151.55
673.619	180.22
673.809	112.64
674	184.32
674.191	174.08
674.382	178.17
674.573	178.17
674.764	98.3
674.954	204.8
675.145	155.65
675.336	90.11
675.527	86.01
675.717	71.68
675.908	28.67
676.099	110.59
676.289	163.84
676.48	36.86
676.671	118.78
676.861	147.45
677.052	212.99
677.243	104.45
677.433	165.89
677.624	174.08
677.814	196.61
678.005	45.06
678.195	270.33
678.386	137.21
678.576	169.98
678.767	59.39
678.957	161.79
679.148	225.28
679.338	194.56
679.529	243.71
679.719	120.83
679.909	223.23
680.1	104.45
680.29	194.56
680.481	149.5
680.671	233.47
680.861	229.37
681.052	94.21
681.242	126.97
681.432	163.84
681.622	180.22
681.813	26.62
682.003	143.36
682.193	124.93
682.383	120.83
682.573	186.37
682.764	122.88
682.954	227.32
683.144	223.23
683.334	159.74
683.524	239.61
683.714	133.12
683.904	88.06
684.094	190.46
684.284	202.75
684.474	344.06
684.664	233.47
684.854	196.61
685.044	73.73
685.234	241.66
685.424	180.22
685.614	200.7
685.804	245.76
685.994	137.21
686.184	178.17
686.374	235.52
686.564	165.89
686.753	135.17
686.943	112.64
687.133	149.5
687.323	188.41
687.513	131.07
687.702	196.61
687.892	143.36
688.082	253.95
688.272	219.13
688.461	176.13
688.651	348.15
688.841	212.99
689.03	178.17
689.22	137.21
689.41	200.7
689.599	196.61
689.789	96.25
689.979	342.01
690.168	122.88
690.358	247.8
690.547	219.13
690.737	264.19
690.926	157.69
691.116	237.56
691.305	286.72
691.495	253.95
691.684	182.27
691.874	149.5
692.063	118.78
692.252	256
692.442	225.28
692.631	178.17
692.82	124.93
693.01	262.14
693.199	182.27
693.388	178.17
693.578	172.03
693.767	176.13
693.956	176.13
694.146	139.26
694.335	268.28
694.524	204.8
694.713	153.6
694.902	143.36
695.092	129.02
695.281	194.56
695.47	174.08
695.659	86.01
695.848	239.61
696.037	69.63
696.226	227.32
696.415	69.63
696.604	339.96
696.793	235.52
696.982	139.26
697.171	217.08
697.36	129.02
697.549	176.13
697.738	22.53
697.927	141.31
698.116	145.41
698.305	143.36
698.494	198.65
698.683	172.03
698.872	305.15
699.061	174.08
699.25	108.54
699.438	174.08
699.627	90.11
699.816	299
700.005	65.54
700.193	163.84
700.382	227.32
700.571	118.78
700.76	219.13
700.948	256
701.137	241.66
701.326	272.38
701.514	71.68
701.703	221.18
701.892	249.85
702.08	288.76
702.269	182.27
702.457	122.88
702.646	133.12
702.834	114.69
703.023	212.99
703.212	221.18
703.4	169.98
703.589	114.69
703.777	157.69
703.965	53.25
704.154	98.3
704.342	96.25
704.531	174.08
704.719	157.69
704.907	239.61
705.096	65.54
705.284	61.44
705.472	219.13
705.661	133.12
705.849	108.54
706.037	172.03
706.226	157.69
706.414	143.36
706.602	110.59
706.79	206.84
706.979	155.65
707.167	184.32
707.355	49.15
707.543	239.61
707.731	186.37
707.919	116.73
708.107	155.65
708.296	98.3
708.484	180.22
708.672	301.05
708.86	239.61
709.048	102.4
709.236	49.15
709.424	155.65
709.612	145.41
709.8	67.58
709.988	172.03
710.176	204.8
710.364	204.8
710.551	83.97
710.739	172.03
710.927	112.64
711.115	182.27
711.303	280.57
711.491	237.56
711.679	180.22
711.866	231.42
712.054	153.6
712.242	161.79
712.43	292.86
712.617	135.17
712.805	223.23
712.993	145.41
713.181	45.06
713.368	204.8
713.556	206.84
713.744	79.87
713.931	391.16
714.119	145.41
714.306	151.55
714.494	98.3
714.682	204.8
714.869	51.2
715.057	137.21
715.244	69.63
715.432	163.84
715.619	83.97
715.807	102.4
715.994	149.5
716.182	172.03
716.369	221.18
716.556	210.94
716.744	110.59
716.931	100.35
717.119	196.61
717.306	145.41
717.493	235.52
717.681	102.4
717.868	163.84
718.055	239.61
718.242	147.45
718.43	268.28
718.617	231.42
718.804	198.65
718.991	194.56
719.179	317.44
719.366	210.94
719.553	139.26
719.74	227.32
719.927	174.08
720.114	163.84
720.301	120.83
720.488	143.36
720.676	90.11
720.863	288.76
721.05	362.49
721.237	227.32
721.424	241.66
721.611	217.08
721.798	102.4
721.985	169.98
722.172	161.79
722.358	143.36
722.545	206.84
722.732	212.99
722.919	342.01
723.106	167.93
723.293	176.13
723.48	131.07
723.667	190.46
723.853	198.65
724.04	251.9
724.227	245.76
724.414	174.08
724.6	243.71
724.787	333.82
724.974	286.72
725.161	245.76
725.347	129.02
725.534	204.8
725.72	286.72
725.907	225.28
726.094	198.65
726.28	122.88
726.467	231.42
726.653	114.69
726.84	346.11
727.027	337.91
727.213	174.08
727.4	251.9
727.586	129.02
727.773	258.04
727.959	210.94
728.145	225.28
728.332	251.9
728.518	122.88
728.705	215.04
728.891	202.75
729.077	208.89
729.264	143.36
729.45	268.28
729.636	215.04
729.823	268.28
730.009	221.18
730.195	198.65
730.382	196.61
730.568	104.45
730.754	178.17
730.94	202.75
731.126	227.32
731.313	270.33
731.499	157.69
731.685	212.99
731.871	268.28
732.057	272.38
732.243	268.28
732.429	245.76
732.615	313.34
732.801	241.66
732.987	169.98
733.173	172.03
733.359	157.69
733.545	194.56
733.731	251.9
733.917	395.26
734.103	249.85
734.289	184.32
734.475	174.08
734.661	329.72
734.847	223.23
735.033	198.65
735.219	274.43
735.404	221.18
735.59	225.28
735.776	219.13
735.962	241.66
736.148	290.81
736.333	296.96
736.519	276.48
736.705	188.41
736.89	139.26
737.076	200.7
737.262	145.41
737.447	188.41
737.633	167.93
737.819	278.52
738.004	245.76
738.19	174.08
738.375	278.52
738.561	225.28
738.747	245.76
738.932	147.45
739.118	307.2
739.303	292.86
739.489	284.67
739.674	256
739.859	145.41
740.045	243.71
740.23	200.7
740.416	167.93
740.601	247.8
740.786	262.14
740.972	212.99
741.157	137.21
741.342	157.69
741.528	151.55
741.713	200.7
741.898	151.55
742.084	157.69
742.269	256
742.454	198.65
742.639	268.28
742.824	258.04
743.01	276.48
743.195	323.58
743.38	190.46
743.565	190.46
743.75	202.75
743.935	235.52
744.12	249.85
744.305	71.68
744.49	219.13
744.675	266.24
744.86	247.8
745.045	346.11
745.23	190.46
745.415	151.55
745.6	335.87
745.785	108.54
745.97	247.8
746.155	299
746.34	274.43
746.525	139.26
746.71	307.2
746.895	151.55
747.079	79.87
747.264	137.21
747.449	258.04
747.634	247.8
747.819	272.38
748.003	157.69
748.188	102.4
748.373	225.28
748.557	264.19
748.742	133.12
748.927	217.08
749.111	149.5
749.296	139.26
749.481	182.27
749.665	186.37
749.85	135.17
750.034	225.28
750.219	235.52
750.404	202.75
750.588	231.42
750.773	174.08
750.957	126.97
751.141	143.36
751.326	227.32
751.51	186.37
751.695	200.7
751.879	192.51
752.064	223.23
752.248	172.03
752.432	249.85
752.617	198.65
752.801	225.28
752.985	165.89
753.17	217.08
753.354	178.17
753.538	161.79
753.722	55.3
753.907	172.03
754.091	65.54
754.275	202.75
754.459	135.17
754.643	73.73
754.828	90.11
755.012	141.31
755.196	73.73
755.38	126.97
755.564	36.86
755.748	94.21
755.932	159.74
756.116	180.22
756.3	169.98
756.484	155.65
756.668	212.99
756.852	8.19
757.036	51.2
757.22	135.17
757.404	96.25
757.588	88.06
757.772	163.84
757.956	65.54
758.14	190.46
758.323	28.67
758.507	165.89
758.691	149.5
758.875	184.32
759.059	307.2
759.242	124.93
759.426	73.73
759.61	71.68
759.794	81.92
759.977	200.7
760.161	301.05
760.345	231.42
760.528	182.27
760.712	122.88
760.895	210.94
761.079	159.74
761.263	36.86
761.446	-22.53
761.63	202.75
761.813	258.04
761.997	24.58
762.18	108.54
762.364	233.47
762.547	-98.3
762.731	116.73
762.914	69.63
763.098	86.01
763.281	69.63
763.464	30.72
763.648	75.77
763.831	118.78
764.015	129.02
764.198	161.79
764.381	-4.1
764.564	92.16
764.748	90.11
764.931	118.78
765.114	47.1
765.297	102.4
765.481	18.43
765.664	47.1
765.847	69.63
766.03	180.22
766.213	47.1
766.397	104.45
766.58	-51.2
766.763	192.51
766.946	49.15
767.129	36.86
767.312	63.49
767.495	81.92
767.678	32.77
767.861	77.82
768.044	69.63
768.227	43.01
768.41	45.06
768.593	145.41
768.776	0
768.959	53.25
769.142	71.68
769.324	10.24
769.507	10.24
769.69	63.49
769.873	53.25
770.056	245.76
770.239	71.68
770.421	194.56
770.604	122.88
770.787	92.16
770.97	43.01
771.152	0
771.335	104.45
771.518	-34.82
771.7	108.54
771.883	145.41
772.066	53.25
772.248	30.72
772.431	147.45
772.613	178.17
772.796	47.1
772.978	32.77
773.161	235.52
773.343	32.77
773.526	-30.72
773.708	-98.3
773.891	-30.72
774.073	18.43
774.256	55.3
774.438	194.56
774.621	-28.67
774.803	114.69
774.985	36.86
775.168	67.58
775.35	-34.82
775.532	30.72
775.715	-16.38
775.897	38.91
776.079	-26.62
776.261	77.82
776.444	45.06
776.626	118.78
776.808	63.49
776.99	-24.58
777.173	59.39
777.355	24.58
777.537	73.73
777.719	0
777.901	-28.67
778.083	18.43
778.265	-14.34
778.447	88.06
778.629	-45.06
778.811	43.01
778.993	102.4
779.175	77.82
779.357	34.82
779.539	-36.86
779.721	131.07
779.903	92.16
780.085	10.24
780.267	88.06
780.449	61.44
780.631	135.17
780.812	26.62
780.994	38.91
781.176	0
781.358	4.1
781.54	-24.58
781.721	47.1
781.903	38.91
782.085	47.1
782.267	53.25
782.448	-22.53
782.63	75.77
782.812	10.24
782.993	210.94
783.175	18.43
783.357	86.01
783.538	16.38
783.72	-20.48
783.901	28.67
784.083	81.92
784.264	57.34
784.446	-4.1
784.627	-8.19
784.809	-6.14
784.99	-49.15
785.172	-38.91
785.353	90.11
785.535	-65.53
785.716	16.38
785.897	-34.82
786.079	43.01
786.26	18.43
786.441	59.39
786.623	-51.2
786.804	-43.01
786.985	-34.82
787.167	75.77
787.348	-10.24
787.529	-26.62
787.71	129.02
787.891	51.2
788.073	-38.91
788.254	-67.58
788.435	186.37
788.616	47.1
788.797	-51.2
788.978	26.62
789.159	-8.19
789.34	81.92
789.522	-22.53
789.703	-53.25
789.884	-8.19
790.065	57.34
790.246	172.03
790.427	8.19
790.607	51.2
790.788	32.77
790.969	-47.1
791.15	-10.24
791.331	-77.82
791.512	-32.77
791.693	-12.29
791.874	32.77
792.054	241.66
792.235	77.82
792.416	-6.14
792.597	-45.06
792.778	-4.1
792.958	47.1
793.139	20.48
793.32	-16.38
793.5	-100.35
793.681	24.58
793.862	69.63
794.042	-22.53
794.223	-55.3
794.404	0
794.584	-180.22
794.765	55.3
794.945	4.1
795.126	110.59
795.306	120.83
795.487	-14.34
795.667	-6.14
795.848	-6.14
796.028	-16.38
796.209	32.77
796.389	57.34
796.57	-40.96
796.75	-77.82
796.93	116.73
797.111	14.34
797.291	22.53
797.471	135.17
797.652	-43.01
797.832	-32.77
798.012	92.16
798.192	0
798.373	-137.21
798.553	16.38
798.733	92.16
798.913	-40.96
799.093	-43.01
799.274	2.05
799.454	49.15
799.634	57.34
799.814	28.67
799.994	106.49
800.174	98.3
800.354	34.82
800.534	-18.43
800.714	38.91
800.894	-32.77
801.074	-67.58
801.254	61.44
801.434	45.06
801.614	-8.19
801.794	-14.34
801.974	1695.72
802.154	-51.2
802.334	108.54
802.514	-34.82
802.693	2.05
802.873	-20.48
803.053	-24.58
803.233	75.77
803.413	47.1
803.592	45.06
803.772	-67.58
803.952	43.01
804.131	-49.15
804.311	22.53
804.491	131.07
804.67	-36.86
804.85	-75.77
805.03	96.25
805.209	65.54
805.389	38.91
805.568	14.34
805.748	-34.82
805.928	-51.2
806.107	-16.38
806.287	63.49
806.466	38.91
806.646	-38.91
806.825	-86.01
807.004	-36.86
807.184	38.91
807.363	14.34
807.543	71.68
807.722	-75.77
807.901	43.01
808.081	57.34
808.26	-133.12
808.439	-8.19
808.619	71.68
808.798	-12.29
808.977	-86.01
809.156	129.02
809.336	6.14
809.515	79.87
809.694	-104.45
809.873	-63.49
810.052	26.62
810.231	4.1
810.411	6.14
810.59	34.82
810.769	16.38
810.948	108.54
811.127	-96.25
811.306	-47.1
811.485	-6.14
811.664	67.58
811.843	4.1
812.022	-59.39
812.201	-8.19
812.38	-55.3
812.559	-47.1
812.737	16.38
812.916	-116.73
813.095	-79.87
813.274	20.48
813.453	-14.34
813.632	40.96
813.811	-16.38
813.989	-30.72
814.168	36.86
814.347	-53.25
814.526	-45.06
814.704	133.12
814.883	92.16
815.062	-22.53
815.24	73.73
815.419	-81.92
815.598	12.29
815.776	-116.73
815.955	-6.14
816.133	-194.56
816.312	-18.43
816.49	-57.34
816.669	28.67
816.847	-22.53
817.026	59.39
817.204	-53.25
817.383	-14.34
817.561	-81.92
817.74	59.39
817.918	28.67
818.097	-59.39
818.275	-90.11
818.453	14.34
818.632	43.01
818.81	-32.77
818.988	-73.73
819.167	-120.83
819.345	28.67
819.523	16.38
819.701	-2.05
819.879	45.06
820.058	-34.82
820.236	10.24
820.414	28.67
820.592	-79.87
820.77	-10.24
820.948	-65.53
821.127	-73.73
821.305	-2.05
821.483	-81.92
821.661	71.68
821.839	55.3
822.017	-159.74
822.195	-55.3
822.373	98.3
822.551	83.97
822.729	63.49
822.907	16.38
823.085	53.25
823.262	-36.86
823.44	-94.21
823.618	16.38
823.796	-47.1
823.974	-51.2
824.152	-22.53
824.329	-59.39
824.507	-40.96
824.685	77.82
824.863	40.96
825.04	-120.83
825.218	-12.29
825.396	-102.4
825.574	14.34
825.751	-63.49
825.929	-22.53
826.107	-108.54
826.284	-18.43
826.462	4.1
826.639	-55.3
826.817	-53.25
826.994	0
827.172	-129.02
827.349	122.88
827.527	2.05
827.704	43.01
827.882	45.06
828.059	40.96
828.237	-14.34
828.414	36.86
828.591	-114.69
828.769	-71.68
828.946	-73.73
829.124	24.58
829.301	88.06
829.478	-75.77
829.655	49.15
829.833	-24.58
830.01	-182.27
830.187	-43.01
830.364	-22.53
830.542	-24.58
830.719	20.48
830.896	51.2
831.073	-24.58
831.25	-26.62
831.427	14.34
831.604	-49.15
831.782	-30.72
831.959	-14.34
832.136	-49.15
832.313	26.62
832.49	-81.92
832.667	-77.82
832.844	-79.87
833.021	10.24
833.198	18.43
833.374	12.29
833.551	10.24
833.728	-4.1
833.905	79.87
834.082	-149.5
834.259	47.1
834.436	90.11
834.612	-110.59
834.789	61.44
834.966	14.34
835.143	92.16
835.319	-131.07
835.496	16.38
835.673	-16.38
835.85	-26.62
836.026	-6.14
836.203	100.35
836.38	-55.3
836.556	-18.43
836.733	-18.43
836.909	36.86
837.086	-45.06
837.262	-73.73
837.439	-40.96
837.616	-112.64
837.792	-49.15
837.968	16.38
838.145	-182.27
838.321	4.1
838.498	-6.14
838.674	114.69
838.851	36.86
839.027	-34.82
839.203	-38.91
839.38	-30.72
839.556	20.48
839.732	59.39
839.909	-20.48
840.085	-51.2
840.261	-55.3
840.437	-122.88
840.614	-36.86
840.79	83.97
840.966	49.15
841.142	-22.53
841.318	-6.14
841.494	22.53
841.671	10.24
841.847	-14.34
842.023	-100.35
842.199	40.96
842.375	71.68
842.551	-43.01
842.727	-67.58
842.903	92.16
843.079	-47.1
843.255	57.34
843.431	-77.82
843.607	6.14
843.783	-116.73
843.959	28.67
844.134	-75.77
844.31	100.35
844.486	-69.63
844.662	-73.73
844.838	16.38
845.013	-24.58
845.189	12.29
845.365	-14.34
845.541	-55.3
845.716	-14.34
845.892	24.58
846.068	-38.91
846.244	-92.16
846.419	18.43
846.595	-92.16
846.77	-22.53
846.946	73.73
847.122	-59.39
847.297	-16.38
847.473	59.39
847.648	-153.6
847.824	-28.67
847.999	-104.45
848.175	-63.49
848.35	10.24
848.526	92.16
848.701	55.3
848.876	18.43
849.052	10.24
849.227	-14.34
849.403	10.24
849.578	-36.86
849.753	61.44
849.929	59.39
850.104	-53.25
850.279	-4.1
850.454	-77.82
850.63	63.49
850.805	12.29
850.98	32.77
851.155	-47.1
851.33	-8.19
851.505	-36.86
851.681	98.3
851.856	-59.39
852.031	43.01
852.206	-110.59
852.381	-69.63
852.556	-36.86
852.731	51.2
852.906	40.96
853.081	73.73
853.256	135.17
853.431	2.05
853.606	-112.64
853.781	-43.01
853.956	30.72
854.131	-32.77
854.305	-53.25
854.48	-71.68
854.655	-94.21
854.83	-36.86
855.005	-43.01
855.18	45.06
855.354	-2.05
855.529	24.58
855.704	-57.34
855.879	4.1
856.053	-163.84
856.228	-2.05
856.403	-178.17
856.577	0
856.752	-159.74
856.926	-30.72
857.101	-20.48
857.276	-86.01
857.45	36.86
857.625	0
857.799	-57.34
857.974	-12.29
858.148	-102.4
858.323	49.15
858.497	2.05
858.672	-81.92
858.846	-36.86
859.02	59.39
859.195	-141.31
859.369	-45.06
859.543	4.1
859.718	32.77
859.892	-47.1
860.066	-47.1
860.241	-63.49
860.415	-61.44
860.589	-51.2
860.763	-36.86
860.938	-110.59
861.112	10.24
861.286	20.48
861.46	40.96
861.634	-28.67
861.808	63.49
861.982	-24.58
862.157	-215.04
862.331	-79.87
862.505	-182.27
862.679	-47.1
862.853	-129.02
863.027	-36.86
863.201	141.31
863.375	-49.15
863.549	-49.15
863.722	-8.19
863.896	73.73
864.07	-129.02
864.244	-16.38
864.418	36.86
864.592	-6.14
864.766	38.91
864.939	-53.25
865.113	-75.77
865.287	-30.72
865.461	-112.64
865.634	-10.24
865.808	-18.43
865.982	-43.01
866.156	-12.29
866.329	-100.35
866.503	-30.72
866.676	47.1
866.85	77.82
867.024	-73.73
867.197	108.54
867.371	-69.63
867.544	-28.67
867.718	-94.21
867.891	40.96
868.065	-110.59
868.238	-102.4
868.412	120.83
868.585	16.38
868.759	-90.11
868.932	-47.1
869.105	-30.72
869.279	-6.14
869.452	-135.17
869.625	30.72
869.799	-43.01
869.972	-71.68
870.145	-49.15
870.319	40.96
870.492	-30.72
870.665	-59.39
870.838	-34.82
871.011	-120.83
871.185	-86.01
871.358	-24.58
871.531	-4.1
871.704	-49.15
871.877	-108.54
872.05	-38.91
872.223	-75.77
872.396	98.3
872.569	-49.15
872.742	-149.5
872.915	18.43
873.088	-106.49
873.261	-49.15
873.434	8.19
873.607	-53.25
873.78	32.77
873.953	-69.63
874.126	-55.3
874.299	12.29
874.471	-63.49
874.644	-10.24
874.817	83.97
874.99	86.01
875.163	-43.01
875.335	63.49
875.508	-65.53
875.681	32.77
875.853	-57.34
876.026	-36.86
876.199	57.34
876.371	-67.58
876.544	-83.97
876.717	-43.01
876.889	34.82
877.062	92.16
877.234	-47.1
877.407	0
877.579	16.38
877.752	-24.58
877.924	8.19
878.097	-61.44
878.269	14.34
878.442	63.49
878.614	-51.2
878.786	-10.24
878.959	49.15
879.131	-45.06
879.303	-94.21
879.476	6.14
879.648	47.1
879.82	-36.86
879.993	-59.39
880.165	6.14
880.337	-65.53
880.509	-10.24
880.681	-65.53
880.854	-47.1
881.026	-22.53
881.198	86.01
881.37	0
881.542	-6.14
881.714	-6.14
881.886	-92.16
882.058	22.53
882.23	-14.34
882.402	-4.1
882.574	53.25
882.746	122.88
882.918	20.48
883.09	18.43
883.262	-65.53
883.434	34.82
883.606	-131.07
883.778	-51.2
883.95	34.82
884.122	-94.21
884.293	10.24
884.465	-6.14
884.637	63.49
884.809	-16.38
884.98	-45.06
885.152	-92.16
885.324	-77.82
885.496	-18.43
885.667	-69.63
885.839	-71.68
886.011	133.12
886.182	47.1
886.354	30.72
886.525	71.68
886.697	-8.19
886.869	-104.45
887.04	4.1
887.212	43.01
887.383	63.49
887.555	53.25
887.726	-45.06
887.897	-122.88
888.069	-26.62
888.24	53.25
888.412	-81.92
888.583	-92.16
888.754	-45.06
888.926	-96.25
889.097	-6.14
889.268	-133.12
889.44	-55.3
889.611	-88.06
889.782	-92.16
889.953	-71.68
890.125	-14.34
890.296	-47.1
890.467	-49.15
890.638	-51.2
890.809	-14.34
890.98	-36.86
891.151	57.34
891.323	92.16
891.494	-10.24
891.665	-73.73
891.836	-20.48
892.007	-102.4
892.178	-10.24
892.349	26.62
892.52	-43.01
892.691	2.05
892.862	0
893.032	-55.3
893.203	57.34
893.374	-59.39
893.545	122.88
893.716	-108.54
893.887	45.06
894.057	-67.58
894.228	-73.73
894.399	-143.36
894.57	-8.19
894.74	-40.96
894.911	-30.72
895.082	20.48
895.253	-32.77
895.423	-16.38
895.594	22.53
895.764	88.06
895.935	-102.4
896.106	38.91
896.276	-141.31
896.447	-26.62
896.617	-147.45
896.788	-104.45
896.958	-2.05
897.129	24.58
897.299	-96.25
897.47	51.2
897.64	-73.73
897.81	-106.49
897.981	-75.77
898.151	-73.73
898.322	-18.43
898.492	-73.73
898.662	-40.96
898.832	-96.25
899.003	-88.06
899.173	-20.48
899.343	-57.34
899.513	-153.6
