Data from USB4F104151__199__11-05-31-030.txt Node

Date: Wed Feb 26 11:05:31 EST 2025
User: louis
Spectrometer: USB4F10415
Trigger mode: 4
Integration Time (sec): 1.000000E-1
Scans to average: 1
Electric dark correction enabled: true
Nonlinearity correction enabled: false
Boxcar width: 0
XAxis mode: Wavelengths
Number of Pixels in Spectrum: 3648
>>>>>Begin Spectral Data<<<<<
178.204	-338.43
178.424	-338.43
178.644	-338.43
178.864	-309.76
179.084	-385.53
179.304	17.92
179.524	7.68
179.744	-51.71
179.964	48.64
180.184	36.35
180.404	24.06
180.624	-20.99
180.844	-16.9
181.064	-98.81
181.283	24.06
181.503	-41.47
181.723	71.17
181.943	-10.75
182.163	194.05
182.383	56.83
182.602	155.13
182.822	196.09
183.042	46.59
183.262	-25.09
183.482	91.65
183.701	-37.38
183.921	101.89
184.141	-14.85
184.361	138.75
184.58	91.65
184.8	46.59
185.02	81.41
185.239	130.56
185.459	134.65
185.679	146.94
185.898	-109.05
186.118	7.68
186.338	105.98
186.557	232.96
186.777	13.82
186.997	97.79
187.216	87.55
187.436	206.33
187.655	103.93
187.875	157.18
188.095	120.32
188.314	192
188.534	50.69
188.753	24.06
188.973	159.23
189.192	185.85
189.412	15.87
189.631	42.5
189.851	89.6
190.07	232.96
190.29	3.58
190.509	42.5
190.729	103.93
190.948	187.9
191.168	220.67
191.387	83.45
191.607	67.07
191.826	99.84
192.045	50.69
192.265	112.13
192.484	85.5
192.704	54.78
192.923	-27.14
193.142	140.8
193.362	169.47
193.581	185.85
193.8	54.78
194.02	148.99
194.239	89.6
194.458	146.94
194.678	71.17
194.897	32.26
195.116	153.09
195.335	62.98
195.555	134.65
195.774	60.93
195.993	132.61
196.212	32.26
196.432	50.69
196.651	85.5
196.87	108.03
197.089	302.59
197.308	120.32
197.528	85.5
197.747	-43.52
197.966	24.06
198.185	222.72
198.404	-59.9
198.623	138.75
198.842	148.99
199.062	155.13
199.281	93.69
199.5	36.35
199.719	163.33
199.938	124.41
200.157	187.9
200.376	175.61
200.595	140.8
200.814	118.27
201.033	9.73
201.252	226.81
201.471	89.6
201.69	108.03
201.909	116.22
202.128	163.33
202.347	112.13
202.566	62.98
202.785	-12.8
203.004	-57.86
203.223	280.06
203.442	60.93
203.661	60.93
203.879	75.26
204.098	140.8
204.317	19.97
204.536	93.69
204.755	163.33
204.974	36.35
205.193	3.58
205.411	171.52
205.63	134.65
205.849	105.98
206.068	44.54
206.287	19.97
206.505	169.47
206.724	48.64
206.943	110.08
207.162	48.64
207.381	50.69
207.599	60.93
207.818	99.84
208.037	-20.99
208.255	67.07
208.474	103.93
208.693	126.46
208.911	30.21
209.13	142.85
209.349	194.05
209.567	169.47
209.786	142.85
210.005	110.08
210.223	7.68
210.442	-90.62
210.661	32.26
210.879	103.93
211.098	9.73
211.316	60.93
211.535	116.22
211.753	122.37
211.972	204.28
212.191	34.3
212.409	73.21
212.628	105.98
212.846	26.11
213.065	77.31
213.283	108.03
213.502	130.56
213.72	46.59
213.938	134.65
214.157	44.54
214.375	169.47
214.594	105.98
214.812	112.13
215.031	13.82
215.249	71.17
215.467	19.97
215.686	87.55
215.904	116.22
216.122	69.12
216.341	136.7
216.559	130.56
216.778	83.45
216.996	161.28
217.214	34.3
217.432	22.02
217.651	-23.04
217.869	62.98
218.087	19.97
218.306	44.54
218.524	65.02
218.742	38.4
218.96	112.13
219.179	69.12
219.397	122.37
219.615	267.77
219.833	105.98
220.051	30.21
220.27	112.13
220.488	151.04
220.706	46.59
220.924	32.26
221.142	-0.51
221.36	134.65
221.578	142.85
221.796	50.69
222.015	65.02
222.233	71.17
222.451	251.39
222.669	-37.38
222.887	128.51
223.105	-12.8
223.323	50.69
223.541	36.35
223.759	50.69
223.977	65.02
224.195	198.14
224.413	85.5
224.631	67.07
224.849	93.69
225.067	214.52
225.285	22.02
225.503	32.26
225.721	-20.99
225.939	105.98
226.157	148.99
226.375	271.87
226.592	-6.66
226.81	87.55
227.028	157.18
227.246	171.52
227.464	91.65
227.682	163.33
227.9	206.33
228.117	38.4
228.335	103.93
228.553	114.17
228.771	112.13
228.989	105.98
229.206	120.32
229.424	24.06
229.642	81.41
229.86	46.59
230.077	241.15
230.295	58.88
230.513	136.7
230.731	95.74
230.948	140.8
231.166	185.85
231.384	103.93
231.601	24.06
231.819	226.81
232.037	-25.09
232.254	-45.57
232.472	3.58
232.689	30.21
232.907	132.61
233.125	50.69
233.342	73.21
233.56	36.35
233.777	42.5
233.995	138.75
234.213	97.79
234.43	159.23
234.648	99.84
234.865	48.64
235.083	34.3
235.3	93.69
235.518	105.98
235.735	163.33
235.953	144.89
236.17	81.41
236.388	101.89
236.605	142.85
236.822	144.89
237.04	101.89
237.257	118.27
237.475	17.92
237.692	85.5
237.909	185.85
238.127	93.69
238.344	85.5
238.562	126.46
238.779	28.16
238.996	52.74
239.214	60.93
239.431	124.41
239.648	-0.51
239.865	198.14
240.083	32.26
240.3	54.78
240.517	42.5
240.735	65.02
240.952	161.28
241.169	120.32
241.386	81.41
241.603	11.78
241.821	-2.56
242.038	101.89
242.255	83.45
242.472	-20.99
242.689	110.08
242.907	140.8
243.124	22.02
243.341	75.26
243.558	1.54
243.775	-29.18
243.992	40.45
244.209	130.56
244.426	167.42
244.643	83.45
244.86	48.64
245.078	151.04
245.295	128.51
245.512	44.54
245.729	120.32
245.946	87.55
246.163	85.5
246.38	56.83
246.597	169.47
246.814	97.79
247.031	110.08
247.248	75.26
247.464	89.6
247.681	44.54
247.898	118.27
248.115	120.32
248.332	-27.14
248.549	210.43
248.766	167.42
248.983	97.79
249.2	126.46
249.417	177.66
249.633	34.3
249.85	95.74
250.067	5.63
250.284	75.26
250.501	151.04
250.717	87.55
250.934	32.26
251.151	13.82
251.368	105.98
251.585	58.88
251.801	148.99
252.018	28.16
252.235	165.37
252.451	48.64
252.668	71.17
252.885	126.46
253.102	77.31
253.318	95.74
253.535	7.68
253.752	79.36
253.968	-20.99
254.185	7.68
254.401	116.22
254.618	87.55
254.835	1.54
255.051	124.41
255.268	128.51
255.484	155.13
255.701	38.4
255.917	93.69
256.134	9.73
256.351	89.6
256.567	24.06
256.784	105.98
257	-64
257.217	175.61
257.433	71.17
257.65	79.36
257.866	159.23
258.082	24.06
258.299	75.26
258.515	60.93
258.732	32.26
258.948	19.97
259.165	99.84
259.381	-4.61
259.597	108.03
259.814	58.88
260.03	46.59
260.246	24.06
260.463	198.14
260.679	192
260.895	87.55
261.112	71.17
261.328	77.31
261.544	19.97
261.761	235
261.977	48.64
262.193	-0.51
262.409	204.28
262.626	114.17
262.842	75.26
263.058	42.5
263.274	136.7
263.49	93.69
263.707	159.23
263.923	108.03
264.139	22.02
264.355	159.23
264.571	54.78
264.787	87.55
265.004	130.56
265.22	48.64
265.436	28.16
265.652	54.78
265.868	136.7
266.084	-41.47
266.3	65.02
266.516	-25.09
266.732	118.27
266.948	83.45
267.164	38.4
267.38	118.27
267.596	52.74
267.812	224.76
268.028	93.69
268.244	-8.7
268.46	99.84
268.676	114.17
268.892	56.83
269.108	34.3
269.324	50.69
269.54	11.78
269.756	124.41
269.972	-16.9
270.188	75.26
270.403	13.82
270.619	54.78
270.835	85.5
271.051	67.07
271.267	50.69
271.483	81.41
271.698	146.94
271.914	140.8
272.13	32.26
272.346	-16.9
272.562	114.17
272.777	228.86
272.993	46.59
273.209	-39.42
273.425	91.65
273.64	99.84
273.856	65.02
274.072	9.73
274.287	85.5
274.503	83.45
274.719	128.51
274.934	83.45
275.15	15.87
275.366	54.78
275.581	38.4
275.797	32.26
276.012	89.6
276.228	77.31
276.444	7.68
276.659	169.47
276.875	9.73
277.09	36.35
277.306	13.82
277.521	142.85
277.737	91.65
277.952	85.5
278.168	48.64
278.383	97.79
278.599	161.28
278.814	73.21
279.03	-10.75
279.245	159.23
279.461	95.74
279.676	157.18
279.892	15.87
280.107	1.54
280.322	7.68
280.538	69.12
280.753	56.83
280.969	65.02
281.184	44.54
281.399	222.72
281.615	34.3
281.83	58.88
282.045	-74.24
282.26	-6.66
282.476	62.98
282.691	165.37
282.906	60.93
283.122	110.08
283.337	-20.99
283.552	130.56
283.767	99.84
283.983	112.13
284.198	181.76
284.413	132.61
284.628	-39.42
284.843	54.78
285.058	140.8
285.274	95.74
285.489	19.97
285.704	177.66
285.919	44.54
286.134	112.13
286.349	50.69
286.564	89.6
286.779	116.22
286.995	-47.62
287.21	-4.61
287.425	163.33
287.64	24.06
287.855	128.51
288.07	13.82
288.285	171.52
288.5	173.57
288.715	116.22
288.93	46.59
289.145	73.21
289.36	91.65
289.575	46.59
289.79	116.22
290.004	79.36
290.219	126.46
290.434	3.58
290.649	-57.86
290.864	19.97
291.079	34.3
291.294	65.02
291.509	73.21
291.724	46.59
291.938	58.88
292.153	206.33
292.368	214.52
292.583	112.13
292.798	110.08
293.012	101.89
293.227	177.66
293.442	77.31
293.657	105.98
293.871	181.76
294.086	89.6
294.301	155.13
294.516	81.41
294.73	52.74
294.945	-49.66
295.16	42.5
295.374	128.51
295.589	97.79
295.804	52.74
296.018	62.98
296.233	89.6
296.447	30.21
296.662	79.36
296.877	95.74
297.091	110.08
297.306	11.78
297.52	32.26
297.735	91.65
297.949	22.02
298.164	-20.99
298.378	118.27
298.593	-64
298.807	38.4
299.022	144.89
299.236	189.95
299.451	22.02
299.665	5.63
299.88	-20.99
300.094	60.93
300.309	-33.28
300.523	126.46
300.737	101.89
300.952	56.83
301.166	130.56
301.381	-14.85
301.595	79.36
301.809	83.45
302.024	52.74
302.238	-2.56
302.452	134.65
302.667	69.12
302.881	56.83
303.095	136.7
303.309	93.69
303.524	-25.09
303.738	48.64
303.952	28.16
304.166	144.89
304.381	-135.68
304.595	187.9
304.809	56.83
305.023	46.59
305.237	-12.8
305.452	69.12
305.666	122.37
305.88	103.93
306.094	130.56
306.308	34.3
306.522	151.04
306.736	60.93
306.95	116.22
307.164	40.45
307.379	69.12
307.593	183.81
307.807	171.52
308.021	114.17
308.235	134.65
308.449	-20.99
308.663	93.69
308.877	165.37
309.091	38.4
309.305	165.37
309.519	-100.86
309.733	130.56
309.947	-31.23
310.161	83.45
310.374	116.22
310.588	206.33
310.802	50.69
311.016	7.68
311.23	128.51
311.444	11.78
311.658	60.93
311.872	103.93
312.085	148.99
312.299	110.08
312.513	177.66
312.727	83.45
312.941	26.11
313.154	56.83
313.368	73.21
313.582	151.04
313.796	56.83
314.009	69.12
314.223	153.09
314.437	85.5
314.651	148.99
314.864	-4.61
315.078	48.64
315.292	-47.62
315.505	-20.99
315.719	140.8
315.933	77.31
316.146	52.74
316.36	54.78
316.573	167.42
316.787	101.89
317.001	69.12
317.214	62.98
317.428	157.18
317.641	40.45
317.855	56.83
318.068	130.56
318.282	177.66
318.495	269.82
318.709	122.37
318.922	91.65
319.136	153.09
319.349	179.71
319.563	118.27
319.776	110.08
319.99	-6.66
320.203	148.99
320.417	67.07
320.63	103.93
320.843	208.38
321.057	105.98
321.27	40.45
321.483	128.51
321.697	214.52
321.91	101.89
322.124	93.69
322.337	30.21
322.55	-18.94
322.763	99.84
322.977	75.26
323.19	-18.94
323.403	19.97
323.617	73.21
323.83	192
324.043	110.08
324.256	40.45
324.469	15.87
324.683	148.99
324.896	48.64
325.109	105.98
325.322	40.45
325.535	124.41
325.748	46.59
325.962	58.88
326.175	44.54
326.388	103.93
326.601	140.8
326.814	50.69
327.027	26.11
327.24	153.09
327.453	-61.95
327.666	42.5
327.879	206.33
328.092	122.37
328.305	136.7
328.518	58.88
328.731	89.6
328.944	-14.85
329.157	136.7
329.37	44.54
329.583	239.1
329.796	105.98
330.009	-57.86
330.222	108.03
330.435	155.13
330.648	85.5
330.861	112.13
331.073	46.59
331.286	144.89
331.499	87.55
331.712	-51.71
331.925	52.74
332.138	69.12
332.35	159.23
332.563	-45.57
332.776	153.09
332.989	-23.04
333.202	77.31
333.414	95.74
333.627	140.8
333.84	69.12
334.053	153.09
334.265	46.59
334.478	73.21
334.691	40.45
334.903	65.02
335.116	24.06
335.329	40.45
335.541	108.03
335.754	194.05
335.966	52.74
336.179	93.69
336.392	11.78
336.604	75.26
336.817	124.41
337.029	179.71
337.242	120.32
337.454	142.85
337.667	114.17
337.88	261.63
338.092	105.98
338.305	101.89
338.517	97.79
338.729	171.52
338.942	161.28
339.154	-4.61
339.367	71.17
339.579	118.27
339.792	-6.66
340.004	138.75
340.217	32.26
340.429	99.84
340.641	-41.47
340.854	89.6
341.066	26.11
341.278	142.85
341.491	206.33
341.703	19.97
341.915	124.41
342.128	101.89
342.34	52.74
342.552	65.02
342.764	142.85
342.977	122.37
343.189	181.76
343.401	103.93
343.613	22.02
343.826	108.03
344.038	-16.9
344.25	126.46
344.462	-53.76
344.674	83.45
344.886	13.82
345.099	71.17
345.311	118.27
345.523	50.69
345.735	9.73
345.947	32.26
346.159	146.94
346.371	126.46
346.583	136.7
346.795	142.85
347.007	71.17
347.219	114.17
347.431	67.07
347.643	146.94
347.855	132.61
348.067	196.09
348.279	-6.66
348.491	153.09
348.703	40.45
348.915	56.83
349.127	-8.7
349.339	48.64
349.551	103.93
349.763	99.84
349.975	71.17
350.187	122.37
350.399	153.09
350.61	40.45
350.822	5.63
351.034	62.98
351.246	157.18
351.458	73.21
351.669	196.09
351.881	91.65
352.093	142.85
352.305	255.48
352.517	134.65
352.728	179.71
352.94	38.4
353.152	112.13
353.363	22.02
353.575	161.28
353.787	237.05
353.999	19.97
354.21	257.53
354.422	17.92
354.633	1.54
354.845	60.93
355.057	112.13
355.268	120.32
355.48	136.7
355.692	24.06
355.903	85.5
356.115	95.74
356.326	15.87
356.538	179.71
356.749	120.32
356.961	155.13
357.172	118.27
357.384	32.26
357.595	273.92
357.807	15.87
358.018	44.54
358.23	9.73
358.441	218.62
358.653	67.07
358.864	62.98
359.075	95.74
359.287	65.02
359.498	179.71
359.709	159.23
359.921	120.32
360.132	128.51
360.344	58.88
360.555	-6.66
360.766	99.84
360.977	22.02
361.189	101.89
361.4	11.78
361.611	93.69
361.823	216.57
362.034	22.02
362.245	-39.42
362.456	101.89
362.667	65.02
362.879	1.54
363.09	52.74
363.301	110.08
363.512	24.06
363.723	75.26
363.935	17.92
364.146	101.89
364.357	46.59
364.568	56.83
364.779	-45.57
364.99	208.38
365.201	-14.85
365.412	157.18
365.623	-12.8
365.834	116.22
366.045	54.78
366.256	144.89
366.467	62.98
366.678	44.54
366.889	112.13
367.1	32.26
367.311	108.03
367.522	26.11
367.733	177.66
367.944	126.46
368.155	5.63
368.366	85.5
368.577	120.32
368.788	105.98
368.999	28.16
369.209	62.98
369.42	192
369.631	288.25
369.842	99.84
370.053	-6.66
370.264	91.65
370.474	-61.95
370.685	93.69
370.896	183.81
371.107	126.46
371.317	103.93
371.528	73.21
371.739	163.33
371.95	128.51
372.16	89.6
372.371	-49.66
372.582	77.31
372.792	50.69
373.003	85.5
373.214	148.99
373.424	65.02
373.635	-29.18
373.846	155.13
374.056	52.74
374.267	134.65
374.477	103.93
374.688	38.4
374.898	130.56
375.109	173.57
375.319	22.02
375.53	89.6
375.74	163.33
375.951	5.63
376.161	67.07
376.372	148.99
376.582	26.11
376.793	73.21
377.003	48.64
377.214	48.64
377.424	67.07
377.635	75.26
377.845	-14.85
378.055	97.79
378.266	-0.51
378.476	134.65
378.686	79.36
378.897	79.36
379.107	126.46
379.317	151.04
379.528	15.87
379.738	60.93
379.948	24.06
380.158	136.7
380.369	120.32
380.579	67.07
380.789	15.87
380.999	134.65
381.21	183.81
381.42	214.52
381.63	108.03
381.84	118.27
382.05	71.17
382.261	110.08
382.471	151.04
382.681	-39.42
382.891	95.74
383.101	95.74
383.311	69.12
383.521	-10.75
383.731	56.83
383.941	138.75
384.151	118.27
384.361	52.74
384.571	112.13
384.781	130.56
384.991	185.85
385.201	181.76
385.411	44.54
385.621	142.85
385.831	81.41
386.041	128.51
386.251	62.98
386.461	165.37
386.671	71.17
386.881	48.64
387.091	95.74
387.301	136.7
387.511	48.64
387.72	77.31
387.93	132.61
388.14	13.82
388.35	112.13
388.56	155.13
388.769	91.65
388.979	-27.14
389.189	48.64
389.399	77.31
389.609	157.18
389.818	132.61
390.028	73.21
390.238	122.37
390.447	85.5
390.657	136.7
390.867	19.97
391.076	-8.7
391.286	75.26
391.496	-18.94
391.705	67.07
391.915	175.61
392.125	155.13
392.334	1.54
392.544	253.44
392.753	32.26
392.963	28.16
393.172	69.12
393.382	-49.66
393.591	222.72
393.801	28.16
394.01	183.81
394.22	132.61
394.429	54.78
394.639	87.55
394.848	177.66
395.058	142.85
395.267	7.68
395.477	159.23
395.686	48.64
395.895	239.1
396.105	245.24
396.314	134.65
396.524	171.52
396.733	62.98
396.942	132.61
397.152	93.69
397.361	126.46
397.57	91.65
397.78	54.78
397.989	177.66
398.198	259.58
398.407	73.21
398.617	130.56
398.826	67.07
399.035	44.54
399.244	169.47
399.453	142.85
399.663	122.37
399.872	91.65
400.081	50.69
400.29	167.42
400.499	50.69
400.708	167.42
400.917	65.02
401.127	65.02
401.336	46.59
401.545	214.52
401.754	146.94
401.963	198.14
402.172	75.26
402.381	-14.85
402.59	124.41
402.799	3.58
403.008	157.18
403.217	122.37
403.426	161.28
403.635	-14.85
403.844	69.12
404.053	69.12
404.262	142.85
404.471	220.67
404.68	87.55
404.888	-35.33
405.097	46.59
405.306	130.56
405.515	192
405.724	48.64
405.933	69.12
406.142	142.85
406.35	60.93
406.559	122.37
406.768	50.69
406.977	196.09
407.185	153.09
407.394	161.28
407.603	54.78
407.812	87.55
408.02	220.67
408.229	103.93
408.438	46.59
408.646	-37.38
408.855	62.98
409.064	153.09
409.272	118.27
409.481	185.85
409.69	101.89
409.898	-6.66
410.107	75.26
410.315	44.54
410.524	42.5
410.733	114.17
410.941	56.83
411.15	69.12
411.358	130.56
411.567	185.85
411.775	114.17
411.984	148.99
412.192	153.09
412.401	77.31
412.609	222.72
412.818	151.04
413.026	144.89
413.234	60.93
413.443	62.98
413.651	60.93
413.86	122.37
414.068	140.8
414.276	206.33
414.485	83.45
414.693	243.2
414.901	208.38
415.11	120.32
415.318	108.03
415.526	19.97
415.734	196.09
415.943	105.98
416.151	151.04
416.359	87.55
416.567	101.89
416.776	108.03
416.984	130.56
417.192	192
417.4	85.5
417.608	3.58
417.817	19.97
418.025	153.09
418.233	235
418.441	62.98
418.649	-8.7
418.857	130.56
419.065	161.28
419.273	144.89
419.481	11.78
419.689	112.13
419.897	79.36
420.105	-109.05
420.313	148.99
420.521	247.29
420.729	157.18
420.937	17.92
421.145	95.74
421.353	108.03
421.561	146.94
421.769	101.89
421.977	-16.9
422.185	210.43
422.393	112.13
422.601	253.44
422.809	153.09
423.017	142.85
423.224	130.56
423.432	187.9
423.64	112.13
423.848	196.09
424.056	38.4
424.263	81.41
424.471	65.02
424.679	189.95
424.887	83.45
425.094	185.85
425.302	132.61
425.51	56.83
425.718	140.8
425.925	159.23
426.133	5.63
426.341	269.82
426.548	-4.61
426.756	81.41
426.964	122.37
427.171	77.31
427.379	157.18
427.586	67.07
427.794	161.28
428.001	220.67
428.209	128.51
428.417	189.95
428.624	151.04
428.832	118.27
429.039	148.99
429.247	163.33
429.454	228.86
429.662	200.19
429.869	206.33
430.076	142.85
430.284	235
430.491	251.39
430.699	159.23
430.906	253.44
431.114	157.18
431.321	81.41
431.528	171.52
431.736	232.96
431.943	185.85
432.15	239.1
432.358	159.23
432.565	374.27
432.772	48.64
432.979	232.96
433.187	153.09
433.394	314.88
433.601	153.09
433.808	259.58
434.016	353.79
434.223	292.35
434.43	253.44
434.637	331.26
434.844	239.1
435.052	230.91
435.259	310.78
435.466	357.88
435.673	257.53
435.88	366.07
436.087	308.73
436.294	447.99
436.501	364.03
436.708	335.35
436.915	421.37
437.122	441.85
437.329	237.05
437.537	327.16
437.743	402.94
437.95	507.38
438.157	398.84
438.364	486.9
438.571	366.07
438.778	558.58
438.985	599.54
439.192	529.91
439.399	441.85
439.606	589.3
439.813	611.83
440.02	673.27
440.227	773.62
440.433	663.03
440.64	531.96
440.847	675.32
441.054	652.79
441.261	757.24
441.467	673.27
441.674	691.7
441.881	867.83
442.088	703.99
442.294	835.06
442.501	890.35
442.708	792.05
442.914	796.15
443.121	949.75
443.328	968.18
443.534	1093.1
443.741	935.41
443.948	949.75
444.154	1068.53
444.361	1193.45
444.568	1132.01
444.774	1111.54
444.981	1101.3
445.187	1312.24
445.394	1271.28
445.6	1228.27
445.807	1455.59
446.013	1381.87
446.22	1402.35
446.426	1398.25
446.633	1601
446.839	1791.46
447.046	1517.03
447.252	1850.85
447.459	1801.7
447.665	1740.26
447.871	1977.83
448.078	2168.29
448.284	1996.26
448.491	2180.57
448.697	2260.45
448.903	2330.08
449.11	2356.7
449.316	2293.21
449.522	2422.24
449.728	2555.35
449.935	2794.97
450.141	2692.57
450.347	2997.71
450.553	2903.51
450.76	3083.73
450.966	3124.69
451.172	3225.04
451.378	3476.94
451.584	3648.97
451.791	3892.68
451.997	3802.57
452.203	3853.77
452.409	4228.54
452.615	4165.06
452.821	4228.54
453.027	4150.72
453.233	4670.9
453.44	4502.97
453.646	4799.93
453.852	4994.48
454.058	5168.56
454.264	5346.73
454.47	5569.96
454.676	5676.46
454.882	6292.9
455.088	5793.19
455.294	6198.69
455.5	6700.44
455.705	6993.3
455.911	6985.11
456.117	7079.32
456.323	7507.34
456.529	7486.86
456.735	8312.19
456.941	8420.74
457.147	8664.44
457.352	8953.21
457.558	9266.55
457.764	9655.66
457.97	10098.02
458.176	10362.21
458.381	10968.41
458.587	11064.66
458.793	11511.12
458.999	11771.21
459.204	12842.3
459.41	13616.43
459.616	13231.41
459.821	14069.03
460.027	14775.58
460.233	15371.54
460.438	15779.09
460.644	16291.08
460.85	16659.71
461.055	16975.1
461.261	18218.22
461.466	17644.79
461.672	17960.17
461.878	20098.25
462.083	19997.9
462.289	20227.28
462.494	21099.71
462.7	21128.38
462.905	21589.17
463.111	23282.84
463.316	24231.05
463.522	24816.77
463.727	25480.32
463.932	26559.59
464.138	27554.91
464.343	28453.97
464.549	28806.22
464.754	30692.4
464.959	31380.51
465.165	32111.64
465.37	31894.55
465.575	31472.67
465.781	33881.08
465.986	35204.07
466.191	34290.68
466.397	34350.07
466.602	33764.35
466.807	35738.59
467.012	36344.79
467.218	36983.76
467.423	37139.4
467.628	38298.55
467.833	40137.63
468.038	39363.5
468.244	38501.3
468.449	40625.04
468.654	39926.69
468.859	39768.99
469.064	39588.77
469.269	38740.91
469.474	38876.08
469.679	40035.23
469.885	39056.3
470.09	39498.66
470.295	39914.4
470.5	38464.44
470.705	39017.39
470.91	38069.18
471.115	37372.87
471.32	38777.78
471.525	37804.99
471.73	36688.85
471.935	36715.47
472.139	35126.25
472.344	35417.06
472.549	35259.37
472.754	34350.07
472.959	33563.65
473.164	32615.44
473.369	32298
473.574	33068.04
473.778	32345.11
473.983	31984.66
474.188	30972.97
474.393	29471.81
474.598	29432.89
474.802	29107.27
475.007	28585.04
475.212	28333.14
475.417	27194.47
475.621	27104.35
475.826	26754.15
476.031	25764.98
476.235	25541.75
476.44	25343.1
476.645	24525.96
476.849	24626.31
477.054	24231.05
477.259	23579.8
477.463	23540.89
477.668	22641.83
477.872	22901.92
478.077	21925.04
478.282	21367.99
478.486	21531.83
478.691	21116.09
478.895	21109.95
479.1	21028.03
479.304	20513.99
479.509	19813.59
479.713	20354.25
479.918	19690.71
480.122	19231.96
480.326	19604.69
480.531	19596.5
480.735	19195.1
480.94	19096.8
481.144	19541.21
481.348	18611.43
481.553	18593
481.757	18377.96
481.961	18277.61
482.166	18386.15
482.37	18181.35
482.574	17683.7
482.778	17872.11
482.983	18058.48
483.187	17804.53
483.391	17454.33
483.595	17050.88
483.8	17052.92
484.004	17034.49
484.208	17036.54
484.412	16968.96
484.616	16641.28
484.821	16645.38
485.025	15832.33
485.229	15983.88
485.433	15668.5
485.637	15426.84
485.841	15324.44
486.045	15101.21
486.249	14964
486.453	14492.96
486.657	14544.16
486.861	14361.89
487.065	14001.45
487.269	13937.96
487.473	13511.99
487.677	13686.06
487.881	13497.65
488.085	12934.46
488.289	13004.09
488.493	12670.27
488.697	12768.57
488.901	12328.26
489.105	11996.49
489.309	11941.19
489.512	11758.92
489.716	11517.26
489.92	11187.54
490.124	11298.13
490.328	11130.2
490.531	10743.13
490.735	10456.42
490.939	10382.69
491.143	10079.59
491.346	9713
491.55	9952.62
491.754	9688.43
491.958	9344.37
492.161	9366.9
492.365	9266.55
492.569	9135.48
492.772	8811.9
492.976	9172.34
493.18	8752.51
493.383	8838.52
493.587	8607.1
493.79	8451.46
493.994	8197.51
494.197	8217.99
494.401	8158.6
494.605	8158.6
494.808	7974.28
495.012	7955.85
495.215	8013.19
495.419	8043.91
495.622	7724.43
495.825	7859.59
496.029	7773.58
496.232	7945.61
496.436	7708.04
496.639	7775.63
496.843	7605.64
497.046	7812.49
497.249	7863.69
497.453	7705.99
497.656	7658.89
497.859	7798.15
498.063	7562.64
498.266	7761.29
498.469	7630.22
498.673	7792.01
498.876	7705.99
499.079	7871.88
499.282	7859.59
499.485	8324.48
499.689	8054.15
499.892	8187.27
500.095	7906.7
500.298	8220.03
500.501	8222.08
500.705	8385.92
500.908	8332.67
501.111	8633.72
501.314	8828.28
501.517	8547.71
501.72	8686.97
501.923	8705.4
502.126	8914.3
502.329	9319.79
502.532	9311.6
502.735	9076.09
502.938	9209.2
503.141	9256.31
503.344	9436.53
503.547	9592.17
503.75	9839.98
503.953	9848.17
504.156	9966.95
504.359	10104.17
504.562	10196.32
504.765	10552.67
504.968	10429.79
505.17	10775.9
505.373	10947.93
505.576	11175.25
505.779	11361.62
505.982	11378
506.185	11539.79
506.387	11840.84
506.59	12105.03
506.793	12408.13
506.996	12467.52
507.198	13036.86
507.401	12889.4
507.604	13280.57
507.807	13616.43
508.009	13694.26
508.212	14042.41
508.415	14331.17
508.617	14527.78
508.82	14912.8
509.022	14736.67
509.225	15506.71
509.428	15652.11
509.63	16110.86
509.833	16219.4
510.035	16813.31
510.238	17118.46
510.44	17607.92
510.643	17833.2
510.845	18273.51
511.048	18455.78
511.25	18871.52
511.453	19438.81
511.655	20395.21
511.858	20272.33
512.06	20710.6
512.262	21189.82
512.465	21472.44
512.667	21890.23
512.87	22477.99
513.072	23002.27
513.274	23889.04
513.477	24196.24
513.679	24880.26
513.881	25371.77
514.084	25894
514.286	26156.14
514.488	26938.47
514.69	27845.72
514.893	28148.82
515.095	28832.84
515.297	28955.72
515.499	29772.86
515.701	30577.71
515.904	31050.79
516.106	31796.25
516.308	32267.28
516.51	32916.49
516.712	33661.95
516.914	34272.25
517.116	35304.42
517.318	35212.26
517.52	36240.34
517.722	36856.78
517.925	37526.47
518.127	38216.63
518.329	39429.03
518.531	38804.4
518.733	40383.38
518.935	40604.56
519.136	41405.32
519.338	41964.42
519.54	42535.8
519.742	43035.5
519.944	43342.7
520.146	44495.71
520.348	45314.89
520.55	45470.54
520.752	45917
520.954	47041.33
521.155	46736.18
521.357	47837.99
521.559	48452.38
521.761	48788.25
521.963	48800.54
522.164	49283.86
522.366	50129.67
522.568	50666.23
522.77	50615.04
522.971	51653.36
523.173	51254
523.375	52095.72
523.576	51772.14
523.778	51739.37
523.98	52548.32
524.181	52683.48
524.383	53269.2
524.584	53725.9
524.786	53310.16
524.988	53359.31
525.189	53785.29
525.391	53885.64
525.592	54035.14
525.794	54006.47
525.995	53736.14
526.197	53650.13
526.398	53865.16
526.6	53711.56
526.801	53410.51
527.003	53035.73
527.204	53146.33
527.406	53535.44
527.607	52490.98
527.808	52402.91
528.01	51540.72
528.211	52042.47
528.412	52134.63
528.614	51372.78
528.815	51225.33
529.016	51167.99
529.218	50014.98
529.419	49902.34
529.62	49664.78
529.822	49013.52
530.023	49101.59
530.224	48462.62
530.425	47817.51
530.626	46846.77
530.828	46582.59
531.029	47182.64
531.23	45679.43
531.431	45609.8
531.632	45034.32
531.833	44620.63
532.035	44149.6
532.236	43410.28
532.437	43264.88
532.638	42140.54
532.839	42036.09
533.04	41477
533.241	40696.72
533.442	40674.2
533.643	39609.25
533.844	39254.95
534.045	39060.4
534.246	37882.81
534.447	37766.08
534.648	37159.88
534.849	36772.81
535.05	36164.57
535.251	36119.51
535.451	34712.56
535.652	35005.42
535.853	34487.28
536.054	33821.69
536.255	33637.37
536.456	32898.06
536.657	33070.09
536.857	32289.81
537.058	31556.64
537.259	31583.26
537.46	30743.59
537.66	30497.84
537.861	30053.43
538.062	29807.67
538.263	29359.17
538.463	29209.67
538.664	28171.35
538.865	28021.84
539.065	28091.48
539.266	27311.2
539.466	27251.81
539.667	26713.19
539.868	26690.66
540.068	26102.9
540.269	25674.87
540.469	25750.65
540.67	25287.81
540.87	25097.35
541.071	24472.71
541.271	24396.94
541.472	23944.34
541.672	23868.56
541.873	23604.38
542.073	23211.17
542.274	23266.46
542.474	22803.62
542.675	22355.11
542.875	22527.14
543.075	21804.21
543.276	21406.91
543.476	21732.53
543.676	21329.08
543.877	21208.25
544.077	20640.97
544.277	20702.4
544.478	20356.3
544.678	20149.45
544.878	19698.9
545.078	19926.22
545.279	19526.87
545.479	19092.7
545.679	19029.21
545.879	18859.23
546.079	18535.65
546.28	18115.82
546.48	17986.8
546.68	17902.83
546.88	17779.95
547.08	17839.34
547.28	17270.01
547.48	17075.45
547.68	16917.76
547.88	16725.25
548.081	16659.71
548.281	16123.15
548.481	16160.01
548.681	15934.73
548.881	15605.01
549.081	15572.24
549.28	15043.87
549.48	15152.41
549.68	14849.31
549.88	14902.56
550.08	14413.09
550.28	14447.91
550.48	13942.06
550.68	14007.59
550.88	13536.56
551.08	13446.45
551.279	13489.46
551.479	13075.77
551.679	13086.01
551.879	12660.03
552.079	12348.74
552.278	12311.88
552.478	12262.72
552.678	12117.32
552.878	12031.3
553.077	11672.91
553.277	11324.76
553.477	11398.48
553.676	11214.16
553.876	11064.66
554.076	10839.39
554.275	10593.63
554.475	10276.2
554.674	10255.72
554.874	10220.9
555.074	9942.38
555.273	10042.73
555.473	9749.87
555.672	9473.39
555.872	9346.42
556.071	9194.87
556.271	9260.4
556.47	8836.47
556.67	8590.72
556.869	8738.17
557.068	8525.18
557.268	8377.73
557.467	8152.45
557.667	8084.87
557.866	8121.73
558.065	7814.54
558.265	7601.55
558.464	7441.81
558.663	7540.11
558.863	7265.68
559.062	7198.1
559.261	7052.69
559.461	7081.36
559.66	6813.08
559.859	6778.26
560.058	6677.91
560.258	6446.49
560.457	6442.4
560.656	6634.91
560.855	6165.92
561.054	6317.47
561.253	6073.76
561.453	6012.32
561.652	5932.45
561.851	5858.73
562.05	5531.05
562.249	5522.86
562.448	5795.24
562.647	5428.65
562.846	5365.17
563.045	5297.58
563.244	5119.41
563.443	5174.71
563.642	4992.44
563.841	4969.91
564.04	4965.81
564.239	4896.18
564.438	4808.12
564.637	4623.8
564.836	4650.43
565.035	4519.36
565.234	4654.52
565.432	4332.99
565.631	4302.27
565.83	4337.09
566.029	4304.32
566.228	4036.03
566.427	4275.65
566.625	4103.62
566.824	4120
567.023	3990.98
567.222	3874.24
567.42	3847.62
567.619	3837.38
567.818	3616.2
568.016	3816.9
568.215	3612.1
568.414	3859.91
568.612	3712.46
568.811	3675.59
569.01	3460.56
569.208	3339.73
569.407	3417.55
569.605	3327.44
569.804	3302.86
570.002	3053.01
570.201	3141.07
570.4	3130.83
570.598	3106.26
570.797	2923.99
570.995	2805.21
571.193	3030.48
571.392	2743.77
571.59	2833.88
571.789	2893.27
571.987	2751.96
572.186	2909.65
572.384	2633.18
572.582	2696.66
572.781	2651.61
572.979	2514.39
573.177	2514.39
573.376	2543.07
573.574	2483.67
573.772	2412
573.971	2274.78
574.169	2295.26
574.367	2315.74
574.565	2213.34
574.763	2260.45
574.962	2258.4
575.16	2133.47
575.358	2039.26
575.556	2031.07
575.754	2057.7
575.952	2088.42
576.151	2043.36
576.349	2047.46
576.547	1910.24
576.745	1957.35
576.943	1816.04
577.141	1785.32
577.339	1834.47
577.537	1725.93
577.735	1797.6
577.933	1725.93
578.131	1658.34
578.329	1752.55
578.527	1557.99
578.725	1711.59
578.923	1484.27
579.121	1574.38
579.319	1498.6
579.516	1588.71
579.714	1680.87
579.912	1514.98
580.11	1363.44
580.308	1494.51
580.506	1412.59
580.704	1338.86
580.901	1377.77
581.099	1482.22
581.297	1447.4
581.495	1256.94
581.692	1314.28
581.89	1285.61
582.088	1355.24
582.285	1265.13
582.483	1308.14
582.681	1179.12
582.878	1193.45
583.076	1168.88
583.274	1271.28
583.471	1304.04
583.669	1009.14
583.866	1066.48
584.064	1095.15
584.262	1062.38
584.459	976.37
584.657	1058.29
584.854	1023.47
585.052	1166.83
585.249	1052.14
585.447	1013.23
585.644	792.05
585.841	1011.18
586.039	1017.33
586.236	1043.95
586.434	861.68
586.631	896.5
586.828	921.07
587.026	945.65
587.223	861.68
587.42	824.82
587.618	943.6
587.815	867.83
588.012	726.52
588.21	878.07
588.407	912.88
588.604	867.83
588.801	718.33
588.999	882.16
589.196	904.69
589.393	654.84
589.59	749.04
589.787	787.96
589.984	826.87
590.182	720.37
590.379	777.72
590.576	759.28
590.773	751.09
590.97	658.93
591.167	763.38
591.364	744.95
591.561	695.8
591.758	790
591.955	785.91
592.152	706.04
592.349	695.8
592.546	677.37
592.743	734.71
592.94	687.61
593.137	736.76
593.334	777.72
593.531	804.34
593.727	828.92
593.924	697.85
594.121	763.38
594.318	792.05
594.515	749.04
594.712	876.02
594.908	886.26
595.105	660.98
595.302	757.24
595.499	806.39
595.696	884.21
595.892	632.31
596.089	839.16
596.286	787.96
596.482	980.47
596.679	847.35
596.876	855.54
597.072	919.03
597.269	855.54
597.466	935.41
597.662	945.65
597.859	996.85
598.055	990.7
598.252	1076.72
598.448	1041.9
598.645	1170.93
598.841	1162.73
599.038	1318.38
599.234	1351.15
599.431	1390.06
599.627	1381.87
599.824	1332.72
600.02	1408.49
600.217	1474.03
600.413	1443.31
600.609	1488.36
600.806	1830.37
601.002	1648.1
601.198	1723.88
601.395	1799.65
601.591	1840.61
601.787	1998.31
601.984	2057.7
602.18	2188.77
602.376	2084.32
602.572	2258.4
602.769	2268.64
602.965	2346.46
603.161	2407.9
603.357	2387.42
603.553	2727.38
603.75	2711
603.946	2782.68
604.142	2944.47
604.338	3087.82
604.534	2958.8
604.73	3124.69
604.926	3169.74
605.122	3540.43
605.318	3425.74
605.514	3450.32
605.71	3687.88
605.906	3896.77
606.102	3732.94
606.298	3984.84
606.494	4124.1
606.69	4251.07
606.886	4351.42
607.082	4355.52
607.278	4455.87
607.474	4685.24
607.67	4865.46
607.866	4869.56
608.062	5158.32
608.257	5186.99
608.453	5209.52
608.649	5651.88
608.845	5529
609.041	5741.99
609.236	6036.9
609.432	6219.17
609.628	6464.93
609.824	6452.64
610.019	6327.71
610.215	6731.16
610.411	7064.98
610.606	7071.12
610.802	7314.83
610.998	7366.03
611.193	7677.32
611.389	7658.89
611.584	8000.9
611.78	8267.14
611.976	8545.66
612.171	8887.67
612.367	9209.2
612.562	9256.31
612.758	9254.26
612.953	9313.65
613.149	9975.14
613.344	9993.58
613.539	10526.05
613.735	10648.93
613.93	11007.32
614.126	11195.73
614.321	11584.85
614.517	11906.38
614.712	12289.35
614.907	12219.72
615.103	12791.1
615.298	12817.72
615.493	13460.79
615.688	13518.13
615.884	14386.47
616.079	14282.02
616.274	14880.03
616.47	14961.95
616.665	15541.52
616.86	15670.54
617.055	16235.78
617.25	16454.92
617.445	17095.93
617.641	17327.35
617.836	17683.7
618.031	17986.8
618.226	18636
618.421	19084.51
618.616	19715.28
618.811	19868.88
619.006	20776.13
619.201	20370.63
619.396	21316.79
619.591	21505.21
619.786	22039.73
619.981	22353.07
620.176	23274.65
620.371	23493.79
620.566	24124.56
620.761	24429.71
620.956	25191.55
621.151	25373.82
621.346	26266.74
621.541	26154.1
621.735	27219.04
621.93	27028.58
622.125	27827.29
622.32	28122.19
622.515	29199.43
622.709	29443.13
622.904	30307.38
623.099	30604.33
623.294	30966.82
623.488	31366.18
623.683	32388.11
623.878	32316.43
624.072	33166.34
624.267	33367.04
624.462	34001.91
624.656	34038.78
624.851	35206.12
625.046	35517.41
625.24	35742.69
625.435	36258.77
625.629	36817.87
625.824	37137.35
626.018	37725.12
626.213	37563.33
626.407	38638.51
626.602	38296.5
626.796	39373.74
626.991	39605.16
627.185	39838.62
627.38	39805.86
627.574	40133.53
627.768	40342.42
627.963	40563.61
628.157	40522.65
628.352	40809.36
628.546	40119.2
628.74	41304.97
628.935	40536.98
629.129	40696.72
629.323	40188.83
629.517	40256.41
629.712	39744.42
629.906	39568.29
630.1	38769.58
630.294	38894.51
630.489	38269.88
630.683	38095.8
630.877	36973.52
631.071	36500.44
631.265	36262.87
631.459	35468.26
631.653	34376.69
631.848	33620.99
632.042	32826.38
632.236	32334.87
632.43	30987.3
632.624	30577.71
632.818	29344.83
633.012	28494.93
633.206	27749.46
633.4	26948.71
633.594	25490.56
633.788	25142.4
633.982	23757.97
634.176	23143.58
634.369	22363.31
634.563	21583.03
634.757	20600.01
634.951	19895.5
635.145	19141.85
635.339	18496.74
635.533	17698.03
635.726	16942.33
635.92	15897.87
636.114	15719.7
636.308	14667.04
636.501	14370.08
636.695	13940.01
636.889	13086.01
637.083	12547.39
637.276	12121.42
637.47	11666.77
637.664	11300.18
637.857	10784.09
638.051	10222.95
638.244	9958.76
638.438	9588.08
638.632	9241.97
638.825	8678.78
639.019	8492.41
639.212	7957.89
639.406	7898.5
639.599	7404.94
639.793	7292.3
639.986	6784.41
640.18	6741.4
640.373	6368.67
640.567	6065.57
640.76	5877.16
640.954	5731.75
641.147	5502.38
641.34	5092.79
641.534	5088.69
641.727	4910.52
641.92	4672.95
642.114	4517.31
642.307	4427.2
642.5	4242.88
642.694	3907.01
642.887	4003.27
643.08	3763.65
643.273	3593.67
643.467	3472.84
643.66	3233.23
643.853	3153.36
644.046	3198.42
644.239	3040.72
644.432	2756.05
644.626	2627.03
644.819	2661.85
645.012	2553.31
645.205	2465.24
645.398	2461.15
645.591	2170.33
645.784	2123.23
645.977	1979.87
646.17	2041.31
646.363	1867.24
646.556	1781.22
646.749	1699.3
646.942	1836.52
647.135	1760.74
647.328	1596.9
647.521	1510.89
647.714	1353.2
647.907	1480.17
648.099	1351.15
648.292	1369.58
648.485	1287.66
648.678	1222.13
648.871	1134.06
649.064	1146.35
649.256	1068.53
649.449	1017.33
649.642	1007.09
649.835	1048.05
650.027	890.35
650.22	1029.62
650.413	888.31
650.605	882.16
650.798	747
650.991	785.91
651.183	794.1
651.376	841.2
651.568	820.72
651.761	671.22
651.954	728.56
652.146	765.43
652.339	615.93
652.531	663.03
652.724	538.1
652.916	615.93
653.109	409.08
653.301	677.37
653.494	509.43
653.686	574.97
653.879	599.54
654.071	638.45
654.263	462.33
654.456	380.41
654.648	564.73
654.84	394.75
655.033	484.86
655.225	560.63
655.417	419.32
655.61	525.82
655.802	499.19
655.994	491
656.186	306.68
656.379	478.71
656.571	376.31
656.763	374.27
656.955	323.07
657.148	382.46
657.34	472.57
657.532	271.87
657.724	249.34
657.916	316.92
658.108	361.98
658.3	423.42
658.492	382.46
658.684	192
658.876	384.51
659.068	271.87
659.26	226.81
659.452	194.05
659.644	259.58
659.836	443.9
660.028	345.59
660.22	224.76
660.412	296.44
660.604	273.92
660.796	294.4
660.988	318.97
661.18	230.91
661.372	353.79
661.563	306.68
661.755	261.63
661.947	99.84
662.139	232.96
662.331	198.14
662.522	204.28
662.714	114.17
662.906	171.52
663.097	134.65
663.289	167.42
663.481	110.08
663.673	298.49
663.864	232.96
664.056	314.88
664.247	159.23
664.439	271.87
664.631	269.82
664.822	273.92
665.014	175.61
665.205	144.89
665.397	179.71
665.588	200.19
665.78	165.37
665.971	314.88
666.163	169.47
666.354	208.38
666.546	103.93
666.737	144.89
666.929	196.09
667.12	165.37
667.311	175.61
667.503	114.17
667.694	216.57
667.885	224.76
668.077	185.85
668.268	101.89
668.459	163.33
668.651	159.23
668.842	198.14
669.033	93.69
669.224	13.82
669.416	294.4
669.607	101.89
669.798	89.6
669.989	245.24
670.18	171.52
670.371	222.72
670.563	48.64
670.754	304.64
670.945	237.05
671.136	192
671.327	13.82
671.518	224.76
671.709	288.25
671.9	173.57
672.091	300.54
672.282	179.71
672.473	204.28
672.664	112.13
672.855	155.13
673.046	187.9
673.237	265.72
673.428	157.18
673.619	288.25
673.809	132.61
674	271.87
674.191	241.15
674.382	204.28
674.573	81.41
674.764	169.47
674.954	224.76
675.145	105.98
675.336	114.17
675.527	212.48
675.717	157.18
675.908	155.13
676.099	232.96
676.289	194.05
676.48	26.11
676.671	161.28
676.861	134.65
677.052	290.3
677.243	101.89
677.433	144.89
677.624	196.09
677.814	239.1
678.005	169.47
678.195	300.54
678.386	144.89
678.576	187.9
678.767	114.17
678.957	144.89
679.148	325.12
679.338	314.88
679.529	192
679.719	142.85
679.909	198.14
680.1	177.66
680.29	202.24
680.481	200.19
680.671	210.43
680.861	259.58
681.052	181.76
681.242	196.09
681.432	222.72
681.622	210.43
681.813	146.94
682.003	183.81
682.193	146.94
682.383	278.01
682.573	181.76
682.764	179.71
682.954	212.48
683.144	335.35
683.334	165.37
683.524	218.62
683.714	261.63
683.904	263.68
684.094	253.44
684.284	196.09
684.474	269.82
684.664	292.35
684.854	134.65
685.044	163.33
685.234	237.05
685.424	269.82
685.614	112.13
685.804	335.35
685.994	228.86
686.184	278.01
686.374	192
686.564	222.72
686.753	251.39
686.943	134.65
687.133	130.56
687.323	218.62
687.513	198.14
687.702	228.86
687.892	151.04
688.082	290.3
688.272	251.39
688.461	216.57
688.651	321.02
688.841	218.62
689.03	116.22
689.22	210.43
689.41	249.34
689.599	325.12
689.789	212.48
689.979	222.72
690.168	198.14
690.358	335.35
690.547	202.24
690.737	290.3
690.926	216.57
691.116	269.82
691.305	339.45
691.495	267.77
691.684	140.8
691.874	206.33
692.063	232.96
692.252	257.53
692.442	323.07
692.631	116.22
692.82	239.1
693.01	163.33
693.199	245.24
693.388	310.78
693.578	204.28
693.767	235
693.956	339.45
694.146	261.63
694.335	237.05
694.524	159.23
694.713	237.05
694.902	212.48
695.092	196.09
695.281	251.39
695.47	179.71
695.659	218.62
695.848	257.53
696.037	138.75
696.226	237.05
696.415	206.33
696.604	372.22
696.793	259.58
696.982	200.19
697.171	306.68
697.36	216.57
697.549	216.57
697.738	42.5
697.927	181.76
698.116	159.23
698.305	220.67
698.494	192
698.683	220.67
698.872	304.64
699.061	142.85
699.25	163.33
699.438	222.72
699.627	118.27
699.816	306.68
700.005	181.76
700.193	198.14
700.382	235
700.571	226.81
700.76	226.81
700.948	196.09
701.137	316.92
701.326	280.06
701.514	91.65
701.703	294.4
701.892	278.01
702.08	433.66
702.269	202.24
702.457	204.28
702.646	243.2
702.834	206.33
703.023	265.72
703.212	263.68
703.4	163.33
703.589	255.48
703.777	189.95
703.965	187.9
704.154	126.46
704.342	71.17
704.531	177.66
704.719	255.48
704.907	249.34
705.096	101.89
705.284	136.7
705.472	269.82
705.661	271.87
705.849	208.38
706.037	280.06
706.226	179.71
706.414	204.28
706.602	161.28
706.79	222.72
706.979	206.33
707.167	208.38
707.355	54.78
707.543	241.15
707.731	235
707.919	189.95
708.107	169.47
708.296	237.05
708.484	122.37
708.672	142.85
708.86	312.83
709.048	151.04
709.236	230.91
709.424	181.76
709.612	278.01
709.8	81.41
709.988	232.96
710.176	235
710.364	306.68
710.551	218.62
710.739	95.74
710.927	294.4
711.115	214.52
711.303	249.34
711.491	294.4
711.679	214.52
711.866	271.87
712.054	157.18
712.242	183.81
712.43	241.15
712.617	196.09
712.805	286.2
712.993	194.05
713.181	132.61
713.368	298.49
713.556	179.71
713.744	163.33
713.931	390.65
714.119	312.83
714.306	167.42
714.494	153.09
714.682	185.85
714.869	198.14
715.057	196.09
715.244	167.42
715.432	239.1
715.619	134.65
715.807	220.67
715.994	318.97
716.182	261.63
716.369	226.81
716.556	282.11
716.744	124.41
716.931	183.81
717.119	239.1
717.306	245.24
717.493	278.01
717.681	263.68
717.868	171.52
718.055	253.44
718.242	196.09
718.43	202.24
718.617	290.3
718.804	204.28
718.991	343.55
719.179	212.48
719.366	302.59
719.553	155.13
719.74	267.77
719.927	189.95
720.114	222.72
720.301	167.42
720.488	261.63
720.676	204.28
720.863	282.11
721.05	415.23
721.237	218.62
721.424	345.59
721.611	222.72
721.798	189.95
721.985	280.06
722.172	202.24
722.358	235
722.545	327.16
722.732	259.58
722.919	300.54
723.106	247.29
723.293	212.48
723.48	237.05
723.667	253.44
723.853	306.68
724.04	271.87
724.227	290.3
724.414	235
724.6	267.77
724.787	325.12
724.974	357.88
725.161	232.96
725.347	232.96
725.534	308.73
725.72	235
725.907	308.73
726.094	318.97
726.28	228.86
726.467	220.67
726.653	232.96
726.84	368.12
727.027	390.65
727.213	183.81
727.4	296.44
727.586	169.47
727.773	314.88
727.959	325.12
728.145	226.81
728.332	157.18
728.518	212.48
728.705	259.58
728.891	318.97
729.077	312.83
729.264	241.15
729.45	226.81
729.636	357.88
729.823	288.25
730.009	292.35
730.195	292.35
730.382	347.64
730.568	210.43
730.754	255.48
730.94	282.11
731.126	202.24
731.313	327.16
731.499	290.3
731.685	294.4
731.871	312.83
732.057	288.25
732.243	284.16
732.429	292.35
732.615	329.21
732.801	306.68
732.987	331.26
733.173	273.92
733.359	257.53
733.545	286.2
733.731	271.87
733.917	333.31
734.103	241.15
734.289	318.97
734.475	265.72
734.661	423.42
734.847	290.3
735.033	308.73
735.219	388.6
735.404	232.96
735.59	245.24
735.776	249.34
735.962	294.4
736.148	378.36
736.333	359.93
736.519	292.35
736.705	288.25
736.89	286.2
737.076	263.68
737.262	224.76
737.447	192
737.633	288.25
737.819	292.35
738.004	296.44
738.19	321.02
738.375	349.69
738.561	318.97
738.747	286.2
738.932	237.05
739.118	392.7
739.303	329.21
739.489	386.55
739.674	69.12
739.859	224.76
740.045	345.59
740.23	249.34
740.416	140.8
740.601	284.16
740.786	310.78
740.972	308.73
741.157	329.21
741.342	175.61
741.528	220.67
741.713	323.07
741.898	280.06
742.084	212.48
742.269	235
742.454	286.2
742.639	368.12
742.824	347.64
743.01	394.75
743.195	290.3
743.38	187.9
743.565	157.18
743.75	265.72
743.935	304.64
744.12	308.73
744.305	110.08
744.49	181.76
744.675	237.05
744.86	269.82
745.045	400.89
745.23	218.62
745.415	218.62
745.6	271.87
745.785	208.38
745.97	335.35
746.155	267.77
746.34	357.88
746.525	294.4
746.71	345.59
746.895	210.43
747.079	206.33
747.264	302.59
747.449	275.96
747.634	327.16
747.819	263.68
748.003	187.9
748.188	165.37
748.373	296.44
748.557	232.96
748.742	222.72
748.927	247.29
749.111	208.38
749.296	196.09
749.481	296.44
749.665	280.06
749.85	228.86
750.034	271.87
750.219	202.24
750.404	140.8
750.588	222.72
750.773	177.66
750.957	169.47
751.141	282.11
751.326	292.35
751.51	126.46
751.695	243.2
751.879	253.44
752.064	394.75
752.248	214.52
752.432	280.06
752.617	253.44
752.801	282.11
752.985	142.85
753.17	294.4
753.354	222.72
753.538	212.48
753.722	200.19
753.907	163.33
754.091	192
754.275	239.1
754.459	181.76
754.643	155.13
754.828	376.31
755.012	261.63
755.196	118.27
755.38	187.9
755.564	202.24
755.748	171.52
755.932	275.96
756.116	146.94
756.3	257.53
756.484	189.95
756.668	163.33
756.852	44.54
757.036	120.32
757.22	230.91
757.404	110.08
757.588	87.55
757.772	224.76
757.956	306.68
758.14	290.3
758.323	165.37
758.507	214.52
758.691	163.33
758.875	261.63
759.059	208.38
759.242	196.09
759.426	85.5
759.61	226.81
759.794	155.13
759.977	177.66
760.161	335.35
760.345	235
760.528	222.72
760.712	183.81
760.895	169.47
761.079	208.38
761.263	54.78
761.446	206.33
761.63	120.32
761.813	237.05
761.997	83.45
762.18	95.74
762.364	136.7
762.547	46.59
762.731	136.7
762.914	136.7
763.098	138.75
763.281	103.93
763.464	52.74
763.648	212.48
763.831	157.18
764.015	56.83
764.198	214.52
764.381	114.17
764.564	210.43
764.748	161.28
764.931	177.66
765.114	108.03
765.297	194.05
765.481	48.64
765.664	75.26
765.847	89.6
766.03	308.73
766.213	85.5
766.397	126.46
766.58	71.17
766.763	161.28
766.946	146.94
767.129	36.35
767.312	146.94
767.495	101.89
767.678	22.02
767.861	130.56
768.044	103.93
768.227	116.22
768.41	128.51
768.593	97.79
768.776	120.32
768.959	48.64
769.142	228.86
769.324	134.65
769.507	134.65
769.69	52.74
769.873	58.88
770.056	222.72
770.239	105.98
770.421	228.86
770.604	136.7
770.787	124.41
770.97	183.81
771.152	48.64
771.335	159.23
771.518	56.83
771.7	105.98
771.883	216.57
772.066	71.17
772.248	89.6
772.431	132.61
772.613	159.23
772.796	24.06
772.978	171.52
773.161	210.43
773.343	62.98
773.526	40.45
773.708	-33.28
773.891	-68.09
774.073	65.02
774.256	-6.66
774.438	202.24
774.621	75.26
774.803	130.56
774.985	42.5
775.168	161.28
775.35	13.82
775.532	163.33
775.715	146.94
775.897	144.89
776.079	93.69
776.261	112.13
776.444	116.22
776.626	60.93
776.808	44.54
776.99	-29.18
777.173	157.18
777.355	52.74
777.537	73.21
777.719	157.18
777.901	93.69
778.083	69.12
778.265	58.88
778.447	148.99
778.629	3.58
778.811	65.02
778.993	85.5
779.175	118.27
779.357	134.65
779.539	-35.33
779.721	69.12
779.903	85.5
780.085	48.64
780.267	95.74
780.449	71.17
780.631	169.47
780.812	220.67
780.994	83.45
781.176	97.79
781.358	79.36
781.54	7.68
781.721	130.56
781.903	157.18
782.085	81.41
782.267	93.69
782.448	48.64
782.63	62.98
782.812	48.64
782.993	93.69
783.175	126.46
783.357	83.45
783.538	85.5
783.72	13.82
783.901	114.17
784.083	112.13
784.264	89.6
784.446	-74.24
784.627	40.45
784.809	142.85
784.99	-51.71
785.172	159.23
785.353	126.46
785.535	60.93
785.716	13.82
785.897	42.5
786.079	3.58
786.26	19.97
786.441	85.5
786.623	-14.85
786.804	32.26
786.985	69.12
787.167	157.18
787.348	73.21
787.529	-6.66
787.71	126.46
787.891	65.02
788.073	28.16
788.254	-41.47
788.435	185.85
788.616	73.21
788.797	-29.18
788.978	97.79
789.159	1.54
789.34	159.23
789.522	77.31
789.703	-8.7
789.884	101.89
790.065	91.65
790.246	112.13
790.427	58.88
790.607	179.71
790.788	155.13
790.969	11.78
791.15	60.93
791.331	11.78
791.512	93.69
791.693	-23.04
791.874	28.16
792.054	202.24
792.235	169.47
792.416	26.11
792.597	-35.33
792.778	87.55
792.958	75.26
793.139	146.94
793.32	44.54
793.5	5.63
793.681	101.89
793.862	95.74
794.042	24.06
794.223	-113.15
794.404	7.68
794.584	-61.95
794.765	9.73
794.945	-27.14
795.126	65.02
795.306	134.65
795.487	108.03
795.667	3.58
795.848	77.31
796.028	50.69
796.209	65.02
796.389	85.5
796.57	38.4
796.75	-31.23
796.93	38.4
797.111	99.84
797.291	56.83
797.471	65.02
797.652	-10.75
797.832	19.97
798.012	134.65
798.192	-4.61
798.373	30.21
798.553	40.45
798.733	114.17
798.913	-61.95
799.093	36.35
799.274	91.65
799.454	134.65
799.634	101.89
799.814	140.8
799.994	204.28
800.174	-0.51
800.354	54.78
800.534	-31.23
800.714	89.6
800.894	-41.47
801.074	42.5
801.254	3.58
801.434	177.66
801.614	24.06
801.794	-10.75
801.974	1977.83
802.154	75.26
802.334	144.89
802.514	-2.56
802.693	52.74
802.873	69.12
803.053	155.13
803.233	56.83
803.413	-66.05
803.592	5.63
803.772	42.5
803.952	56.83
804.131	-20.99
804.311	157.18
804.491	105.98
804.67	-12.8
804.85	7.68
805.03	103.93
805.209	157.18
805.389	42.5
805.568	42.5
805.748	-23.04
805.928	13.82
806.107	124.41
806.287	69.12
806.466	114.17
806.646	-4.61
806.825	75.26
807.004	-16.9
807.184	69.12
807.363	58.88
807.543	118.27
807.722	-2.56
807.901	138.75
808.081	38.4
808.26	-39.42
808.439	73.21
808.619	32.26
808.798	-51.71
808.977	62.98
809.156	151.04
809.336	62.98
809.515	75.26
809.694	15.87
809.873	26.11
810.052	112.13
810.231	124.41
810.411	48.64
810.59	169.47
810.769	83.45
810.948	22.02
811.127	-55.81
811.306	3.58
811.485	71.17
811.664	204.28
811.843	60.93
812.022	89.6
812.201	-6.66
812.38	48.64
812.559	73.21
812.737	146.94
812.916	-35.33
813.095	-6.66
813.274	105.98
813.453	44.54
813.632	75.26
813.811	167.42
813.989	-80.38
814.168	50.69
814.347	5.63
814.526	7.68
814.704	151.04
814.883	187.9
815.062	-45.57
815.24	157.18
815.419	-41.47
815.598	69.12
815.776	-57.86
815.955	91.65
816.133	5.63
816.312	38.4
816.49	-10.75
816.669	44.54
816.847	67.07
817.026	120.32
817.204	42.5
817.383	-2.56
817.561	-33.28
817.74	65.02
817.918	15.87
818.097	-49.66
818.275	15.87
818.453	42.5
818.632	56.83
818.81	-37.38
818.988	-2.56
819.167	-10.75
819.345	-8.7
819.523	52.74
819.701	87.55
819.879	85.5
820.058	-8.7
820.236	48.64
820.414	110.08
820.592	-4.61
820.77	5.63
820.948	22.02
821.127	38.4
821.305	42.5
821.483	-8.7
821.661	89.6
821.839	77.31
822.017	-27.14
822.195	54.78
822.373	89.6
822.551	26.11
822.729	69.12
822.907	-10.75
823.085	122.37
823.262	36.35
823.44	-111.1
823.618	44.54
823.796	50.69
823.974	15.87
824.152	24.06
824.329	-4.61
824.507	44.54
824.685	42.5
824.863	-2.56
825.04	89.6
825.218	38.4
825.396	40.45
825.574	48.64
825.751	101.89
825.929	128.51
826.107	-123.39
826.284	73.21
826.462	81.41
826.639	-8.7
826.817	-51.71
826.994	17.92
827.172	3.58
827.349	167.42
827.527	85.5
827.704	-14.85
827.882	122.37
828.059	28.16
828.237	-2.56
828.414	163.33
828.591	-53.76
828.769	22.02
828.946	26.11
829.124	103.93
829.301	85.5
829.478	42.5
829.655	60.93
829.833	32.26
830.01	-41.47
830.187	62.98
830.364	17.92
830.542	13.82
830.719	93.69
830.896	97.79
831.073	52.74
831.25	97.79
831.427	50.69
831.604	-0.51
831.782	-16.9
831.959	142.85
832.136	3.58
832.313	9.73
832.49	38.4
832.667	75.26
832.844	46.59
833.021	122.37
833.198	118.27
833.374	-47.62
833.551	17.92
833.728	-25.09
833.905	89.6
834.082	-49.66
834.259	36.35
834.436	101.89
834.612	62.98
834.789	38.4
834.966	15.87
835.143	79.36
835.319	19.97
835.496	126.46
835.673	36.35
835.85	93.69
836.026	116.22
836.203	52.74
836.38	-16.9
836.556	-64
836.733	22.02
836.909	101.89
837.086	9.73
837.262	-25.09
837.439	48.64
837.616	-29.18
837.792	-37.38
837.968	32.26
838.145	-66.05
838.321	-2.56
838.498	77.31
838.674	140.8
838.851	75.26
839.027	-45.57
839.203	-14.85
839.38	24.06
839.556	-8.7
839.732	91.65
839.909	-4.61
840.085	56.83
840.261	36.35
840.437	103.93
840.614	15.87
840.79	105.98
840.966	81.41
841.142	50.69
841.318	-10.75
841.494	28.16
841.671	101.89
841.847	-18.94
842.023	9.73
842.199	91.65
842.375	128.51
842.551	-12.8
842.727	-70.14
842.903	134.65
843.079	19.97
843.255	112.13
843.431	24.06
843.607	114.17
843.783	-88.57
843.959	3.58
844.134	42.5
844.31	-8.7
844.486	-35.33
844.662	-33.28
844.838	5.63
845.013	62.98
845.189	130.56
845.365	11.78
845.541	69.12
845.716	56.83
845.892	95.74
846.068	9.73
846.244	-66.05
846.419	50.69
846.595	-27.14
846.77	-51.71
846.946	79.36
847.122	-33.28
847.297	89.6
847.473	165.37
847.648	-66.05
847.824	22.02
847.999	-70.14
848.175	-16.9
848.35	1.54
848.526	128.51
848.701	77.31
848.876	56.83
849.052	91.65
849.227	28.16
849.403	58.88
849.578	54.78
849.753	91.65
849.929	130.56
850.104	-25.09
850.279	38.4
850.454	69.12
850.63	151.04
850.805	52.74
850.98	36.35
851.155	28.16
851.33	3.58
851.505	-43.52
851.681	226.81
851.856	-55.81
852.031	79.36
852.206	126.46
852.381	-55.81
852.556	34.3
852.731	157.18
852.906	148.99
853.081	46.59
853.256	151.04
853.431	75.26
853.606	11.78
853.781	-41.47
853.956	-119.29
854.131	38.4
854.305	-25.09
854.48	-12.8
854.655	52.74
854.83	9.73
855.005	44.54
855.18	81.41
855.354	75.26
855.529	65.02
855.704	15.87
855.879	15.87
856.053	28.16
856.228	87.55
856.403	-29.18
856.577	73.21
856.752	3.58
856.926	73.21
857.101	134.65
857.276	50.69
857.45	24.06
857.625	-25.09
857.799	46.59
857.974	-8.7
858.148	-125.44
858.323	19.97
858.497	52.74
858.672	-8.7
858.846	-43.52
859.02	32.26
859.195	-100.86
859.369	56.83
859.543	138.75
859.718	-39.42
859.892	-18.94
860.066	9.73
860.241	-2.56
860.415	-18.94
860.589	32.26
860.763	7.68
860.938	58.88
861.112	97.79
861.286	13.82
861.46	44.54
861.634	9.73
861.808	50.69
861.982	-78.33
862.157	-37.38
862.331	7.68
862.505	-94.72
862.679	-23.04
862.853	-2.56
863.027	-31.23
863.201	146.94
863.375	-16.9
863.549	105.98
863.722	-29.18
863.896	130.56
864.07	-68.09
864.244	-53.76
864.418	130.56
864.592	5.63
864.766	97.79
864.939	-2.56
865.113	34.3
865.287	118.27
865.461	17.92
865.634	48.64
865.808	28.16
865.982	3.58
866.156	-12.8
866.329	-86.53
866.503	3.58
866.676	54.78
866.85	122.37
867.024	-47.62
867.197	97.79
867.371	30.21
867.544	40.45
867.718	-41.47
867.891	79.36
868.065	-59.9
868.238	69.12
868.412	157.18
868.585	36.35
868.759	-51.71
868.932	-0.51
869.105	-10.75
869.279	62.98
869.452	-51.71
869.625	46.59
869.799	3.58
869.972	-59.9
870.145	3.58
870.319	97.79
870.492	19.97
870.665	-70.14
870.838	-53.76
871.011	-107.01
871.185	69.12
871.358	54.78
871.531	-8.7
871.704	54.78
871.877	54.78
872.05	-47.62
872.223	-8.7
872.396	75.26
872.569	28.16
872.742	-109.05
872.915	28.16
873.088	38.4
873.261	-55.81
873.434	73.21
873.607	-25.09
873.78	163.33
873.953	-96.77
874.126	54.78
874.299	108.03
874.471	-33.28
874.644	-14.85
874.817	134.65
874.99	157.18
875.163	-74.24
875.335	15.87
875.508	28.16
875.681	93.69
875.853	58.88
876.026	-49.66
876.199	75.26
876.371	-20.99
876.544	-23.04
876.717	48.64
876.889	77.31
877.062	75.26
877.234	-131.58
877.407	24.06
877.579	101.89
877.752	44.54
877.924	105.98
878.097	69.12
878.269	13.82
878.442	34.3
878.614	67.07
878.786	26.11
878.959	1.54
879.131	81.41
879.303	-45.57
879.476	3.58
879.648	159.23
879.82	-10.75
879.993	-12.8
880.165	-23.04
880.337	-72.19
880.509	-27.14
880.681	-27.14
880.854	17.92
881.026	62.98
881.198	243.2
881.37	28.16
881.542	1.54
881.714	5.63
881.886	46.59
882.058	28.16
882.23	95.74
882.402	42.5
882.574	-23.04
882.746	110.08
882.918	189.95
883.09	7.68
883.262	1.54
883.434	65.02
883.606	-125.44
883.778	-12.8
883.95	146.94
884.122	-39.42
884.293	101.89
884.465	34.3
884.637	52.74
884.809	13.82
884.98	134.65
885.152	7.68
885.324	134.65
885.496	1.54
885.667	-6.66
885.839	-31.23
886.011	118.27
886.182	71.17
886.354	36.35
886.525	34.3
886.697	38.4
886.869	-57.86
887.04	17.92
887.212	144.89
887.383	239.1
887.555	48.64
887.726	-25.09
887.897	-47.62
888.069	30.21
888.24	32.26
888.412	11.78
888.583	67.07
888.754	-39.42
888.926	-117.25
889.097	-115.2
889.268	-66.05
889.44	79.36
889.611	-49.66
889.782	-88.57
889.953	-102.91
890.125	89.6
890.296	-43.52
890.467	9.73
890.638	-35.33
890.809	-27.14
890.98	26.11
891.151	48.64
891.323	77.31
891.494	-2.56
891.665	67.07
891.836	-47.62
892.007	1.54
892.178	77.31
892.349	22.02
892.52	-70.14
892.691	198.14
892.862	26.11
893.032	-72.19
893.203	-31.23
893.374	50.69
893.545	58.88
893.716	-12.8
893.887	77.31
894.057	54.78
894.228	81.41
894.399	9.73
894.57	214.52
894.74	42.5
894.911	26.11
895.082	-41.47
895.253	-59.9
895.423	69.12
895.594	114.17
895.764	56.83
895.935	-20.99
896.106	24.06
896.276	-39.42
896.447	58.88
896.617	48.64
896.788	7.68
896.958	54.78
897.129	19.97
897.299	13.82
897.47	62.98
897.64	42.5
897.81	46.59
897.981	69.12
898.151	-25.09
898.322	87.55
898.492	60.93
898.662	-16.9
898.832	5.63
899.003	11.78
899.173	132.61
899.343	52.74
899.513	-35.33
