Data from USB4F104151__104__10-45-29-763.txt Node

Date: Wed Feb 26 10:45:29 EST 2025
User: louis
Spectrometer: USB4F10415
Trigger mode: 4
Integration Time (sec): 1.000000E-1
Scans to average: 1
Electric dark correction enabled: true
Nonlinearity correction enabled: false
Boxcar width: 0
XAxis mode: Wavelengths
Number of Pixels in Spectrum: 3648
>>>>>Begin Spectral Data<<<<<
178.204	-417.1
178.424	-417.1
178.644	-417.1
178.864	-406.86
179.084	-331.09
179.304	-23.89
179.524	-17.75
179.744	6.83
179.964	78.51
180.184	-17.75
180.404	27.31
180.624	-19.8
180.844	43.69
181.064	-87.38
181.283	-30.04
181.503	-3.41
181.723	43.69
181.943	-62.8
182.163	197.29
182.383	-27.99
182.602	35.5
182.822	55.98
183.042	47.79
183.262	2.73
183.482	25.26
183.701	-34.13
183.921	-36.18
184.141	-89.43
184.361	98.99
184.58	101.03
184.8	41.64
185.02	-3.41
185.239	84.65
185.459	78.51
185.679	117.42
185.898	-95.57
186.118	115.37
186.338	80.55
186.557	88.75
186.777	-36.18
186.997	-13.65
187.216	-15.7
187.436	176.81
187.655	53.93
187.875	37.55
188.095	76.46
188.314	103.08
188.534	139.94
188.753	-85.33
188.973	58.03
189.192	195.24
189.412	45.74
189.631	33.45
189.851	15.02
190.07	156.33
190.29	-44.37
190.509	-44.37
190.729	-36.18
190.948	74.41
191.168	197.29
191.387	121.51
191.607	6.83
191.826	21.16
192.045	-36.18
192.265	2.73
192.484	37.55
192.704	-7.51
192.923	-52.56
193.142	201.38
193.362	33.45
193.581	129.7
193.8	39.59
194.02	105.13
194.239	109.22
194.458	51.88
194.678	-68.95
194.897	-15.7
195.116	78.51
195.335	76.46
195.555	31.4
195.774	-68.95
195.993	172.71
196.212	37.55
196.432	-13.65
196.651	-11.61
196.87	-9.56
197.089	195.24
197.308	37.55
197.528	121.51
197.747	-56.66
197.966	82.6
198.185	107.18
198.404	-5.46
198.623	133.8
198.842	154.28
199.062	66.22
199.281	103.08
199.5	23.21
199.719	25.26
199.938	94.89
200.157	80.55
200.376	119.46
200.595	146.09
200.814	70.31
201.033	19.11
201.252	234.15
201.471	-11.61
201.69	86.7
201.909	88.75
202.128	137.9
202.347	66.22
202.566	4.78
202.785	-97.62
203.004	27.31
203.223	258.73
203.442	19.11
203.661	15.02
203.879	76.46
204.098	137.9
204.317	-1.37
204.536	43.69
204.755	55.98
204.974	162.47
205.193	25.26
205.411	131.75
205.63	129.7
205.849	66.22
206.068	41.64
206.287	-56.66
206.505	148.14
206.724	98.99
206.943	19.11
207.162	-27.99
207.381	107.18
207.599	43.69
207.818	39.59
208.037	-3.41
208.255	29.35
208.474	111.27
208.693	78.51
208.911	-30.04
209.13	70.31
209.349	19.11
209.567	107.18
209.786	43.69
210.005	60.07
210.223	90.79
210.442	-120.15
210.661	17.07
210.879	39.59
211.098	8.87
211.316	49.83
211.535	115.37
211.753	70.31
211.972	45.74
212.191	-3.41
212.409	43.69
212.628	60.07
212.846	-52.56
213.065	15.02
213.283	113.32
213.502	33.45
213.72	80.55
213.938	17.07
214.157	6.83
214.375	111.27
214.594	19.11
214.812	78.51
215.031	23.21
215.249	123.56
215.467	33.45
215.686	43.69
215.904	58.03
216.122	6.83
216.341	109.22
216.559	80.55
216.778	98.99
216.996	166.57
217.214	33.45
217.432	21.16
217.651	-91.48
217.869	49.83
218.087	101.03
218.306	66.22
218.524	-11.61
218.742	90.79
218.96	111.27
219.179	55.98
219.397	68.27
219.615	178.86
219.833	88.75
220.051	-48.47
220.27	58.03
220.488	80.55
220.706	92.84
220.924	62.12
221.142	6.83
221.36	25.26
221.578	121.51
221.796	68.27
222.015	19.11
222.233	-15.7
222.451	154.28
222.669	-7.51
222.887	53.93
223.105	-27.99
223.323	19.11
223.541	-1.37
223.759	111.27
223.977	51.88
224.195	127.66
224.413	74.41
224.631	47.79
224.849	31.4
225.067	182.95
225.285	68.27
225.503	37.55
225.721	-21.85
225.939	84.65
226.157	58.03
226.375	158.38
226.592	4.78
226.81	64.17
227.028	64.17
227.246	127.66
227.464	101.03
227.682	47.79
227.9	53.93
228.117	66.22
228.335	115.37
228.553	-1.37
228.771	-13.65
228.989	4.78
229.206	90.79
229.424	74.41
229.642	33.45
229.86	-56.66
230.077	92.84
230.295	55.98
230.513	148.14
230.731	84.65
230.948	207.53
231.166	172.71
231.384	-17.75
231.601	15.02
231.819	146.09
232.037	-3.41
232.254	-68.95
232.472	-5.46
232.689	-21.85
232.907	121.51
233.125	8.87
233.342	29.35
233.56	-42.32
233.777	23.21
233.995	33.45
234.213	162.47
234.43	80.55
234.648	10.92
234.865	-7.51
235.083	80.55
235.3	98.99
235.518	96.94
235.735	139.94
235.953	86.7
236.17	10.92
236.388	53.93
236.605	90.79
236.822	64.17
237.04	78.51
237.257	43.69
237.475	-40.28
237.692	88.75
237.909	47.79
238.127	31.4
238.344	27.31
238.562	33.45
238.779	-50.52
238.996	-71
239.214	45.74
239.431	115.37
239.648	-30.04
239.865	119.46
240.083	141.99
240.3	-5.46
240.517	-62.8
240.735	37.55
240.952	78.51
241.169	107.18
241.386	58.03
241.603	23.21
241.821	-5.46
242.038	90.79
242.255	109.22
242.472	23.21
242.689	60.07
242.907	51.88
243.124	-36.18
243.341	27.31
243.558	-21.85
243.775	-116.05
243.992	-103.76
244.209	107.18
244.426	115.37
244.643	33.45
244.86	12.97
245.078	139.94
245.295	58.03
245.512	37.55
245.729	43.69
245.946	115.37
246.163	29.35
246.38	64.17
246.597	96.94
246.814	86.7
247.031	37.55
247.248	43.69
247.464	88.75
247.681	12.97
247.898	19.11
248.115	127.66
248.332	-11.61
248.549	232.1
248.766	199.34
248.983	51.88
249.2	105.13
249.417	60.07
249.633	-34.13
249.85	84.65
250.067	33.45
250.284	92.84
250.501	4.78
250.717	146.09
250.934	-23.89
251.151	55.98
251.368	82.6
251.585	19.11
251.801	45.74
252.018	-15.7
252.235	228.01
252.451	12.97
252.668	62.12
252.885	2.73
253.102	133.8
253.318	51.88
253.535	45.74
253.752	21.16
253.968	0.68
254.185	-5.46
254.401	55.98
254.618	41.64
254.835	49.83
255.051	111.27
255.268	156.33
255.484	103.08
255.701	-62.8
255.917	-3.41
256.134	-21.85
256.351	82.6
256.567	-30.04
256.784	25.26
257	-60.76
257.217	29.35
257.433	76.46
257.65	51.88
257.866	82.6
258.082	-77.14
258.299	68.27
258.515	117.42
258.732	2.73
258.948	33.45
259.165	45.74
259.381	-87.38
259.597	111.27
259.814	15.02
260.03	51.88
260.246	-32.08
260.463	92.84
260.679	172.71
260.895	49.83
261.112	86.7
261.328	-77.14
261.544	-62.8
261.761	174.76
261.977	4.78
262.193	0.68
262.409	60.07
262.626	98.99
262.842	15.02
263.058	-5.46
263.274	90.79
263.49	66.22
263.707	152.23
263.923	82.6
264.139	-44.37
264.355	12.97
264.571	92.84
264.787	88.75
265.004	187.05
265.22	98.99
265.436	-1.37
265.652	-1.37
265.868	51.88
266.084	-87.38
266.3	-7.51
266.516	-36.18
266.732	37.55
266.948	37.55
267.164	4.78
267.38	107.18
267.596	25.26
267.812	162.47
268.028	103.08
268.244	19.11
268.46	-7.51
268.676	35.5
268.892	119.46
269.108	27.31
269.324	-62.8
269.54	-46.42
269.756	117.42
269.972	23.21
270.188	47.79
270.403	74.41
270.619	58.03
270.835	29.35
271.051	43.69
271.267	41.64
271.483	-60.76
271.698	60.07
271.914	37.55
272.13	27.31
272.346	10.92
272.562	78.51
272.777	101.03
272.993	29.35
273.209	-40.28
273.425	103.08
273.64	-81.24
273.856	98.99
274.072	-38.23
274.287	-7.51
274.503	53.93
274.719	129.7
274.934	6.83
275.15	-107.86
275.366	94.89
275.581	-46.42
275.797	23.21
276.012	37.55
276.228	62.12
276.444	109.22
276.659	127.66
276.875	-32.08
277.09	-62.8
277.306	-25.94
277.521	60.07
277.737	37.55
277.952	39.59
278.168	76.46
278.383	31.4
278.599	45.74
278.814	82.6
279.03	0.68
279.245	187.05
279.461	21.16
279.676	78.51
279.892	-130.39
280.107	12.97
280.322	109.22
280.538	68.27
280.753	-68.95
280.969	96.94
281.184	2.73
281.399	230.06
281.615	66.22
281.83	51.88
282.045	-97.62
282.26	4.78
282.476	66.22
282.691	64.17
282.906	45.74
283.122	88.75
283.337	-36.18
283.552	76.46
283.767	31.4
283.983	150.18
284.198	-1.37
284.413	117.42
284.628	-1.37
284.843	0.68
285.058	78.51
285.274	43.69
285.489	-19.8
285.704	90.79
285.919	-19.8
286.134	4.78
286.349	15.02
286.564	-9.56
286.779	203.43
286.995	15.02
287.21	-95.57
287.425	78.51
287.64	-3.41
287.855	68.27
288.07	0.68
288.285	47.79
288.5	195.24
288.715	88.75
288.93	19.11
289.145	-40.28
289.36	160.42
289.575	-25.94
289.79	98.99
290.004	-105.81
290.219	131.75
290.434	80.55
290.649	-40.28
290.864	-9.56
291.079	51.88
291.294	43.69
291.509	29.35
291.724	33.45
291.938	-34.13
292.153	25.26
292.368	2.73
292.583	64.17
292.798	55.98
293.012	-9.56
293.227	129.7
293.442	49.83
293.657	127.66
293.871	103.08
294.086	62.12
294.301	109.22
294.516	101.03
294.73	80.55
294.945	-38.23
295.16	-27.99
295.374	86.7
295.589	72.36
295.804	92.84
296.018	84.65
296.233	133.8
296.447	-32.08
296.662	-19.8
296.877	58.03
297.091	152.23
297.306	-50.52
297.52	21.16
297.735	41.64
297.949	101.03
298.164	0.68
298.378	25.26
298.593	-62.8
298.807	68.27
299.022	-13.65
299.236	19.11
299.451	84.65
299.665	-25.94
299.88	92.84
300.094	78.51
300.309	51.88
300.523	96.94
300.737	-7.51
300.952	74.41
301.166	45.74
301.381	12.97
301.595	-3.41
301.809	72.36
302.024	-9.56
302.238	-34.13
302.452	144.04
302.667	-25.94
302.881	55.98
303.095	101.03
303.309	47.79
303.524	0.68
303.738	96.94
303.952	21.16
304.166	117.42
304.381	-185.68
304.595	94.89
304.809	-38.23
305.023	12.97
305.237	0.68
305.452	21.16
305.666	109.22
305.88	166.57
306.094	133.8
306.308	31.4
306.522	109.22
306.736	82.6
306.95	90.79
307.164	6.83
307.379	68.27
307.593	131.75
307.807	150.18
308.021	51.88
308.235	98.99
308.449	-89.43
308.663	27.31
308.877	207.53
309.091	58.03
309.305	58.03
309.519	-52.56
309.733	117.42
309.947	-111.96
310.161	2.73
310.374	58.03
310.588	121.51
310.802	0.68
311.016	82.6
311.23	111.27
311.444	-9.56
311.658	-1.37
311.872	19.11
312.085	86.7
312.299	115.37
312.513	39.59
312.727	64.17
312.941	-46.42
313.154	43.69
313.368	21.16
313.582	55.98
313.796	82.6
314.009	23.21
314.223	68.27
314.437	133.8
314.651	158.38
314.864	-48.47
315.078	29.35
315.292	25.26
315.505	39.59
315.719	72.36
315.933	55.98
316.146	-34.13
316.36	-46.42
316.573	92.84
316.787	62.12
317.001	45.74
317.214	12.97
317.428	92.84
317.641	15.02
317.855	51.88
318.068	17.07
318.282	60.07
318.495	238.25
318.709	60.07
318.922	55.98
319.136	107.18
319.349	123.56
319.563	0.68
319.776	80.55
319.99	-56.66
320.203	94.89
320.417	4.78
320.63	115.37
320.843	182.95
321.057	43.69
321.27	-15.7
321.483	84.65
321.697	107.18
321.91	109.22
322.124	123.56
322.337	68.27
322.55	12.97
322.763	37.55
322.977	121.51
323.19	90.79
323.403	15.02
323.617	-9.56
323.83	105.13
324.043	82.6
324.256	51.88
324.469	-17.75
324.683	180.9
324.896	-3.41
325.109	125.61
325.322	-124.24
325.535	109.22
325.748	49.83
325.962	-3.41
326.175	103.08
326.388	166.57
326.601	80.55
326.814	23.21
327.027	60.07
327.24	135.85
327.453	-46.42
327.666	53.93
327.879	115.37
328.092	19.11
328.305	82.6
328.518	-5.46
328.731	37.55
328.944	-56.66
329.157	125.61
329.37	6.83
329.583	162.47
329.796	109.22
330.009	-122.2
330.222	133.8
330.435	105.13
330.648	25.26
330.861	53.93
331.073	64.17
331.286	133.8
331.499	27.31
331.712	-38.23
331.925	33.45
332.138	35.5
332.35	4.78
332.563	-50.52
332.776	125.61
332.989	25.26
333.202	43.69
333.414	86.7
333.627	68.27
333.84	-9.56
334.053	72.36
334.265	55.98
334.478	-40.28
334.691	-7.51
334.903	4.78
335.116	-1.37
335.329	55.98
335.541	35.5
335.754	195.24
335.966	17.07
336.179	86.7
336.392	39.59
336.604	-15.7
336.817	74.41
337.029	49.83
337.242	-21.85
337.454	51.88
337.667	-62.8
337.88	144.04
338.092	86.7
338.305	23.21
338.517	23.21
338.729	180.9
338.942	187.05
339.154	-13.65
339.367	-32.08
339.579	141.99
339.792	-75.09
340.004	180.9
340.217	37.55
340.429	39.59
340.641	62.12
340.854	64.17
341.066	84.65
341.278	152.23
341.491	199.34
341.703	60.07
341.915	-56.66
342.128	139.94
342.34	58.03
342.552	-85.33
342.764	12.97
342.977	107.18
343.189	47.79
343.401	-5.46
343.613	35.5
343.826	35.5
344.038	-25.94
344.25	84.65
344.462	-42.32
344.674	62.12
344.886	-95.57
345.099	45.74
345.311	21.16
345.523	66.22
345.735	-148.82
345.947	62.12
346.159	43.69
346.371	41.64
346.583	29.35
346.795	195.24
347.007	-15.7
347.219	60.07
347.431	53.93
347.643	123.56
347.855	49.83
348.067	94.89
348.279	-13.65
348.491	47.79
348.703	148.14
348.915	64.17
349.127	-27.99
349.339	-19.8
349.551	29.35
349.763	119.46
349.975	94.89
350.187	68.27
350.399	96.94
350.61	45.74
350.822	37.55
351.034	70.31
351.246	-5.46
351.458	115.37
351.669	101.03
351.881	90.79
352.093	166.57
352.305	51.88
352.517	53.93
352.728	35.5
352.94	58.03
353.152	96.94
353.363	-34.13
353.575	68.27
353.787	168.62
353.999	-9.56
354.21	217.77
354.422	-27.99
354.633	41.64
354.845	21.16
355.057	84.65
355.268	-19.8
355.48	105.13
355.692	-58.71
355.903	137.9
356.115	-50.52
356.326	-91.48
356.538	58.03
356.749	6.83
356.961	178.86
357.172	29.35
357.384	-66.9
357.595	182.95
357.807	45.74
358.018	-5.46
358.23	62.12
358.441	172.71
358.653	101.03
358.864	35.5
359.075	-5.46
359.287	10.92
359.498	72.36
359.709	70.31
359.921	68.27
360.132	78.51
360.344	144.04
360.555	29.35
360.766	29.35
360.977	41.64
361.189	115.37
361.4	-48.47
361.611	82.6
361.823	180.9
362.034	6.83
362.245	-19.8
362.456	58.03
362.667	70.31
362.879	41.64
363.09	90.79
363.301	76.46
363.512	64.17
363.723	45.74
363.935	0.68
364.146	111.27
364.357	62.12
364.568	68.27
364.779	2.73
364.99	137.9
365.201	-11.61
365.412	107.18
365.623	23.21
365.834	84.65
366.045	76.46
366.256	58.03
366.467	84.65
366.678	-3.41
366.889	-58.71
367.1	35.5
367.311	117.42
367.522	2.73
367.733	88.75
367.944	98.99
368.155	-68.95
368.366	107.18
368.577	141.99
368.788	131.75
368.999	-21.85
369.209	51.88
369.42	215.72
369.631	236.2
369.842	84.65
370.053	31.4
370.264	96.94
370.474	-91.48
370.685	119.46
370.896	43.69
371.107	119.46
371.317	49.83
371.528	-7.51
371.739	33.45
371.95	55.98
372.16	84.65
372.371	-60.76
372.582	39.59
372.792	55.98
373.003	115.37
373.214	117.42
373.424	117.42
373.635	-11.61
373.846	127.66
374.056	-46.42
374.267	17.07
374.477	10.92
374.688	4.78
374.898	94.89
375.109	98.99
375.319	82.6
375.53	158.38
375.74	80.55
375.951	39.59
376.161	115.37
376.372	84.65
376.582	-19.8
376.793	-17.75
377.003	27.31
377.214	0.68
377.424	23.21
377.635	96.94
377.845	47.79
378.055	117.42
378.266	-64.85
378.476	70.31
378.686	92.84
378.897	68.27
379.107	131.75
379.317	96.94
379.528	35.5
379.738	94.89
379.948	-30.04
380.158	84.65
380.369	129.7
380.579	90.79
380.789	-46.42
380.999	92.84
381.21	119.46
381.42	234.15
381.63	2.73
381.84	45.74
382.05	60.07
382.261	70.31
382.471	88.75
382.681	-27.99
382.891	113.32
383.101	135.85
383.311	8.87
383.521	-3.41
383.731	37.55
383.941	109.22
384.151	115.37
384.361	58.03
384.571	21.16
384.781	27.31
384.991	217.77
385.201	86.7
385.411	64.17
385.621	105.13
385.831	51.88
386.041	-9.56
386.251	-32.08
386.461	113.32
386.671	68.27
386.881	15.02
387.091	21.16
387.301	62.12
387.511	47.79
387.72	55.98
387.93	125.61
388.14	-44.37
388.35	12.97
388.56	90.79
388.769	111.27
388.979	60.07
389.189	-1.37
389.399	-25.94
389.609	109.22
389.818	101.03
390.028	117.42
390.238	160.42
390.447	-64.85
390.657	72.36
390.867	17.07
391.076	-23.89
391.286	64.17
391.496	-11.61
391.705	80.55
391.915	62.12
392.125	96.94
392.334	45.74
392.544	117.42
392.753	23.21
392.963	15.02
393.172	74.41
393.382	55.98
393.591	150.18
393.801	-19.8
394.01	213.67
394.22	131.75
394.429	53.93
394.639	43.69
394.848	125.61
395.058	86.7
395.267	74.41
395.477	58.03
395.686	31.4
395.895	164.52
396.105	209.58
396.314	88.75
396.524	31.4
396.733	84.65
396.942	101.03
397.152	88.75
397.361	127.66
397.57	31.4
397.78	96.94
397.989	80.55
398.198	178.86
398.407	-25.94
398.617	55.98
398.826	23.21
399.035	47.79
399.244	131.75
399.453	19.11
399.663	115.37
399.872	45.74
400.081	43.69
400.29	103.08
400.499	-64.85
400.708	125.61
400.917	53.93
401.127	35.5
401.336	-42.32
401.545	137.9
401.754	148.14
401.963	49.83
402.172	39.59
402.381	4.78
402.59	6.83
402.799	21.16
403.008	121.51
403.217	92.84
403.426	84.65
403.635	55.98
403.844	60.07
404.053	23.21
404.262	49.83
404.471	281.25
404.68	178.86
404.888	-60.76
405.097	53.93
405.306	55.98
405.515	92.84
405.724	43.69
405.933	84.65
406.142	148.14
406.35	215.72
406.559	25.26
406.768	117.42
406.977	154.28
407.185	-3.41
407.394	76.46
407.603	-52.56
407.812	51.88
408.02	117.42
408.229	148.14
408.438	82.6
408.646	-52.56
408.855	72.36
409.064	60.07
409.272	27.31
409.481	144.04
409.69	-60.76
409.898	31.4
410.107	43.69
410.315	115.37
410.524	96.94
410.733	39.59
410.941	98.99
411.15	101.03
411.358	166.57
411.567	166.57
411.775	41.64
411.984	39.59
412.192	115.37
412.401	8.87
412.609	187.05
412.818	146.09
413.026	-19.8
413.234	-46.42
413.443	6.83
413.651	78.51
413.86	70.31
414.068	111.27
414.276	211.62
414.485	53.93
414.693	203.43
414.901	187.05
415.11	12.97
415.318	27.31
415.526	47.79
415.734	221.86
415.943	29.35
416.151	92.84
416.359	129.7
416.567	94.89
416.776	109.22
416.984	76.46
417.192	236.2
417.4	62.12
417.608	55.98
417.817	0.68
418.025	156.33
418.233	207.53
418.441	66.22
418.649	33.45
418.857	107.18
419.065	82.6
419.273	10.92
419.481	64.17
419.689	111.27
419.897	23.21
420.105	21.16
420.313	146.09
420.521	98.99
420.729	150.18
420.937	-11.61
421.145	68.27
421.353	156.33
421.561	221.86
421.769	64.17
421.977	31.4
422.185	152.23
422.393	64.17
422.601	148.14
422.809	64.17
423.017	176.81
423.224	70.31
423.432	141.99
423.64	70.31
423.848	137.9
424.056	64.17
424.263	70.31
424.471	68.27
424.679	150.18
424.887	58.03
425.094	193.19
425.302	92.84
425.51	60.07
425.718	158.38
425.925	19.11
426.133	-5.46
426.341	228.01
426.548	6.83
426.756	92.84
426.964	92.84
427.171	39.59
427.379	101.03
427.586	62.12
427.794	162.47
428.001	250.53
428.209	64.17
428.417	137.9
428.624	125.61
428.832	156.33
429.039	86.7
429.247	125.61
429.454	127.66
429.662	248.49
429.869	185
430.076	119.46
430.284	205.48
430.491	211.62
430.699	164.52
430.906	225.96
431.114	225.96
431.321	127.66
431.528	129.7
431.736	137.9
431.943	137.9
432.15	195.24
432.358	252.58
432.565	244.39
432.772	35.5
432.979	258.73
433.187	228.01
433.394	285.35
433.601	146.09
433.808	285.35
434.016	252.58
434.223	244.39
434.43	258.73
434.637	391.84
434.844	361.13
435.052	281.25
435.259	324.26
435.466	328.36
435.673	350.89
435.88	350.89
436.087	406.18
436.294	436.9
436.501	426.66
436.708	291.49
436.915	391.84
437.122	586.4
437.329	371.37
437.537	379.56
437.743	465.57
437.95	555.68
438.157	533.15
438.364	445.09
438.571	594.59
438.778	559.78
438.985	625.31
439.192	703.14
439.399	586.4
439.606	625.31
439.813	598.69
440.02	783.01
440.227	787.1
440.433	682.66
440.64	762.53
440.847	733.86
441.054	721.57
441.261	901.79
441.467	893.6
441.674	799.39
441.881	903.84
442.088	985.76
442.294	901.79
442.501	1110.68
442.708	1086.11
442.914	993.95
443.121	1198.74
443.328	993.95
443.534	1301.14
443.741	1194.65
443.948	1112.73
444.154	1385.11
444.361	1528.47
444.568	1415.83
444.774	1444.5
444.981	1364.63
445.187	1577.62
445.394	1651.35
445.6	1530.52
445.807	1825.42
446.013	1737.36
446.22	1784.46
446.426	1860.24
446.633	2003.6
446.839	2189.96
447.046	2028.17
447.252	2335.37
447.459	2282.12
447.665	2265.74
447.871	2579.08
448.078	2636.42
448.284	2480.77
448.491	2677.38
448.697	2796.16
448.903	2953.85
449.11	3097.21
449.316	3074.68
449.522	3175.03
449.728	3347.06
449.935	3396.21
450.141	3512.95
450.347	3717.75
450.553	3736.18
450.76	3678.83
450.966	3981.93
451.172	4108.91
451.378	4407.91
451.584	4369
451.791	4571.75
451.997	4921.95
452.203	5016.16
452.409	5151.32
452.615	5444.18
452.821	5261.91
453.027	5380.7
453.233	5939.79
453.44	5900.88
453.646	6148.68
453.852	6267.47
454.058	6724.16
454.264	6859.33
454.47	7340.6
454.676	7260.73
454.882	7991.86
455.088	7748.15
455.294	8106.54
455.5	8585.77
455.705	8974.88
455.911	8882.72
456.117	9292.32
456.323	9517.59
456.529	9505.31
456.735	10428.94
456.941	10750.47
457.147	11192.83
457.352	11438.59
457.558	12069.36
457.764	12532.2
457.97	12823.01
458.176	13365.73
458.381	14082.52
458.587	14178.77
458.793	14952.9
458.999	14905.8
459.204	16898.47
459.41	17314.21
459.616	17101.22
459.821	18299.28
460.027	19231.11
460.233	19626.37
460.438	19929.47
460.644	21375.33
460.85	21356.9
461.055	22188.38
461.261	23257.42
461.466	22669.65
461.672	23091.53
461.878	25960.73
462.083	25555.24
462.289	26091.8
462.494	27160.84
462.7	27224.33
462.905	27980.03
463.111	30003.42
463.316	31400.14
463.522	31717.57
463.727	32954.55
463.932	34140.32
464.138	35383.44
464.343	36497.53
464.549	36845.69
464.754	39665.74
464.959	40357.95
465.165	41105.46
465.37	40921.15
465.575	40894.52
465.781	43378.71
465.986	44978.17
466.191	44017.67
466.397	44544
466.602	43534.35
466.807	46026.73
467.012	46319.59
467.218	47501.27
467.423	47462.36
467.628	48777.15
467.833	51445.66
468.038	50550.7
468.244	49588.15
468.449	52094.86
468.654	51189.66
468.859	51040.16
469.064	51277.72
469.269	49969.07
469.474	50616.23
469.679	51644.31
469.885	50155.44
470.09	50931.62
470.295	51183.52
470.5	49831.86
470.705	50315.18
470.91	48953.28
471.115	48570.31
471.32	49557.43
471.525	49156.03
471.73	47595.48
471.935	47824.85
472.139	45588.47
472.344	45875.18
472.549	45682.67
472.754	44720.13
472.959	43780.11
473.164	42434.6
473.369	41842.73
473.574	43053.08
473.778	42041.39
473.983	41119.8
474.188	40534.08
474.393	38883.42
474.598	38643.81
474.802	37642.35
475.007	37556.33
475.212	36806.78
475.417	35469.45
475.621	35141.78
475.826	34879.64
476.031	34042.02
476.235	33265.84
476.44	33542.31
476.645	32430.27
476.849	32374.97
477.054	31846.6
477.259	30867.67
477.463	30687.45
477.668	29563.11
477.872	29933.79
478.077	29075.69
478.282	28578.04
478.486	28225.79
478.691	27894.02
478.895	27515.14
479.1	27310.35
479.304	27085.07
479.509	26349.85
479.713	26583.32
479.918	26407.19
480.122	25618.72
480.326	25714.98
480.531	25479.46
480.735	25313.58
480.94	25014.57
481.144	25499.94
481.348	24547.64
481.553	24320.31
481.757	23687.49
481.961	24158.52
482.166	24357.17
482.37	23832.9
482.574	23474.5
482.778	23509.32
482.983	23877.95
483.187	23142.73
483.391	23062.86
483.595	22569.3
483.8	22178.14
484.004	22411.6
484.208	22208.86
484.412	21842.27
484.616	21784.93
484.821	21678.43
485.025	21031.27
485.229	21174.63
485.433	20433.27
485.637	20797.81
485.841	20318.58
486.045	19847.55
486.249	19790.2
486.453	19485.06
486.657	18897.29
486.861	19014.02
487.065	18389.39
487.269	18305.43
487.473	17639.84
487.677	17719.71
487.881	17930.65
488.085	17158.56
488.289	17078.69
488.493	16556.46
488.697	16665
488.901	16253.36
489.105	15845.82
489.309	15481.28
489.512	15327.68
489.716	14995.91
489.92	14698.95
490.124	14565.84
490.328	14451.15
490.531	13812.18
490.735	14133.72
490.939	13650.39
491.143	13138.4
491.346	12894.69
491.55	12810.73
491.754	12661.23
491.958	12597.74
492.161	12175.86
492.365	12014.07
492.569	11627
492.772	11770.36
492.976	11522.55
493.18	11420.16
493.383	11303.42
493.587	11137.54
493.79	11100.67
493.994	10695.18
494.197	10564.11
494.401	10521.1
494.605	10312.21
494.808	10447.37
495.012	10142.22
495.215	10222.09
495.419	10146.32
495.622	10134.03
495.825	9974.29
496.029	9896.47
496.232	10031.63
496.436	9808.41
496.639	9994.77
496.843	9824.79
497.046	9789.97
497.249	9996.82
497.453	9755.16
497.656	9624.09
497.859	9493.02
498.063	9808.41
498.266	9992.72
498.469	9581.08
498.673	9730.58
498.876	9699.86
499.079	9751.06
499.282	9910.8
499.485	10199.57
499.689	9947.67
499.892	10252.81
500.095	10076.69
500.298	10179.09
500.501	9908.76
500.705	10301.97
500.908	10228.24
501.111	10465.8
501.314	10498.57
501.517	10754.57
501.72	10691.08
501.923	10795.53
502.126	10969.6
502.329	11209.22
502.532	11039.23
502.735	11059.71
502.938	11430.4
503.141	11567.61
503.344	11577.85
503.547	11842.04
503.75	11831.8
503.953	11997.68
504.156	12251.63
504.359	12534.25
504.562	12364.27
504.765	12669.42
504.968	12917.22
505.17	13038.05
505.373	13185.51
505.576	13316.58
505.779	13541.85
505.982	13883.86
506.185	14328.27
506.387	14174.67
506.59	14490.06
506.793	14733.77
506.996	14899.66
507.198	15516.09
507.401	15819.19
507.604	15804.86
507.807	16138.68
508.009	16222.64
508.212	16546.22
508.415	16906.66
508.617	17611.17
508.82	17742.24
509.022	17818.01
509.225	18450.83
509.428	18721.17
509.63	19177.86
509.833	19413.38
510.035	20005.24
510.238	20517.23
510.44	20732.27
510.643	21363.04
510.845	21725.54
511.048	21907.8
511.25	22640.98
511.453	22813.01
511.655	24131.9
511.858	24086.84
512.06	24670.51
512.262	25340.2
512.465	25411.88
512.667	26538.26
512.87	26603.8
513.072	27732.23
513.274	27918.59
513.477	28723.44
513.679	29008.11
513.881	30009.57
514.084	30347.48
514.286	31074.51
514.488	31740.1
514.69	33165.49
514.893	33491.12
515.095	33882.28
515.297	34779.29
515.499	35231.89
515.701	35958.92
515.904	36782.2
516.106	37484.65
516.308	38140
516.51	38926.42
516.712	39538.77
516.914	40534.08
517.116	41166.9
517.318	42063.91
517.52	42397.73
517.722	43048.99
517.925	43745.3
518.127	44650.5
518.329	45608.95
518.531	45762.54
518.733	46976.99
518.935	47292.38
519.136	47935.44
519.338	49235.9
519.54	49653.68
519.742	50835.36
519.944	50952.1
520.146	52211.6
520.348	52664.2
520.55	53612.41
520.752	53546.87
520.954	54642.54
521.155	54751.08
521.357	55816.02
521.559	56311.63
521.761	57163.59
521.963	57106.24
522.164	57558.84
522.366	57681.72
522.568	58646.32
522.77	59303.71
522.971	59711.26
523.173	59303.71
523.375	60092.18
523.576	59651.87
523.778	60075.8
523.98	60862.22
524.181	61165.32
524.383	61042.44
524.584	61568.77
524.786	61568.77
524.988	61087.49
525.189	61826.81
525.391	61968.12
525.592	62070.52
525.794	61900.54
525.995	61968.12
526.197	61751.04
526.398	61794.04
526.6	61759.23
526.801	61587.2
527.003	61470.46
527.204	60772.11
527.406	61130.5
527.607	60618.51
527.808	61073.16
528.01	59359.01
528.211	59895.58
528.412	60051.22
528.614	59457.31
528.815	58986.28
529.016	59418.4
529.218	58033.97
529.419	57947.96
529.62	57196.35
529.822	57059.14
530.023	56057.68
530.224	56002.39
530.425	55570.27
530.626	54689.64
530.828	53878.64
531.029	54261.61
531.23	53071.74
531.431	52522.89
531.632	52141.97
531.833	51832.72
532.035	50765.73
532.236	50442.15
532.437	50239.4
532.638	48953.28
532.839	48676.8
533.04	48504.77
533.241	47046.62
533.442	47642.58
533.643	46432.23
533.844	45725.68
534.045	45230.07
534.246	44341.25
534.447	44148.74
534.648	43401.24
534.849	42536.99
535.05	42039.34
535.251	41783.34
535.451	41291.83
535.652	41011.26
535.853	40093.77
536.054	39919.69
536.255	39133.27
536.456	37900.39
536.657	38279.27
536.857	37619.82
537.058	36823.16
537.259	36718.71
537.46	36454.53
537.66	35799.18
537.861	34834.58
538.062	34537.63
538.263	34422.94
538.463	33525.93
538.664	33462.44
538.865	33061.04
539.065	33069.23
539.266	31873.22
539.466	31830.21
539.667	31230.16
539.868	31441.1
540.068	30554.33
540.269	30249.18
540.469	30236.89
540.67	29526.25
540.87	29276.4
541.071	28901.62
541.271	28770.55
541.472	27898.11
541.672	27873.54
541.873	27521.29
542.073	27371.78
542.274	27283.72
542.474	26691.86
542.675	26431.77
542.875	26071.32
543.075	25362.73
543.276	25051.44
543.476	25428.26
543.676	24647.99
543.877	25014.57
544.077	24361.27
544.277	24129.85
544.478	23867.71
544.678	23607.62
544.878	23251.27
545.078	23058.76
545.279	22896.97
545.479	22258.01
545.679	22520.15
545.879	21889.37
546.079	21916
546.28	21633.38
546.48	21021.03
546.68	21350.76
546.88	20894.06
547.08	20613.49
547.28	20347.25
547.48	20171.13
547.68	19974.52
547.88	19448.19
548.081	19532.16
548.281	19048.84
548.481	18835.85
548.681	18839.95
548.881	18207.12
549.081	18229.65
549.28	17701.28
549.48	17813.91
549.68	17428.9
549.88	17480.1
550.08	16902.57
550.28	16941.48
550.48	16523.69
550.68	16482.74
550.88	15952.31
551.08	15868.34
551.279	15886.78
551.479	15352.26
551.679	15325.63
551.879	14774.73
552.079	14807.5
552.278	14463.44
552.478	14320.08
552.678	14186.96
552.878	14080.47
553.077	13818.33
553.277	13410.78
553.477	13361.63
553.676	13165.03
553.876	12904.93
554.076	12470.76
554.275	12546.54
554.475	12155.38
554.674	12231.15
554.874	11999.73
555.074	11559.42
555.273	11610.62
555.473	11516.41
555.672	11235.84
555.872	10848.77
556.071	10938.88
556.271	10840.58
556.47	10623.5
556.67	10304.01
556.869	10127.89
557.068	10041.87
557.268	9800.21
557.467	9626.14
557.667	9495.07
557.866	9687.57
558.065	9124.38
558.265	9167.39
558.464	8880.68
558.663	8798.76
558.863	8559.14
559.062	8671.78
559.261	8325.68
559.461	8360.49
559.66	8024.62
559.859	7944.75
560.058	8034.86
560.258	7565.88
560.457	7590.45
560.656	7737.91
560.855	7361.08
561.054	7471.67
561.253	7172.67
561.453	7080.51
561.652	7088.7
561.851	7166.53
562.05	6601.29
562.249	6574.66
562.448	6617.67
562.647	6369.87
562.846	6416.97
563.045	6316.62
563.244	6347.34
563.443	6173.26
563.642	5904.98
563.841	5962.32
564.04	5954.13
564.239	5806.67
564.438	5616.21
564.637	5538.39
564.836	5630.55
565.035	5376.6
565.234	5276.25
565.432	5139.04
565.631	5288.54
565.83	5147.23
566.029	4975.2
566.228	5048.93
566.427	5026.4
566.625	4708.96
566.824	4844.13
567.023	4788.83
567.222	4543.08
567.42	4516.45
567.619	4444.77
567.818	4471.4
568.016	4483.69
568.215	4430.44
568.414	4160.11
568.612	4317.8
568.811	4127.34
569.01	4043.37
569.208	4072.04
569.407	4059.76
569.605	3832.43
569.804	3893.87
570.002	3846.77
570.201	3701.36
570.4	3738.23
570.598	3713.65
570.797	3558
570.995	3400.31
571.193	3500.66
571.392	3484.28
571.59	3304.06
571.789	3406.45
571.987	3281.53
572.186	3502.71
572.384	3172.99
572.582	3240.57
572.781	3250.81
572.979	2964.09
573.177	3046.01
573.376	2984.57
573.574	3035.77
573.772	2796.16
573.971	2787.97
574.169	2714.24
574.367	2826.88
574.565	2783.87
574.763	2718.34
574.962	2697.86
575.16	2544.26
575.358	2579.08
575.556	2464.39
575.754	2538.12
575.952	2577.03
576.151	2472.58
576.349	2378.37
576.547	2198.15
576.745	2216.58
576.943	2206.34
577.141	2245.26
577.339	2230.92
577.537	2173.58
577.735	2249.35
577.933	2054.8
578.131	1929.87
578.329	2142.86
578.527	1974.92
578.725	2065.04
578.923	1864.33
579.121	1954.44
579.319	1735.31
579.516	1850
579.714	1911.44
579.912	1821.33
580.11	1700.5
580.308	1761.94
580.506	1639.06
580.704	1573.52
580.901	1583.76
581.099	1788.56
581.297	1665.68
581.495	1520.28
581.692	1622.67
581.89	1815.18
582.088	1581.71
582.285	1430.16
582.483	1530.52
582.681	1557.14
582.878	1378.97
583.076	1428.12
583.274	1378.97
583.471	1577.62
583.669	1383.06
583.866	1251.99
584.064	1342.1
584.262	1180.31
584.459	1229.46
584.657	1227.42
584.854	1366.68
585.052	1206.94
585.249	1247.9
585.447	1159.83
585.644	1041.05
585.841	1315.48
586.039	1200.79
586.236	1200.79
586.434	1141.4
586.631	1049.24
586.828	1039
587.026	1053.34
587.223	1008.28
587.42	1090.2
587.618	1077.91
587.815	1075.87
588.012	977.56
588.21	981.66
588.407	1163.93
588.604	1059.48
588.801	901.79
588.999	924.32
589.196	1045.15
589.393	940.7
589.59	862.88
589.787	946.84
589.984	932.51
590.182	1000.09
590.379	799.39
590.576	909.98
590.773	907.93
590.97	819.87
591.167	1004.19
591.364	905.88
591.561	846.49
591.758	961.18
591.955	1000.09
592.152	836.25
592.349	866.97
592.546	866.97
592.743	895.64
592.94	780.96
593.137	821.92
593.334	907.93
593.531	946.84
593.727	938.65
593.924	926.36
594.121	877.21
594.318	803.49
594.515	948.89
594.712	946.84
594.908	887.45
595.105	887.45
595.302	983.71
595.499	914.08
595.696	1041.05
595.892	983.71
596.089	1030.81
596.286	946.84
596.482	1172.12
596.679	1022.62
596.876	1049.24
597.072	1122.97
597.269	1139.35
597.466	1266.33
597.662	1237.66
597.859	1213.08
598.055	1251.99
598.252	1307.29
598.448	1329.81
598.645	1383.06
598.841	1501.84
599.038	1575.57
599.234	1596.05
599.431	1581.71
599.627	1700.5
599.824	1755.79
600.02	1854.09
600.217	1831.57
600.413	1899.15
600.609	2058.89
600.806	2335.37
601.002	2263.69
601.198	2257.54
601.395	2349.7
601.591	2450.05
601.787	2636.42
601.984	2638.47
602.18	2701.95
602.376	2710.15
602.572	3037.82
602.769	3031.68
602.965	3132.03
603.161	3308.15
603.357	3381.88
603.553	3523.19
603.75	3562.1
603.946	3562.1
604.142	3936.88
604.338	3998.32
604.534	3918.45
604.73	4194.92
604.926	4334.18
605.122	4610.66
605.318	4737.63
605.514	4848.22
605.71	4901.47
605.906	5122.65
606.102	5100.12
606.298	5732.95
606.494	5636.69
606.69	5833.3
606.886	6079.05
607.082	5943.89
607.278	6224.46
607.474	6353.48
607.67	6883.91
607.866	6664.77
608.062	7184.96
608.257	7328.31
608.453	7438.91
608.649	7641.65
608.845	7871.03
609.041	8047.15
609.236	8315.44
609.432	8532.52
609.628	8743.46
609.824	9120.29
610.019	9114.14
610.215	9503.26
610.411	9814.55
610.606	9894.42
610.802	10281.49
610.998	10537.48
611.193	10826.25
611.389	10766.85
611.584	11256.32
611.78	11317.76
611.976	11784.69
612.171	12188.14
612.367	12591.59
612.562	12861.93
612.758	13318.62
612.953	13418.97
613.149	13709.79
613.344	14414.29
613.539	14852.55
613.735	15061.44
613.93	15526.33
614.126	15862.2
614.321	16404.91
614.517	16796.07
614.712	17357.22
614.907	17494.43
615.103	18131.35
615.298	18209.17
615.493	19071.37
615.688	19329.41
615.884	20113.78
616.079	20128.12
616.274	21307.75
616.47	21350.76
616.665	22051.16
616.86	22450.52
617.055	23028.04
617.25	23499.08
617.445	24428.85
617.641	24435
617.836	25727.27
618.031	25796.9
618.226	27339.02
618.421	27412.74
618.616	28033.28
618.811	28487.93
619.006	29485.29
619.201	29579.5
619.396	30769.37
619.591	31025.36
619.786	31998.15
619.981	32196.8
620.176	33581.23
620.371	34017.44
620.566	34623.64
620.761	35715.21
620.956	36376.7
621.151	36655.23
621.346	37754.99
621.541	37634.16
621.735	39168.08
621.93	39225.43
622.125	40282.18
622.32	40529.98
622.515	41476.15
622.709	42453.03
622.904	43081.75
623.099	43487.25
623.294	44687.36
623.488	45514.74
623.683	46350.31
623.878	46532.58
624.072	47538.13
624.267	48363.46
624.462	49033.15
624.656	49416.12
624.851	50700.2
625.046	51089.31
625.24	51806.1
625.435	51955.6
625.629	53088.13
625.824	53526.39
626.018	54519.66
626.213	54374.25
626.407	55854.93
626.602	55992.15
626.796	56837.96
626.991	57229.12
627.185	57655.1
627.38	57900.86
627.574	58328.88
627.768	58728.23
627.963	58761
628.157	58466.09
628.352	59414.3
628.546	58517.29
628.74	59428.64
628.935	58984.23
629.129	59354.91
629.323	58462
629.517	58658.6
629.712	58378.03
629.906	57931.57
630.1	57198.4
630.294	57061.19
630.489	56239.95
630.683	55881.56
630.877	54513.51
631.071	53956.47
631.265	53129.09
631.459	52207.5
631.653	51036.06
631.848	50229.16
632.042	49024.96
632.236	48308.17
632.43	46280.68
632.624	45772.78
632.818	44115.98
633.012	42977.31
633.206	41938.99
633.4	40767.55
633.594	38697.05
633.788	38348.9
633.982	36714.62
634.176	35326.1
634.369	33937.57
634.563	32450.75
634.757	31342.8
634.951	30548.18
635.145	29356.27
635.339	28319.99
635.533	26929.42
635.726	26261.79
635.92	24639.79
636.114	23826.75
636.308	22909.26
636.501	22247.77
636.695	21404
636.889	20062.58
637.083	19556.74
637.276	18743.69
637.47	17916.31
637.664	17129.89
637.857	16333.23
638.051	15804.86
638.244	15069.64
638.438	14580.17
638.632	13941.21
638.825	13339.1
639.019	13099.49
639.212	12175.86
639.406	11901.43
639.599	11614.71
639.793	10996.23
639.986	10551.82
640.18	10207.76
640.373	9658.9
640.567	9312.8
640.76	9079.33
640.954	8794.66
641.147	8286.76
641.34	8143.41
641.534	7797.3
641.727	7621.17
641.92	7168.57
642.114	6969.92
642.307	6709.83
642.5	6484.55
642.694	6056.53
642.887	5970.51
643.08	5943.89
643.273	5519.96
643.467	5311.07
643.66	5102.17
643.853	4799.07
644.046	4837.98
644.239	4557.41
644.432	4422.25
644.626	4029.04
644.819	3906.16
645.012	3975.79
645.205	3758.71
645.398	3666.55
645.591	3424.89
645.784	3232.38
645.977	3228.28
646.17	3056.25
646.363	2935.42
646.556	2747.01
646.749	2753.15
646.942	2634.37
647.135	2626.18
647.328	2435.72
647.521	2407.05
647.714	2280.07
647.907	2259.59
648.099	2118.28
648.292	2013.84
648.485	1933.97
648.678	1770.13
648.871	1802.9
649.064	1632.91
649.256	1657.49
649.449	1579.67
649.642	1505.94
649.835	1467.03
650.027	1395.35
650.22	1464.98
650.413	1354.39
650.605	1397.4
650.798	1217.18
650.991	1225.37
651.183	1295
651.376	1147.55
651.568	1178.26
651.761	1024.67
651.954	1120.92
652.146	981.66
652.339	959.13
652.531	989.85
652.724	901.79
652.916	854.69
653.109	758.43
653.301	760.48
653.494	950.94
653.686	807.58
653.879	815.77
654.071	789.15
654.263	639.65
654.456	668.32
654.648	805.53
654.84	733.86
655.033	625.31
655.225	678.56
655.417	541.35
655.61	703.14
655.802	658.08
655.994	676.51
656.186	531.11
656.379	623.27
656.571	551.59
656.763	416.42
656.955	518.82
657.148	506.53
657.34	547.49
657.532	469.67
657.724	496.29
657.916	373.41
658.108	551.59
658.3	455.33
658.492	455.33
658.684	369.32
658.876	461.48
659.068	281.25
659.26	287.4
659.452	301.73
659.644	457.38
659.836	524.96
660.028	297.64
660.22	258.73
660.412	367.27
660.604	303.78
660.796	387.75
660.988	400.04
661.18	357.03
661.372	406.18
661.563	322.21
661.755	303.78
661.947	234.15
662.139	281.25
662.331	273.06
662.522	273.06
662.714	187.05
662.906	242.34
663.097	256.68
663.289	205.48
663.481	98.99
663.673	305.83
663.864	174.76
664.056	291.49
664.247	221.86
664.439	311.97
664.631	309.93
664.822	318.12
665.014	246.44
665.205	135.85
665.397	158.38
665.588	230.06
665.78	223.91
665.971	295.59
666.163	162.47
666.354	215.72
666.546	242.34
666.737	223.91
666.929	125.61
667.12	135.85
667.311	275.11
667.503	191.14
667.694	293.54
667.885	185
668.077	291.49
668.268	68.27
668.459	201.38
668.651	176.81
668.842	234.15
669.033	178.86
669.224	240.29
669.416	418.47
669.607	182.95
669.798	125.61
669.989	307.88
670.18	180.9
670.371	240.29
670.563	166.57
670.754	273.06
670.945	258.73
671.136	238.25
671.327	217.77
671.518	246.44
671.709	361.13
671.9	256.68
672.091	242.34
672.282	254.63
672.473	240.29
672.664	115.37
672.855	219.82
673.046	297.64
673.237	262.82
673.428	225.96
673.619	211.62
673.809	131.75
674	266.92
674.191	234.15
674.382	168.62
674.573	105.13
674.764	154.28
674.954	279.21
675.145	197.29
675.336	172.71
675.527	217.77
675.717	156.33
675.908	180.9
676.099	162.47
676.289	217.77
676.48	187.05
676.671	225.96
676.861	164.52
677.052	301.73
677.243	211.62
677.433	197.29
677.624	301.73
677.814	238.25
678.005	283.3
678.195	330.41
678.386	185
678.576	256.68
678.767	215.72
678.957	287.4
679.148	363.17
679.338	330.41
679.529	250.53
679.719	240.29
679.909	318.12
680.1	232.1
680.29	316.07
680.481	213.67
680.671	277.16
680.861	365.22
681.052	230.06
681.242	215.72
681.432	307.88
681.622	285.35
681.813	264.87
682.003	273.06
682.193	275.11
682.383	285.35
682.573	287.4
682.764	268.97
682.954	295.59
683.144	344.74
683.334	260.77
683.524	287.4
683.714	418.47
683.904	340.65
684.094	279.21
684.284	373.41
684.474	504.48
684.664	357.03
684.854	293.54
685.044	291.49
685.234	236.2
685.424	238.25
685.614	289.45
685.804	524.96
685.994	367.27
686.184	350.89
686.374	307.88
686.564	238.25
686.753	234.15
686.943	213.67
687.133	340.65
687.323	240.29
687.513	324.26
687.702	354.98
687.892	277.16
688.082	330.41
688.272	410.28
688.461	287.4
688.651	486.05
688.841	340.65
689.03	348.84
689.22	260.77
689.41	418.47
689.599	369.32
689.789	236.2
689.979	459.43
690.168	238.25
690.358	301.73
690.547	277.16
690.737	316.07
690.926	397.99
691.116	330.41
691.305	424.61
691.495	281.25
691.684	275.11
691.874	236.2
692.063	328.36
692.252	330.41
692.442	307.88
692.631	264.87
692.82	322.21
693.01	293.54
693.199	158.38
693.388	354.98
693.578	295.59
693.767	418.47
693.956	252.58
694.146	244.39
694.335	225.96
694.524	219.82
694.713	293.54
694.902	307.88
695.092	217.77
695.281	301.73
695.47	236.2
695.659	301.73
695.848	225.96
696.037	232.1
696.226	297.64
696.415	193.19
696.604	316.07
696.793	340.65
696.982	301.73
697.171	379.56
697.36	238.25
697.549	225.96
697.738	199.34
697.927	223.91
698.116	166.57
698.305	248.49
698.494	273.06
698.683	150.18
698.872	363.17
699.061	230.06
699.25	223.91
699.438	301.73
699.627	197.29
699.816	354.98
700.005	191.14
700.193	264.87
700.382	230.06
700.571	275.11
700.76	279.21
700.948	307.88
701.137	373.41
701.326	305.83
701.514	178.86
701.703	264.87
701.892	123.56
702.08	424.61
702.269	281.25
702.457	211.62
702.646	316.07
702.834	252.58
703.023	266.92
703.212	256.68
703.4	182.95
703.589	277.16
703.777	148.14
703.965	197.29
704.154	170.66
704.342	144.04
704.531	271.01
704.719	168.62
704.907	309.93
705.096	166.57
705.284	209.58
705.472	291.49
705.661	287.4
705.849	402.08
706.037	297.64
706.226	189.1
706.414	209.58
706.602	117.42
706.79	277.16
706.979	203.43
707.167	178.86
707.355	150.18
707.543	271.01
707.731	213.67
707.919	203.43
708.107	242.34
708.296	150.18
708.484	185
708.672	256.68
708.86	264.87
709.048	246.44
709.236	178.86
709.424	258.73
709.612	199.34
709.8	131.75
709.988	252.58
710.176	266.92
710.364	328.36
710.551	152.23
710.739	219.82
710.927	166.57
711.115	209.58
711.303	213.67
711.491	348.84
711.679	193.19
711.866	285.35
712.054	203.43
712.242	228.01
712.43	344.74
712.617	260.77
712.805	318.12
712.993	254.63
713.181	205.48
713.368	289.45
713.556	303.78
713.744	219.82
713.931	338.6
714.119	211.62
714.306	264.87
714.494	289.45
714.682	297.64
714.869	225.96
715.057	228.01
715.244	199.34
715.432	180.9
715.619	266.92
715.807	221.86
715.994	166.57
716.182	189.1
716.369	363.17
716.556	314.02
716.744	211.62
716.931	123.56
717.119	215.72
717.306	185
717.493	309.93
717.681	213.67
717.868	191.14
718.055	277.16
718.242	156.33
718.43	283.3
718.617	330.41
718.804	178.86
718.991	352.93
719.179	164.52
719.366	287.4
719.553	285.35
719.74	236.2
719.927	223.91
720.114	248.49
720.301	197.29
720.488	156.33
720.676	199.34
720.863	303.78
721.05	428.71
721.237	301.73
721.424	291.49
721.611	344.74
721.798	203.43
721.985	258.73
722.172	238.25
722.358	182.95
722.545	334.5
722.732	340.65
722.919	279.21
723.106	293.54
723.293	279.21
723.48	219.82
723.667	334.5
723.853	309.93
724.04	287.4
724.227	285.35
724.414	277.16
724.6	258.73
724.787	385.7
724.974	397.99
725.161	240.29
725.347	176.81
725.534	252.58
725.72	295.59
725.907	357.03
726.094	322.21
726.28	180.9
726.467	207.53
726.653	205.48
726.84	293.54
727.027	365.22
727.213	246.44
727.4	342.69
727.586	215.72
727.773	326.31
727.959	285.35
728.145	289.45
728.332	244.39
728.518	268.97
728.705	348.84
728.891	242.34
729.077	217.77
729.264	238.25
729.45	311.97
729.636	309.93
729.823	289.45
730.009	277.16
730.195	303.78
730.382	404.13
730.568	199.34
730.754	326.31
730.94	301.73
731.126	258.73
731.313	289.45
731.499	246.44
731.685	330.41
731.871	242.34
732.057	293.54
732.243	365.22
732.429	342.69
732.615	400.04
732.801	350.89
732.987	268.97
733.173	266.92
733.359	230.06
733.545	246.44
733.731	271.01
733.917	314.02
734.103	250.53
734.289	397.99
734.475	277.16
734.661	381.6
734.847	357.03
735.033	268.97
735.219	283.3
735.404	287.4
735.59	271.01
735.776	287.4
735.962	314.02
736.148	377.51
736.333	352.93
736.519	291.49
736.705	291.49
736.89	328.36
737.076	291.49
737.262	252.58
737.447	256.68
737.633	209.58
737.819	348.84
738.004	256.68
738.19	316.07
738.375	330.41
738.561	303.78
738.747	271.01
738.932	236.2
739.118	484
739.303	314.02
739.489	326.31
739.674	303.78
739.859	252.58
740.045	316.07
740.23	328.36
740.416	152.23
740.601	305.83
740.786	293.54
740.972	203.43
741.157	281.25
741.342	244.39
741.528	232.1
741.713	383.65
741.898	297.64
742.084	246.44
742.269	303.78
742.454	344.74
742.639	373.41
742.824	244.39
743.01	344.74
743.195	420.52
743.38	309.93
743.565	285.35
743.75	258.73
743.935	334.5
744.12	426.66
744.305	217.77
744.49	268.97
744.675	256.68
744.86	232.1
745.045	336.55
745.23	248.49
745.415	307.88
745.6	373.41
745.785	291.49
745.97	357.03
746.155	318.12
746.34	369.32
746.525	332.45
746.71	416.42
746.895	164.52
747.079	152.23
747.264	234.15
747.449	303.78
747.634	359.08
747.819	324.26
748.003	244.39
748.188	238.25
748.373	318.12
748.557	264.87
748.742	244.39
748.927	199.34
749.111	232.1
749.296	293.54
749.481	318.12
749.665	322.21
749.85	129.7
750.034	299.69
750.219	250.53
750.404	225.96
750.588	301.73
750.773	150.18
750.957	295.59
751.141	219.82
751.326	242.34
751.51	156.33
751.695	148.14
751.879	141.99
752.064	348.84
752.248	207.53
752.432	385.7
752.617	289.45
752.801	309.93
752.985	193.19
753.17	326.31
753.354	205.48
753.538	205.48
753.722	127.66
753.907	107.18
754.091	135.85
754.275	221.86
754.459	107.18
754.643	70.31
754.828	230.06
755.012	289.45
755.196	162.47
755.38	197.29
755.564	158.38
755.748	119.46
755.932	244.39
756.116	201.38
756.3	213.67
756.484	223.91
756.668	254.63
756.852	98.99
757.036	189.1
757.22	248.49
757.404	174.76
757.588	94.89
757.772	223.91
757.956	129.7
758.14	350.89
758.323	88.75
758.507	201.38
758.691	139.94
758.875	197.29
759.059	211.62
759.242	168.62
759.426	215.72
759.61	139.94
759.794	94.89
759.977	217.77
760.161	344.74
760.345	232.1
760.528	252.58
760.712	144.04
760.895	203.43
761.079	182.95
761.263	125.61
761.446	160.42
761.63	162.47
761.813	242.34
761.997	35.5
762.18	101.03
762.364	223.91
762.547	33.45
762.731	137.9
762.914	117.42
763.098	72.36
763.281	176.81
763.464	105.13
763.648	119.46
763.831	109.22
764.015	86.7
764.198	205.48
764.381	162.47
764.564	148.14
764.748	154.28
764.931	158.38
765.114	121.51
765.297	205.48
765.481	25.26
765.664	86.7
765.847	51.88
766.03	223.91
766.213	-44.37
766.397	189.1
766.58	45.74
766.763	133.8
766.946	31.4
767.129	121.51
767.312	82.6
767.495	98.99
767.678	103.08
767.861	164.52
768.044	117.42
768.227	64.17
768.41	72.36
768.593	37.55
768.776	125.61
768.959	17.07
769.142	283.3
769.324	55.98
769.507	53.93
769.69	84.65
769.873	115.37
770.056	289.45
770.239	96.94
770.421	131.75
770.604	70.31
770.787	58.03
770.97	125.61
771.152	76.46
771.335	185
771.518	31.4
771.7	162.47
771.883	266.92
772.066	129.7
772.248	236.2
772.431	209.58
772.613	152.23
772.796	53.93
772.978	154.28
773.161	236.2
773.343	103.08
773.526	82.6
773.708	35.5
773.891	10.92
774.073	35.5
774.256	107.18
774.438	180.9
774.621	33.45
774.803	4.78
774.985	17.07
775.168	187.05
775.35	19.11
775.532	154.28
775.715	92.84
775.897	88.75
776.079	68.27
776.261	72.36
776.444	55.98
776.626	92.84
776.808	103.08
776.99	12.97
777.173	-5.46
777.355	15.02
777.537	94.89
777.719	98.99
777.901	68.27
778.083	23.21
778.265	-27.99
778.447	125.61
778.629	6.83
778.811	6.83
778.993	166.57
779.175	111.27
779.357	17.07
779.539	-19.8
779.721	43.69
779.903	8.87
780.085	17.07
780.267	64.17
780.449	88.75
780.631	164.52
780.812	148.14
780.994	78.51
781.176	6.83
781.358	-9.56
781.54	-19.8
781.721	74.41
781.903	123.56
782.085	107.18
782.267	127.66
782.448	-46.42
782.63	-48.47
782.812	27.31
782.993	78.51
783.175	146.09
783.357	4.78
783.538	23.21
783.72	-11.61
783.901	98.99
784.083	49.83
784.264	90.79
784.446	-27.99
784.627	29.35
784.809	82.6
784.99	51.88
785.172	74.41
785.353	76.46
785.535	45.74
785.716	-7.51
785.897	-142.68
786.079	39.59
786.26	76.46
786.441	103.08
786.623	-79.19
786.804	-17.75
786.985	88.75
787.167	39.59
787.348	10.92
787.529	33.45
787.71	152.23
787.891	135.85
788.073	29.35
788.254	-19.8
788.435	156.33
788.616	88.75
788.797	-3.41
788.978	29.35
789.159	2.73
789.34	117.42
789.522	-5.46
789.703	127.66
789.884	37.55
790.065	-17.75
790.246	182.95
790.427	6.83
790.607	211.62
790.788	129.7
790.969	-21.85
791.15	74.41
791.331	-15.7
791.512	0.68
791.693	-19.8
791.874	-48.47
792.054	187.05
792.235	74.41
792.416	-1.37
792.597	-34.13
792.778	101.03
792.958	115.37
793.139	119.46
793.32	31.4
793.5	-27.99
793.681	113.32
793.862	-1.37
794.042	58.03
794.223	-64.85
794.404	-15.7
794.584	-79.19
794.765	12.97
794.945	43.69
795.126	-1.37
795.306	84.65
795.487	-15.7
795.667	-13.65
795.848	-32.08
796.028	37.55
796.209	-1.37
796.389	129.7
796.57	60.07
796.75	-46.42
796.93	-15.7
797.111	-27.99
797.291	25.26
797.471	86.7
797.652	-109.91
797.832	-23.89
798.012	80.55
798.192	-62.8
798.373	-46.42
798.553	-21.85
798.733	66.22
798.913	25.26
799.093	-83.28
799.274	4.78
799.454	78.51
799.634	68.27
799.814	45.74
799.994	125.61
800.174	76.46
800.354	21.16
800.534	-54.61
800.714	41.64
800.894	-58.71
801.074	-118.1
801.254	27.31
801.434	158.38
801.614	-1.37
801.794	-62.8
801.974	1624.72
802.154	-62.8
802.334	90.79
802.514	-56.66
802.693	47.79
802.873	-54.61
803.053	19.11
803.233	58.03
803.413	94.89
803.592	-95.57
803.772	-23.89
803.952	35.5
804.131	-52.56
804.311	37.55
804.491	35.5
804.67	-36.18
804.85	-32.08
805.03	62.12
805.209	119.46
805.389	-38.23
805.568	-64.85
805.748	8.87
805.928	70.31
806.107	62.12
806.287	0.68
806.466	43.69
806.646	-1.37
806.825	25.26
807.004	58.03
807.184	27.31
807.363	49.83
807.543	-38.23
807.722	-79.19
807.901	129.7
808.081	45.74
808.26	-122.2
808.439	-52.56
808.619	-38.23
808.798	-48.47
808.977	-9.56
809.156	17.07
809.336	82.6
809.515	51.88
809.694	-79.19
809.873	-36.18
810.052	72.36
810.231	72.36
810.411	-5.46
810.59	101.03
810.769	-44.37
810.948	60.07
811.127	-68.95
811.306	-40.28
811.485	-52.56
811.664	103.08
811.843	55.98
812.022	103.08
812.201	-38.23
812.38	27.31
812.559	-101.72
812.737	82.6
812.916	-87.38
813.095	-89.43
813.274	53.93
813.453	62.12
813.632	55.98
813.811	58.03
813.989	-81.24
814.168	47.79
814.347	-52.56
814.526	47.79
814.704	113.32
814.883	129.7
815.062	-1.37
815.24	49.83
815.419	-32.08
815.598	82.6
815.776	-83.28
815.955	35.5
816.133	-99.67
816.312	47.79
816.49	-48.47
816.669	-64.85
816.847	8.87
817.026	82.6
817.204	62.12
817.383	-7.51
817.561	-60.76
817.74	8.87
817.918	6.83
818.097	-50.52
818.275	-66.9
818.453	4.78
818.632	41.64
818.81	-50.52
818.988	-21.85
819.167	45.74
819.345	19.11
819.523	-75.09
819.701	2.73
819.879	105.13
820.058	-36.18
820.236	45.74
820.414	-30.04
820.592	27.31
820.77	4.78
820.948	-15.7
821.127	-71
821.305	0.68
821.483	23.21
821.661	88.75
821.839	37.55
822.017	-71
822.195	-120.15
822.373	152.23
822.551	-21.85
822.729	152.23
822.907	8.87
823.085	41.64
823.262	-7.51
823.44	-107.86
823.618	-46.42
823.796	-36.18
823.974	2.73
824.152	-13.65
824.329	-116.05
824.507	8.87
824.685	37.55
824.863	-36.18
825.04	0.68
825.218	103.08
825.396	27.31
825.574	-34.13
825.751	51.88
825.929	60.07
826.107	-13.65
826.284	-1.37
826.462	94.89
826.639	-62.8
826.817	-95.57
826.994	35.5
827.172	-21.85
827.349	103.08
827.527	-13.65
827.704	55.98
827.882	43.69
828.059	55.98
828.237	-13.65
828.414	47.79
828.591	-120.15
828.769	-3.41
828.946	-66.9
829.124	55.98
829.301	64.17
829.478	-21.85
829.655	49.83
829.833	4.78
830.01	-134.48
830.187	76.46
830.364	8.87
830.542	25.26
830.719	103.08
830.896	111.27
831.073	31.4
831.25	58.03
831.427	-48.47
831.604	0.68
831.782	-83.28
831.959	76.46
832.136	-62.8
832.313	8.87
832.49	-50.52
832.667	29.35
832.844	-25.94
833.021	88.75
833.198	-48.47
833.374	-54.61
833.551	51.88
833.728	-7.51
833.905	76.46
834.082	-68.95
834.259	33.45
834.436	117.42
834.612	17.07
834.789	-27.99
834.966	-21.85
835.143	29.35
835.319	-52.56
835.496	60.07
835.673	-32.08
835.85	35.5
836.026	37.55
836.203	39.59
836.38	-19.8
836.556	-3.41
836.733	-66.9
836.909	123.56
837.086	-95.57
837.262	-103.76
837.439	-21.85
837.616	-66.9
837.792	-54.61
837.968	-7.51
838.145	33.45
838.321	-21.85
838.498	78.51
838.674	-54.61
838.851	27.31
839.027	-71
839.203	4.78
839.38	0.68
839.556	-83.28
839.732	78.51
839.909	23.21
840.085	-38.23
840.261	-60.76
840.437	-30.04
840.614	-62.8
840.79	45.74
840.966	62.12
841.142	45.74
841.318	25.26
841.494	39.59
841.671	72.36
841.847	-95.57
842.023	-118.1
842.199	125.61
842.375	127.66
842.551	-136.53
842.727	-140.63
842.903	154.28
843.079	-40.28
843.255	98.99
843.431	-15.7
843.607	2.73
843.783	-183.63
843.959	10.92
844.134	-50.52
844.31	25.26
844.486	-13.65
844.662	-99.67
844.838	-34.13
845.013	51.88
845.189	121.51
845.365	-3.41
845.541	4.78
845.716	2.73
845.892	107.18
846.068	-95.57
846.244	-46.42
846.419	23.21
846.595	-81.24
846.77	-32.08
846.946	39.59
847.122	-75.09
847.297	-58.71
847.473	66.22
847.648	-103.76
847.824	78.51
847.999	-157.01
848.175	-17.75
848.35	6.83
848.526	47.79
848.701	15.02
848.876	66.22
849.052	109.22
849.227	-36.18
849.403	-42.32
849.578	-19.8
849.753	39.59
849.929	27.31
850.104	-32.08
850.279	-5.46
850.454	51.88
850.63	51.88
850.805	35.5
850.98	78.51
851.155	-1.37
851.33	-32.08
851.505	-48.47
851.681	39.59
851.856	-138.58
852.031	-13.65
852.206	21.16
852.381	-9.56
852.556	-3.41
852.731	6.83
852.906	152.23
853.081	103.08
853.256	162.47
853.431	-21.85
853.606	0.68
853.781	-7.51
853.956	-101.72
854.131	78.51
854.305	-44.37
854.48	-52.56
854.655	-87.38
854.83	-19.8
855.005	2.73
855.18	-17.75
855.354	-42.32
855.529	4.78
855.704	-54.61
855.879	123.56
856.053	-54.61
856.228	45.74
856.403	-114
856.577	-23.89
856.752	-85.33
856.926	37.55
857.101	47.79
857.276	-17.75
857.45	-30.04
857.625	27.31
857.799	0.68
857.974	17.07
858.148	-40.28
858.323	-23.89
858.497	-23.89
858.672	-36.18
858.846	-11.61
859.02	-3.41
859.195	-83.28
859.369	-87.38
859.543	82.6
859.718	-48.47
859.892	19.11
860.066	-3.41
860.241	-42.32
860.415	-5.46
860.589	-21.85
860.763	-36.18
860.938	21.16
861.112	2.73
861.286	2.73
861.46	74.41
861.634	-5.46
861.808	23.21
861.982	-5.46
862.157	-93.52
862.331	-73.04
862.505	-95.57
862.679	-62.8
862.853	-30.04
863.027	-48.47
863.201	162.47
863.375	-54.61
863.549	88.75
863.722	21.16
863.896	109.22
864.07	-48.47
864.244	68.27
864.418	129.7
864.592	12.97
864.766	-1.37
864.939	-44.37
865.113	-95.57
865.287	-7.51
865.461	-42.32
865.634	-3.41
865.808	-30.04
865.982	15.02
866.156	-71
866.329	-58.71
866.503	19.11
866.676	66.22
866.85	-1.37
867.024	10.92
867.197	-15.7
867.371	96.94
867.544	33.45
867.718	-138.58
867.891	68.27
868.065	-173.39
868.238	19.11
868.412	64.17
868.585	37.55
868.759	-101.72
868.932	-21.85
869.105	-99.67
869.279	-3.41
869.452	-50.52
869.625	33.45
869.799	39.59
869.972	-52.56
870.145	-34.13
870.319	51.88
870.492	-58.71
870.665	-13.65
870.838	-50.52
871.011	-132.44
871.185	-111.96
871.358	21.16
871.531	6.83
871.704	-42.32
871.877	15.02
872.05	-34.13
872.223	-87.38
872.396	6.83
872.569	23.21
872.742	-68.95
872.915	68.27
873.088	-13.65
873.261	-52.56
873.434	2.73
873.607	-21.85
873.78	121.51
873.953	-81.24
874.126	-5.46
874.299	35.5
874.471	-71
874.644	-46.42
874.817	68.27
874.99	137.9
875.163	49.83
875.335	-25.94
875.508	35.5
875.681	84.65
875.853	-68.95
876.026	-58.71
876.199	-21.85
876.371	43.69
876.544	19.11
876.717	58.03
876.889	-44.37
877.062	82.6
877.234	-66.9
877.407	10.92
877.579	-3.41
877.752	39.59
877.924	-13.65
878.097	80.55
878.269	80.55
878.442	55.98
878.614	80.55
878.786	25.26
878.959	-21.85
879.131	-15.7
879.303	-128.34
879.476	-77.14
879.648	35.5
879.82	-62.8
879.993	-66.9
880.165	35.5
880.337	-91.48
880.509	-32.08
880.681	-9.56
880.854	-54.61
881.026	-34.13
881.198	141.99
881.37	-17.75
881.542	8.87
881.714	-11.61
881.886	-13.65
882.058	10.92
882.23	12.97
882.402	0.68
882.574	29.35
882.746	-17.75
882.918	127.66
883.09	39.59
883.262	-44.37
883.434	-17.75
883.606	-83.28
883.778	-7.51
883.95	109.22
884.122	-152.92
884.293	86.7
884.465	12.97
884.637	51.88
884.809	-64.85
884.98	-30.04
885.152	31.4
885.324	62.12
885.496	-124.24
885.667	-21.85
885.839	-62.8
886.011	154.28
886.182	49.83
886.354	39.59
886.525	8.87
886.697	8.87
886.869	-15.7
887.04	15.02
887.212	109.22
887.383	201.38
887.555	12.97
887.726	-99.67
887.897	-116.05
888.069	2.73
888.24	164.52
888.412	-99.67
888.583	29.35
888.754	-15.7
888.926	-105.81
889.097	17.07
889.268	-93.52
889.44	29.35
889.611	-111.96
889.782	-101.72
889.953	-111.96
890.125	84.65
890.296	-5.46
890.467	-54.61
890.638	6.83
890.809	31.4
890.98	-97.62
891.151	-17.75
891.323	47.79
891.494	-27.99
891.665	-42.32
891.836	15.02
892.007	-11.61
892.178	2.73
892.349	-42.32
892.52	-68.95
892.691	43.69
892.862	-64.85
893.032	-81.24
893.203	-50.52
893.374	49.83
893.545	47.79
893.716	-71
893.887	8.87
894.057	-46.42
894.228	-30.04
894.399	-25.94
894.57	74.41
894.74	6.83
894.911	-27.99
895.082	-44.37
895.253	-83.28
895.423	-114
895.594	0.68
895.764	39.59
895.935	-87.38
896.106	-13.65
896.276	-62.8
896.447	-17.75
896.617	-75.09
896.788	-124.24
896.958	-23.89
897.129	-13.65
897.299	-93.52
897.47	94.89
897.64	35.5
897.81	15.02
897.981	6.83
898.151	-93.52
898.322	-30.04
898.492	98.99
898.662	25.26
898.832	-48.47
899.003	-30.04
899.173	51.88
899.343	-44.37
899.513	-93.52
