Data from USB4F104151__109__10-45-48-061.txt Node

Date: Wed Feb 26 10:45:48 EST 2025
User: louis
Spectrometer: USB4F10415
Trigger mode: 4
Integration Time (sec): 1.000000E-1
Scans to average: 1
Electric dark correction enabled: true
Nonlinearity correction enabled: false
Boxcar width: 0
XAxis mode: Wavelengths
Number of Pixels in Spectrum: 3648
>>>>>Begin Spectral Data<<<<<
178.204	-413.86
178.424	-413.86
178.644	-413.86
178.864	-325.8
179.084	-350.37
179.304	59.22
179.524	-30.89
179.744	18.26
179.964	63.32
180.184	55.12
180.404	83.8
180.624	-47.27
180.844	-10.41
181.064	-149.67
181.283	48.98
181.503	-86.19
181.723	-4.27
181.943	-137.38
182.163	83.8
182.383	-8.36
182.602	85.84
182.822	57.17
183.042	44.88
183.262	-37.03
183.482	-41.13
183.701	-8.36
183.921	-22.7
184.141	-47.27
184.361	81.75
184.58	36.69
184.8	32.6
185.02	75.6
185.239	85.84
185.459	-8.36
185.679	104.28
185.898	-39.08
186.118	94.04
186.338	87.89
186.557	135
186.777	-61.61
186.997	46.93
187.216	44.88
187.436	175.95
187.655	130.9
187.875	22.36
188.095	18.26
188.314	151.38
188.534	116.56
188.753	-71.85
188.973	114.52
189.192	233.3
189.412	16.21
189.631	26.45
189.851	38.74
190.07	161.62
190.29	-22.7
190.509	24.4
190.729	55.12
190.948	145.24
191.168	210.77
191.387	40.79
191.607	-12.46
191.826	94.04
192.045	51.03
192.265	14.17
192.484	55.12
192.704	-59.56
192.923	-30.89
193.142	192.34
193.362	59.22
193.581	96.08
193.8	24.4
194.02	94.04
194.239	3.93
194.458	65.36
194.678	61.27
194.897	-20.65
195.116	65.36
195.335	26.45
195.555	28.5
195.774	18.26
195.993	124.76
196.212	55.12
196.432	-47.27
196.651	-6.31
196.87	-34.99
197.089	175.95
197.308	-24.75
197.528	91.99
197.747	-59.56
197.966	20.31
198.185	143.19
198.404	8.02
198.623	96.08
198.842	81.75
199.062	71.51
199.281	124.76
199.5	10.07
199.719	30.55
199.938	71.51
200.157	55.12
200.376	85.84
200.595	100.18
200.814	79.7
201.033	-14.51
201.252	106.32
201.471	-57.51
201.69	71.51
201.909	-12.46
202.128	67.41
202.347	81.75
202.566	12.12
202.785	8.02
203.004	-4.27
203.223	253.78
203.442	24.4
203.661	-45.23
203.879	73.56
204.098	128.85
204.317	-61.61
204.536	89.94
204.755	96.08
204.974	94.04
205.193	-4.27
205.411	112.47
205.63	98.13
205.849	63.32
206.068	-37.03
206.287	-53.42
206.505	65.36
206.724	32.6
206.943	-57.51
207.162	-51.37
207.381	71.51
207.599	16.21
207.818	59.22
208.037	-67.75
208.255	24.4
208.474	79.7
208.693	73.56
208.911	-14.51
209.13	122.71
209.349	118.61
209.567	30.55
209.786	89.94
210.005	3.93
210.223	-32.94
210.442	-141.48
210.661	26.45
210.879	55.12
211.098	-30.89
211.316	77.65
211.535	36.69
211.753	91.99
211.972	83.8
212.191	-39.08
212.409	-43.18
212.628	151.38
212.846	-18.6
213.065	42.84
213.283	108.37
213.502	55.12
213.72	-10.41
213.938	42.84
214.157	8.02
214.375	48.98
214.594	-10.41
214.812	100.18
215.031	44.88
215.249	5.97
215.467	83.8
215.686	42.84
215.904	67.41
216.122	44.88
216.341	112.47
216.559	16.21
216.778	106.32
216.996	132.95
217.214	65.36
217.432	28.5
217.651	-100.52
217.869	73.56
218.087	16.21
218.306	-63.66
218.524	71.51
218.742	55.12
218.96	108.37
219.179	42.84
219.397	12.12
219.615	206.67
219.833	94.04
220.051	-34.99
220.27	120.66
220.488	61.27
220.706	155.47
220.924	-55.47
221.142	-12.46
221.36	36.69
221.578	-8.36
221.796	-39.08
222.015	34.64
222.233	77.65
222.451	73.56
222.669	-88.23
222.887	40.79
223.105	53.08
223.323	-2.22
223.541	-80.04
223.759	59.22
223.977	65.36
224.195	157.52
224.413	48.98
224.631	-43.18
224.849	51.03
225.067	173.91
225.285	34.64
225.503	30.55
225.721	-88.23
225.939	91.99
226.157	-20.65
226.375	178
226.592	77.65
226.81	46.93
227.028	79.7
227.246	71.51
227.464	12.12
227.682	81.75
227.9	55.12
228.117	69.46
228.335	114.52
228.553	69.46
228.771	26.45
228.989	8.02
229.206	128.85
229.424	46.93
229.642	22.36
229.86	-65.71
230.077	114.52
230.295	22.36
230.513	73.56
230.731	-55.47
230.948	69.46
231.166	167.76
231.384	-6.31
231.601	-82.09
231.819	237.39
232.037	-22.7
232.254	-14.51
232.472	-14.51
232.689	-41.13
232.907	137.04
233.125	-2.22
233.342	-22.7
233.56	34.64
233.777	38.74
233.995	-55.47
234.213	5.97
234.43	178
234.648	20.31
234.865	26.45
235.083	-0.17
235.3	71.51
235.518	22.36
235.735	77.65
235.953	46.93
236.17	14.17
236.388	-10.41
236.605	53.08
236.822	122.71
237.04	235.35
237.257	46.93
237.475	12.12
237.692	3.93
237.909	53.08
238.127	-20.65
238.344	42.84
238.562	22.36
238.779	-47.27
238.996	40.79
239.214	40.79
239.431	100.18
239.648	-57.51
239.865	65.36
240.083	18.26
240.3	46.93
240.517	-30.89
240.735	108.37
240.952	104.28
241.169	24.4
241.386	126.8
241.603	8.02
241.821	-61.61
242.038	85.84
242.255	149.33
242.472	63.32
242.689	-8.36
242.907	135
243.124	36.69
243.341	57.17
243.558	28.5
243.775	-32.94
243.992	-104.62
244.209	155.47
244.426	155.47
244.643	40.79
244.86	34.64
245.078	104.28
245.295	14.17
245.512	-22.7
245.729	10.07
245.946	36.69
246.163	38.74
246.38	1.88
246.597	89.94
246.814	30.55
247.031	14.17
247.248	30.55
247.464	139.09
247.681	104.28
247.898	85.84
248.115	44.88
248.332	44.88
248.549	61.27
248.766	167.76
248.983	87.89
249.2	69.46
249.417	87.89
249.633	-6.31
249.85	14.17
250.067	-53.42
250.284	1.88
250.501	81.75
250.717	-12.46
250.934	-34.99
251.151	-6.31
251.368	32.6
251.585	18.26
251.801	24.4
252.018	1.88
252.235	77.65
252.451	-65.71
252.668	32.6
252.885	120.66
253.102	38.74
253.318	-39.08
253.535	-43.18
253.752	20.31
253.968	26.45
254.185	-121
254.401	32.6
254.618	124.76
254.835	14.17
255.051	137.04
255.268	71.51
255.484	14.17
255.701	5.97
255.917	14.17
256.134	-34.99
256.351	26.45
256.567	-53.42
256.784	91.99
257	-43.18
257.217	67.41
257.433	132.95
257.65	16.21
257.866	165.71
258.082	-96.43
258.299	-14.51
258.515	30.55
258.732	42.84
258.948	-2.22
259.165	44.88
259.381	1.88
259.597	34.64
259.814	-53.42
260.03	-24.75
260.246	53.08
260.463	116.56
260.679	155.47
260.895	51.03
261.112	63.32
261.328	-12.46
261.544	28.5
261.761	85.84
261.977	-22.7
262.193	-20.65
262.409	71.51
262.626	-47.27
262.842	1.88
263.058	-18.6
263.274	-2.22
263.49	16.21
263.707	46.93
263.923	110.42
264.139	-88.23
264.355	36.69
264.571	83.8
264.787	26.45
265.004	122.71
265.22	28.5
265.436	-4.27
265.652	20.31
265.868	57.17
266.084	-28.84
266.3	22.36
266.516	-41.13
266.732	22.36
266.948	40.79
267.164	16.21
267.38	42.84
267.596	67.41
267.812	169.81
268.028	-2.22
268.244	12.12
268.46	38.74
268.676	16.21
268.892	-30.89
269.108	-37.03
269.324	-71.85
269.54	-96.43
269.756	22.36
269.972	8.02
270.188	106.32
270.403	-55.47
270.619	36.69
270.835	91.99
271.051	14.17
271.267	-84.14
271.483	-51.37
271.698	69.46
271.914	112.47
272.13	30.55
272.346	-14.51
272.562	12.12
272.777	126.8
272.993	-71.85
273.209	-114.86
273.425	79.7
273.64	-65.71
273.856	61.27
274.072	-123.05
274.287	-55.47
274.503	55.12
274.719	44.88
274.934	3.93
275.15	-34.99
275.366	75.6
275.581	-22.7
275.797	10.07
276.012	26.45
276.228	34.64
276.444	-0.17
276.659	87.89
276.875	-80.04
277.09	26.45
277.306	59.22
277.521	102.23
277.737	-12.46
277.952	71.51
278.168	34.64
278.383	61.27
278.599	89.94
278.814	143.19
279.03	3.93
279.245	149.33
279.461	106.32
279.676	26.45
279.892	-65.71
280.107	-10.41
280.322	-30.89
280.538	14.17
280.753	3.93
280.969	44.88
281.184	30.55
281.399	65.36
281.615	87.89
281.83	40.79
282.045	-20.65
282.26	-2.22
282.476	32.6
282.691	116.56
282.906	79.7
283.122	-4.27
283.337	18.26
283.552	12.12
283.767	-86.19
283.983	149.33
284.198	91.99
284.413	16.21
284.628	-53.42
284.843	53.08
285.058	96.08
285.274	46.93
285.489	10.07
285.704	53.08
285.919	-26.79
286.134	46.93
286.349	26.45
286.564	8.02
286.779	188.24
286.995	59.22
287.21	-34.99
287.425	73.56
287.64	10.07
287.855	-32.94
288.07	-63.66
288.285	108.37
288.5	77.65
288.715	53.08
288.93	69.46
289.145	20.31
289.36	108.37
289.575	12.12
289.79	104.28
290.004	-26.79
290.219	51.03
290.434	-6.31
290.649	-4.27
290.864	-63.66
291.079	40.79
291.294	102.23
291.509	77.65
291.724	5.97
291.938	10.07
292.153	14.17
292.368	53.08
292.583	16.21
292.798	155.47
293.012	51.03
293.227	5.97
293.442	-32.94
293.657	143.19
293.871	55.12
294.086	81.75
294.301	135
294.516	48.98
294.73	28.5
294.945	-34.99
295.16	75.6
295.374	98.13
295.589	135
295.804	-4.27
296.018	14.17
296.233	75.6
296.447	8.02
296.662	55.12
296.877	61.27
297.091	18.26
297.306	16.21
297.52	22.36
297.735	32.6
297.949	100.18
298.164	63.32
298.378	61.27
298.593	5.97
298.807	-32.94
299.022	-16.55
299.236	94.04
299.451	126.8
299.665	26.45
299.88	8.02
300.094	16.21
300.309	-71.85
300.523	18.26
300.737	-49.32
300.952	63.32
301.166	24.4
301.381	36.69
301.595	3.93
301.809	10.07
302.024	40.79
302.238	-28.84
302.452	65.36
302.667	65.36
302.881	71.51
303.095	155.47
303.309	116.56
303.524	-26.79
303.738	30.55
303.952	10.07
304.166	122.71
304.381	-94.38
304.595	157.52
304.809	-20.65
305.023	-2.22
305.237	-67.75
305.452	12.12
305.666	75.6
305.88	53.08
306.094	155.47
306.308	112.47
306.522	120.66
306.736	48.98
306.95	53.08
307.164	10.07
307.379	89.94
307.593	112.47
307.807	112.47
308.021	75.6
308.235	46.93
308.449	20.31
308.663	38.74
308.877	186.19
309.091	-0.17
309.305	79.7
309.519	-133.29
309.733	126.8
309.947	3.93
310.161	48.98
310.374	57.17
310.588	77.65
310.802	-57.51
311.016	38.74
311.23	57.17
311.444	28.5
311.658	57.17
311.872	87.89
312.085	34.64
312.299	165.71
312.513	151.38
312.727	71.51
312.941	38.74
313.154	59.22
313.368	26.45
313.582	38.74
313.796	-49.32
314.009	24.4
314.223	145.24
314.437	79.7
314.651	151.38
314.864	-57.51
315.078	32.6
315.292	-41.13
315.505	-6.31
315.719	51.03
315.933	81.75
316.146	-22.7
316.36	-71.85
316.573	106.32
316.787	51.03
317.001	36.69
317.214	-30.89
317.428	-6.31
317.641	-2.22
317.855	77.65
318.068	-28.84
318.282	79.7
318.495	165.71
318.709	63.32
318.922	48.98
319.136	94.04
319.349	55.12
319.563	46.93
319.776	-12.46
319.99	-84.14
320.203	87.89
320.417	53.08
320.63	44.88
320.843	161.62
321.057	94.04
321.27	-77.99
321.483	32.6
321.697	71.51
321.91	-8.36
322.124	14.17
322.337	61.27
322.55	-8.36
322.763	-20.65
322.977	-39.08
323.19	-24.75
323.403	85.84
323.617	-22.7
323.83	94.04
324.043	-12.46
324.256	20.31
324.469	-125.1
324.683	130.9
324.896	32.6
325.109	-2.22
325.322	1.88
325.535	145.24
325.748	79.7
325.962	57.17
326.175	-8.36
326.388	10.07
326.601	94.04
326.814	73.56
327.027	22.36
327.24	124.76
327.453	-104.62
327.666	28.5
327.879	91.99
328.092	87.89
328.305	126.8
328.518	-10.41
328.731	-26.79
328.944	-6.31
329.157	28.5
329.37	18.26
329.583	167.76
329.796	161.62
330.009	-73.9
330.222	14.17
330.435	83.8
330.648	65.36
330.861	51.03
331.073	30.55
331.286	20.31
331.499	57.17
331.712	-18.6
331.925	-41.13
332.138	46.93
332.35	42.84
332.563	-6.31
332.776	71.51
332.989	-8.36
333.202	-59.56
333.414	22.36
333.627	55.12
333.84	-63.66
334.053	12.12
334.265	26.45
334.478	-4.27
334.691	59.22
334.903	44.88
335.116	-61.61
335.329	55.12
335.541	85.84
335.754	214.87
335.966	8.02
336.179	18.26
336.392	28.5
336.604	-61.61
336.817	36.69
337.029	110.42
337.242	130.9
337.454	65.36
337.667	77.65
337.88	114.52
338.092	30.55
338.305	44.88
338.517	-53.42
338.729	-6.31
338.942	149.33
339.154	-51.37
339.367	46.93
339.579	73.56
339.792	-22.7
340.004	36.69
340.217	12.12
340.429	81.75
340.641	-34.99
340.854	-18.6
341.066	-20.65
341.278	87.89
341.491	137.04
341.703	71.51
341.915	-67.75
342.128	20.31
342.34	32.6
342.552	-12.46
342.764	100.18
342.977	-14.51
343.189	65.36
343.401	24.4
343.613	-10.41
343.826	73.56
344.038	20.31
344.25	18.26
344.462	-26.79
344.674	67.41
344.886	53.08
345.099	81.75
345.311	65.36
345.523	65.36
345.735	-98.47
345.947	32.6
346.159	-12.46
346.371	46.93
346.583	28.5
346.795	171.86
347.007	-28.84
347.219	5.97
347.431	-84.14
347.643	100.18
347.855	8.02
348.067	124.76
348.279	8.02
348.491	51.03
348.703	48.98
348.915	-18.6
349.127	-32.94
349.339	42.84
349.551	20.31
349.763	161.62
349.975	-14.51
350.187	102.23
350.399	98.13
350.61	36.69
350.822	28.5
351.034	5.97
351.246	-10.41
351.458	79.7
351.669	42.84
351.881	28.5
352.093	110.42
352.305	116.56
352.517	-4.27
352.728	108.37
352.94	67.41
353.152	55.12
353.363	-34.99
353.575	55.12
353.787	120.66
353.999	-53.42
354.21	139.09
354.422	-59.56
354.633	-49.32
354.845	28.5
355.057	85.84
355.268	61.27
355.48	18.26
355.692	-6.31
355.903	1.88
356.115	-4.27
356.326	-123.05
356.538	30.55
356.749	98.13
356.961	128.85
357.172	36.69
357.384	-20.65
357.595	210.77
357.807	-47.27
358.018	-18.6
358.23	57.17
358.441	145.24
358.653	36.69
358.864	40.79
359.075	-8.36
359.287	-2.22
359.498	167.76
359.709	100.18
359.921	-22.7
360.132	-30.89
360.344	67.41
360.555	40.79
360.766	73.56
360.977	8.02
361.189	126.8
361.4	34.64
361.611	14.17
361.823	155.47
362.034	128.85
362.245	-133.29
362.456	12.12
362.667	36.69
362.879	-53.42
363.09	77.65
363.301	22.36
363.512	10.07
363.723	-2.22
363.935	42.84
364.146	46.93
364.357	-18.6
364.568	73.56
364.779	-18.6
364.99	206.67
365.201	-6.31
365.412	98.13
365.623	-139.43
365.834	114.52
366.045	-26.79
366.256	120.66
366.467	67.41
366.678	-43.18
366.889	77.65
367.1	-10.41
367.311	42.84
367.522	-51.37
367.733	48.98
367.944	83.8
368.155	38.74
368.366	44.88
368.577	85.84
368.788	30.55
368.999	-49.32
369.209	-2.22
369.42	296.78
369.631	190.29
369.842	38.74
370.053	-22.7
370.264	91.99
370.474	-37.03
370.685	3.93
370.896	-26.79
371.107	116.56
371.317	42.84
371.528	-32.94
371.739	18.26
371.95	83.8
372.16	24.4
372.371	-18.6
372.582	-4.27
372.792	69.46
373.003	59.22
373.214	22.36
373.424	96.08
373.635	-8.36
373.846	102.23
374.056	10.07
374.267	30.55
374.477	18.26
374.688	-55.47
374.898	46.93
375.109	40.79
375.319	38.74
375.53	48.98
375.74	79.7
375.951	38.74
376.161	36.69
376.372	67.41
376.582	-51.37
376.793	30.55
377.003	-2.22
377.214	5.97
377.424	94.04
377.635	-20.65
377.845	10.07
378.055	163.67
378.266	-51.37
378.476	-59.56
378.686	10.07
378.897	-12.46
379.107	145.24
379.317	26.45
379.528	-45.23
379.738	116.56
379.948	38.74
380.158	87.89
380.369	87.89
380.579	98.13
380.789	-8.36
380.999	106.32
381.21	77.65
381.42	141.14
381.63	-8.36
381.84	124.76
382.05	83.8
382.261	118.61
382.471	83.8
382.681	-28.84
382.891	104.28
383.101	44.88
383.311	12.12
383.521	18.26
383.731	139.09
383.941	110.42
384.151	42.84
384.361	5.97
384.571	16.21
384.781	-10.41
384.991	151.38
385.201	194.39
385.411	124.76
385.621	46.93
385.831	83.8
386.041	10.07
386.251	36.69
386.461	87.89
386.671	48.98
386.881	59.22
387.091	-0.17
387.301	69.46
387.511	53.08
387.72	87.89
387.93	108.37
388.14	-67.75
388.35	63.32
388.56	48.98
388.769	120.66
388.979	96.08
389.189	20.31
389.399	1.88
389.609	83.8
389.818	132.95
390.028	46.93
390.238	67.41
390.447	-14.51
390.657	20.31
390.867	14.17
391.076	-10.41
391.286	126.8
391.496	44.88
391.705	8.02
391.915	126.8
392.125	182.1
392.334	-10.41
392.544	126.8
392.753	-8.36
392.963	-39.08
393.172	40.79
393.382	63.32
393.591	216.91
393.801	5.97
394.01	106.32
394.22	8.02
394.429	-0.17
394.639	77.65
394.848	65.36
395.058	73.56
395.267	-20.65
395.477	102.23
395.686	110.42
395.895	221.01
396.105	180.05
396.314	32.6
396.524	51.03
396.733	-16.55
396.942	139.09
397.152	65.36
397.361	135
397.57	44.88
397.78	20.31
397.989	26.45
398.198	233.3
398.407	48.98
398.617	8.02
398.826	8.02
399.035	20.31
399.244	145.24
399.453	87.89
399.663	-30.89
399.872	40.79
400.081	-102.57
400.29	46.93
400.499	-49.32
400.708	89.94
400.917	81.75
401.127	40.79
401.336	81.75
401.545	83.8
401.754	112.47
401.963	87.89
402.172	73.56
402.381	-53.42
402.59	-12.46
402.799	91.99
403.008	63.32
403.217	30.55
403.426	53.08
403.635	-73.9
403.844	18.26
404.053	-16.55
404.262	-24.75
404.471	167.76
404.68	18.26
404.888	12.12
405.097	108.37
405.306	44.88
405.515	57.17
405.724	38.74
405.933	42.84
406.142	94.04
406.35	67.41
406.559	26.45
406.768	81.75
406.977	182.1
407.185	57.17
407.394	10.07
407.603	-14.51
407.812	96.08
408.02	75.6
408.229	10.07
408.438	110.42
408.646	-14.51
408.855	18.26
409.064	42.84
409.272	-14.51
409.481	63.32
409.69	-82.09
409.898	-18.6
410.107	22.36
410.315	87.89
410.524	83.8
410.733	102.23
410.941	94.04
411.15	87.89
411.358	30.55
411.567	22.36
411.775	46.93
411.984	22.36
412.192	36.69
412.401	-6.31
412.609	257.87
412.818	124.76
413.026	79.7
413.234	1.88
413.443	20.31
413.651	-2.22
413.86	48.98
414.068	145.24
414.276	143.19
414.485	18.26
414.693	239.44
414.901	180.05
415.11	-18.6
415.318	51.03
415.526	12.12
415.734	118.61
415.943	-24.75
416.151	110.42
416.359	-80.04
416.567	28.5
416.776	128.85
416.984	100.18
417.192	157.52
417.4	-57.51
417.608	-16.55
417.817	-20.65
418.025	137.04
418.233	124.76
418.441	-80.04
418.649	-6.31
418.857	38.74
419.065	200.53
419.273	-16.55
419.481	55.12
419.689	-16.55
419.897	30.55
420.105	-53.42
420.313	108.37
420.521	147.28
420.729	120.66
420.937	-88.23
421.145	-61.61
421.353	87.89
421.561	184.15
421.769	128.85
421.977	-4.27
422.185	63.32
422.393	-37.03
422.601	5.97
422.809	65.36
423.017	114.52
423.224	65.36
423.432	204.63
423.64	38.74
423.848	130.9
424.056	-18.6
424.263	77.65
424.471	44.88
424.679	85.84
424.887	59.22
425.094	126.8
425.302	38.74
425.51	-75.95
425.718	132.95
425.925	22.36
426.133	-61.61
426.341	272.21
426.548	69.46
426.756	16.21
426.964	106.32
427.171	-6.31
427.379	81.75
427.586	28.5
427.794	36.69
428.001	159.57
428.209	61.27
428.417	210.77
428.624	77.65
428.832	57.17
429.039	59.22
429.247	122.71
429.454	147.28
429.662	132.95
429.869	225.11
430.076	173.91
430.284	161.62
430.491	153.43
430.699	114.52
430.906	182.1
431.114	87.89
431.321	143.19
431.528	175.95
431.736	96.08
431.943	108.37
432.15	210.77
432.358	210.77
432.565	276.31
432.772	-53.42
432.979	245.59
433.187	118.61
433.394	292.69
433.601	106.32
433.808	210.77
434.016	198.48
434.223	128.85
434.43	200.53
434.637	190.29
434.844	235.35
435.052	223.06
435.259	231.25
435.466	194.39
435.673	264.02
435.88	327.5
436.087	251.73
436.294	317.26
436.501	339.79
436.708	266.07
436.915	257.87
437.122	323.41
437.329	208.72
437.537	374.61
437.743	313.17
437.95	372.56
438.157	370.51
438.364	288.59
438.571	317.26
438.778	354.13
438.985	397.14
439.192	421.71
439.399	458.57
439.606	411.47
439.813	515.92
440.02	536.4
440.227	560.97
440.433	460.62
440.64	581.45
440.847	495.44
441.054	483.15
441.261	702.28
441.467	532.3
441.674	513.87
441.881	685.9
442.088	552.78
442.294	722.76
442.501	720.71
442.708	759.63
442.914	782.15
443.121	796.49
443.328	796.49
443.534	794.44
443.741	894.79
443.948	798.54
444.154	851.78
444.361	1081.16
444.568	980.81
444.774	984.9
444.981	929.61
445.187	1146.69
445.394	1099.59
445.6	1058.63
445.807	1273.67
446.013	1224.51
446.22	1171.27
446.426	1359.68
446.633	1374.02
446.839	1527.61
447.046	1386.3
447.252	1552.19
447.459	1546.05
447.665	1564.48
447.871	1687.36
448.078	1781.56
448.284	1853.24
448.491	2031.41
448.697	1992.5
448.903	2078.52
449.11	2039.61
449.316	2076.47
449.522	2127.67
449.728	2314.03
449.935	2443.06
450.141	2463.54
450.347	2613.04
450.553	2438.96
450.76	2631.47
450.966	2754.35
451.172	2881.32
451.378	3020.58
451.584	3071.78
451.791	3227.43
451.997	3305.25
452.203	3395.36
452.409	3688.22
452.615	3663.65
452.821	3589.92
453.027	3591.97
453.233	4101.91
453.44	3979.03
453.646	4224.79
453.852	4441.87
454.058	4589.33
454.264	4787.98
454.47	5175.05
454.676	5007.11
454.882	5437.19
455.088	5187.33
455.294	5605.12
455.5	5932.79
455.705	6268.66
455.911	6399.73
456.117	6596.34
456.323	6579.95
456.529	6749.93
456.735	7120.62
456.941	7452.39
457.147	7931.61
457.352	7868.13
457.558	8146.65
457.764	8652.5
457.97	8777.42
458.176	9332.42
458.381	9565.89
458.587	9932.48
458.793	10346.17
458.999	10276.54
459.204	11644.58
459.41	12019.36
459.616	11978.4
459.821	12465.82
460.027	13000.33
460.233	13682.31
460.438	13727.36
460.644	14505.59
460.85	14653.05
461.055	15189.61
461.261	16150.11
461.466	15709.8
461.672	15939.17
461.878	17942.08
462.083	17811.01
462.289	18226.75
462.494	18859.57
462.7	18908.72
462.905	19461.68
463.111	20594.2
463.316	21773.83
463.522	22038.02
463.727	22617.6
463.932	23674.35
464.138	24335.84
464.343	25048.54
464.549	25671.12
464.754	27246.01
464.959	28272.04
465.165	28288.42
465.37	28183.98
465.575	28384.68
465.781	30516.61
465.986	31462.77
466.191	30422.41
466.397	31255.93
466.602	30289.29
466.807	32009.58
467.012	32709.99
467.218	33127.77
467.423	33035.61
467.628	34479.43
467.833	35777.84
468.038	35065.15
468.244	34495.81
468.449	36443.43
468.654	35575.09
468.859	35611.96
469.064	35634.49
469.269	34843.97
469.474	35243.32
469.679	36046.13
469.885	35085.63
470.09	35515.7
470.295	35851.57
470.5	35052.86
470.705	35353.91
470.91	34334.03
471.115	34037.07
471.32	34454.86
471.525	34501.96
471.73	33244.51
471.935	33230.17
472.139	31692.15
472.344	31657.33
472.549	31518.07
472.754	31079.8
472.959	30174.6
473.164	29742.48
473.369	29296.02
473.574	29848.97
473.778	28943.77
473.983	28538.27
474.188	28134.82
474.393	27096.5
474.598	26613.18
474.802	26224.07
475.007	26099.14
475.212	25269.72
475.417	24681.95
475.621	24296.93
475.826	24219.11
476.031	23506.41
476.235	23082.49
476.44	23295.47
476.645	22797.82
476.849	22351.36
477.054	22109.7
477.259	21011.99
477.463	21452.3
477.668	20434.46
477.872	20604.44
478.077	20055.59
478.282	19396.14
478.486	19123.76
478.691	19017.27
478.895	19265.07
479.1	18804.28
479.304	18871.86
479.509	18024
479.713	18314.81
479.918	17962.56
480.122	17700.42
480.326	17698.38
480.531	17663.56
480.735	17120.85
480.94	16991.83
481.144	17829.45
481.348	16535.13
481.553	16936.53
481.757	16615
481.961	16496.22
482.166	16531.03
482.37	16594.52
482.574	15953.51
482.778	16172.64
482.983	16268.89
483.187	15902.31
483.391	15900.26
483.595	15713.89
483.8	15136.37
484.004	15588.97
484.208	15193.71
484.412	14902.9
484.616	15025.78
484.821	14786.16
485.025	14405.24
485.229	14417.53
485.433	14292.6
485.637	14306.94
485.841	13696.64
486.045	13934.21
486.249	13854.34
486.453	13305.48
486.657	13219.47
486.861	13004.43
487.065	12549.78
487.269	12652.18
487.473	12166.81
487.677	12310.17
487.881	11980.45
488.085	11755.17
488.289	11706.02
488.493	11513.51
488.697	11431.59
488.901	11073.2
489.105	10770.1
489.309	10634.93
489.512	10602.16
489.716	10458.81
489.92	10030.78
490.124	9926.33
490.328	9985.72
490.531	9494.21
490.735	9440.97
490.939	9299.66
491.143	8914.64
491.346	8826.57
491.55	8969.93
491.754	8795.86
491.958	8791.76
492.161	8439.51
492.365	8267.48
492.569	8208.09
492.772	8052.44
492.976	7956.19
493.18	7788.25
493.383	7747.3
493.587	7687.9
493.79	7479.01
493.994	7352.04
494.197	7511.78
494.401	7151.34
494.605	7321.32
494.808	7296.74
495.012	7188.2
495.215	6989.55
495.419	7061.23
495.622	6846.19
495.825	7001.83
496.029	6672.11
496.232	6921.96
496.436	6905.58
496.639	7012.07
496.843	6776.56
497.046	6813.42
497.249	6786.8
497.453	6891.24
497.656	6819.57
497.859	6684.4
498.063	6797.04
498.266	7042.79
498.469	6831.85
498.673	6874.86
498.876	6868.72
499.079	6975.21
499.282	6766.32
499.485	7325.41
499.689	6969.07
499.892	7089.9
500.095	6919.92
500.298	7341.8
500.501	6975.21
500.705	7282.41
500.908	7231.21
501.111	7337.7
501.314	7505.63
501.517	7589.6
501.72	7481.06
501.923	7403.24
502.126	7730.91
502.329	7917.28
502.532	7694.05
502.735	7792.35
502.938	8097.5
503.141	8175.32
503.344	8165.08
503.547	8441.56
503.75	8302.29
503.953	8437.46
504.156	8711.89
504.359	8869.58
504.562	8728.27
504.765	9043.66
504.968	9006.8
505.17	9166.54
505.373	9352.9
505.576	9623.23
505.779	9627.33
505.982	9807.55
506.185	10133.18
506.387	10122.94
506.59	10380.98
506.793	10614.45
506.996	10499.77
507.198	11151.02
507.401	11196.07
507.604	11189.93
507.807	11607.72
508.009	11714.21
508.212	12117.66
508.415	12054.17
508.617	12308.12
508.82	12650.13
509.022	12521.11
509.225	13282.95
509.428	13434.5
509.63	13541
509.833	14067.33
510.035	14503.54
510.238	14470.78
510.44	14651
510.643	15246.96
510.845	15533.67
511.048	15695.46
511.25	15982.18
511.453	16322.14
511.655	17426
511.858	17256.01
512.06	17575.5
512.262	18259.52
512.465	17884.74
512.667	18773.56
512.87	19197.49
513.072	19666.47
513.274	20282.91
513.477	20565.53
513.679	20942.36
513.881	21378.58
514.084	21960.2
514.286	22179.33
514.488	22744.57
514.69	23371.25
514.893	23834.09
515.095	24309.22
515.297	25282
515.499	25294.29
515.701	25578.96
515.904	26377.67
516.106	26785.21
516.308	27483.57
516.51	28243.37
516.712	28351.91
516.914	29201.82
517.116	29765.01
517.318	30109.07
517.52	30594.43
517.722	31114.62
517.925	31655.28
518.127	32595.3
518.329	32699.75
518.531	33129.82
518.733	34008.4
518.935	34547.01
519.136	35224.89
519.338	35448.12
519.54	36134.19
519.742	37072.16
519.944	37324.06
520.146	37950.74
520.348	38307.08
520.55	38776.07
520.752	39152.9
520.954	39984.37
521.155	39697.66
521.357	40924.39
521.559	41379.04
521.761	41987.28
521.963	42196.18
522.164	42431.69
522.366	42564.81
522.568	43031.75
522.77	43893.94
522.971	44149.94
523.173	43824.31
523.375	44741.8
523.576	44407.98
523.778	44614.83
523.98	45046.95
524.181	45386.91
524.383	45182.12
524.584	46015.64
524.786	45757.6
524.988	45493.41
525.189	46115.99
525.391	46492.82
525.592	46075.03
525.794	46394.51
525.995	46038.17
526.197	45894.81
526.398	45911.19
526.6	46261.4
526.801	46089.37
527.003	45943.96
527.204	45536.41
527.406	45581.47
527.607	45452.45
527.808	45575.33
528.01	44573.87
528.211	44618.92
528.412	45132.96
528.614	44397.74
528.815	44063.92
529.016	43994.29
529.218	43013.32
529.419	43529.41
529.62	42720.46
529.822	42233.04
530.023	41868.5
530.224	41751.77
530.425	41178.34
530.626	40633.58
530.828	40391.92
531.029	40443.12
531.23	39363.84
531.431	39103.74
531.632	39015.68
531.833	38518.03
532.035	37776.66
532.236	37694.74
532.437	37240.09
532.638	36404.52
532.839	36123.95
533.04	35749.17
533.241	35108.16
533.442	35556.66
533.643	34501.96
533.844	33639.76
534.045	33748.31
534.246	33252.7
534.447	32898.4
534.648	32443.75
534.849	31907.18
535.05	31219.06
535.251	30821.76
535.451	30627.2
535.652	30354.82
535.853	29738.38
536.054	29560.21
536.255	29533.59
536.456	28335.52
536.657	28677.54
536.857	27653.55
537.058	27430.32
537.259	27278.77
537.46	27010.49
537.66	26252.74
537.861	25996.74
538.062	25578.96
538.263	25445.84
538.463	25030.1
538.664	24849.88
538.865	24436.19
539.065	24235.49
539.266	23598.57
539.466	23494.13
539.667	23070.2
539.868	23336.43
540.068	22754.81
540.269	22535.68
540.469	22328.83
540.67	22083.08
540.87	21710.35
541.071	21456.4
541.271	21050.9
541.472	20989.46
541.672	20575.77
541.873	20454.94
542.073	20229.66
542.274	20102.69
542.474	19645.99
542.675	19471.92
542.875	19205.68
543.075	18835
543.276	18429.5
543.476	18869.81
543.676	18341.44
543.877	18370.11
544.077	18169.41
544.277	18120.26
544.478	17643.08
544.678	17512.01
544.878	17462.86
545.078	17288.78
545.279	16942.67
545.479	16569.94
545.679	16508.51
545.879	16588.38
546.079	16260.7
546.28	15922.79
546.48	15556.2
546.68	15732.33
546.88	15300.2
547.08	15103.6
547.28	15066.74
547.48	14734.96
547.68	14853.75
547.88	14499.45
548.081	14333.56
548.281	14286.46
548.481	13860.48
548.681	13825.67
548.881	13743.75
549.081	13510.28
549.28	13276.81
549.48	13125.26
549.68	13139.6
549.88	12918.42
550.08	12439.19
550.28	12441.24
550.48	12248.73
550.68	12033.69
550.88	11648.68
551.08	11964.06
551.279	11695.78
551.479	11413.16
551.679	11464.36
551.879	10882.74
552.079	10954.41
552.278	10759.86
552.478	10860.21
552.678	10641.07
552.878	10251.96
553.077	10260.15
553.277	9840.32
553.477	10067.64
553.676	9709.25
553.876	9588.42
554.076	9377.48
554.275	9041.61
554.475	8888.01
554.674	8931.02
554.874	8879.82
555.074	8681.17
555.273	8597.2
555.473	8546
555.672	8244.95
555.872	8285.91
556.071	7980.76
556.271	8038.11
556.47	7726.82
556.67	7560.93
556.869	7540.45
557.068	7587.55
557.268	7182.06
557.467	7274.21
557.667	7175.91
557.866	6872.81
558.065	6756.08
558.265	6612.72
558.464	6516.47
558.663	6756.08
558.863	6268.66
559.062	6567.67
559.261	6160.12
559.461	6227.7
559.66	5955.32
559.859	5951.23
560.058	5842.68
560.258	5711.61
560.457	5512.96
560.656	5707.52
560.855	5281.54
561.054	5453.57
561.253	5316.36
561.453	5179.14
561.652	5076.74
561.851	5201.67
562.05	4917
562.249	4914.95
562.448	4947.72
562.647	4622.09
562.846	4796.17
563.045	4636.43
563.244	4540.18
563.443	4491.02
563.642	4212.5
563.841	4347.67
564.04	4192.02
564.239	4263.7
564.438	4128.53
564.637	4058.9
564.836	4161.3
565.035	3983.13
565.234	3702.56
565.432	3710.75
565.631	3720.99
565.83	3852.06
566.029	3700.51
566.228	3641.12
566.427	3573.53
566.625	3389.22
566.824	3436.32
567.023	3411.75
567.222	3284.77
567.42	3428.13
567.619	3256.1
567.818	3200.8
568.016	3252
568.215	3254.05
568.414	3209
568.612	3163.94
568.811	2946.86
569.01	2836.27
569.208	2811.69
569.407	2946.86
569.605	2899.75
569.804	2901.8
570.002	2768.68
570.201	2715.44
570.4	2709.29
570.598	2580.27
570.797	2676.52
570.995	2400.05
571.193	2541.36
571.392	2527.02
571.59	2328.37
571.789	2506.54
571.987	2488.11
572.186	2531.12
572.384	2289.46
572.582	2236.21
572.781	2307.89
572.979	2168.63
573.177	2101.05
573.376	2176.82
573.574	2152.24
573.772	2092.85
573.971	2088.76
574.169	1890.1
574.367	2123.57
574.565	1969.98
574.763	1898.3
574.962	1902.39
575.16	1900.34
575.358	1838.91
575.556	1767.23
575.754	1687.36
575.952	1744.7
576.151	1734.46
576.349	1777.47
576.547	1632.06
576.745	1791.8
576.943	1734.46
577.141	1568.57
577.339	1376.06
577.537	1568.57
577.735	1482.56
577.933	1546.05
578.131	1408.83
578.329	1500.99
578.527	1423.17
578.725	1548.09
578.923	1386.3
579.121	1345.34
579.319	1189.7
579.516	1343.3
579.714	1441.6
579.912	1247.04
580.11	1150.79
580.308	1201.99
580.506	1197.89
580.704	1111.88
580.901	1142.6
581.099	1240.9
581.297	1169.22
581.495	1134.4
581.692	1048.39
581.89	1314.63
582.088	1003.33
582.285	1046.34
582.483	986.95
582.681	1001.29
582.878	960.33
583.076	1064.77
583.274	1126.21
583.471	1089.35
583.669	960.33
583.866	954.18
584.064	962.37
584.262	841.54
584.459	825.16
584.657	870.22
584.854	1015.62
585.052	909.13
585.249	937.8
585.447	823.11
585.644	835.4
585.841	964.42
586.039	888.65
586.236	884.55
586.434	755.53
586.631	790.35
586.828	726.86
587.026	773.96
587.223	679.75
587.42	757.58
587.618	696.14
587.815	812.87
588.012	677.71
588.21	663.37
588.407	759.63
588.604	698.19
588.801	606.03
588.999	646.99
589.196	784.2
589.393	634.7
589.59	671.56
589.787	720.71
589.984	698.19
590.182	653.13
590.379	571.21
590.576	692.04
590.773	632.65
590.97	616.27
591.167	698.19
591.364	616.27
591.561	632.65
591.758	751.43
591.955	622.41
592.152	542.54
592.349	548.68
592.546	536.4
592.743	591.69
592.94	560.97
593.137	640.84
593.334	651.08
593.531	644.94
593.727	636.75
593.924	593.74
594.121	599.88
594.318	591.69
594.515	651.08
594.712	730.95
594.908	720.71
595.105	517.97
595.302	659.28
595.499	646.99
595.696	636.75
595.892	620.36
596.089	743.24
596.286	642.89
596.482	702.28
596.679	636.75
596.876	636.75
597.072	755.53
597.269	763.72
597.466	792.39
597.662	847.69
597.859	747.34
598.055	878.41
598.252	855.88
598.448	960.33
598.645	1054.53
598.841	968.52
599.038	1113.92
599.234	1185.6
599.431	1177.41
599.627	1107.78
599.824	1161.03
600.02	1255.23
600.217	1247.04
600.413	1331.01
600.609	1357.63
600.806	1632.06
601.002	1439.55
601.198	1500.99
601.395	1685.31
601.591	1634.11
601.787	1761.08
601.984	1851.19
602.18	1857.34
602.376	1881.91
602.572	2019.13
602.769	2129.72
602.965	2242.36
603.161	2264.88
603.357	2361.14
603.553	2385.71
603.75	2307.89
603.946	2592.56
604.142	2545.45
604.338	2692.91
604.534	2764.59
604.73	2936.62
604.926	2938.66
605.122	3104.55
605.318	3063.59
605.514	3114.79
605.71	3295.01
605.906	3469.09
606.102	3446.56
606.298	3653.41
606.494	3788.57
606.69	4038.42
606.886	3985.18
607.082	3995.42
607.278	4173.59
607.474	4310.8
607.67	4380.43
607.866	4394.77
608.062	4865.8
608.257	4775.69
608.453	4775.69
608.649	5213.96
608.845	5068.55
609.041	5191.43
609.236	5467.91
609.432	5637.89
609.628	5838.59
609.824	5979.9
610.019	6078.2
610.215	6188.79
610.411	6485.75
610.606	6760.17
610.802	6708.97
610.998	6921.96
611.193	7081.71
611.389	7218.92
611.584	7474.92
611.78	7769.82
611.976	7771.87
612.171	8103.64
612.367	8283.86
612.562	8640.21
612.758	8685.26
612.953	8730.32
613.149	9332.42
613.344	9320.14
613.539	9656
613.735	9817.79
613.93	10090.17
614.126	10403.51
614.321	11071.15
614.517	11095.72
614.712	11105.96
614.907	11746.98
615.103	12021.41
615.298	11951.77
615.493	12600.98
615.688	12586.65
615.884	13323.91
616.079	13309.58
616.274	13809.28
616.47	14124.67
616.665	14487.16
616.86	14765.68
617.055	15320.68
617.25	15498.86
617.445	16090.72
617.641	16408.15
617.836	16756.31
618.031	17061.46
618.226	17567.31
618.421	17806.92
618.616	18449.98
618.811	18587.19
619.006	19156.53
619.201	19392.05
619.396	20278.82
619.591	20229.66
619.786	21032.47
619.981	21282.32
620.176	22136.32
620.371	22294.02
620.566	22767.1
620.761	23473.65
620.956	23946.73
621.151	24249.83
621.346	24710.62
621.541	24714.72
621.735	25880.01
621.93	25824.72
622.125	26611.14
622.32	26826.17
622.515	27268.53
622.709	27850.16
622.904	28437.92
623.099	28964.25
623.294	29873.55
623.488	29793.68
623.683	30428.55
623.878	30528.9
624.072	31503.73
624.267	31659.38
624.462	32062.83
624.656	32589.16
624.851	33373.53
625.046	33721.68
625.24	34047.31
625.435	34430.28
625.629	35138.88
625.824	35585.33
626.018	36226.35
626.213	36349.23
626.407	37186.85
626.602	36433.19
626.796	37561.62
626.991	38432.01
627.185	38589.7
627.38	38563.08
627.574	38841.6
627.768	38898.95
627.963	39202.05
628.157	38937.86
628.352	39816.44
628.546	39173.38
628.74	39582.97
628.935	39189.76
629.129	39464.19
629.323	39144.7
629.517	38978.82
629.712	38501.64
629.906	38661.38
630.1	38022.42
630.294	37958.93
630.489	37430.55
630.683	37334.3
630.877	36433.19
631.071	35663.16
631.265	35423.54
631.459	34471.24
631.653	33693.01
631.848	33555.8
632.042	32431.46
632.236	31763.82
632.43	30780.8
632.624	30145.93
632.818	29210.01
633.012	28202.41
633.206	27127.22
633.4	26887.61
633.594	25574.86
633.788	25206.23
633.982	24266.21
634.176	23057.91
634.369	22318.59
634.563	21386.77
634.757	20579.87
634.951	20106.79
635.145	19322.41
635.339	18658.87
635.533	17563.21
635.726	16909.91
635.92	16137.82
636.114	15687.27
636.308	15240.81
636.501	14411.39
636.695	13993.6
636.889	13268.62
637.083	12875.41
637.276	12076.7
637.47	11671.2
637.664	11259.56
637.857	10806.96
638.051	10327.74
638.244	9817.79
638.438	9463.49
638.632	9328.33
638.825	8722.13
639.019	8457.94
639.212	8087.26
639.406	7913.18
639.599	7306.98
639.793	7184.1
639.986	6838
640.18	6674.16
640.373	6387.44
640.567	6192.89
640.76	6014.71
640.954	5633.79
641.147	5428.99
641.34	5211.91
641.534	5283.59
641.727	4949.77
641.92	4787.98
642.114	4450.07
642.307	4257.56
642.5	4163.35
642.694	3972.89
642.887	3790.62
643.08	3764
643.273	3714.84
643.467	3360.55
643.66	3385.12
643.853	3153.7
644.046	3055.4
644.239	3014.44
644.432	2746.16
644.626	2596.65
644.819	2647.85
645.012	2469.68
645.205	2610.99
645.398	2533.17
645.591	2285.36
645.784	2033.46
645.977	2047.8
646.17	2064.18
646.363	1830.71
646.556	1720.12
646.749	1767.23
646.942	1716.03
647.135	1724.22
647.328	1666.88
647.521	1691.45
647.714	1527.61
647.907	1494.85
648.099	1300.29
648.292	1443.65
648.485	1242.95
648.678	1171.27
648.871	1120.07
649.064	1204.03
649.256	1062.73
649.449	1075.01
649.642	804.68
649.835	915.27
650.027	993.09
650.22	921.42
650.413	876.36
650.605	939.85
650.798	743.24
650.991	821.06
651.183	728.91
651.376	741.19
651.568	659.28
651.761	655.18
651.954	608.08
652.146	706.38
652.339	663.37
652.531	745.29
652.724	573.26
652.916	556.88
653.109	456.53
653.301	616.27
653.494	499.53
653.686	497.49
653.879	579.4
654.071	585.55
654.263	495.44
654.456	403.28
654.648	563.02
654.84	544.59
655.033	284.5
655.225	526.16
655.417	307.02
655.61	470.86
655.802	403.28
655.994	542.54
656.186	284.5
656.379	483.15
656.571	325.46
656.763	372.56
656.955	231.25
657.148	307.02
657.34	423.76
657.532	409.42
657.724	276.31
657.916	366.42
658.108	370.51
658.3	294.74
658.492	372.56
658.684	192.34
658.876	323.41
659.068	208.72
659.26	186.19
659.452	126.8
659.644	239.44
659.836	362.32
660.028	280.4
660.22	223.06
660.412	141.14
660.604	184.15
660.796	208.72
660.988	323.41
661.18	233.3
661.372	288.59
661.563	149.33
661.755	198.48
661.947	122.71
662.139	141.14
662.331	110.42
662.522	153.43
662.714	116.56
662.906	175.95
663.097	257.87
663.289	116.56
663.481	44.88
663.673	175.95
663.864	169.81
664.056	225.11
664.247	155.47
664.439	210.77
664.631	151.38
664.822	163.67
665.014	235.35
665.205	175.95
665.397	198.48
665.588	225.11
665.78	55.12
665.971	112.47
666.163	116.56
666.354	194.39
666.546	71.51
666.737	77.65
666.929	153.43
667.12	137.04
667.311	157.52
667.503	57.17
667.694	126.8
667.885	159.57
668.077	190.29
668.268	1.88
668.459	108.37
668.651	147.28
668.842	149.33
669.033	139.09
669.224	1.88
669.416	341.84
669.607	30.55
669.798	69.46
669.989	175.95
670.18	149.33
670.371	112.47
670.563	42.84
670.754	204.63
670.945	218.96
671.136	192.34
671.327	79.7
671.518	149.33
671.709	276.31
671.9	169.81
672.091	286.54
672.282	157.52
672.473	206.67
672.664	79.7
672.855	194.39
673.046	73.56
673.237	266.07
673.428	145.24
673.619	165.71
673.809	186.19
674	225.11
674.191	139.09
674.382	178
674.573	124.76
674.764	85.84
674.954	108.37
675.145	51.03
675.336	24.4
675.527	59.22
675.717	34.64
675.908	69.46
676.099	-2.22
676.289	145.24
676.48	81.75
676.671	167.76
676.861	104.28
677.052	198.48
677.243	89.94
677.433	102.23
677.624	161.62
677.814	194.39
678.005	87.89
678.195	237.39
678.386	141.14
678.576	96.08
678.767	44.88
678.957	194.39
679.148	233.3
679.338	231.25
679.529	212.82
679.719	79.7
679.909	218.96
680.1	126.8
680.29	233.3
680.481	51.03
680.671	241.49
680.861	167.76
681.052	151.38
681.242	186.19
681.432	231.25
681.622	169.81
681.813	118.61
682.003	190.29
682.193	151.38
682.383	155.47
682.573	135
682.764	147.28
682.954	210.77
683.144	266.07
683.334	153.43
683.524	157.52
683.714	165.71
683.904	292.69
684.094	155.47
684.284	190.29
684.474	288.59
684.664	178
684.854	190.29
685.044	184.15
685.234	120.66
685.424	216.91
685.614	161.62
685.804	298.83
685.994	171.86
686.184	227.15
686.374	261.97
686.564	204.63
686.753	180.05
686.943	48.98
687.133	67.41
687.323	227.15
687.513	237.39
687.702	227.15
687.892	227.15
688.082	239.44
688.272	221.01
688.461	231.25
688.651	356.18
688.841	194.39
689.03	231.25
689.22	216.91
689.41	243.54
689.599	184.15
689.789	106.32
689.979	352.08
690.168	192.34
690.358	294.74
690.547	198.48
690.737	257.87
690.926	196.43
691.116	175.95
691.305	278.35
691.495	221.01
691.684	186.19
691.874	135
692.063	106.32
692.252	188.24
692.442	247.63
692.631	145.24
692.82	153.43
693.01	204.63
693.199	149.33
693.388	266.07
693.578	245.59
693.767	227.15
693.956	194.39
694.146	124.76
694.335	151.38
694.524	126.8
694.713	214.87
694.902	182.1
695.092	180.05
695.281	218.96
695.47	200.53
695.659	122.71
695.848	188.24
696.037	102.23
696.226	241.49
696.415	139.09
696.604	274.26
696.793	204.63
696.982	132.95
697.171	388.94
697.36	137.04
697.549	137.04
697.738	83.8
697.927	116.56
698.116	67.41
698.305	255.83
698.494	253.78
698.683	241.49
698.872	292.69
699.061	200.53
699.25	175.95
699.438	175.95
699.627	130.9
699.816	304.98
700.005	91.99
700.193	167.76
700.382	225.11
700.571	233.3
700.76	198.48
700.948	218.96
701.137	91.99
701.326	245.59
701.514	128.85
701.703	249.68
701.892	178
702.08	249.68
702.269	261.97
702.457	100.18
702.646	212.82
702.834	192.34
703.023	128.85
703.212	184.15
703.4	96.08
703.589	128.85
703.777	63.32
703.965	190.29
704.154	141.14
704.342	12.12
704.531	79.7
704.719	227.15
704.907	245.59
705.096	106.32
705.284	128.85
705.472	196.43
705.661	169.81
705.849	186.19
706.037	202.58
706.226	204.63
706.414	106.32
706.602	110.42
706.79	225.11
706.979	141.14
707.167	188.24
707.355	65.36
707.543	218.96
707.731	145.24
707.919	141.14
708.107	98.13
708.296	153.43
708.484	163.67
708.672	235.35
708.86	206.67
709.048	120.66
709.236	91.99
709.424	210.77
709.612	243.54
709.8	141.14
709.988	157.52
710.176	294.74
710.364	243.54
710.551	106.32
710.739	120.66
710.927	91.99
711.115	212.82
711.303	225.11
711.491	200.53
711.679	28.5
711.866	266.07
712.054	124.76
712.242	212.82
712.43	204.63
712.617	143.19
712.805	208.72
712.993	132.95
713.181	34.64
713.368	167.76
713.556	206.67
713.744	206.67
713.931	321.36
714.119	259.92
714.306	110.42
714.494	120.66
714.682	210.77
714.869	79.7
715.057	3.93
715.244	57.17
715.432	216.91
715.619	137.04
715.807	137.04
715.994	171.86
716.182	247.63
716.369	241.49
716.556	180.05
716.744	126.8
716.931	65.36
717.119	223.06
717.306	223.06
717.493	255.83
717.681	98.13
717.868	112.47
718.055	241.49
718.242	159.57
718.43	253.78
718.617	202.58
718.804	139.09
718.991	229.2
719.179	237.39
719.366	190.29
719.553	261.97
719.74	194.39
719.927	157.52
720.114	225.11
720.301	165.71
720.488	163.67
720.676	20.31
720.863	268.11
721.05	313.17
721.237	221.01
721.424	304.98
721.611	175.95
721.798	126.8
721.985	208.72
722.172	196.43
722.358	229.2
722.545	251.73
722.732	284.5
722.919	294.74
723.106	251.73
723.293	149.33
723.48	276.31
723.667	141.14
723.853	286.54
724.04	227.15
724.227	255.83
724.414	96.08
724.6	239.44
724.787	382.8
724.974	362.32
725.161	214.87
725.347	118.61
725.534	221.01
725.72	212.82
725.907	309.07
726.094	200.53
726.28	178
726.467	128.85
726.653	175.95
726.84	261.97
727.027	384.85
727.213	139.09
727.4	339.79
727.586	266.07
727.773	194.39
727.959	249.68
728.145	253.78
728.332	241.49
728.518	188.24
728.705	266.07
728.891	266.07
729.077	186.19
729.264	196.43
729.45	128.85
729.636	227.15
729.823	192.34
730.009	253.78
730.195	188.24
730.382	247.63
730.568	212.82
730.754	233.3
730.94	274.26
731.126	253.78
731.313	333.65
731.499	247.63
731.685	354.13
731.871	229.2
732.057	241.49
732.243	280.4
732.429	298.83
732.615	249.68
732.801	184.15
732.987	155.47
733.173	155.47
733.359	159.57
733.545	245.59
733.731	153.43
733.917	337.74
734.103	184.15
734.289	239.44
734.475	239.44
734.661	380.75
734.847	304.98
735.033	180.05
735.219	221.01
735.404	317.26
735.59	114.52
735.776	210.77
735.962	227.15
736.148	294.74
736.333	325.46
736.519	233.3
736.705	190.29
736.89	237.39
737.076	255.83
737.262	165.71
737.447	202.58
737.633	270.16
737.819	333.65
738.004	284.5
738.19	190.29
738.375	192.34
738.561	268.11
738.747	253.78
738.932	104.28
739.118	325.46
739.303	239.44
739.489	311.12
739.674	141.14
739.859	182.1
740.045	253.78
740.23	173.91
740.416	124.76
740.601	282.45
740.786	237.39
740.972	198.48
741.157	204.63
741.342	216.91
741.528	159.57
741.713	184.15
741.898	202.58
742.084	317.26
742.269	200.53
742.454	276.31
742.639	257.87
742.824	214.87
743.01	272.21
743.195	341.84
743.38	247.63
743.565	245.59
743.75	202.58
743.935	311.12
744.12	231.25
744.305	147.28
744.49	255.83
744.675	190.29
744.86	231.25
745.045	243.54
745.23	237.39
745.415	241.49
745.6	300.88
745.785	100.18
745.97	284.5
746.155	296.78
746.34	264.02
746.525	186.19
746.71	247.63
746.895	108.37
747.079	155.47
747.264	221.01
747.449	278.35
747.634	304.98
747.819	288.59
748.003	126.8
748.188	77.65
748.373	218.96
748.557	210.77
748.742	298.83
748.927	208.72
749.111	178
749.296	266.07
749.481	264.02
749.665	188.24
749.85	126.8
750.034	208.72
750.219	327.5
750.404	155.47
750.588	165.71
750.773	186.19
750.957	159.57
751.141	155.47
751.326	132.95
751.51	100.18
751.695	194.39
751.879	137.04
752.064	333.65
752.248	163.67
752.432	292.69
752.617	200.53
752.801	341.84
752.985	182.1
753.17	255.83
753.354	167.76
753.538	264.02
753.722	130.9
753.907	153.43
754.091	173.91
754.275	233.3
754.459	18.26
754.643	46.93
754.828	184.15
755.012	261.97
755.196	130.9
755.38	157.52
755.564	18.26
755.748	120.66
755.932	149.33
756.116	227.15
756.3	233.3
756.484	132.95
756.668	190.29
756.852	94.04
757.036	169.81
757.22	161.62
757.404	149.33
757.588	96.08
757.772	159.57
757.956	73.56
758.14	284.5
758.323	87.89
758.507	182.1
758.691	102.23
758.875	223.06
759.059	194.39
759.242	55.12
759.426	81.75
759.61	161.62
759.794	96.08
759.977	135
760.161	311.12
760.345	255.83
760.528	180.05
760.712	108.37
760.895	198.48
761.079	106.32
761.263	94.04
761.446	28.5
761.63	143.19
761.813	239.44
761.997	-22.7
762.18	120.66
762.364	243.54
762.547	20.31
762.731	85.84
762.914	104.28
763.098	112.47
763.281	24.4
763.464	55.12
763.648	145.24
763.831	114.52
764.015	89.94
764.198	126.8
764.381	38.74
764.564	83.8
764.748	106.32
764.931	98.13
765.114	130.9
765.297	141.14
765.481	98.13
765.664	8.02
765.847	102.23
766.03	280.4
766.213	63.32
766.397	51.03
766.58	-18.6
766.763	171.86
766.946	89.94
767.129	77.65
767.312	1.88
767.495	42.84
767.678	42.84
767.861	102.23
768.044	22.36
768.227	73.56
768.41	104.28
768.593	87.89
768.776	110.42
768.959	104.28
769.142	155.47
769.324	69.46
769.507	130.9
769.69	28.5
769.873	87.89
770.056	274.26
770.239	91.99
770.421	184.15
770.604	143.19
770.787	59.22
770.97	46.93
771.152	1.88
771.335	108.37
771.518	57.17
771.7	204.63
771.883	186.19
772.066	135
772.248	22.36
772.431	120.66
772.613	26.45
772.796	69.46
772.978	102.23
773.161	237.39
773.343	26.45
773.526	28.5
773.708	-86.19
773.891	-49.32
774.073	36.69
774.256	-8.36
774.438	139.09
774.621	32.6
774.803	69.46
774.985	96.08
775.168	18.26
775.35	71.51
775.532	87.89
775.715	32.6
775.897	-6.31
776.079	110.42
776.261	1.88
776.444	94.04
776.626	102.23
776.808	75.6
776.99	-71.85
777.173	-2.22
777.355	-24.75
777.537	122.71
777.719	77.65
777.901	30.55
778.083	-34.99
778.265	-10.41
778.447	51.03
778.629	-16.55
778.811	53.08
778.993	141.14
779.175	151.38
779.357	42.84
779.539	12.12
779.721	132.95
779.903	149.33
780.085	-8.36
780.267	61.27
780.449	67.41
780.631	102.23
780.812	178
780.994	51.03
781.176	22.36
781.358	14.17
781.54	20.31
781.721	94.04
781.903	104.28
782.085	14.17
782.267	112.47
782.448	-125.1
782.63	55.12
782.812	118.61
782.993	83.8
783.175	-0.17
783.357	12.12
783.538	53.08
783.72	18.26
783.901	-4.27
784.083	65.36
784.264	73.56
784.446	-86.19
784.627	-8.36
784.809	122.71
784.99	53.08
785.172	218.96
785.353	34.64
785.535	-22.7
785.716	-39.08
785.897	-43.18
786.079	77.65
786.26	22.36
786.441	24.4
786.623	-73.9
786.804	26.45
786.985	57.17
787.167	32.6
787.348	10.07
787.529	22.36
787.71	110.42
787.891	10.07
788.073	-49.32
788.254	-51.37
788.435	159.57
788.616	36.69
788.797	24.4
788.978	59.22
789.159	-86.19
789.34	65.36
789.522	-28.84
789.703	32.6
789.884	67.41
790.065	114.52
790.246	151.38
790.427	-18.6
790.607	79.7
790.788	38.74
790.969	-41.13
791.15	124.76
791.331	42.84
791.512	-102.57
791.693	-47.27
791.874	-0.17
792.054	208.72
792.235	22.36
792.416	-57.51
792.597	-12.46
792.778	118.61
792.958	57.17
793.139	102.23
793.32	12.12
793.5	-39.08
793.681	83.8
793.862	57.17
794.042	-16.55
794.223	-100.52
794.404	-16.55
794.584	-67.75
794.765	46.93
794.945	-53.42
795.126	67.41
795.306	69.46
795.487	51.03
795.667	40.79
795.848	28.5
796.028	73.56
796.209	24.4
796.389	42.84
796.57	18.26
796.75	-2.22
796.93	3.93
797.111	-14.51
797.291	32.6
797.471	81.75
797.652	44.88
797.832	-16.55
798.012	73.56
798.192	-53.42
798.373	-69.8
798.553	-2.22
798.733	26.45
798.913	-67.75
799.093	14.17
799.274	65.36
799.454	44.88
799.634	30.55
799.814	77.65
799.994	137.04
800.174	16.21
800.354	-26.79
800.534	-73.9
800.714	106.32
800.894	-82.09
801.074	-41.13
801.254	-108.71
801.434	42.84
801.614	-47.27
801.794	-53.42
801.974	1613.63
802.154	-18.6
802.334	75.6
802.514	-45.23
802.693	-14.51
802.873	-47.27
803.053	139.09
803.233	32.6
803.413	51.03
803.592	8.02
803.772	-86.19
803.952	63.32
804.131	-116.9
804.311	28.5
804.491	14.17
804.67	3.93
804.85	-2.22
805.03	98.13
805.209	77.65
805.389	-39.08
805.568	-34.99
805.748	26.45
805.928	-30.89
806.107	137.04
806.287	24.4
806.466	83.8
806.646	-0.17
806.825	10.07
807.004	-98.47
807.184	38.74
807.363	71.51
807.543	14.17
807.722	-116.9
807.901	26.45
808.081	46.93
808.26	-157.86
808.439	30.55
808.619	-34.99
808.798	-30.89
808.977	38.74
809.156	20.31
809.336	-28.84
809.515	116.56
809.694	-18.6
809.873	22.36
810.052	8.02
810.231	38.74
810.411	55.12
810.59	65.36
810.769	22.36
810.948	124.76
811.127	-139.43
811.306	-39.08
811.485	-57.51
811.664	143.19
811.843	22.36
812.022	5.97
812.201	-98.47
812.38	-18.6
812.559	-18.6
812.737	14.17
812.916	-82.09
813.095	-55.47
813.274	30.55
813.453	16.21
813.632	1.88
813.811	32.6
813.989	-71.85
814.168	5.97
814.347	-41.13
814.526	-63.66
814.704	106.32
814.883	51.03
815.062	-61.61
815.24	67.41
815.419	-92.33
815.598	-10.41
815.776	-92.33
815.955	48.98
816.133	-77.99
816.312	-39.08
816.49	-47.27
816.669	34.64
816.847	-80.04
817.026	30.55
817.204	-4.27
817.383	16.21
817.561	-10.41
817.74	1.88
817.918	-14.51
818.097	16.21
818.275	-34.99
818.453	28.5
818.632	40.79
818.81	-34.99
818.988	-39.08
819.167	-39.08
819.345	34.64
819.523	-59.56
819.701	-0.17
819.879	22.36
820.058	1.88
820.236	48.98
820.414	-34.99
820.592	-8.36
820.77	-32.94
820.948	10.07
821.127	-92.33
821.305	36.69
821.483	-75.95
821.661	22.36
821.839	53.08
822.017	-12.46
822.195	36.69
822.373	87.89
822.551	8.02
822.729	14.17
822.907	-12.46
823.085	96.08
823.262	44.88
823.44	-37.03
823.618	-30.89
823.796	3.93
823.974	-6.31
824.152	-39.08
824.329	-39.08
824.507	44.88
824.685	69.46
824.863	-20.65
825.04	-20.65
825.218	22.36
825.396	-4.27
825.574	14.17
825.751	22.36
825.929	79.7
826.107	-100.52
826.284	-24.75
826.462	51.03
826.639	-49.32
826.817	-88.23
826.994	-37.03
827.172	-77.99
827.349	118.61
827.527	65.36
827.704	-2.22
827.882	57.17
828.059	18.26
828.237	8.02
828.414	20.31
828.591	-114.86
828.769	-18.6
828.946	-10.41
829.124	124.76
829.301	96.08
829.478	-96.43
829.655	24.4
829.833	63.32
830.01	-147.62
830.187	22.36
830.364	34.64
830.542	77.65
830.719	81.75
830.896	61.27
831.073	32.6
831.25	48.98
831.427	28.5
831.604	-67.75
831.782	-82.09
831.959	-32.94
832.136	-102.57
832.313	38.74
832.49	-0.17
832.667	14.17
832.844	-90.28
833.021	77.65
833.198	51.03
833.374	-30.89
833.551	-6.31
833.728	10.07
833.905	79.7
834.082	-88.23
834.259	89.94
834.436	59.22
834.612	-98.47
834.789	12.12
834.966	-39.08
835.143	5.97
835.319	-71.85
835.496	22.36
835.673	-102.57
835.85	34.64
836.026	55.12
836.203	87.89
836.38	-41.13
836.556	-84.14
836.733	-82.09
836.909	57.17
837.086	-125.1
837.262	-86.19
837.439	38.74
837.616	12.12
837.792	-55.47
837.968	-12.46
838.145	-67.75
838.321	-22.7
838.498	14.17
838.674	22.36
838.851	69.46
839.027	-92.33
839.203	-4.27
839.38	-2.22
839.556	-16.55
839.732	118.61
839.909	-32.94
840.085	-24.75
840.261	-96.43
840.437	53.08
840.614	-14.51
840.79	10.07
840.966	-16.55
841.142	59.22
841.318	-43.18
841.494	-0.17
841.671	63.32
841.847	-77.99
842.023	-51.37
842.199	69.46
842.375	69.46
842.551	-149.67
842.727	-84.14
842.903	135
843.079	-102.57
843.255	16.21
843.431	-61.61
843.607	20.31
843.783	-137.38
843.959	48.98
844.134	-80.04
844.31	32.6
844.486	-51.37
844.662	-80.04
844.838	-18.6
845.013	-47.27
845.189	55.12
845.365	-30.89
845.541	-45.23
845.716	-6.31
845.892	48.98
846.068	-37.03
846.244	-37.03
846.419	-32.94
846.595	-90.28
846.77	-4.27
846.946	10.07
847.122	-28.84
847.297	10.07
847.473	59.22
847.648	-135.34
847.824	12.12
847.999	-104.62
848.175	-10.41
848.35	-16.55
848.526	32.6
848.701	85.84
848.876	44.88
849.052	79.7
849.227	-45.23
849.403	-51.37
849.578	-73.9
849.753	-32.94
849.929	65.36
850.104	-98.47
850.279	-16.55
850.454	44.88
850.63	48.98
850.805	20.31
850.98	-2.22
851.155	32.6
851.33	-18.6
851.505	-106.67
851.681	46.93
851.856	-106.67
852.031	42.84
852.206	36.69
852.381	-55.47
852.556	-22.7
852.731	26.45
852.906	51.03
853.081	-59.56
853.256	112.47
853.431	16.21
853.606	-55.47
853.781	-24.75
853.956	-153.77
854.131	53.08
854.305	-114.86
854.48	34.64
854.655	-30.89
854.83	-61.61
855.005	-43.18
855.18	10.07
855.354	-2.22
855.529	46.93
855.704	-24.75
855.879	36.69
856.053	-32.94
856.228	-61.61
856.403	-45.23
856.577	53.08
856.752	-94.38
856.926	-37.03
857.101	-47.27
857.276	-114.86
857.45	5.97
857.625	14.17
857.799	-26.79
857.974	-108.71
858.148	-172.2
858.323	-22.7
858.497	3.93
858.672	-41.13
858.846	-77.99
859.02	61.27
859.195	-22.7
859.369	-24.75
859.543	-20.65
859.718	53.08
859.892	46.93
860.066	-6.31
860.241	-37.03
860.415	-84.14
860.589	-86.19
860.763	-53.42
860.938	-14.51
861.112	-24.75
861.286	-18.6
861.46	-32.94
861.634	-30.89
861.808	44.88
861.982	-43.18
862.157	-112.81
862.331	-49.32
862.505	-0.17
862.679	-129.19
862.853	-18.6
863.027	-28.84
863.201	137.04
863.375	-37.03
863.549	8.02
863.722	-45.23
863.896	65.36
864.07	-37.03
864.244	-8.36
864.418	59.22
864.592	-55.47
864.766	3.93
864.939	-24.75
865.113	-59.56
865.287	61.27
865.461	-34.99
865.634	-26.79
865.808	42.84
865.982	-24.75
866.156	-39.08
866.329	-67.75
866.503	-10.41
866.676	48.98
866.85	-12.46
867.024	-26.79
867.197	36.69
867.371	44.88
867.544	14.17
867.718	-90.28
867.891	77.65
868.065	-116.9
868.238	28.5
868.412	51.03
868.585	-98.47
868.759	-22.7
868.932	-100.52
869.105	-90.28
869.279	40.79
869.452	-172.2
869.625	-20.65
869.799	22.36
869.972	-51.37
870.145	8.02
870.319	81.75
870.492	-67.75
870.665	-39.08
870.838	-45.23
871.011	-153.77
871.185	-59.56
871.358	-94.38
871.531	5.97
871.704	10.07
871.877	42.84
872.05	-73.9
872.223	-82.09
872.396	55.12
872.569	102.23
872.742	-80.04
872.915	-26.79
873.088	-24.75
873.261	26.45
873.434	18.26
873.607	-47.27
873.78	147.28
873.953	-137.38
874.126	-32.94
874.299	12.12
874.471	-18.6
874.644	-20.65
874.817	-18.6
874.99	106.32
875.163	-57.51
875.335	38.74
875.508	-8.36
875.681	36.69
875.853	-73.9
876.026	-2.22
876.199	42.84
876.371	-14.51
876.544	-84.14
876.717	46.93
876.889	-10.41
877.062	108.37
877.234	-121
877.407	-16.55
877.579	-30.89
877.752	28.5
877.924	-24.75
878.097	-6.31
878.269	34.64
878.442	-0.17
878.614	3.93
878.786	59.22
878.959	24.4
879.131	-10.41
879.303	-196.78
879.476	-80.04
879.648	51.03
879.82	-39.08
879.993	-12.46
880.165	-2.22
880.337	-59.56
880.509	53.08
880.681	-135.34
880.854	-59.56
881.026	26.45
881.198	135
881.37	-92.33
881.542	-22.7
881.714	-75.95
881.886	-26.79
882.058	77.65
882.23	-10.41
882.402	24.4
882.574	-53.42
882.746	32.6
882.918	38.74
883.09	14.17
883.262	-41.13
883.434	-6.31
883.606	-141.48
883.778	-18.6
883.95	108.37
884.122	-47.27
884.293	87.89
884.465	14.17
884.637	55.12
884.809	-47.27
884.98	18.26
885.152	44.88
885.324	42.84
885.496	-77.99
885.667	8.02
885.839	-84.14
886.011	169.81
886.182	61.27
886.354	79.7
886.525	-57.51
886.697	42.84
886.869	-104.62
887.04	-47.27
887.212	57.17
887.383	110.42
887.555	67.41
887.726	-18.6
887.897	-32.94
888.069	1.88
888.24	61.27
888.412	-12.46
888.583	-37.03
888.754	10.07
888.926	-90.28
889.097	-55.47
889.268	-129.19
889.44	-20.65
889.611	-121
889.782	-75.95
889.953	-94.38
890.125	104.28
890.296	-2.22
890.467	26.45
890.638	-45.23
890.809	-61.61
890.98	-67.75
891.151	26.45
891.323	28.5
891.494	-47.27
891.665	-34.99
891.836	57.17
892.007	-34.99
892.178	-14.51
892.349	-22.7
892.52	-6.31
892.691	18.26
892.862	24.4
893.032	-82.09
893.203	65.36
893.374	-47.27
893.545	61.27
893.716	-121
893.887	-30.89
894.057	-59.56
894.228	-37.03
894.399	12.12
894.57	124.76
894.74	-12.46
894.911	-6.31
895.082	-28.84
895.253	-41.13
895.423	-39.08
895.594	116.56
895.764	44.88
895.935	-47.27
896.106	22.36
896.276	-100.52
896.447	5.97
896.617	-73.9
896.788	-84.14
896.958	-82.09
897.129	-80.04
897.299	-102.57
897.47	59.22
897.64	-10.41
897.81	-61.61
897.981	-0.17
898.151	-80.04
898.322	-65.71
898.492	10.07
898.662	-102.57
898.832	-34.99
899.003	-63.66
899.173	57.17
899.343	-18.6
899.513	-90.28
