Data from USB4F104151__251__11-20-04-635.txt Node

Date: Wed Feb 26 11:20:04 EST 2025
User: louis
Spectrometer: USB4F10415
Trigger mode: 4
Integration Time (sec): 1.000000E-1
Scans to average: 1
Electric dark correction enabled: true
Nonlinearity correction enabled: false
Boxcar width: 0
XAxis mode: Wavelengths
Number of Pixels in Spectrum: 3648
>>>>>Begin Spectral Data<<<<<
178.204	-428.03
178.424	-428.03
178.644	-428.03
178.864	-425.98
179.084	-413.69
179.304	32.77
179.524	-30.72
179.744	12.29
179.964	26.62
180.184	-34.82
180.404	0
180.624	-57.34
180.844	-28.67
181.064	-38.91
181.283	73.73
181.503	-38.91
181.723	83.97
181.943	-92.16
182.163	137.21
182.383	22.53
182.602	-49.15
182.822	120.83
183.042	71.68
183.262	-32.77
183.482	-38.91
183.701	-49.15
183.921	28.67
184.141	-88.06
184.361	-16.38
184.58	90.11
184.8	-20.48
185.02	-40.96
185.239	94.21
185.459	96.25
185.679	45.06
185.898	-94.21
186.118	61.44
186.338	-18.43
186.557	32.77
186.777	-90.11
186.997	-20.48
187.216	-43.01
187.436	200.7
187.655	122.88
187.875	69.63
188.095	-16.38
188.314	92.16
188.534	20.48
188.753	-118.78
188.973	112.64
189.192	118.78
189.412	-61.44
189.631	-81.92
189.851	-36.86
190.07	75.77
190.29	-28.67
190.509	0
190.729	38.91
190.948	49.15
191.168	227.32
191.387	79.87
191.607	20.48
191.826	34.82
192.045	-106.49
192.265	-47.1
192.484	32.77
192.704	-14.34
192.923	-63.49
193.142	104.45
193.362	81.92
193.581	100.35
193.8	81.92
194.02	10.24
194.239	32.77
194.458	30.72
194.678	16.38
194.897	-34.82
195.116	10.24
195.335	20.48
195.555	86.01
195.774	-24.58
195.993	26.62
196.212	18.43
196.432	-12.29
196.651	-12.29
196.87	-10.24
197.089	260.09
197.308	38.91
197.528	53.25
197.747	-104.45
197.966	26.62
198.185	88.06
198.404	-86.01
198.623	120.83
198.842	94.21
199.062	34.82
199.281	92.16
199.5	-38.91
199.719	-6.14
199.938	81.92
200.157	18.43
200.376	102.4
200.595	118.78
200.814	43.01
201.033	-43.01
201.252	90.11
201.471	65.53
201.69	28.67
201.909	86.01
202.128	120.83
202.347	28.67
202.566	-36.86
202.785	-71.68
203.004	-32.77
203.223	251.9
203.442	-14.34
203.661	-45.06
203.879	51.2
204.098	143.36
204.317	-47.1
204.536	12.29
204.755	8.19
204.974	73.73
205.193	-55.3
205.411	106.49
205.63	57.34
205.849	38.91
206.068	-4.1
206.287	-77.82
206.505	77.82
206.724	53.25
206.943	-45.06
207.162	-102.4
207.381	-34.82
207.599	43.01
207.818	-10.24
208.037	-45.06
208.255	24.58
208.474	51.2
208.693	47.1
208.911	-96.25
209.13	65.53
209.349	65.53
209.567	75.77
209.786	51.2
210.005	67.58
210.223	16.38
210.442	-34.82
210.661	6.14
210.879	34.82
211.098	-20.48
211.316	106.49
211.535	98.3
211.753	-20.48
211.972	110.59
212.191	-45.06
212.409	47.1
212.628	18.43
212.846	-69.63
213.065	63.49
213.283	88.06
213.502	14.34
213.72	-4.1
213.938	-26.62
214.157	4.1
214.375	98.3
214.594	-61.44
214.812	-26.62
215.031	-53.25
215.249	-40.96
215.467	16.38
215.686	-38.91
215.904	83.97
216.122	-16.38
216.341	63.49
216.559	14.34
216.778	122.88
216.996	135.17
217.214	12.29
217.432	-71.68
217.651	-120.83
217.869	-24.58
218.087	24.58
218.306	38.91
218.524	-10.24
218.742	20.48
218.96	104.45
219.179	-24.58
219.397	14.34
219.615	149.5
219.833	133.12
220.051	0
220.27	63.49
220.488	94.21
220.706	88.06
220.924	-34.82
221.142	10.24
221.36	30.72
221.578	36.86
221.796	-10.24
222.015	20.48
222.233	16.38
222.451	165.89
222.669	-65.54
222.887	26.62
223.105	-79.87
223.323	18.43
223.541	-59.39
223.759	-47.1
223.977	16.38
224.195	122.88
224.413	28.67
224.631	-30.72
224.849	22.53
225.067	206.84
225.285	-57.34
225.503	-69.63
225.721	-45.06
225.939	-36.86
226.157	59.39
226.375	169.98
226.592	-40.96
226.81	-32.77
227.028	90.11
227.246	53.25
227.464	12.29
227.682	24.58
227.9	-8.19
228.117	43.01
228.335	69.63
228.553	2.05
228.771	-26.62
228.989	-12.29
229.206	45.06
229.424	-59.39
229.642	-4.1
229.86	16.38
230.077	100.35
230.295	45.06
230.513	36.86
230.731	30.72
230.948	120.83
231.166	141.31
231.384	-43.01
231.601	-40.96
231.819	167.93
232.037	-2.05
232.254	-73.73
232.472	-77.82
232.689	-43.01
232.907	163.84
233.125	-20.48
233.342	-10.24
233.56	-47.1
233.777	-73.73
233.995	-30.72
234.213	59.39
234.43	135.17
234.648	-2.05
234.865	-122.88
235.083	36.86
235.3	57.34
235.518	147.45
235.735	26.62
235.953	81.92
236.17	4.1
236.388	-30.72
236.605	20.48
236.822	43.01
237.04	96.25
237.257	28.67
237.475	14.34
237.692	-8.19
237.909	51.2
238.127	-10.24
238.344	-43.01
238.562	63.49
238.779	-112.64
238.996	-63.49
239.214	-18.43
239.431	106.49
239.648	-22.53
239.865	149.5
240.083	-22.53
240.3	-63.49
240.517	-36.86
240.735	-12.29
240.952	141.31
241.169	-16.38
241.386	-2.05
241.603	-32.77
241.821	-45.06
242.038	18.43
242.255	83.97
242.472	-94.21
242.689	18.43
242.907	8.19
243.124	104.45
243.341	-12.29
243.558	-51.2
243.775	-77.82
243.992	-96.25
244.209	2.05
244.426	143.36
244.643	34.82
244.86	45.06
245.078	34.82
245.295	4.1
245.512	-14.34
245.729	-71.68
245.946	-4.1
246.163	-102.4
246.38	10.24
246.597	18.43
246.814	-4.1
247.031	-34.82
247.248	-55.3
247.464	-10.24
247.681	47.1
247.898	49.15
248.115	26.62
248.332	-98.3
248.549	126.97
248.766	143.36
248.983	43.01
249.2	81.92
249.417	88.06
249.633	-47.1
249.85	28.67
250.067	-81.92
250.284	10.24
250.501	73.73
250.717	-20.48
250.934	-69.63
251.151	-28.67
251.368	-45.06
251.585	8.19
251.801	-4.1
252.018	-63.49
252.235	102.4
252.451	-24.58
252.668	28.67
252.885	83.97
253.102	65.53
253.318	-102.4
253.535	-28.67
253.752	-2.05
253.968	-79.87
254.185	-124.93
254.401	-73.73
254.618	47.1
254.835	-55.3
255.051	63.49
255.268	55.3
255.484	18.43
255.701	-18.43
255.917	18.43
256.134	-2.05
256.351	22.53
256.567	-108.54
256.784	-6.14
257	-90.11
257.217	71.68
257.433	20.48
257.65	0
257.866	186.37
258.082	-16.38
258.299	-28.67
258.515	30.72
258.732	-53.25
258.948	-32.77
259.165	51.2
259.381	-49.15
259.597	-16.38
259.814	53.25
260.03	-12.29
260.246	-51.2
260.463	126.97
260.679	147.45
260.895	49.15
261.112	73.73
261.328	14.34
261.544	-124.93
261.761	65.53
261.977	-18.43
262.193	-47.1
262.409	86.01
262.626	57.34
262.842	-8.19
263.058	-36.86
263.274	65.53
263.49	-49.15
263.707	36.86
263.923	6.14
264.139	-102.4
264.355	8.19
264.571	57.34
264.787	-16.38
265.004	92.16
265.22	-16.38
265.436	-49.15
265.652	69.63
265.868	36.86
266.084	-94.21
266.3	40.96
266.516	-67.58
266.732	-20.48
266.948	86.01
267.164	-45.06
267.38	90.11
267.596	61.44
267.812	67.58
268.028	61.44
268.244	32.77
268.46	55.3
268.676	2.05
268.892	-24.58
269.108	-65.54
269.324	-45.06
269.54	-98.3
269.756	47.1
269.972	-32.77
270.188	18.43
270.403	-86.01
270.619	0
270.835	77.82
271.051	-22.53
271.267	-8.19
271.483	-43.01
271.698	65.53
271.914	83.97
272.13	61.44
272.346	-43.01
272.562	77.82
272.777	102.4
272.993	-34.82
273.209	-32.77
273.425	102.4
273.64	-36.86
273.856	100.35
274.072	-67.58
274.287	12.29
274.503	57.34
274.719	49.15
274.934	10.24
275.15	-139.26
275.366	-30.72
275.581	-102.4
275.797	0
276.012	38.91
276.228	-38.91
276.444	79.87
276.659	83.97
276.875	-22.53
277.09	-6.14
277.306	16.38
277.521	75.77
277.737	20.48
277.952	77.82
278.168	-47.1
278.383	47.1
278.599	14.34
278.814	57.34
279.03	38.91
279.245	59.39
279.461	86.01
279.676	120.83
279.892	-34.82
280.107	-47.1
280.322	-22.53
280.538	18.43
280.753	-32.77
280.969	53.25
281.184	55.3
281.399	157.69
281.615	43.01
281.83	94.21
282.045	-8.19
282.26	-20.48
282.476	24.58
282.691	28.67
282.906	16.38
283.122	45.06
283.337	-49.15
283.552	63.49
283.767	-59.39
283.983	83.97
284.198	32.77
284.413	16.38
284.628	-28.67
284.843	32.77
285.058	40.96
285.274	-14.34
285.489	-8.19
285.704	71.68
285.919	-38.91
286.134	-20.48
286.349	4.1
286.564	-36.86
286.779	120.83
286.995	30.72
287.21	-32.77
287.425	104.45
287.64	57.34
287.855	10.24
288.07	-38.91
288.285	120.83
288.5	75.77
288.715	-12.29
288.93	16.38
289.145	-61.44
289.36	129.02
289.575	16.38
289.79	88.06
290.004	-20.48
290.219	59.39
290.434	-32.77
290.649	-100.35
290.864	-20.48
291.079	-6.14
291.294	-10.24
291.509	36.86
291.724	-45.06
291.938	-12.29
292.153	88.06
292.368	-61.44
292.583	0
292.798	90.11
293.012	-18.43
293.227	77.82
293.442	0
293.657	-14.34
293.871	147.45
294.086	30.72
294.301	139.26
294.516	165.89
294.73	4.1
294.945	-88.06
295.16	0
295.374	106.49
295.589	71.68
295.804	-24.58
296.018	36.86
296.233	118.78
296.447	14.34
296.662	-14.34
296.877	36.86
297.091	38.91
297.306	-45.06
297.52	-65.54
297.735	28.67
297.949	65.53
298.164	79.87
298.378	108.54
298.593	-102.4
298.807	-98.3
299.022	20.48
299.236	61.44
299.451	-6.14
299.665	6.14
299.88	0
300.094	38.91
300.309	122.88
300.523	14.34
300.737	22.53
300.952	55.3
301.166	174.08
301.381	-18.43
301.595	-98.3
301.809	-55.3
302.024	-4.1
302.238	-102.4
302.452	129.02
302.667	71.68
302.881	161.79
303.095	92.16
303.309	36.86
303.524	-47.1
303.738	43.01
303.952	-24.58
304.166	-2.05
304.381	-118.78
304.595	118.78
304.809	-2.05
305.023	12.29
305.237	-32.77
305.452	53.25
305.666	104.45
305.88	90.11
306.094	61.44
306.308	65.53
306.522	55.3
306.736	28.67
306.95	63.49
307.164	-73.73
307.379	-18.43
307.593	131.07
307.807	36.86
308.021	106.49
308.235	122.88
308.449	-106.49
308.663	-26.62
308.877	143.36
309.091	57.34
309.305	24.58
309.519	-63.49
309.733	100.35
309.947	-110.59
310.161	34.82
310.374	24.58
310.588	92.16
310.802	-47.1
311.016	32.77
311.23	38.91
311.444	-49.15
311.658	12.29
311.872	122.88
312.085	67.58
312.299	120.83
312.513	149.5
312.727	32.77
312.941	-77.82
313.154	2.05
313.368	-34.82
313.582	65.53
313.796	61.44
314.009	6.14
314.223	114.69
314.437	104.45
314.651	51.2
314.864	-38.91
315.078	71.68
315.292	-69.63
315.505	-26.62
315.719	34.82
315.933	61.44
316.146	6.14
316.36	-8.19
316.573	0
316.787	30.72
317.001	77.82
317.214	-12.29
317.428	71.68
317.641	4.1
317.855	-14.34
318.068	40.96
318.282	20.48
318.495	141.31
318.709	126.97
318.922	-6.14
319.136	110.59
319.349	51.2
319.563	-67.58
319.776	79.87
319.99	-94.21
320.203	63.49
320.417	94.21
320.63	104.45
320.843	137.21
321.057	38.91
321.27	14.34
321.483	71.68
321.697	112.64
321.91	28.67
322.124	67.58
322.337	92.16
322.55	-34.82
322.763	47.1
322.977	-24.58
323.19	-18.43
323.403	12.29
323.617	71.68
323.83	4.1
324.043	-8.19
324.256	16.38
324.469	-28.67
324.683	-4.1
324.896	-86.01
325.109	-10.24
325.322	-124.93
325.535	34.82
325.748	165.89
325.962	-2.05
326.175	28.67
326.388	26.62
326.601	88.06
326.814	-40.96
327.027	90.11
327.24	73.73
327.453	-77.82
327.666	49.15
327.879	61.44
328.092	22.53
328.305	22.53
328.518	-61.44
328.731	-55.3
328.944	-8.19
329.157	49.15
329.37	-53.25
329.583	212.99
329.796	51.2
330.009	-47.1
330.222	102.4
330.435	34.82
330.648	-6.14
330.861	51.2
331.073	-22.53
331.286	86.01
331.499	18.43
331.712	-90.11
331.925	18.43
332.138	32.77
332.35	12.29
332.563	-47.1
332.776	151.55
332.989	-32.77
333.202	-26.62
333.414	57.34
333.627	6.14
333.84	-36.86
334.053	-4.1
334.265	10.24
334.478	-12.29
334.691	0
334.903	6.14
335.116	-61.44
335.329	-47.1
335.541	69.63
335.754	155.65
335.966	-55.3
336.179	53.25
336.392	-8.19
336.604	-61.44
336.817	30.72
337.029	2.05
337.242	69.63
337.454	30.72
337.667	-43.01
337.88	79.87
338.092	-14.34
338.305	40.96
338.517	-114.69
338.729	0
338.942	96.25
339.154	-32.77
339.367	-102.4
339.579	92.16
339.792	-6.14
340.004	10.24
340.217	28.67
340.429	12.29
340.641	-47.1
340.854	-43.01
341.066	0
341.278	96.25
341.491	167.93
341.703	38.91
341.915	-71.68
342.128	34.82
342.34	24.58
342.552	-102.4
342.764	-40.96
342.977	77.82
343.189	20.48
343.401	32.77
343.613	-55.3
343.826	22.53
344.038	-38.91
344.25	24.58
344.462	-32.77
344.674	4.1
344.886	-71.68
345.099	-2.05
345.311	75.77
345.523	-34.82
345.735	-102.4
345.947	2.05
346.159	28.67
346.371	-20.48
346.583	38.91
346.795	106.49
347.007	-108.54
347.219	20.48
347.431	-16.38
347.643	104.45
347.855	-51.2
348.067	88.06
348.279	-45.06
348.491	-4.1
348.703	71.68
348.915	16.38
349.127	-43.01
349.339	38.91
349.551	-86.01
349.763	49.15
349.975	47.1
350.187	36.86
350.399	16.38
350.61	59.39
350.822	-71.68
351.034	43.01
351.246	55.3
351.458	-12.29
351.669	16.38
351.881	40.96
352.093	90.11
352.305	112.64
352.517	24.58
352.728	45.06
352.94	67.58
353.152	-2.05
353.363	-139.26
353.575	53.25
353.787	188.41
353.999	79.87
354.21	172.03
354.422	-14.34
354.633	32.77
354.845	96.25
355.057	14.34
355.268	16.38
355.48	8.19
355.692	-22.53
355.903	49.15
356.115	-43.01
356.326	-149.5
356.538	69.63
356.749	139.26
356.961	88.06
357.172	8.19
357.384	-30.72
357.595	182.27
357.807	4.1
358.018	-40.96
358.23	-26.62
358.441	151.55
358.653	98.3
358.864	40.96
359.075	-18.43
359.287	16.38
359.498	-8.19
359.709	106.49
359.921	34.82
360.132	12.29
360.344	-10.24
360.555	-98.3
360.766	104.45
360.977	-110.59
361.189	-16.38
361.4	-55.3
361.611	10.24
361.823	178.17
362.034	24.58
362.245	-131.07
362.456	26.62
362.667	79.87
362.879	-45.06
363.09	-6.14
363.301	102.4
363.512	0
363.723	-38.91
363.935	-63.49
364.146	71.68
364.357	-45.06
364.568	-28.67
364.779	-98.3
364.99	57.34
365.201	-30.72
365.412	63.49
365.623	-73.73
365.834	6.14
366.045	102.4
366.256	88.06
366.467	45.06
366.678	-43.01
366.889	0
367.1	-67.58
367.311	-6.14
367.522	-32.77
367.733	77.82
367.944	96.25
368.155	40.96
368.366	51.2
368.577	86.01
368.788	45.06
368.999	-40.96
369.209	-26.62
369.42	219.13
369.631	217.08
369.842	88.06
370.053	34.82
370.264	90.11
370.474	-92.16
370.685	8.19
370.896	-10.24
371.107	108.54
371.317	61.44
371.528	10.24
371.739	122.88
371.95	36.86
372.16	108.54
372.371	-49.15
372.582	4.1
372.792	63.49
373.003	90.11
373.214	40.96
373.424	141.31
373.635	-22.53
373.846	69.63
374.056	71.68
374.267	32.77
374.477	-47.1
374.688	-81.92
374.898	22.53
375.109	-10.24
375.319	49.15
375.53	77.82
375.74	114.69
375.951	55.3
376.161	53.25
376.372	161.79
376.582	-22.53
376.793	65.53
377.003	-18.43
377.214	0
377.424	4.1
377.635	51.2
377.845	0
378.055	59.39
378.266	-86.01
378.476	-22.53
378.686	88.06
378.897	-22.53
379.107	114.69
379.317	-6.14
379.528	-34.82
379.738	-24.58
379.948	55.3
380.158	92.16
380.369	-22.53
380.579	71.68
380.789	-26.62
380.999	169.98
381.21	10.24
381.42	192.51
381.63	-28.67
381.84	51.2
382.05	-32.77
382.261	81.92
382.471	73.73
382.681	-114.69
382.891	118.78
383.101	-28.67
383.311	-94.21
383.521	51.2
383.731	86.01
383.941	71.68
384.151	49.15
384.361	-8.19
384.571	65.53
384.781	53.25
384.991	139.26
385.201	155.65
385.411	24.58
385.621	20.48
385.831	-32.77
386.041	57.34
386.251	-71.68
386.461	45.06
386.671	-61.44
386.881	0
387.091	18.43
387.301	104.45
387.511	-24.58
387.72	36.86
387.93	-30.72
388.14	-28.67
388.35	12.29
388.56	106.49
388.769	40.96
388.979	36.86
389.189	-83.97
389.399	-14.34
389.609	-10.24
389.818	75.77
390.028	-18.43
390.238	149.5
390.447	-86.01
390.657	22.53
390.867	-51.2
391.076	-88.06
391.286	2.05
391.496	57.34
391.705	-8.19
391.915	73.73
392.125	22.53
392.334	-32.77
392.544	129.02
392.753	36.86
392.963	-67.58
393.172	-43.01
393.382	-106.49
393.591	116.73
393.801	20.48
394.01	155.65
394.22	65.53
394.429	-12.29
394.639	28.67
394.848	-14.34
395.058	-12.29
395.267	-26.62
395.477	32.77
395.686	-10.24
395.895	169.98
396.105	229.37
396.314	45.06
396.524	-4.1
396.733	-40.96
396.942	67.58
397.152	4.1
397.361	45.06
397.57	59.39
397.78	34.82
397.989	24.58
398.198	112.64
398.407	-2.05
398.617	18.43
398.826	-18.43
399.035	-40.96
399.244	114.69
399.453	34.82
399.663	26.62
399.872	96.25
400.081	-32.77
400.29	98.3
400.499	-8.19
400.708	26.62
400.917	-40.96
401.127	8.19
401.336	-67.58
401.545	157.69
401.754	67.58
401.963	6.14
402.172	-120.83
402.381	-45.06
402.59	32.77
402.799	26.62
403.008	102.4
403.217	10.24
403.426	77.82
403.635	-26.62
403.844	65.53
404.053	-75.77
404.262	32.77
404.471	83.97
404.68	57.34
404.888	14.34
405.097	51.2
405.306	4.1
405.515	30.72
405.724	32.77
405.933	81.92
406.142	57.34
406.35	67.58
406.559	94.21
406.768	2.05
406.977	10.24
407.185	34.82
407.394	40.96
407.603	-73.73
407.812	-53.25
408.02	151.55
408.229	49.15
408.438	14.34
408.646	-49.15
408.855	83.97
409.064	-2.05
409.272	-16.38
409.481	59.39
409.69	-69.63
409.898	-10.24
410.107	61.44
410.315	108.54
410.524	-102.4
410.733	-16.38
410.941	-51.2
411.15	157.69
411.358	49.15
411.567	61.44
411.775	-88.06
411.984	12.29
412.192	38.91
412.401	32.77
412.609	153.6
412.818	104.45
413.026	24.58
413.234	-55.3
413.443	30.72
413.651	71.68
413.86	-45.06
414.068	143.36
414.276	159.74
414.485	-32.77
414.693	159.74
414.901	116.73
415.11	30.72
415.318	-36.86
415.526	38.91
415.734	104.45
415.943	-30.72
416.151	126.97
416.359	6.14
416.567	53.25
416.776	20.48
416.984	40.96
417.192	79.87
417.4	-67.58
417.608	-43.01
417.817	-79.87
418.025	106.49
418.233	92.16
418.441	-16.38
418.649	-86.01
418.857	69.63
419.065	149.5
419.273	24.58
419.481	30.72
419.689	10.24
419.897	6.14
420.105	-94.21
420.313	137.21
420.521	165.89
420.729	161.79
420.937	8.19
421.145	-20.48
421.353	28.67
421.561	63.49
421.769	71.68
421.977	26.62
422.185	137.21
422.393	12.29
422.601	116.73
422.809	69.63
423.017	36.86
423.224	96.25
423.432	73.73
423.64	43.01
423.848	83.97
424.056	81.92
424.263	16.38
424.471	77.82
424.679	98.3
424.887	43.01
425.094	122.88
425.302	53.25
425.51	4.1
425.718	47.1
425.925	-12.29
426.133	-26.62
426.341	83.97
426.548	-10.24
426.756	26.62
426.964	143.36
427.171	-6.14
427.379	96.25
427.586	63.49
427.794	106.49
428.001	77.82
428.209	159.74
428.417	118.78
428.624	157.69
428.832	122.88
429.039	6.14
429.247	71.68
429.454	98.3
429.662	178.17
429.869	129.02
430.076	169.98
430.284	112.64
430.491	118.78
430.699	137.21
430.906	143.36
431.114	100.35
431.321	231.42
431.528	61.44
431.736	124.93
431.943	124.93
432.15	43.01
432.358	145.41
432.565	286.72
432.772	-53.25
432.979	94.21
433.187	49.15
433.394	180.22
433.601	122.88
433.808	157.69
434.016	223.23
434.223	270.33
434.43	208.89
434.637	208.89
434.844	241.66
435.052	200.7
435.259	356.35
435.466	284.67
435.673	184.32
435.88	286.72
436.087	339.96
436.294	339.96
436.501	292.86
436.708	212.99
436.915	258.04
437.122	286.72
437.329	270.33
437.537	208.89
437.743	241.66
437.95	446.46
438.157	403.45
438.364	354.3
438.571	350.2
438.778	415.74
438.985	481.27
439.192	446.46
439.399	466.94
439.606	364.54
439.813	573.43
440.02	606.2
440.227	653.3
440.433	565.24
440.64	536.57
440.847	468.98
441.054	483.32
441.261	716.79
441.467	540.66
441.674	546.81
441.881	696.31
442.088	651.25
442.294	618.49
442.501	757.75
442.708	796.66
442.914	780.28
443.121	765.94
443.328	854
443.534	909.3
443.741	958.45
443.948	862.19
444.154	962.55
444.361	1134.57
444.568	1011.7
444.774	1066.99
444.981	993.26
445.187	1191.92
445.394	1226.73
445.6	1150.96
445.807	1357.8
446.013	1265.64
446.22	1261.55
446.426	1384.43
446.633	1523.69
446.839	1781.73
447.046	1388.52
447.252	1630.18
447.459	1742.82
447.665	1640.42
447.871	1900.51
448.078	1920.99
448.284	1980.39
448.491	2009.06
448.697	2125.79
448.903	2308.06
449.11	2289.63
449.316	2220
449.522	2490.33
449.728	2516.95
449.935	2559.96
450.141	2580.44
450.347	2877.4
450.553	2717.65
450.76	2830.29
450.966	3084.24
451.172	3102.67
451.378	3311.57
451.584	3325.9
451.791	3528.65
451.997	3618.76
452.203	3612.62
452.409	3878.85
452.615	4007.87
452.821	3813.32
453.027	3934.15
453.233	4480.96
453.44	4364.22
453.646	4478.91
453.852	4812.73
454.058	5013.43
454.264	4984.76
454.47	5363.63
454.676	5425.07
454.882	5982.12
455.088	5603.24
455.294	5961.64
455.5	6414.24
455.705	6770.58
455.911	6657.95
456.117	6950.81
456.323	7096.21
456.529	7118.74
456.735	7817.1
456.941	8011.65
457.147	8312.71
457.352	8740.73
457.558	8791.93
457.764	9525.1
457.97	9424.75
458.176	9772.91
458.381	10461.02
458.587	10616.67
458.793	11288.4
458.999	11206.48
459.204	12646.21
459.41	13088.57
459.616	12926.78
459.821	13719.34
460.027	14307.11
460.233	15097.63
460.438	15019.8
460.644	15591.19
460.85	15976.2
461.055	16498.44
461.261	17327.86
461.466	17004.28
461.672	17590
461.878	19226.33
462.083	19052.25
462.289	19568.34
462.494	20551.37
462.7	20569.8
462.905	20580.04
463.111	22503.08
463.316	23537.3
463.522	24063.63
463.727	24712.84
463.932	25622.14
464.138	26435.18
464.343	27801.18
464.549	27317.86
464.754	29748.79
464.959	30641.71
465.165	30735.91
465.37	30799.4
465.575	30797.35
465.781	32824.84
465.986	33945.08
466.191	33144.33
466.397	33867.26
466.602	32736.78
466.807	34586.1
467.012	35579.36
467.218	35980.76
467.423	36185.56
467.628	37193.16
467.833	38839.73
468.038	37643.71
468.244	37512.64
468.449	39572.9
468.654	38407.61
468.859	38819.25
469.064	38407.61
469.269	37705.15
469.474	38061.5
469.679	39347.62
469.885	38131.13
470.09	38735.28
470.295	38690.23
470.5	37901.76
470.705	38442.42
470.91	36965.84
471.115	37297.61
471.32	37559.75
471.525	37379.53
471.73	35679.71
471.935	35608.03
472.139	34633.2
472.344	34577.9
472.549	34563.57
472.754	33781.24
472.959	33019.4
473.164	32146.97
473.369	31516.19
473.574	32503.31
473.778	31749.66
473.983	31020.58
474.188	30555.69
474.393	28976.71
474.598	28970.57
474.802	28556.88
475.007	28157.52
475.212	27741.78
475.417	26693.22
475.621	26297.97
475.826	26132.08
476.031	25734.78
476.235	24821.38
476.44	24880.77
476.645	24415.88
476.849	24069.78
477.054	23828.12
477.259	23111.33
477.463	23170.72
477.668	22634.15
477.872	22345.39
478.077	21849.78
478.282	21481.14
478.486	21114.56
478.691	20999.87
478.895	20801.22
479.1	20666.05
479.304	20405.96
479.509	19885.78
479.713	20006.61
479.918	19496.66
480.122	19400.41
480.326	19183.32
480.531	19418.84
480.735	18962.14
480.94	18644.71
481.144	19392.22
481.348	18312.94
481.553	18241.26
481.757	18046.7
481.961	18075.37
482.166	18222.83
482.37	18034.41
482.574	17436.41
482.778	17241.85
482.983	17702.64
483.187	17344.25
483.391	17241.85
483.595	16912.13
483.8	16733.95
484.004	16768.77
484.208	17035
484.412	16594.69
484.616	16451.33
484.821	16254.73
485.025	15810.32
485.229	16023.31
485.433	15357.72
485.637	15415.06
485.841	15075.1
486.045	15021.85
486.249	14823.2
486.453	14468.9
486.657	14489.38
486.861	14284.58
487.065	13834.03
487.269	13952.81
487.473	13254.45
487.677	13795.12
487.881	13354.8
488.085	12943.16
488.289	12900.16
488.493	12484.42
488.697	12658.49
488.901	12160.84
489.105	11872.07
489.309	11855.69
489.512	11571.02
489.716	11593.55
489.92	11239.25
490.124	10927.96
490.328	10913.63
490.531	10635.1
490.735	10282.85
490.939	10286.95
491.143	9770.86
491.346	9785.19
491.55	9777
491.754	9447.28
491.958	9305.97
492.161	9383.79
492.365	9213.81
492.569	8834.94
492.772	8775.55
492.976	8861.56
493.18	8505.21
493.383	8531.84
493.587	8361.86
493.79	8585.08
493.994	8122.24
494.197	8038.28
494.401	8017.8
494.605	7837.58
494.808	7888.78
495.012	7899.02
495.215	7808.9
495.419	7905.16
495.622	7489.42
495.825	7479.18
496.029	7434.13
496.232	7622.54
496.436	7450.51
496.639	7731.08
496.843	7499.66
497.046	7600.01
497.249	7782.28
497.453	7624.59
497.656	7417.74
497.859	7481.23
498.063	7591.82
498.266	7745.42
498.469	7325.58
498.673	7604.11
498.876	7507.85
499.079	7606.16
499.282	7554.96
499.485	7939.97
499.689	7827.34
499.892	7823.24
500.095	7704.46
500.298	7952.26
500.501	7628.68
500.705	8120.2
500.908	8107.91
501.111	8142.72
501.314	8388.48
501.517	8499.07
501.72	8249.22
501.923	8322.94
502.126	8513.41
502.329	8466.3
502.532	8804.22
502.735	8595.32
502.938	8974.2
503.141	8966.01
503.344	9064.31
503.547	9211.76
503.75	9334.64
503.953	9207.67
504.156	9832.3
504.359	9752.43
504.562	9750.38
504.765	9994.09
504.968	10082.15
505.17	10159.97
505.373	10352.48
505.576	10569.57
505.779	10641.25
505.982	10827.61
506.185	11059.03
506.387	10993.5
506.59	11110.23
506.793	11908.94
506.996	11528.02
507.198	12310.34
507.401	12445.51
507.604	12388.16
507.807	13008.7
508.009	12975.93
508.212	13113.14
508.415	13477.68
508.617	13731.63
508.82	13965.1
509.022	13909.8
509.225	14903.07
509.428	14894.88
509.63	15468.31
509.833	15335.19
510.035	16033.55
510.238	16275.21
510.44	16652.03
510.643	16850.69
510.845	17526.52
511.048	17579.76
511.25	18175.72
511.453	18450.15
511.655	19189.47
511.858	19226.33
512.06	19560.15
512.262	20192.97
512.465	20627.14
512.667	20862.66
512.87	21466.81
513.072	21919.41
513.274	22378.15
513.477	23209.63
513.679	23529.11
513.881	23901.84
514.084	24407.69
514.286	25048.71
514.488	25403
514.69	26566.25
514.893	26416.75
515.095	27125.35
515.297	28077.65
515.499	28196.43
515.701	29165.12
515.904	29797.95
516.106	30418.48
516.308	31073.83
516.51	31475.23
516.712	31686.17
516.914	32654.86
517.116	33629.69
517.318	33691.13
517.52	34303.48
517.722	34747.89
517.925	35552.74
518.127	36556.24
518.329	37107.15
518.531	37389.77
518.733	38290.87
518.935	39101.87
519.136	39226.79
519.338	40199.58
519.54	40826.26
519.742	41198.99
519.944	41874.82
520.146	43062.64
520.348	43328.87
520.55	44168.54
520.752	43847.01
520.954	44926.29
521.155	45157.71
521.357	46044.48
521.559	46327.1
521.761	46791.99
521.963	46961.97
522.164	47461.68
522.366	48350.49
522.568	48350.49
522.77	48899.35
522.971	49759.5
523.173	49300.75
523.375	50119.94
523.576	49857.8
523.778	50119.94
523.98	50699.51
524.181	51012.85
524.383	50957.56
524.584	51623.15
524.786	51322.1
524.988	50883.83
525.189	51641.58
525.391	51950.82
525.592	51848.42
525.794	51897.58
525.995	51664.11
526.197	52057.32
526.398	51297.52
526.6	51719.4
526.801	51563.76
527.003	51557.61
527.204	51408.11
527.406	51387.63
527.607	50832.63
527.808	51074.29
528.01	50177.28
528.211	50021.64
528.412	50605.31
528.614	50128.13
528.815	49683.72
529.016	49710.35
529.218	48653.59
529.419	48477.47
529.62	47818.02
529.822	47242.54
530.023	47013.17
530.224	46843.19
530.425	46335.29
530.626	45626.7
530.828	45000.02
531.029	45458.76
531.23	44469.59
531.431	43984.22
531.632	43875.68
531.833	43361.64
532.035	42472.82
532.236	41932.16
532.437	41692.55
532.638	41029.01
532.839	40504.73
533.04	40381.85
533.241	39693.73
533.442	39400.87
533.643	38772.14
533.844	38215.1
534.045	38221.24
534.246	36910.54
534.447	36732.37
534.648	36343.25
534.849	35849.69
535.05	34979.31
535.251	34858.48
535.451	34031.1
535.652	33990.14
535.853	33336.84
536.054	32919.05
536.255	32538.13
536.456	31815.19
536.657	32181.78
536.857	31342.11
537.058	30656.04
537.259	30780.97
537.46	30043.7
537.66	29634.11
537.861	29075.01
538.062	28597.84
538.263	28274.26
538.463	27962.97
538.664	28051.03
538.865	27059.81
539.065	27104.87
539.266	26701.42
539.466	26697.32
539.667	25847.41
539.868	26222.19
540.068	25353.85
540.269	25005.7
540.469	24974.98
540.67	24653.45
540.87	24614.54
541.071	23762.58
541.271	23715.48
541.472	23633.56
541.672	23234.21
541.873	22834.85
542.073	22363.82
542.274	22601.38
542.474	21939.89
542.675	21530.3
542.875	21632.69
543.075	21348.03
543.276	21055.17
543.476	21071.55
543.676	20825.79
543.877	20416.2
544.077	20410.06
544.277	20049.61
544.478	19689.17
544.678	19631.83
544.878	19224.28
545.078	19121.88
545.279	18839.26
545.479	18771.68
545.679	18394.86
545.879	18505.45
546.079	18124.52
546.28	17755.89
546.48	17649.39
546.68	17712.88
546.88	17317.62
547.08	17018.62
547.28	17057.53
547.48	16613.12
547.68	16582.4
547.88	16252.68
548.081	16019.21
548.281	15623.95
548.481	15697.68
548.681	15476.5
548.881	15259.42
549.081	15097.63
549.28	14825.25
549.48	14743.33
549.68	14403.36
549.88	14432.04
550.08	13836.08
550.28	13770.54
550.48	13893.42
550.68	13535.03
550.88	13252.41
551.08	13066.04
551.279	13023.03
551.479	12640.06
551.679	12691.26
551.879	12304.2
552.079	12160.84
552.278	12001.1
552.478	11693.9
552.678	11722.57
552.878	11593.55
553.077	11175.77
553.277	11122.52
553.477	11157.33
553.676	10749.79
553.876	10731.36
554.076	10544.99
554.275	10350.43
554.475	10090.34
554.674	10338.15
554.874	9854.83
555.074	9760.62
555.273	9547.63
555.473	9377.65
555.672	9234.29
555.872	8914.81
556.071	8955.77
556.271	8970.1
556.47	8568.7
556.67	8359.81
556.869	8417.15
557.068	8130.44
557.268	8081.28
557.467	8132.48
557.667	8052.61
557.866	7688.07
558.065	7624.59
558.265	7448.46
558.464	7176.08
558.663	7253.91
558.863	7126.93
559.062	7143.32
559.261	6854.55
559.461	6922.13
559.66	6616.99
559.859	6533.02
560.058	6373.28
560.258	6326.18
560.457	6195.11
560.656	6354.85
560.855	5982.12
561.054	6197.15
561.253	5877.67
561.453	5920.68
561.652	5736.36
561.851	5816.23
562.05	5496.75
562.249	5404.59
562.448	5500.84
562.647	5201.84
562.846	5083.06
563.045	5126.07
563.244	4876.21
563.443	4962.23
563.642	4896.69
563.841	4945.84
564.04	4788.15
564.239	4769.72
564.438	4640.7
564.637	4624.31
564.836	4566.97
565.035	4401.08
565.234	4378.56
565.432	4280.25
565.631	4218.82
565.83	4112.32
566.029	4138.94
566.228	4102.08
566.427	4005.83
566.625	3817.41
566.824	3895.24
567.023	3794.89
567.222	3725.26
567.42	3631.05
567.619	3727.3
567.818	3596.23
568.016	3665.86
568.215	3416.01
568.414	3520.46
568.612	3481.55
568.811	3413.96
569.01	3360.72
569.208	3299.28
569.407	3370.96
569.605	3174.35
569.804	3100.62
570.002	2981.84
570.201	2938.84
570.4	3055.57
570.598	2910.16
570.797	2906.07
570.995	2746.33
571.193	2822.1
571.392	2815.96
571.59	2695.13
571.789	2662.36
571.987	2584.54
572.186	2662.36
572.384	2609.11
572.582	2506.71
572.781	2498.52
572.979	2351.07
573.177	2502.62
573.376	2318.3
573.574	2402.27
573.772	2404.32
573.971	2201.57
574.169	2150.37
574.367	2189.28
574.565	2201.57
574.763	2136.03
574.962	2050.02
575.16	2088.93
575.358	1947.62
575.556	1957.86
575.754	1943.52
575.952	1961.95
576.151	1978.34
576.349	1900.51
576.547	1789.92
576.745	1877.99
576.943	1753.06
577.141	1812.45
577.339	1695.72
577.537	1781.73
577.735	1839.08
577.933	1720.29
578.131	1595.37
578.329	1757.16
578.527	1460.2
578.725	1685.48
578.923	1460.2
579.121	1503.21
579.319	1325.04
579.516	1439.72
579.714	1499.11
579.912	1400.81
580.11	1322.99
580.308	1390.57
580.506	1277.93
580.704	1023.98
580.901	1210.35
581.099	1363.95
581.297	1200.11
581.495	1277.93
581.692	1118.19
581.89	1286.12
582.088	1241.07
582.285	1185.77
582.483	1189.87
582.681	1163.25
582.878	1140.72
583.076	1130.48
583.274	1204.21
583.471	1155.05
583.669	1105.9
583.866	1028.08
584.064	933.87
584.262	937.97
584.459	960.5
584.657	993.26
584.854	964.59
585.052	1001.46
585.249	925.68
585.447	931.83
585.644	808.95
585.841	952.31
586.039	980.98
586.236	972.79
586.434	882.67
586.631	829.43
586.828	784.37
587.026	858.1
587.223	823.28
587.42	772.08
587.618	833.52
587.815	862.19
588.012	806.9
588.21	784.37
588.407	827.38
588.604	854
588.801	614.39
588.999	794.61
589.196	800.76
589.393	698.36
589.59	729.08
589.787	755.7
589.984	657.4
590.182	856.05
590.379	688.12
590.576	667.64
590.773	706.55
590.97	688.12
591.167	733.17
591.364	616.44
591.561	718.84
591.758	831.48
591.955	770.04
592.152	612.34
592.349	622.58
592.546	696.31
592.743	657.4
592.94	638.97
593.137	782.32
593.334	741.36
593.531	864.24
593.727	710.65
593.924	591.86
594.121	716.79
594.318	665.59
594.515	651.25
594.712	757.75
594.908	706.55
595.105	559.1
595.302	757.75
595.499	802.8
595.696	813.04
595.892	671.73
596.089	804.85
596.286	675.83
596.482	905.2
596.679	802.8
596.876	696.31
597.072	899.06
597.269	915.44
597.466	958.45
597.662	964.59
597.859	835.57
598.055	933.87
598.252	925.68
598.448	970.74
598.645	1138.67
598.841	1134.57
599.038	1191.92
599.234	1269.74
599.431	1228.78
599.627	1261.55
599.824	1251.31
600.02	1245.16
600.217	1368.04
600.413	1449.96
600.609	1499.11
600.806	1755.11
601.002	1656.81
601.198	1576.94
601.395	1814.5
601.591	1892.32
601.787	1947.62
601.984	2082.78
602.18	2068.45
602.376	2101.22
602.572	2127.84
602.769	2379.74
602.965	2340.83
603.161	2420.7
603.357	2451.42
603.553	2684.89
603.75	2838.48
603.946	2766.81
604.142	2899.92
604.338	3168.21
604.534	3022.8
604.73	3168.21
604.926	3180.5
605.122	3420.11
605.318	3487.69
605.514	3633.1
605.71	3536.84
605.906	3809.22
606.102	3846.09
606.298	4112.32
606.494	4181.95
606.69	4544.44
606.886	4544.44
607.082	4468.67
607.278	4499.39
607.474	4806.58
607.67	4876.21
607.866	5056.43
608.062	5298.1
608.257	5402.54
608.453	5490.6
608.649	5799.85
608.845	5633.96
609.041	5986.21
609.236	6182.82
609.432	6317.98
609.628	6311.84
609.824	6664.09
610.019	6782.87
610.215	6852.5
610.411	7206.8
610.606	7536.52
610.802	7569.29
610.998	7622.54
611.193	8079.24
611.389	8191.88
611.584	8474.49
611.78	8433.54
611.976	8636.28
612.171	9043.83
612.367	9238.39
612.562	9578.35
612.758	9662.32
612.953	9740.14
613.149	10151.78
613.344	10280.8
613.539	10858.33
613.735	10786.65
613.93	11464.53
614.126	11540.3
614.321	11929.42
614.517	12316.48
614.712	12525.38
614.907	12742.46
615.103	13141.82
615.298	13408.05
615.493	13778.73
615.688	14151.46
615.884	14804.77
616.079	14563.11
616.274	15251.22
616.47	15562.51
616.665	15943.44
616.86	16434.95
617.055	16811.78
617.25	17108.73
617.445	17522.42
617.641	17846
617.836	18667.24
618.031	18790.11
618.226	19492.57
618.421	19644.12
618.616	20704.96
618.811	20547.27
619.006	21436.09
619.201	21538.49
619.396	22097.58
619.591	22267.56
619.786	23273.12
619.981	23570.07
620.176	24180.37
620.371	24293.01
620.566	25151.1
620.761	25568.89
620.956	25988.72
621.151	26543.72
621.346	26900.07
621.541	27047.52
621.735	28065.36
621.93	28134.99
622.125	29132.36
622.32	29513.28
622.515	30299.7
622.709	30588.46
622.904	31247.91
623.099	31657.5
623.294	32392.72
623.488	32769.55
623.683	33523.2
623.878	33080.84
624.072	34498.03
624.267	34557.42
624.462	35460.58
624.656	35622.37
624.851	36531.67
625.046	36810.19
625.24	37502.4
625.435	38006.2
625.629	38307.26
625.824	38825.39
626.018	39697.83
626.213	39323.05
626.407	40338.84
626.602	40469.91
626.796	41360.78
626.991	41354.63
627.185	42065.28
627.38	41786.75
627.574	42089.85
627.768	42112.38
627.963	42253.69
628.157	42317.18
628.352	42866.03
628.546	42728.82
628.74	43005.3
628.935	43091.31
629.129	42980.72
629.323	42376.57
629.517	42485.11
629.712	41993.6
629.906	42126.72
630.1	41250.19
630.294	41381.26
630.489	40830.35
630.683	40584.6
630.877	39259.56
631.071	38778.29
631.265	38243.77
631.459	37352.9
631.653	36883.92
631.848	36308.44
632.042	34917.87
632.236	34414.07
632.43	33144.33
632.624	32761.36
632.818	31475.23
633.012	30776.87
633.206	29605.44
633.4	29093.44
633.594	27362.91
633.788	26914.41
633.982	26175.09
634.176	25175.68
634.369	23875.22
634.563	23371.42
634.757	22294.19
634.951	21669.56
635.145	20653.76
635.339	20020.94
635.533	18886.37
635.726	18478.82
635.92	17391.35
636.114	17043.2
636.308	16088.84
636.501	15720.21
636.695	14851.87
636.889	14122.79
637.083	13737.77
637.276	13135.67
637.47	12410.69
637.664	12197.7
637.857	11675.47
638.051	11540.3
638.244	10651.49
638.438	10268.52
638.632	9912.17
638.825	9316.21
639.019	9191.28
639.212	8662.91
639.406	8343.42
639.599	8017.8
639.793	7796.62
639.986	7366.54
640.18	7374.74
640.373	6868.89
640.567	6506.4
640.76	6299.55
640.954	6154.15
641.147	5674.92
641.34	5562.28
641.534	5261.23
641.727	5255.09
641.92	4982.71
642.114	4706.23
642.307	4665.27
642.5	4474.81
642.694	4155.33
642.887	4188.1
643.08	4069.31
643.273	3829.7
643.467	3667.91
643.66	3438.54
643.853	3379.15
644.046	3192.78
644.239	3182.54
644.432	2965.46
644.626	2777.05
644.819	2707.41
645.012	2568.15
645.205	2658.26
645.398	2547.67
645.591	2359.26
645.784	2183.13
645.977	2142.18
646.17	2193.37
646.363	2029.54
646.556	1908.71
646.749	1773.54
646.942	1722.34
647.135	1769.44
647.328	1521.64
647.521	1615.85
647.714	1615.85
647.907	1505.26
648.099	1370.09
648.292	1372.14
648.485	1255.4
648.678	1296.36
648.871	1140.72
649.064	1206.25
649.256	1038.32
649.449	1050.61
649.642	974.83
649.835	854
650.027	942.07
650.22	962.55
650.413	911.35
650.605	894.96
650.798	827.38
650.991	720.88
651.183	806.9
651.376	782.32
651.568	724.98
651.761	630.77
651.954	698.36
652.146	628.73
652.339	667.64
652.531	653.3
652.724	542.71
652.916	479.22
653.109	409.59
653.301	630.77
653.494	509.94
653.686	450.55
653.879	600.05
654.071	399.35
654.263	475.13
654.456	417.79
654.648	491.51
654.84	442.36
655.033	307.2
655.225	536.57
655.417	274.43
655.61	466.94
655.802	319.48
655.994	397.31
656.186	337.91
656.379	411.64
656.571	251.9
656.763	346.11
656.955	266.24
657.148	200.7
657.34	393.21
657.532	309.24
657.724	305.15
657.916	241.66
658.108	294.91
658.3	284.67
658.492	313.34
658.684	180.22
658.876	370.68
659.068	124.93
659.26	184.32
659.452	188.41
659.644	233.47
659.836	239.61
660.028	260.09
660.22	163.84
660.412	200.7
660.604	178.17
660.796	245.76
660.988	305.15
661.18	237.56
661.372	202.75
661.563	229.37
661.755	184.32
661.947	131.07
662.139	104.45
662.331	155.65
662.522	212.99
662.714	174.08
662.906	83.97
663.097	153.6
663.289	143.36
663.481	-4.1
663.673	192.51
663.864	145.41
664.056	186.37
664.247	57.34
664.439	256
664.631	159.74
664.822	135.17
665.014	212.99
665.205	57.34
665.397	110.59
665.588	186.37
665.78	118.78
665.971	174.08
666.163	98.3
666.354	190.46
666.546	6.14
666.737	108.54
666.929	20.48
667.12	94.21
667.311	102.4
667.503	94.21
667.694	104.45
667.885	161.79
668.077	196.61
668.268	-18.43
668.459	114.69
668.651	141.31
668.842	129.02
669.033	-32.77
669.224	30.72
669.416	223.23
669.607	118.78
669.798	59.39
669.989	245.76
670.18	69.63
670.371	174.08
670.563	-55.3
670.754	116.73
670.945	137.21
671.136	180.22
671.327	83.97
671.518	161.79
671.709	149.5
671.9	122.88
672.091	135.17
672.282	32.77
672.473	94.21
672.664	26.62
672.855	83.97
673.046	137.21
673.237	204.8
673.428	49.15
673.619	163.84
673.809	8.19
674	167.93
674.191	126.97
674.382	100.35
674.573	90.11
674.764	55.3
674.954	206.84
675.145	92.16
675.336	57.34
675.527	118.78
675.717	24.58
675.908	69.63
676.099	145.41
676.289	137.21
676.48	24.58
676.671	172.03
676.861	55.3
677.052	118.78
677.243	139.26
677.433	63.49
677.624	186.37
677.814	100.35
678.005	36.86
678.195	229.37
678.386	43.01
678.576	108.54
678.767	47.1
678.957	116.73
679.148	182.27
679.338	198.65
679.529	133.12
679.719	92.16
679.909	176.13
680.1	139.26
680.29	184.32
680.481	6.14
680.671	153.6
680.861	147.45
681.052	143.36
681.242	135.17
681.432	172.03
681.622	129.02
681.813	63.49
682.003	69.63
682.193	149.5
682.383	174.08
682.573	122.88
682.764	28.67
682.954	180.22
683.144	243.71
683.334	157.69
683.524	67.58
683.714	217.08
683.904	208.89
684.094	139.26
684.284	131.07
684.474	249.85
684.664	231.42
684.854	190.46
685.044	98.3
685.234	176.13
685.424	108.54
685.614	59.39
685.804	280.57
685.994	184.32
686.184	94.21
686.374	219.13
686.564	118.78
686.753	149.5
686.943	43.01
687.133	165.89
687.323	88.06
687.513	165.89
687.702	167.93
687.892	147.45
688.082	217.08
688.272	196.61
688.461	184.32
688.651	196.61
688.841	172.03
689.03	131.07
689.22	208.89
689.41	167.93
689.599	176.13
689.789	120.83
689.979	217.08
690.168	96.25
690.358	131.07
690.547	120.83
690.737	176.13
690.926	188.41
691.116	143.36
691.305	262.14
691.495	284.67
691.684	120.83
691.874	118.78
692.063	188.41
692.252	165.89
692.442	116.73
692.631	131.07
692.82	137.21
693.01	135.17
693.199	81.92
693.388	118.78
693.578	129.02
693.767	194.56
693.956	176.13
694.146	112.64
694.335	137.21
694.524	151.55
694.713	198.65
694.902	153.6
695.092	88.06
695.281	178.17
695.47	51.2
695.659	137.21
695.848	143.36
696.037	106.49
696.226	204.8
696.415	178.17
696.604	206.84
696.793	231.42
696.982	122.88
697.171	237.56
697.36	110.59
697.549	141.31
697.738	47.1
697.927	153.6
698.116	79.87
698.305	231.42
698.494	67.58
698.683	139.26
698.872	241.66
699.061	83.97
699.25	200.7
699.438	149.5
699.627	98.3
699.816	266.24
700.005	57.34
700.193	139.26
700.382	169.98
700.571	200.7
700.76	112.64
700.948	172.03
701.137	131.07
701.326	110.59
701.514	83.97
701.703	212.99
701.892	204.8
702.08	319.48
702.269	135.17
702.457	110.59
702.646	90.11
702.834	88.06
703.023	280.57
703.212	249.85
703.4	114.69
703.589	126.97
703.777	30.72
703.965	104.45
704.154	81.92
704.342	59.39
704.531	98.3
704.719	176.13
704.907	159.74
705.096	71.68
705.284	47.1
705.472	147.45
705.661	131.07
705.849	204.8
706.037	192.51
706.226	151.55
706.414	118.78
706.602	114.69
706.79	188.41
706.979	118.78
707.167	131.07
707.355	28.67
707.543	165.89
707.731	169.98
707.919	112.64
708.107	112.64
708.296	57.34
708.484	20.48
708.672	151.55
708.86	143.36
709.048	94.21
709.236	61.44
709.424	212.99
709.612	131.07
709.8	45.06
709.988	143.36
710.176	219.13
710.364	309.24
710.551	133.12
710.739	151.55
710.927	86.01
711.115	69.63
711.303	186.37
711.491	149.5
711.679	43.01
711.866	143.36
712.054	186.37
712.242	159.74
712.43	219.13
712.617	129.02
712.805	206.84
712.993	106.49
713.181	90.11
713.368	143.36
713.556	147.45
713.744	67.58
713.931	303.1
714.119	110.59
714.306	100.35
714.494	122.88
714.682	143.36
714.869	63.49
715.057	110.59
715.244	69.63
715.432	129.02
715.619	43.01
715.807	67.58
715.994	77.82
716.182	139.26
716.369	200.7
716.556	151.55
716.744	67.58
716.931	63.49
717.119	131.07
717.306	151.55
717.493	90.11
717.681	94.21
717.868	135.17
718.055	139.26
718.242	161.79
718.43	167.93
718.617	190.46
718.804	108.54
718.991	174.08
719.179	126.97
719.366	110.59
719.553	129.02
719.74	165.89
719.927	98.3
720.114	176.13
720.301	120.83
720.488	104.45
720.676	71.68
720.863	210.94
721.05	229.37
721.237	212.99
721.424	182.27
721.611	135.17
721.798	8.19
721.985	155.65
722.172	69.63
722.358	126.97
722.545	196.61
722.732	176.13
722.919	206.84
723.106	124.93
723.293	90.11
723.48	210.94
723.667	133.12
723.853	172.03
724.04	94.21
724.227	206.84
724.414	32.77
724.6	188.41
724.787	315.39
724.974	335.87
725.161	225.28
725.347	102.4
725.534	223.23
725.72	204.8
725.907	186.37
726.094	182.27
726.28	51.2
726.467	143.36
726.653	30.72
726.84	251.9
727.027	290.81
727.213	126.97
727.4	149.5
727.586	133.12
727.773	112.64
727.959	141.31
728.145	98.3
728.332	153.6
728.518	98.3
728.705	169.98
728.891	81.92
729.077	108.54
729.264	192.51
729.45	141.31
729.636	233.47
729.823	169.98
730.009	161.79
730.195	217.08
730.382	159.74
730.568	149.5
730.754	165.89
730.94	153.6
731.126	194.56
731.313	157.69
731.499	92.16
731.685	200.7
731.871	227.32
732.057	163.84
732.243	206.84
732.429	200.7
732.615	247.8
732.801	206.84
732.987	90.11
733.173	176.13
733.359	153.6
733.545	217.08
733.731	141.31
733.917	253.95
734.103	139.26
734.289	104.45
734.475	139.26
734.661	315.39
734.847	198.65
735.033	137.21
735.219	245.76
735.404	153.6
735.59	73.73
735.776	108.54
735.962	223.23
736.148	202.75
736.333	307.2
736.519	137.21
736.705	180.22
736.89	169.98
737.076	241.66
737.262	176.13
737.447	188.41
737.633	174.08
737.819	262.14
738.004	186.37
738.19	133.12
738.375	165.89
738.561	198.65
738.747	151.55
738.932	102.4
739.118	258.04
739.303	188.41
739.489	231.42
739.674	165.89
739.859	124.93
740.045	104.45
740.23	172.03
740.416	-8.19
740.601	206.84
740.786	139.26
740.972	59.39
741.157	92.16
741.342	143.36
741.528	47.1
741.713	227.32
741.898	106.49
742.084	184.32
742.269	180.22
742.454	180.22
742.639	245.76
742.824	190.46
743.01	237.56
743.195	268.28
743.38	251.9
743.565	182.27
743.75	178.17
743.935	151.55
744.12	221.18
744.305	143.36
744.49	151.55
744.675	116.73
744.86	188.41
745.045	184.32
745.23	167.93
745.415	155.65
745.6	233.47
745.785	100.35
745.97	278.52
746.155	280.57
746.34	176.13
746.525	225.28
746.71	237.56
746.895	86.01
747.079	118.78
747.264	116.73
747.449	188.41
747.634	96.25
747.819	180.22
748.003	208.89
748.188	38.91
748.373	241.66
748.557	163.84
748.742	114.69
748.927	155.65
749.111	122.88
749.296	57.34
749.481	192.51
749.665	108.54
749.85	124.93
750.034	120.83
750.219	143.36
750.404	157.69
750.588	221.18
750.773	145.41
750.957	69.63
751.141	88.06
751.326	151.55
751.51	10.24
751.695	151.55
751.879	141.31
752.064	247.8
752.248	88.06
752.432	296.96
752.617	206.84
752.801	223.23
752.985	69.63
753.17	225.28
753.354	131.07
753.538	182.27
753.722	79.87
753.907	102.4
754.091	32.77
754.275	131.07
754.459	0
754.643	88.06
754.828	145.41
755.012	79.87
755.196	24.58
755.38	71.68
755.564	-16.38
755.748	45.06
755.932	114.69
756.116	172.03
756.3	157.69
756.484	169.98
756.668	94.21
756.852	34.82
757.036	122.88
757.22	118.78
757.404	86.01
757.588	28.67
757.772	135.17
757.956	118.78
758.14	239.61
758.323	49.15
758.507	116.73
758.691	75.77
758.875	131.07
759.059	114.69
759.242	22.53
759.426	59.39
759.61	126.97
759.794	65.53
759.977	98.3
760.161	229.37
760.345	161.79
760.528	131.07
760.712	106.49
760.895	53.25
761.079	122.88
761.263	38.91
761.446	145.41
761.63	51.2
761.813	151.55
761.997	47.1
762.18	73.73
762.364	61.44
762.547	-4.1
762.731	24.58
762.914	88.06
763.098	0
763.281	-28.67
763.464	6.14
763.648	96.25
763.831	-2.05
764.015	59.39
764.198	131.07
764.381	-16.38
764.564	81.92
764.748	67.58
764.931	120.83
765.114	92.16
765.297	8.19
765.481	-65.54
765.664	51.2
765.847	53.25
766.03	192.51
766.213	-24.58
766.397	83.97
766.58	30.72
766.763	59.39
766.946	-2.05
767.129	-40.96
767.312	-53.25
767.495	51.2
767.678	-40.96
767.861	79.87
768.044	45.06
768.227	-20.48
768.41	-8.19
768.593	22.53
768.776	77.82
768.959	88.06
769.142	157.69
769.324	110.59
769.507	106.49
769.69	0
769.873	18.43
770.056	165.89
770.239	2.05
770.421	120.83
770.604	118.78
770.787	63.49
770.97	90.11
771.152	8.19
771.335	100.35
771.518	-2.05
771.7	104.45
771.883	118.78
772.066	24.58
772.248	69.63
772.431	196.61
772.613	43.01
772.796	-38.91
772.978	126.97
773.161	172.03
773.343	32.77
773.526	2.05
773.708	-88.06
773.891	-49.15
774.073	79.87
774.256	-30.72
774.438	147.45
774.621	43.01
774.803	104.45
774.985	38.91
775.168	53.25
775.35	45.06
775.532	120.83
775.715	-12.29
775.897	55.3
776.079	69.63
776.261	-10.24
776.444	8.19
776.626	22.53
776.808	-4.1
776.99	-98.3
777.173	45.06
777.355	-14.34
777.537	24.58
777.719	51.2
777.901	45.06
778.083	6.14
778.265	-28.67
778.447	165.89
778.629	-65.54
778.811	77.82
778.993	94.21
779.175	122.88
779.357	-2.05
779.539	-45.06
779.721	6.14
779.903	-20.48
780.085	-6.14
780.267	-20.48
780.449	36.86
780.631	53.25
780.812	147.45
780.994	-38.91
781.176	-4.1
781.358	-96.25
781.54	10.24
781.721	16.38
781.903	94.21
782.085	-38.91
782.267	163.84
782.448	-63.49
782.63	-38.91
782.812	-30.72
782.993	77.82
783.175	12.29
783.357	-18.43
783.538	110.59
783.72	-69.63
783.901	22.53
784.083	36.86
784.264	-16.38
784.446	-145.41
784.627	36.86
784.809	65.53
784.99	34.82
785.172	-69.63
785.353	-22.53
785.535	-47.1
785.716	-34.82
785.897	20.48
786.079	-30.72
786.26	65.53
786.441	2.05
786.623	-159.74
786.804	-45.06
786.985	36.86
787.167	-4.1
787.348	-18.43
787.529	8.19
787.71	81.92
787.891	51.2
788.073	-16.38
788.254	-94.21
788.435	90.11
788.616	12.29
788.797	-96.25
788.978	4.1
789.159	-12.29
789.34	6.14
789.522	-61.44
789.703	-12.29
789.884	-47.1
790.065	67.58
790.246	100.35
790.427	49.15
790.607	75.77
790.788	75.77
790.969	-43.01
791.15	59.39
791.331	-20.48
791.512	-26.62
791.693	-67.58
791.874	-69.63
792.054	135.17
792.235	6.14
792.416	-92.16
792.597	-75.77
792.778	73.73
792.958	40.96
793.139	22.53
793.32	-34.82
793.5	-61.44
793.681	131.07
793.862	22.53
794.042	36.86
794.223	-147.45
794.404	-38.91
794.584	-114.69
794.765	-30.72
794.945	4.1
795.126	71.68
795.306	155.65
795.487	-38.91
795.667	-8.19
795.848	0
796.028	2.05
796.209	-69.63
796.389	16.38
796.57	-14.34
796.75	-75.77
796.93	-12.29
797.111	-69.63
797.291	-77.82
797.471	20.48
797.652	-28.67
797.832	-36.86
798.012	-32.77
798.192	-34.82
798.373	-112.64
798.553	8.19
798.733	96.25
798.913	-75.77
799.093	-43.01
799.274	22.53
799.454	131.07
799.634	47.1
799.814	55.3
799.994	77.82
800.174	-8.19
800.354	-10.24
800.534	-108.54
800.714	-2.05
800.894	-124.93
801.074	-83.97
801.254	-45.06
801.434	141.31
801.614	-12.29
801.794	-38.91
801.974	1812.45
802.154	-32.77
802.334	104.45
802.514	-108.54
802.693	-30.72
802.873	-32.77
803.053	90.11
803.233	-18.43
803.413	-40.96
803.592	-98.3
803.772	-38.91
803.952	-8.19
804.131	-83.97
804.311	71.68
804.491	26.62
804.67	-69.63
804.85	-92.16
805.03	4.1
805.209	157.69
805.389	-6.14
805.568	-40.96
805.748	-57.34
805.928	0
806.107	-18.43
806.287	-22.53
806.466	-57.34
806.646	16.38
806.825	-24.58
807.004	-36.86
807.184	-26.62
807.363	2.05
807.543	16.38
807.722	-102.4
807.901	143.36
808.081	63.49
808.26	-108.54
808.439	-57.34
808.619	-22.53
808.798	-102.4
808.977	61.44
809.156	124.93
809.336	-28.67
809.515	73.73
809.694	-124.93
809.873	-38.91
810.052	40.96
810.231	36.86
810.411	-24.58
810.59	61.44
810.769	32.77
810.948	2.05
811.127	-51.2
811.306	18.43
811.485	-22.53
811.664	43.01
811.843	-55.3
812.022	-67.58
812.201	-24.58
812.38	32.77
812.559	-133.12
812.737	12.29
812.916	-208.89
813.095	-120.83
813.274	6.14
813.453	-14.34
813.632	-38.91
813.811	-32.77
813.989	-126.97
814.168	-14.34
814.347	-90.11
814.526	-45.06
814.704	86.01
814.883	53.25
815.062	-149.5
815.24	10.24
815.419	-88.06
815.598	-8.19
815.776	-75.77
815.955	-8.19
816.133	-147.45
816.312	-6.14
816.49	-106.49
816.669	-22.53
816.847	-8.19
817.026	-16.38
817.204	-94.21
817.383	-28.67
817.561	-151.55
817.74	26.62
817.918	-16.38
818.097	-55.3
818.275	-94.21
818.453	-71.68
818.632	-32.77
818.81	-79.87
818.988	-51.2
819.167	-88.06
819.345	-40.96
819.523	-75.77
819.701	-20.48
819.879	28.67
820.058	-34.82
820.236	-14.34
820.414	47.1
820.592	-79.87
820.77	-120.83
820.948	-110.59
821.127	-8.19
821.305	28.67
821.483	-116.73
821.661	67.58
821.839	-4.1
822.017	-38.91
822.195	-2.05
822.373	4.1
822.551	-38.91
822.729	108.54
822.907	-45.06
823.085	30.72
823.262	-2.05
823.44	-86.01
823.618	-102.4
823.796	-36.86
823.974	26.62
824.152	-67.58
824.329	-20.48
824.507	-8.19
824.685	38.91
824.863	-116.73
825.04	-65.54
825.218	45.06
825.396	-92.16
825.574	-6.14
825.751	-22.53
825.929	-2.05
826.107	-143.36
826.284	-65.54
826.462	12.29
826.639	-98.3
826.817	-36.86
826.994	-28.67
827.172	-65.54
827.349	45.06
827.527	-6.14
827.704	-30.72
827.882	73.73
828.059	-2.05
828.237	-51.2
828.414	10.24
828.591	-182.27
828.769	14.34
828.946	-59.39
829.124	4.1
829.301	28.67
829.478	24.58
829.655	40.96
829.833	-75.77
830.01	-167.93
830.187	28.67
830.364	-106.49
830.542	-53.25
830.719	77.82
830.896	20.48
831.073	-8.19
831.25	43.01
831.427	16.38
831.604	4.1
831.782	-86.01
831.959	26.62
832.136	-77.82
832.313	8.19
832.49	-75.77
832.667	-43.01
832.844	-73.73
833.021	45.06
833.198	-34.82
833.374	10.24
833.551	-4.1
833.728	-65.54
833.905	14.34
834.082	-114.69
834.259	-18.43
834.436	36.86
834.612	-61.44
834.789	14.34
834.966	-32.77
835.143	-6.14
835.319	-147.45
835.496	20.48
835.673	8.19
835.85	149.5
836.026	-28.67
836.203	14.34
836.38	-12.29
836.556	20.48
836.733	-26.62
836.909	90.11
837.086	-36.86
837.262	-124.93
837.439	-63.49
837.616	-90.11
837.792	-53.25
837.968	-36.86
838.145	-219.13
838.321	-77.82
838.498	49.15
838.674	14.34
838.851	20.48
839.027	-122.88
839.203	-63.49
839.38	-36.86
839.556	-137.21
839.732	-2.05
839.909	-22.53
840.085	18.43
840.261	-110.59
840.437	-14.34
840.614	-81.92
840.79	32.77
840.966	83.97
841.142	-71.68
841.318	-90.11
841.494	40.96
841.671	79.87
841.847	-43.01
842.023	-131.07
842.199	24.58
842.375	0
842.551	-163.84
842.727	-104.45
842.903	94.21
843.079	-65.54
843.255	2.05
843.431	-53.25
843.607	32.77
843.783	-247.8
843.959	65.53
844.134	-49.15
844.31	108.54
844.486	-116.73
844.662	-32.77
844.838	-18.43
845.013	-6.14
845.189	88.06
845.365	14.34
845.541	-24.58
845.716	8.19
845.892	24.58
846.068	-67.58
846.244	-49.15
846.419	8.19
846.595	-81.92
846.77	-22.53
846.946	63.49
847.122	-32.77
847.297	-129.02
847.473	124.93
847.648	-75.77
847.824	-38.91
847.999	-188.41
848.175	-10.24
848.35	4.1
848.526	73.73
848.701	12.29
848.876	-8.19
849.052	-59.39
849.227	-4.1
849.403	16.38
849.578	-69.63
849.753	38.91
849.929	-30.72
850.104	-131.07
850.279	-47.1
850.454	-2.05
850.63	51.2
850.805	26.62
850.98	-8.19
851.155	-22.53
851.33	2.05
851.505	-114.69
851.681	59.39
851.856	-94.21
852.031	14.34
852.206	-40.96
852.381	-55.3
852.556	-43.01
852.731	8.19
852.906	83.97
853.081	-20.48
853.256	36.86
853.431	-61.44
853.606	-28.67
853.781	-116.73
853.956	-180.22
854.131	-90.11
854.305	-106.49
854.48	20.48
854.655	0
854.83	-75.77
855.005	-90.11
855.18	16.38
855.354	-14.34
855.529	-30.72
855.704	12.29
855.879	34.82
856.053	-49.15
856.228	-6.14
856.403	-92.16
856.577	0
856.752	-73.73
856.926	-69.63
857.101	22.53
857.276	-145.41
857.45	-57.34
857.625	73.73
857.799	-49.15
857.974	-96.25
858.148	-122.88
858.323	-28.67
858.497	-61.44
858.672	-161.79
858.846	-8.19
859.02	96.25
859.195	-100.35
859.369	-43.01
859.543	-49.15
859.718	16.38
859.892	-6.14
860.066	-14.34
860.241	-147.45
860.415	-24.58
860.589	-24.58
860.763	-75.77
860.938	-22.53
861.112	4.1
861.286	-147.45
861.46	-4.1
861.634	-8.19
861.808	-28.67
861.982	-163.84
862.157	-108.54
862.331	-34.82
862.505	-112.64
862.679	-131.07
862.853	-36.86
863.027	-40.96
863.201	88.06
863.375	-55.3
863.549	12.29
863.722	-8.19
863.896	-6.14
864.07	-104.45
864.244	-106.49
864.418	-24.58
864.592	-8.19
864.766	-16.38
864.939	-100.35
865.113	-26.62
865.287	30.72
865.461	-126.97
865.634	16.38
865.808	-45.06
865.982	-47.1
866.156	-55.3
866.329	-131.07
866.503	-49.15
866.676	65.53
866.85	0
867.024	-51.2
867.197	-6.14
867.371	20.48
867.544	24.58
867.718	-118.78
867.891	-2.05
868.065	-163.84
868.238	22.53
868.412	57.34
868.585	-2.05
868.759	-114.69
868.932	-14.34
869.105	-126.97
869.279	0
869.452	-90.11
869.625	22.53
869.799	4.1
869.972	-96.25
870.145	2.05
870.319	73.73
870.492	-137.21
870.665	-108.54
870.838	-96.25
871.011	-241.66
871.185	-98.3
871.358	-40.96
871.531	18.43
871.704	-137.21
871.877	65.53
872.05	-14.34
872.223	-90.11
872.396	34.82
872.569	26.62
872.742	-200.7
872.915	-10.24
873.088	-129.02
873.261	-28.67
873.434	26.62
873.607	-22.53
873.78	32.77
873.953	-122.88
874.126	-8.19
874.299	43.01
874.471	-116.73
874.644	-28.67
874.817	-34.82
874.99	114.69
875.163	-79.87
875.335	-102.4
875.508	2.05
875.681	26.62
875.853	-86.01
876.026	-43.01
876.199	-22.53
876.371	28.67
876.544	-96.25
876.717	-28.67
876.889	-75.77
877.062	-40.96
877.234	-143.36
877.407	-53.25
877.579	-55.3
877.752	22.53
877.924	22.53
878.097	-32.77
878.269	14.34
878.442	-10.24
878.614	55.3
878.786	28.67
878.959	-30.72
879.131	6.14
879.303	-167.93
879.476	-112.64
879.648	32.77
879.82	-157.69
879.993	-34.82
880.165	-24.58
880.337	-108.54
880.509	-59.39
880.681	-86.01
880.854	-92.16
881.026	-53.25
881.198	153.6
881.37	-86.01
881.542	-45.06
881.714	-83.97
881.886	-110.59
882.058	-36.86
882.23	-10.24
882.402	-73.73
882.574	67.58
882.746	53.25
882.918	65.53
883.09	-38.91
883.262	-108.54
883.434	0
883.606	-147.45
883.778	-36.86
883.95	71.68
884.122	-43.01
884.293	88.06
884.465	-45.06
884.637	6.14
884.809	-151.55
884.98	-6.14
885.152	-10.24
885.324	55.3
885.496	-75.77
885.667	-55.3
885.839	-59.39
886.011	57.34
886.182	-47.1
886.354	12.29
886.525	-12.29
886.697	-129.02
886.869	-34.82
887.04	-88.06
887.212	86.01
887.383	67.58
887.555	-57.34
887.726	-94.21
887.897	-92.16
888.069	-14.34
888.24	30.72
888.412	-65.54
888.583	-75.77
888.754	-47.1
888.926	-79.87
889.097	-96.25
889.268	-135.17
889.44	-102.4
889.611	-32.77
889.782	-161.79
889.953	-139.26
890.125	69.63
890.296	-75.77
890.467	-137.21
890.638	-49.15
890.809	-88.06
890.98	-63.49
891.151	-49.15
891.323	77.82
891.494	-51.2
891.665	-4.1
891.836	-104.45
892.007	-43.01
892.178	4.1
892.349	12.29
892.52	-131.07
892.691	-22.53
892.862	-53.25
893.032	-180.22
893.203	-51.2
893.374	36.86
893.545	-8.19
893.716	-40.96
893.887	22.53
894.057	-75.77
894.228	-18.43
894.399	-65.54
894.57	43.01
894.74	-6.14
894.911	-51.2
895.082	-65.54
895.253	-106.49
895.423	-22.53
895.594	30.72
895.764	-63.49
895.935	-65.54
896.106	63.49
896.276	-88.06
896.447	-20.48
896.617	-86.01
896.788	-30.72
896.958	-83.97
897.129	-182.27
897.299	-55.3
897.47	10.24
897.64	71.68
897.81	-75.77
897.981	-38.91
898.151	-122.88
898.322	-59.39
898.492	-55.3
898.662	-106.49
898.832	-122.88
899.003	-10.24
899.173	-2.05
899.343	-24.58
899.513	-135.17
