Data from USB4F104151__164__11-04-47-435.txt Node

Date: Wed Feb 26 11:04:47 EST 2025
User: louis
Spectrometer: USB4F10415
Trigger mode: 4
Integration Time (sec): 1.000000E-1
Scans to average: 1
Electric dark correction enabled: true
Nonlinearity correction enabled: false
Boxcar width: 0
XAxis mode: Wavelengths
Number of Pixels in Spectrum: 3648
>>>>>Begin Spectral Data<<<<<
178.204	-409.42
178.424	-409.42
178.644	-409.42
178.864	-321.36
179.084	-427.85
179.304	26.79
179.524	-67.41
179.744	-63.32
179.964	-5.97
180.184	37.03
180.404	63.66
180.624	-46.93
180.844	34.99
181.064	-24.4
181.283	0.17
181.503	-44.88
181.723	90.28
181.943	-10.07
182.163	204.97
182.383	43.18
182.602	116.9
182.822	213.16
183.042	88.23
183.262	67.75
183.482	55.47
183.701	65.71
183.921	106.67
184.141	-30.55
184.361	131.24
184.58	106.67
184.8	71.85
185.02	67.75
185.239	143.53
185.459	61.61
185.679	108.71
185.898	28.84
186.118	82.09
186.338	161.96
186.557	155.82
186.777	-1.88
186.997	-51.03
187.216	47.27
187.436	194.73
187.655	53.42
187.875	147.62
188.095	112.81
188.314	139.43
188.534	125.1
188.753	-63.32
188.973	67.75
189.192	268.45
189.412	84.14
189.631	67.75
189.851	77.99
190.07	184.49
190.29	14.51
190.509	-8.02
190.729	28.84
190.948	133.29
191.168	213.16
191.387	198.82
191.607	10.41
191.826	112.81
192.045	55.47
192.265	28.84
192.484	131.24
192.704	61.61
192.923	22.7
193.142	198.82
193.362	98.47
193.581	219.3
193.8	100.52
194.02	108.71
194.239	129.19
194.458	77.99
194.678	26.79
194.897	-46.93
195.116	123.05
195.335	114.86
195.555	51.37
195.774	-20.31
195.993	149.67
196.212	133.29
196.432	10.41
196.651	65.71
196.87	112.81
197.089	198.82
197.308	121
197.528	24.75
197.747	55.47
197.966	102.57
198.185	200.87
198.404	-38.74
198.623	100.52
198.842	121
199.062	159.91
199.281	123.05
199.5	77.99
199.719	172.2
199.938	170.15
200.157	94.38
200.376	225.45
200.595	227.5
200.814	157.86
201.033	22.7
201.252	317.61
201.471	98.47
201.69	28.84
201.909	55.47
202.128	141.48
202.347	137.38
202.566	30.89
202.785	-59.22
203.004	6.31
203.223	247.97
203.442	108.71
203.661	-126.8
203.879	96.43
204.098	164.01
204.317	22.7
204.536	133.29
204.755	80.04
204.974	147.62
205.193	22.7
205.411	215.21
205.63	118.95
205.849	143.53
206.068	47.27
206.287	2.22
206.505	186.54
206.724	16.55
206.943	2.22
207.162	59.56
207.381	39.08
207.599	82.09
207.818	118.95
208.037	26.79
208.255	61.61
208.474	123.05
208.693	153.77
208.911	57.51
209.13	98.47
209.349	84.14
209.567	182.44
209.786	125.1
210.005	192.68
210.223	67.75
210.442	-44.88
210.661	121
210.879	123.05
211.098	98.47
211.316	80.04
211.535	153.77
211.753	69.8
211.972	98.47
212.191	118.95
212.409	92.33
212.628	65.71
212.846	0.17
213.065	114.86
213.283	149.67
213.502	80.04
213.72	116.9
213.938	102.57
214.157	47.27
214.375	153.77
214.594	49.32
214.812	114.86
215.031	94.38
215.249	16.55
215.467	96.43
215.686	-1.88
215.904	92.33
216.122	135.34
216.341	161.96
216.559	114.86
216.778	137.38
216.996	125.1
217.214	47.27
217.432	-24.4
217.651	-36.69
217.869	75.95
218.087	88.23
218.306	41.13
218.524	153.77
218.742	41.13
218.96	116.9
219.179	71.85
219.397	88.23
219.615	207.02
219.833	135.34
220.051	34.99
220.27	114.86
220.488	159.91
220.706	96.43
220.924	8.36
221.142	104.62
221.36	77.99
221.578	118.95
221.796	73.9
222.015	-10.07
222.233	57.51
222.451	209.06
222.669	20.65
222.887	77.99
223.105	30.89
223.323	34.99
223.541	-10.07
223.759	59.56
223.977	61.61
224.195	198.82
224.413	125.1
224.631	166.06
224.849	0.17
225.067	233.64
225.285	47.27
225.503	55.47
225.721	-26.45
225.939	14.51
226.157	90.28
226.375	274.6
226.592	51.37
226.81	59.56
227.028	180.39
227.246	123.05
227.464	92.33
227.682	151.72
227.9	94.38
228.117	116.9
228.335	100.52
228.553	47.27
228.771	41.13
228.989	65.71
229.206	186.54
229.424	39.08
229.642	49.32
229.86	-87.89
230.077	127.14
230.295	69.8
230.513	200.87
230.731	84.14
230.948	262.31
231.166	176.3
231.384	73.9
231.601	-12.12
231.819	231.59
232.037	41.13
232.254	-20.31
232.472	-14.17
232.689	110.76
232.907	192.68
233.125	6.31
233.342	63.66
233.56	39.08
233.777	73.9
233.995	90.28
234.213	168.1
234.43	194.73
234.648	39.08
234.865	-16.21
235.083	61.61
235.3	67.75
235.518	129.19
235.735	174.25
235.953	92.33
236.17	37.03
236.388	77.99
236.605	110.76
236.822	215.21
237.04	188.58
237.257	86.19
237.475	22.7
237.692	84.14
237.909	116.9
238.127	-20.31
238.344	139.43
238.562	28.84
238.779	-32.6
238.996	41.13
239.214	114.86
239.431	106.67
239.648	-14.17
239.865	86.19
240.083	71.85
240.3	65.71
240.517	-1.88
240.735	96.43
240.952	264.36
241.169	114.86
241.386	98.47
241.603	88.23
241.821	-10.07
242.038	63.66
242.255	141.48
242.472	-16.21
242.689	143.53
242.907	145.58
243.124	84.14
243.341	86.19
243.558	65.71
243.775	20.65
243.992	-14.17
244.209	88.23
244.426	260.26
244.643	-8.02
244.86	80.04
245.078	80.04
245.295	94.38
245.512	98.47
245.729	30.89
245.946	147.62
246.163	143.53
246.38	73.9
246.597	153.77
246.814	100.52
247.031	73.9
247.248	96.43
247.464	131.24
247.681	104.62
247.898	188.58
248.115	100.52
248.332	88.23
248.549	198.82
248.766	186.54
248.983	125.1
249.2	110.76
249.417	125.1
249.633	16.55
249.85	94.38
250.067	90.28
250.284	80.04
250.501	114.86
250.717	112.81
250.934	43.18
251.151	16.55
251.368	47.27
251.585	143.53
251.801	92.33
252.018	34.99
252.235	94.38
252.451	-59.22
252.668	51.37
252.885	180.39
253.102	12.46
253.318	26.79
253.535	49.32
253.752	-16.21
253.968	65.71
254.185	20.65
254.401	114.86
254.618	82.09
254.835	32.94
255.051	137.38
255.268	143.53
255.484	41.13
255.701	43.18
255.917	102.57
256.134	24.75
256.351	18.6
256.567	63.66
256.784	110.76
257	-34.64
257.217	121
257.433	131.24
257.65	129.19
257.866	164.01
258.082	-10.07
258.299	24.75
258.515	112.81
258.732	92.33
258.948	26.79
259.165	69.8
259.381	-83.8
259.597	149.67
259.814	18.6
260.03	94.38
260.246	88.23
260.463	147.62
260.679	198.82
260.895	59.56
261.112	43.18
261.328	104.62
261.544	22.7
261.761	116.9
261.977	-55.12
262.193	-14.17
262.409	129.19
262.626	118.95
262.842	84.14
263.058	84.14
263.274	196.78
263.49	88.23
263.707	112.81
263.923	182.44
264.139	10.41
264.355	14.51
264.571	143.53
264.787	114.86
265.004	182.44
265.22	39.08
265.436	57.51
265.652	-36.69
265.868	131.24
266.084	-73.56
266.3	28.84
266.516	75.95
266.732	51.37
266.948	80.04
267.164	82.09
267.38	153.77
267.596	143.53
267.812	178.34
268.028	75.95
268.244	30.89
268.46	149.67
268.676	96.43
268.892	77.99
269.108	22.7
269.324	-14.17
269.54	6.31
269.756	166.06
269.972	73.9
270.188	65.71
270.403	-16.21
270.619	22.7
270.835	166.06
271.051	65.71
271.267	-1.88
271.483	22.7
271.698	129.19
271.914	108.71
272.13	182.44
272.346	116.9
272.562	116.9
272.777	143.53
272.993	24.75
273.209	47.27
273.425	49.32
273.64	59.56
273.856	100.52
274.072	-26.45
274.287	82.09
274.503	170.15
274.719	143.53
274.934	18.6
275.15	-10.07
275.366	57.51
275.581	73.9
275.797	75.95
276.012	86.19
276.228	84.14
276.444	100.52
276.659	164.01
276.875	-22.36
277.09	67.75
277.306	30.89
277.521	102.57
277.737	51.37
277.952	186.54
278.168	143.53
278.383	59.56
278.599	172.2
278.814	172.2
279.03	159.91
279.245	149.67
279.461	61.61
279.676	102.57
279.892	0.17
280.107	8.36
280.322	104.62
280.538	112.81
280.753	30.89
280.969	65.71
281.184	106.67
281.399	133.29
281.615	88.23
281.83	45.23
282.045	8.36
282.26	26.79
282.476	100.52
282.691	135.34
282.906	98.47
283.122	112.81
283.337	20.65
283.552	125.1
283.767	-10.07
283.983	159.91
284.198	73.9
284.413	137.38
284.628	0.17
284.843	198.82
285.058	161.96
285.274	22.7
285.489	24.75
285.704	112.81
285.919	-28.5
286.134	131.24
286.349	69.8
286.564	32.94
286.779	110.76
286.995	30.89
287.21	28.84
287.425	125.1
287.64	92.33
287.855	82.09
288.07	32.94
288.285	164.01
288.5	157.86
288.715	180.39
288.93	30.89
289.145	104.62
289.36	116.9
289.575	34.99
289.79	172.2
290.004	75.95
290.219	131.24
290.434	80.04
290.649	69.8
290.864	39.08
291.079	65.71
291.294	65.71
291.509	80.04
291.724	75.95
291.938	59.56
292.153	55.47
292.368	65.71
292.583	121
292.798	106.67
293.012	90.28
293.227	86.19
293.442	12.46
293.657	112.81
293.871	194.73
294.086	114.86
294.301	151.72
294.516	125.1
294.73	63.66
294.945	6.31
295.16	92.33
295.374	143.53
295.589	125.1
295.804	69.8
296.018	114.86
296.233	153.77
296.447	149.67
296.662	96.43
296.877	172.2
297.091	151.72
297.306	49.32
297.52	57.51
297.735	73.9
297.949	32.94
298.164	137.38
298.378	131.24
298.593	-8.02
298.807	45.23
299.022	86.19
299.236	188.58
299.451	14.51
299.665	2.22
299.88	37.03
300.094	80.04
300.309	86.19
300.523	110.76
300.737	45.23
300.952	157.86
301.166	157.86
301.381	-3.93
301.595	-46.93
301.809	53.42
302.024	112.81
302.238	26.79
302.452	231.59
302.667	-22.36
302.881	161.96
303.095	176.3
303.309	86.19
303.524	22.7
303.738	84.14
303.952	45.23
304.166	43.18
304.381	-36.69
304.595	207.02
304.809	37.03
305.023	0.17
305.237	18.6
305.452	26.79
305.666	196.78
305.88	67.75
306.094	172.2
306.308	118.95
306.522	137.38
306.736	104.62
306.95	211.11
307.164	118.95
307.379	69.8
307.593	164.01
307.807	174.25
308.021	178.34
308.235	108.71
308.449	-26.45
308.663	86.19
308.877	241.83
309.091	114.86
309.305	118.95
309.519	-32.6
309.733	186.54
309.947	-51.03
310.161	34.99
310.374	112.81
310.588	106.67
310.802	-30.55
311.016	108.71
311.23	188.58
311.444	-5.97
311.658	112.81
311.872	180.39
312.085	188.58
312.299	172.2
312.513	225.45
312.727	147.62
312.941	10.41
313.154	131.24
313.368	94.38
313.582	59.56
313.796	145.58
314.009	151.72
314.223	108.71
314.437	94.38
314.651	174.25
314.864	24.75
315.078	-22.36
315.292	-59.22
315.505	10.41
315.719	139.43
315.933	92.33
316.146	34.99
316.36	34.99
316.573	114.86
316.787	127.14
317.001	69.8
317.214	75.95
317.428	-1.88
317.641	67.75
317.855	75.95
318.068	94.38
318.282	133.29
318.495	176.3
318.709	143.53
318.922	153.77
319.136	176.3
319.349	198.82
319.563	18.6
319.776	188.58
319.99	-71.51
320.203	39.08
320.417	104.62
320.63	127.14
320.843	204.97
321.057	108.71
321.27	10.41
321.483	131.24
321.697	98.47
321.91	53.42
322.124	96.43
322.337	80.04
322.55	43.18
322.763	106.67
322.977	61.61
323.19	49.32
323.403	39.08
323.617	155.82
323.83	164.01
324.043	53.42
324.256	34.99
324.469	10.41
324.683	137.38
324.896	90.28
325.109	143.53
325.322	-91.99
325.535	129.19
325.748	133.29
325.962	94.38
326.175	90.28
326.388	121
326.601	141.48
326.814	28.84
327.027	135.34
327.24	221.35
327.453	2.22
327.666	73.9
327.879	118.95
328.092	51.37
328.305	88.23
328.518	32.94
328.731	-20.31
328.944	-20.31
329.157	116.9
329.37	8.36
329.583	196.78
329.796	221.35
330.009	10.41
330.222	166.06
330.435	153.77
330.648	116.9
330.861	69.8
331.073	125.1
331.286	135.34
331.499	80.04
331.712	4.27
331.925	14.51
332.138	86.19
332.35	61.61
332.563	71.85
332.776	192.68
332.989	12.46
333.202	92.33
333.414	63.66
333.627	86.19
333.84	75.95
334.053	57.51
334.265	-1.88
334.478	14.51
334.691	14.51
334.903	67.75
335.116	-28.5
335.329	82.09
335.541	112.81
335.754	153.77
335.966	16.55
336.179	100.52
336.392	39.08
336.604	34.99
336.817	88.23
337.029	116.9
337.242	49.32
337.454	67.75
337.667	123.05
337.88	143.53
338.092	69.8
338.305	131.24
338.517	55.47
338.729	239.78
338.942	133.29
339.154	-8.02
339.367	-3.93
339.579	118.95
339.792	63.66
340.004	172.2
340.217	100.52
340.429	118.95
340.641	0.17
340.854	-20.31
341.066	57.51
341.278	149.67
341.491	272.55
341.703	65.71
341.915	-10.07
342.128	137.38
342.34	153.77
342.552	65.71
342.764	108.71
342.977	84.14
343.189	131.24
343.401	116.9
343.613	-14.17
343.826	-1.88
344.038	6.31
344.25	84.14
344.462	0.17
344.674	80.04
344.886	2.22
345.099	63.66
345.311	188.58
345.523	41.13
345.735	-28.5
345.947	104.62
346.159	53.42
346.371	98.47
346.583	57.51
346.795	155.82
347.007	71.85
347.219	141.48
347.431	22.7
347.643	100.52
347.855	-30.55
348.067	196.78
348.279	-110.42
348.491	92.33
348.703	151.72
348.915	55.47
349.127	-20.31
349.339	127.14
349.551	-10.07
349.763	110.76
349.975	61.61
350.187	141.48
350.399	86.19
350.61	102.57
350.822	20.65
351.034	47.27
351.246	176.3
351.458	131.24
351.669	102.57
351.881	129.19
352.093	127.14
352.305	143.53
352.517	88.23
352.728	180.39
352.94	51.37
353.152	73.9
353.363	-18.26
353.575	110.76
353.787	178.34
353.999	75.95
354.21	184.49
354.422	39.08
354.633	-18.26
354.845	41.13
355.057	77.99
355.268	43.18
355.48	155.82
355.692	34.99
355.903	125.1
356.115	55.47
356.326	-55.12
356.538	204.97
356.749	157.86
356.961	123.05
357.172	73.9
357.384	-3.93
357.595	282.79
357.807	75.95
358.018	71.85
358.23	16.55
358.441	219.3
358.653	155.82
358.864	-3.93
359.075	47.27
359.287	65.71
359.498	137.38
359.709	104.62
359.921	106.67
360.132	129.19
360.344	80.04
360.555	75.95
360.766	90.28
360.977	28.84
361.189	145.58
361.4	-3.93
361.611	190.63
361.823	182.44
362.034	63.66
362.245	45.23
362.456	143.53
362.667	100.52
362.879	-48.98
363.09	94.38
363.301	86.19
363.512	151.72
363.723	8.36
363.935	94.38
364.146	164.01
364.357	45.23
364.568	110.76
364.779	-10.07
364.99	112.81
365.201	51.37
365.412	155.82
365.623	-30.55
365.834	137.38
366.045	98.47
366.256	92.33
366.467	170.15
366.678	86.19
366.889	121
367.1	34.99
367.311	178.34
367.522	63.66
367.733	100.52
367.944	77.99
368.155	18.6
368.366	98.47
368.577	192.68
368.788	153.77
368.999	53.42
369.209	73.9
369.42	262.31
369.631	266.41
369.842	131.24
370.053	26.79
370.264	100.52
370.474	8.36
370.685	131.24
370.896	69.8
371.107	88.23
371.317	82.09
371.528	114.86
371.739	153.77
371.95	49.32
372.16	104.62
372.371	34.99
372.582	63.66
372.792	73.9
373.003	137.38
373.214	67.75
373.424	143.53
373.635	96.43
373.846	155.82
374.056	67.75
374.267	90.28
374.477	141.48
374.688	61.61
374.898	118.95
375.109	145.58
375.319	41.13
375.53	114.86
375.74	198.82
375.951	118.95
376.161	141.48
376.372	123.05
376.582	24.75
376.793	108.71
377.003	37.03
377.214	26.79
377.424	121
377.635	116.9
377.845	47.27
378.055	182.44
378.266	4.27
378.476	69.8
378.686	149.67
378.897	73.9
379.107	123.05
379.317	110.76
379.528	26.79
379.738	164.01
379.948	51.37
380.158	172.2
380.369	92.33
380.579	166.06
380.789	18.6
380.999	121
381.21	137.38
381.42	174.25
381.63	100.52
381.84	110.76
382.05	127.14
382.261	125.1
382.471	174.25
382.681	45.23
382.891	247.97
383.101	92.33
383.311	92.33
383.521	-16.21
383.731	108.71
383.941	110.76
384.151	104.62
384.361	90.28
384.571	51.37
384.781	116.9
384.991	198.82
385.201	247.97
385.411	112.81
385.621	151.72
385.831	49.32
386.041	90.28
386.251	41.13
386.461	176.3
386.671	47.27
386.881	43.18
387.091	30.89
387.301	125.1
387.511	98.47
387.72	96.43
387.93	137.38
388.14	-8.02
388.35	77.99
388.56	182.44
388.769	211.11
388.979	75.95
389.189	55.47
389.399	145.58
389.609	159.91
389.818	145.58
390.028	100.52
390.238	100.52
390.447	-46.93
390.657	129.19
390.867	69.8
391.076	-75.6
391.286	100.52
391.496	121
391.705	59.56
391.915	213.16
392.125	145.58
392.334	100.52
392.544	221.35
392.753	82.09
392.963	28.84
393.172	110.76
393.382	-8.02
393.591	213.16
393.801	-24.4
394.01	155.82
394.22	108.71
394.429	92.33
394.639	73.9
394.848	153.77
395.058	121
395.267	82.09
395.477	125.1
395.686	77.99
395.895	256.17
396.105	204.97
396.314	151.72
396.524	51.37
396.733	63.66
396.942	211.11
397.152	151.72
397.361	225.45
397.57	133.29
397.78	112.81
397.989	121
398.198	188.58
398.407	53.42
398.617	71.85
398.826	98.47
399.035	116.9
399.244	157.86
399.453	151.72
399.663	63.66
399.872	116.9
400.081	43.18
400.29	139.43
400.499	22.7
400.708	157.86
400.917	71.85
401.127	10.41
401.336	14.51
401.545	133.29
401.754	143.53
401.963	88.23
402.172	2.22
402.381	8.36
402.59	53.42
402.799	98.47
403.008	182.44
403.217	24.75
403.426	182.44
403.635	32.94
403.844	139.43
404.053	18.6
404.262	102.57
404.471	211.11
404.68	88.23
404.888	116.9
405.097	16.55
405.306	104.62
405.515	121
405.724	77.99
405.933	125.1
406.142	86.19
406.35	129.19
406.559	98.47
406.768	86.19
406.977	170.15
407.185	129.19
407.394	141.48
407.603	16.55
407.812	108.71
408.02	194.73
408.229	96.43
408.438	129.19
408.646	26.79
408.855	82.09
409.064	143.53
409.272	98.47
409.481	125.1
409.69	28.84
409.898	34.99
410.107	133.29
410.315	190.63
410.524	80.04
410.733	65.71
410.941	145.58
411.15	133.29
411.358	121
411.567	176.3
411.775	110.76
411.984	92.33
412.192	98.47
412.401	77.99
412.609	245.93
412.818	204.97
413.026	45.23
413.234	137.38
413.443	80.04
413.651	98.47
413.86	59.56
414.068	172.2
414.276	202.92
414.485	55.47
414.693	245.93
414.901	213.16
415.11	129.19
415.318	61.61
415.526	110.76
415.734	123.05
415.943	108.71
416.151	149.67
416.359	92.33
416.567	121
416.776	59.56
416.984	135.34
417.192	204.97
417.4	73.9
417.608	-1.88
417.817	102.57
418.025	145.58
418.233	207.02
418.441	-67.41
418.649	92.33
418.857	118.95
419.065	170.15
419.273	77.99
419.481	127.14
419.689	47.27
419.897	73.9
420.105	-10.07
420.313	188.58
420.521	172.2
420.729	194.73
420.937	-18.26
421.145	4.27
421.353	139.43
421.561	211.11
421.769	104.62
421.977	114.86
422.185	164.01
422.393	116.9
422.601	153.77
422.809	84.14
423.017	149.67
423.224	176.3
423.432	110.76
423.64	-14.17
423.848	141.48
424.056	22.7
424.263	215.21
424.471	55.47
424.679	252.07
424.887	41.13
425.094	184.49
425.302	223.4
425.51	82.09
425.718	55.47
425.925	77.99
426.133	18.6
426.341	229.54
426.548	53.42
426.756	63.66
426.964	69.8
427.171	73.9
427.379	164.01
427.586	75.95
427.794	252.07
428.001	202.92
428.209	151.72
428.417	227.5
428.624	151.72
428.832	166.06
429.039	235.69
429.247	114.86
429.454	223.4
429.662	270.5
429.869	172.2
430.076	133.29
430.284	139.43
430.491	256.17
430.699	200.87
430.906	309.41
431.114	151.72
431.321	164.01
431.528	243.88
431.736	137.38
431.943	198.82
432.15	161.96
432.358	217.26
432.565	350.37
432.772	49.32
432.979	198.82
433.187	204.97
433.394	164.01
433.601	161.96
433.808	315.56
434.016	313.51
434.223	231.59
434.43	223.4
434.637	280.74
434.844	260.26
435.052	243.88
435.259	307.37
435.466	303.27
435.673	313.51
435.88	256.17
436.087	303.27
436.294	448.68
436.501	280.74
436.708	366.76
436.915	352.42
437.122	325.8
437.329	284.84
437.537	305.32
437.743	417.96
437.95	538.79
438.157	360.61
438.364	463.01
438.571	442.53
438.778	463.01
438.985	520.35
439.192	534.69
439.399	403.62
439.606	510.11
439.813	614.56
440.02	620.71
440.227	721.06
440.433	557.22
440.64	565.41
440.847	583.84
441.054	635.04
441.261	661.66
441.467	604.32
441.674	612.51
441.881	733.34
442.088	716.96
442.294	731.3
442.501	821.41
442.708	798.88
442.914	886.94
443.121	815.26
443.328	907.42
443.534	972.96
443.741	975
443.948	845.98
444.154	1013.92
444.361	1077.4
444.568	1028.25
444.774	1089.69
444.981	927.9
445.187	1122.46
445.394	1331.35
445.6	1165.46
445.807	1292.44
446.013	1370.26
446.22	1218.71
446.426	1398.93
446.633	1491.09
446.839	1632.4
447.046	1456.28
447.252	1687.7
447.459	1605.78
447.665	1652.88
447.871	1843.34
448.078	1972.36
448.284	1878.16
448.491	1949.84
448.697	2085
448.903	2205.83
449.11	2238.6
449.316	2183.31
449.522	2226.31
449.728	2334.86
449.935	2510.98
450.141	2560.13
450.347	2680.96
450.553	2717.83
450.76	2721.92
450.966	2936.96
451.172	3096.7
451.378	3100.8
451.584	3160.19
451.791	3281.02
451.997	3586.16
452.203	3594.36
452.409	3688.56
452.615	3979.37
452.821	3698.8
453.027	3993.71
453.233	4474.98
453.44	4155.5
453.646	4360.3
453.852	4784.23
454.058	4675.68
454.264	4954.21
454.47	5277.79
454.676	5333.08
454.882	5673.04
455.088	5677.14
455.294	5863.51
455.5	6070.35
455.705	6649.93
455.911	6467.66
456.117	6670.4
456.323	6881.35
456.529	7129.15
456.735	7684.15
456.941	7807.03
457.147	8253.48
457.352	8331.31
457.558	8515.62
457.764	9072.67
457.97	9236.51
458.176	9773.08
458.381	10194.96
458.587	10221.58
458.793	10854.41
458.999	10729.48
459.204	12570.6
459.41	12556.27
459.616	12443.63
459.821	13101.03
460.027	13772.76
460.233	14315.47
460.438	14694.35
460.644	15462.33
460.85	15394.75
461.055	16177.08
461.261	16906.15
461.466	16181.17
461.672	16691.12
461.878	18648.97
462.083	18702.22
462.289	18747.28
462.494	19740.54
462.7	19697.53
462.905	20090.74
463.111	21495.65
463.316	22622.03
463.522	23287.62
463.727	23781.18
463.932	24950.57
464.138	25462.57
464.343	26451.74
464.549	26988.3
464.754	28772.08
464.959	29284.08
465.165	29984.48
465.37	29632.23
465.575	30181.09
465.781	32136.9
465.986	33021.62
466.191	32403.13
466.397	32247.49
466.602	31975.11
466.807	33769.13
467.012	34311.84
467.218	34918.04
467.423	34782.87
467.628	35749.51
467.833	37764.71
468.038	36732.54
468.244	36116.1
468.449	38119.01
468.654	37262.96
468.859	36933.24
469.064	37580.4
469.269	36368
469.474	36726.39
469.679	37742.19
469.885	36667
470.09	37289.59
470.295	37475.95
470.5	36421.25
470.705	36691.58
470.91	35522.19
471.115	35405.45
471.32	36028.04
471.525	35446.41
471.73	34459.29
471.935	34610.84
472.139	33302.19
472.344	33078.96
472.549	33164.98
472.754	32528.06
472.959	31690.44
473.164	30437.08
473.369	29853.41
473.574	31053.52
473.778	30324.44
473.983	29785.83
474.188	29183.73
474.393	28182.27
474.598	27989.76
474.802	27189
475.007	27023.12
475.212	26806.03
475.417	25427.75
475.621	25184.04
475.826	24870.7
476.031	24477.49
476.235	23607.11
476.44	23953.21
476.645	23127.88
476.849	22701.9
477.054	22626.13
477.259	22208.34
477.463	22009.69
477.668	21495.65
477.872	21571.43
478.077	20627.31
478.282	20643.7
478.486	20230.01
478.691	19976.06
478.895	19763.07
479.1	19871.61
479.304	19713.92
479.509	18976.65
479.713	19230.6
479.918	18687.89
480.122	18274.2
480.326	18530.19
480.531	18331.54
480.735	18204.56
480.94	17977.24
481.144	18470.8
481.348	17596.32
481.553	17604.51
481.757	16990.12
481.961	17354.66
482.166	17307.55
482.37	17166.24
482.574	16854.95
482.778	16801.71
482.983	16967.59
483.187	16488.37
483.391	16523.18
483.595	16179.12
483.8	16109.49
484.004	16019.38
484.208	16127.92
484.412	15765.43
484.616	15708.09
484.821	15564.73
485.025	15144.9
485.229	15075.27
485.433	14868.42
485.637	14391.25
485.841	14299.09
486.045	14469.07
486.249	14456.78
486.453	13772.76
486.657	13830.1
486.861	13541.34
487.065	13125.6
487.269	13070.31
487.473	12699.62
487.677	12898.28
487.881	12855.27
488.085	12322.8
488.289	12302.32
488.493	11980.79
488.697	11933.68
488.901	11716.6
489.105	11390.97
489.309	11255.81
489.512	11085.83
489.716	10754.05
489.92	10702.86
490.124	10442.76
490.328	10348.56
490.531	10090.51
490.735	10174.48
490.939	9760.79
491.143	9537.56
491.346	9371.68
491.55	9443.35
491.754	9046.05
491.958	8953.89
492.161	8771.62
492.365	8839.2
492.569	8402.99
492.772	8450.09
492.976	8427.56
493.18	8321.07
493.383	8122.41
493.587	7956.53
493.79	7956.53
493.994	7598.13
494.197	7893.04
494.401	8017.97
494.605	7561.27
494.808	7499.83
495.012	7577.66
495.215	7497.78
495.419	7516.22
495.622	7403.58
495.825	7284.8
496.029	7274.56
496.232	7278.65
496.436	7163.97
496.639	7147.58
496.843	7063.61
497.046	7125.05
497.249	7276.6
497.453	7295.04
497.656	7096.38
497.859	7258.17
498.063	7286.84
498.266	7407.67
498.469	7100.48
498.673	7301.18
498.876	7170.11
499.079	7348.28
499.282	7217.21
499.485	7727.16
499.689	7528.5
499.892	7536.7
500.095	7481.4
500.298	7694.39
500.501	7364.67
500.705	7706.68
500.908	7761.97
501.111	7684.15
501.314	7721.01
501.517	7962.67
501.72	8149.04
501.923	7985.2
502.126	8007.73
502.329	8384.55
502.532	8226.86
502.735	8454.19
502.938	8671.27
503.141	8433.71
503.344	8521.77
503.547	8732.71
503.75	8859.68
503.953	9117.73
504.156	9336.86
504.359	9293.85
504.562	9459.74
504.765	9578.52
504.968	9662.49
505.17	10092.56
505.373	10082.32
505.576	10266.64
505.779	10332.17
505.982	10266.64
506.185	10649.61
506.387	10825.73
506.59	11130.88
506.793	11329.53
506.996	11321.34
507.198	11663.35
507.401	11898.87
507.604	12074.99
507.807	12568.55
508.009	12519.4
508.212	12972
508.415	13148.13
508.617	13340.64
508.82	13463.52
509.022	13653.98
509.225	14077.91
509.428	14407.63
509.63	14594
509.833	14618.57
510.035	15278.02
510.238	15525.82
510.44	15816.63
510.643	16367.54
510.845	17002.41
511.048	16766.89
511.25	17346.47
511.453	17739.68
511.655	18435.99
511.858	18704.27
512.06	19199.88
512.262	19345.28
512.465	19679.1
512.667	20313.97
512.87	20748.14
513.072	21153.64
513.274	21628.77
513.477	22323.03
513.679	22609.75
513.881	23062.35
514.084	23656.26
514.286	24078.14
514.488	24297.27
514.69	25358.12
514.893	25929.5
515.095	26038.05
515.297	26887.95
515.499	27453.19
515.701	27848.45
515.904	28411.64
516.106	29107.95
516.308	29527.78
516.51	30082.78
516.712	30445.27
516.914	31358.67
517.116	32456.38
517.318	32790.2
517.52	33029.81
517.722	33670.82
517.925	34459.29
518.127	34852.5
518.329	36028.04
518.531	35856.01
518.733	36714.11
518.935	37541.49
519.136	38076.01
519.338	38723.16
519.54	39155.29
519.742	39947.85
519.944	39988.81
520.146	41154.1
520.348	41557.55
520.55	42036.78
520.752	42090.02
520.954	42970.65
521.155	43232.79
521.357	43968.01
521.559	44375.56
521.761	44838.4
521.963	45157.88
522.164	45551.09
522.366	46067.18
522.568	46732.77
522.77	46820.83
522.971	47648.21
523.173	47168.99
523.375	47889.87
523.576	48184.78
523.778	48078.29
523.98	48893.38
524.181	48809.41
524.383	48854.47
524.584	49446.33
524.786	49571.25
524.988	48823.75
525.189	49550.77
525.391	49499.58
525.592	49626.55
525.794	49743.28
525.995	49620.41
526.197	49728.95
526.398	49188.28
526.6	49589.69
526.801	49243.58
527.003	49188.28
527.204	48827.84
527.406	49450.42
527.607	48860.61
527.808	48430.54
528.01	47766.99
528.211	47887.82
528.412	48321.99
528.614	47508.95
528.815	46999.01
529.016	47201.75
529.218	46091.76
529.419	46040.56
529.62	45518.32
529.822	45487.6
530.023	44682.75
530.224	44674.56
530.425	44156.42
530.626	43226.65
530.828	42843.68
531.029	43075.1
531.23	42051.11
531.431	41827.88
531.632	41737.77
531.833	41412.15
532.035	40181.32
532.236	40271.43
532.437	40060.49
532.638	39102.04
532.839	38891.1
533.04	38731.36
533.241	37383.79
533.442	37852.78
533.643	37107.32
533.844	36107.91
534.045	35776.14
534.246	35243.66
534.447	34797.21
534.648	34533.02
534.849	34191.01
535.05	33423.02
535.251	33216.18
535.451	32743.1
535.652	32435.9
535.853	31823.56
536.054	31618.76
536.255	31282.89
536.456	30349.02
536.657	30758.61
536.857	29808.36
537.058	29507.3
537.259	29456.11
537.46	28608.25
537.66	27842.31
537.861	27803.39
538.062	27479.82
538.263	26842.9
538.463	26660.63
538.664	26394.39
538.865	26033.95
539.065	26042.14
539.266	25218.86
539.466	25204.52
539.667	24696.63
539.868	24917.81
540.068	24420.15
540.269	23916.35
540.469	23582.53
540.67	23277.38
540.87	23265.1
541.071	23037.77
541.271	22546.26
541.472	22257.5
541.672	22077.27
541.873	21888.86
542.073	21448.55
542.274	21286.76
542.474	21258.09
542.675	21036.91
542.875	20772.72
543.075	20475.76
543.276	20094.84
543.476	20084.6
543.676	19726.21
543.877	19818.36
544.077	19292.04
544.277	19117.96
544.478	18706.32
544.678	18579.34
544.878	18511.76
545.078	18321.3
545.279	17774.49
545.479	17833.88
545.679	17821.59
545.879	17254.31
546.079	17059.75
546.28	16996.26
546.48	16820.14
546.68	16666.54
546.88	16539.57
547.08	16400.3
547.28	16220.08
547.48	15771.58
547.68	15665.08
547.88	15491.01
548.081	15644.6
548.281	14847.94
548.481	15019.97
548.681	14786.51
548.881	14575.56
549.081	14444.49
549.28	14198.74
549.48	14057.43
549.68	14039
549.88	14051.28
550.08	13342.69
550.28	13391.84
550.48	13240.29
550.68	12992.48
550.88	12572.65
551.08	12619.75
551.279	12378.09
551.479	12234.74
551.679	12124.15
551.879	11810.81
552.079	11767.8
552.278	11194.37
552.478	11612.15
552.678	11257.85
552.878	11247.62
553.077	10903.56
553.277	10625.03
553.477	10420.24
553.676	10336.27
553.876	10274.83
554.076	10088.46
554.275	9988.11
554.475	9826.32
554.674	9687.06
554.874	9439.26
555.074	9224.22
555.273	9193.5
555.473	9185.31
555.672	8931.36
555.872	8747.05
556.071	8773.67
556.271	8566.82
556.47	8417.32
556.67	8149.04
556.869	8169.52
557.068	7931.95
557.268	7757.88
557.467	7733.3
557.667	7669.81
557.866	7389.24
558.065	7211.07
558.265	7237.69
558.464	7024.7
558.663	7092.29
558.863	6832.19
559.062	6697.03
559.261	6576.2
559.461	6621.25
559.66	6402.12
559.859	6242.38
560.058	6211.66
560.258	6121.55
560.457	5972.05
560.656	6164.56
560.855	5822.55
561.054	5877.84
561.253	5763.15
561.453	5763.15
561.652	5421.14
561.851	5531.73
562.05	5230.68
562.249	5089.37
562.448	5318.75
562.647	4966.49
562.846	4989.02
563.045	4999.26
563.244	4927.58
563.443	4833.38
563.642	4765.79
563.841	4622.44
564.04	4730.98
564.239	4589.67
564.438	4384.87
564.637	4317.29
564.836	4409.45
565.035	4237.42
565.234	4229.23
565.432	4079.72
565.631	4143.21
565.83	4051.05
566.029	3981.42
566.228	3924.08
566.427	3905.65
566.625	3782.77
566.824	3774.58
567.023	3741.81
567.222	3612.79
567.42	3549.3
567.619	3479.67
567.818	3498.1
568.016	3688.56
568.215	3344.5
568.414	3602.55
568.612	3195
568.811	3199.1
569.01	3078.27
569.208	3254.39
569.407	3254.39
569.605	3176.57
569.804	3002.49
570.002	3119.23
570.201	2994.3
570.4	2844.8
570.598	2867.33
570.797	2812.03
570.995	2748.54
571.193	2672.77
571.392	2848.9
571.59	2543.75
571.789	2689.15
571.987	2683.01
572.186	2676.87
572.384	2603.14
572.582	2482.31
572.781	2363.53
572.979	2291.85
573.177	2443.4
573.376	2295.94
573.574	2392.2
573.772	2318.47
573.971	2234.5
574.169	2044.04
574.367	2209.93
574.565	2109.58
574.763	2085
574.962	2046.09
575.16	2115.72
575.358	1874.06
575.556	2033.8
575.754	1906.83
575.952	2074.76
576.151	1925.26
576.349	1898.64
576.547	1706.13
576.745	1816.72
576.943	1726.61
577.141	1761.42
577.339	1630.35
577.537	1669.27
577.735	1839.25
577.933	1656.98
578.131	1661.07
578.329	1697.94
578.527	1644.69
578.725	1745.04
578.923	1419.41
579.121	1437.84
579.319	1407.13
579.516	1452.18
579.714	1673.36
579.912	1378.45
580.11	1329.3
580.308	1337.49
580.506	1435.8
580.704	1142.94
580.901	1265.82
581.099	1325.21
581.297	1204.38
581.495	1417.37
581.692	1261.72
581.89	1331.35
582.088	1267.86
582.285	1116.31
582.483	1192.09
582.681	1130.65
582.878	1118.36
583.076	1083.55
583.274	1200.28
583.471	1210.52
583.669	1007.77
583.866	958.62
584.064	1038.49
584.262	985.24
584.459	932
584.657	1091.74
584.854	1099.93
585.052	999.58
585.249	948.38
585.447	995.48
585.644	827.55
585.841	1052.83
586.039	991.39
586.236	972.96
586.434	993.44
586.631	815.26
586.828	827.55
587.026	852.13
587.223	739.49
587.42	731.3
587.618	868.51
587.815	983.2
588.012	776.35
588.21	805.02
588.407	839.84
588.604	852.13
588.801	714.91
588.999	837.79
589.196	757.92
589.393	729.25
589.59	727.2
589.787	719.01
589.984	790.69
590.182	780.45
590.379	643.23
590.576	680.1
590.773	723.1
590.97	706.72
591.167	686.24
591.364	819.36
591.561	682.14
591.758	805.02
591.955	727.2
592.152	770.21
592.349	665.76
592.546	684.19
592.743	702.62
592.94	673.95
593.137	751.78
593.334	807.07
593.531	790.69
593.727	782.49
593.924	702.62
594.121	772.25
594.318	645.28
594.515	729.25
594.712	817.31
594.908	870.56
595.105	706.72
595.302	686.24
595.499	739.49
595.696	792.73
595.892	714.91
596.089	868.51
596.286	741.54
596.482	823.45
596.679	878.75
596.876	874.65
597.072	827.55
597.269	868.51
597.466	929.95
597.662	975
597.859	864.41
598.055	950.43
598.252	1022.11
598.448	1110.17
598.645	1099.93
598.841	1159.32
599.038	1190.04
599.234	1366.17
599.431	1126.55
599.627	1327.25
599.824	1400.98
600.02	1286.3
600.217	1476.76
600.413	1456.28
600.609	1656.98
600.806	1837.2
601.002	1587.35
601.198	1595.54
601.395	1841.29
601.591	1917.07
601.787	1931.41
601.984	1947.79
602.18	2068.62
602.376	2226.31
602.572	2236.55
602.769	2400.39
602.965	2402.44
603.161	2353.29
603.357	2586.76
603.553	2629.76
603.75	2609.28
603.946	2701.44
604.142	2789.5
604.338	3082.36
604.534	3047.55
604.73	3137.66
604.926	3117.18
605.122	3537.01
605.318	3293.3
605.514	3483.77
605.71	3582.07
605.906	3756.15
606.102	3850.35
606.298	4059.24
606.494	4223.08
606.69	4272.23
606.886	4315.24
607.082	4515.94
607.278	4522.09
607.474	4710.5
607.67	4868.19
607.866	4847.71
608.062	4999.26
608.257	5113.95
608.453	5304.41
608.649	5621.84
608.845	5683.28
609.041	5689.43
609.236	6033.49
609.432	6193.23
609.628	6330.44
609.824	6414.41
610.019	6520.9
610.215	6723.65
610.411	7043.14
610.606	7118.91
610.802	7489.59
610.998	7424.06
611.193	7882.8
611.389	7796.79
611.584	8112.17
611.78	8233.01
611.976	8673.32
612.171	9033.76
612.367	9089.06
612.562	9140.26
612.758	9261.09
612.953	9523.23
613.149	9996.31
613.344	10199.06
613.539	10663.94
613.735	10733.57
613.93	10893.32
614.126	11106.31
614.321	11765.75
614.517	12105.71
614.712	12265.46
614.907	12556.27
615.103	12783.59
615.298	13010.92
615.493	13488.09
615.688	13527
615.884	14116.82
616.079	14352.34
616.274	14753.74
616.47	15179.72
616.665	15507.39
616.86	15908.79
617.055	16168.88
617.25	16482.22
617.445	17151.91
617.641	17235.88
617.836	17749.92
618.031	17975.19
618.226	19064.71
618.421	19308.42
618.616	19756.93
618.811	19953.53
619.006	20580.21
619.201	20871.02
619.396	21903.2
619.591	21864.29
619.786	22400.85
619.981	22619.99
620.176	23504.71
620.371	23818.05
620.566	24229.69
620.761	24831.79
620.956	25388.84
621.151	25847.58
621.346	26322.71
621.541	26310.43
621.735	27191.05
621.93	27649.8
622.125	28163.84
622.32	28237.56
622.515	29259.5
622.709	29701.86
622.904	29894.37
623.099	30600.92
623.294	31452.87
623.488	31286.99
623.683	32515.77
623.878	32218.82
624.072	33242.8
624.267	33795.75
624.462	33892.01
624.656	34451.1
624.851	35198.61
625.046	35399.31
625.24	36044.42
625.435	36456.06
625.629	36912.76
625.824	37654.12
626.018	38508.13
626.213	38176.36
626.407	38708.83
626.602	38717.02
626.796	39196.24
626.991	39827.02
627.185	39894.6
627.38	39978.57
627.574	40398.4
627.768	40474.18
627.963	40359.49
628.157	40334.92
628.352	40873.53
628.546	40638.01
628.74	41328.18
628.935	40406.59
629.129	40863.29
629.323	40177.22
629.517	40470.08
629.712	39702.09
629.906	39820.88
630.1	38575.71
630.294	38682.2
630.489	37658.22
630.683	37768.81
630.877	36662.91
631.071	36564.6
631.265	36226.69
631.459	35135.12
631.653	33926.82
631.848	33762.98
632.042	32485.05
632.236	31901.38
632.43	30768.85
632.624	30027.49
632.818	29316.84
633.012	27932.42
633.206	27438.86
633.4	26312.47
633.594	25456.42
633.788	24835.89
633.982	23856.96
634.176	23017.29
634.369	21923.68
634.563	21426.02
634.757	20262.77
634.951	19795.84
635.145	19156.87
635.339	18378.64
635.533	17440.67
635.726	16818.09
635.92	15751.1
636.114	15122.37
636.308	14757.83
636.501	14133.2
636.695	13570.01
636.889	12818.41
637.083	12406.77
637.276	11909.11
637.47	11458.56
637.664	10788.87
637.857	10786.82
638.051	10035.22
638.244	9662.49
638.438	9351.2
638.632	9033.76
638.825	8374.31
639.019	8325.16
639.212	7962.67
639.406	7716.92
639.599	7366.71
639.793	7096.38
639.986	6651.97
640.18	6686.79
640.373	6228.04
640.567	6017.1
640.76	5978.19
640.954	5605.46
641.147	5308.51
641.34	5191.77
641.534	4999.26
641.727	4814.95
641.92	4706.4
642.114	4358.25
642.307	4442.21
642.5	4223.08
642.694	3905.65
642.887	3760.24
643.08	3739.76
643.273	3647.6
643.467	3375.22
643.66	3270.78
643.853	3031.16
644.046	2953.34
644.239	2818.18
644.432	2680.96
644.626	2680.96
644.819	2701.44
645.012	2486.4
645.205	2506.88
645.398	2447.49
645.591	2324.62
645.784	2101.39
645.977	2080.91
646.17	2007.18
646.363	1886.35
646.556	1849.49
646.749	1689.74
646.942	1831.05
647.135	1599.63
647.328	1556.63
647.521	1611.92
647.714	1452.18
647.907	1519.76
648.099	1413.27
648.292	1407.13
648.485	1353.88
648.678	1206.42
648.871	1069.21
649.064	1116.31
649.256	1018.01
649.449	1036.44
649.642	968.86
649.835	913.56
650.027	809.12
650.22	929.95
650.413	829.6
650.605	907.42
650.798	780.45
650.991	782.49
651.183	792.73
651.376	788.64
651.568	858.27
651.761	731.3
651.954	663.71
652.146	673.95
652.339	686.24
652.531	698.53
652.724	565.41
652.916	567.46
653.109	479.4
653.301	645.28
653.494	673.95
653.686	495.78
653.879	544.93
654.071	643.23
654.263	514.21
654.456	463.01
654.648	573.6
654.84	526.5
655.033	428.2
655.225	604.32
655.417	301.22
655.61	522.4
655.802	391.33
655.994	499.88
656.186	280.74
656.379	377
656.571	333.99
656.763	364.71
656.955	331.94
657.148	344.23
657.34	452.77
657.532	231.59
657.724	327.85
657.916	387.24
658.108	444.58
658.3	313.51
658.492	364.71
658.684	315.56
658.876	321.7
659.068	278.69
659.26	194.73
659.452	272.55
659.644	317.61
659.836	428.2
660.028	286.89
660.22	245.93
660.412	229.54
660.604	229.54
660.796	211.11
660.988	235.69
661.18	276.65
661.372	247.97
661.563	250.02
661.755	239.78
661.947	159.91
662.139	172.2
662.331	182.44
662.522	202.92
662.714	129.19
662.906	178.34
663.097	231.59
663.289	151.72
663.481	133.29
663.673	184.49
663.864	194.73
664.056	276.65
664.247	170.15
664.439	233.64
664.631	153.77
664.822	178.34
665.014	174.25
665.205	141.48
665.397	202.92
665.588	262.31
665.78	153.77
665.971	260.26
666.163	102.57
666.354	209.06
666.546	149.67
666.737	137.38
666.929	133.29
667.12	135.34
667.311	155.82
667.503	176.3
667.694	192.68
667.885	184.49
668.077	221.35
668.268	22.7
668.459	135.34
668.651	202.92
668.842	172.2
669.033	94.38
669.224	139.43
669.416	295.08
669.607	147.62
669.798	153.77
669.989	211.11
670.18	184.49
670.371	227.5
670.563	59.56
670.754	241.83
670.945	161.96
671.136	260.26
671.327	135.34
671.518	258.21
671.709	260.26
671.9	170.15
672.091	190.63
672.282	176.3
672.473	192.68
672.664	96.43
672.855	215.21
673.046	143.53
673.237	211.11
673.428	125.1
673.619	276.65
673.809	102.57
674	239.78
674.191	247.97
674.382	143.53
674.573	151.72
674.764	110.76
674.954	184.49
675.145	86.19
675.336	108.71
675.527	75.95
675.717	98.47
675.908	198.82
676.099	137.38
676.289	139.43
676.48	34.99
676.671	145.58
676.861	153.77
677.052	215.21
677.243	149.67
677.433	92.33
677.624	198.82
677.814	184.49
678.005	129.19
678.195	295.08
678.386	67.75
678.576	166.06
678.767	106.67
678.957	125.1
679.148	166.06
679.338	303.27
679.529	231.59
679.719	164.01
679.909	254.12
680.1	256.17
680.29	176.3
680.481	123.05
680.671	307.37
680.861	186.54
681.052	227.5
681.242	178.34
681.432	237.74
681.622	188.58
681.813	114.86
682.003	147.62
682.193	51.37
682.383	215.21
682.573	221.35
682.764	184.49
682.954	190.63
683.144	235.69
683.334	106.67
683.524	184.49
683.714	284.84
683.904	264.36
684.094	190.63
684.284	151.72
684.474	317.61
684.664	192.68
684.854	178.34
685.044	149.67
685.234	225.45
685.424	172.2
685.614	135.34
685.804	352.42
685.994	221.35
686.184	231.59
686.374	166.06
686.564	182.44
686.753	98.47
686.943	159.91
687.133	182.44
687.323	149.67
687.513	209.06
687.702	211.11
687.892	145.58
688.082	264.36
688.272	301.22
688.461	184.49
688.651	325.8
688.841	303.27
689.03	178.34
689.22	168.1
689.41	207.02
689.599	139.43
689.789	114.86
689.979	290.98
690.168	186.54
690.358	237.74
690.547	182.44
690.737	284.84
690.926	223.4
691.116	227.5
691.305	239.78
691.495	313.51
691.684	116.9
691.874	178.34
692.063	219.3
692.252	323.75
692.442	161.96
692.631	145.58
692.82	133.29
693.01	215.21
693.199	168.1
693.388	260.26
693.578	211.11
693.767	217.26
693.956	202.92
694.146	118.95
694.335	221.35
694.524	207.02
694.713	247.97
694.902	188.58
695.092	170.15
695.281	274.6
695.47	231.59
695.659	184.49
695.848	182.44
696.037	161.96
696.226	270.5
696.415	211.11
696.604	356.52
696.793	223.4
696.982	143.53
697.171	276.65
697.36	61.61
697.549	168.1
697.738	59.56
697.927	153.77
698.116	215.21
698.305	266.41
698.494	227.5
698.683	129.19
698.872	336.04
699.061	182.44
699.25	184.49
699.438	196.78
699.627	161.96
699.816	254.12
700.005	100.52
700.193	190.63
700.382	241.83
700.571	221.35
700.76	282.79
700.948	213.16
701.137	196.78
701.326	336.04
701.514	65.71
701.703	225.45
701.892	301.22
702.08	360.61
702.269	256.17
702.457	88.23
702.646	168.1
702.834	71.85
703.023	327.85
703.212	235.69
703.4	147.62
703.589	178.34
703.777	112.81
703.965	182.44
704.154	186.54
704.342	137.38
704.531	178.34
704.719	198.82
704.907	233.64
705.096	112.81
705.284	178.34
705.472	223.4
705.661	221.35
705.849	237.74
706.037	170.15
706.226	217.26
706.414	233.64
706.602	106.67
706.79	225.45
706.979	164.01
707.167	213.16
707.355	102.57
707.543	194.73
707.731	243.88
707.919	174.25
708.107	184.49
708.296	188.58
708.484	73.9
708.672	164.01
708.86	278.69
709.048	215.21
709.236	159.91
709.424	215.21
709.612	180.39
709.8	82.09
709.988	116.9
710.176	186.54
710.364	231.59
710.551	196.78
710.739	164.01
710.927	170.15
711.115	211.11
711.303	286.89
711.491	241.83
711.679	26.79
711.866	202.92
712.054	151.72
712.242	137.38
712.43	207.02
712.617	239.78
712.805	282.79
712.993	198.82
713.181	106.67
713.368	245.93
713.556	202.92
713.744	153.77
713.931	319.65
714.119	268.45
714.306	221.35
714.494	217.26
714.682	147.62
714.869	131.24
715.057	184.49
715.244	45.23
715.432	252.07
715.619	176.3
715.807	88.23
715.994	237.74
716.182	182.44
716.369	323.75
716.556	239.78
716.744	110.76
716.931	143.53
717.119	211.11
717.306	170.15
717.493	188.58
717.681	231.59
717.868	174.25
718.055	229.54
718.242	164.01
718.43	301.22
718.617	233.64
718.804	129.19
718.991	327.85
719.179	235.69
719.366	268.45
719.553	202.92
719.74	145.58
719.927	151.72
720.114	196.78
720.301	190.63
720.488	135.34
720.676	192.68
720.863	272.55
721.05	323.75
721.237	262.31
721.424	178.34
721.611	221.35
721.798	159.91
721.985	256.17
722.172	211.11
722.358	198.82
722.545	327.85
722.732	221.35
722.919	297.13
723.106	200.87
723.293	204.97
723.48	233.64
723.667	215.21
723.853	282.79
724.04	194.73
724.227	329.89
724.414	260.26
724.6	211.11
724.787	293.03
724.974	383.14
725.161	241.83
725.347	153.77
725.534	243.88
725.72	213.16
725.907	237.74
726.094	303.27
726.28	127.14
726.467	174.25
726.653	182.44
726.84	356.52
727.027	346.28
727.213	278.69
727.4	262.31
727.586	190.63
727.773	194.73
727.959	258.21
728.145	215.21
728.332	288.93
728.518	143.53
728.705	245.93
728.891	69.8
729.077	174.25
729.264	121
729.45	172.2
729.636	256.17
729.823	202.92
730.009	340.13
730.195	340.13
730.382	305.32
730.568	182.44
730.754	202.92
730.94	200.87
731.126	295.08
731.313	190.63
731.499	223.4
731.685	311.46
731.871	317.61
732.057	245.93
732.243	311.46
732.429	247.97
732.615	377
732.801	286.89
732.987	221.35
733.173	174.25
733.359	196.78
733.545	235.69
733.731	247.97
733.917	301.22
734.103	340.13
734.289	293.03
734.475	164.01
734.661	420
734.847	260.26
735.033	182.44
735.219	319.65
735.404	254.12
735.59	258.21
735.776	252.07
735.962	274.6
736.148	229.54
736.333	338.09
736.519	182.44
736.705	268.45
736.89	258.21
737.076	270.5
737.262	186.54
737.447	172.2
737.633	151.72
737.819	331.94
738.004	213.16
738.19	225.45
738.375	280.74
738.561	288.93
738.747	260.26
738.932	207.02
739.118	356.52
739.303	286.89
739.489	301.22
739.674	252.07
739.859	149.67
740.045	213.16
740.23	295.08
740.416	94.38
740.601	188.58
740.786	280.74
740.972	221.35
741.157	211.11
741.342	223.4
741.528	102.57
741.713	260.26
741.898	274.6
742.084	229.54
742.269	213.16
742.454	241.83
742.639	241.83
742.824	227.5
743.01	377
743.195	333.99
743.38	213.16
743.565	254.12
743.75	243.88
743.935	299.17
744.12	250.02
744.305	229.54
744.49	209.06
744.675	237.74
744.86	170.15
745.045	264.36
745.23	256.17
745.415	243.88
745.6	293.03
745.785	231.59
745.97	260.26
746.155	315.56
746.34	323.75
746.525	245.93
746.71	397.48
746.895	194.73
747.079	102.57
747.264	204.97
747.449	284.84
747.634	229.54
747.819	274.6
748.003	309.41
748.188	102.57
748.373	313.51
748.557	270.5
748.742	182.44
748.927	223.4
749.111	155.82
749.296	143.53
749.481	223.4
749.665	207.02
749.85	221.35
750.034	221.35
750.219	207.02
750.404	196.78
750.588	237.74
750.773	133.29
750.957	202.92
751.141	219.3
751.326	307.37
751.51	147.62
751.695	194.73
751.879	151.72
752.064	211.11
752.248	223.4
752.432	327.85
752.617	233.64
752.801	190.63
752.985	164.01
753.17	303.27
753.354	186.54
753.538	202.92
753.722	147.62
753.907	92.33
754.091	118.95
754.275	299.17
754.459	59.56
754.643	174.25
754.828	295.08
755.012	215.21
755.196	90.28
755.38	200.87
755.564	141.48
755.748	172.2
755.932	293.03
756.116	188.58
756.3	202.92
756.484	225.45
756.668	262.31
756.852	47.27
757.036	168.1
757.22	166.06
757.404	176.3
757.588	164.01
757.772	137.38
757.956	123.05
758.14	331.94
758.323	108.71
758.507	176.3
758.691	153.77
758.875	213.16
759.059	190.63
759.242	108.71
759.426	98.47
759.61	131.24
759.794	125.1
759.977	247.97
760.161	358.57
760.345	284.84
760.528	200.87
760.712	84.14
760.895	174.25
761.079	137.38
761.263	131.24
761.446	92.33
761.63	104.62
761.813	217.26
761.997	100.52
762.18	141.48
762.364	96.43
762.547	71.85
762.731	198.82
762.914	149.67
763.098	129.19
763.281	14.51
763.464	151.72
763.648	139.43
763.831	129.19
764.015	86.19
764.198	170.15
764.381	157.86
764.564	202.92
764.748	102.57
764.931	94.38
765.114	141.48
765.297	143.53
765.481	6.31
765.664	166.06
765.847	135.34
766.03	141.48
766.213	16.55
766.397	86.19
766.58	110.76
766.763	182.44
766.946	116.9
767.129	73.9
767.312	153.77
767.495	166.06
767.678	80.04
767.861	164.01
768.044	145.58
768.227	147.62
768.41	135.34
768.593	123.05
768.776	135.34
768.959	84.14
769.142	247.97
769.324	63.66
769.507	69.8
769.69	41.13
769.873	118.95
770.056	258.21
770.239	116.9
770.421	184.49
770.604	104.62
770.787	121
770.97	147.62
771.152	41.13
771.335	204.97
771.518	0.17
771.7	84.14
771.883	217.26
772.066	26.79
772.248	121
772.431	213.16
772.613	155.82
772.796	53.42
772.978	84.14
773.161	190.63
773.343	57.51
773.526	69.8
773.708	2.22
773.891	49.32
774.073	123.05
774.256	61.61
774.438	204.97
774.621	34.99
774.803	69.8
774.985	73.9
775.168	67.75
775.35	92.33
775.532	258.21
775.715	55.47
775.897	104.62
776.079	125.1
776.261	102.57
776.444	71.85
776.626	127.14
776.808	-3.93
776.99	-8.02
777.173	63.66
777.355	151.72
777.537	67.75
777.719	121
777.901	41.13
778.083	71.85
778.265	-1.88
778.447	180.39
778.629	39.08
778.811	143.53
778.993	161.96
779.175	202.92
779.357	41.13
779.539	-48.98
779.721	90.28
779.903	149.67
780.085	55.47
780.267	104.62
780.449	63.66
780.631	129.19
780.812	147.62
780.994	71.85
781.176	121
781.358	88.23
781.54	96.43
781.721	110.76
781.903	88.23
782.085	10.41
782.267	200.87
782.448	47.27
782.63	84.14
782.812	92.33
782.993	143.53
783.175	121
783.357	84.14
783.538	80.04
783.72	-30.55
783.901	18.6
784.083	114.86
784.264	102.57
784.446	-38.74
784.627	43.18
784.809	164.01
784.99	-26.45
785.172	141.48
785.353	100.52
785.535	110.76
785.716	118.95
785.897	-16.21
786.079	49.32
786.26	73.9
786.441	116.9
786.623	26.79
786.804	-1.88
786.985	94.38
787.167	82.09
787.348	65.71
787.529	94.38
787.71	237.74
787.891	84.14
788.073	39.08
788.254	-20.31
788.435	188.58
788.616	77.99
788.797	-48.98
788.978	-38.74
789.159	53.42
789.34	75.95
789.522	34.99
789.703	100.52
789.884	127.14
790.065	80.04
790.246	256.17
790.427	51.37
790.607	112.81
790.788	65.71
790.969	-18.26
791.15	131.24
791.331	143.53
791.512	-5.97
791.693	-44.88
791.874	75.95
792.054	151.72
792.235	147.62
792.416	-28.5
792.597	77.99
792.778	108.71
792.958	80.04
793.139	18.6
793.32	123.05
793.5	45.23
793.681	207.02
793.862	98.47
794.042	32.94
794.223	-53.08
794.404	43.18
794.584	-30.55
794.765	102.57
794.945	2.22
795.126	71.85
795.306	114.86
795.487	4.27
795.667	18.6
795.848	90.28
796.028	24.75
796.209	28.84
796.389	106.67
796.57	88.23
796.75	-22.36
796.93	-28.5
797.111	30.89
797.291	34.99
797.471	116.9
797.652	32.94
797.832	-46.93
798.012	145.58
798.192	53.42
798.373	-91.99
798.553	16.55
798.733	139.43
798.913	22.7
799.093	12.46
799.274	51.37
799.454	112.81
799.634	88.23
799.814	80.04
799.994	77.99
800.174	102.57
800.354	98.47
800.534	-46.93
800.714	125.1
800.894	-18.26
801.074	-57.17
801.254	53.42
801.434	86.19
801.614	-22.36
801.794	14.51
801.974	1929.36
802.154	-22.36
802.334	209.06
802.514	-1.88
802.693	73.9
802.873	43.18
803.053	129.19
803.233	127.14
803.413	51.37
803.592	8.36
803.772	18.6
803.952	61.61
804.131	-16.21
804.311	14.51
804.491	170.15
804.67	-42.84
804.85	-63.32
805.03	98.47
805.209	116.9
805.389	8.36
805.568	26.79
805.748	-40.79
805.928	10.41
806.107	110.76
806.287	51.37
806.466	90.28
806.646	71.85
806.825	43.18
807.004	-10.07
807.184	104.62
807.363	77.99
807.543	116.9
807.722	4.27
807.901	131.24
808.081	6.31
808.26	-89.94
808.439	26.79
808.619	14.51
808.798	30.89
808.977	61.61
809.156	157.86
809.336	80.04
809.515	51.37
809.694	-46.93
809.873	34.99
810.052	26.79
810.231	161.96
810.411	71.85
810.59	155.82
810.769	106.67
810.948	51.37
811.127	-38.74
811.306	-24.4
811.485	88.23
811.664	123.05
811.843	71.85
812.022	10.41
812.201	-1.88
812.38	-20.31
812.559	-48.98
812.737	88.23
812.916	-28.5
813.095	10.41
813.274	139.43
813.453	80.04
813.632	37.03
813.811	47.27
813.989	-22.36
814.168	-59.22
814.347	-18.26
814.526	92.33
814.704	123.05
814.883	127.14
815.062	-30.55
815.24	106.67
815.419	-1.88
815.598	86.19
815.776	-65.36
815.955	53.42
816.133	-12.12
816.312	51.37
816.49	30.89
816.669	39.08
816.847	4.27
817.026	28.84
817.204	-5.97
817.383	-26.45
817.561	34.99
817.74	127.14
817.918	49.32
818.097	-38.74
818.275	37.03
818.453	65.71
818.632	80.04
818.81	-42.84
818.988	-40.79
819.167	-24.4
819.345	94.38
819.523	-87.89
819.701	-28.5
819.879	108.71
820.058	92.33
820.236	67.75
820.414	108.71
820.592	-40.79
820.77	28.84
820.948	104.62
821.127	34.99
821.305	39.08
821.483	37.03
821.661	88.23
821.839	59.56
822.017	-18.26
822.195	20.65
822.373	114.86
822.551	53.42
822.729	100.52
822.907	-1.88
823.085	141.48
823.262	67.75
823.44	-114.52
823.618	73.9
823.796	8.36
823.974	4.27
824.152	-10.07
824.329	65.71
824.507	41.13
824.685	82.09
824.863	-10.07
825.04	59.56
825.218	102.57
825.396	88.23
825.574	-3.93
825.751	49.32
825.929	28.84
826.107	-22.36
826.284	10.41
826.462	30.89
826.639	-51.03
826.817	-12.12
826.994	53.42
827.172	-73.56
827.349	114.86
827.527	39.08
827.704	-12.12
827.882	108.71
828.059	-14.17
828.237	-8.02
828.414	59.56
828.591	-69.46
828.769	77.99
828.946	18.6
829.124	106.67
829.301	49.32
829.478	32.94
829.655	43.18
829.833	43.18
830.01	-8.02
830.187	45.23
830.364	49.32
830.542	-5.97
830.719	143.53
830.896	77.99
831.073	39.08
831.25	84.14
831.427	69.8
831.604	49.32
831.782	-30.55
831.959	121
832.136	41.13
832.313	49.32
832.49	47.27
832.667	86.19
832.844	-20.31
833.021	63.66
833.198	131.24
833.374	73.9
833.551	80.04
833.728	55.47
833.905	84.14
834.082	-40.79
834.259	39.08
834.436	182.44
834.612	-22.36
834.789	104.62
834.966	14.51
835.143	-20.31
835.319	-83.8
835.496	82.09
835.673	61.61
835.85	118.95
836.026	34.99
836.203	90.28
836.38	-44.88
836.556	-79.7
836.733	-10.07
836.909	114.86
837.086	84.14
837.262	-22.36
837.439	4.27
837.616	26.79
837.792	22.7
837.968	116.9
838.145	-59.22
838.321	-12.12
838.498	67.75
838.674	166.06
838.851	114.86
839.027	-73.56
839.203	-14.17
839.38	28.84
839.556	-22.36
839.732	221.35
839.909	-42.84
840.085	84.14
840.261	-3.93
840.437	43.18
840.614	-38.74
840.79	108.71
840.966	61.61
841.142	80.04
841.318	26.79
841.494	20.65
841.671	123.05
841.847	-73.56
842.023	-26.45
842.199	96.43
842.375	96.43
842.551	-32.6
842.727	22.7
842.903	139.43
843.079	-75.6
843.255	75.95
843.431	108.71
843.607	133.29
843.783	-116.56
843.959	14.51
844.134	55.47
844.31	161.96
844.486	37.03
844.662	-28.5
844.838	67.75
845.013	14.51
845.189	164.01
845.365	55.47
845.541	30.89
845.716	51.37
845.892	125.1
846.068	-40.79
846.244	-67.41
846.419	145.58
846.595	22.7
846.77	-32.6
846.946	147.62
847.122	-8.02
847.297	61.61
847.473	133.29
847.648	-85.84
847.824	77.99
847.999	-94.04
848.175	30.89
848.35	45.23
848.526	92.33
848.701	141.48
848.876	186.54
849.052	86.19
849.227	-1.88
849.403	-5.97
849.578	0.17
849.753	12.46
849.929	104.62
850.104	-81.75
850.279	77.99
850.454	96.43
850.63	57.51
850.805	34.99
850.98	8.36
851.155	71.85
851.33	88.23
851.505	28.84
851.681	131.24
851.856	-42.84
852.031	123.05
852.206	45.23
852.381	6.31
852.556	80.04
852.731	129.19
852.906	84.14
853.081	53.42
853.256	125.1
853.431	-1.88
853.606	51.37
853.781	-12.12
853.956	-87.89
854.131	45.23
854.305	-32.6
854.48	-5.97
854.655	-55.12
854.83	-1.88
855.005	0.17
855.18	-24.4
855.354	18.6
855.529	63.66
855.704	-12.12
855.879	59.56
856.053	-16.21
856.228	18.6
856.403	0.17
856.577	147.62
856.752	-106.32
856.926	92.33
857.101	32.94
857.276	-94.04
857.45	61.61
857.625	49.32
857.799	84.14
857.974	14.51
858.148	-34.64
858.323	88.23
858.497	-46.93
858.672	4.27
858.846	-26.45
859.02	108.71
859.195	-55.12
859.369	10.41
859.543	0.17
859.718	84.14
859.892	53.42
860.066	86.19
860.241	8.36
860.415	37.03
860.589	14.51
860.763	-28.5
860.938	43.18
861.112	51.37
861.286	-36.69
861.46	61.61
861.634	-12.12
861.808	39.08
861.982	-120.66
862.157	-48.98
862.331	-3.93
862.505	-44.88
862.679	2.22
862.853	-51.03
863.027	-10.07
863.201	186.54
863.375	-5.97
863.549	73.9
863.722	8.36
863.896	153.77
864.07	-34.64
864.244	53.42
864.418	125.1
864.592	-14.17
864.766	125.1
864.939	55.47
865.113	-34.64
865.287	118.95
865.461	-96.08
865.634	28.84
865.808	-1.88
865.982	-28.5
866.156	8.36
866.329	-77.65
866.503	100.52
866.676	63.66
866.85	34.99
867.024	-8.02
867.197	73.9
867.371	45.23
867.544	80.04
867.718	-94.04
867.891	112.81
868.065	-34.64
868.238	-3.93
868.412	51.37
868.585	43.18
868.759	37.03
868.932	0.17
869.105	-18.26
869.279	94.38
869.452	-8.02
869.625	88.23
869.799	-79.7
869.972	53.42
870.145	59.56
870.319	55.47
870.492	-108.37
870.665	49.32
870.838	-24.4
871.011	-83.8
871.185	63.66
871.358	18.6
871.531	77.99
871.704	47.27
871.877	106.67
872.05	2.22
872.223	-63.32
872.396	127.14
872.569	139.43
872.742	-116.56
872.915	164.01
873.088	37.03
873.261	-22.36
873.434	121
873.607	24.75
873.78	94.38
873.953	-126.8
874.126	4.27
874.299	65.71
874.471	14.51
874.644	-40.79
874.817	4.27
874.99	166.06
875.163	-18.26
875.335	-8.02
875.508	14.51
875.681	186.54
875.853	-18.26
876.026	-16.21
876.199	88.23
876.371	-63.32
876.544	24.75
876.717	71.85
876.889	-24.4
877.062	84.14
877.234	4.27
877.407	0.17
877.579	20.65
877.752	98.47
877.924	34.99
878.097	100.52
878.269	71.85
878.442	75.95
878.614	26.79
878.786	41.13
878.959	65.71
879.131	75.95
879.303	-81.75
879.476	32.94
879.648	49.32
879.82	-67.41
879.993	-22.36
880.165	-57.17
880.337	-55.12
880.509	63.66
880.681	-14.17
880.854	-36.69
881.026	24.75
881.198	247.97
881.37	37.03
881.542	69.8
881.714	2.22
881.886	-51.03
882.058	30.89
882.23	75.95
882.402	-10.07
882.574	114.86
882.746	135.34
882.918	127.14
883.09	131.24
883.262	-10.07
883.434	77.99
883.606	-59.22
883.778	43.18
883.95	141.48
884.122	-10.07
884.293	123.05
884.465	49.32
884.637	170.15
884.809	-32.6
884.98	67.75
885.152	39.08
885.324	53.42
885.496	-36.69
885.667	16.55
885.839	80.04
886.011	188.58
886.182	92.33
886.354	86.19
886.525	92.33
886.697	84.14
886.869	-55.12
887.04	-44.88
887.212	149.67
887.383	127.14
887.555	75.95
887.726	18.6
887.897	41.13
888.069	49.32
888.24	86.19
888.412	69.8
888.583	-18.26
888.754	-1.88
888.926	-32.6
889.097	-16.21
889.268	-18.26
889.44	57.51
889.611	-110.42
889.782	-38.74
889.953	0.17
890.125	118.95
890.296	-28.5
890.467	-34.64
890.638	24.75
890.809	-34.64
890.98	12.46
891.151	32.94
891.323	159.91
891.494	26.79
891.665	94.38
891.836	-8.02
892.007	-3.93
892.178	24.75
892.349	-12.12
892.52	-26.45
892.691	2.22
892.862	14.51
893.032	-110.42
893.203	112.81
893.374	-8.02
893.545	123.05
893.716	-59.22
893.887	147.62
894.057	4.27
894.228	4.27
894.399	-16.21
894.57	121
894.74	30.89
894.911	41.13
895.082	-1.88
895.253	-59.22
895.423	73.9
895.594	106.67
895.764	71.85
895.935	-91.99
896.106	77.99
896.276	-20.31
896.447	28.84
896.617	0.17
896.788	-34.64
896.958	-59.22
897.129	-61.27
897.299	-16.21
897.47	102.57
897.64	82.09
897.81	39.08
897.981	121
898.151	2.22
898.322	49.32
898.492	51.37
898.662	-59.22
898.832	4.27
899.003	0.17
899.173	102.57
899.343	-42.84
899.513	-57.17
