Data from USB4F104151__144__11-04-18-838.txt Node

Date: Wed Feb 26 11:04:18 EST 2025
User: louis
Spectrometer: USB4F10415
Trigger mode: 4
Integration Time (sec): 1.000000E-1
Scans to average: 1
Electric dark correction enabled: true
Nonlinearity correction enabled: false
Boxcar width: 0
XAxis mode: Wavelengths
Number of Pixels in Spectrum: 3648
>>>>>Begin Spectral Data<<<<<
178.204	-393.38
178.424	-393.38
178.644	-393.38
178.864	-422.05
179.084	-358.57
179.304	-18.6
179.524	-39.08
179.744	46.93
179.964	44.88
180.184	22.36
180.404	79.7
180.624	1.88
180.844	-22.7
181.064	-168.1
181.283	34.64
181.503	-0.17
181.723	18.26
181.943	-139.43
182.163	157.52
182.383	8.02
182.602	44.88
182.822	184.15
183.042	85.84
183.262	16.21
183.482	5.97
183.701	34.64
183.921	44.88
184.141	-51.37
184.361	22.36
184.58	98.13
184.8	106.32
185.02	8.02
185.239	89.94
185.459	55.12
185.679	145.24
185.898	-123.05
186.118	5.97
186.338	14.17
186.557	161.62
186.777	-106.67
186.997	36.69
187.216	48.98
187.436	132.95
187.655	34.64
187.875	61.27
188.095	69.46
188.314	157.52
188.534	122.71
188.753	-65.71
188.973	171.86
189.192	165.71
189.412	-53.42
189.631	-53.42
189.851	28.5
190.07	118.61
190.29	-41.13
190.509	-20.65
190.729	-8.36
190.948	153.43
191.168	261.97
191.387	98.13
191.607	1.88
191.826	61.27
192.045	14.17
192.265	-37.03
192.484	71.51
192.704	30.55
192.923	-10.41
193.142	231.25
193.362	225.11
193.581	157.52
193.8	10.07
194.02	87.89
194.239	16.21
194.458	18.26
194.678	-26.79
194.897	-12.46
195.116	24.4
195.335	-8.36
195.555	73.56
195.774	51.03
195.993	128.85
196.212	38.74
196.432	-18.6
196.651	38.74
196.87	40.79
197.089	251.73
197.308	30.55
197.528	-0.17
197.747	-77.99
197.966	108.37
198.185	130.9
198.404	-114.86
198.623	110.42
198.842	83.8
199.062	89.94
199.281	182.1
199.5	18.26
199.719	89.94
199.938	26.45
200.157	-28.84
200.376	36.69
200.595	104.28
200.814	42.84
201.033	59.22
201.252	139.09
201.471	83.8
201.69	96.08
201.909	112.47
202.128	139.09
202.347	100.18
202.566	48.98
202.785	-55.47
203.004	-16.55
203.223	343.89
203.442	34.64
203.661	-67.75
203.879	139.09
204.098	61.27
204.317	-77.99
204.536	61.27
204.755	61.27
204.974	36.69
205.193	61.27
205.411	128.85
205.63	126.8
205.849	22.36
206.068	-2.22
206.287	-8.36
206.505	67.41
206.724	106.32
206.943	-67.75
207.162	-55.47
207.381	55.12
207.599	75.6
207.818	46.93
208.037	-22.7
208.255	83.8
208.474	81.75
208.693	44.88
208.911	42.84
209.13	42.84
209.349	110.42
209.567	51.03
209.786	30.55
210.005	55.12
210.223	77.65
210.442	-2.22
210.661	-12.46
210.879	14.17
211.098	75.6
211.316	57.17
211.535	75.6
211.753	26.45
211.972	57.17
212.191	-22.7
212.409	42.84
212.628	48.98
212.846	-4.27
213.065	91.99
213.283	126.8
213.502	83.8
213.72	59.22
213.938	26.45
214.157	46.93
214.375	167.76
214.594	96.08
214.812	81.75
215.031	3.93
215.249	87.89
215.467	87.89
215.686	46.93
215.904	-20.65
216.122	-20.65
216.341	110.42
216.559	-24.75
216.778	128.85
216.996	116.56
217.214	14.17
217.432	-0.17
217.651	-8.36
217.869	44.88
218.087	48.98
218.306	-47.27
218.524	34.64
218.742	-6.31
218.96	42.84
219.179	38.74
219.397	-0.17
219.615	272.21
219.833	163.67
220.051	8.02
220.27	141.14
220.488	98.13
220.706	79.7
220.924	-22.7
221.142	-22.7
221.36	55.12
221.578	30.55
221.796	-8.36
222.015	18.26
222.233	3.93
222.451	96.08
222.669	14.17
222.887	75.6
223.105	-51.37
223.323	3.93
223.541	-73.9
223.759	22.36
223.977	75.6
224.195	147.28
224.413	46.93
224.631	32.6
224.849	89.94
225.067	157.52
225.285	-10.41
225.503	-37.03
225.721	-86.19
225.939	12.12
226.157	32.6
226.375	221.01
226.592	-51.37
226.81	44.88
227.028	81.75
227.246	155.47
227.464	48.98
227.682	38.74
227.9	73.56
228.117	77.65
228.335	169.81
228.553	18.26
228.771	-12.46
228.989	63.32
229.206	57.17
229.424	10.07
229.642	55.12
229.86	-51.37
230.077	130.9
230.295	30.55
230.513	147.28
230.731	44.88
230.948	180.05
231.166	186.19
231.384	79.7
231.601	38.74
231.819	147.28
232.037	22.36
232.254	-37.03
232.472	-14.51
232.689	8.02
232.907	85.84
233.125	22.36
233.342	3.93
233.56	-75.95
233.777	-80.04
233.995	116.56
234.213	83.8
234.43	112.47
234.648	46.93
234.865	30.55
235.083	163.67
235.3	38.74
235.518	40.79
235.735	182.1
235.953	42.84
236.17	44.88
236.388	24.4
236.605	-71.85
236.822	63.32
237.04	65.36
237.257	59.22
237.475	36.69
237.692	73.56
237.909	91.99
238.127	-41.13
238.344	102.23
238.562	-14.51
238.779	-53.42
238.996	-47.27
239.214	85.84
239.431	175.95
239.648	-26.79
239.865	110.42
240.083	51.03
240.3	18.26
240.517	10.07
240.735	51.03
240.952	120.66
241.169	73.56
241.386	122.71
241.603	55.12
241.821	-123.05
242.038	53.08
242.255	110.42
242.472	-2.22
242.689	61.27
242.907	104.28
243.124	8.02
243.341	-16.55
243.558	-8.36
243.775	-57.51
243.992	-24.75
244.209	65.36
244.426	188.24
244.643	141.14
244.86	65.36
245.078	85.84
245.295	104.28
245.512	55.12
245.729	14.17
245.946	46.93
246.163	75.6
246.38	44.88
246.597	42.84
246.814	53.08
247.031	36.69
247.248	67.41
247.464	34.64
247.681	73.56
247.898	26.45
248.115	32.6
248.332	8.02
248.549	116.56
248.766	210.77
248.983	69.46
249.2	120.66
249.417	159.57
249.633	-73.9
249.85	89.94
250.067	83.8
250.284	48.98
250.501	94.04
250.717	155.47
250.934	-30.89
251.151	26.45
251.368	16.21
251.585	51.03
251.801	81.75
252.018	-96.43
252.235	116.56
252.451	-16.55
252.668	3.93
252.885	77.65
253.102	36.69
253.318	57.17
253.535	-30.89
253.752	-34.99
253.968	48.98
254.185	-20.65
254.401	12.12
254.618	157.52
254.835	-67.75
255.051	75.6
255.268	57.17
255.484	67.41
255.701	40.79
255.917	48.98
256.134	-14.51
256.351	12.12
256.567	1.88
256.784	38.74
257	-57.51
257.217	116.56
257.433	104.28
257.65	69.46
257.866	108.37
258.082	-14.51
258.299	-8.36
258.515	32.6
258.732	-12.46
258.948	-18.6
259.165	53.08
259.381	-77.99
259.597	10.07
259.814	-26.79
260.03	-2.22
260.246	22.36
260.463	145.24
260.679	145.24
260.895	89.94
261.112	30.55
261.328	-2.22
261.544	24.4
261.761	161.62
261.977	16.21
262.193	-98.47
262.409	79.7
262.626	34.64
262.842	-49.32
263.058	-71.85
263.274	59.22
263.49	44.88
263.707	51.03
263.923	85.84
264.139	-18.6
264.355	-4.27
264.571	81.75
264.787	38.74
265.004	171.86
265.22	67.41
265.436	-24.75
265.652	26.45
265.868	3.93
266.084	-39.08
266.3	28.5
266.516	-28.84
266.732	63.32
266.948	-8.36
267.164	-28.84
267.38	130.9
267.596	141.14
267.812	89.94
268.028	16.21
268.244	-30.89
268.46	42.84
268.676	24.4
268.892	85.84
269.108	-65.71
269.324	48.98
269.54	-57.51
269.756	28.5
269.972	-57.51
270.188	-26.79
270.403	-47.27
270.619	65.36
270.835	14.17
271.051	16.21
271.267	1.88
271.483	3.93
271.698	94.04
271.914	61.27
272.13	-14.51
272.346	69.46
272.562	38.74
272.777	190.29
272.993	22.36
273.209	-16.55
273.425	85.84
273.64	-84.14
273.856	53.08
274.072	51.03
274.287	-14.51
274.503	112.47
274.719	40.79
274.934	-20.65
275.15	-77.99
275.366	20.31
275.581	-2.22
275.797	63.32
276.012	75.6
276.228	48.98
276.444	1.88
276.659	94.04
276.875	-20.65
277.09	-39.08
277.306	3.93
277.521	55.12
277.737	137.04
277.952	151.38
278.168	48.98
278.383	75.6
278.599	85.84
278.814	141.14
279.03	-2.22
279.245	139.09
279.461	55.12
279.676	55.12
279.892	-0.17
280.107	-32.94
280.322	-73.9
280.538	94.04
280.753	-55.47
280.969	102.23
281.184	-69.8
281.399	122.71
281.615	24.4
281.83	126.8
282.045	-41.13
282.26	-45.23
282.476	67.41
282.691	77.65
282.906	112.47
283.122	14.17
283.337	42.84
283.552	30.55
283.767	-12.46
283.983	106.32
284.198	44.88
284.413	16.21
284.628	-112.81
284.843	61.27
285.058	53.08
285.274	44.88
285.489	-73.9
285.704	85.84
285.919	18.26
286.134	-30.89
286.349	28.5
286.564	-0.17
286.779	71.51
286.995	18.26
287.21	-84.14
287.425	42.84
287.64	-30.89
287.855	55.12
288.07	-88.23
288.285	135
288.5	167.76
288.715	141.14
288.93	26.45
289.145	-73.9
289.36	120.66
289.575	-32.94
289.79	87.89
290.004	3.93
290.219	106.32
290.434	-57.51
290.649	20.31
290.864	-41.13
291.079	-6.31
291.294	137.04
291.509	112.47
291.724	-30.89
291.938	-4.27
292.153	-2.22
292.368	34.64
292.583	22.36
292.798	145.24
293.012	61.27
293.227	46.93
293.442	-41.13
293.657	65.36
293.871	91.99
294.086	87.89
294.301	157.52
294.516	-0.17
294.73	18.26
294.945	-28.84
295.16	24.4
295.374	153.43
295.589	153.43
295.804	24.4
296.018	100.18
296.233	147.28
296.447	20.31
296.662	-8.36
296.877	104.28
297.091	108.37
297.306	38.74
297.52	24.4
297.735	112.47
297.949	85.84
298.164	69.46
298.378	83.8
298.593	85.84
298.807	-14.51
299.022	32.6
299.236	108.37
299.451	-112.81
299.665	44.88
299.88	-10.41
300.094	104.28
300.309	-22.7
300.523	77.65
300.737	22.36
300.952	106.32
301.166	61.27
301.381	-45.23
301.595	36.69
301.809	32.6
302.024	5.97
302.238	5.97
302.452	155.47
302.667	14.17
302.881	192.34
303.095	108.37
303.309	65.36
303.524	-2.22
303.738	59.22
303.952	34.64
304.166	34.64
304.381	-69.8
304.595	137.04
304.809	-24.75
305.023	-4.27
305.237	48.98
305.452	5.97
305.666	73.56
305.88	83.8
306.094	77.65
306.308	110.42
306.522	128.85
306.736	69.46
306.95	116.56
307.164	26.45
307.379	5.97
307.593	130.9
307.807	135
308.021	67.41
308.235	100.18
308.449	-2.22
308.663	73.56
308.877	212.82
309.091	5.97
309.305	38.74
309.519	-92.33
309.733	126.8
309.947	-88.23
310.161	91.99
310.374	59.22
310.588	110.42
310.802	-20.65
311.016	30.55
311.23	120.66
311.444	28.5
311.658	75.6
311.872	126.8
312.085	143.19
312.299	132.95
312.513	151.38
312.727	1.88
312.941	-8.36
313.154	102.23
313.368	69.46
313.582	16.21
313.796	94.04
314.009	46.93
314.223	132.95
314.437	61.27
314.651	112.47
314.864	36.69
315.078	-16.55
315.292	-53.42
315.505	-16.55
315.719	-8.36
315.933	55.12
316.146	8.02
316.36	-73.9
316.573	116.56
316.787	79.7
317.001	63.32
317.214	-90.28
317.428	-2.22
317.641	-22.7
317.855	59.22
318.068	40.79
318.282	61.27
318.495	202.58
318.709	65.36
318.922	42.84
319.136	161.62
319.349	120.66
319.563	-34.99
319.776	57.17
319.99	36.69
320.203	120.66
320.417	18.26
320.63	114.52
320.843	218.96
321.057	104.28
321.27	24.4
321.483	38.74
321.697	114.52
321.91	46.93
322.124	100.18
322.337	69.46
322.55	-57.51
322.763	38.74
322.977	-51.37
323.19	-4.27
323.403	-12.46
323.617	114.52
323.83	112.47
324.043	-0.17
324.256	-0.17
324.469	-20.65
324.683	44.88
324.896	-14.51
325.109	81.75
325.322	-114.86
325.535	65.36
325.748	75.6
325.962	116.56
326.175	-20.65
326.388	48.98
326.601	65.36
326.814	-12.46
327.027	91.99
327.24	145.24
327.453	-149.67
327.666	69.46
327.879	75.6
328.092	108.37
328.305	112.47
328.518	-34.99
328.731	-2.22
328.944	24.4
329.157	94.04
329.37	-61.61
329.583	116.56
329.796	137.04
330.009	-61.61
330.222	137.04
330.435	104.28
330.648	65.36
330.861	46.93
331.073	24.4
331.286	77.65
331.499	57.17
331.712	-57.51
331.925	-10.41
332.138	10.07
332.35	122.71
332.563	3.93
332.776	96.08
332.989	-16.55
333.202	59.22
333.414	16.21
333.627	-51.37
333.84	16.21
334.053	65.36
334.265	57.17
334.478	73.56
334.691	51.03
334.903	61.27
335.116	-37.03
335.329	-20.65
335.541	61.27
335.754	59.22
335.966	-49.32
336.179	71.51
336.392	46.93
336.604	46.93
336.817	157.52
337.029	10.07
337.242	12.12
337.454	110.42
337.667	59.22
337.88	208.72
338.092	110.42
338.305	69.46
338.517	22.36
338.729	116.56
338.942	114.52
339.154	-0.17
339.367	8.02
339.579	38.74
339.792	-6.31
340.004	122.71
340.217	1.88
340.429	112.47
340.641	16.21
340.854	-20.65
341.066	46.93
341.278	104.28
341.491	159.57
341.703	16.21
341.915	-90.28
342.128	18.26
342.34	46.93
342.552	-32.94
342.764	10.07
342.977	-2.22
343.189	108.37
343.401	1.88
343.613	-20.65
343.826	73.56
344.038	-51.37
344.25	104.28
344.462	26.45
344.674	8.02
344.886	-14.51
345.099	8.02
345.311	48.98
345.523	-24.75
345.735	-90.28
345.947	89.94
346.159	100.18
346.371	38.74
346.583	46.93
346.795	116.56
347.007	-2.22
347.219	77.65
347.431	108.37
347.643	71.51
347.855	22.36
348.067	110.42
348.279	-43.18
348.491	98.13
348.703	106.32
348.915	12.12
349.127	1.88
349.339	100.18
349.551	-28.84
349.763	77.65
349.975	18.26
350.187	83.8
350.399	149.33
350.61	102.23
350.822	-37.03
351.034	40.79
351.246	-4.27
351.458	71.51
351.669	110.42
351.881	46.93
352.093	87.89
352.305	42.84
352.517	89.94
352.728	98.13
352.94	106.32
353.152	48.98
353.363	-18.6
353.575	-18.6
353.787	175.95
353.999	30.55
354.21	167.76
354.422	26.45
354.633	22.36
354.845	79.7
355.057	32.6
355.268	53.08
355.48	118.61
355.692	16.21
355.903	-57.51
356.115	32.6
356.326	-16.55
356.538	206.67
356.749	89.94
356.961	147.28
357.172	-10.41
357.384	-55.47
357.595	194.39
357.807	10.07
358.018	61.27
358.23	5.97
358.441	81.75
358.653	77.65
358.864	48.98
359.075	24.4
359.287	132.95
359.498	130.9
359.709	89.94
359.921	96.08
360.132	-12.46
360.344	81.75
360.555	24.4
360.766	16.21
360.977	1.88
361.189	94.04
361.4	-32.94
361.611	153.43
361.823	57.17
362.034	-41.13
362.245	-90.28
362.456	-8.36
362.667	40.79
362.879	-80.04
363.09	30.55
363.301	40.79
363.512	55.12
363.723	-61.61
363.935	20.31
364.146	122.71
364.357	63.32
364.568	102.23
364.779	-98.47
364.99	169.81
365.201	5.97
365.412	69.46
365.623	-37.03
365.834	24.4
366.045	-22.7
366.256	79.7
366.467	69.46
366.678	79.7
366.889	69.46
367.1	22.36
367.311	73.56
367.522	-24.75
367.733	108.37
367.944	71.51
368.155	24.4
368.366	67.41
368.577	61.27
368.788	184.15
368.999	12.12
369.209	55.12
369.42	216.91
369.631	241.49
369.842	34.64
370.053	34.64
370.264	94.04
370.474	30.55
370.685	28.5
370.896	48.98
371.107	63.32
371.317	128.85
371.528	12.12
371.739	163.67
371.95	61.27
372.16	71.51
372.371	-18.6
372.582	36.69
372.792	75.6
373.003	100.18
373.214	18.26
373.424	30.55
373.635	-32.94
373.846	65.36
374.056	34.64
374.267	120.66
374.477	14.17
374.688	55.12
374.898	104.28
375.109	38.74
375.319	22.36
375.53	110.42
375.74	100.18
375.951	85.84
376.161	-0.17
376.372	116.56
376.582	-14.51
376.793	96.08
377.003	59.22
377.214	3.93
377.424	75.6
377.635	5.97
377.845	-20.65
378.055	124.76
378.266	-61.61
378.476	32.6
378.686	137.04
378.897	59.22
379.107	106.32
379.317	91.99
379.528	85.84
379.738	100.18
379.948	-43.18
380.158	81.75
380.369	61.27
380.579	87.89
380.789	51.03
380.999	42.84
381.21	114.52
381.42	155.47
381.63	40.79
381.84	87.89
382.05	85.84
382.261	85.84
382.471	89.94
382.681	-24.75
382.891	110.42
383.101	126.8
383.311	-63.66
383.521	24.4
383.731	110.42
383.941	42.84
384.151	81.75
384.361	24.4
384.571	59.22
384.781	55.12
384.991	145.24
385.201	214.87
385.411	48.98
385.621	96.08
385.831	46.93
386.041	3.93
386.251	63.32
386.461	141.14
386.671	20.31
386.881	65.36
387.091	30.55
387.301	128.85
387.511	94.04
387.72	32.6
387.93	81.75
388.14	-30.89
388.35	63.32
388.56	26.45
388.769	20.31
388.979	38.74
389.189	16.21
389.399	91.99
389.609	57.17
389.818	44.88
390.028	73.56
390.238	53.08
390.447	-32.94
390.657	124.76
390.867	-49.32
391.076	-41.13
391.286	130.9
391.496	12.12
391.705	-18.6
391.915	61.27
392.125	106.32
392.334	34.64
392.544	104.28
392.753	10.07
392.963	-22.7
393.172	-8.36
393.382	-65.71
393.591	208.72
393.801	51.03
394.01	83.8
394.22	67.41
394.429	69.46
394.639	30.55
394.848	112.47
395.058	67.41
395.267	-2.22
395.477	139.09
395.686	77.65
395.895	175.95
396.105	221.01
396.314	69.46
396.524	73.56
396.733	-6.31
396.942	94.04
397.152	42.84
397.361	96.08
397.57	94.04
397.78	63.32
397.989	118.61
398.198	208.72
398.407	-10.41
398.617	73.56
398.826	32.6
399.035	20.31
399.244	102.23
399.453	85.84
399.663	61.27
399.872	116.56
400.081	-16.55
400.29	229.2
400.499	32.6
400.708	34.64
400.917	-18.6
401.127	44.88
401.336	3.93
401.545	192.34
401.754	171.86
401.963	106.32
402.172	36.69
402.381	-86.19
402.59	12.12
402.799	75.6
403.008	149.33
403.217	102.23
403.426	132.95
403.635	-53.42
403.844	44.88
404.053	118.61
404.262	34.64
404.471	198.48
404.68	61.27
404.888	34.64
405.097	36.69
405.306	55.12
405.515	122.71
405.724	98.13
405.933	81.75
406.142	130.9
406.35	67.41
406.559	-8.36
406.768	106.32
406.977	153.43
407.185	157.52
407.394	40.79
407.603	3.93
407.812	-4.27
408.02	145.24
408.229	-8.36
408.438	73.56
408.646	-24.75
408.855	46.93
409.064	73.56
409.272	53.08
409.481	73.56
409.69	-20.65
409.898	-47.27
410.107	28.5
410.315	124.76
410.524	-6.31
410.733	53.08
410.941	118.61
411.15	153.43
411.358	116.56
411.567	104.28
411.775	141.14
411.984	53.08
412.192	81.75
412.401	-30.89
412.609	196.43
412.818	87.89
413.026	112.47
413.234	87.89
413.443	46.93
413.651	1.88
413.86	46.93
414.068	108.37
414.276	147.28
414.485	1.88
414.693	106.32
414.901	192.34
415.11	83.8
415.318	8.02
415.526	130.9
415.734	32.6
415.943	77.65
416.151	128.85
416.359	51.03
416.567	81.75
416.776	175.95
416.984	71.51
417.192	147.28
417.4	-53.42
417.608	71.51
417.817	61.27
418.025	77.65
418.233	77.65
418.441	65.36
418.649	-49.32
418.857	69.46
419.065	141.14
419.273	-18.6
419.481	81.75
419.689	32.6
419.897	22.36
420.105	-8.36
420.313	110.42
420.521	186.19
420.729	149.33
420.937	34.64
421.145	-80.04
421.353	128.85
421.561	108.37
421.769	69.46
421.977	18.26
422.185	143.19
422.393	24.4
422.601	83.8
422.809	108.37
423.017	51.03
423.224	96.08
423.432	14.17
423.64	16.21
423.848	102.23
424.056	34.64
424.263	85.84
424.471	75.6
424.679	100.18
424.887	5.97
425.094	102.23
425.302	149.33
425.51	53.08
425.718	175.95
425.925	28.5
426.133	75.6
426.341	245.59
426.548	34.64
426.756	102.23
426.964	71.51
427.171	5.97
427.379	94.04
427.586	98.13
427.794	102.23
428.001	182.1
428.209	61.27
428.417	153.43
428.624	169.81
428.832	77.65
429.039	112.47
429.247	124.76
429.454	184.15
429.662	161.62
429.869	143.19
430.076	159.57
430.284	190.29
430.491	241.49
430.699	139.09
430.906	231.25
431.114	188.24
431.321	157.52
431.528	73.56
431.736	153.43
431.943	147.28
432.15	135
432.358	190.29
432.565	239.44
432.772	63.32
432.979	208.72
433.187	139.09
433.394	243.54
433.601	169.81
433.808	194.39
434.016	321.36
434.223	188.24
434.43	261.97
434.637	261.97
434.844	216.91
435.052	204.63
435.259	317.26
435.466	331.6
435.673	243.54
435.88	370.51
436.087	388.94
436.294	378.7
436.501	372.56
436.708	315.22
436.915	360.27
437.122	436.05
437.329	286.54
437.537	350.03
437.743	407.38
437.95	491.34
438.157	327.5
438.364	474.96
438.571	477.01
438.778	450.38
438.985	563.02
439.192	595.79
439.399	474.96
439.606	446.29
439.813	538.45
440.02	720.71
440.227	683.85
440.433	581.45
440.64	681.8
440.847	608.08
441.054	689.99
441.261	778.06
441.467	661.32
441.674	700.23
441.881	806.73
442.088	800.59
442.294	778.06
442.501	831.3
442.708	923.46
442.914	855.88
443.121	962.37
443.328	968.52
443.534	1044.29
443.741	1083.2
443.948	993.09
444.154	1050.44
444.361	1320.77
444.568	1140.55
444.774	1218.37
444.981	1175.36
445.187	1357.63
445.394	1269.57
445.6	1312.58
445.807	1562.43
446.013	1544
446.22	1443.65
446.426	1681.21
446.633	1808.19
446.839	1812.28
447.046	1697.6
447.252	1828.67
447.459	1937.21
447.665	1922.87
447.871	2154.29
448.078	2318.13
448.284	2115.38
448.491	2320.18
448.697	2352.95
448.903	2514.73
449.11	2457.39
449.316	2615.09
449.522	2721.58
449.728	2955.05
449.935	3102.5
450.141	2912.04
450.347	3252
450.553	3098.41
450.76	3389.22
450.966	3528.48
451.172	3563.29
451.378	3766.04
451.584	3927.83
451.791	4116.25
451.997	4151.06
452.203	4200.21
452.409	4538.13
452.615	4638.48
452.821	4540.18
453.027	4456.21
453.233	5156.61
453.44	4984.59
453.646	5230.34
453.852	5531.39
454.058	5832.44
454.264	5863.16
454.47	6334.2
454.676	6264.57
454.882	6909.68
455.088	6498.03
455.294	6872.81
455.5	7345.89
455.705	7907.04
455.911	7790.3
456.117	7937.76
456.323	8365.78
456.529	8322.77
456.735	9025.23
456.941	9031.37
457.147	9623.23
457.352	10032.83
457.558	10305.21
457.764	10962.61
457.97	11085.48
458.176	11650.72
458.381	12254.87
458.587	12310.17
458.793	13051.53
458.999	12836.5
459.204	14382.71
459.41	15203.95
459.616	14933.62
459.821	15601.26
460.027	16508.51
460.233	17434.19
460.438	17370.7
460.644	18251.33
460.85	18306.62
461.055	19037.75
461.261	20258.34
461.466	19596.84
461.672	20274.72
461.878	22320.64
462.083	22070.79
462.289	22851.06
462.494	23250.42
462.7	23547.37
462.905	24165.86
463.111	26037.7
463.316	27264.44
463.522	27782.57
463.727	28833.18
463.932	29666.7
464.138	30627.2
464.343	31855.98
464.549	32081.26
464.754	34329.93
464.959	34997.57
465.165	35718.45
465.37	35624.25
465.575	35638.58
465.781	37717.27
465.986	39077.12
466.191	38534.41
466.397	38851.84
466.602	37997.84
466.807	40025.33
467.012	40617.19
467.218	41153.76
467.423	41415.9
467.628	42716.36
467.833	44278.96
468.038	43697.34
468.244	42988.74
468.449	44973.22
468.654	44225.71
468.859	44246.19
469.064	44407.98
469.269	43244.74
469.474	43709.63
469.679	44903.59
469.885	43922.62
470.09	43998.39
470.295	44113.08
470.5	42982.6
470.705	43240.64
470.91	42200.27
471.115	41712.86
471.32	42425.55
471.525	42347.73
471.73	41094.37
471.935	40555.75
472.139	39113.98
472.344	39251.2
472.549	39408.89
472.754	37999.89
472.959	37586.2
473.164	36144.43
473.369	35607.86
473.574	36547.88
473.778	35910.96
473.983	35081.53
474.188	34692.42
474.393	33054.04
474.598	32869.73
474.802	31909.23
475.007	31632.75
475.212	31483.25
475.417	30115.21
475.621	29605.27
475.826	29783.44
476.031	28624.29
476.235	28181.93
476.44	28159.4
476.645	27295.16
476.849	27205.05
477.054	26623.42
477.259	26305.99
477.463	25949.64
477.668	25515.47
477.872	25277.91
478.077	24401.38
478.282	23795.18
478.486	23909.86
478.691	23430.64
478.895	23340.53
479.1	23113.2
479.304	22820.35
479.509	22001.16
479.713	22689.28
479.918	22160.9
480.122	21302.8
480.326	21890.57
480.531	21566.99
480.735	21556.75
480.94	21147.15
481.144	22015.49
481.348	20387.36
481.553	20352.54
481.757	19832.36
481.961	20553.24
482.166	20643.35
482.37	19938.85
482.574	19584.55
482.778	19547.69
482.983	20135.46
483.187	19215.92
483.391	19418.67
483.595	19187.25
483.8	18882.1
484.004	18900.53
484.208	18708.02
484.412	18388.54
484.616	18251.33
484.821	18220.61
485.025	17350.22
485.229	17802.82
485.433	17450.57
485.637	17385.04
485.841	17032.79
486.045	17073.74
486.249	16981.59
486.453	16176.73
486.657	16197.21
486.861	15855.2
487.065	15167.09
487.269	15271.53
487.473	14947.95
487.677	15115.89
487.881	15058.54
488.085	14409.34
488.289	14077.57
488.493	13627.01
488.697	13758.08
488.901	13545.09
489.105	13258.38
489.309	13065.87
489.512	12738.19
489.716	12625.56
489.92	12226.2
490.124	12125.85
490.328	12015.26
490.531	11456.17
490.735	11585.19
490.939	11267.75
491.143	10995.37
491.346	10868.4
491.55	10792.62
491.754	10657.46
491.958	10305.21
492.161	10401.46
492.365	10032.83
492.569	9805.5
492.772	9639.62
492.976	9891.52
493.18	9447.11
493.383	9473.73
493.587	9197.26
493.79	9070.28
493.994	9017.04
494.197	8924.88
494.401	8881.87
494.605	8554.19
494.808	8758.99
495.012	8687.31
495.215	8603.35
495.419	8672.98
495.622	8236.76
495.825	8302.29
496.029	8023.77
496.232	8384.21
496.436	8025.82
496.639	8228.57
496.843	8163.03
497.046	8113.88
497.249	8406.74
497.453	8218.33
497.656	8224.47
497.859	8326.87
498.063	8197.85
498.266	8142.55
498.469	8146.65
498.673	8171.22
498.876	8156.89
499.079	8292.05
499.282	8308.44
499.485	8519.38
499.689	8658.64
499.892	8474.32
500.095	8333.01
500.298	8601.3
500.501	8449.75
500.705	8632.02
500.908	8855.25
501.111	8869.58
501.314	9021.13
501.517	9019.08
501.72	9078.47
501.923	8957.64
502.126	9197.26
502.329	9389.77
502.532	9449.16
502.735	9455.3
502.938	9778.88
503.141	9787.07
503.344	9696.96
503.547	9987.77
503.75	10137.27
503.953	10049.21
504.156	10350.26
504.359	10401.46
504.562	10428.09
504.765	10876.59
504.968	10798.77
505.17	11071.15
505.373	11171.5
505.576	11445.93
505.779	11523.75
505.982	11544.23
506.185	11962.01
506.387	12240.54
506.59	12175
506.793	12805.78
506.996	12713.62
507.198	13233.8
507.401	13694.6
507.604	13444.74
507.807	13997.7
508.009	13973.12
508.212	14452.34
508.415	14923.38
508.617	14892.66
508.82	15097.45
509.022	15148.65
509.225	15660.65
509.428	16064.1
509.63	16359
509.833	16539.22
510.035	17700.42
510.238	17370.7
510.44	18138.69
510.643	18468.41
510.845	18769.46
511.048	18806.33
511.25	19121.71
511.453	19818.02
511.655	20739.61
511.858	20694.55
512.06	21292.56
512.262	21550.6
512.465	22058.5
512.667	22799.87
512.87	22973.94
513.072	23487.98
513.274	24276.45
513.477	24755.68
513.679	24925.66
513.881	25920.97
514.084	26439.11
514.286	26852.8
514.488	27495.86
514.69	28620.19
514.893	28655.01
515.095	29224.34
515.297	30010.76
515.499	30494.08
515.701	31135.1
515.904	32513.38
516.106	32783.71
516.308	33426.78
516.51	33996.11
516.712	34415.94
516.914	35355.96
517.116	36361.51
517.318	36672.81
517.52	37123.36
517.722	37758.23
517.925	38522.12
518.127	39335.17
518.329	39961.84
518.531	40088.82
518.733	40977.64
518.935	41845.97
519.136	41823.45
519.338	43158.72
519.54	43515.07
519.742	44094.64
519.944	44756.14
520.146	46036.12
520.348	46236.82
520.55	46314.64
520.752	47588.48
520.954	47731.84
521.155	48331.89
521.357	49134.7
521.559	49568.86
521.761	50033.75
521.963	50682.96
522.164	50658.38
522.366	51127.37
522.568	51962.94
522.77	51811.39
522.971	52681.78
523.173	52622.39
523.375	53117.99
523.576	53406.76
523.778	53271.59
523.98	54250.52
524.181	54090.78
524.383	54287.38
524.584	54424.6
524.786	54723.6
524.988	54365.21
525.189	55331.85
525.391	55223.31
525.592	54971.41
525.794	55256.07
525.995	55010.32
526.197	54715.41
526.398	54912.02
526.6	55393.29
526.801	54830.1
527.003	54828.05
527.204	54101.02
527.406	54752.27
527.607	54162.46
527.808	53877.79
528.01	52999.21
528.211	53240.87
528.412	53373.99
528.614	52954.16
528.815	52683.83
529.016	52479.03
529.218	51438.66
529.419	51262.54
529.62	50584.66
529.822	50222.17
530.023	49894.49
530.224	49411.17
530.425	49030.25
530.626	48155.77
530.828	47391.87
531.029	47953.02
531.23	46685.32
531.431	46314.64
531.632	45921.43
531.833	45560.99
532.035	44913.83
532.236	44590.25
532.437	44215.47
532.638	43336.9
532.839	42902.73
533.04	42560.72
533.241	41989.33
533.442	42120.4
533.643	40875.24
533.844	40254.7
534.045	39838.97
534.246	38819.08
534.447	38528.27
534.648	38352.14
534.849	37424.41
535.05	36764.96
535.251	36381.99
535.451	36048.18
535.652	35888.43
535.853	35016
536.054	34721.09
536.255	34153.8
536.456	33504.6
536.657	33684.82
536.857	32566.63
537.058	32552.29
537.259	32359.78
537.46	31554.93
537.66	31040.89
537.861	31042.94
538.062	30135.69
538.263	30035.34
538.463	29560.21
538.664	29105.56
538.865	28767.65
539.065	28689.82
539.266	27823.53
539.466	28130.73
539.667	27094.46
539.868	27340.21
540.068	26721.73
540.269	26435.01
540.469	26144.2
540.67	25542.1
540.87	25556.43
541.071	25179.61
541.271	25032.15
541.472	24647.13
541.672	24202.72
541.873	24112.61
542.073	23580.14
542.274	23688.68
542.474	23348.72
542.675	22685.18
542.875	22496.77
543.075	22380.03
543.276	22050.31
543.476	22109.7
543.676	21603.85
543.877	21476.88
544.077	21243.41
544.277	20862.49
544.478	20545.05
544.678	20590.11
544.878	20495.9
545.078	20133.41
545.279	19809.83
545.479	19492.4
545.679	19547.69
545.879	19181.1
546.079	19052.08
546.28	18566.71
546.48	18155.07
546.68	18599.48
546.88	18298.43
547.08	17667.66
547.28	17559.11
547.48	17233.49
547.68	17280.59
547.88	16815.7
548.081	16881.24
548.281	16434.78
548.481	16365.15
548.681	16316
548.881	15918.69
549.081	15812.2
549.28	15623.78
549.48	15404.65
549.68	14990.96
549.88	14984.82
550.08	14390.91
550.28	14610.04
550.48	14161.53
550.68	13893.25
550.88	13864.58
551.08	13686.4
551.279	13690.5
551.479	13043.34
551.679	13371.02
551.879	12881.55
552.079	12766.87
552.278	12463.77
552.478	12457.62
552.678	12353.18
552.878	11968.16
553.077	11738.79
553.277	11450.02
553.477	11443.88
553.676	11105.96
553.876	11062.96
554.076	10915.5
554.275	10804.91
554.475	10383.03
554.674	10694.32
554.874	10202.81
555.074	10188.47
555.273	9967.29
555.473	9782.98
555.672	9436.87
555.872	9469.64
556.071	9133.77
556.271	9215.69
556.47	9101
556.67	8767.18
556.869	8791.76
557.068	8761.04
557.268	8347.35
557.467	8390.36
557.667	8146.65
557.866	8015.58
558.065	7775.97
558.265	7722.72
558.464	7720.67
558.663	7628.51
558.863	7278.31
559.062	7263.97
559.261	7044.84
559.461	7145.19
559.66	7057.13
559.859	6670.06
560.058	6571.76
560.258	6633.2
560.457	6434.55
560.656	6612.72
560.855	6203.13
561.054	6360.82
561.253	6047.48
561.453	5838.59
561.652	5940.99
561.851	5900.03
562.05	5695.23
562.249	5500.67
562.448	5662.46
562.647	5379.84
562.846	5355.27
563.045	5502.72
563.244	5164.81
563.443	5316.36
563.642	4906.76
563.841	5164.81
564.04	4837.13
564.239	4990.73
564.438	4816.65
564.637	4749.07
564.836	4785.93
565.035	4572.94
565.234	4597.52
565.432	4421.39
565.631	4232.98
565.83	4378.39
566.029	4189.97
566.228	4044.57
566.427	4159.25
566.625	4013.85
566.824	3841.82
567.023	3966.74
567.222	3866.39
567.42	3737.37
567.619	3903.26
567.818	3720.99
568.016	3718.94
568.215	3649.31
568.414	3622.69
568.612	3505.95
568.811	3395.36
569.01	3401.51
569.208	3393.31
569.407	3252
569.605	3219.24
569.804	3295.01
570.002	3176.23
570.201	3096.36
570.4	3092.26
570.598	3190.56
570.797	3010.34
570.995	2930.47
571.193	2889.51
571.392	2928.42
571.59	2705.2
571.789	2774.83
571.987	2809.64
572.186	2703.15
572.384	2658.09
572.582	2590.51
572.781	2707.24
572.979	2537.26
573.177	2621.23
573.376	2500.4
573.574	2531.12
573.772	2395.95
573.971	2422.58
574.169	2158.39
574.367	2328.37
574.565	2275.12
574.763	2234.16
574.962	2139.96
575.16	2111.29
575.358	2092.85
575.556	2084.66
575.754	2105.14
575.952	2047.8
576.151	2012.98
576.349	1969.98
576.547	1853.24
576.745	1824.57
576.943	1982.26
577.141	1695.55
577.339	1697.6
577.537	1767.23
577.735	1834.81
577.933	1650.49
578.131	1523.52
578.329	1724.22
578.527	1589.05
578.725	1740.6
578.923	1441.6
579.121	1623.87
579.319	1300.29
579.516	1417.02
579.714	1722.17
579.912	1505.09
580.11	1347.39
580.308	1425.22
580.506	1306.43
580.704	1279.81
580.901	1371.97
581.099	1414.98
581.297	1386.3
581.495	1261.38
581.692	1220.42
581.89	1371.97
582.088	1247.04
582.285	1292.1
582.483	1218.37
582.681	1232.71
582.878	1226.56
583.076	1130.31
583.274	1111.88
583.471	1244.99
583.669	1140.55
583.866	1085.25
584.064	1042.25
584.262	945.99
584.459	974.66
584.657	995.14
584.854	1025.86
585.052	966.47
585.249	1013.57
585.447	1017.67
585.644	827.21
585.841	1005.38
586.039	978.76
586.236	1081.16
586.434	874.31
586.631	905.03
586.828	821.06
587.026	905.03
587.223	759.63
587.42	821.06
587.618	952.13
587.815	925.51
588.012	804.68
588.21	733
588.407	841.54
588.604	843.59
588.801	757.58
588.999	763.72
589.196	896.84
589.393	751.43
589.59	780.11
589.787	759.63
589.984	773.96
590.182	778.06
590.379	626.51
590.576	737.1
590.773	763.72
590.97	714.57
591.167	761.67
591.364	730.95
591.561	718.67
591.758	798.54
591.955	784.2
592.152	722.76
592.349	730.95
592.546	671.56
592.743	667.47
592.94	698.19
593.137	806.73
593.334	806.73
593.531	761.67
593.727	773.96
593.924	837.45
594.121	646.99
594.318	692.04
594.515	825.16
594.712	825.16
594.908	816.97
595.105	661.32
595.302	890.7
595.499	747.34
595.696	958.28
595.892	763.72
596.089	950.09
596.286	718.67
596.482	915.27
596.679	909.13
596.876	819.02
597.072	989
597.269	978.76
597.466	986.95
597.662	1001.29
597.859	991.05
598.055	964.42
598.252	1179.46
598.448	1083.2
598.645	1210.18
598.841	1208.13
599.038	1333.06
599.234	1320.77
599.431	1429.31
599.627	1398.59
599.824	1572.67
600.02	1460.03
600.217	1480.51
600.413	1632.06
600.609	1613.63
600.806	1998.65
601.002	1802.04
601.198	1859.38
601.395	1945.4
601.591	2033.46
601.787	1996.6
601.984	2268.98
602.18	2250.55
602.376	2324.27
602.572	2447.15
602.769	2623.28
602.965	2488.11
603.161	2690.86
603.357	2821.93
603.553	2856.75
603.75	2971.43
603.946	3102.5
604.142	3090.21
604.338	3403.55
604.534	3284.77
604.73	3389.22
604.926	3555.1
605.122	3841.82
605.318	3847.96
605.514	3946.27
605.71	4013.85
605.906	4138.77
606.102	4220.69
606.298	4550.42
606.494	4574.99
606.69	4538.13
606.886	4943.63
607.082	4925.19
607.278	5105.42
607.474	5199.62
607.67	5353.22
607.866	5308.16
608.062	5762.81
608.257	5842.68
608.453	5897.98
608.649	6194.93
608.845	6127.35
609.041	6377.2
609.236	6639.34
609.432	6807.28
609.628	7087.85
609.824	7200.49
610.019	7362.28
610.215	7745.25
610.411	7702.24
610.606	7939.8
610.802	8052.44
610.998	8355.54
611.193	8429.27
611.389	8709.84
611.584	8896.21
611.78	9240.26
611.976	9561.8
612.171	9971.39
612.367	10100.41
612.562	10331.83
612.758	10483.38
612.953	10694.32
613.149	11155.12
613.344	11314.86
613.539	11822.75
613.735	12170.91
613.93	12420.76
614.126	12504.73
614.321	12938.9
614.517	13319.82
614.712	13596.29
614.907	14026.37
615.103	14417.53
615.298	14667.38
615.493	15070.83
615.688	15433.32
615.884	15959.65
616.079	15863.4
616.274	16715.35
616.47	17151.57
616.665	17233.49
616.86	17847.88
617.055	18406.97
617.25	18884.15
617.445	19449.39
617.641	19420.72
617.836	20080.16
618.031	20405.79
618.226	21161.49
618.421	21362.19
618.616	22144.52
618.811	22607.36
619.006	23158.26
619.201	23422.45
619.396	24268.26
619.591	24495.58
619.786	25343.44
619.981	25357.78
620.176	26396.1
620.371	26584.51
620.566	27221.43
620.761	28104.1
620.956	28794.27
621.151	29015.45
621.346	29912.46
621.541	29676.94
621.735	30711.17
621.93	30956.92
622.125	31593.84
622.32	31673.71
622.515	32675.17
622.709	33310.04
622.904	34284.87
623.099	34270.54
623.294	35462.46
623.488	35620.15
623.683	36396.33
623.878	36681
624.072	37612.82
624.267	38298.89
624.462	38536.46
624.656	38669.58
624.851	39634.17
625.046	40113.39
625.24	40652.01
625.435	41092.32
625.629	41622.75
625.824	42206.42
626.018	42568.91
626.213	43019.46
626.407	43871.42
626.602	43353.28
626.796	44471.47
626.991	44719.27
627.185	45356.19
627.38	45030.57
627.574	44911.78
627.768	45356.19
627.963	45841.56
628.157	45628.57
628.352	45993.11
628.546	45419.68
628.74	46154.9
628.935	45391.01
629.129	46091.41
629.323	45388.96
629.517	45044.9
629.712	44819.63
629.906	44354.74
630.1	43435.2
630.294	43578.56
630.489	42845.38
630.683	42712.27
630.877	40987.88
631.071	40711.4
631.265	40647.91
631.459	38966.53
631.653	37995.79
631.848	37342.49
632.042	36699.43
632.236	35722.55
632.43	34350.41
632.624	34055.5
632.818	32410.98
633.012	31520.12
633.206	30590.34
633.4	29627.79
633.594	28335.52
633.788	27241.91
633.982	26615.23
634.176	25982.41
634.369	24358.37
634.563	23913.96
634.757	22490.62
634.951	22277.63
635.145	21292.56
635.339	20270.62
635.533	19377.71
635.726	18681.4
635.92	17825.35
636.114	17290.83
636.308	16270.94
636.501	16037.47
636.695	15461.99
636.889	14212.73
637.083	13999.74
637.276	13538.95
637.47	12781.2
637.664	12170.91
637.857	11798.18
638.051	11402.92
638.244	10811.06
638.438	10417.85
638.632	10022.59
638.825	9436.87
639.019	9256.65
639.212	8812.24
639.406	8634.07
639.599	8267.48
639.793	7771.87
639.986	7464.68
640.18	7436
640.373	7016.17
640.567	6741.74
640.76	6526.71
640.954	6397.68
641.147	6045.43
641.34	5584.64
641.534	5611.26
641.727	5476.1
641.92	5234.44
642.114	5000.97
642.307	4675.34
642.5	4706.06
642.694	4323.09
642.887	4251.41
643.08	4167.45
643.273	3895.07
643.467	3743.52
643.66	3544.86
643.853	3331.87
644.046	3419.94
644.239	3239.72
644.432	3012.39
644.626	2907.94
644.819	2854.7
645.012	2709.29
645.205	2645.8
645.398	2490.16
645.591	2389.81
645.784	2340.66
645.977	2148.15
646.17	2182.96
646.363	2037.56
646.556	2047.8
646.749	1855.29
646.942	1859.38
647.135	1804.09
647.328	1802.04
647.521	1697.6
647.714	1642.3
647.907	1601.34
648.099	1412.93
648.292	1556.29
648.485	1378.11
648.678	1396.54
648.871	1146.69
649.064	1279.81
649.256	1009.48
649.449	1079.11
649.642	1040.2
649.835	989
650.027	984.9
650.22	978.76
650.413	931.66
650.605	993.09
650.798	800.59
650.991	855.88
651.183	823.11
651.376	921.42
651.568	851.78
651.761	663.37
651.954	702.28
652.146	577.36
652.339	792.39
652.531	786.25
652.724	646.99
652.916	546.64
653.109	390.99
653.301	618.32
653.494	579.4
653.686	540.49
653.879	726.86
654.071	560.97
654.263	438.09
654.456	460.62
654.648	591.69
654.84	497.49
655.033	438.09
655.225	575.31
655.417	356.18
655.61	495.44
655.802	444.24
655.994	462.67
656.186	292.69
656.379	456.53
656.571	384.85
656.763	366.42
656.955	362.32
657.148	290.64
657.34	429.9
657.532	421.71
657.724	352.08
657.916	294.74
658.108	370.51
658.3	264.02
658.492	300.88
658.684	173.91
658.876	386.9
659.068	235.35
659.26	231.25
659.452	239.44
659.644	270.16
659.836	378.7
660.028	266.07
660.22	221.01
660.412	188.24
660.604	194.39
660.796	300.88
660.988	290.64
661.18	206.67
661.372	237.39
661.563	235.35
661.755	272.21
661.947	96.08
662.139	143.19
662.331	286.54
662.522	194.39
662.714	145.24
662.906	141.14
663.097	124.76
663.289	186.19
663.481	102.23
663.673	159.57
663.864	159.57
664.056	194.39
664.247	100.18
664.439	323.41
664.631	190.29
664.822	231.25
665.014	139.09
665.205	130.9
665.397	171.86
665.588	153.43
665.78	243.54
665.971	225.11
666.163	145.24
666.354	188.24
666.546	94.04
666.737	153.43
666.929	87.89
667.12	94.04
667.311	149.33
667.503	79.7
667.694	202.58
667.885	135
668.077	196.43
668.268	26.45
668.459	173.91
668.651	67.41
668.842	200.53
669.033	83.8
669.224	59.22
669.416	343.89
669.607	30.55
669.798	100.18
669.989	229.2
670.18	149.33
670.371	98.13
670.563	-24.75
670.754	175.95
670.945	165.71
671.136	190.29
671.327	128.85
671.518	157.52
671.709	264.02
671.9	128.85
672.091	212.82
672.282	65.36
672.473	135
672.664	36.69
672.855	81.75
673.046	118.61
673.237	239.44
673.428	100.18
673.619	149.33
673.809	94.04
674	225.11
674.191	151.38
674.382	141.14
674.573	135
674.764	163.67
674.954	212.82
675.145	28.5
675.336	118.61
675.527	20.31
675.717	89.94
675.908	118.61
676.099	108.37
676.289	116.56
676.48	53.08
676.671	118.61
676.861	98.13
677.052	153.43
677.243	130.9
677.433	159.57
677.624	130.9
677.814	182.1
678.005	112.47
678.195	239.44
678.386	104.28
678.576	151.38
678.767	16.21
678.957	104.28
679.148	276.31
679.338	157.52
679.529	200.53
679.719	145.24
679.909	143.19
680.1	190.29
680.29	126.8
680.481	67.41
680.671	206.67
680.861	151.38
681.052	147.28
681.242	94.04
681.432	190.29
681.622	155.47
681.813	-4.27
682.003	151.38
682.193	53.08
682.383	184.15
682.573	180.05
682.764	77.65
682.954	122.71
683.144	151.38
683.334	104.28
683.524	126.8
683.714	132.95
683.904	161.62
684.094	110.42
684.284	163.67
684.474	261.97
684.664	128.85
684.854	96.08
685.044	126.8
685.234	147.28
685.424	118.61
685.614	128.85
685.804	206.67
685.994	145.24
686.184	124.76
686.374	163.67
686.564	186.19
686.753	149.33
686.943	61.27
687.133	155.47
687.323	208.72
687.513	221.01
687.702	106.32
687.892	108.37
688.082	255.83
688.272	143.19
688.461	167.76
688.651	292.69
688.841	208.72
689.03	186.19
689.22	128.85
689.41	194.39
689.599	190.29
689.789	102.23
689.979	350.03
690.168	171.86
690.358	270.16
690.547	245.59
690.737	132.95
690.926	186.19
691.116	145.24
691.305	173.91
691.495	135
691.684	141.14
691.874	118.61
692.063	184.15
692.252	276.31
692.442	147.28
692.631	122.71
692.82	147.28
693.01	157.52
693.199	114.52
693.388	184.15
693.578	184.15
693.767	167.76
693.956	145.24
694.146	106.32
694.335	204.63
694.524	108.37
694.713	153.43
694.902	132.95
695.092	120.66
695.281	237.39
695.47	128.85
695.659	112.47
695.848	139.09
696.037	141.14
696.226	192.34
696.415	149.33
696.604	221.01
696.793	245.59
696.982	135
697.171	270.16
697.36	85.84
697.549	186.19
697.738	77.65
697.927	132.95
698.116	87.89
698.305	169.81
698.494	178
698.683	161.62
698.872	223.06
699.061	157.52
699.25	235.35
699.438	247.63
699.627	161.62
699.816	284.5
700.005	-8.36
700.193	67.41
700.382	255.83
700.571	192.34
700.76	237.39
700.948	237.39
701.137	208.72
701.326	214.87
701.514	94.04
701.703	208.72
701.892	190.29
702.08	329.55
702.269	184.15
702.457	34.64
702.646	171.86
702.834	100.18
703.023	270.16
703.212	218.96
703.4	178
703.589	139.09
703.777	71.51
703.965	106.32
704.154	112.47
704.342	75.6
704.531	24.4
704.719	114.52
704.907	255.83
705.096	110.42
705.284	149.33
705.472	192.34
705.661	173.91
705.849	192.34
706.037	276.31
706.226	190.29
706.414	204.63
706.602	126.8
706.79	200.53
706.979	151.38
707.167	155.47
707.355	91.99
707.543	145.24
707.731	126.8
707.919	178
708.107	208.72
708.296	85.84
708.484	85.84
708.672	159.57
708.86	137.04
709.048	165.71
709.236	124.76
709.424	188.24
709.612	118.61
709.8	67.41
709.988	137.04
710.176	198.48
710.364	167.76
710.551	161.62
710.739	79.7
710.927	63.32
711.115	165.71
711.303	227.15
711.491	231.25
711.679	75.6
711.866	235.35
712.054	157.52
712.242	153.43
712.43	218.96
712.617	169.81
712.805	233.3
712.993	69.46
713.181	24.4
713.368	182.1
713.556	94.04
713.744	128.85
713.931	405.33
714.119	126.8
714.306	155.47
714.494	151.38
714.682	145.24
714.869	1.88
715.057	110.42
715.244	173.91
715.432	186.19
715.619	81.75
715.807	81.75
715.994	159.57
716.182	186.19
716.369	126.8
716.556	239.44
716.744	79.7
716.931	94.04
717.119	194.39
717.306	202.58
717.493	251.73
717.681	89.94
717.868	130.9
718.055	188.24
718.242	122.71
718.43	231.25
718.617	270.16
718.804	173.91
718.991	264.02
719.179	157.52
719.366	182.1
719.553	247.63
719.74	233.3
719.927	237.39
720.114	143.19
720.301	153.43
720.488	143.19
720.676	83.8
720.863	227.15
721.05	253.78
721.237	261.97
721.424	204.63
721.611	194.39
721.798	55.12
721.985	169.81
722.172	196.43
722.358	139.09
722.545	188.24
722.732	249.68
722.919	253.78
723.106	122.71
723.293	169.81
723.48	184.15
723.667	214.87
723.853	208.72
724.04	251.73
724.227	255.83
724.414	216.91
724.6	235.35
724.787	255.83
724.974	366.42
725.161	218.96
725.347	108.37
725.534	89.94
725.72	278.35
725.907	274.26
726.094	214.87
726.28	212.82
726.467	149.33
726.653	110.42
726.84	300.88
727.027	309.07
727.213	71.51
727.4	202.58
727.586	175.95
727.773	175.95
727.959	198.48
728.145	171.86
728.332	137.04
728.518	204.63
728.705	315.22
728.891	223.06
729.077	171.86
729.264	139.09
729.45	184.15
729.636	198.48
729.823	229.2
730.009	206.67
730.195	145.24
730.382	266.07
730.568	173.91
730.754	186.19
730.94	128.85
731.126	202.58
731.313	171.86
731.499	214.87
731.685	137.04
731.871	292.69
732.057	272.21
732.243	261.97
732.429	253.78
732.615	257.87
732.801	304.98
732.987	243.54
733.173	216.91
733.359	210.77
733.545	214.87
733.731	223.06
733.917	274.26
734.103	272.21
734.289	229.2
734.475	75.6
734.661	356.18
734.847	159.57
735.033	231.25
735.219	225.11
735.404	196.43
735.59	110.42
735.776	145.24
735.962	180.05
736.148	202.58
736.333	304.98
736.519	216.91
736.705	210.77
736.89	122.71
737.076	151.38
737.262	124.76
737.447	229.2
737.633	141.14
737.819	180.05
738.004	223.06
738.19	214.87
738.375	302.93
738.561	304.98
738.747	178
738.932	89.94
739.118	321.36
739.303	235.35
739.489	116.56
739.674	200.53
739.859	139.09
740.045	257.87
740.23	159.57
740.416	147.28
740.601	239.44
740.786	188.24
740.972	122.71
741.157	216.91
741.342	44.88
741.528	91.99
741.713	274.26
741.898	182.1
742.084	178
742.269	241.49
742.454	194.39
742.639	255.83
742.824	182.1
743.01	345.94
743.195	298.83
743.38	169.81
743.565	249.68
743.75	171.86
743.935	288.59
744.12	223.06
744.305	135
744.49	145.24
744.675	157.52
744.86	202.58
745.045	218.96
745.23	69.46
745.415	237.39
745.6	272.21
745.785	167.76
745.97	266.07
746.155	192.34
746.34	239.44
746.525	196.43
746.71	264.02
746.895	96.08
747.079	141.14
747.264	178
747.449	266.07
747.634	272.21
747.819	243.54
748.003	132.95
748.188	96.08
748.373	231.25
748.557	315.22
748.742	194.39
748.927	102.23
749.111	167.76
749.296	124.76
749.481	255.83
749.665	120.66
749.85	155.47
750.034	198.48
750.219	163.67
750.404	184.15
750.588	192.34
750.773	96.08
750.957	180.05
751.141	65.36
751.326	249.68
751.51	32.6
751.695	149.33
751.879	98.13
752.064	227.15
752.248	161.62
752.432	257.87
752.617	202.58
752.801	192.34
752.985	210.77
753.17	216.91
753.354	161.62
753.538	214.87
753.722	139.09
753.907	151.38
754.091	91.99
754.275	180.05
754.459	87.89
754.643	83.8
754.828	210.77
755.012	132.95
755.196	87.89
755.38	126.8
755.564	112.47
755.748	153.43
755.932	126.8
756.116	175.95
756.3	204.63
756.484	163.67
756.668	169.81
756.852	12.12
757.036	77.65
757.22	118.61
757.404	165.71
757.588	163.67
757.772	157.52
757.956	137.04
758.14	159.57
758.323	34.64
758.507	128.85
758.691	75.6
758.875	167.76
759.059	194.39
759.242	67.41
759.426	135
759.61	161.62
759.794	83.8
759.977	147.28
760.161	259.92
760.345	216.91
760.528	180.05
760.712	178
760.895	190.29
761.079	32.6
761.263	55.12
761.446	112.47
761.63	87.89
761.813	114.52
761.997	48.98
762.18	73.56
762.364	165.71
762.547	16.21
762.731	151.38
762.914	106.32
763.098	46.93
763.281	122.71
763.464	48.98
763.648	106.32
763.831	-4.27
764.015	163.67
764.198	212.82
764.381	22.36
764.564	100.18
764.748	85.84
764.931	83.8
765.114	65.36
765.297	192.34
765.481	38.74
765.664	77.65
765.847	104.28
766.03	184.15
766.213	61.27
766.397	137.04
766.58	-0.17
766.763	186.19
766.946	65.36
767.129	36.69
767.312	65.36
767.495	26.45
767.678	87.89
767.861	16.21
768.044	14.17
768.227	75.6
768.41	51.03
768.593	110.42
768.776	145.24
768.959	28.5
769.142	147.28
769.324	48.98
769.507	48.98
769.69	30.55
769.873	44.88
770.056	192.34
770.239	-16.55
770.421	145.24
770.604	122.71
770.787	46.93
770.97	81.75
771.152	1.88
771.335	106.32
771.518	-57.51
771.7	153.43
771.883	210.77
772.066	-14.51
772.248	114.52
772.431	178
772.613	169.81
772.796	83.8
772.978	26.45
773.161	214.87
773.343	36.69
773.526	46.93
773.708	-84.14
773.891	-80.04
774.073	128.85
774.256	75.6
774.438	204.63
774.621	44.88
774.803	102.23
774.985	145.24
775.168	42.84
775.35	8.02
775.532	120.66
775.715	100.18
775.897	141.14
776.079	108.37
776.261	8.02
776.444	169.81
776.626	65.36
776.808	44.88
776.99	18.26
777.173	48.98
777.355	-0.17
777.537	10.07
777.719	81.75
777.901	-18.6
778.083	24.4
778.265	18.26
778.447	53.08
778.629	3.93
778.811	124.76
778.993	94.04
779.175	126.8
779.357	126.8
779.539	-12.46
779.721	55.12
779.903	145.24
780.085	-20.65
780.267	1.88
780.449	100.18
780.631	102.23
780.812	85.84
780.994	42.84
781.176	18.26
781.358	-12.46
781.54	24.4
781.721	36.69
781.903	63.32
782.085	69.46
782.267	112.47
782.448	-55.47
782.63	-0.17
782.812	73.56
782.993	55.12
783.175	89.94
783.357	-16.55
783.538	67.41
783.72	-39.08
783.901	48.98
784.083	63.32
784.264	71.51
784.446	-65.71
784.627	-75.95
784.809	87.89
784.99	1.88
785.172	67.41
785.353	122.71
785.535	83.8
785.716	-28.84
785.897	-28.84
786.079	30.55
786.26	1.88
786.441	12.12
786.623	-59.56
786.804	-47.27
786.985	81.75
787.167	51.03
787.348	12.12
787.529	28.5
787.71	210.77
787.891	135
788.073	12.12
788.254	-53.42
788.435	169.81
788.616	55.12
788.797	-37.03
788.978	8.02
789.159	22.36
789.34	75.6
789.522	26.45
789.703	-43.18
789.884	75.6
790.065	44.88
790.246	120.66
790.427	12.12
790.607	98.13
790.788	55.12
790.969	18.26
791.15	77.65
791.331	-49.32
791.512	36.69
791.693	-73.9
791.874	-26.79
792.054	124.76
792.235	147.28
792.416	-69.8
792.597	-34.99
792.778	-8.36
792.958	32.6
793.139	100.18
793.32	24.4
793.5	-18.6
793.681	126.8
793.862	63.32
794.042	61.27
794.223	-100.52
794.404	-26.79
794.584	-73.9
794.765	59.22
794.945	22.36
795.126	87.89
795.306	53.08
795.487	-24.75
795.667	-4.27
795.848	16.21
796.028	-53.42
796.209	-20.65
796.389	165.71
796.57	-49.32
796.75	-75.95
796.93	-10.41
797.111	-4.27
797.291	8.02
797.471	12.12
797.652	61.27
797.832	-30.89
798.012	22.36
798.192	-30.89
798.373	-108.71
798.553	26.45
798.733	-12.46
798.913	10.07
799.093	-37.03
799.274	81.75
799.454	79.7
799.634	94.04
799.814	26.45
799.994	26.45
800.174	36.69
800.354	-2.22
800.534	-65.71
800.714	61.27
800.894	73.56
801.074	-129.19
801.254	-61.61
801.434	155.47
801.614	-6.31
801.794	-73.9
801.974	1861.43
802.154	16.21
802.334	36.69
802.514	34.64
802.693	40.79
802.873	26.45
803.053	116.56
803.233	48.98
803.413	-39.08
803.592	-43.18
803.772	20.31
803.952	-28.84
804.131	-12.46
804.311	65.36
804.491	81.75
804.67	-32.94
804.85	-77.99
805.03	59.22
805.209	75.6
805.389	-59.56
805.568	-53.42
805.748	-123.05
805.928	-4.27
806.107	61.27
806.287	104.28
806.466	8.02
806.646	38.74
806.825	53.08
807.004	-43.18
807.184	-0.17
807.363	-14.51
807.543	67.41
807.722	-41.13
807.901	51.03
808.081	128.85
808.26	-100.52
808.439	-37.03
808.619	-73.9
808.798	-39.08
808.977	102.23
809.156	114.52
809.336	48.98
809.515	57.17
809.694	-100.52
809.873	-86.19
810.052	36.69
810.231	102.23
810.411	34.64
810.59	143.19
810.769	55.12
810.948	51.03
811.127	-73.9
811.306	-55.47
811.485	1.88
811.664	182.1
811.843	5.97
812.022	44.88
812.201	30.55
812.38	-4.27
812.559	63.32
812.737	98.13
812.916	-82.09
813.095	-32.94
813.274	65.36
813.453	30.55
813.632	32.6
813.811	83.8
813.989	-26.79
814.168	-20.65
814.347	-123.05
814.526	-24.75
814.704	36.69
814.883	149.33
815.062	-73.9
815.24	71.51
815.419	-53.42
815.598	59.22
815.776	-147.62
815.955	-8.36
816.133	-157.86
816.312	51.03
816.49	-20.65
816.669	-14.51
816.847	3.93
817.026	30.55
817.204	-6.31
817.383	-2.22
817.561	-8.36
817.74	57.17
817.918	48.98
818.097	-26.79
818.275	-43.18
818.453	85.84
818.632	18.26
818.81	-14.51
818.988	-65.71
819.167	34.64
819.345	24.4
819.523	-28.84
819.701	48.98
819.879	79.7
820.058	46.93
820.236	32.6
820.414	48.98
820.592	1.88
820.77	-26.79
820.948	-10.41
821.127	38.74
821.305	34.64
821.483	-16.55
821.661	12.12
821.839	-20.65
822.017	-135.34
822.195	14.17
822.373	46.93
822.551	44.88
822.729	24.4
822.907	-43.18
823.085	24.4
823.262	-65.71
823.44	-24.75
823.618	-34.99
823.796	14.17
823.974	-2.22
824.152	-69.8
824.329	-12.46
824.507	-28.84
824.685	20.31
824.863	32.6
825.04	53.08
825.218	53.08
825.396	22.36
825.574	77.65
825.751	-20.65
825.929	85.84
826.107	-63.66
826.284	14.17
826.462	-30.89
826.639	-69.8
826.817	-41.13
826.994	12.12
827.172	-61.61
827.349	10.07
827.527	-41.13
827.704	44.88
827.882	63.32
828.059	-6.31
828.237	-69.8
828.414	-45.23
828.591	-39.08
828.769	46.93
828.946	-110.76
829.124	63.32
829.301	40.79
829.478	20.31
829.655	67.41
829.833	-0.17
830.01	-106.67
830.187	22.36
830.364	-94.38
830.542	-59.56
830.719	149.33
830.896	-18.6
831.073	14.17
831.25	-14.51
831.427	-39.08
831.604	28.5
831.782	-51.37
831.959	42.84
832.136	-43.18
832.313	16.21
832.49	-51.37
832.667	24.4
832.844	-63.66
833.021	44.88
833.198	1.88
833.374	40.79
833.551	-0.17
833.728	-51.37
833.905	26.45
834.082	-153.77
834.259	18.26
834.436	44.88
834.612	-57.51
834.789	46.93
834.966	-16.55
835.143	112.47
835.319	-47.27
835.496	44.88
835.673	124.76
835.85	59.22
836.026	128.85
836.203	30.55
836.38	-77.99
836.556	-4.27
836.733	26.45
836.909	141.14
837.086	26.45
837.262	-84.14
837.439	-18.6
837.616	12.12
837.792	36.69
837.968	24.4
838.145	-22.7
838.321	22.36
838.498	53.08
838.674	81.75
838.851	-18.6
839.027	-100.52
839.203	46.93
839.38	81.75
839.556	-41.13
839.732	38.74
839.909	44.88
840.085	87.89
840.261	-41.13
840.437	71.51
840.614	-39.08
840.79	-0.17
840.966	12.12
841.142	-34.99
841.318	-18.6
841.494	32.6
841.671	32.6
841.847	-114.86
842.023	-41.13
842.199	87.89
842.375	81.75
842.551	-47.27
842.727	-77.99
842.903	118.61
843.079	-67.75
843.255	112.47
843.431	-22.7
843.607	20.31
843.783	-80.04
843.959	57.17
844.134	14.17
844.31	65.36
844.486	-53.42
844.662	-102.57
844.838	16.21
845.013	-14.51
845.189	28.5
845.365	36.69
845.541	-2.22
845.716	44.88
845.892	63.32
846.068	12.12
846.244	-63.66
846.419	14.17
846.595	-59.56
846.77	-80.04
846.946	16.21
847.122	-88.23
847.297	-22.7
847.473	126.8
847.648	-112.81
847.824	42.84
847.999	-161.96
848.175	-98.47
848.35	59.22
848.526	32.6
848.701	53.08
848.876	132.95
849.052	14.17
849.227	-14.51
849.403	3.93
849.578	-2.22
849.753	-6.31
849.929	-49.32
850.104	-80.04
850.279	10.07
850.454	-2.22
850.63	110.42
850.805	65.36
850.98	38.74
851.155	-45.23
851.33	-6.31
851.505	-28.84
851.681	126.8
851.856	-73.9
852.031	38.74
852.206	-6.31
852.381	-96.43
852.556	-65.71
852.731	26.45
852.906	-4.27
853.081	22.36
853.256	51.03
853.431	36.69
853.606	-0.17
853.781	-63.66
853.956	-59.56
854.131	12.12
854.305	-135.34
854.48	-10.41
854.655	-18.6
854.83	-59.56
855.005	-41.13
855.18	-6.31
855.354	-4.27
855.529	12.12
855.704	-82.09
855.879	59.22
856.053	-98.47
856.228	-43.18
856.403	-43.18
856.577	-10.41
856.752	-65.71
856.926	-10.41
857.101	55.12
857.276	-123.05
857.45	-10.41
857.625	126.8
857.799	-32.94
857.974	-61.61
858.148	-90.28
858.323	18.26
858.497	-73.9
858.672	-57.51
858.846	-8.36
859.02	3.93
859.195	-98.47
859.369	-41.13
859.543	22.36
859.718	22.36
859.892	-16.55
860.066	20.31
860.241	-82.09
860.415	-139.43
860.589	-57.51
860.763	-51.37
860.938	10.07
861.112	38.74
861.286	-12.46
861.46	-26.79
861.634	-45.23
861.808	38.74
861.982	-2.22
862.157	-108.71
862.331	-37.03
862.505	-53.42
862.679	-30.89
862.853	-43.18
863.027	3.93
863.201	83.8
863.375	-39.08
863.549	85.84
863.722	-12.46
863.896	106.32
864.07	-96.43
864.244	26.45
864.418	16.21
864.592	32.6
864.766	-18.6
864.939	1.88
865.113	55.12
865.287	42.84
865.461	-104.62
865.634	-57.51
865.808	-6.31
865.982	-43.18
866.156	-106.67
866.329	-57.51
866.503	34.64
866.676	42.84
866.85	-16.55
867.024	-26.79
867.197	34.64
867.371	48.98
867.544	38.74
867.718	-104.62
867.891	143.19
868.065	-39.08
868.238	-24.75
868.412	128.85
868.585	-14.51
868.759	-41.13
868.932	-16.55
869.105	-67.75
869.279	-28.84
869.452	-80.04
869.625	157.52
869.799	-34.99
869.972	-47.27
870.145	14.17
870.319	73.56
870.492	-112.81
870.665	-67.75
870.838	-110.76
871.011	-164.01
871.185	-2.22
871.358	-63.66
871.531	61.27
871.704	-102.57
871.877	16.21
872.05	-49.32
872.223	-12.46
872.396	77.65
872.569	-2.22
872.742	-82.09
872.915	-45.23
873.088	-30.89
873.261	5.97
873.434	79.7
873.607	-90.28
873.78	104.28
873.953	-170.15
874.126	-6.31
874.299	42.84
874.471	-43.18
874.644	-63.66
874.817	-39.08
874.99	77.65
875.163	-2.22
875.335	16.21
875.508	57.17
875.681	38.74
875.853	-67.75
876.026	-8.36
876.199	102.23
876.371	-37.03
876.544	-37.03
876.717	42.84
876.889	5.97
877.062	79.7
877.234	-6.31
877.407	57.17
877.579	32.6
877.752	32.6
877.924	38.74
878.097	-53.42
878.269	12.12
878.442	36.69
878.614	48.98
878.786	26.45
878.959	-18.6
879.131	8.02
879.303	-67.75
879.476	40.79
879.648	102.23
879.82	-22.7
879.993	-84.14
880.165	1.88
880.337	-57.51
880.509	28.5
880.681	-121
880.854	-39.08
881.026	12.12
881.198	69.46
881.37	-43.18
881.542	10.07
881.714	-59.56
881.886	-53.42
882.058	-26.79
882.23	-71.85
882.402	-59.56
882.574	-20.65
882.746	61.27
882.918	61.27
883.09	20.31
883.262	48.98
883.434	-24.75
883.606	-63.66
883.778	38.74
883.95	53.08
884.122	14.17
884.293	38.74
884.465	14.17
884.637	57.17
884.809	-8.36
884.98	34.64
885.152	1.88
885.324	36.69
885.496	-59.56
885.667	-63.66
885.839	-59.56
886.011	89.94
886.182	46.93
886.354	20.31
886.525	26.45
886.697	5.97
886.869	-22.7
887.04	-26.79
887.212	132.95
887.383	69.46
887.555	-18.6
887.726	-69.8
887.897	-8.36
888.069	-26.79
888.24	59.22
888.412	-26.79
888.583	-86.19
888.754	-16.55
888.926	-176.3
889.097	-118.95
889.268	-106.67
889.44	30.55
889.611	-63.66
889.782	-14.51
889.953	-2.22
890.125	108.37
890.296	-102.57
890.467	-57.51
890.638	-69.8
890.809	-43.18
890.98	-59.56
891.151	24.4
891.323	128.85
891.494	-22.7
891.665	14.17
891.836	5.97
892.007	-16.55
892.178	22.36
892.349	28.5
892.52	-88.23
892.691	-73.9
892.862	10.07
893.032	-63.66
893.203	-69.8
893.374	-41.13
893.545	48.98
893.716	-108.71
893.887	53.08
894.057	-4.27
894.228	-24.75
894.399	-16.55
894.57	130.9
894.74	10.07
894.911	63.32
895.082	-4.27
895.253	-164.01
895.423	-28.84
895.594	-39.08
895.764	44.88
895.935	-139.43
896.106	48.98
896.276	-26.79
896.447	71.51
896.617	-69.8
896.788	-77.99
896.958	14.17
897.129	-80.04
897.299	-28.84
897.47	83.8
897.64	26.45
897.81	-41.13
897.981	34.64
898.151	-96.43
898.322	67.41
898.492	-0.17
898.662	-151.72
898.832	-12.46
899.003	-51.37
899.173	24.4
899.343	-26.79
899.513	-37.03
