Data from USB4F104151__288__11-21-05-429.txt Node

Date: Wed Feb 26 11:21:05 EST 2025
User: louis
Spectrometer: USB4F10415
Trigger mode: 4
Integration Time (sec): 1.000000E-1
Scans to average: 1
Electric dark correction enabled: true
Nonlinearity correction enabled: false
Boxcar width: 0
XAxis mode: Wavelengths
Number of Pixels in Spectrum: 3648
>>>>>Begin Spectral Data<<<<<
178.204	-378.53
178.424	-378.53
178.644	-378.53
178.864	-452.26
179.084	-403.11
179.304	-18.09
179.524	-28.33
179.744	33.11
179.964	69.97
180.184	8.53
180.404	33.11
180.624	-67.24
180.844	-67.24
181.064	-1.71
181.283	45.4
181.503	-3.75
181.723	-3.75
181.943	-104.11
182.163	168.27
182.383	16.73
182.602	78.16
182.822	151.89
183.042	80.21
183.262	-48.81
183.482	-18.09
183.701	-22.19
183.921	59.73
184.141	-54.95
184.361	53.59
184.58	57.68
184.8	65.88
185.02	-71.34
185.239	69.97
185.459	98.64
185.679	98.64
185.898	-59.05
186.118	8.53
186.338	8.53
186.557	53.59
186.777	-67.24
186.997	-52.91
187.216	24.92
187.436	207.19
187.655	98.64
187.875	47.44
188.095	10.58
188.314	108.88
188.534	74.07
188.753	-59.05
188.973	153.94
189.192	211.28
189.412	82.26
189.631	67.92
189.851	57.68
190.07	203.09
190.29	-79.53
190.509	-36.52
190.729	2.39
190.948	178.51
191.168	155.99
191.387	84.31
191.607	14.68
191.826	53.59
192.045	20.82
192.265	43.35
192.484	6.49
192.704	47.44
192.923	-28.33
193.142	209.23
193.362	49.49
193.581	102.74
193.8	22.87
194.02	67.92
194.239	69.97
194.458	69.97
194.678	39.25
194.897	-22.19
195.116	6.49
195.335	76.12
195.555	31.06
195.774	65.88
195.993	94.55
196.212	39.25
196.432	-11.95
196.651	14.68
196.87	16.73
197.089	194.9
197.308	14.68
197.528	4.44
197.747	-40.62
197.966	41.3
198.185	92.5
198.404	10.58
198.623	137.56
198.842	96.6
199.062	131.41
199.281	135.51
199.5	-1.71
199.719	16.73
199.938	82.26
200.157	63.83
200.376	45.4
200.595	104.79
200.814	92.5
201.033	-3.75
201.252	246.1
201.471	72.02
201.69	63.83
201.909	-1.71
202.128	188.75
202.347	127.32
202.566	26.96
202.785	-89.77
203.004	-61.1
203.223	205.14
203.442	14.68
203.661	16.73
203.879	53.59
204.098	104.79
204.317	43.35
204.536	84.31
204.755	26.96
204.974	78.16
205.193	26.96
205.411	135.51
205.63	108.88
205.849	51.54
206.068	33.11
206.287	-83.63
206.505	135.51
206.724	-22.19
206.943	-7.85
207.162	-75.43
207.381	145.75
207.599	115.03
207.818	29.01
208.037	-20.14
208.255	6.49
208.474	108.88
208.693	0.34
208.911	-32.43
209.13	45.4
209.349	41.3
209.567	39.25
209.786	84.31
210.005	121.17
210.223	65.88
210.442	-132.78
210.661	-54.95
210.879	67.92
211.098	39.25
211.316	-20.14
211.535	72.02
211.753	-59.05
211.972	96.6
212.191	14.68
212.409	55.64
212.628	115.03
212.846	-9.9
213.065	72.02
213.283	98.64
213.502	6.49
213.72	69.97
213.938	-42.67
214.157	72.02
214.375	84.31
214.594	-34.47
214.812	41.3
215.031	-13.99
215.249	59.73
215.467	53.59
215.686	59.73
215.904	74.07
216.122	39.25
216.341	168.27
216.559	108.88
216.778	141.65
216.996	125.27
217.214	2.39
217.432	-34.47
217.651	-59.05
217.869	41.3
218.087	24.92
218.306	51.54
218.524	6.49
218.742	18.77
218.96	121.17
219.179	-30.38
219.397	-110.25
219.615	162.13
219.833	143.7
220.051	-83.63
220.27	59.73
220.488	164.18
220.706	53.59
220.924	-28.33
221.142	22.87
221.36	67.92
221.578	53.59
221.796	55.64
222.015	-7.85
222.233	14.68
222.451	178.51
222.669	-77.48
222.887	117.08
223.105	-46.76
223.323	-48.81
223.541	65.88
223.759	63.83
223.977	-38.57
224.195	80.21
224.413	63.83
224.631	43.35
224.849	69.97
225.067	201.04
225.285	12.63
225.503	-1.71
225.721	-175.78
225.939	14.68
226.157	26.96
226.375	198.99
226.592	39.25
226.81	29.01
227.028	127.32
227.246	143.7
227.464	41.3
227.682	51.54
227.9	129.36
228.117	80.21
228.335	8.53
228.553	-3.75
228.771	49.49
228.989	12.63
229.206	82.26
229.424	31.06
229.642	29.01
229.86	37.2
230.077	35.16
230.295	-3.75
230.513	155.99
230.731	61.78
230.948	127.32
231.166	205.14
231.384	-11.95
231.601	-85.67
231.819	184.66
232.037	29.01
232.254	-30.38
232.472	-13.99
232.689	-42.67
232.907	115.03
233.125	-13.99
233.342	-5.8
233.56	-104.11
233.777	-7.85
233.995	121.17
234.213	112.98
234.43	100.69
234.648	-42.67
234.865	33.11
235.083	115.03
235.3	18.77
235.518	55.64
235.735	164.18
235.953	129.36
236.17	98.64
236.388	14.68
236.605	98.64
236.822	82.26
237.04	100.69
237.257	20.82
237.475	-13.99
237.692	74.07
237.909	53.59
238.127	-61.1
238.344	53.59
238.562	106.84
238.779	-108.2
238.996	39.25
239.214	-48.81
239.431	110.93
239.648	-22.19
239.865	86.36
240.083	59.73
240.3	-85.67
240.517	-36.52
240.735	41.3
240.952	145.75
241.169	-28.33
241.386	14.68
241.603	-57
241.821	-63.15
242.038	72.02
242.255	119.12
242.472	-69.29
242.689	76.12
242.907	129.36
243.124	6.49
243.341	18.77
243.558	-24.23
243.775	-40.62
243.992	-69.29
244.209	53.59
244.426	115.03
244.643	74.07
244.86	61.78
245.078	4.44
245.295	-30.38
245.512	16.73
245.729	43.35
245.946	74.07
246.163	108.88
246.38	14.68
246.597	10.58
246.814	26.96
247.031	14.68
247.248	33.11
247.464	131.41
247.681	104.79
247.898	20.82
248.115	20.82
248.332	-46.76
248.549	137.56
248.766	131.41
248.983	80.21
249.2	8.53
249.417	104.79
249.633	8.53
249.85	72.02
250.067	51.54
250.284	61.78
250.501	43.35
250.717	119.12
250.934	-93.87
251.151	35.16
251.368	94.55
251.585	10.58
251.801	57.68
252.018	-18.09
252.235	100.69
252.451	-83.63
252.668	-61.1
252.885	178.51
253.102	26.96
253.318	-1.71
253.535	-34.47
253.752	-93.87
253.968	37.2
254.185	-126.63
254.401	55.64
254.618	43.35
254.835	16.73
255.051	104.79
255.268	65.88
255.484	112.98
255.701	121.17
255.917	20.82
256.134	-1.71
256.351	-26.28
256.567	-36.52
256.784	59.73
257	-91.82
257.217	158.03
257.433	84.31
257.65	37.2
257.866	117.08
258.082	-69.29
258.299	-24.23
258.515	106.84
258.732	84.31
258.948	135.51
259.165	47.44
259.381	-7.85
259.597	63.83
259.814	37.2
260.03	33.11
260.246	6.49
260.463	147.8
260.679	110.93
260.895	80.21
261.112	102.74
261.328	16.73
261.544	0.34
261.761	176.47
261.977	-18.09
262.193	8.53
262.409	104.79
262.626	100.69
262.842	78.16
263.058	41.3
263.274	86.36
263.49	-18.09
263.707	53.59
263.923	137.56
264.139	-130.73
264.355	94.55
264.571	147.8
264.787	65.88
265.004	98.64
265.22	78.16
265.436	-52.91
265.652	35.16
265.868	10.58
266.084	-11.95
266.3	45.4
266.516	-22.19
266.732	22.87
266.948	0.34
267.164	-50.86
267.38	158.03
267.596	6.49
267.812	123.22
268.028	110.93
268.244	-3.75
268.46	145.75
268.676	-3.75
268.892	92.5
269.108	-13.99
269.324	-20.14
269.54	18.77
269.756	94.55
269.972	-40.62
270.188	37.2
270.403	-116.39
270.619	53.59
270.835	57.68
271.051	96.6
271.267	-65.19
271.483	-3.75
271.698	92.5
271.914	153.94
272.13	69.97
272.346	-30.38
272.562	37.2
272.777	49.49
272.993	10.58
273.209	12.63
273.425	51.54
273.64	-69.29
273.856	47.44
274.072	0.34
274.287	49.49
274.503	129.36
274.719	78.16
274.934	-3.75
275.15	-122.54
275.366	117.08
275.581	-52.91
275.797	20.82
276.012	102.74
276.228	-24.23
276.444	35.16
276.659	121.17
276.875	-22.19
277.09	20.82
277.306	4.44
277.521	43.35
277.737	53.59
277.952	98.64
278.168	57.68
278.383	-5.8
278.599	4.44
278.814	22.87
279.03	-5.8
279.245	94.55
279.461	92.5
279.676	121.17
279.892	-89.77
280.107	-91.82
280.322	-22.19
280.538	4.44
280.753	-46.76
280.969	12.63
281.184	-5.8
281.399	90.45
281.615	47.44
281.83	80.21
282.045	-63.15
282.26	-46.76
282.476	59.73
282.691	141.65
282.906	65.88
283.122	29.01
283.337	55.64
283.552	78.16
283.767	-9.9
283.983	172.37
284.198	-30.38
284.413	45.4
284.628	-42.67
284.843	20.82
285.058	-3.75
285.274	8.53
285.489	-7.85
285.704	131.41
285.919	14.68
286.134	-22.19
286.349	129.36
286.564	-1.71
286.779	147.8
286.995	47.44
287.21	-44.71
287.425	135.51
287.64	-67.24
287.855	82.26
288.07	10.58
288.285	72.02
288.5	164.18
288.715	112.98
288.93	65.88
289.145	6.49
289.36	65.88
289.575	80.21
289.79	45.4
290.004	-50.86
290.219	139.6
290.434	12.63
290.649	-34.47
290.864	-87.72
291.079	41.3
291.294	-9.9
291.509	39.25
291.724	2.39
291.938	0.34
292.153	10.58
292.368	-18.09
292.583	-7.85
292.798	84.31
293.012	33.11
293.227	59.73
293.442	-22.19
293.657	67.92
293.871	170.32
294.086	100.69
294.301	196.95
294.516	143.7
294.73	-13.99
294.945	-20.14
295.16	31.06
295.374	31.06
295.589	164.18
295.804	26.96
296.018	72.02
296.233	84.31
296.447	121.17
296.662	-1.71
296.877	170.32
297.091	119.12
297.306	35.16
297.52	22.87
297.735	59.73
297.949	100.69
298.164	94.55
298.378	96.6
298.593	59.73
298.807	-65.19
299.022	45.4
299.236	110.93
299.451	24.92
299.665	24.92
299.88	41.3
300.094	90.45
300.309	-30.38
300.523	22.87
300.737	-57
300.952	139.6
301.166	49.49
301.381	-46.76
301.595	-48.81
301.809	53.59
302.024	69.97
302.238	-38.57
302.452	151.89
302.667	18.77
302.881	170.32
303.095	162.13
303.309	82.26
303.524	-124.58
303.738	39.25
303.952	10.58
304.166	90.45
304.381	-71.34
304.595	119.12
304.809	-97.96
305.023	57.68
305.237	12.63
305.452	-7.85
305.666	78.16
305.88	59.73
306.094	108.88
306.308	31.06
306.522	41.3
306.736	35.16
306.95	102.74
307.164	-11.95
307.379	-11.95
307.593	141.65
307.807	149.84
308.021	76.12
308.235	22.87
308.449	-71.34
308.663	22.87
308.877	239.95
309.091	31.06
309.305	78.16
309.519	-42.67
309.733	112.98
309.947	-46.76
310.161	108.88
310.374	129.36
310.588	158.03
310.802	0.34
311.016	-11.95
311.23	59.73
311.444	-3.75
311.658	-1.71
311.872	121.17
312.085	198.99
312.299	110.93
312.513	84.31
312.727	-7.85
312.941	-48.81
313.154	86.36
313.368	-48.81
313.582	12.63
313.796	98.64
314.009	94.55
314.223	133.46
314.437	51.54
314.651	61.78
314.864	-36.52
315.078	4.44
315.292	-54.95
315.505	35.16
315.719	-34.47
315.933	8.53
316.146	55.64
316.36	-30.38
316.573	127.32
316.787	47.44
317.001	129.36
317.214	37.2
317.428	59.73
317.641	-28.33
317.855	51.54
318.068	18.77
318.282	6.49
318.495	121.17
318.709	78.16
318.922	49.49
319.136	182.61
319.349	129.36
319.563	20.82
319.776	12.63
319.99	-26.28
320.203	135.51
320.417	-52.91
320.63	92.5
320.843	192.85
321.057	74.07
321.27	29.01
321.483	90.45
321.697	98.64
321.91	39.25
322.124	35.16
322.337	47.44
322.55	-32.43
322.763	37.2
322.977	-24.23
323.19	-16.04
323.403	65.88
323.617	18.77
323.83	108.88
324.043	47.44
324.256	-7.85
324.469	-69.29
324.683	151.89
324.896	26.96
325.109	133.46
325.322	-87.72
325.535	86.36
325.748	104.79
325.962	12.63
326.175	96.6
326.388	112.98
326.601	117.08
326.814	31.06
327.027	41.3
327.24	158.03
327.453	-71.34
327.666	41.3
327.879	168.27
328.092	74.07
328.305	74.07
328.518	-11.95
328.731	-61.1
328.944	37.2
329.157	127.32
329.37	0.34
329.583	184.66
329.796	133.46
330.009	-93.87
330.222	65.88
330.435	151.89
330.648	121.17
330.861	35.16
331.073	65.88
331.286	92.5
331.499	82.26
331.712	-100.01
331.925	43.35
332.138	53.59
332.35	112.98
332.563	90.45
332.776	29.01
332.989	12.63
333.202	53.59
333.414	72.02
333.627	20.82
333.84	-13.99
334.053	80.21
334.265	41.3
334.478	31.06
334.691	63.83
334.903	-16.04
335.116	8.53
335.329	-11.95
335.541	125.27
335.754	149.84
335.966	-34.47
336.179	-32.43
336.392	24.92
336.604	-30.38
336.817	176.47
337.029	43.35
337.242	20.82
337.454	69.97
337.667	-9.9
337.88	123.22
338.092	33.11
338.305	63.83
338.517	12.63
338.729	59.73
338.942	96.6
339.154	-63.15
339.367	59.73
339.579	80.21
339.792	-5.8
340.004	-7.85
340.217	-3.75
340.429	76.12
340.641	-24.23
340.854	-44.71
341.066	-11.95
341.278	96.6
341.491	192.85
341.703	47.44
341.915	35.16
342.128	98.64
342.34	69.97
342.552	0.34
342.764	16.73
342.977	-28.33
343.189	94.55
343.401	80.21
343.613	-24.23
343.826	12.63
344.038	-61.1
344.25	41.3
344.462	-67.24
344.674	35.16
344.886	49.49
345.099	94.55
345.311	82.26
345.523	4.44
345.735	-18.09
345.947	-16.04
346.159	90.45
346.371	92.5
346.583	8.53
346.795	182.61
347.007	-32.43
347.219	84.31
347.431	51.54
347.643	168.27
347.855	47.44
348.067	162.13
348.279	-106.15
348.491	26.96
348.703	129.36
348.915	41.3
349.127	31.06
349.339	6.49
349.551	-16.04
349.763	24.92
349.975	147.8
350.187	217.43
350.399	133.46
350.61	63.83
350.822	16.73
351.034	59.73
351.246	45.4
351.458	49.49
351.669	80.21
351.881	78.16
352.093	92.5
352.305	65.88
352.517	24.92
352.728	149.84
352.94	108.88
353.152	59.73
353.363	20.82
353.575	123.22
353.787	190.8
353.999	31.06
354.21	209.23
354.422	-42.67
354.633	57.68
354.845	29.01
355.057	-30.38
355.268	57.68
355.48	158.03
355.692	-24.23
355.903	24.92
356.115	-3.75
356.326	-54.95
356.538	149.84
356.749	74.07
356.961	170.32
357.172	45.4
357.384	-3.75
357.595	211.28
357.807	16.73
358.018	-48.81
358.23	63.83
358.441	137.56
358.653	94.55
358.864	16.73
359.075	-5.8
359.287	14.68
359.498	84.31
359.709	-38.57
359.921	14.68
360.132	72.02
360.344	6.49
360.555	4.44
360.766	-13.99
360.977	51.54
361.189	129.36
361.4	26.96
361.611	123.22
361.823	121.17
362.034	90.45
362.245	-87.72
362.456	6.49
362.667	88.4
362.879	55.64
363.09	110.93
363.301	57.68
363.512	51.54
363.723	26.96
363.935	63.83
364.146	104.79
364.357	41.3
364.568	108.88
364.779	-40.62
364.99	172.37
365.201	10.58
365.412	100.69
365.623	-44.71
365.834	119.12
366.045	149.84
366.256	112.98
366.467	59.73
366.678	-13.99
366.889	14.68
367.1	22.87
367.311	72.02
367.522	37.2
367.733	117.08
367.944	-36.52
368.155	51.54
368.366	123.22
368.577	86.36
368.788	96.6
368.999	12.63
369.209	31.06
369.42	227.67
369.631	209.23
369.842	78.16
370.053	-3.75
370.264	63.83
370.474	-42.67
370.685	33.11
370.896	33.11
371.107	108.88
371.317	26.96
371.528	-20.14
371.739	149.84
371.95	121.17
372.16	39.25
372.371	-18.09
372.582	-65.19
372.792	172.37
373.003	76.12
373.214	112.98
373.424	94.55
373.635	-63.15
373.846	168.27
374.056	12.63
374.267	31.06
374.477	26.96
374.688	29.01
374.898	63.83
375.109	61.78
375.319	160.08
375.53	131.41
375.74	131.41
375.951	84.31
376.161	86.36
376.372	135.51
376.582	-26.28
376.793	55.64
377.003	-83.63
377.214	-28.33
377.424	51.54
377.635	96.6
377.845	24.92
378.055	129.36
378.266	-71.34
378.476	-18.09
378.686	-16.04
378.897	78.16
379.107	82.26
379.317	92.5
379.528	29.01
379.738	67.92
379.948	4.44
380.158	131.41
380.369	80.21
380.579	90.45
380.789	84.31
380.999	86.36
381.21	155.99
381.42	178.51
381.63	-28.33
381.84	90.45
382.05	88.4
382.261	196.95
382.471	135.51
382.681	24.92
382.891	137.56
383.101	72.02
383.311	-32.43
383.521	8.53
383.731	51.54
383.941	26.96
384.151	92.5
384.361	4.44
384.571	55.64
384.781	45.4
384.991	262.48
385.201	137.56
385.411	162.13
385.621	69.97
385.831	88.4
386.041	-3.75
386.251	24.92
386.461	158.03
386.671	41.3
386.881	88.4
387.091	72.02
387.301	57.68
387.511	61.78
387.72	90.45
387.93	112.98
388.14	-52.91
388.35	14.68
388.56	186.71
388.769	143.7
388.979	24.92
389.189	8.53
389.399	-9.9
389.609	143.7
389.818	123.22
390.028	51.54
390.238	151.89
390.447	0.34
390.657	86.36
390.867	41.3
391.076	-83.63
391.286	170.32
391.496	29.01
391.705	10.58
391.915	172.37
392.125	123.22
392.334	55.64
392.544	227.67
392.753	41.3
392.963	6.49
393.172	78.16
393.382	22.87
393.591	153.94
393.801	14.68
394.01	178.51
394.22	121.17
394.429	82.26
394.639	37.2
394.848	67.92
395.058	67.92
395.267	45.4
395.477	98.64
395.686	100.69
395.895	254.29
396.105	190.8
396.314	67.92
396.524	76.12
396.733	8.53
396.942	112.98
397.152	63.83
397.361	31.06
397.57	65.88
397.78	96.6
397.989	166.23
398.198	160.08
398.407	-46.76
398.617	39.25
398.826	45.4
399.035	76.12
399.244	104.79
399.453	129.36
399.663	47.44
399.872	47.44
400.081	35.16
400.29	98.64
400.499	8.53
400.708	203.09
400.917	39.25
401.127	22.87
401.336	45.4
401.545	162.13
401.754	117.08
401.963	135.51
402.172	37.2
402.381	4.44
402.59	26.96
402.799	57.68
403.008	84.31
403.217	31.06
403.426	84.31
403.635	-11.95
403.844	41.3
404.053	26.96
404.262	29.01
404.471	192.85
404.68	57.68
404.888	65.88
405.097	90.45
405.306	90.45
405.515	67.92
405.724	12.63
405.933	112.98
406.142	162.13
406.35	174.42
406.559	63.83
406.768	74.07
406.977	182.61
407.185	135.51
407.394	82.26
407.603	-26.28
407.812	29.01
408.02	184.66
408.229	61.78
408.438	110.93
408.646	-34.47
408.855	102.74
409.064	57.68
409.272	-22.19
409.481	57.68
409.69	16.73
409.898	-81.58
410.107	6.49
410.315	141.65
410.524	37.2
410.733	63.83
410.941	53.59
411.15	98.64
411.358	125.27
411.567	133.46
411.775	76.12
411.984	104.79
412.192	39.25
412.401	14.68
412.609	147.8
412.818	180.56
413.026	153.94
413.234	67.92
413.443	63.83
413.651	-32.43
413.86	2.39
414.068	182.61
414.276	127.32
414.485	-9.9
414.693	190.8
414.901	172.37
415.11	51.54
415.318	57.68
415.526	22.87
415.734	121.17
415.943	74.07
416.151	129.36
416.359	39.25
416.567	-3.75
416.776	188.75
416.984	137.56
417.192	137.56
417.4	39.25
417.608	-48.81
417.817	-69.29
418.025	59.73
418.233	137.56
418.441	39.25
418.649	59.73
418.857	69.97
419.065	209.23
419.273	26.96
419.481	26.96
419.689	22.87
419.897	112.98
420.105	-26.28
420.313	108.88
420.521	190.8
420.729	108.88
420.937	29.01
421.145	59.73
421.353	112.98
421.561	88.4
421.769	151.89
421.977	22.87
422.185	145.75
422.393	8.53
422.601	127.32
422.809	96.6
423.017	63.83
423.224	55.64
423.432	164.18
423.64	22.87
423.848	153.94
424.056	-28.33
424.263	98.64
424.471	-7.85
424.679	112.98
424.887	-57
425.094	172.37
425.302	98.64
425.51	53.59
425.718	117.08
425.925	121.17
426.133	74.07
426.341	207.19
426.548	112.98
426.756	133.46
426.964	149.84
427.171	10.58
427.379	104.79
427.586	86.36
427.794	186.71
428.001	215.38
428.209	117.08
428.417	186.71
428.624	168.27
428.832	90.45
429.039	119.12
429.247	147.8
429.454	121.17
429.662	198.99
429.869	198.99
430.076	92.5
430.284	158.03
430.491	201.04
430.699	213.33
430.906	252.24
431.114	119.12
431.321	192.85
431.528	108.88
431.736	121.17
431.943	205.14
432.15	235.86
432.358	201.04
432.565	270.67
432.772	31.06
432.979	258.39
433.187	170.32
433.394	215.38
433.601	160.08
433.808	270.67
434.016	360.78
434.223	252.24
434.43	217.43
434.637	262.48
434.844	260.43
435.052	289.1
435.259	285.01
435.466	364.88
435.673	274.77
435.88	278.87
436.087	366.93
436.294	487.76
436.501	319.82
436.708	360.78
436.915	393.55
437.122	418.13
437.329	313.68
437.537	414.03
437.743	393.55
437.95	512.33
438.157	379.22
438.364	358.74
438.571	530.77
438.778	471.37
438.985	555.34
439.192	594.25
439.399	489.81
439.606	581.96
439.813	690.51
440.02	758.09
440.227	743.75
440.433	764.23
440.64	622.92
440.847	659.79
441.054	727.37
441.261	876.87
441.467	739.66
441.674	829.77
441.881	780.62
442.088	807.24
442.294	921.93
442.501	938.31
442.708	1005.89
442.914	964.93
443.121	995.65
443.328	1005.89
443.534	1122.63
443.741	1179.97
443.948	1114.44
444.154	1282.37
444.361	1431.87
444.568	1216.83
444.774	1257.79
444.981	1313.09
445.187	1491.26
445.394	1401.15
445.6	1438.02
445.807	1605.95
446.013	1612.09
446.22	1454.4
446.426	1823.03
446.633	1726.78
446.839	2068.79
447.046	1677.63
447.252	1988.92
447.459	2076.98
447.665	1970.49
447.871	2048.31
448.078	2455.86
448.284	2347.31
448.491	2500.91
448.697	2709.8
448.903	2609.45
449.11	2748.72
449.316	2670.89
449.522	3060.01
449.728	3070.25
449.935	3166.5
450.141	3135.78
450.347	3426.59
450.553	3375.39
450.76	3414.31
450.966	3660.06
451.172	3748.12
451.378	3848.47
451.584	4006.17
451.791	4360.47
451.997	4407.57
452.203	4512.02
452.409	4651.28
452.615	4882.7
452.821	4659.47
453.027	4804.88
453.233	5343.49
453.44	5427.46
453.646	5527.81
453.852	5656.83
454.058	6013.18
454.264	6115.58
454.47	6521.07
454.676	6502.64
454.882	7297.25
455.088	6861.04
455.294	7248.1
455.5	7839.97
455.705	8167.64
455.911	8143.07
456.117	8263.9
456.323	8624.34
456.529	8519.89
456.735	9498.82
456.941	9795.78
457.147	10324.15
457.352	10332.34
457.558	10860.72
457.764	11645.09
457.97	11870.37
458.176	12054.69
458.381	12609.68
458.587	12978.32
458.793	13373.58
458.999	13453.45
459.204	15292.52
459.41	15949.92
459.616	15442.03
459.821	16306.27
460.027	17281.1
460.233	18255.93
460.438	18280.51
460.644	19136.56
460.85	19232.82
461.055	20041.76
461.261	20772.89
461.466	20824.09
461.672	20912.15
461.878	23248.88
462.083	23302.13
462.289	23949.29
462.494	24700.89
462.7	25014.23
462.905	24917.98
463.111	27023.29
463.316	28600.22
463.522	29046.68
463.727	30085
463.932	31231.86
464.138	32190.31
464.343	33298.27
464.549	33582.93
464.754	35714.87
464.959	37119.77
465.165	37756.69
465.37	37187.36
465.575	37678.87
465.781	39898.87
465.986	40802.02
466.191	40629.99
466.397	40722.15
466.602	39642.87
466.807	42174.16
467.012	42675.91
467.218	43847.35
467.423	43669.18
467.628	45100.71
467.833	47066.76
468.038	46216.85
468.244	45483.68
468.449	47595.14
468.654	47074.95
468.859	46485.14
469.064	46999.18
469.269	45512.35
469.474	46128.79
469.679	47523.46
469.885	46233.24
470.09	46759.56
470.295	46587.53
470.5	45989.53
470.705	46261.91
470.91	45207.2
471.115	44435.12
471.32	45452.96
471.525	45244.07
471.73	43894.46
471.935	43847.35
472.139	42192.59
472.344	41950.93
472.549	41811.67
472.754	40842.98
472.959	40064.75
473.164	38899.46
473.369	38338.32
473.574	39120.64
473.778	38233.87
473.983	37994.26
474.188	37603.1
474.393	35782.45
474.598	35737.4
474.802	34733.89
475.007	34477.9
475.212	34191.18
475.417	32589.67
475.621	32317.29
475.826	31848.3
476.031	31182.71
476.235	30631.81
476.44	30760.83
476.645	29493.14
476.849	29480.85
477.054	28835.74
477.259	28127.14
477.463	28118.95
477.668	27467.7
477.872	27361.2
478.077	27021.24
478.282	25804.75
478.486	25769.93
478.691	25305.04
478.895	25436.11
479.1	25169.88
479.304	25380.82
479.509	24369.12
479.713	24373.22
479.918	24010.73
480.122	23234.55
480.326	23410.67
480.531	23304.18
480.735	23144.44
480.94	22849.53
481.144	23556.08
481.348	22298.63
481.553	22804.47
481.757	21757.96
481.961	22151.17
482.166	22374.4
482.37	21786.63
482.574	21555.21
482.778	21145.62
482.983	21843.98
483.187	20930.58
483.391	21188.63
483.595	20940.82
483.8	20199.46
484.004	20793.37
484.208	20936.73
484.412	20219.94
484.616	20221.98
484.821	19753
485.025	19363.89
485.229	19296.3
485.433	19071.03
485.637	18804.79
485.841	18470.97
486.045	18409.53
486.249	18196.54
486.453	17662.02
486.657	17557.58
486.861	17604.68
487.065	16912.47
487.269	16818.26
487.473	16253.02
487.677	16341.08
487.881	16515.16
488.085	15652.97
488.289	15718.5
488.493	15212.65
488.697	15347.82
488.901	14903.41
489.105	14329.98
489.309	14321.79
489.512	14155.9
489.716	13852.8
489.92	13688.96
490.124	13369.48
490.328	13359.24
490.531	13041.81
490.735	12884.11
490.939	12552.34
491.143	12040.35
491.346	12099.74
491.55	12009.63
491.754	11698.34
491.958	11552.93
492.161	11200.68
492.365	11176.11
492.569	10899.63
492.772	10793.14
492.976	10850.48
493.18	10518.71
493.383	10275
493.587	10203.32
493.79	10111.16
493.994	9857.21
494.197	10014.91
494.401	9953.47
494.605	9455.81
494.808	9787.58
495.012	9613.51
495.215	9693.38
495.419	9486.53
495.622	9216.2
495.825	9271.5
496.029	9105.61
496.232	9300.17
496.436	8997.07
496.639	9351.37
496.843	8968.4
497.046	9148.62
497.249	9148.62
497.453	9173.19
497.656	8935.63
497.859	9197.77
498.063	9156.81
498.266	9312.46
498.469	9074.89
498.673	8974.54
498.876	9273.54
499.079	9167.05
499.282	9130.19
499.485	9396.42
499.689	9267.4
499.892	9400.52
500.095	9357.51
500.298	9730.24
500.501	9418.95
500.705	9728.19
500.908	9679.04
501.111	9851.07
501.314	9894.08
501.517	9787.58
501.72	10086.59
501.923	10094.78
502.126	9945.28
502.329	10395.83
502.532	10502.33
502.735	10508.47
502.938	10518.71
503.141	10600.63
503.344	10786.99
503.547	11139.24
503.75	10938.54
503.953	11184.3
504.156	11444.39
504.359	11706.53
504.562	11489.45
504.765	11931.81
504.968	12040.35
505.17	12273.82
505.373	12443.8
505.576	12787.86
505.779	12609.68
505.982	12808.34
506.185	13193.36
506.387	13455.5
506.59	13674.63
506.793	13992.06
506.996	13965.44
507.198	14528.63
507.401	14571.64
507.604	14710.9
507.807	15206.51
508.009	15691.88
508.212	15681.64
508.415	16074.85
508.617	16218.21
508.82	16547.93
509.022	16527.45
509.225	17401.93
509.428	17397.84
509.63	17860.68
509.833	18186.3
510.035	18454.59
510.238	19075.12
510.44	19132.47
510.643	20101.15
510.845	20461.6
511.048	20488.22
511.25	20830.23
511.453	21284.88
511.655	22157.32
511.858	22558.72
512.06	22917.11
512.262	23468.02
512.465	23586.8
512.667	24457.18
512.87	24895.45
513.072	25259.99
513.274	26113.99
513.477	26767.29
513.679	27342.77
513.881	28157.86
514.084	28333.99
514.286	28905.37
514.488	29618.07
514.69	30648.19
514.893	30914.43
515.095	31586.16
515.297	32249.71
515.499	32628.58
515.701	33365.85
515.904	34180.94
516.106	34852.67
516.308	35403.58
516.51	36157.23
516.712	36282.16
516.914	37256.99
517.116	38231.82
517.318	38817.54
517.52	39661.3
517.722	39866.1
517.925	40472.3
518.127	41586.39
518.329	42464.97
518.531	42661.58
518.733	43615.93
518.935	44527.28
519.136	44844.71
519.338	46059.16
519.54	46096.02
519.742	47310.47
519.944	47480.45
520.146	48565.87
520.348	49065.58
520.55	49147.5
520.752	49733.21
520.954	50775.63
521.155	50714.19
521.357	51859.01
521.559	52299.32
521.761	52831.79
521.963	53362.22
522.164	53777.95
522.366	54013.47
522.568	54441.49
522.77	55033.36
522.971	55881.22
523.173	55676.42
523.375	56014.33
523.576	56180.22
523.778	56370.68
523.98	57032.18
524.181	56925.68
524.383	56923.63
524.584	57523.69
524.786	57665
524.988	57023.98
525.189	57943.52
525.391	58228.19
525.592	58170.85
525.794	58199.52
525.995	57660.9
526.197	57425.39
526.398	57472.49
526.6	57691.62
526.801	57511.4
527.003	57849.31
527.204	57060.85
527.406	57232.88
527.607	56479.22
527.808	56823.28
528.01	55426.57
528.211	56065.53
528.412	56206.84
528.614	55418.38
528.815	55299.59
529.016	55328.27
529.218	54079
529.419	54179.35
529.62	53505.57
529.822	53431.85
530.023	52557.36
530.224	52305.46
530.425	51506.76
530.626	51424.84
530.828	50450
531.029	50703.95
531.23	49319.52
531.431	49266.28
531.632	48805.48
531.833	48510.58
532.035	47423.11
532.236	47333
532.437	46829.19
532.638	45870.75
532.839	45280.93
533.04	44877.48
533.241	43699.9
533.442	44244.66
533.643	43634.36
533.844	42397.39
534.045	42202.83
534.246	41125.6
534.447	41174.75
534.648	40183.54
534.849	39771.89
535.05	39069.44
535.251	39141.12
535.451	38174.48
535.652	37662.49
535.853	36955.94
536.054	36759.33
536.255	36335.4
536.456	35725.11
536.657	35835.7
536.857	34723.65
537.058	34473.8
537.259	34217.8
537.46	33621.84
537.66	32671.59
537.861	32509.8
538.062	32157.55
538.263	31702.9
538.463	31319.93
538.664	30680.96
538.865	30650.24
539.065	30377.86
539.266	29851.53
539.466	29753.23
539.667	29161.37
539.868	29097.88
540.068	28626.85
540.269	28209.06
540.469	28000.17
540.67	27717.55
540.87	26908.6
541.071	27140.02
541.271	26628.03
541.472	26036.17
541.672	25853.9
541.873	25599.95
542.073	25065.43
542.274	25319.38
542.474	25006.04
542.675	24545.25
542.875	24336.35
543.075	23973.86
543.276	23334.9
543.476	23619.56
543.676	23269.36
543.877	23013.37
544.077	22765.56
544.277	22493.18
544.478	22065.16
544.678	21934.09
544.878	21620.75
545.078	21370.9
545.279	20951.06
545.479	20967.45
545.679	20942.87
545.879	20518.94
546.079	20154.4
546.28	19828.77
546.48	19732.52
546.68	19632.17
546.88	19413.04
547.08	19056.69
547.28	18772.02
547.48	18573.37
547.68	18454.59
547.88	17979.46
548.081	17922.12
548.281	17723.46
548.481	17344.59
548.681	17432.65
548.881	17170.51
549.081	16840.79
549.28	16627.8
549.48	16494.68
549.68	16115.81
549.88	16377.95
550.08	15777.89
550.28	15364.2
550.48	15239.28
550.68	15278.19
550.88	15005.81
551.08	14721.14
551.279	14643.32
551.479	14274.68
551.679	14116.99
551.879	13887.62
552.079	13424.78
552.278	13490.31
552.478	13285.51
552.678	13238.41
552.878	13334.67
553.077	12597.4
553.277	12302.49
553.477	12396.7
553.676	12163.23
553.876	11901.09
554.076	11724.96
554.275	11636.9
554.475	11413.67
554.674	11358.38
554.874	10999.98
555.074	10784.94
555.273	10688.69
555.473	10449.08
555.672	10307.77
555.872	10184.89
556.071	10107.07
556.271	9957.57
556.47	9867.45
556.67	9607.36
556.869	9240.78
557.068	9193.67
557.268	9146.57
557.467	8968.4
557.667	9044.17
557.866	8669.39
558.065	8483.03
558.265	8491.22
558.464	8151.26
558.663	8241.37
558.863	8104.15
559.062	8044.76
559.261	7592.16
559.461	7776.48
559.66	7450.85
559.859	7323.88
560.058	7180.52
560.258	7114.98
560.457	6998.25
560.656	7076.07
560.855	6719.73
561.054	6666.48
561.253	6764.78
561.453	6682.86
561.652	6504.69
561.851	6365.43
562.05	6084.86
562.249	5957.88
562.448	6076.66
562.647	5941.5
562.846	5787.9
563.045	5826.81
563.244	5710.08
563.443	5689.6
563.642	5591.3
563.841	5433.6
564.04	5380.36
564.239	5396.74
564.438	5318.92
564.637	5030.15
564.836	5095.69
565.035	5046.54
565.234	4987.15
565.432	4872.46
565.631	4837.64
565.83	4776.2
566.029	4602.13
566.228	4589.84
566.427	4630.8
566.625	4436.24
566.824	4462.87
567.023	4282.64
567.222	4323.6
567.42	4223.25
567.619	4296.98
567.818	4028.7
568.016	4243.73
568.215	4010.26
568.414	3987.74
568.612	4155.67
568.811	3932.44
569.01	3772.7
569.208	3715.36
569.407	3784.99
569.605	3682.59
569.804	3576.09
570.002	3526.94
570.201	3469.6
570.4	3385.63
570.598	3377.44
570.797	3268.9
570.995	3244.32
571.193	3279.14
571.392	3219.75
571.59	2982.18
571.789	3025.19
571.987	3045.67
572.186	3232.04
572.384	2861.35
572.582	2869.55
572.781	2881.83
572.979	2666.8
573.177	2752.81
573.376	2855.21
573.574	2808.11
573.772	2627.89
573.971	2609.45
574.169	2529.58
574.367	2570.54
574.565	2486.58
574.763	2578.73
574.962	2371.89
575.16	2445.62
575.358	2214.2
575.556	2390.32
575.754	2234.68
575.952	2314.55
576.151	2195.76
576.349	2296.11
576.547	1982.78
576.745	2072.89
576.943	2142.52
577.141	2111.8
577.339	2015.54
577.537	1972.54
577.735	1907
577.933	2062.65
578.131	1829.18
578.329	1986.87
578.527	1804.6
578.725	1939.77
578.923	1753.4
579.121	1806.65
579.319	1694.01
579.516	1720.64
579.714	1956.15
579.912	1673.53
580.11	1532.22
580.308	1528.13
580.506	1605.95
580.704	1403.2
580.901	1438.02
581.099	1591.61
581.297	1495.36
581.495	1446.21
581.692	1542.46
581.89	1540.41
582.088	1345.86
582.285	1462.59
582.483	1341.76
582.681	1345.86
582.878	1349.95
583.076	1306.95
583.274	1362.24
583.471	1407.3
583.669	1216.83
583.866	1265.99
584.064	1202.5
584.262	1157.44
584.459	1089.86
584.657	1218.88
584.854	1268.03
585.052	1229.12
585.249	1216.83
585.447	1126.72
585.644	1046.85
585.841	1126.72
586.039	1087.81
586.236	1216.83
586.434	999.75
586.631	985.41
586.828	983.37
587.026	923.98
587.223	864.58
587.42	837.96
587.618	1020.23
587.815	958.79
588.012	891.21
588.21	878.92
588.407	1009.99
588.604	954.69
588.801	885.06
588.999	883.02
589.196	1007.94
589.393	840.01
589.59	858.44
589.787	913.74
589.984	940.36
590.182	907.59
590.379	840.01
590.576	837.96
590.773	751.95
590.97	878.92
591.167	891.21
591.364	840.01
591.561	792.91
591.758	1042.76
591.955	829.77
592.152	792.91
592.349	715.08
592.546	749.9
592.743	741.71
592.94	745.8
593.137	797
593.334	792.91
593.531	801.1
593.727	919.88
593.924	821.58
594.121	835.91
594.318	868.68
594.515	917.83
594.712	887.11
594.908	1007.94
595.105	753.99
595.302	883.02
595.499	887.11
595.696	975.17
595.892	903.5
596.089	1020.23
596.286	868.68
596.482	993.61
596.679	962.89
596.876	907.59
597.072	1075.52
597.269	1145.16
597.466	993.61
597.662	1202.5
597.859	1059.14
598.055	1112.39
598.252	1251.65
598.448	1153.35
598.645	1352
598.841	1255.75
599.038	1487.17
599.234	1573.18
599.431	1415.49
599.627	1552.7
599.824	1597.76
600.02	1608
600.217	1812.79
600.413	1775.93
600.609	1820.99
600.806	2191.67
601.002	2009.4
601.198	1968.44
601.395	2072.89
601.591	2099.51
601.787	2304.31
601.984	2400.56
602.18	2484.53
602.376	2509.1
602.572	2679.08
602.769	2898.22
602.965	2844.97
603.161	3023.14
603.357	3141.93
603.553	3320.1
603.75	3244.32
603.946	3344.67
604.142	3623.2
604.338	3842.33
604.534	3768.6
604.73	3871
604.926	3901.72
605.122	4159.77
605.318	4116.76
605.514	4403.47
605.71	4491.54
605.906	4651.28
606.102	4868.36
606.298	4901.13
606.494	5224.71
606.69	5380.36
606.886	5404.93
607.082	5456.13
607.278	5755.13
607.474	5890.3
607.67	5961.98
607.866	6052.09
608.062	6482.16
608.257	6412.53
608.453	6787.31
608.649	6945
608.845	6885.61
609.041	7278.82
609.236	7618.79
609.432	7764.19
609.628	7975.13
609.824	8134.87
610.019	8286.42
610.215	8374.49
610.411	8730.83
610.606	8995.02
610.802	9068.75
610.998	9451.72
611.193	9670.85
611.389	9777.34
611.584	10199.23
611.78	10318.01
611.976	10709.17
612.171	11237.55
612.367	11165.87
612.562	11471.01
612.758	11669.67
612.953	12120.22
613.149	12607.64
613.344	12822.67
613.539	13285.51
613.735	13654.15
613.93	13944.96
614.126	14090.37
614.321	14907.51
614.517	14864.5
614.712	15249.52
614.907	15661.16
615.103	16212.06
615.298	16449.63
615.493	16978
615.688	17391.69
615.884	18004.03
616.079	17881.16
616.274	19050.55
616.47	18964.53
616.665	19855.4
616.86	20207.65
617.055	20822.04
617.25	21133.33
617.445	21831.69
617.641	21966.85
617.836	22845.43
618.031	23234.55
618.226	23848.94
618.421	24377.31
618.616	25083.86
618.811	25571.28
619.006	26349.51
619.201	26679.23
619.396	27570.1
619.591	27586.48
619.786	28598.18
619.981	28876.7
620.176	29945.74
620.371	29990.8
620.566	30902.14
620.761	31874.93
620.956	32122.73
621.151	32446.31
621.346	33570.65
621.541	33554.26
621.735	34688.84
621.93	35082.05
622.125	35942.19
622.32	36216.62
622.515	37250.84
622.709	37465.88
622.904	38754.05
623.099	38551.31
623.294	40283.89
623.488	40210.16
623.683	41066.21
623.878	41447.13
624.072	42372.81
624.267	43024.07
624.462	43824.82
624.656	43814.58
624.851	45280.93
625.046	45471.39
625.24	46151.32
625.435	46880.39
625.629	47443.59
625.824	48017.02
626.018	48707.18
626.213	48504.43
626.407	49765.98
626.602	49974.87
626.796	50773.58
626.991	51015.24
627.185	51551.81
627.38	51623.49
627.574	52147.77
627.768	52407.86
627.963	52469.3
628.157	52729.39
628.352	53192.23
628.546	52796.98
628.74	53317.16
628.935	52770.35
629.129	53120.55
629.323	52909.61
629.517	52407.86
629.712	51807.81
629.906	51906.11
630.1	51074.63
630.294	51256.9
630.489	50345.56
630.683	50122.33
630.877	48590.45
631.071	48303.73
631.265	47826.56
631.459	46739.08
631.653	45909.66
631.848	45086.37
632.042	43857.59
632.236	43013.83
632.43	41371.36
632.624	40869.61
632.818	39425.79
633.012	37951.25
633.206	37066.53
633.4	35952.43
633.594	34533.19
633.788	33924.94
633.982	32649.06
634.176	31448.95
634.369	30506.88
634.563	29214.62
634.757	27924.4
634.951	27500.47
635.145	26292.16
635.339	25051.1
635.533	24131.56
635.726	23062.52
635.92	21696.52
636.114	21254.16
636.308	20570.14
636.501	19707.94
636.695	18806.84
636.889	17991.75
637.083	17246.29
637.276	16543.83
637.47	15716.45
637.664	15431.79
637.857	14575.73
638.051	14329.98
638.244	13375.63
638.438	12902.54
638.632	12503.19
638.825	11813.03
639.019	11548.84
639.212	10862.77
639.406	10545.33
639.599	10111.16
639.793	9898.17
639.986	9373.89
640.18	9253.06
640.373	8612.05
640.567	8480.98
640.76	8188.12
640.954	7758.05
641.147	7309.54
641.34	7078.12
641.534	6897.9
641.727	6719.73
641.92	6400.24
642.114	6220.02
642.307	5798.14
642.5	5796.09
642.694	5560.58
642.887	5175.56
643.08	5079.3
643.273	4958.47
643.467	4751.63
643.66	4370.71
643.853	4286.74
644.046	4165.91
644.239	3914.01
644.432	3819.8
644.626	3705.12
644.819	3528.99
645.012	3428.64
645.205	3277.09
645.398	3365.15
645.591	2933.03
645.784	2933.03
645.977	2773.29
646.17	2785.58
646.363	2615.6
646.556	2476.34
646.749	2445.62
646.942	2431.28
647.135	2214.2
647.328	2189.62
647.521	2066.74
647.714	1855.8
647.907	1960.25
648.099	1804.6
648.292	1950.01
648.485	1755.45
648.678	1734.97
648.871	1556.8
649.064	1542.46
649.256	1515.84
649.449	1296.71
649.642	1286.47
649.835	1280.32
650.027	1319.23
650.22	1313.09
650.413	1179.97
650.605	1184.07
650.798	1030.47
650.991	1032.52
651.183	1065.29
651.376	1014.09
651.568	1009.99
651.761	883.02
651.954	1034.57
652.146	919.88
652.339	923.98
652.531	889.16
652.724	706.89
652.916	786.76
653.109	586.06
653.301	823.62
653.494	753.99
653.686	606.54
653.879	692.55
654.071	803.15
654.263	694.6
654.456	600.4
654.648	624.97
654.84	670.03
655.033	590.16
655.225	647.5
655.417	436.56
655.61	567.63
655.802	596.3
655.994	612.68
656.186	444.75
656.379	541.01
656.571	438.61
656.763	407.89
656.955	366.93
657.148	524.62
657.34	491.85
657.532	467.28
657.724	375.12
657.916	340.3
658.108	387.41
658.3	336.21
658.492	399.7
658.684	307.54
658.876	426.32
659.068	276.82
659.26	293.2
659.452	209.23
659.644	377.17
659.836	397.65
660.028	285.01
660.22	235.86
660.412	301.39
660.604	295.25
660.796	266.58
660.988	346.45
661.18	332.11
661.372	356.69
661.563	309.58
661.755	268.63
661.947	176.47
662.139	158.03
662.331	280.91
662.522	258.39
662.714	219.47
662.906	172.37
663.097	256.34
663.289	125.27
663.481	162.13
663.673	250.19
663.864	198.99
664.056	231.76
664.247	203.09
664.439	383.31
664.631	219.47
664.822	266.58
665.014	231.76
665.205	180.56
665.397	190.8
665.588	186.71
665.78	164.18
665.971	207.19
666.163	160.08
666.354	203.09
666.546	110.93
666.737	170.32
666.929	166.23
667.12	221.52
667.311	217.43
667.503	211.28
667.694	219.47
667.885	235.86
668.077	225.62
668.268	115.03
668.459	180.56
668.651	254.29
668.842	198.99
669.033	112.98
669.224	84.31
669.416	305.49
669.607	135.51
669.798	127.32
669.989	328.02
670.18	135.51
670.371	233.81
670.563	76.12
670.754	256.34
670.945	182.61
671.136	307.54
671.327	102.74
671.518	254.29
671.709	317.78
671.9	237.91
672.091	242
672.282	242
672.473	213.33
672.664	139.6
672.855	174.42
673.046	252.24
673.237	278.87
673.428	223.57
673.619	262.48
673.809	203.09
674	289.1
674.191	186.71
674.382	201.04
674.573	141.65
674.764	205.14
674.954	274.77
675.145	135.51
675.336	162.13
675.527	88.4
675.717	258.39
675.908	186.71
676.099	153.94
676.289	235.86
676.48	102.74
676.671	192.85
676.861	223.57
677.052	182.61
677.243	217.43
677.433	203.09
677.624	225.62
677.814	198.99
678.005	203.09
678.195	325.97
678.386	162.13
678.576	225.62
678.767	153.94
678.957	242
679.148	252.24
679.338	297.3
679.529	311.63
679.719	246.1
679.909	311.63
680.1	272.72
680.29	223.57
680.481	155.99
680.671	250.19
680.861	280.91
681.052	264.53
681.242	235.86
681.432	239.95
681.622	229.71
681.813	149.84
682.003	291.15
682.193	188.75
682.383	291.15
682.573	295.25
682.764	219.47
682.954	289.1
683.144	395.6
683.334	223.57
683.524	258.39
683.714	305.49
683.904	395.6
684.094	272.72
684.284	291.15
684.474	358.74
684.664	319.82
684.854	285.01
685.044	350.54
685.234	375.12
685.424	315.73
685.614	207.19
685.804	360.78
685.994	325.97
686.184	330.06
686.374	250.19
686.564	285.01
686.753	366.93
686.943	233.81
687.133	297.3
687.323	213.33
687.513	350.54
687.702	362.83
687.892	266.58
688.082	319.82
688.272	313.68
688.461	250.19
688.651	450.89
688.841	299.34
689.03	268.63
689.22	256.34
689.41	334.16
689.599	342.35
689.789	121.17
689.979	383.31
690.168	360.78
690.358	313.68
690.547	266.58
690.737	420.17
690.926	205.14
691.116	311.63
691.305	385.36
691.495	358.74
691.684	237.91
691.874	233.81
692.063	164.18
692.252	311.63
692.442	348.5
692.631	129.36
692.82	293.2
693.01	246.1
693.199	207.19
693.388	258.39
693.578	266.58
693.767	170.32
693.956	307.54
694.146	348.5
694.335	321.87
694.524	231.76
694.713	407.89
694.902	246.1
695.092	239.95
695.281	358.74
695.47	194.9
695.659	258.39
695.848	272.72
696.037	162.13
696.226	328.02
696.415	229.71
696.604	250.19
696.793	270.67
696.982	229.71
697.171	321.87
697.36	293.2
697.549	242
697.738	213.33
697.927	141.65
698.116	141.65
698.305	325.97
698.494	225.62
698.683	231.76
698.872	358.74
699.061	221.52
699.25	254.29
699.438	164.18
699.627	180.56
699.816	407.89
700.005	139.6
700.193	192.85
700.382	248.15
700.571	276.82
700.76	266.58
700.948	368.98
701.137	348.5
701.326	233.81
701.514	143.7
701.703	344.4
701.892	203.09
702.08	465.23
702.269	190.8
702.457	186.71
702.646	301.39
702.834	242
703.023	278.87
703.212	338.26
703.4	354.64
703.589	207.19
703.777	235.86
703.965	227.67
704.154	174.42
704.342	153.94
704.531	211.28
704.719	201.04
704.907	293.2
705.096	227.67
705.284	176.47
705.472	209.23
705.661	287.06
705.849	303.44
706.037	266.58
706.226	272.72
706.414	293.2
706.602	153.94
706.79	254.29
706.979	278.87
707.167	260.43
707.355	207.19
707.543	280.91
707.731	262.48
707.919	217.43
708.107	235.86
708.296	125.27
708.484	174.42
708.672	295.25
708.86	235.86
709.048	305.49
709.236	133.46
709.424	250.19
709.612	235.86
709.8	129.36
709.988	289.1
710.176	319.82
710.364	323.92
710.551	229.71
710.739	274.77
710.927	209.23
711.115	268.63
711.303	305.49
711.491	330.06
711.679	203.09
711.866	328.02
712.054	186.71
712.242	246.1
712.43	383.31
712.617	203.09
712.805	356.69
712.993	235.86
713.181	125.27
713.368	297.3
713.556	248.15
713.744	209.23
713.931	440.65
714.119	342.35
714.306	301.39
714.494	231.76
714.682	295.25
714.869	192.85
715.057	190.8
715.244	119.12
715.432	293.2
715.619	233.81
715.807	266.58
715.994	244.05
716.182	272.72
716.369	344.4
716.556	252.24
716.744	262.48
716.931	178.51
717.119	285.01
717.306	209.23
717.493	342.35
717.681	213.33
717.868	194.9
718.055	315.73
718.242	196.95
718.43	274.77
718.617	364.88
718.804	178.51
718.991	305.49
719.179	368.98
719.366	323.92
719.553	291.15
719.74	252.24
719.927	215.38
720.114	311.63
720.301	221.52
720.488	96.6
720.676	198.99
720.863	307.54
721.05	469.33
721.237	295.25
721.424	328.02
721.611	264.53
721.798	104.79
721.985	203.09
722.172	194.9
722.358	211.28
722.545	362.83
722.732	280.91
722.919	383.31
723.106	295.25
723.293	317.78
723.48	219.47
723.667	217.43
723.853	434.51
724.04	305.49
724.227	360.78
724.414	274.77
724.6	317.78
724.787	422.22
724.974	395.6
725.161	278.87
725.347	264.53
725.534	379.22
725.72	307.54
725.907	403.79
726.094	315.73
726.28	207.19
726.467	258.39
726.653	182.61
726.84	434.51
727.027	395.6
727.213	280.91
727.4	315.73
727.586	260.43
727.773	268.63
727.959	254.29
728.145	305.49
728.332	332.11
728.518	287.06
728.705	323.92
728.891	321.87
729.077	336.21
729.264	223.57
729.45	252.24
729.636	403.79
729.823	336.21
730.009	440.65
730.195	321.87
730.382	364.88
730.568	233.81
730.754	309.58
730.94	321.87
731.126	377.17
731.313	397.65
731.499	289.1
731.685	383.31
731.871	305.49
732.057	307.54
732.243	321.87
732.429	377.17
732.615	430.41
732.801	250.19
732.987	336.21
733.173	350.54
733.359	225.62
733.545	323.92
733.731	350.54
733.917	336.21
734.103	405.84
734.289	364.88
734.475	291.15
734.661	401.74
734.847	381.26
735.033	244.05
735.219	387.41
735.404	242
735.59	297.3
735.776	334.16
735.962	315.73
736.148	385.36
736.333	401.74
736.519	315.73
736.705	262.48
736.89	332.11
737.076	297.3
737.262	342.35
737.447	260.43
737.633	244.05
737.819	371.02
738.004	301.39
738.19	377.17
738.375	332.11
738.561	424.27
738.747	350.54
738.932	203.09
739.118	401.74
739.303	411.98
739.489	440.65
739.674	311.63
739.859	297.3
740.045	362.83
740.23	350.54
740.416	133.46
740.601	393.55
740.786	344.4
740.972	242
741.157	328.02
741.342	223.57
741.528	207.19
741.713	483.66
741.898	272.72
742.084	291.15
742.269	305.49
742.454	438.61
742.639	407.89
742.824	239.95
743.01	448.85
743.195	452.94
743.38	266.58
743.565	323.92
743.75	311.63
743.935	389.46
744.12	434.51
744.305	229.71
744.49	325.97
744.675	323.92
744.86	264.53
745.045	368.98
745.23	229.71
745.415	270.67
745.6	457.04
745.785	158.03
745.97	473.42
746.155	344.4
746.34	354.64
746.525	264.53
746.71	436.56
746.895	207.19
747.079	229.71
747.264	272.72
747.449	305.49
747.634	352.59
747.819	364.88
748.003	287.06
748.188	219.47
748.373	287.06
748.557	248.15
748.742	219.47
748.927	309.58
749.111	305.49
749.296	213.33
749.481	274.77
749.665	307.54
749.85	248.15
750.034	242
750.219	280.91
750.404	227.67
750.588	293.2
750.773	108.88
750.957	231.76
751.141	262.48
751.326	348.5
751.51	168.27
751.695	311.63
751.879	254.29
752.064	399.7
752.248	270.67
752.432	297.3
752.617	285.01
752.801	305.49
752.985	186.71
753.17	219.47
753.354	211.28
753.538	155.99
753.722	194.9
753.907	227.67
754.091	225.62
754.275	233.81
754.459	92.5
754.643	98.64
754.828	313.68
755.012	196.95
755.196	86.36
755.38	246.1
755.564	194.9
755.748	192.85
755.932	233.81
756.116	285.01
756.3	217.43
756.484	135.51
756.668	229.71
756.852	96.6
757.036	203.09
757.22	135.51
757.404	166.23
757.588	172.37
757.772	295.25
757.956	78.16
758.14	239.95
758.323	184.66
758.507	227.67
758.691	145.75
758.875	151.89
759.059	303.44
759.242	139.6
759.426	176.47
759.61	170.32
759.794	209.23
759.977	272.72
760.161	401.74
760.345	282.96
760.528	250.19
760.712	260.43
760.895	225.62
761.079	127.32
761.263	174.42
761.446	63.83
761.63	166.23
761.813	295.25
761.997	123.22
762.18	129.36
762.364	153.94
762.547	-26.28
762.731	129.36
762.914	67.92
763.098	49.49
763.281	104.79
763.464	129.36
763.648	131.41
763.831	196.95
764.015	112.98
764.198	198.99
764.381	131.41
764.564	78.16
764.748	102.74
764.931	198.99
765.114	119.12
765.297	104.79
765.481	55.64
765.664	74.07
765.847	69.97
766.03	194.9
766.213	100.69
766.397	129.36
766.58	119.12
766.763	184.66
766.946	82.26
767.129	92.5
767.312	143.7
767.495	110.93
767.678	102.74
767.861	98.64
768.044	125.27
768.227	108.88
768.41	98.64
768.593	174.42
768.776	84.31
768.959	80.21
769.142	190.8
769.324	112.98
769.507	147.8
769.69	35.16
769.873	100.69
770.056	270.67
770.239	43.35
770.421	143.7
770.604	172.37
770.787	184.66
770.97	127.32
771.152	72.02
771.335	112.98
771.518	37.2
771.7	196.95
771.883	198.99
772.066	33.11
772.248	98.64
772.431	248.15
772.613	211.28
772.796	98.64
772.978	137.56
773.161	178.51
773.343	22.87
773.526	123.22
773.708	65.88
773.891	14.68
774.073	88.4
774.256	88.4
774.438	237.91
774.621	100.69
774.803	194.9
774.985	88.4
775.168	137.56
775.35	55.64
775.532	53.59
775.715	49.49
775.897	141.65
776.079	63.83
776.261	112.98
776.444	80.21
776.626	72.02
776.808	53.59
776.99	51.54
777.173	74.07
777.355	72.02
777.537	43.35
777.719	98.64
777.901	47.44
778.083	49.49
778.265	-40.62
778.447	131.41
778.629	65.88
778.811	135.51
778.993	147.8
779.175	153.94
779.357	133.46
779.539	24.92
779.721	96.6
779.903	129.36
780.085	45.4
780.267	153.94
780.449	55.64
780.631	104.79
780.812	170.32
780.994	55.64
781.176	22.87
781.358	108.88
781.54	59.73
781.721	65.88
781.903	162.13
782.085	59.73
782.267	141.65
782.448	-13.99
782.63	53.59
782.812	100.69
782.993	178.51
783.175	102.74
783.357	47.44
783.538	86.36
783.72	-85.67
783.901	26.96
784.083	178.51
784.264	88.4
784.446	0.34
784.627	-18.09
784.809	96.6
784.99	-42.67
785.172	104.79
785.353	49.49
785.535	37.2
785.716	-32.43
785.897	-18.09
786.079	-26.28
786.26	121.17
786.441	61.78
786.623	-91.82
786.804	16.73
786.985	-7.85
787.167	10.58
787.348	45.4
787.529	67.92
787.71	168.27
787.891	100.69
788.073	-63.15
788.254	84.31
788.435	137.56
788.616	57.68
788.797	29.01
788.978	43.35
789.159	-46.76
789.34	108.88
789.522	12.63
789.703	-28.33
789.884	92.5
790.065	53.59
790.246	231.76
790.427	-48.81
790.607	151.89
790.788	117.08
790.969	12.63
791.15	51.54
791.331	-50.86
791.512	-22.19
791.693	-32.43
791.874	10.58
792.054	188.75
792.235	88.4
792.416	-81.58
792.597	-5.8
792.778	121.17
792.958	67.92
793.139	129.36
793.32	31.06
793.5	-26.28
793.681	108.88
793.862	59.73
794.042	53.59
794.223	-77.48
794.404	-32.43
794.584	-26.28
794.765	-40.62
794.945	86.36
795.126	47.44
795.306	67.92
795.487	88.4
795.667	-11.95
795.848	80.21
796.028	-3.75
796.209	63.83
796.389	45.4
796.57	16.73
796.75	0.34
796.93	39.25
797.111	-36.52
797.291	-40.62
797.471	80.21
797.652	-11.95
797.832	6.49
798.012	49.49
798.192	18.77
798.373	-34.47
798.553	-54.95
798.733	67.92
798.913	-1.71
799.093	-16.04
799.274	41.3
799.454	80.21
799.634	100.69
799.814	82.26
799.994	12.63
800.174	74.07
800.354	8.53
800.534	-163.5
800.714	69.97
800.894	-26.28
801.074	-7.85
801.254	-18.09
801.434	92.5
801.614	22.87
801.794	-67.24
801.974	1915.19
802.154	-46.76
802.334	123.22
802.514	-63.15
802.693	31.06
802.873	10.58
803.053	20.82
803.233	39.25
803.413	-18.09
803.592	-28.33
803.772	-73.39
803.952	-36.52
804.131	-89.77
804.311	61.78
804.491	170.32
804.67	-67.24
804.85	26.96
805.03	35.16
805.209	76.12
805.389	16.73
805.568	-32.43
805.748	-65.19
805.928	4.44
806.107	2.39
806.287	51.54
806.466	-7.85
806.646	2.39
806.825	18.77
807.004	-16.04
807.184	8.53
807.363	4.44
807.543	57.68
807.722	-114.34
807.901	123.22
808.081	24.92
808.26	-149.16
808.439	-3.75
808.619	49.49
808.798	10.58
808.977	41.3
809.156	135.51
809.336	69.97
809.515	8.53
809.694	-38.57
809.873	-75.43
810.052	-9.9
810.231	135.51
810.411	24.92
810.59	4.44
810.769	-36.52
810.948	29.01
811.127	-97.96
811.306	-50.86
811.485	26.96
811.664	135.51
811.843	-18.09
812.022	104.79
812.201	14.68
812.38	-63.15
812.559	-5.8
812.737	-28.33
812.916	-69.29
813.095	-50.86
813.274	41.3
813.453	4.44
813.632	-5.8
813.811	55.64
813.989	-9.9
814.168	2.39
814.347	-83.63
814.526	-44.71
814.704	59.73
814.883	164.18
815.062	-63.15
815.24	31.06
815.419	-44.71
815.598	-28.33
815.776	-57
815.955	6.49
816.133	-100.01
816.312	47.44
816.49	-38.57
816.669	-22.19
816.847	55.64
817.026	86.36
817.204	-5.8
817.383	-75.43
817.561	-26.28
817.74	20.82
817.918	37.2
818.097	-44.71
818.275	31.06
818.453	115.03
818.632	100.69
818.81	-110.25
818.988	-67.24
819.167	-18.09
819.345	0.34
819.523	-36.52
819.701	10.58
819.879	78.16
820.058	-1.71
820.236	-1.71
820.414	16.73
820.592	29.01
820.77	-42.67
820.948	8.53
821.127	16.73
821.305	4.44
821.483	24.92
821.661	61.78
821.839	49.49
822.017	-95.91
822.195	-36.52
822.373	90.45
822.551	41.3
822.729	72.02
822.907	-50.86
823.085	47.44
823.262	2.39
823.44	16.73
823.618	-40.62
823.796	31.06
823.974	-26.28
824.152	37.2
824.329	-48.81
824.507	-44.71
824.685	2.39
824.863	39.25
825.04	31.06
825.218	125.27
825.396	6.49
825.574	69.97
825.751	-63.15
825.929	98.64
826.107	-120.49
826.284	135.51
826.462	63.83
826.639	-59.05
826.817	-42.67
826.994	43.35
827.172	-48.81
827.349	121.17
827.527	43.35
827.704	-69.29
827.882	-1.71
828.059	16.73
828.237	-65.19
828.414	-11.95
828.591	-89.77
828.769	-20.14
828.946	-100.01
829.124	86.36
829.301	53.59
829.478	-1.71
829.655	-3.75
829.833	35.16
830.01	-153.26
830.187	88.4
830.364	26.96
830.542	18.77
830.719	43.35
830.896	-30.38
831.073	69.97
831.25	45.4
831.427	39.25
831.604	-61.1
831.782	72.02
831.959	31.06
832.136	-28.33
832.313	41.3
832.49	-126.63
832.667	53.59
832.844	-34.47
833.021	90.45
833.198	37.2
833.374	-71.34
833.551	-5.8
833.728	-16.04
833.905	72.02
834.082	-110.25
834.259	49.49
834.436	106.84
834.612	-44.71
834.789	135.51
834.966	14.68
835.143	-20.14
835.319	-63.15
835.496	57.68
835.673	61.78
835.85	65.88
836.026	16.73
836.203	82.26
836.38	-71.34
836.556	-36.52
836.733	2.39
836.909	90.45
837.086	-73.39
837.262	-149.16
837.439	16.73
837.616	10.58
837.792	29.01
837.968	22.87
838.145	-177.83
838.321	-34.47
838.498	-36.52
838.674	14.68
838.851	4.44
839.027	-1.71
839.203	53.59
839.38	55.64
839.556	-79.53
839.732	57.68
839.909	-38.57
840.085	100.69
840.261	-95.91
840.437	8.53
840.614	-32.43
840.79	84.31
840.966	45.4
841.142	-9.9
841.318	-63.15
841.494	6.49
841.671	117.08
841.847	-48.81
842.023	-52.91
842.199	22.87
842.375	84.31
842.551	-134.82
842.727	-81.58
842.903	20.82
843.079	-87.72
843.255	82.26
843.431	4.44
843.607	125.27
843.783	-130.73
843.959	45.4
844.134	-83.63
844.31	80.21
844.486	-104.11
844.662	-36.52
844.838	-9.9
845.013	39.25
845.189	88.4
845.365	39.25
845.541	33.11
845.716	4.44
845.892	-34.47
846.068	51.54
846.244	-83.63
846.419	49.49
846.595	-5.8
846.77	-59.05
846.946	112.98
847.122	-36.52
847.297	-11.95
847.473	125.27
847.648	-69.29
847.824	6.49
847.999	-153.26
848.175	31.06
848.35	69.97
848.526	133.46
848.701	-13.99
848.876	86.36
849.052	147.8
849.227	20.82
849.403	0.34
849.578	-16.04
849.753	-85.67
849.929	-13.99
850.104	-77.48
850.279	-38.57
850.454	31.06
850.63	55.64
850.805	-18.09
850.98	-48.81
851.155	39.25
851.33	14.68
851.505	-165.54
851.681	57.68
851.856	-59.05
852.031	-18.09
852.206	-22.19
852.381	-59.05
852.556	-20.14
852.731	-3.75
852.906	53.59
853.081	18.77
853.256	98.64
853.431	10.58
853.606	10.58
853.781	-67.24
853.956	-38.57
854.131	4.44
854.305	-11.95
854.48	-3.75
854.655	-26.28
854.83	-65.19
855.005	29.01
855.18	12.63
855.354	-40.62
855.529	41.3
855.704	-13.99
855.879	0.34
856.053	-16.04
856.228	51.54
856.403	-48.81
856.577	0.34
856.752	-77.48
856.926	-44.71
857.101	29.01
857.276	-69.29
857.45	-18.09
857.625	47.44
857.799	6.49
857.974	-5.8
858.148	-145.06
858.323	-16.04
858.497	-63.15
858.672	-87.72
858.846	-110.25
859.02	47.44
859.195	-89.77
859.369	-89.77
859.543	0.34
859.718	-71.34
859.892	-44.71
860.066	16.73
860.241	-65.19
860.415	4.44
860.589	0.34
860.763	47.44
860.938	-13.99
861.112	65.88
861.286	6.49
861.46	-65.19
861.634	-57
861.808	43.35
861.982	-130.73
862.157	-97.96
862.331	-57
862.505	-171.69
862.679	-65.19
862.853	18.77
863.027	-77.48
863.201	51.54
863.375	-48.81
863.549	16.73
863.722	-63.15
863.896	24.92
864.07	-50.86
864.244	-24.23
864.418	35.16
864.592	-5.8
864.766	-20.14
864.939	-79.53
865.113	-30.38
865.287	-3.75
865.461	-71.34
865.634	55.64
865.808	31.06
865.982	-54.95
866.156	-112.3
866.329	-108.2
866.503	4.44
866.676	29.01
866.85	22.87
867.024	-110.25
867.197	61.78
867.371	26.96
867.544	-44.71
867.718	-97.96
867.891	59.73
868.065	-30.38
868.238	-5.8
868.412	-42.67
868.585	18.77
868.759	-22.19
868.932	-48.81
869.105	-136.87
869.279	2.39
869.452	-130.73
869.625	31.06
869.799	-42.67
869.972	-54.95
870.145	-20.14
870.319	10.58
870.492	-28.33
870.665	2.39
870.838	6.49
871.011	-175.78
871.185	-40.62
871.358	-34.47
871.531	12.63
871.704	-67.24
871.877	-1.71
872.05	-48.81
872.223	-85.67
872.396	90.45
872.569	16.73
872.742	-118.44
872.915	20.82
873.088	-54.95
873.261	-85.67
873.434	35.16
873.607	14.68
873.78	12.63
873.953	-73.39
874.126	43.35
874.299	80.21
874.471	-95.91
874.644	-22.19
874.817	43.35
874.99	133.46
875.163	-42.67
875.335	-1.71
875.508	-112.3
875.681	88.4
875.853	-50.86
876.026	-20.14
876.199	18.77
876.371	26.96
876.544	24.92
876.717	-63.15
876.889	-81.58
877.062	24.92
877.234	-1.71
877.407	-34.47
877.579	22.87
877.752	16.73
877.924	106.84
878.097	16.73
878.269	6.49
878.442	-67.24
878.614	35.16
878.786	24.92
878.959	-20.14
879.131	-18.09
879.303	-143.02
879.476	-112.3
879.648	53.59
879.82	-26.28
879.993	-75.43
880.165	-100.01
880.337	-132.78
880.509	-5.8
880.681	-134.82
880.854	-3.75
881.026	24.92
881.198	135.51
881.37	-9.9
881.542	-61.1
881.714	-46.76
881.886	-91.82
882.058	-30.38
882.23	-73.39
882.402	-38.57
882.574	-1.71
882.746	117.08
882.918	65.88
883.09	-13.99
883.262	37.2
883.434	12.63
883.606	-110.25
883.778	8.53
883.95	51.54
884.122	31.06
884.293	112.98
884.465	57.68
884.637	33.11
884.809	-69.29
884.98	-63.15
885.152	117.08
885.324	-24.23
885.496	33.11
885.667	-93.87
885.839	-26.28
886.011	96.6
886.182	55.64
886.354	84.31
886.525	-42.67
886.697	96.6
886.869	-32.43
887.04	-16.04
887.212	117.08
887.383	131.41
887.555	-18.09
887.726	-67.24
887.897	-22.19
888.069	6.49
888.24	24.92
888.412	-52.91
888.583	-73.39
888.754	-1.71
888.926	-132.78
889.097	-112.3
889.268	-52.91
889.44	41.3
889.611	-120.49
889.782	-75.43
889.953	-126.63
890.125	98.64
890.296	-77.48
890.467	-71.34
890.638	6.49
890.809	-48.81
890.98	-54.95
891.151	0.34
891.323	51.54
891.494	29.01
891.665	41.3
891.836	-67.24
892.007	-22.19
892.178	4.44
892.349	-50.86
892.52	-95.91
892.691	51.54
892.862	-44.71
893.032	-91.82
893.203	8.53
893.374	-18.09
893.545	104.79
893.716	4.44
893.887	22.87
894.057	-13.99
894.228	10.58
894.399	-28.33
894.57	160.08
894.74	-7.85
894.911	63.83
895.082	22.87
895.253	-57
895.423	63.83
895.594	0.34
895.764	100.69
895.935	-89.77
896.106	72.02
896.276	-126.63
896.447	-1.71
896.617	-38.57
896.788	4.44
896.958	-73.39
897.129	-1.71
897.299	-104.11
897.47	108.88
897.64	33.11
897.81	-54.95
897.981	8.53
898.151	-52.91
898.322	57.68
898.492	35.16
898.662	0.34
898.832	-36.52
899.003	51.54
899.173	-44.71
899.343	-89.77
899.513	-5.8
