Data from USB4F104151__260__11-20-22-834.txt Node

Date: Wed Feb 26 11:20:22 EST 2025
User: louis
Spectrometer: USB4F10415
Trigger mode: 4
Integration Time (sec): 1.000000E-1
Scans to average: 1
Electric dark correction enabled: true
Nonlinearity correction enabled: false
Boxcar width: 0
XAxis mode: Wavelengths
Number of Pixels in Spectrum: 3648
>>>>>Begin Spectral Data<<<<<
178.204	-410.45
178.424	-410.45
178.644	-410.45
178.864	-424.78
179.084	-373.58
179.304	-131.92
179.524	-56.15
179.744	-9.05
179.964	105.64
180.184	42.15
180.404	115.88
180.624	-15.19
180.844	-41.81
181.064	-29.52
181.283	87.21
181.503	-84.82
181.723	17.58
181.943	-72.53
182.163	70.83
182.383	7.34
182.602	60.59
182.822	158.89
183.042	3.24
183.262	-37.72
183.482	54.44
183.701	130.22
183.921	142.5
184.141	-78.68
184.361	113.83
184.58	97.45
184.8	42.15
185.02	-43.86
185.239	126.12
185.459	134.31
185.679	109.74
185.898	-103.25
186.118	95.4
186.338	48.3
186.557	128.17
186.777	-101.2
186.997	13.48
187.216	27.82
187.436	185.51
187.655	76.97
187.875	122.02
188.095	50.35
188.314	76.97
188.534	119.98
188.753	27.82
188.973	193.7
189.192	179.37
189.412	-0.85
189.631	23.72
189.851	23.72
190.07	150.7
190.29	48.3
190.509	-27.48
190.729	105.64
190.948	109.74
191.168	228.52
191.387	115.88
191.607	-15.19
191.826	109.74
192.045	-31.57
192.265	-62.29
192.484	-11.09
192.704	-11.09
192.923	-29.52
193.142	208.04
193.362	138.41
193.581	150.7
193.8	154.79
194.02	124.07
194.239	85.16
194.458	25.77
194.678	-0.85
194.897	52.39
195.116	81.07
195.335	7.34
195.555	31.91
195.774	-2.9
195.993	111.78
196.212	21.67
196.432	15.53
196.651	21.67
196.87	81.07
197.089	199.85
197.308	66.73
197.528	54.44
197.747	-58.2
197.966	58.54
198.185	154.79
198.404	-88.92
198.623	81.07
198.842	79.02
199.062	212.14
199.281	107.69
199.5	72.87
199.719	119.98
199.938	72.87
200.157	111.78
200.376	138.41
200.595	148.65
200.814	109.74
201.033	54.44
201.252	208.04
201.471	111.78
201.69	146.6
201.909	62.63
202.128	40.11
202.347	101.55
202.566	-29.52
202.785	5.29
203.004	27.82
203.223	230.57
203.442	93.35
203.661	-70.48
203.879	122.02
204.098	193.7
204.317	15.53
204.536	72.87
204.755	99.5
204.974	46.25
205.193	3.24
205.411	210.09
205.63	142.5
205.849	93.35
206.068	31.91
206.287	-60.24
206.505	148.65
206.724	72.87
206.943	46.25
207.162	-0.85
207.381	87.21
207.599	99.5
207.818	126.12
208.037	-25.43
208.255	179.37
208.474	54.44
208.693	76.97
208.911	-19.29
209.13	154.79
209.349	130.22
209.567	87.21
209.786	113.83
210.005	232.62
210.223	23.72
210.442	-107.35
210.661	62.63
210.879	83.11
211.098	76.97
211.316	58.54
211.535	115.88
211.753	40.11
211.972	89.26
212.191	-15.19
212.409	17.58
212.628	42.15
212.846	21.67
213.065	70.83
213.283	111.78
213.502	42.15
213.72	23.72
213.938	23.72
214.157	5.29
214.375	185.51
214.594	46.25
214.812	89.26
215.031	-23.38
215.249	1.19
215.467	70.83
215.686	64.68
215.904	64.68
216.122	58.54
216.341	95.4
216.559	122.02
216.778	150.7
216.996	210.09
217.214	29.87
217.432	62.63
217.651	-29.52
217.869	87.21
218.087	21.67
218.306	42.15
218.524	38.06
218.742	3.24
218.96	136.36
219.179	31.91
219.397	38.06
219.615	277.67
219.833	5.29
220.051	-64.34
220.27	111.78
220.488	154.79
220.706	140.46
220.924	7.34
221.142	33.96
221.36	54.44
221.578	38.06
221.796	21.67
222.015	48.3
222.233	17.58
222.451	171.18
222.669	-31.57
222.887	79.02
223.105	74.92
223.323	60.59
223.541	-33.62
223.759	29.87
223.977	27.82
224.195	140.46
224.413	68.78
224.631	66.73
224.849	97.45
225.067	203.94
225.285	42.15
225.503	64.68
225.721	-146.26
225.939	48.3
226.157	-4.95
226.375	173.22
226.592	60.59
226.81	25.77
227.028	105.64
227.246	197.8
227.464	62.63
227.682	158.89
227.9	44.2
228.117	87.21
228.335	95.4
228.553	36.01
228.771	36.01
228.989	11.43
229.206	158.89
229.424	5.29
229.642	-33.62
229.86	-2.9
230.077	236.71
230.295	-2.9
230.513	156.84
230.731	66.73
230.948	230.57
231.166	138.41
231.384	150.7
231.601	-11.09
231.819	267.43
232.037	50.35
232.254	5.29
232.472	85.16
232.689	-37.72
232.907	212.14
233.125	1.19
233.342	7.34
233.56	-23.38
233.777	-9.05
233.995	50.35
234.213	130.22
234.43	117.93
234.648	13.48
234.865	31.91
235.083	38.06
235.3	52.39
235.518	152.74
235.735	201.9
235.953	111.78
236.17	13.48
236.388	11.43
236.605	87.21
236.822	56.49
237.04	142.5
237.257	68.78
237.475	15.53
237.692	76.97
237.909	70.83
238.127	15.53
238.344	134.31
238.562	29.87
238.779	46.25
238.996	23.72
239.214	46.25
239.431	89.26
239.648	58.54
239.865	-27.48
240.083	68.78
240.3	13.48
240.517	3.24
240.735	72.87
240.952	134.31
241.169	13.48
241.386	148.65
241.603	5.29
241.821	-47.96
242.038	23.72
242.255	189.61
242.472	21.67
242.689	122.02
242.907	99.5
243.124	93.35
243.341	-4.95
243.558	-7
243.775	-13.14
243.992	-35.67
244.209	72.87
244.426	179.37
244.643	105.64
244.86	-56.15
245.078	105.64
245.295	66.73
245.512	27.82
245.729	33.96
245.946	87.21
246.163	62.63
246.38	36.01
246.597	76.97
246.814	23.72
247.031	42.15
247.248	29.87
247.464	132.26
247.681	-11.09
247.898	101.55
248.115	99.5
248.332	15.53
248.549	138.41
248.766	193.7
248.983	140.46
249.2	81.07
249.417	171.18
249.633	62.63
249.85	58.54
250.067	-29.52
250.284	40.11
250.501	107.69
250.717	48.3
250.934	-39.76
251.151	17.58
251.368	17.58
251.585	83.11
251.801	83.11
252.018	-113.49
252.235	193.7
252.451	-119.64
252.668	-23.38
252.885	117.93
253.102	21.67
253.318	7.34
253.535	95.4
253.752	25.77
253.968	3.24
254.185	-19.29
254.401	58.54
254.618	185.51
254.835	68.78
255.051	52.39
255.268	113.83
255.484	64.68
255.701	52.39
255.917	128.17
256.134	-21.33
256.351	126.12
256.567	-43.86
256.784	87.21
257	-9.05
257.217	169.13
257.433	148.65
257.65	52.39
257.866	132.26
258.082	-33.62
258.299	33.96
258.515	58.54
258.732	25.77
258.948	17.58
259.165	25.77
259.381	-21.33
259.597	91.31
259.814	111.78
260.03	1.19
260.246	74.92
260.463	144.55
260.679	113.83
260.895	97.45
261.112	62.63
261.328	85.16
261.544	19.63
261.761	205.99
261.977	68.78
262.193	13.48
262.409	140.46
262.626	62.63
262.842	140.46
263.058	-54.1
263.274	128.17
263.49	97.45
263.707	99.5
263.923	128.17
264.139	-17.24
264.355	52.39
264.571	140.46
264.787	27.82
265.004	91.31
265.22	44.2
265.436	-2.9
265.652	46.25
265.868	130.22
266.084	-13.14
266.3	-41.81
266.516	-50
266.732	46.25
266.948	7.34
267.164	1.19
267.38	99.5
267.596	19.63
267.812	132.26
268.028	11.43
268.244	27.82
268.46	95.4
268.676	15.53
268.892	42.15
269.108	-41.81
269.324	-64.34
269.54	-103.25
269.756	95.4
269.972	-111.44
270.188	21.67
270.403	-80.72
270.619	23.72
270.835	132.26
271.051	56.49
271.267	48.3
271.483	48.3
271.698	109.74
271.914	76.97
272.13	-0.85
272.346	-19.29
272.562	48.3
272.777	97.45
272.993	-19.29
273.209	33.96
273.425	117.93
273.64	-15.19
273.856	62.63
274.072	-4.95
274.287	60.59
274.503	38.06
274.719	81.07
274.934	95.4
275.15	7.34
275.366	89.26
275.581	-13.14
275.797	11.43
276.012	60.59
276.228	23.72
276.444	5.29
276.659	146.6
276.875	83.11
277.09	-25.43
277.306	11.43
277.521	138.41
277.737	23.72
277.952	60.59
278.168	50.35
278.383	-13.14
278.599	46.25
278.814	89.26
279.03	109.74
279.245	89.26
279.461	113.83
279.676	87.21
279.892	19.63
280.107	36.01
280.322	-4.95
280.538	64.68
280.753	-50
280.969	31.91
281.184	-25.43
281.399	126.12
281.615	48.3
281.83	70.83
282.045	-86.87
282.26	38.06
282.476	38.06
282.691	95.4
282.906	50.35
283.122	56.49
283.337	11.43
283.552	62.63
283.767	-7
283.983	105.64
284.198	79.02
284.413	95.4
284.628	-31.57
284.843	58.54
285.058	150.7
285.274	38.06
285.489	-4.95
285.704	97.45
285.919	-64.34
286.134	124.07
286.349	36.01
286.564	56.49
286.779	154.79
286.995	72.87
287.21	-45.91
287.425	122.02
287.64	-15.19
287.855	107.69
288.07	-103.25
288.285	68.78
288.5	175.27
288.715	3.24
288.93	42.15
289.145	31.91
289.36	97.45
289.575	-17.24
289.79	146.6
290.004	36.01
290.219	144.55
290.434	-62.29
290.649	25.77
290.864	68.78
291.079	-35.67
291.294	138.41
291.509	109.74
291.724	38.06
291.938	-0.85
292.153	64.68
292.368	-4.95
292.583	42.15
292.798	-15.19
293.012	42.15
293.227	48.3
293.442	44.2
293.657	81.07
293.871	134.31
294.086	126.12
294.301	187.56
294.516	115.88
294.73	21.67
294.945	-25.43
295.16	3.24
295.374	87.21
295.589	152.74
295.804	52.39
296.018	76.97
296.233	105.64
296.447	68.78
296.662	-64.34
296.877	130.22
297.091	113.83
297.306	46.25
297.52	11.43
297.735	169.13
297.949	60.59
298.164	60.59
298.378	40.11
298.593	40.11
298.807	-43.86
299.022	42.15
299.236	130.22
299.451	29.87
299.665	11.43
299.88	38.06
300.094	27.82
300.309	-13.14
300.523	74.92
300.737	-13.14
300.952	1.19
301.166	64.68
301.381	50.35
301.595	46.25
301.809	62.63
302.024	5.29
302.238	-84.82
302.452	191.66
302.667	36.01
302.881	119.98
303.095	119.98
303.309	134.31
303.524	9.39
303.738	7.34
303.952	-29.52
304.166	101.55
304.381	-60.24
304.595	165.03
304.809	122.02
305.023	-4.95
305.237	-11.09
305.452	-0.85
305.666	154.79
305.88	109.74
306.094	140.46
306.308	7.34
306.522	38.06
306.736	56.49
306.95	91.31
307.164	101.55
307.379	21.67
307.593	152.74
307.807	181.42
308.021	117.93
308.235	33.96
308.449	-86.87
308.663	97.45
308.877	271.53
309.091	74.92
309.305	50.35
309.519	-52.05
309.733	50.35
309.947	-60.24
310.161	13.48
310.374	126.12
310.588	191.66
310.802	15.53
311.016	64.68
311.23	36.01
311.444	-25.43
311.658	3.24
311.872	228.52
312.085	113.83
312.299	122.02
312.513	138.41
312.727	21.67
312.941	-7
313.154	60.59
313.368	50.35
313.582	89.26
313.796	64.68
314.009	74.92
314.223	156.84
314.437	95.4
314.651	134.31
314.864	-9.05
315.078	50.35
315.292	-84.82
315.505	17.58
315.719	68.78
315.933	70.83
316.146	74.92
316.36	-52.05
316.573	122.02
316.787	109.74
317.001	70.83
317.214	-4.95
317.428	93.35
317.641	-2.9
317.855	15.53
318.068	128.17
318.282	52.39
318.495	197.8
318.709	64.68
318.922	93.35
319.136	101.55
319.349	105.64
319.563	-4.95
319.776	109.74
319.99	-47.96
320.203	87.21
320.417	-2.9
320.63	134.31
320.843	119.98
321.057	111.78
321.27	58.54
321.483	97.45
321.697	99.5
321.91	95.4
322.124	81.07
322.337	89.26
322.55	7.34
322.763	93.35
322.977	101.55
323.19	40.11
323.403	15.53
323.617	62.63
323.83	169.13
324.043	3.24
324.256	70.83
324.469	9.39
324.683	171.18
324.896	52.39
325.109	9.39
325.322	-97.11
325.535	130.22
325.748	99.5
325.962	128.17
326.175	42.15
326.388	66.73
326.601	109.74
326.814	15.53
327.027	-0.85
327.24	191.66
327.453	-31.57
327.666	119.98
327.879	109.74
328.092	-2.9
328.305	85.16
328.518	31.91
328.731	-25.43
328.944	15.53
329.157	93.35
329.37	3.24
329.583	132.26
329.796	105.64
330.009	11.43
330.222	60.59
330.435	101.55
330.648	87.21
330.861	3.24
331.073	58.54
331.286	132.26
331.499	15.53
331.712	5.29
331.925	19.63
332.138	46.25
332.35	105.64
332.563	-27.48
332.776	119.98
332.989	-50
333.202	33.96
333.414	38.06
333.627	27.82
333.84	-66.39
334.053	52.39
334.265	1.19
334.478	15.53
334.691	40.11
334.903	95.4
335.116	1.19
335.329	27.82
335.541	119.98
335.754	79.02
335.966	3.24
336.179	85.16
336.392	36.01
336.604	-47.96
336.817	148.65
337.029	29.87
337.242	42.15
337.454	119.98
337.667	62.63
337.88	132.26
338.092	89.26
338.305	109.74
338.517	25.77
338.729	62.63
338.942	128.17
339.154	-0.85
339.367	-0.85
339.579	122.02
339.792	-64.34
340.004	130.22
340.217	-21.33
340.429	-11.09
340.641	-21.33
340.854	-4.95
341.066	9.39
341.278	154.79
341.491	165.03
341.703	-43.86
341.915	-2.9
342.128	113.83
342.34	132.26
342.552	-15.19
342.764	-21.33
342.977	52.39
343.189	31.91
343.401	15.53
343.613	-72.53
343.826	56.49
344.038	36.01
344.25	91.31
344.462	83.11
344.674	44.2
344.886	85.16
345.099	93.35
345.311	81.07
345.523	-27.48
345.735	-43.86
345.947	83.11
346.159	29.87
346.371	19.63
346.583	64.68
346.795	183.46
347.007	66.73
347.219	117.93
347.431	95.4
347.643	156.84
347.855	42.15
348.067	160.94
348.279	27.82
348.491	99.5
348.703	89.26
348.915	11.43
349.127	23.72
349.339	-23.38
349.551	7.34
349.763	162.98
349.975	-4.95
350.187	122.02
350.399	152.74
350.61	99.5
350.822	52.39
351.034	79.02
351.246	50.35
351.458	105.64
351.669	126.12
351.881	74.92
352.093	117.93
352.305	113.83
352.517	68.78
352.728	66.73
352.94	44.2
353.152	105.64
353.363	-45.91
353.575	29.87
353.787	165.03
353.999	60.59
354.21	126.12
354.422	15.53
354.633	72.87
354.845	-4.95
355.057	165.03
355.268	33.96
355.48	101.55
355.692	23.72
355.903	50.35
356.115	-52.05
356.326	-78.68
356.538	111.78
356.749	113.83
356.961	169.13
357.172	50.35
357.384	-11.09
357.595	203.94
357.807	-33.62
358.018	-35.67
358.23	1.19
358.441	201.9
358.653	72.87
358.864	23.72
359.075	-15.19
359.287	109.74
359.498	101.55
359.709	85.16
359.921	95.4
360.132	-0.85
360.344	-17.24
360.555	-41.81
360.766	66.73
360.977	-21.33
361.189	95.4
361.4	31.91
361.611	122.02
361.823	181.42
362.034	103.59
362.245	13.48
362.456	-17.24
362.667	93.35
362.879	-72.53
363.09	101.55
363.301	40.11
363.512	52.39
363.723	40.11
363.935	-39.76
364.146	111.78
364.357	64.68
364.568	48.3
364.779	-115.54
364.99	101.55
365.201	13.48
365.412	87.21
365.623	-45.91
365.834	58.54
366.045	33.96
366.256	50.35
366.467	105.64
366.678	152.74
366.889	87.21
367.1	-31.57
367.311	81.07
367.522	-9.05
367.733	165.03
367.944	119.98
368.155	15.53
368.366	85.16
368.577	171.18
368.788	132.26
368.999	-43.86
369.209	74.92
369.42	261.29
369.631	181.42
369.842	83.11
370.053	95.4
370.264	85.16
370.474	-37.72
370.685	117.93
370.896	101.55
371.107	148.65
371.317	158.89
371.528	31.91
371.739	142.5
371.95	162.98
372.16	154.79
372.371	-2.9
372.582	15.53
372.792	79.02
373.003	107.69
373.214	19.63
373.424	95.4
373.635	5.29
373.846	167.08
374.056	83.11
374.267	79.02
374.477	66.73
374.688	50.35
374.898	56.49
375.109	21.67
375.319	11.43
375.53	109.74
375.74	72.87
375.951	60.59
376.161	101.55
376.372	97.45
376.582	-27.48
376.793	76.97
377.003	27.82
377.214	48.3
377.424	46.25
377.635	115.88
377.845	-0.85
378.055	144.55
378.266	-27.48
378.476	31.91
378.686	56.49
378.897	126.12
379.107	113.83
379.317	95.4
379.528	11.43
379.738	87.21
379.948	19.63
380.158	107.69
380.369	15.53
380.579	-2.9
380.789	56.49
380.999	46.25
381.21	122.02
381.42	150.7
381.63	60.59
381.84	175.27
382.05	72.87
382.261	140.46
382.471	171.18
382.681	15.53
382.891	152.74
383.101	72.87
383.311	13.48
383.521	87.21
383.731	42.15
383.941	56.49
384.151	83.11
384.361	70.83
384.571	44.2
384.781	54.44
384.991	187.56
385.201	179.37
385.411	70.83
385.621	56.49
385.831	89.26
386.041	152.74
386.251	62.63
386.461	138.41
386.671	1.19
386.881	19.63
387.091	7.34
387.301	138.41
387.511	19.63
387.72	52.39
387.93	40.11
388.14	-25.43
388.35	19.63
388.56	152.74
388.769	89.26
388.979	60.59
389.189	-31.57
389.399	23.72
389.609	132.26
389.818	146.6
390.028	1.19
390.238	81.07
390.447	83.11
390.657	109.74
390.867	31.91
391.076	-13.14
391.286	60.59
391.496	54.44
391.705	1.19
391.915	205.99
392.125	89.26
392.334	136.36
392.544	132.26
392.753	122.02
392.963	-39.76
393.172	54.44
393.382	1.19
393.591	150.7
393.801	95.4
394.01	203.94
394.22	97.45
394.429	142.5
394.639	134.31
394.848	101.55
395.058	48.3
395.267	68.78
395.477	136.36
395.686	38.06
395.895	201.9
396.105	203.94
396.314	136.36
396.524	23.72
396.733	29.87
396.942	48.3
397.152	124.07
397.361	152.74
397.57	27.82
397.78	-19.29
397.989	126.12
398.198	165.03
398.407	42.15
398.617	31.91
398.826	76.97
399.035	1.19
399.244	101.55
399.453	33.96
399.663	44.2
399.872	113.83
400.081	3.24
400.29	134.31
400.499	-47.96
400.708	105.64
400.917	11.43
401.127	68.78
401.336	-19.29
401.545	179.37
401.754	105.64
401.963	105.64
402.172	36.01
402.381	54.44
402.59	46.25
402.799	87.21
403.008	64.68
403.217	109.74
403.426	97.45
403.635	-45.91
403.844	62.63
404.053	70.83
404.262	40.11
404.471	150.7
404.68	52.39
404.888	46.25
405.097	-31.57
405.306	89.26
405.515	111.78
405.724	21.67
405.933	109.74
406.142	117.93
406.35	150.7
406.559	31.91
406.768	72.87
406.977	162.98
407.185	97.45
407.394	126.12
407.603	17.58
407.812	46.25
408.02	142.5
408.229	9.39
408.438	109.74
408.646	-25.43
408.855	15.53
409.064	76.97
409.272	117.93
409.481	101.55
409.69	-13.14
409.898	-0.85
410.107	29.87
410.315	136.36
410.524	40.11
410.733	50.35
410.941	105.64
411.15	44.2
411.358	81.07
411.567	97.45
411.775	87.21
411.984	85.16
412.192	136.36
412.401	38.06
412.609	173.22
412.818	148.65
413.026	70.83
413.234	58.54
413.443	154.79
413.651	5.29
413.86	27.82
414.068	154.79
414.276	183.46
414.485	-37.72
414.693	183.46
414.901	208.04
415.11	58.54
415.318	97.45
415.526	66.73
415.734	74.92
415.943	52.39
416.151	146.6
416.359	58.54
416.567	126.12
416.776	134.31
416.984	72.87
417.192	220.33
417.4	74.92
417.608	23.72
417.817	50.35
418.025	226.47
418.233	177.32
418.441	-11.09
418.649	-15.19
418.857	97.45
419.065	140.46
419.273	9.39
419.481	17.58
419.689	66.73
419.897	89.26
420.105	7.34
420.313	185.51
420.521	173.22
420.729	107.69
420.937	-2.9
421.145	31.91
421.353	122.02
421.561	109.74
421.769	81.07
421.977	17.58
422.185	38.06
422.393	95.4
422.601	136.36
422.809	89.26
423.017	91.31
423.224	42.15
423.432	132.26
423.64	109.74
423.848	140.46
424.056	40.11
424.263	126.12
424.471	33.96
424.679	197.8
424.887	40.11
425.094	50.35
425.302	122.02
425.51	13.48
425.718	146.6
425.925	89.26
426.133	-39.76
426.341	208.04
426.548	107.69
426.756	76.97
426.964	162.98
427.171	50.35
427.379	107.69
427.586	66.73
427.794	136.36
428.001	126.12
428.209	138.41
428.417	234.66
428.624	130.22
428.832	124.07
429.039	103.59
429.247	95.4
429.454	101.55
429.662	117.93
429.869	224.42
430.076	76.97
430.284	191.66
430.491	130.22
430.699	87.21
430.906	238.76
431.114	105.64
431.321	140.46
431.528	197.8
431.736	124.07
431.943	224.42
432.15	236.71
432.358	310.44
432.565	203.94
432.772	97.45
432.979	242.85
433.187	109.74
433.394	375.97
433.601	119.98
433.808	283.81
434.016	308.39
434.223	267.43
434.43	199.85
434.637	322.73
434.844	269.48
435.052	349.35
435.259	312.49
435.466	357.54
435.673	324.77
435.88	328.87
436.087	418.98
436.294	294.05
436.501	416.93
436.708	380.07
436.915	378.02
437.122	504.99
437.329	367.78
437.537	380.07
437.743	365.73
437.95	500.9
438.157	472.23
438.364	517.28
438.571	445.6
438.778	564.39
438.985	533.67
439.192	545.95
439.399	509.09
439.606	572.58
439.813	580.77
440.02	691.36
440.227	787.61
440.433	644.26
440.64	642.21
440.847	566.43
441.054	711.84
441.261	781.47
441.467	763.04
441.674	715.94
441.881	832.67
442.088	810.14
442.294	859.29
442.501	887.97
442.708	996.51
442.914	859.29
443.121	1064.09
443.328	976.03
443.534	1125.53
443.741	1031.32
443.948	976.03
444.154	1186.97
444.361	1326.23
444.568	1211.54
444.774	1213.59
444.981	1158.3
445.187	1436.82
445.394	1430.68
445.6	1361.05
445.807	1633.43
446.013	1569.94
446.22	1574.03
446.426	1703.06
446.633	1741.97
446.839	1930.38
447.046	1737.87
447.252	1901.71
447.459	1850.51
447.665	1922.19
447.871	2165.9
448.078	2423.94
448.284	2198.67
448.491	2423.94
448.697	2489.48
448.903	2538.63
449.11	2673.79
449.316	2694.27
449.522	2976.89
449.728	3007.61
449.935	2974.85
450.141	2972.8
450.347	3222.65
450.553	3099.77
450.76	3370.1
450.966	3423.35
451.172	3515.51
451.378	3646.58
451.584	3759.22
451.791	4070.51
451.997	4158.57
452.203	4134
452.409	4510.82
452.615	4576.36
452.821	4404.33
453.027	4578.4
453.233	5119.07
453.44	4992.09
453.646	5502.04
453.852	5483.61
454.058	5753.94
454.264	5885.01
454.47	6169.68
454.676	6372.43
454.882	6800.45
455.088	6452.3
455.294	6890.56
455.5	7394.36
455.705	7670.84
455.911	7771.19
456.117	8117.29
456.323	8197.17
456.529	8315.95
456.735	9155.61
456.941	9235.49
457.147	9632.79
457.352	9800.73
457.558	10238.99
457.764	10771.46
457.97	11246.59
458.176	11582.46
458.381	11863.03
458.587	12293.1
458.793	12977.12
458.999	12960.74
459.204	14488.53
459.41	14873.54
459.616	14717.9
459.821	15649.72
460.027	16266.16
460.233	17189.8
460.438	16896.94
460.644	18004.89
460.85	18015.13
461.055	18817.93
461.261	19966.84
461.466	19590.02
461.672	19645.31
461.878	22192.98
462.083	21803.87
462.289	22160.22
462.494	23325.51
462.7	23337.8
462.905	23649.09
463.111	25852.7
463.316	26815.25
463.522	27290.38
463.727	28238.59
463.932	29481.7
464.138	30128.86
464.343	31298.25
464.549	31566.54
464.754	33598.12
464.959	34673.31
465.165	34833.05
465.37	34804.38
465.575	35197.59
465.781	37436.02
465.986	38416.99
466.191	37796.46
466.397	38376.03
466.602	37192.31
466.807	39119.45
467.012	39696.97
467.218	40821.31
467.423	41003.58
467.628	41849.39
467.833	44159.5
468.038	43182.62
468.244	42439.2
468.449	44372.49
468.654	43872.78
468.859	43835.92
469.064	44079.63
469.269	42762.78
469.474	43155.99
469.679	44243.46
469.885	43127.32
470.09	43510.29
470.295	43526.67
470.5	42756.64
470.705	43192.86
470.91	41976.36
471.115	41486.9
471.32	42373.67
471.525	41888.3
471.73	40841.79
471.935	40667.71
472.139	39107.16
472.344	38808.15
472.549	39029.34
472.754	37921.38
472.959	37306.99
473.164	35988.1
473.369	35783.3
473.574	36264.58
473.778	35955.33
473.983	35000.98
474.188	34652.83
474.393	32922.29
474.598	33096.37
474.802	32383.68
475.007	31748.81
475.212	31468.23
475.417	30241.5
475.621	30194.4
475.826	29965.03
476.031	28865.27
476.235	28177.15
476.44	28214.01
476.645	27538.18
476.849	27403.02
477.054	27003.66
477.259	26043.17
477.463	26342.17
477.668	25451.3
477.872	25553.7
478.077	24994.61
478.282	24169.27
478.486	23835.45
478.691	23655.23
478.895	23444.29
479.1	23135.05
479.304	22977.36
479.509	22145.88
479.713	22557.52
479.918	21785.44
480.122	21783.39
480.326	21687.14
480.531	21515.11
480.735	21529.44
480.94	21197.67
481.144	21511.01
481.348	20620.14
481.553	20818.8
481.757	19938.17
481.961	20130.68
482.166	20607.86
482.37	20222.84
482.574	19460.99
482.778	19727.23
482.983	19794.81
483.187	19702.65
483.391	19501.95
483.595	19190.66
483.8	18563.98
484.004	18838.41
484.208	19092.36
484.412	18504.59
484.616	18428.82
484.821	18240.4
485.025	17707.93
485.229	17832.86
485.433	17517.47
485.637	17304.48
485.841	16923.56
486.045	16827.31
486.249	16858.03
486.453	16292.79
486.657	16352.18
486.861	16057.27
487.065	15190.98
487.269	15555.52
487.473	14951.37
487.677	15147.97
487.881	14973.89
488.085	14230.48
488.289	14277.58
488.493	14066.64
488.697	14003.16
488.901	13814.74
489.105	13140.96
489.309	13257.7
489.512	12915.69
489.716	12788.71
489.92	12307.44
490.124	12153.84
490.328	12151.79
490.531	11523.07
490.735	11594.75
490.939	11404.28
491.143	10992.64
491.346	10945.54
491.55	10804.23
491.754	10581
491.958	10589.19
492.161	10263.57
492.365	10165.26
492.569	9880.6
492.772	9653.27
492.976	9727
493.18	9575.45
493.383	9487.39
493.587	9391.13
493.79	9266.21
493.994	8954.91
494.197	8870.95
494.401	8836.13
494.605	8723.49
494.808	8576.04
495.012	8725.54
495.215	8602.66
495.419	8621.1
495.622	8283.18
495.825	8203.31
496.029	8291.37
496.232	8438.83
496.436	8082.48
496.639	8299.56
496.843	8227.89
497.046	8121.39
497.249	8246.32
497.453	8107.05
497.656	8152.11
497.859	8041.52
498.063	8107.05
498.266	8182.83
498.469	8096.82
498.673	7998.51
498.876	8133.68
499.079	8315.95
499.282	8281.13
499.485	8444.97
499.689	8410.15
499.892	8500.26
500.095	8547.37
500.298	8414.25
500.501	8434.73
500.705	8500.26
500.908	8770.6
501.111	8715.3
501.314	8791.08
501.517	9002.02
501.72	8961.06
501.923	8850.47
502.126	8954.91
502.329	9258.01
502.532	9532.44
502.735	9624.6
502.938	9399.32
503.141	9557.02
503.344	9589.78
503.547	9528.35
503.75	9827.35
503.953	9985.04
504.156	9884.69
504.359	10349.58
504.562	10347.53
504.765	10497.03
504.968	10628.1
505.17	10945.54
505.373	11006.98
505.576	11201.54
505.779	11287.55
505.982	11392
506.185	11584.51
506.387	11975.67
506.59	12108.79
506.793	12319.73
506.996	12458.99
507.198	12878.82
507.401	12964.84
507.604	13306.85
507.807	13515.74
508.009	13685.72
508.212	13929.43
508.415	14269.39
508.617	14435.28
508.82	14646.22
509.022	14662.6
509.225	15393.73
509.428	15684.54
509.63	16038.84
509.833	15973.3
510.035	16591.79
510.238	16866.22
510.44	17232.8
510.643	17671.07
510.845	18291.6
511.048	18394
511.25	18748.3
511.453	18871.18
511.655	19827.58
511.858	20104.06
512.06	20548.47
512.262	20972.39
512.465	21214.05
512.667	21863.26
512.87	22154.07
513.072	22735.7
513.274	23159.63
513.477	23601.99
513.679	24220.47
513.881	24824.62
514.084	25574.18
514.286	25938.72
514.488	26381.08
514.69	27247.37
514.893	27693.83
515.095	27958.02
515.297	28637.94
515.499	29281
515.701	29729.51
515.904	30386.91
516.106	30806.74
516.308	31619.78
516.51	32064.19
516.712	32856.76
516.914	33651.37
517.116	34126.5
517.318	34732.7
517.52	35209.87
517.722	35621.52
517.925	36592.25
518.127	37505.65
518.329	38072.93
518.531	38089.32
518.733	38963.8
518.935	39897.67
519.136	40096.33
519.338	41415.22
519.54	41939.5
519.742	42463.78
519.944	42527.27
520.146	43725.33
520.348	43905.55
520.55	44296.71
520.752	44648.96
520.954	45832.69
521.155	45810.16
521.357	46780.9
521.559	47301.08
521.761	48124.36
521.963	48050.64
522.164	48554.44
522.366	48705.99
522.568	49056.19
522.77	49600.95
522.971	50893.22
523.173	50061.74
523.375	51243.42
523.576	50624.93
523.778	50880.93
523.98	51730.84
524.181	51775.89
524.383	51601.82
524.584	52556.17
524.786	52015.5
524.988	51941.78
525.189	52449.67
525.391	52732.29
525.592	52531.59
525.794	52670.85
525.995	52308.36
526.197	52826.5
526.398	52451.72
526.6	52767.11
526.801	52521.35
527.003	52023.7
527.204	51861.91
527.406	51653.01
527.607	51728.79
527.808	51757.46
528.01	50860.45
528.211	51110.3
528.412	50901.41
528.614	50135.47
528.815	49779.12
529.016	50510.25
529.218	49220.03
529.419	49273.27
529.62	48148.94
529.822	48036.3
530.023	47407.58
530.224	47399.38
530.425	46752.23
530.626	45812.21
530.828	45543.92
531.029	46350.82
531.23	45070.84
531.431	44384.77
531.632	44276.23
531.833	44022.28
532.035	43225.62
532.236	42916.38
532.437	42019.37
532.638	41611.82
532.839	41304.63
533.04	40649.28
533.241	39875.15
533.442	39981.64
533.643	38902.36
533.844	38865.5
534.045	38175.33
534.246	37323.38
534.447	36962.93
534.648	36475.52
534.849	36424.32
535.05	35435.15
535.251	35375.76
535.451	34615.96
535.652	34611.87
535.853	33923.75
536.054	33510.06
536.255	32748.21
536.456	32547.51
536.657	32416.44
536.857	31437.51
537.058	31281.87
537.259	31720.13
537.46	30325.47
537.66	29762.28
537.861	29580.01
538.062	29012.72
538.263	28822.26
538.463	28168.96
538.664	28130.05
538.865	27691.78
539.065	27446.02
539.266	26778.39
539.466	26995.47
539.667	25998.11
539.868	26311.45
540.068	25989.92
540.269	25682.72
540.469	25434.92
540.67	24816.43
540.87	24793.9
541.071	24189.75
541.271	23989.05
541.472	23597.89
541.672	23282.5
541.873	23089.99
542.073	22686.54
542.274	22610.77
542.474	22117.21
542.675	21773.15
542.875	22000.47
543.075	21474.15
543.276	21017.45
543.476	21371.75
543.676	20908.91
543.877	20777.84
544.077	20837.23
544.277	20319.09
544.478	19964.79
544.678	19676.03
544.878	19587.97
545.078	19555.2
545.279	18977.67
545.479	18807.69
545.679	18828.17
545.879	18346.9
546.079	18232.21
546.28	18019.22
546.48	17843.1
546.68	17691.55
546.88	17523.62
547.08	17376.16
547.28	16903.08
547.48	16686
547.68	16665.52
547.88	16251.83
548.081	16374.7
548.281	15641.53
548.481	15580.09
548.681	15528.89
548.881	15684.54
549.081	15133.64
549.28	14840.78
549.48	14779.34
549.68	14562.25
549.88	14488.53
550.08	14154.71
550.28	14005.2
550.48	14138.32
550.68	13636.57
550.88	13521.88
551.08	12983.27
551.279	13024.23
551.479	13009.89
551.679	12882.92
551.879	12393.45
552.079	12360.69
552.278	12055.54
552.478	12196.85
552.678	11781.11
552.878	11789.3
553.077	11590.65
553.277	11131.9
553.477	11060.23
553.676	10968.07
553.876	10689.54
554.076	10505.23
554.275	10562.57
554.475	10329.1
554.674	10044.43
554.874	10032.15
555.074	9825.3
555.273	9597.98
555.473	9739.29
555.672	9415.71
555.872	9223.2
556.071	8999.97
556.271	9055.26
556.47	8811.56
556.67	8614.95
556.869	8430.63
557.068	8348.72
557.268	8217.65
557.467	8006.7
557.667	7957.55
557.866	7855.15
558.065	7613.49
558.265	7447.61
558.464	7318.59
558.663	7271.48
558.863	6947.9
559.062	7255.1
559.261	6820.93
559.461	6954.05
559.66	6603.85
559.859	6501.45
560.058	6382.67
560.258	6290.51
560.457	6347.85
560.656	6413.38
560.855	6028.37
561.054	6054.99
561.253	5745.75
561.453	5897.3
561.652	5817.43
561.851	5790.8
562.05	5495.89
562.249	5309.53
562.448	5637.2
562.647	5221.47
562.846	5123.16
563.045	5268.57
563.244	5108.83
563.443	5141.6
563.642	4828.26
563.841	4988
564.04	4865.12
564.239	4938.85
564.438	4586.6
564.637	4545.64
564.836	4680.8
565.035	4392.04
565.234	4371.56
565.432	4113.52
565.631	4146.28
565.83	4330.6
566.029	4107.37
566.228	4062.32
566.427	4088.94
566.625	3873.9
566.824	3873.9
567.023	3757.17
567.222	3826.8
567.42	3853.42
567.619	3658.87
567.818	3783.79
568.016	3771.51
568.215	3568.76
568.414	3470.45
568.612	3460.21
568.811	3447.93
569.01	3273.85
569.208	3288.18
569.407	3441.78
569.605	3202.17
569.804	3171.45
570.002	3089.53
570.201	2940.03
570.4	3081.34
570.598	2993.28
570.797	2890.88
570.995	2669.7
571.193	2819.2
571.392	2866.3
571.59	2632.83
571.789	2825.34
571.987	2743.42
572.186	2780.29
572.384	2638.98
572.582	2610.31
572.781	2624.64
572.979	2454.66
573.177	2364.55
573.376	2446.47
573.574	2456.71
573.772	2362.5
573.971	2217.1
574.169	2141.32
574.367	2217.1
574.565	2202.76
574.763	2196.62
574.962	2155.66
575.16	2024.59
575.358	2116.75
575.556	2141.32
575.754	2030.73
575.952	2026.64
576.151	1981.58
576.349	2034.83
576.547	1821.84
576.745	1942.67
576.943	1881.23
577.141	1850.51
577.339	1725.58
577.537	1758.35
577.735	1821.84
577.933	1688.72
578.131	1567.89
578.329	1684.62
578.527	1619.09
578.725	1580.18
578.923	1340.57
579.121	1612.95
579.319	1369.24
579.516	1449.11
579.714	1584.27
579.912	1514.64
580.11	1281.18
580.308	1410.2
580.506	1322.13
580.704	1344.66
580.901	1279.13
581.099	1447.06
581.297	1229.98
581.495	1447.06
581.692	1295.51
581.89	1445.01
582.088	1266.84
582.285	1170.58
582.483	1166.49
582.681	1195.16
582.878	1117.34
583.076	1133.72
583.274	1213.59
583.471	1285.27
583.669	1115.29
583.866	1000.6
584.064	1006.75
584.262	1006.75
584.459	1049.75
584.657	1088.67
584.854	1115.29
585.052	990.36
585.249	953.5
585.447	1035.42
585.644	842.91
585.841	973.98
586.039	935.07
586.236	943.26
586.434	910.49
586.631	881.82
586.828	949.4
587.026	920.73
587.223	771.23
587.42	791.71
587.618	920.73
587.815	898.2
588.012	844.96
588.21	765.09
588.407	900.25
588.604	765.09
588.801	808.09
588.999	789.66
589.196	783.52
589.393	754.85
589.59	789.66
589.787	816.29
589.984	711.84
590.182	890.01
590.379	744.61
590.576	740.51
590.773	689.31
590.97	650.4
591.167	730.27
591.364	683.17
591.561	660.64
591.758	838.81
591.955	781.47
592.152	728.22
592.349	560.29
592.546	685.22
592.743	642.21
592.94	629.92
593.137	599.2
593.334	795.81
593.531	789.66
593.727	760.99
593.924	771.23
594.121	697.5
594.318	599.2
594.515	801.95
594.712	810.14
594.908	853.15
595.105	617.63
595.302	758.94
595.499	855.2
595.696	900.25
595.892	722.08
596.089	849.05
596.286	787.61
596.482	926.88
596.679	894.11
596.876	773.28
597.072	953.5
597.269	840.86
597.466	986.27
597.662	883.87
597.859	863.39
598.055	1029.27
598.252	1045.66
598.448	1039.51
598.645	1141.91
598.841	1184.92
599.038	1201.3
599.234	1172.63
599.431	1379.48
599.627	1303.7
599.824	1381.53
600.02	1447.06
600.217	1483.92
600.413	1584.27
600.609	1549.46
600.806	1850.51
601.002	1770.64
601.198	1772.69
601.395	1793.17
601.591	1827.98
601.787	1975.44
601.984	2051.21
602.18	2112.65
602.376	2129.03
602.572	2372.74
602.769	2450.57
602.965	2425.99
603.161	2544.77
603.357	2632.83
603.553	2800.77
603.75	2788.48
603.946	2821.25
604.142	3048.57
604.338	3224.7
604.534	3044.48
604.73	3116.16
604.926	3406.97
605.122	3611.76
605.318	3513.46
605.514	3814.51
605.71	3855.47
605.906	3908.72
606.102	3955.82
606.298	4258.92
606.494	4469.86
606.69	4516.97
606.886	4504.68
607.082	4662.37
607.278	4639.84
607.474	5133.4
607.67	5045.34
607.866	4865.12
608.062	5325.91
608.257	5598.29
608.453	5592.15
608.649	5715.03
608.845	5809.23
609.041	5999.7
609.236	6341.71
609.432	6609.99
609.628	6638.66
609.824	6759.49
610.019	6800.45
610.215	7001.15
610.411	7420.99
610.606	7572.54
610.802	7750.71
610.998	8029.23
611.193	8145.97
611.389	8326.19
611.584	8694.82
611.78	8668.2
611.976	8975.39
612.171	9585.69
612.367	9591.83
612.562	9765.91
612.758	9784.34
612.953	9993.23
613.149	10585.1
613.344	10660.87
613.539	11172.86
613.735	11312.13
613.93	11588.6
614.126	11727.86
614.321	12196.85
614.517	12665.83
614.712	12921.83
614.907	13202.4
615.103	13394.91
615.298	13751.26
615.493	14103.51
615.688	14377.94
615.884	15156.16
616.079	15033.29
616.274	15606.72
616.47	15864.76
616.665	16534.45
616.86	16767.91
617.055	17208.23
617.25	17357.73
617.445	18146.2
617.641	18144.15
617.836	19108.74
618.031	19424.13
618.226	19962.75
618.421	20151.16
618.616	21009.26
618.811	20888.43
619.006	22000.47
619.201	21902.17
619.396	22854.48
619.591	22856.53
619.786	24068.92
619.981	23933.76
620.176	24777.52
620.371	24884.01
620.566	25633.57
620.761	26157.85
620.956	26907.41
621.151	26843.92
621.346	27835.14
621.541	28009.22
621.735	29139.69
621.93	29031.15
622.125	29758.18
622.32	29838.05
622.515	30638.81
622.709	31638.22
622.904	31920.84
623.099	32187.07
623.294	33297.07
623.488	33663.66
623.683	34095.78
623.878	34132.64
624.072	35232.4
624.267	35527.31
624.462	36065.92
624.656	36549.24
624.851	37495.41
625.046	37753.45
625.24	38367.84
625.435	38414.94
625.629	39334.48
625.824	39705.16
626.018	40243.78
626.213	40200.77
626.407	41607.73
626.602	41275.96
626.796	42062.38
626.991	42627.62
627.185	42689.06
627.38	42617.38
627.574	43266.58
627.768	43498
627.963	43377.17
628.157	43751.95
628.352	44272.14
628.546	43266.58
628.74	44085.77
628.935	43590.16
629.129	43676.18
629.323	43602.45
629.517	43053.59
629.712	43213.34
629.906	43006.49
630.1	42195.49
630.294	42383.91
630.489	41447.99
630.683	41646.64
630.877	40215.11
631.071	39856.71
631.265	39316.05
631.459	38314.59
631.653	37401.2
631.848	36878.97
632.042	36082.31
632.236	35474.06
632.43	34427.55
632.624	33659.56
632.818	32152.26
633.012	31390.41
633.206	30526.17
633.4	29893.35
633.594	28195.58
633.788	27724.55
633.982	26983.18
634.176	25916.19
634.369	24785.71
634.563	23745.34
634.757	23008.08
634.951	22346.58
635.145	21601.12
635.339	20585.33
635.533	19698.56
635.726	19069.83
635.92	17769.37
636.114	17566.62
636.308	16366.51
636.501	15893.43
636.695	15446.97
636.889	14572.49
637.083	14040.02
637.276	13362.14
637.47	12975.08
637.664	12360.69
637.857	11965.43
638.051	11578.36
638.244	11047.94
638.438	10462.22
638.632	10308.62
638.825	9581.59
639.019	9526.3
639.212	9098.27
639.406	8621.1
639.599	8162.35
639.793	7967.79
639.986	7515.19
640.18	7449.66
640.373	6988.86
640.567	6800.45
640.76	6581.32
640.954	6220.88
641.147	5991.5
641.34	5708.88
641.534	5641.3
641.727	5436.5
641.92	5233.75
642.114	4912.22
642.307	4668.52
642.5	4600.93
642.694	4504.68
642.887	4336.74
643.08	4236.39
643.273	4066.41
643.467	3851.38
643.66	3671.15
643.853	3544.18
644.046	3441.78
644.239	3144.83
644.432	3077.24
644.626	2892.93
644.819	2935.93
645.012	2743.42
645.205	2739.33
645.398	2776.19
645.591	2512
645.784	2305.16
645.977	2294.92
646.17	2114.7
646.363	2188.43
646.556	1969.29
646.749	1961.1
646.942	1809.55
647.135	1877.13
647.328	1682.58
647.521	1684.62
647.714	1660.05
647.907	1586.32
648.099	1440.92
648.292	1545.36
648.485	1418.39
648.678	1350.81
648.871	1264.79
649.064	1281.18
649.256	1203.35
649.449	1078.43
649.642	1019.04
649.835	1045.66
650.027	992.41
650.22	1123.48
650.413	930.97
650.605	971.93
650.798	869.53
650.991	865.44
651.183	795.81
651.376	883.87
651.568	853.15
651.761	795.81
651.954	797.85
652.146	689.31
652.339	726.18
652.531	711.84
652.724	691.36
652.916	617.63
653.109	502.95
653.301	621.73
653.494	552.1
653.686	541.86
653.879	631.97
654.071	576.67
654.263	539.81
654.456	498.85
654.648	496.8
654.84	531.62
655.033	404.64
655.225	556.19
655.417	300.2
655.61	541.86
655.802	511.14
655.994	531.62
656.186	367.78
656.379	468.13
656.571	427.17
656.763	351.4
656.955	277.67
657.148	357.54
657.34	392.36
657.532	341.16
657.724	306.34
657.916	423.08
658.108	363.69
658.3	335.01
658.492	318.63
658.684	195.75
658.876	394.4
659.068	220.33
659.26	193.7
659.452	275.62
659.644	298.15
659.836	414.88
660.028	226.47
660.22	220.33
660.412	263.33
660.604	269.48
660.796	298.15
660.988	269.48
661.18	285.86
661.372	271.53
661.563	246.95
661.755	148.65
661.947	148.65
662.139	140.46
662.331	169.13
662.522	240.81
662.714	50.35
662.906	126.12
663.097	210.09
663.289	144.55
663.481	60.59
663.673	263.33
663.864	208.04
664.056	269.48
664.247	140.46
664.439	181.42
664.631	146.6
664.822	244.9
665.014	208.04
665.205	31.91
665.397	154.79
665.588	156.84
665.78	150.7
665.971	259.24
666.163	167.08
666.354	236.71
666.546	117.93
666.737	91.31
666.929	144.55
667.12	99.5
667.311	197.8
667.503	93.35
667.694	115.88
667.885	197.8
668.077	234.66
668.268	52.39
668.459	167.08
668.651	115.88
668.842	138.41
669.033	79.02
669.224	101.55
669.416	322.73
669.607	177.32
669.798	72.87
669.989	265.38
670.18	36.01
670.371	156.84
670.563	97.45
670.754	212.14
670.945	146.6
671.136	173.22
671.327	46.25
671.518	181.42
671.709	220.33
671.9	165.03
672.091	287.91
672.282	130.22
672.473	224.42
672.664	68.78
672.855	122.02
673.046	177.32
673.237	154.79
673.428	122.02
673.619	177.32
673.809	38.06
674	283.81
674.191	240.81
674.382	42.15
674.573	85.16
674.764	95.4
674.954	173.22
675.145	115.88
675.336	29.87
675.527	74.92
675.717	48.3
675.908	99.5
676.099	70.83
676.289	115.88
676.48	74.92
676.671	154.79
676.861	101.55
677.052	214.18
677.243	89.26
677.433	54.44
677.624	197.8
677.814	160.94
678.005	126.12
678.195	242.85
678.386	91.31
678.576	154.79
678.767	87.21
678.957	130.22
679.148	230.57
679.338	249
679.529	230.57
679.719	140.46
679.909	208.04
680.1	201.9
680.29	134.31
680.481	-7
680.671	220.33
680.861	177.32
681.052	160.94
681.242	72.87
681.432	208.04
681.622	269.48
681.813	117.93
682.003	132.26
682.193	142.5
682.383	148.65
682.573	105.64
682.764	103.59
682.954	169.13
683.144	249
683.334	171.18
683.524	122.02
683.714	162.98
683.904	236.71
684.094	165.03
684.284	181.42
684.474	257.19
684.664	240.81
684.854	183.46
685.044	103.59
685.234	189.61
685.424	210.09
685.614	134.31
685.804	259.24
685.994	197.8
686.184	152.74
686.374	173.22
686.564	261.29
686.753	201.9
686.943	197.8
687.133	167.08
687.323	87.21
687.513	199.85
687.702	179.37
687.892	203.94
688.082	269.48
688.272	267.43
688.461	246.95
688.651	304.29
688.841	216.23
689.03	212.14
689.22	122.02
689.41	226.47
689.599	246.95
689.789	148.65
689.979	314.53
690.168	142.5
690.358	296.1
690.547	97.45
690.737	142.5
690.926	169.13
691.116	253.09
691.305	224.42
691.495	246.95
691.684	126.12
691.874	109.74
692.063	171.18
692.252	103.59
692.442	175.27
692.631	175.27
692.82	195.75
693.01	167.08
693.199	216.23
693.388	249
693.578	124.07
693.767	167.08
693.956	181.42
694.146	156.84
694.335	246.95
694.524	152.74
694.713	255.14
694.902	124.07
695.092	103.59
695.281	136.36
695.47	93.35
695.659	132.26
695.848	191.66
696.037	146.6
696.226	259.24
696.415	183.46
696.604	234.66
696.793	251.05
696.982	154.79
697.171	373.92
697.36	66.73
697.549	93.35
697.738	46.25
697.927	103.59
698.116	68.78
698.305	242.85
698.494	136.36
698.683	113.83
698.872	267.43
699.061	130.22
699.25	126.12
699.438	181.42
699.627	132.26
699.816	289.96
700.005	142.5
700.193	99.5
700.382	240.81
700.571	191.66
700.76	228.52
700.948	214.18
701.137	263.33
701.326	183.46
701.514	44.2
701.703	191.66
701.892	185.51
702.08	265.38
702.269	167.08
702.457	171.18
702.646	236.71
702.834	79.02
703.023	263.33
703.212	249
703.4	156.84
703.589	17.58
703.777	193.7
703.965	99.5
704.154	201.9
704.342	74.92
704.531	165.03
704.719	205.99
704.907	298.15
705.096	152.74
705.284	79.02
705.472	185.51
705.661	150.7
705.849	199.85
706.037	263.33
706.226	238.76
706.414	138.41
706.602	122.02
706.79	238.76
706.979	160.94
707.167	187.56
707.355	105.64
707.543	201.9
707.731	183.46
707.919	124.07
708.107	101.55
708.296	76.97
708.484	101.55
708.672	193.7
708.86	283.81
709.048	115.88
709.236	162.98
709.424	218.28
709.612	167.08
709.8	95.4
709.988	167.08
710.176	181.42
710.364	240.81
710.551	165.03
710.739	160.94
710.927	93.35
711.115	158.89
711.303	232.62
711.491	212.14
711.679	140.46
711.866	275.62
712.054	138.41
712.242	224.42
712.43	177.32
712.617	208.04
712.805	220.33
712.993	156.84
713.181	101.55
713.368	148.65
713.556	175.27
713.744	169.13
713.931	371.88
714.119	306.34
714.306	167.08
714.494	238.76
714.682	136.36
714.869	154.79
715.057	199.85
715.244	38.06
715.432	150.7
715.619	150.7
715.807	101.55
715.994	187.56
716.182	160.94
716.369	199.85
716.556	220.33
716.744	124.07
716.931	93.35
717.119	140.46
717.306	154.79
717.493	183.46
717.681	126.12
717.868	167.08
718.055	162.98
718.242	160.94
718.43	179.37
718.617	277.67
718.804	189.61
718.991	302.25
719.179	224.42
719.366	189.61
719.553	160.94
719.74	146.6
719.927	105.64
720.114	220.33
720.301	208.04
720.488	214.18
720.676	93.35
720.863	306.34
721.05	306.34
721.237	234.66
721.424	298.15
721.611	173.22
721.798	111.78
721.985	107.69
722.172	154.79
722.358	128.17
722.545	271.53
722.732	279.72
722.919	277.67
723.106	267.43
723.293	185.51
723.48	236.71
723.667	187.56
723.853	253.09
724.04	220.33
724.227	251.05
724.414	214.18
724.6	312.49
724.787	326.82
724.974	287.91
725.161	220.33
725.347	130.22
725.534	191.66
725.72	203.94
725.907	294.05
726.094	263.33
726.28	169.13
726.467	220.33
726.653	199.85
726.84	314.53
727.027	365.73
727.213	214.18
727.4	224.42
727.586	216.23
727.773	222.38
727.959	181.42
728.145	210.09
728.332	146.6
728.518	187.56
728.705	324.77
728.891	167.08
729.077	205.99
729.264	122.02
729.45	165.03
729.636	302.25
729.823	255.14
730.009	226.47
730.195	261.29
730.382	226.47
730.568	60.59
730.754	220.33
730.94	187.56
731.126	203.94
731.313	259.24
731.499	162.98
731.685	236.71
731.871	287.91
732.057	146.6
732.243	230.57
732.429	230.57
732.615	328.87
732.801	205.99
732.987	242.85
733.173	210.09
733.359	218.28
733.545	287.91
733.731	296.1
733.917	320.68
734.103	263.33
734.289	234.66
734.475	152.74
734.661	357.54
734.847	259.24
735.033	216.23
735.219	216.23
735.404	218.28
735.59	232.62
735.776	165.03
735.962	234.66
736.148	212.14
736.333	326.82
736.519	203.94
736.705	261.29
736.89	205.99
737.076	193.7
737.262	236.71
737.447	173.22
737.633	300.2
737.819	316.58
738.004	144.55
738.19	281.77
738.375	216.23
738.561	246.95
738.747	232.62
738.932	191.66
739.118	320.68
739.303	283.81
739.489	294.05
739.674	259.24
739.859	158.89
740.045	312.49
740.23	339.11
740.416	5.29
740.601	210.09
740.786	210.09
740.972	124.07
741.157	216.23
741.342	126.12
741.528	156.84
741.713	310.44
741.898	205.99
742.084	246.95
742.269	244.9
742.454	195.75
742.639	312.49
742.824	203.94
743.01	332.97
743.195	294.05
743.38	257.19
743.565	255.14
743.75	212.14
743.935	326.82
744.12	246.95
744.305	214.18
744.49	234.66
744.675	224.42
744.86	93.35
745.045	312.49
745.23	226.47
745.415	226.47
745.6	279.72
745.785	212.14
745.97	249
746.155	242.85
746.34	326.82
746.525	208.04
746.71	341.16
746.895	99.5
747.079	165.03
747.264	193.7
747.449	214.18
747.634	251.05
747.819	300.2
748.003	234.66
748.188	101.55
748.373	273.57
748.557	244.9
748.742	205.99
748.927	197.8
749.111	175.27
749.296	191.66
749.481	203.94
749.665	193.7
749.85	136.36
750.034	197.8
750.219	199.85
750.404	126.12
750.588	236.71
750.773	152.74
750.957	191.66
751.141	152.74
751.326	208.04
751.51	83.11
751.695	179.37
751.879	115.88
752.064	382.12
752.248	220.33
752.432	251.05
752.617	203.94
752.801	271.53
752.985	160.94
753.17	287.91
753.354	187.56
753.538	226.47
753.722	101.55
753.907	122.02
754.091	113.83
754.275	169.13
754.459	124.07
754.643	91.31
754.828	193.7
755.012	130.22
755.196	93.35
755.38	132.26
755.564	156.84
755.748	105.64
755.932	220.33
756.116	148.65
756.3	212.14
756.484	91.31
756.668	230.57
756.852	36.01
757.036	142.5
757.22	191.66
757.404	103.59
757.588	83.11
757.772	167.08
757.956	173.22
758.14	251.05
758.323	66.73
758.507	283.81
758.691	117.93
758.875	173.22
759.059	220.33
759.242	46.25
759.426	99.5
759.61	95.4
759.794	44.2
759.977	261.29
760.161	341.16
760.345	201.9
760.528	193.7
760.712	113.83
760.895	191.66
761.079	103.59
761.263	93.35
761.446	52.39
761.63	117.93
761.813	162.98
761.997	105.64
762.18	64.68
762.364	177.32
762.547	64.68
762.731	76.97
762.914	54.44
763.098	107.69
763.281	109.74
763.464	97.45
763.648	148.65
763.831	66.73
764.015	91.31
764.198	205.99
764.381	40.11
764.564	171.18
764.748	76.97
764.931	179.37
765.114	-21.33
765.297	152.74
765.481	27.82
765.664	128.17
765.847	101.55
766.03	203.94
766.213	-7
766.397	64.68
766.58	-29.52
766.763	191.66
766.946	15.53
767.129	146.6
767.312	19.63
767.495	97.45
767.678	-54.1
767.861	117.93
768.044	122.02
768.227	70.83
768.41	60.59
768.593	146.6
768.776	113.83
768.959	44.2
769.142	205.99
769.324	72.87
769.507	62.63
769.69	76.97
769.873	101.55
770.056	326.82
770.239	40.11
770.421	158.89
770.604	144.55
770.787	46.25
770.97	103.59
771.152	-9.05
771.335	140.46
771.518	64.68
771.7	144.55
771.883	238.76
772.066	46.25
772.248	160.94
772.431	144.55
772.613	93.35
772.796	13.48
772.978	91.31
773.161	183.46
773.343	97.45
773.526	46.25
773.708	-9.05
773.891	19.63
774.073	68.78
774.256	23.72
774.438	210.09
774.621	103.59
774.803	181.42
774.985	9.39
775.168	124.07
775.35	62.63
775.532	87.21
775.715	-43.86
775.897	109.74
776.079	58.54
776.261	64.68
776.444	81.07
776.626	76.97
776.808	7.34
776.99	-25.43
777.173	46.25
777.355	85.16
777.537	70.83
777.719	68.78
777.901	27.82
778.083	5.29
778.265	-4.95
778.447	160.94
778.629	9.39
778.811	46.25
778.993	134.31
779.175	119.98
779.357	38.06
779.539	-21.33
779.721	134.31
779.903	152.74
780.085	7.34
780.267	50.35
780.449	11.43
780.631	40.11
780.812	146.6
780.994	101.55
781.176	31.91
781.358	-41.81
781.54	48.3
781.721	91.31
781.903	238.76
782.085	50.35
782.267	216.23
782.448	-7
782.63	27.82
782.812	93.35
782.993	119.98
783.175	48.3
783.357	62.63
783.538	58.54
783.72	72.87
783.901	70.83
784.083	25.77
784.264	109.74
784.446	-23.38
784.627	1.19
784.809	50.35
784.99	-7
785.172	117.93
785.353	124.07
785.535	56.49
785.716	-17.24
785.897	21.67
786.079	1.19
786.26	29.87
786.441	-19.29
786.623	-68.44
786.804	-29.52
786.985	130.22
787.167	128.17
787.348	44.2
787.529	19.63
787.71	195.75
787.891	154.79
788.073	52.39
788.254	-101.2
788.435	189.61
788.616	130.22
788.797	-47.96
788.978	19.63
789.159	54.44
789.34	66.73
789.522	87.21
789.703	17.58
789.884	122.02
790.065	72.87
790.246	111.78
790.427	17.58
790.607	158.89
790.788	119.98
790.969	-33.62
791.15	38.06
791.331	-41.81
791.512	-25.43
791.693	-70.48
791.874	-13.14
792.054	179.37
792.235	33.96
792.416	40.11
792.597	-17.24
792.778	44.2
792.958	142.5
793.139	42.15
793.32	52.39
793.5	-84.82
793.681	89.26
793.862	128.17
794.042	5.29
794.223	-99.16
794.404	-41.81
794.584	40.11
794.765	68.78
794.945	27.82
795.126	117.93
795.306	124.07
795.487	-2.9
795.667	87.21
795.848	109.74
796.028	-4.95
796.209	46.25
796.389	64.68
796.57	-35.67
796.75	1.19
796.93	62.63
797.111	-15.19
797.291	1.19
797.471	89.26
797.652	-60.24
797.832	-19.29
798.012	83.11
798.192	31.91
798.373	-41.81
798.553	-7
798.733	-23.38
798.913	-21.33
799.093	17.58
799.274	9.39
799.454	109.74
799.634	81.07
799.814	76.97
799.994	111.78
800.174	27.82
800.354	15.53
800.534	-78.68
800.714	97.45
800.894	7.34
801.074	-84.82
801.254	-41.81
801.434	179.37
801.614	19.63
801.794	-74.58
801.974	1924.24
802.154	-2.9
802.334	138.41
802.514	3.24
802.693	76.97
802.873	19.63
803.053	36.01
803.233	117.93
803.413	-2.9
803.592	7.34
803.772	-54.1
803.952	83.11
804.131	-101.2
804.311	128.17
804.491	136.36
804.67	13.48
804.85	21.67
805.03	-19.29
805.209	105.64
805.389	-7
805.568	11.43
805.748	21.67
805.928	25.77
806.107	95.4
806.287	56.49
806.466	-37.72
806.646	36.01
806.825	42.15
807.004	-19.29
807.184	87.21
807.363	42.15
807.543	11.43
807.722	-84.82
807.901	87.21
808.081	38.06
808.26	-82.77
808.439	23.72
808.619	60.59
808.798	23.72
808.977	-11.09
809.156	83.11
809.336	60.59
809.515	85.16
809.694	-27.48
809.873	-43.86
810.052	117.93
810.231	160.94
810.411	1.19
810.59	107.69
810.769	115.88
810.948	54.44
811.127	-148.31
811.306	5.29
811.485	33.96
811.664	138.41
811.843	11.43
812.022	25.77
812.201	-37.72
812.38	-25.43
812.559	-76.63
812.737	21.67
812.916	-31.57
813.095	-43.86
813.274	66.73
813.453	40.11
813.632	36.01
813.811	165.03
813.989	-47.96
814.168	19.63
814.347	-111.44
814.526	-25.43
814.704	62.63
814.883	138.41
815.062	-50
815.24	60.59
815.419	-72.53
815.598	27.82
815.776	-105.3
815.955	-13.14
816.133	-95.06
816.312	-27.48
816.49	-11.09
816.669	-11.09
816.847	29.87
817.026	25.77
817.204	-21.33
817.383	76.97
817.561	64.68
817.74	-15.19
817.918	46.25
818.097	19.63
818.275	-31.57
818.453	44.2
818.632	54.44
818.81	40.11
818.988	58.54
819.167	-23.38
819.345	9.39
819.523	-0.85
819.701	31.91
819.879	79.02
820.058	-4.95
820.236	-25.43
820.414	54.44
820.592	-13.14
820.77	-58.2
820.948	-13.14
821.127	27.82
821.305	-2.9
821.483	-84.82
821.661	33.96
821.839	95.4
822.017	5.29
822.195	-11.09
822.373	68.78
822.551	38.06
822.729	5.29
822.907	7.34
823.085	-58.2
823.262	62.63
823.44	-35.67
823.618	-58.2
823.796	60.59
823.974	-31.57
824.152	13.48
824.329	62.63
824.507	23.72
824.685	19.63
824.863	56.49
825.04	38.06
825.218	54.44
825.396	15.53
825.574	70.83
825.751	64.68
825.929	97.45
826.107	-90.96
826.284	62.63
826.462	76.97
826.639	9.39
826.817	-88.92
826.994	60.59
827.172	-123.73
827.349	83.11
827.527	68.78
827.704	23.72
827.882	70.83
828.059	-31.57
828.237	25.77
828.414	42.15
828.591	-88.92
828.769	40.11
828.946	-58.2
829.124	72.87
829.301	130.22
829.478	-84.82
829.655	-9.05
829.833	-17.24
830.01	-64.34
830.187	46.25
830.364	36.01
830.542	105.64
830.719	101.55
830.896	50.35
831.073	-9.05
831.25	66.73
831.427	27.82
831.604	-13.14
831.782	3.24
831.959	105.64
832.136	19.63
832.313	52.39
832.49	-31.57
832.667	-9.05
832.844	5.29
833.021	87.21
833.198	89.26
833.374	54.44
833.551	36.01
833.728	-23.38
833.905	87.21
834.082	-168.79
834.259	152.74
834.436	97.45
834.612	-4.95
834.789	46.25
834.966	-0.85
835.143	1.19
835.319	-119.64
835.496	11.43
835.673	25.77
835.85	15.53
836.026	48.3
836.203	60.59
836.38	-29.52
836.556	-9.05
836.733	-47.96
836.909	103.59
837.086	-17.24
837.262	-39.76
837.439	27.82
837.616	-107.35
837.792	-45.91
837.968	58.54
838.145	-103.25
838.321	-35.67
838.498	33.96
838.674	17.58
838.851	79.02
839.027	-31.57
839.203	-4.95
839.38	60.59
839.556	-23.38
839.732	99.5
839.909	-37.72
840.085	-74.58
840.261	-2.9
840.437	128.17
840.614	-29.52
840.79	33.96
840.966	-13.14
841.142	25.77
841.318	-86.87
841.494	-2.9
841.671	52.39
841.847	-70.48
842.023	1.19
842.199	31.91
842.375	50.35
842.551	-107.35
842.727	-21.33
842.903	193.7
843.079	-4.95
843.255	70.83
843.431	23.72
843.607	9.39
843.783	-152.4
843.959	-13.14
844.134	3.24
844.31	199.85
844.486	-7
844.662	-64.34
844.838	-39.76
845.013	21.67
845.189	17.58
845.365	29.87
845.541	-4.95
845.716	19.63
845.892	-2.9
846.068	-35.67
846.244	-70.48
846.419	42.15
846.595	-109.4
846.77	-60.24
846.946	122.02
847.122	15.53
847.297	13.48
847.473	91.31
847.648	-84.82
847.824	68.78
847.999	-54.1
848.175	-29.52
848.35	-41.81
848.526	15.53
848.701	83.11
848.876	-9.05
849.052	150.7
849.227	-58.2
849.403	-15.19
849.578	-29.52
849.753	19.63
849.929	117.93
850.104	-103.25
850.279	-11.09
850.454	76.97
850.63	50.35
850.805	-2.9
850.98	-50
851.155	11.43
851.33	21.67
851.505	-62.29
851.681	132.26
851.856	-31.57
852.031	-29.52
852.206	62.63
852.381	-58.2
852.556	-56.15
852.731	27.82
852.906	54.44
853.081	27.82
853.256	87.21
853.431	31.91
853.606	-35.67
853.781	-66.39
853.956	-76.63
854.131	25.77
854.305	-13.14
854.48	-17.24
854.655	21.67
854.83	-11.09
855.005	27.82
855.18	5.29
855.354	17.58
855.529	-4.95
855.704	21.67
855.879	52.39
856.053	-9.05
856.228	160.94
856.403	-58.2
856.577	21.67
856.752	-113.49
856.926	27.82
857.101	42.15
857.276	-66.39
857.45	-15.19
857.625	40.11
857.799	-35.67
857.974	-27.48
858.148	-50
858.323	60.59
858.497	25.77
858.672	-9.05
858.846	-56.15
859.02	42.15
859.195	-50
859.369	1.19
859.543	-7
859.718	21.67
859.892	46.25
860.066	-25.43
860.241	-27.48
860.415	-13.14
860.589	-78.68
860.763	-31.57
860.938	15.53
861.112	54.44
861.286	17.58
861.46	74.92
861.634	52.39
861.808	87.21
861.982	-35.67
862.157	-105.3
862.331	-4.95
862.505	-125.78
862.679	-54.1
862.853	-39.76
863.027	-31.57
863.201	169.13
863.375	-43.86
863.549	17.58
863.722	87.21
863.896	33.96
864.07	-97.11
864.244	-64.34
864.418	23.72
864.592	72.87
864.766	-27.48
864.939	-0.85
865.113	-31.57
865.287	105.64
865.461	1.19
865.634	44.2
865.808	-70.48
865.982	-72.53
866.156	-7
866.329	-17.24
866.503	9.39
866.676	3.24
866.85	-29.52
867.024	31.91
867.197	46.25
867.371	56.49
867.544	-33.62
867.718	-148.31
867.891	111.78
868.065	-45.91
868.238	23.72
868.412	64.68
868.585	1.19
868.759	-21.33
868.932	-60.24
869.105	-74.58
869.279	-13.14
869.452	-62.29
869.625	50.35
869.799	-41.81
869.972	-23.38
870.145	-58.2
870.319	19.63
870.492	-68.44
870.665	1.19
870.838	3.24
871.011	-99.16
871.185	89.26
871.358	17.58
871.531	76.97
871.704	-82.77
871.877	95.4
872.05	-80.72
872.223	-21.33
872.396	58.54
872.569	109.74
872.742	-109.4
872.915	-15.19
873.088	-17.24
873.261	-50
873.434	40.11
873.607	1.19
873.78	36.01
873.953	-47.96
874.126	64.68
874.299	58.54
874.471	-78.68
874.644	-15.19
874.817	-0.85
874.99	40.11
875.163	-21.33
875.335	-17.24
875.508	68.78
875.681	89.26
875.853	-19.29
876.026	19.63
876.199	-29.52
876.371	42.15
876.544	-11.09
876.717	13.48
876.889	-74.58
877.062	25.77
877.234	-74.58
877.407	-60.24
877.579	70.83
877.752	-25.43
877.924	42.15
878.097	44.2
878.269	23.72
878.442	27.82
878.614	89.26
878.786	40.11
878.959	1.19
879.131	33.96
879.303	-47.96
879.476	5.29
879.648	89.26
879.82	-21.33
879.993	-41.81
880.165	-50
880.337	-70.48
880.509	25.77
880.681	-58.2
880.854	-45.91
881.026	25.77
881.198	246.95
881.37	21.67
881.542	23.72
881.714	-4.95
881.886	66.73
882.058	9.39
882.23	29.87
882.402	-11.09
882.574	58.54
882.746	171.18
882.918	72.87
883.09	66.73
883.262	38.06
883.434	5.29
883.606	-68.44
883.778	40.11
883.95	175.27
884.122	56.49
884.293	46.25
884.465	15.53
884.637	93.35
884.809	-56.15
884.98	50.35
885.152	1.19
885.324	95.4
885.496	-4.95
885.667	25.77
885.839	-9.05
886.011	128.17
886.182	-13.14
886.354	72.87
886.525	44.2
886.697	56.49
886.869	-105.3
887.04	46.25
887.212	93.35
887.383	93.35
887.555	3.24
887.726	-31.57
887.897	-37.72
888.069	21.67
888.24	74.92
888.412	72.87
888.583	7.34
888.754	15.53
888.926	-86.87
889.097	-95.06
889.268	-25.43
889.44	-19.29
889.611	-58.2
889.782	-76.63
889.953	-107.35
890.125	111.78
890.296	-11.09
890.467	11.43
890.638	-29.52
890.809	23.72
890.98	46.25
891.151	15.53
891.323	101.55
891.494	-74.58
891.665	46.25
891.836	-66.39
892.007	11.43
892.178	40.11
892.349	17.58
892.52	-84.82
892.691	-25.43
892.862	-2.9
893.032	-45.91
893.203	-76.63
893.374	38.06
893.545	-25.43
893.716	-41.81
893.887	91.31
894.057	44.2
894.228	-78.68
894.399	-15.19
894.57	113.83
894.74	-80.72
894.911	23.72
895.082	1.19
895.253	-62.29
895.423	56.49
895.594	124.07
895.764	115.88
895.935	-72.53
896.106	74.92
896.276	-109.4
896.447	54.44
896.617	-76.63
896.788	-72.53
896.958	-70.48
897.129	-58.2
897.299	-39.76
897.47	105.64
897.64	89.26
897.81	11.43
897.981	-9.05
898.151	-62.29
898.322	66.73
898.492	99.5
898.662	-13.14
898.832	1.19
899.003	1.19
899.173	50.35
899.343	-68.44
899.513	-50
