Data from USB4F104151__8__10-41-21-889.txt Node

Date: Wed Feb 26 10:41:21 EST 2025
User: louis
Spectrometer: USB4F10415
Trigger mode: 4
Integration Time (sec): 1.000000E-1
Scans to average: 1
Electric dark correction enabled: true
Nonlinearity correction enabled: false
Boxcar width: 0
XAxis mode: Wavelengths
Number of Pixels in Spectrum: 3648
>>>>>Begin Spectral Data<<<<<
178.204	-414.88
178.424	-414.88
178.644	-414.88
178.864	-404.64
179.084	-357.54
179.304	39.76
179.524	-66.73
179.744	-15.53
179.964	127.83
180.184	-46.25
180.404	31.57
180.624	-66.73
180.844	-36.01
181.064	-15.53
181.283	25.43
181.503	-23.72
181.723	45.91
181.943	-62.63
182.163	203.6
182.383	-31.91
182.602	103.25
182.822	148.31
183.042	127.83
183.262	-68.78
183.482	97.11
183.701	88.92
183.921	54.1
184.141	13.14
184.361	76.63
184.58	86.87
184.8	33.62
185.02	45.91
185.239	136.02
185.459	4.95
185.679	172.88
185.898	-52.39
186.118	99.16
186.338	72.53
186.557	129.88
186.777	-44.2
186.997	21.33
187.216	105.3
187.436	176.98
187.655	115.54
187.875	144.21
188.095	-50.35
188.314	160.59
188.534	160.59
188.753	19.29
188.973	68.44
189.192	115.54
189.412	-11.43
189.631	70.48
189.851	123.73
190.07	146.26
190.29	-52.39
190.509	80.72
190.729	33.62
190.948	109.4
191.168	242.51
191.387	66.39
191.607	-81.07
191.826	54.1
192.045	54.1
192.265	-25.77
192.484	105.3
192.704	4.95
192.923	-13.48
193.142	332.62
193.362	156.5
193.581	138.07
193.8	95.06
194.02	70.48
194.239	64.34
194.458	123.73
194.678	-11.43
194.897	4.95
195.116	109.4
195.335	84.82
195.555	88.92
195.774	-27.82
195.993	142.16
196.212	31.57
196.432	-46.25
196.651	4.95
196.87	21.33
197.089	172.88
197.308	136.02
197.528	58.2
197.747	-76.97
197.966	60.24
198.185	74.58
198.404	27.48
198.623	187.22
198.842	144.21
199.062	31.57
199.281	131.92
199.5	84.82
199.719	107.35
199.938	82.77
200.157	82.77
200.376	95.06
200.595	90.96
200.814	17.24
201.033	45.91
201.252	136.02
201.471	107.35
201.69	80.72
201.909	90.96
202.128	82.77
202.347	123.73
202.566	29.52
202.785	-64.68
203.004	-15.53
203.223	215.89
203.442	82.77
203.661	-46.25
203.879	115.54
204.098	99.16
204.317	-3.24
204.536	41.81
204.755	84.82
204.974	144.21
205.193	111.44
205.411	172.88
205.63	95.06
205.849	70.48
206.068	27.48
206.287	11.09
206.505	179.03
206.724	52.05
206.943	-44.2
207.162	9.05
207.381	60.24
207.599	64.34
207.818	25.43
208.037	-44.2
208.255	99.16
208.474	144.21
208.693	187.22
208.911	62.29
209.13	181.07
209.349	109.4
209.567	58.2
209.786	103.25
210.005	90.96
210.223	50
210.442	-58.54
210.661	88.92
210.879	95.06
211.098	103.25
211.316	31.57
211.535	97.11
211.753	121.68
211.972	56.15
212.191	-15.53
212.409	31.57
212.628	-17.58
212.846	0.85
213.065	19.29
213.283	84.82
213.502	82.77
213.72	39.76
213.938	45.91
214.157	62.29
214.375	148.31
214.594	35.67
214.812	70.48
215.031	56.15
215.249	123.73
215.467	84.82
215.686	-36.01
215.904	125.78
216.122	68.44
216.341	197.46
216.559	68.44
216.778	125.78
216.996	176.98
217.214	58.2
217.432	-9.39
217.651	7
217.869	78.68
218.087	82.77
218.306	15.19
218.524	56.15
218.742	35.67
218.96	131.92
219.179	54.1
219.397	54.1
219.615	283.47
219.833	78.68
220.051	-11.43
220.27	88.92
220.488	74.58
220.706	84.82
220.924	39.76
221.142	41.81
221.36	95.06
221.578	54.1
221.796	78.68
222.015	109.4
222.233	72.53
222.451	127.83
222.669	-21.67
222.887	25.43
223.105	29.52
223.323	21.33
223.541	78.68
223.759	27.48
223.977	13.14
224.195	193.36
224.413	52.05
224.631	60.24
224.849	80.72
225.067	226.13
225.285	-3.24
225.503	25.43
225.721	-70.83
225.939	15.19
226.157	47.96
226.375	172.88
226.592	25.43
226.81	31.57
227.028	168.79
227.246	127.83
227.464	72.53
227.682	17.24
227.9	117.59
228.117	80.72
228.335	80.72
228.553	17.24
228.771	25.43
228.989	29.52
229.206	82.77
229.424	41.81
229.642	80.72
229.86	76.63
230.077	138.07
230.295	82.77
230.513	68.44
230.731	115.54
230.948	185.17
231.166	127.83
231.384	47.96
231.601	-31.91
231.819	183.12
232.037	68.44
232.254	2.9
232.472	86.87
232.689	-27.82
232.907	72.53
233.125	37.72
233.342	-13.48
233.56	-44.2
233.777	37.72
233.995	64.34
234.213	58.2
234.43	113.49
234.648	-27.82
234.865	82.77
235.083	0.85
235.3	115.54
235.518	174.93
235.735	162.64
235.953	172.88
236.17	37.72
236.388	41.81
236.605	4.95
236.822	109.4
237.04	105.3
237.257	88.92
237.475	17.24
237.692	35.67
237.909	88.92
238.127	97.11
238.344	66.39
238.562	43.86
238.779	-5.29
238.996	21.33
239.214	37.72
239.431	136.02
239.648	82.77
239.865	111.44
240.083	86.87
240.3	58.2
240.517	23.38
240.735	80.72
240.952	90.96
241.169	29.52
241.386	97.11
241.603	58.2
241.821	-25.77
242.038	121.68
242.255	107.35
242.472	-11.43
242.689	109.4
242.907	103.25
243.124	111.44
243.341	-44.2
243.558	9.05
243.775	54.1
243.992	-1.19
244.209	50
244.426	160.59
244.643	115.54
244.86	-15.53
245.078	136.02
245.295	29.52
245.512	-3.24
245.729	31.57
245.946	80.72
246.163	-36.01
246.38	74.58
246.597	50
246.814	29.52
247.031	70.48
247.248	50
247.464	72.53
247.681	82.77
247.898	15.19
248.115	152.4
248.332	-11.43
248.549	205.65
248.766	164.69
248.983	138.07
249.2	133.97
249.417	162.64
249.633	-21.67
249.85	121.68
250.067	15.19
250.284	64.34
250.501	105.3
250.717	-1.19
250.934	-33.96
251.151	72.53
251.368	82.77
251.585	-3.24
251.801	45.91
252.018	-7.34
252.235	93.01
252.451	-5.29
252.668	45.91
252.885	121.68
253.102	111.44
253.318	4.95
253.535	52.05
253.752	19.29
253.968	33.62
254.185	-87.21
254.401	97.11
254.618	27.48
254.835	-31.91
255.051	174.93
255.268	113.49
255.484	2.9
255.701	9.05
255.917	72.53
256.134	-3.24
256.351	7
256.567	-7.34
256.784	66.39
257	-46.25
257.217	111.44
257.433	115.54
257.65	72.53
257.866	103.25
258.082	-23.72
258.299	50
258.515	31.57
258.732	-40.11
258.948	21.33
259.165	113.49
259.381	2.9
259.597	136.02
259.814	82.77
260.03	23.38
260.246	29.52
260.463	66.39
260.679	179.03
260.895	107.35
261.112	62.29
261.328	62.29
261.544	-9.39
261.761	158.55
261.977	25.43
262.193	-31.91
262.409	66.39
262.626	17.24
262.842	33.62
263.058	-29.87
263.274	23.38
263.49	105.3
263.707	31.57
263.923	181.07
264.139	-31.91
264.355	60.24
264.571	205.65
264.787	107.35
265.004	113.49
265.22	162.64
265.436	39.76
265.652	117.59
265.868	123.73
266.084	25.43
266.3	-1.19
266.516	-11.43
266.732	74.58
266.948	19.29
267.164	31.57
267.38	127.83
267.596	25.43
267.812	205.65
268.028	60.24
268.244	56.15
268.46	76.63
268.676	58.2
268.892	109.4
269.108	-31.91
269.324	31.57
269.54	-38.06
269.756	119.64
269.972	-17.58
270.188	101.2
270.403	19.29
270.619	-15.53
270.835	97.11
271.051	88.92
271.267	-15.53
271.483	-56.49
271.698	95.06
271.914	41.81
272.13	107.35
272.346	-5.29
272.562	60.24
272.777	187.22
272.993	-7.34
273.209	97.11
273.425	21.33
273.64	-9.39
273.856	156.5
274.072	-23.72
274.287	-7.34
274.503	142.16
274.719	172.88
274.934	7
275.15	-68.78
275.366	7
275.581	-72.87
275.797	107.35
276.012	105.3
276.228	50
276.444	50
276.659	99.16
276.875	39.76
277.09	74.58
277.306	15.19
277.521	84.82
277.737	58.2
277.952	84.82
278.168	74.58
278.383	17.24
278.599	90.96
278.814	131.92
279.03	13.14
279.245	183.12
279.461	19.29
279.676	181.07
279.892	-101.55
280.107	13.14
280.322	-23.72
280.538	43.86
280.753	-42.15
280.969	115.54
281.184	78.68
281.399	162.64
281.615	58.2
281.83	90.96
282.045	-36.01
282.26	82.77
282.476	162.64
282.691	60.24
282.906	76.63
283.122	64.34
283.337	50
283.552	111.44
283.767	-52.39
283.983	99.16
284.198	60.24
284.413	93.01
284.628	-70.83
284.843	52.05
285.058	88.92
285.274	80.72
285.489	-33.96
285.704	39.76
285.919	-62.63
286.134	93.01
286.349	70.48
286.564	2.9
286.779	181.07
286.995	19.29
287.21	27.48
287.425	144.21
287.64	11.09
287.855	62.29
288.07	-5.29
288.285	138.07
288.5	164.69
288.715	95.06
288.93	9.05
289.145	25.43
289.36	82.77
289.575	-11.43
289.79	138.07
290.004	-21.67
290.219	166.74
290.434	54.1
290.649	-40.11
290.864	35.67
291.079	82.77
291.294	-3.24
291.509	86.87
291.724	-27.82
291.938	-46.25
292.153	56.15
292.368	60.24
292.583	115.54
292.798	84.82
293.012	-33.96
293.227	70.48
293.442	-25.77
293.657	144.21
293.871	146.26
294.086	-38.06
294.301	205.65
294.516	119.64
294.73	-3.24
294.945	4.95
295.16	140.12
295.374	213.84
295.589	70.48
295.804	11.09
296.018	84.82
296.233	99.16
296.447	105.3
296.662	29.52
296.877	158.55
297.091	90.96
297.306	64.34
297.52	-46.25
297.735	123.73
297.949	105.3
298.164	93.01
298.378	78.68
298.593	-29.87
298.807	7
299.022	60.24
299.236	166.74
299.451	58.2
299.665	35.67
299.88	11.09
300.094	29.52
300.309	0.85
300.523	56.15
300.737	7
300.952	142.16
301.166	78.68
301.381	33.62
301.595	29.52
301.809	95.06
302.024	37.72
302.238	-29.87
302.452	168.79
302.667	13.14
302.881	154.45
303.095	15.19
303.309	41.81
303.524	-74.92
303.738	93.01
303.952	-101.55
304.166	58.2
304.381	-56.49
304.595	162.64
304.809	-13.48
305.023	43.86
305.237	82.77
305.452	-5.29
305.666	127.83
305.88	131.92
306.094	172.88
306.308	82.77
306.522	179.03
306.736	-44.2
306.95	123.73
307.164	-9.39
307.379	27.48
307.593	140.12
307.807	158.55
308.021	133.97
308.235	101.2
308.449	-50.35
308.663	62.29
308.877	189.27
309.091	17.24
309.305	99.16
309.519	-101.55
309.733	123.73
309.947	-83.11
310.161	140.12
310.374	170.83
310.588	131.92
310.802	21.33
311.016	58.2
311.23	39.76
311.444	-19.63
311.658	117.59
311.872	144.21
312.085	131.92
312.299	168.79
312.513	138.07
312.727	35.67
312.941	21.33
313.154	76.63
313.368	62.29
313.582	-5.29
313.796	58.2
314.009	74.58
314.223	119.64
314.437	41.81
314.651	138.07
314.864	-11.43
315.078	76.63
315.292	-1.19
315.505	97.11
315.719	17.24
315.933	43.86
316.146	97.11
316.36	82.77
316.573	56.15
316.787	119.64
317.001	64.34
317.214	-15.53
317.428	15.19
317.641	-19.63
317.855	39.76
318.068	107.35
318.282	113.49
318.495	142.16
318.709	103.25
318.922	68.44
319.136	211.79
319.349	152.4
319.563	-29.87
319.776	43.86
319.99	-79.02
320.203	95.06
320.417	82.77
320.63	121.68
320.843	152.4
321.057	156.5
321.27	47.96
321.483	125.78
321.697	203.6
321.91	45.91
322.124	107.35
322.337	84.82
322.55	11.09
322.763	54.1
322.977	39.76
323.19	25.43
323.403	27.48
323.617	62.29
323.83	111.44
324.043	33.62
324.256	56.15
324.469	-44.2
324.683	154.45
324.896	45.91
325.109	80.72
325.322	-13.48
325.535	121.68
325.748	103.25
325.962	-9.39
326.175	105.3
326.388	93.01
326.601	80.72
326.814	-1.19
327.027	52.05
327.24	127.83
327.453	-27.82
327.666	78.68
327.879	33.62
328.092	99.16
328.305	39.76
328.518	-60.59
328.731	25.43
328.944	-23.72
329.157	21.33
329.37	37.72
329.583	240.47
329.796	164.69
330.009	-68.78
330.222	154.45
330.435	43.86
330.648	-1.19
330.861	86.87
331.073	95.06
331.286	152.4
331.499	47.96
331.712	-9.39
331.925	11.09
332.138	70.48
332.35	162.64
332.563	62.29
332.776	144.21
332.989	17.24
333.202	50
333.414	95.06
333.627	99.16
333.84	-13.48
334.053	80.72
334.265	-48.3
334.478	15.19
334.691	15.19
334.903	64.34
335.116	41.81
335.329	93.01
335.541	52.05
335.754	207.7
335.966	4.95
336.179	50
336.392	101.2
336.604	47.96
336.817	158.55
337.029	80.72
337.242	64.34
337.454	58.2
337.667	52.05
337.88	181.07
338.092	29.52
338.305	66.39
338.517	-1.19
338.729	156.5
338.942	64.34
339.154	15.19
339.367	-52.39
339.579	152.4
339.792	17.24
340.004	47.96
340.217	25.43
340.429	97.11
340.641	-44.2
340.854	31.57
341.066	58.2
341.278	99.16
341.491	117.59
341.703	45.91
341.915	19.29
342.128	121.68
342.34	35.67
342.552	-36.01
342.764	23.38
342.977	-23.72
343.189	72.53
343.401	103.25
343.613	-76.97
343.826	88.92
344.038	9.05
344.25	101.2
344.462	13.14
344.674	60.24
344.886	50
345.099	60.24
345.311	45.91
345.523	27.48
345.735	-56.49
345.947	109.4
346.159	66.39
346.371	80.72
346.583	11.09
346.795	236.37
347.007	56.15
347.219	76.63
347.431	-7.34
347.643	172.88
347.855	13.14
348.067	209.75
348.279	-27.82
348.491	25.43
348.703	142.16
348.915	13.14
349.127	-27.82
349.339	43.86
349.551	13.14
349.763	166.74
349.975	-21.67
350.187	115.54
350.399	97.11
350.61	119.64
350.822	17.24
351.034	140.12
351.246	88.92
351.458	27.48
351.669	72.53
351.881	82.77
352.093	162.64
352.305	113.49
352.517	23.38
352.728	140.12
352.94	70.48
353.152	138.07
353.363	-25.77
353.575	121.68
353.787	209.75
353.999	113.49
354.21	228.18
354.422	0.85
354.633	66.39
354.845	50
355.057	41.81
355.268	-1.19
355.48	136.02
355.692	-7.34
355.903	74.58
356.115	31.57
356.326	-93.35
356.538	86.87
356.749	82.77
356.961	107.35
357.172	23.38
357.384	0.85
357.595	230.23
357.807	-40.11
358.018	33.62
358.23	60.24
358.441	197.46
358.653	111.44
358.864	25.43
359.075	11.09
359.287	86.87
359.498	115.54
359.709	82.77
359.921	11.09
360.132	140.12
360.344	99.16
360.555	76.63
360.766	68.44
360.977	37.72
361.189	60.24
361.4	-9.39
361.611	62.29
361.823	187.22
362.034	68.44
362.245	-89.26
362.456	23.38
362.667	144.21
362.879	-1.19
363.09	105.3
363.301	-15.53
363.512	21.33
363.723	-31.91
363.935	-23.72
364.146	148.31
364.357	-40.11
364.568	70.48
364.779	-83.11
364.99	95.06
365.201	21.33
365.412	156.5
365.623	-97.45
365.834	47.96
366.045	86.87
366.256	117.59
366.467	181.07
366.678	74.58
366.889	39.76
367.1	4.95
367.311	97.11
367.522	-21.67
367.733	142.16
367.944	105.3
368.155	37.72
368.366	39.76
368.577	193.36
368.788	205.65
368.999	-19.63
369.209	29.52
369.42	195.41
369.631	158.55
369.842	80.72
370.053	19.29
370.264	150.36
370.474	-29.87
370.685	117.59
370.896	-70.83
371.107	123.73
371.317	74.58
371.528	-25.77
371.739	150.36
371.95	90.96
372.16	72.53
372.371	-40.11
372.582	52.05
372.792	138.07
373.003	82.77
373.214	103.25
373.424	15.19
373.635	66.39
373.846	162.64
374.056	62.29
374.267	56.15
374.477	33.62
374.688	-54.44
374.898	47.96
375.109	72.53
375.319	47.96
375.53	107.35
375.74	93.01
375.951	88.92
376.161	70.48
376.372	76.63
376.582	-13.48
376.793	219.99
377.003	-44.2
377.214	27.48
377.424	50
377.635	78.68
377.845	2.9
378.055	121.68
378.266	-27.82
378.476	2.9
378.686	54.1
378.897	97.11
379.107	54.1
379.317	160.59
379.528	17.24
379.738	68.44
379.948	-109.74
380.158	195.41
380.369	54.1
380.579	125.78
380.789	97.11
380.999	109.4
381.21	162.64
381.42	170.83
381.63	9.05
381.84	119.64
382.05	78.68
382.261	107.35
382.471	113.49
382.681	-40.11
382.891	199.51
383.101	66.39
383.311	-3.24
383.521	66.39
383.731	58.2
383.941	66.39
384.151	21.33
384.361	29.52
384.571	13.14
384.781	70.48
384.991	248.66
385.201	142.16
385.411	35.67
385.621	105.3
385.831	82.77
386.041	9.05
386.251	68.44
386.461	119.64
386.671	50
386.881	119.64
387.091	90.96
387.301	101.2
387.511	0.85
387.72	90.96
387.93	115.54
388.14	-66.73
388.35	45.91
388.56	146.26
388.769	123.73
388.979	62.29
389.189	-48.3
389.399	-9.39
389.609	113.49
389.818	97.11
390.028	88.92
390.238	56.15
390.447	13.14
390.657	62.29
390.867	37.72
391.076	-70.83
391.286	99.16
391.496	97.11
391.705	62.29
391.915	78.68
392.125	179.03
392.334	41.81
392.544	197.46
392.753	90.96
392.963	27.48
393.172	50
393.382	47.96
393.591	191.31
393.801	60.24
394.01	115.54
394.22	15.19
394.429	31.57
394.639	54.1
394.848	185.17
395.058	154.45
395.267	15.19
395.477	146.26
395.686	78.68
395.895	256.85
396.105	172.88
396.314	9.05
396.524	84.82
396.733	97.11
396.942	80.72
397.152	78.68
397.361	156.5
397.57	78.68
397.78	166.74
397.989	136.02
398.198	166.74
398.407	33.62
398.617	127.83
398.826	103.25
399.035	17.24
399.244	148.31
399.453	64.34
399.663	74.58
399.872	82.77
400.081	-25.77
400.29	133.97
400.499	47.96
400.708	191.31
400.917	41.81
401.127	15.19
401.336	64.34
401.545	234.32
401.754	162.64
401.963	105.3
402.172	74.58
402.381	-15.53
402.59	66.39
402.799	148.31
403.008	142.16
403.217	95.06
403.426	111.44
403.635	-17.58
403.844	93.01
404.053	23.38
404.262	13.14
404.471	133.97
404.68	78.68
404.888	25.43
405.097	45.91
405.306	33.62
405.515	107.35
405.724	70.48
405.933	52.05
406.142	60.24
406.35	115.54
406.559	58.2
406.768	56.15
406.977	174.93
407.185	78.68
407.394	0.85
407.603	-48.3
407.812	119.64
408.02	162.64
408.229	74.58
408.438	86.87
408.646	-109.74
408.855	-7.34
409.064	47.96
409.272	105.3
409.481	68.44
409.69	0.85
409.898	19.29
410.107	152.4
410.315	78.68
410.524	4.95
410.733	84.82
410.941	78.68
411.15	70.48
411.358	150.36
411.567	156.5
411.775	93.01
411.984	54.1
412.192	107.35
412.401	-11.43
412.609	185.17
412.818	131.92
413.026	152.4
413.234	84.82
413.443	31.57
413.651	-9.39
413.86	56.15
414.068	156.5
414.276	166.74
414.485	74.58
414.693	236.37
414.901	138.07
415.11	156.5
415.318	74.58
415.526	144.21
415.734	191.31
415.943	84.82
416.151	232.27
416.359	70.48
416.567	84.82
416.776	66.39
416.984	154.45
417.192	211.79
417.4	88.92
417.608	45.91
417.817	-60.59
418.025	152.4
418.233	146.26
418.441	-9.39
418.649	-5.29
418.857	84.82
419.065	215.89
419.273	82.77
419.481	88.92
419.689	62.29
419.897	74.58
420.105	39.76
420.313	142.16
420.521	115.54
420.729	88.92
420.937	58.2
421.145	-23.72
421.353	90.96
421.561	148.31
421.769	99.16
421.977	27.48
422.185	109.4
422.393	86.87
422.601	111.44
422.809	54.1
423.017	68.44
423.224	95.06
423.432	146.26
423.64	148.31
423.848	95.06
424.056	93.01
424.263	160.59
424.471	21.33
424.679	148.31
424.887	31.57
425.094	224.08
425.302	121.68
425.51	84.82
425.718	117.59
425.925	99.16
426.133	23.38
426.341	238.42
426.548	80.72
426.756	33.62
426.964	88.92
427.171	121.68
427.379	119.64
427.586	103.25
427.794	142.16
428.001	283.47
428.209	86.87
428.417	181.07
428.624	115.54
428.832	103.25
429.039	166.74
429.247	209.75
429.454	119.64
429.662	164.69
429.869	211.79
430.076	152.4
430.284	168.79
430.491	262.99
430.699	60.24
430.906	230.23
431.114	207.7
431.321	197.46
431.528	183.12
431.736	168.79
431.943	185.17
432.15	168.79
432.358	262.99
432.565	318.29
432.772	37.72
432.979	228.18
433.187	142.16
433.394	232.27
433.601	168.79
433.808	244.56
434.016	281.43
434.223	207.7
434.43	273.23
434.637	273.23
434.844	377.68
435.052	267.09
435.259	320.34
435.466	316.24
435.673	279.38
435.88	328.53
436.087	365.39
436.294	430.93
436.501	361.3
436.708	332.62
436.915	330.58
437.122	408.4
437.329	240.47
437.537	328.53
437.743	387.92
437.95	475.98
438.157	512.85
438.364	344.91
438.571	478.03
438.778	523.09
438.985	453.45
439.192	650.06
439.399	516.94
439.606	514.89
439.813	547.66
440.02	719.69
440.227	695.11
440.433	695.11
440.64	650.06
440.847	623.44
441.054	705.35
441.261	758.6
441.467	740.17
441.674	645.96
441.881	678.73
442.088	744.27
442.294	738.12
442.501	830.28
442.708	848.71
442.914	887.62
443.121	1004.36
443.328	1016.65
443.534	1014.6
443.741	1026.89
443.948	957.25
444.154	1090.37
444.361	1364.8
444.568	1209.15
444.774	1270.59
444.981	1168.2
445.187	1372.99
445.394	1293.12
445.6	1387.33
445.807	1637.18
446.013	1446.72
446.22	1397.57
446.426	1612.6
446.633	1698.62
446.839	1962.81
447.046	1600.32
447.252	1973.05
447.459	1862.46
447.665	1893.18
447.871	2036.53
448.078	2231.09
448.284	2192.18
448.491	2403.12
448.697	2347.83
448.903	2583.34
449.11	2493.23
449.316	2515.76
449.522	2798.38
449.728	2794.28
449.935	2865.96
450.141	3048.23
450.347	3195.68
450.553	3203.88
450.76	3228.45
450.966	3304.23
451.172	3527.46
451.378	3660.57
451.584	3687.2
451.791	3902.23
451.997	3928.86
452.203	4270.87
452.409	4428.56
452.615	4623.12
452.821	4557.58
453.027	4487.95
453.233	5085.96
453.44	4963.08
453.646	5092.1
453.852	5344
454.058	5473.03
454.264	5692.16
454.47	6263.54
454.676	6193.91
454.882	6861.55
455.088	6460.15
455.294	6722.29
455.5	7211.75
455.705	7584.48
455.911	7813.85
456.117	7709.41
456.323	8049.37
456.529	8141.53
456.735	8905.42
456.941	9007.82
457.147	9618.11
457.352	9702.08
457.558	9900.73
457.764	10631.86
457.97	11043.5
458.176	11358.89
458.381	11917.98
458.587	12149.4
458.793	12538.52
458.999	12704.4
459.204	14445.18
459.41	14793.33
459.616	14760.56
459.821	15458.92
460.027	16071.26
460.233	16976.47
460.438	16781.91
460.644	17672.78
460.85	17957.44
461.055	18561.59
461.261	19503.66
461.466	19311.15
461.672	19540.52
461.878	22061.57
462.083	21543.44
462.289	22225.41
462.494	22884.86
462.7	23357.94
462.905	23427.57
463.111	25213.4
463.316	26876.35
463.522	26857.92
463.727	28250.53
463.932	28850.59
464.138	29727.12
464.343	31048.06
464.549	31349.11
464.754	33468.76
464.959	34390.34
465.165	34967.87
465.37	34851.14
465.575	35164.48
465.781	37062.94
465.986	38373.64
466.191	37927.19
466.397	38140.18
466.602	37116.19
466.807	39155.97
467.012	39872.76
467.218	40466.67
467.423	40657.13
467.628	42035.41
467.833	43632.83
468.038	42975.43
468.244	42137.81
468.449	44427.44
468.654	43970.74
468.859	43309.25
469.064	43604.16
469.269	42526.92
469.474	43280.58
469.679	44230.83
469.885	43049.16
470.09	43663.55
470.295	43671.74
470.5	42764.49
470.705	43143.36
470.91	41894.1
471.115	41554.14
471.32	42289.36
471.525	41646.3
471.73	40927.46
471.935	40448.24
472.139	38942.98
472.344	39389.44
472.549	39039.23
472.754	38517
472.959	37388.57
473.164	35971.38
473.369	35490.1
473.574	36837.67
473.778	35715.38
473.983	35219.77
474.188	34545.99
474.393	32770.4
474.598	32856.42
474.802	32016.75
475.007	31689.07
475.212	31570.29
475.417	30224.78
475.621	29917.58
475.826	29731.22
476.031	28721.57
476.235	28365.22
476.44	28365.22
476.645	27331
476.849	27302.32
477.054	26696.13
477.259	26225.09
477.463	26276.29
477.668	25461.2
477.872	25635.28
478.077	24801.75
478.282	24056.29
478.486	23708.14
478.691	23632.36
478.895	23505.39
479.1	23298.55
479.304	23685.61
479.509	22475.26
479.713	22729.21
479.918	21944.84
480.122	21778.95
480.326	21830.15
480.531	21824.01
480.735	21651.98
480.94	21338.64
481.144	21787.14
481.348	20836.89
481.553	20730.39
481.757	20236.83
481.961	20443.68
482.166	20355.61
482.37	20394.53
482.574	19921.45
482.778	19864.1
482.983	20144.67
483.187	19747.37
483.391	19769.9
483.595	19151.41
483.8	19042.87
484.004	19208.75
484.208	19073.59
484.412	18698.81
484.616	18541.11
484.821	18485.82
485.025	18045.51
485.229	17787.46
485.433	17773.13
485.637	17394.25
485.841	17187.41
486.045	16972.37
486.249	16941.65
486.453	16542.3
486.657	16425.56
486.861	16267.87
487.065	15809.12
487.269	15770.21
487.473	15194.73
487.677	15184.49
487.881	15442.54
488.085	14606.97
488.289	14633.59
488.493	14248.57
488.697	14115.45
488.901	13638.28
489.105	13288.07
489.309	13419.14
489.512	13314.7
489.716	12984.98
489.92	12513.94
490.124	12599.96
490.328	12468.89
490.531	11995.81
490.735	11989.66
490.939	11752.1
491.143	11557.54
491.346	11387.56
491.55	11047.6
491.754	10846.9
491.958	10994.35
492.161	10703.54
492.365	10494.65
492.569	10181.31
492.772	10040
492.976	10224.31
493.18	9972.41
493.383	9945.79
493.587	9800.38
493.79	9777.86
493.994	9394.89
494.197	9394.89
494.401	9265.86
494.605	9155.27
494.808	9052.88
495.012	9028.3
495.215	9194.19
495.419	8907.47
495.622	8770.26
495.825	8735.44
496.029	8729.3
496.232	8919.76
496.436	8645.33
496.639	8805.07
496.843	8735.44
497.046	8512.21
497.249	8805.07
497.453	8717.01
497.656	8635.09
497.859	8811.21
498.063	8860.37
498.266	8796.88
498.469	8655.57
498.673	8788.69
498.876	8833.74
499.079	8821.45
499.282	8860.37
499.485	9151.18
499.689	8901.33
499.892	9124.55
500.095	8970.96
500.298	9360.07
500.501	9185.99
500.705	9384.65
500.908	9573.06
501.111	9614.02
501.314	9827.01
501.517	9814.72
501.72	9872.06
501.923	9753.28
502.126	9943.74
502.329	10236.6
502.532	9994.94
502.735	10373.82
502.938	10355.38
503.141	10439.35
503.344	10666.67
503.547	10812.08
503.75	11029.17
503.953	11080.36
504.156	11137.71
504.359	11297.45
504.562	11518.63
504.765	11940.51
504.968	11922.08
505.17	12262.04
505.373	12337.82
505.576	12720.79
505.779	12661.4
505.982	13034.13
506.185	13066.89
506.387	13333.13
506.59	13677.19
506.793	13783.68
506.996	13922.94
507.198	14369.4
507.401	14621.3
507.604	14834.29
507.807	15413.87
508.009	15446.63
508.212	15800.93
508.415	16241.25
508.617	16548.44
508.82	16724.57
509.022	16712.28
509.225	17556.04
509.428	17846.85
509.63	18178.62
509.833	18606.65
510.035	19055.15
510.238	19266.1
510.44	19927.59
510.643	20316.7
510.845	20519.45
511.048	20814.36
511.25	21377.55
511.453	21912.07
511.655	23040.5
511.858	22921.72
512.06	23874.03
512.262	24082.92
512.465	24117.73
512.667	25334.23
512.87	25373.14
513.072	26204.61
513.274	26792.38
513.477	27525.55
513.679	28195.24
513.881	28441
514.084	29139.35
514.286	29804.94
514.488	30245.26
514.69	31504.76
514.893	31959.41
515.095	32516.45
515.297	33423.7
515.499	33728.85
515.701	34408.78
515.904	35379.51
516.106	36444.46
516.308	36931.87
516.51	37626.14
516.712	38150.42
516.914	39211.26
517.116	39852.28
517.318	40335.6
517.52	40952.04
517.722	41580.76
517.925	42830.02
518.127	43651.26
518.329	44325.04
518.531	44576.94
518.733	46014.62
518.935	46626.96
519.136	47093.89
519.338	48074.87
519.54	48400.5
519.742	49205.35
519.944	49383.52
520.146	50882.64
520.348	51302.47
520.55	51804.22
520.752	52361.27
520.954	53442.6
521.155	53536.8
521.357	54816.78
521.559	55113.74
521.761	56064
521.963	56260.6
522.164	56199.16
522.366	56887.28
522.568	57675.75
522.77	57884.64
522.971	58824.66
523.173	58460.12
523.375	58902.48
523.576	59013.07
523.778	59379.66
523.98	59885.51
524.181	59901.89
524.383	60114.88
524.584	60923.83
524.786	60624.82
524.988	60663.74
525.189	60895.16
525.391	61269.93
525.592	61292.46
525.794	61530.03
525.995	60829.62
526.197	61020.08
526.398	60915.64
526.6	60954.55
526.801	60516.28
527.003	60725.17
527.204	60684.22
527.406	60479.42
527.607	60221.37
527.808	60299.2
528.01	59238.35
528.211	59469.77
528.412	59891.65
528.614	59090.9
528.815	58636.25
529.016	58656.73
529.218	57776.1
529.419	57624.55
529.62	56735.73
529.822	56145.92
530.023	55762.95
530.224	55504.9
530.425	55056.4
530.626	54056.99
530.828	53512.23
531.029	54188.06
531.23	52899.89
531.431	52125.75
531.632	51712.06
531.833	51521.6
532.035	50583.63
532.236	50069.59
532.437	49676.38
532.638	48425.07
532.839	48582.77
533.04	48179.32
533.241	46882.95
533.442	47411.33
533.643	46311.57
533.844	45516.96
534.045	45191.33
534.246	44146.87
534.447	43841.72
534.648	43327.68
534.849	42752.2
535.05	42035.41
535.251	41806.04
535.451	41201.89
535.652	40804.58
535.853	40091.89
536.054	39131.39
536.255	38705.41
536.456	38324.49
536.657	37918.99
536.857	37294.36
537.058	36694.31
537.259	36393.26
537.46	36071.73
537.66	35207.48
537.861	35223.87
538.062	34505.03
538.263	34206.03
538.463	34003.28
538.664	33114.46
538.865	32917.86
539.065	32717.15
539.266	32217.45
539.466	32063.85
539.667	31422.84
539.868	30861.69
540.068	30679.43
540.269	30294.41
540.469	30013.84
540.67	29720.98
540.87	29264.28
541.071	28705.18
541.271	28735.9
541.472	28486.05
541.672	27521.46
541.873	27490.74
542.073	27197.88
542.274	27359.67
542.474	26882.49
542.675	26499.52
542.875	26415.55
543.075	25903.56
543.276	25477.58
543.476	25412.05
543.676	24811.99
543.877	24644.06
544.077	24488.42
544.277	24160.74
544.478	23957.99
544.678	23962.09
544.878	23304.69
545.078	23237.11
545.279	22878.71
545.479	22624.76
545.679	22585.85
545.879	22110.72
546.079	21912.07
546.28	21330.45
546.48	21316.11
546.68	21221.91
546.88	20910.61
547.08	20722.2
547.28	20523.55
547.48	19905.06
547.68	19974.69
547.88	19356.21
548.081	19573.29
548.281	19339.82
548.481	18919.99
548.681	18645.56
548.881	18522.68
549.081	18178.62
549.28	17826.37
549.48	17828.42
549.68	17609.29
549.88	17279.57
550.08	16984.66
550.28	16898.64
550.48	16548.44
550.68	16644.7
550.88	16058.98
551.08	15870.56
551.279	15796.84
551.479	15239.79
551.679	15237.74
551.879	15065.71
552.079	14836.34
552.278	14555.77
552.478	14572.15
552.678	14105.21
552.878	13994.62
553.077	13589.13
553.277	13312.65
553.477	13552.26
553.676	13101.71
553.876	13003.41
554.076	12536.47
554.275	12511.89
554.475	12249.75
554.674	12221.08
554.874	11883.17
555.074	11717.28
555.273	11506.34
555.473	11485.86
555.672	11190.95
555.872	11068.08
556.071	10769.07
556.271	10752.69
556.47	10445.49
556.67	10261.18
556.869	10246.84
557.068	9966.27
557.268	9726.66
557.467	9769.66
557.667	9593.54
557.866	9347.78
558.065	9171.66
558.265	9218.76
558.464	8936.14
558.663	8788.69
558.863	8723.15
559.062	8798.93
559.261	8276.7
559.461	8383.19
559.66	8299.22
559.859	7881.44
560.058	7875.29
560.258	7867.1
560.457	7613.15
560.656	7494.37
560.855	7369.44
561.054	7559.91
561.253	7115.5
561.453	7172.84
561.652	6937.32
561.851	6933.23
562.05	6640.37
562.249	6482.67
562.448	6652.66
562.647	6433.52
562.846	6337.27
563.045	6406.9
563.244	6267.64
563.443	6208.25
563.642	5935.87
563.841	6048.51
564.04	5927.67
564.239	5911.29
564.438	5667.58
564.637	5575.42
564.836	5481.22
565.035	5411.59
565.234	5227.27
565.432	5292.8
565.631	5366.53
565.83	5067.53
566.029	5061.38
566.228	4985.61
566.427	4926.22
566.625	4557.58
566.824	4823.82
567.023	4688.65
567.222	4580.11
567.42	4541.2
567.619	4440.85
567.818	4524.82
568.016	4510.48
568.215	4315.92
568.414	4215.57
568.612	4305.68
568.811	4231.96
569.01	4178.71
569.208	3961.62
569.407	3986.2
569.605	3984.15
569.804	4016.92
570.002	3818.27
570.201	3838.75
570.4	3707.68
570.598	3654.43
570.797	3482.4
570.995	3386.15
571.193	3357.47
571.392	3451.68
571.59	3330.85
571.789	3375.91
571.987	3318.56
572.186	3330.85
572.384	3081
572.582	3240.74
572.781	3144.49
572.979	2941.74
573.177	3013.42
573.376	3076.9
573.574	2904.87
573.772	3011.37
573.971	2734.89
574.169	2683.69
574.367	2771.76
574.565	2614.06
574.763	2591.53
574.962	2708.27
575.16	2540.33
575.358	2482.99
575.556	2452.27
575.754	2425.65
575.952	2315.06
576.151	2384.69
576.349	2327.35
576.547	2089.78
576.745	2198.32
576.943	2278.19
577.141	2147.12
577.339	2159.41
577.537	2030.39
577.735	2243.38
577.933	2143.03
578.131	2097.97
578.329	2192.18
578.527	1911.61
578.725	1989.43
578.923	1848.12
579.121	1983.29
579.319	1798.97
579.516	1870.65
579.714	2003.77
579.912	1770.3
580.11	1676.09
580.308	1696.57
580.506	1698.62
580.704	1475.39
580.901	1553.21
581.099	1825.59
581.297	1612.6
581.495	1561.41
581.692	1545.02
581.89	1667.9
582.088	1524.54
582.285	1432.38
582.483	1387.33
582.681	1413.95
582.878	1432.38
583.076	1399.62
583.274	1387.33
583.471	1442.62
583.669	1393.47
583.866	1346.37
584.064	1258.31
584.262	1276.74
584.459	1176.39
584.657	1272.64
584.854	1311.55
585.052	1305.41
585.249	1299.27
585.447	1125.19
585.644	1160
585.841	1215.3
586.039	1155.91
586.236	1192.77
586.434	1133.38
586.631	1012.55
586.828	1119.04
587.026	1073.99
587.223	932.68
587.42	1063.75
587.618	1063.75
587.815	1049.41
588.012	1037.13
588.21	926.54
588.407	1020.74
588.604	990.02
588.801	942.92
588.999	967.49
589.196	953.16
589.393	922.44
589.59	942.92
589.787	897.86
589.984	914.25
590.182	981.83
590.379	817.99
590.576	916.3
590.773	871.24
590.97	811.85
591.167	846.66
591.364	861
591.561	850.76
591.758	959.3
591.955	830.28
592.152	817.99
592.349	869.19
592.546	830.28
592.743	838.47
592.94	807.75
593.137	875.34
593.334	951.11
593.531	854.86
593.727	920.39
593.924	846.66
594.121	924.49
594.318	838.47
594.515	928.58
594.712	1004.36
594.908	975.69
595.105	783.18
595.302	965.45
595.499	1008.45
595.696	1073.99
595.892	908.1
596.089	977.73
596.286	949.06
596.482	1041.22
596.679	1012.55
596.876	1094.47
597.072	1090.37
597.269	1051.46
597.466	1088.32
597.662	1055.56
597.859	1143.62
598.055	1198.92
598.252	1317.7
598.448	1289.03
598.645	1418.05
598.841	1401.66
599.038	1575.74
599.234	1573.69
599.431	1510.21
599.627	1579.84
599.824	1628.99
600.02	1653.56
600.217	1717.05
600.413	1807.16
600.609	1985.34
600.806	2100.02
601.002	1971
601.198	2005.81
601.395	2257.71
601.591	2222.9
601.787	2325.3
601.984	2489.14
602.18	2624.3
602.376	2505.52
602.572	2786.09
602.769	2833.19
602.965	2917.16
603.161	3138.34
603.357	3257.12
603.553	3312.42
603.75	3369.76
603.946	3271.46
604.142	3547.94
604.338	3705.63
604.534	3775.26
604.73	3969.82
604.926	4147.99
605.122	4252.44
605.318	4172.57
605.514	4461.33
605.71	4508.43
605.906	4780.81
606.102	4807.44
606.298	5122.82
606.494	5217.03
606.69	5296.9
606.886	5434.11
607.082	5530.37
607.278	5749.5
607.474	6064.89
607.67	6177.53
607.866	5972.73
608.062	6494.96
608.257	6576.88
608.453	6671.09
608.649	7009
608.845	6916.84
609.041	7160.55
609.236	7434.98
609.432	7604.96
609.628	7906.01
609.824	8297.17
610.019	8348.37
610.215	8430.29
610.411	8962.76
610.606	9212.62
610.802	9155.27
610.998	9435.85
611.193	9888.45
611.389	9906.88
611.584	10502.84
611.78	10322.62
611.976	10707.63
612.171	11180.71
612.367	11569.83
612.562	11698.85
612.758	11819.68
612.953	12014.24
613.149	12681.88
613.344	12530.33
613.539	13261.45
613.735	13560.45
613.93	14301.82
614.126	14203.52
614.321	15092.34
614.517	15096.43
614.712	15420.01
614.907	15665.77
615.103	16306.78
615.298	16568.92
615.493	17060.43
615.688	17324.62
615.884	18383.42
616.079	18160.19
616.274	19083.83
616.47	19167.79
616.665	19900.97
616.86	20376.09
617.055	20939.29
617.25	21367.31
617.445	22139.4
617.641	22303.23
617.836	23159.28
618.031	23173.62
618.226	24162.79
618.421	24531.42
618.616	25528.78
618.811	25450.96
619.006	26464.71
619.201	26565.06
619.396	27408.82
619.591	27627.95
619.786	28334.5
619.981	29055.39
620.176	29813.13
620.371	30179.72
620.566	31193.47
620.761	31543.67
620.956	32487.78
621.151	32762.21
621.346	33767.76
621.541	33751.38
621.735	35076.41
621.93	35064.13
622.125	36235.56
622.32	36407.59
622.515	37529.88
622.709	37886.23
622.904	38715.65
623.099	39174.4
623.294	40407.28
623.488	40476.91
623.683	41441.5
623.878	41652.44
624.072	42571.98
624.267	43186.37
624.462	43602.11
624.656	44605.61
624.851	45254.82
625.046	45693.08
625.24	46422.16
625.435	47112.33
625.629	47777.92
625.824	47992.95
626.018	49195.11
626.213	48666.73
626.407	49864.8
626.602	49807.45
626.796	50841.68
626.991	51529.8
627.185	51558.47
627.38	52045.88
627.574	52346.93
627.768	52099.13
627.963	52516.92
628.157	52883.5
628.352	53086.25
628.546	52699.19
628.74	53905.44
628.935	52611.12
629.129	53372.97
629.323	52533.3
629.517	52557.88
629.712	52226.1
629.906	52060.22
630.1	50747.47
630.294	51380.29
630.489	49893.47
630.683	50235.48
630.877	48699.5
631.071	48150.65
631.265	47739
631.459	46528.66
631.653	45555.87
631.848	44869.8
632.042	43759.8
632.236	43587.77
632.43	41435.36
632.624	40966.37
632.818	39434.49
633.012	38054.16
633.206	37237.02
633.4	36174.13
633.594	34584.9
633.788	33812.82
633.982	32500.07
634.176	31441.27
634.369	30138.76
634.563	29370.77
634.757	27965.87
634.951	27218.36
635.145	26110.41
635.339	25188.82
635.533	23982.57
635.726	23249.39
635.92	21662.22
636.114	21035.54
636.308	20130.34
636.501	19823.14
636.695	18805.3
636.889	18074.18
637.083	17093.2
637.276	16208.48
637.47	15698.53
637.664	15245.93
637.857	14686.84
638.051	14109.31
638.244	13570.69
638.438	13052.56
638.632	12454.55
638.825	11917.98
639.019	11377.32
639.212	11059.88
639.406	10478.26
639.599	10132.15
639.793	9679.55
639.986	9485
640.18	9241.29
640.373	8551.12
640.567	8221.4
640.76	7938.78
640.954	7641.82
641.147	7484.13
641.34	7078.63
641.534	6836.97
641.727	6691.57
641.92	6400.76
642.114	6150.9
642.307	5694.21
642.5	5812.99
642.694	5563.14
642.887	5202.69
643.08	5282.56
643.273	4877.07
643.467	4576.02
643.66	4453.14
643.853	4344.6
644.046	4188.95
644.239	3982.1
644.432	3771.16
644.626	3588.89
644.819	3554.08
645.012	3400.48
645.205	3332.9
645.398	3246.88
645.591	3029.8
645.784	2741.04
645.977	2644.78
646.17	2753.32
646.363	2642.73
646.556	2472.75
646.749	2360.11
646.942	2224.95
647.135	2347.83
647.328	2224.95
647.521	2110.26
647.714	1993.53
647.907	1887.03
648.099	1807.16
648.292	1887.03
648.485	1702.72
648.678	1712.96
648.871	1508.16
649.064	1600.32
649.256	1426.24
649.449	1450.82
649.642	1278.79
649.835	1248.07
650.027	1229.63
650.22	1229.63
650.413	1219.39
650.605	1243.97
650.798	1108.8
650.991	1086.28
651.183	994.12
651.376	1043.27
651.568	1065.8
651.761	932.68
651.954	1035.08
652.146	832.33
652.339	979.78
652.531	1020.74
652.724	856.9
652.916	785.23
653.109	693.07
653.301	770.89
653.494	875.34
653.686	752.46
653.879	873.29
654.071	660.3
654.263	648.01
654.456	629.58
654.648	744.27
654.84	672.59
655.033	580.43
655.225	676.68
655.417	486.22
655.61	664.4
655.802	643.92
655.994	629.58
656.186	422.73
656.379	617.29
656.571	455.5
656.763	471.89
656.955	478.03
657.148	449.36
657.34	578.38
657.532	418.64
657.724	512.85
657.916	451.41
658.108	529.23
658.3	451.41
658.492	490.32
658.684	328.53
658.876	533.33
659.068	328.53
659.26	267.09
659.452	367.44
659.644	400.21
659.836	432.97
660.028	420.69
660.22	303.95
660.412	367.44
660.604	320.34
660.796	346.96
660.988	342.86
661.18	316.24
661.372	338.77
661.563	396.11
661.755	228.18
661.947	215.89
662.139	211.79
662.331	232.27
662.522	320.34
662.714	185.17
662.906	211.79
663.097	258.9
663.289	250.71
663.481	168.79
663.673	248.66
663.864	248.66
664.056	285.52
664.247	207.7
664.439	351.06
664.631	385.87
664.822	400.21
665.014	254.8
665.205	236.37
665.397	197.46
665.588	217.94
665.78	289.62
665.971	275.28
666.163	213.84
666.354	242.51
666.546	174.93
666.737	230.23
666.929	181.07
667.12	176.98
667.311	187.22
667.503	265.04
667.694	262.99
667.885	285.52
668.077	283.47
668.268	201.55
668.459	138.07
668.651	336.72
668.842	256.85
669.033	150.36
669.224	162.64
669.416	445.26
669.607	269.14
669.798	127.83
669.989	336.72
670.18	205.65
670.371	299.86
670.563	164.69
670.754	326.48
670.945	297.81
671.136	224.08
671.327	197.46
671.518	273.23
671.709	361.3
671.9	267.09
672.091	381.78
672.282	320.34
672.473	310.1
672.664	217.94
672.855	242.51
673.046	285.52
673.237	373.58
673.428	332.62
673.619	330.58
673.809	215.89
674	453.45
674.191	353.1
674.382	217.94
674.573	312.14
674.764	299.86
674.954	361.3
675.145	217.94
675.336	207.7
675.527	240.47
675.717	265.04
675.908	287.57
676.099	289.62
676.289	258.9
676.48	215.89
676.671	269.14
676.861	303.95
677.052	396.11
677.243	306
677.433	234.32
677.624	443.21
677.814	385.87
678.005	355.15
678.195	455.5
678.386	314.19
678.576	400.21
678.767	355.15
678.957	353.1
679.148	396.11
679.338	467.79
679.529	516.94
679.719	392.02
679.909	498.51
680.1	502.61
680.29	373.58
680.481	346.96
680.671	420.69
680.861	492.37
681.052	459.6
681.242	346.96
681.432	447.31
681.622	445.26
681.813	279.38
682.003	312.14
682.193	379.73
682.383	478.03
682.573	353.1
682.764	465.74
682.954	398.16
683.144	494.41
683.334	482.13
683.524	387.92
683.714	463.69
683.904	512.85
684.094	451.41
684.284	402.26
684.474	539.47
684.664	496.46
684.854	518.99
685.044	451.41
685.234	428.88
685.424	562
685.614	441.17
685.804	619.34
685.994	488.27
686.184	486.22
686.374	502.61
686.564	387.92
686.753	484.17
686.943	406.35
687.133	449.36
687.323	533.33
687.513	504.65
687.702	525.13
687.892	537.42
688.082	502.61
688.272	574.28
688.461	432.97
688.651	639.82
688.841	582.48
689.03	443.21
689.22	475.98
689.41	545.61
689.599	490.32
689.789	424.78
689.979	471.89
690.168	461.65
690.358	488.27
690.547	525.13
690.737	482.13
690.926	490.32
691.116	430.93
691.305	498.51
691.495	488.27
691.684	383.82
691.874	420.69
692.063	486.22
692.252	443.21
692.442	473.93
692.631	357.2
692.82	437.07
693.01	435.02
693.199	467.79
693.388	404.3
693.578	379.73
693.767	527.18
693.956	387.92
694.146	473.93
694.335	480.08
694.524	336.72
694.713	414.54
694.902	422.73
695.092	365.39
695.281	469.84
695.47	392.02
695.659	408.4
695.848	377.68
696.037	338.77
696.226	478.03
696.415	389.97
696.604	445.26
696.793	447.31
696.982	396.11
697.171	465.74
697.36	394.06
697.549	420.69
697.738	248.66
697.927	361.3
698.116	297.81
698.305	484.17
698.494	459.6
698.683	262.99
698.872	521.04
699.061	404.3
699.25	271.19
699.438	416.59
699.627	375.63
699.816	506.7
700.005	320.34
700.193	387.92
700.382	396.11
700.571	310.1
700.76	396.11
700.948	430.93
701.137	398.16
701.326	455.5
701.514	357.2
701.703	392.02
701.892	379.73
702.08	539.47
702.269	404.3
702.457	213.84
702.646	355.15
702.834	297.81
703.023	469.84
703.212	367.44
703.4	398.16
703.589	310.1
703.777	273.23
703.965	273.23
704.154	283.47
704.342	295.76
704.531	369.49
704.719	377.68
704.907	416.59
705.096	297.81
705.284	375.63
705.472	447.31
705.661	367.44
705.849	402.26
706.037	385.87
706.226	363.34
706.414	349.01
706.602	326.48
706.79	437.07
706.979	330.58
707.167	400.21
707.355	269.14
707.543	422.73
707.731	418.64
707.919	338.77
708.107	283.47
708.296	297.81
708.484	273.23
708.672	480.08
708.86	330.58
709.048	332.62
709.236	197.46
709.424	435.02
709.612	301.9
709.8	279.38
709.988	353.1
710.176	398.16
710.364	453.45
710.551	355.15
710.739	275.28
710.927	381.78
711.115	375.63
711.303	430.93
711.491	404.3
711.679	320.34
711.866	369.49
712.054	277.33
712.242	363.34
712.43	437.07
712.617	332.62
712.805	406.35
712.993	369.49
713.181	238.42
713.368	426.83
713.556	271.19
713.744	377.68
713.931	537.42
714.119	326.48
714.306	394.06
714.494	314.19
714.682	287.57
714.869	281.43
715.057	228.18
715.244	312.14
715.432	336.72
715.619	338.77
715.807	432.97
715.994	404.3
716.182	369.49
716.369	385.87
716.556	418.64
716.744	258.9
716.931	252.75
717.119	394.06
717.306	340.82
717.493	418.64
717.681	332.62
717.868	310.1
718.055	385.87
718.242	383.82
718.43	377.68
718.617	432.97
718.804	398.16
718.991	516.94
719.179	430.93
719.366	383.82
719.553	465.74
719.74	322.38
719.927	314.19
720.114	457.55
720.301	422.73
720.488	353.1
720.676	303.95
720.863	432.97
721.05	535.37
721.237	414.54
721.424	365.39
721.611	437.07
721.798	306
721.985	275.28
722.172	377.68
722.358	338.77
722.545	406.35
722.732	406.35
722.919	590.67
723.106	430.93
723.293	400.21
723.48	435.02
723.667	402.26
723.853	467.79
724.04	443.21
724.227	459.6
724.414	406.35
724.6	432.97
724.787	500.56
724.974	562
725.161	435.02
725.347	342.86
725.534	387.92
725.72	410.45
725.907	375.63
726.094	463.69
726.28	406.35
726.467	359.25
726.653	342.86
726.84	486.22
727.027	533.33
727.213	437.07
727.4	523.09
727.586	428.88
727.773	334.67
727.959	371.54
728.145	445.26
728.332	369.49
728.518	437.07
728.705	400.21
728.891	416.59
729.077	443.21
729.264	312.14
729.45	381.78
729.636	461.65
729.823	437.07
730.009	451.41
730.195	463.69
730.382	486.22
730.568	387.92
730.754	385.87
730.94	344.91
731.126	439.12
731.313	482.13
731.499	381.78
731.685	453.45
731.871	502.61
732.057	394.06
732.243	523.09
732.429	451.41
732.615	547.66
732.801	408.4
732.987	416.59
733.173	506.7
733.359	387.92
733.545	422.73
733.731	406.35
733.917	510.8
734.103	404.3
734.289	506.7
734.475	398.16
734.661	629.58
734.847	504.65
735.033	377.68
735.219	469.84
735.404	516.94
735.59	353.1
735.776	412.5
735.962	459.6
736.148	512.85
736.333	480.08
736.519	512.85
736.705	447.31
736.89	441.17
737.076	414.54
737.262	518.99
737.447	426.83
737.633	426.83
737.819	594.76
738.004	387.92
738.19	478.03
738.375	420.69
738.561	533.33
738.747	469.84
738.932	367.44
739.118	594.76
739.303	553.8
739.489	521.04
739.674	365.39
739.859	451.41
740.045	414.54
740.23	385.87
740.416	359.25
740.601	576.33
740.786	480.08
740.972	375.63
741.157	453.45
741.342	392.02
741.528	291.66
741.713	498.51
741.898	398.16
742.084	379.73
742.269	385.87
742.454	482.13
742.639	500.56
742.824	353.1
743.01	486.22
743.195	535.37
743.38	443.21
743.565	439.12
743.75	437.07
743.935	455.5
744.12	512.85
744.305	377.68
744.49	367.44
744.675	369.49
744.86	375.63
745.045	478.03
745.23	424.78
745.415	527.18
745.6	443.21
745.785	349.01
745.97	445.26
746.155	486.22
746.34	480.08
746.525	459.6
746.71	541.52
746.895	283.47
747.079	402.26
747.264	312.14
747.449	447.31
747.634	461.65
747.819	392.02
748.003	414.54
748.188	262.99
748.373	459.6
748.557	379.73
748.742	349.01
748.927	379.73
749.111	377.68
749.296	357.2
749.481	424.78
749.665	439.12
749.85	322.38
750.034	394.06
750.219	340.82
750.404	371.54
750.588	387.92
750.773	349.01
750.957	373.58
751.141	383.82
751.326	383.82
751.51	330.58
751.695	275.28
751.879	240.47
752.064	379.73
752.248	328.53
752.432	523.09
752.617	400.21
752.801	367.44
752.985	371.54
753.17	439.12
753.354	279.38
753.538	320.34
753.722	271.19
753.907	306
754.091	258.9
754.275	346.96
754.459	121.68
754.643	189.27
754.828	365.39
755.012	361.3
755.196	232.27
755.38	230.23
755.564	224.08
755.748	289.62
755.932	344.91
756.116	351.06
756.3	277.33
756.484	201.55
756.668	260.95
756.852	140.12
757.036	207.7
757.22	262.99
757.404	238.42
757.588	142.16
757.772	246.61
757.956	234.32
758.14	293.71
758.323	269.14
758.507	306
758.691	209.75
758.875	283.47
759.059	328.53
759.242	197.46
759.426	195.41
759.61	244.56
759.794	215.89
759.977	215.89
760.161	430.93
760.345	314.19
760.528	240.47
760.712	244.56
760.895	211.79
761.079	217.94
761.263	138.07
761.446	226.13
761.63	193.36
761.813	308.05
761.997	152.4
762.18	185.17
762.364	248.66
762.547	31.57
762.731	146.26
762.914	160.59
763.098	248.66
763.281	201.55
763.464	215.89
763.648	213.84
763.831	219.99
764.015	121.68
764.198	240.47
764.381	191.31
764.564	207.7
764.748	230.23
764.931	250.71
765.114	148.31
765.297	228.18
765.481	78.68
765.664	262.99
765.847	99.16
766.03	306
766.213	70.48
766.397	144.21
766.58	35.67
766.763	191.31
766.946	152.4
767.129	119.64
767.312	170.83
767.495	172.88
767.678	136.02
767.861	219.99
768.044	166.74
768.227	105.3
768.41	105.3
768.593	195.41
768.776	213.84
768.959	160.59
769.142	262.99
769.324	125.78
769.507	160.59
769.69	115.54
769.873	86.87
770.056	334.67
770.239	86.87
770.421	295.76
770.604	170.83
770.787	172.88
770.97	138.07
771.152	99.16
771.335	158.55
771.518	45.91
771.7	203.6
771.883	162.64
772.066	109.4
772.248	201.55
772.431	262.99
772.613	154.45
772.796	154.45
772.978	142.16
773.161	201.55
773.343	119.64
773.526	33.62
773.708	-38.06
773.891	9.05
774.073	168.79
774.256	123.73
774.438	269.14
774.621	127.83
774.803	226.13
774.985	164.69
775.168	121.68
775.35	90.96
775.532	170.83
775.715	99.16
775.897	121.68
776.079	164.69
776.261	164.69
776.444	129.88
776.626	140.12
776.808	84.82
776.99	7
777.173	117.59
777.355	50
777.537	90.96
777.719	2.9
777.901	158.55
778.083	-7.34
778.265	-19.63
778.447	123.73
778.629	43.86
778.811	93.01
778.993	142.16
779.175	99.16
779.357	86.87
779.539	35.67
779.721	56.15
779.903	172.88
780.085	19.29
780.267	185.17
780.449	64.34
780.631	129.88
780.812	160.59
780.994	142.16
781.176	9.05
781.358	74.58
781.54	2.9
781.721	146.26
781.903	156.5
782.085	117.59
782.267	181.07
782.448	11.09
782.63	82.77
782.812	129.88
782.993	70.48
783.175	109.4
783.357	58.2
783.538	125.78
783.72	25.43
783.901	21.33
784.083	150.36
784.264	154.45
784.446	-1.19
784.627	-31.91
784.809	136.02
784.99	68.44
785.172	201.55
785.353	68.44
785.535	99.16
785.716	121.68
785.897	-9.39
786.079	88.92
786.26	47.96
786.441	127.83
786.623	-23.72
786.804	-50.35
786.985	37.72
787.167	127.83
787.348	45.91
787.529	35.67
787.71	123.73
787.891	64.34
788.073	78.68
788.254	-17.58
788.435	174.93
788.616	15.19
788.797	9.05
788.978	-44.2
789.159	-3.24
789.34	99.16
789.522	15.19
789.703	-36.01
789.884	76.63
790.065	95.06
790.246	164.69
790.427	4.95
790.607	156.5
790.788	148.31
790.969	-9.39
791.15	156.5
791.331	-64.68
791.512	76.63
791.693	-40.11
791.874	-27.82
792.054	160.59
792.235	121.68
792.416	-5.29
792.597	31.57
792.778	95.06
792.958	103.25
793.139	35.67
793.32	78.68
793.5	31.57
793.681	138.07
793.862	103.25
794.042	88.92
794.223	-54.44
794.404	27.48
794.584	-50.35
794.765	111.44
794.945	60.24
795.126	105.3
795.306	131.92
795.487	66.39
795.667	13.14
795.848	41.81
796.028	31.57
796.209	21.33
796.389	70.48
796.57	23.38
796.75	-52.39
796.93	23.38
797.111	-44.2
797.291	17.24
797.471	70.48
797.652	-42.15
797.832	31.57
798.012	64.34
798.192	13.14
798.373	-31.91
798.553	-21.67
798.733	60.24
798.913	0.85
799.093	19.29
799.274	39.76
799.454	99.16
799.634	129.88
799.814	25.43
799.994	37.72
800.174	17.24
800.354	148.31
800.534	-56.49
800.714	138.07
800.894	4.95
801.074	-50.35
801.254	-15.53
801.434	133.97
801.614	21.33
801.794	31.57
801.974	1747.77
802.154	0.85
802.334	127.83
802.514	-36.01
802.693	25.43
802.873	17.24
803.053	109.4
803.233	66.39
803.413	58.2
803.592	-46.25
803.772	9.05
803.952	148.31
804.131	-11.43
804.311	62.29
804.491	95.06
804.67	33.62
804.85	56.15
805.03	76.63
805.209	133.97
805.389	72.53
805.568	9.05
805.748	27.48
805.928	25.43
806.107	131.92
806.287	97.11
806.466	131.92
806.646	-46.25
806.825	78.68
807.004	-40.11
807.184	56.15
807.363	95.06
807.543	-44.2
807.722	-68.78
807.901	148.31
808.081	144.21
808.26	-89.26
808.439	74.58
808.619	95.06
808.798	11.09
808.977	0.85
809.156	119.64
809.336	103.25
809.515	60.24
809.694	-19.63
809.873	-33.96
810.052	41.81
810.231	72.53
810.411	39.76
810.59	72.53
810.769	37.72
810.948	68.44
811.127	-81.07
811.306	11.09
811.485	-52.39
811.664	162.64
811.843	-21.67
812.022	25.43
812.201	4.95
812.38	-7.34
812.559	52.05
812.737	127.83
812.916	-56.49
813.095	15.19
813.274	60.24
813.453	-25.77
813.632	111.44
813.811	162.64
813.989	-66.73
814.168	39.76
814.347	-3.24
814.526	4.95
814.704	54.1
814.883	156.5
815.062	-103.59
815.24	129.88
815.419	0.85
815.598	74.58
815.776	-68.78
815.955	-33.96
816.133	-162.98
816.312	-5.29
816.49	-13.48
816.669	88.92
816.847	-23.72
817.026	78.68
817.204	47.96
817.383	27.48
817.561	21.33
817.74	138.07
817.918	60.24
818.097	-27.82
818.275	-36.01
818.453	80.72
818.632	99.16
818.81	-23.72
818.988	70.48
819.167	7
819.345	45.91
819.523	-15.53
819.701	13.14
819.879	70.48
820.058	78.68
820.236	78.68
820.414	7
820.592	-1.19
820.77	-15.53
820.948	-52.39
821.127	-46.25
821.305	45.91
821.483	-42.15
821.661	54.1
821.839	7
822.017	-81.07
822.195	37.72
822.373	121.68
822.551	-5.29
822.729	111.44
822.907	2.9
823.085	52.05
823.262	119.64
823.44	-11.43
823.618	19.29
823.796	17.24
823.974	11.09
824.152	13.14
824.329	-19.63
824.507	66.39
824.685	25.43
824.863	9.05
825.04	90.96
825.218	58.2
825.396	56.15
825.574	47.96
825.751	31.57
825.929	41.81
826.107	0.85
826.284	15.19
826.462	74.58
826.639	-60.59
826.817	7
826.994	-56.49
827.172	19.29
827.349	152.4
827.527	37.72
827.704	88.92
827.882	15.19
828.059	60.24
828.237	60.24
828.414	68.44
828.591	-27.82
828.769	56.15
828.946	52.05
829.124	99.16
829.301	105.3
829.478	-3.24
829.655	144.21
829.833	43.86
830.01	-117.93
830.187	41.81
830.364	109.4
830.542	41.81
830.719	123.73
830.896	76.63
831.073	70.48
831.25	9.05
831.427	29.52
831.604	-25.77
831.782	4.95
831.959	66.39
832.136	43.86
832.313	27.48
832.49	-58.54
832.667	-29.87
832.844	9.05
833.021	111.44
833.198	70.48
833.374	-5.29
833.551	50
833.728	-13.48
833.905	68.44
834.082	-50.35
834.259	21.33
834.436	150.36
834.612	-27.82
834.789	58.2
834.966	-70.83
835.143	97.11
835.319	-52.39
835.496	74.58
835.673	111.44
835.85	33.62
836.026	68.44
836.203	99.16
836.38	54.1
836.556	-124.07
836.733	9.05
836.909	142.16
837.086	27.48
837.262	-76.97
837.439	29.52
837.616	-1.19
837.792	-23.72
837.968	33.62
838.145	-81.07
838.321	-27.82
838.498	136.02
838.674	121.68
838.851	121.68
839.027	-23.72
839.203	25.43
839.38	109.4
839.556	-19.63
839.732	62.29
839.909	7
840.085	37.72
840.261	29.52
840.437	86.87
840.614	43.86
840.79	142.16
840.966	62.29
841.142	90.96
841.318	-66.73
841.494	62.29
841.671	146.26
841.847	17.24
842.023	-56.49
842.199	31.57
842.375	138.07
842.551	-29.87
842.727	-56.49
842.903	121.68
843.079	-66.73
843.255	82.77
843.431	25.43
843.607	56.15
843.783	-99.5
843.959	0.85
844.134	-42.15
844.31	189.27
844.486	-7.34
844.662	-70.83
844.838	47.96
845.013	78.68
845.189	74.58
845.365	68.44
845.541	25.43
845.716	7
845.892	62.29
846.068	25.43
846.244	-62.63
846.419	-1.19
846.595	25.43
846.77	13.14
846.946	82.77
847.122	-27.82
847.297	-48.3
847.473	185.17
847.648	-13.48
847.824	-50.35
847.999	-103.59
848.175	9.05
848.35	64.34
848.526	172.88
848.701	97.11
848.876	31.57
849.052	117.59
849.227	-62.63
849.403	43.86
849.578	-64.68
849.753	101.2
849.929	-62.63
850.104	-126.12
850.279	-21.67
850.454	-1.19
850.63	-3.24
850.805	25.43
850.98	52.05
851.155	13.14
851.33	15.19
851.505	-140.46
851.681	66.39
851.856	4.95
852.031	0.85
852.206	29.52
852.381	-72.87
852.556	35.67
852.731	80.72
852.906	13.14
853.081	2.9
853.256	80.72
853.431	-62.63
853.606	-62.63
853.781	33.62
853.956	-81.07
854.131	35.67
854.305	-64.68
854.48	-7.34
854.655	-27.82
854.83	-70.83
855.005	-72.87
855.18	-21.67
855.354	-52.39
855.529	56.15
855.704	-36.01
855.879	0.85
856.053	-74.92
856.228	-76.97
856.403	-11.43
856.577	37.72
856.752	-126.12
856.926	37.72
857.101	-25.77
857.276	-66.73
857.45	15.19
857.625	103.25
857.799	84.82
857.974	29.52
858.148	-44.2
858.323	-5.29
858.497	2.9
858.672	-117.93
858.846	-44.2
859.02	50
859.195	-105.64
859.369	45.91
859.543	15.19
859.718	9.05
859.892	64.34
860.066	19.29
860.241	-23.72
860.415	13.14
860.589	37.72
860.763	-40.11
860.938	-21.67
861.112	19.29
861.286	13.14
861.46	-23.72
861.634	4.95
861.808	45.91
861.982	9.05
862.157	-122.02
862.331	0.85
862.505	-58.54
862.679	-17.58
862.853	-25.77
863.027	-7.34
863.201	123.73
863.375	-17.58
863.549	50
863.722	54.1
863.896	60.24
864.07	-29.87
864.244	21.33
864.418	0.85
864.592	76.63
864.766	66.39
864.939	-3.24
865.113	-85.16
865.287	9.05
865.461	-66.73
865.634	-27.82
865.808	-9.39
865.982	-31.91
866.156	-72.87
866.329	-83.11
866.503	35.67
866.676	11.09
866.85	7
867.024	-70.83
867.197	33.62
867.371	31.57
867.544	21.33
867.718	-81.07
867.891	86.87
868.065	-74.92
868.238	-19.63
868.412	21.33
868.585	-19.63
868.759	-81.07
868.932	-66.73
869.105	-95.4
869.279	7
869.452	-107.69
869.625	62.29
869.799	0.85
869.972	-101.55
870.145	-60.59
870.319	74.58
870.492	25.43
870.665	15.19
870.838	-74.92
871.011	-74.92
871.185	-19.63
871.358	-31.91
871.531	66.39
871.704	-70.83
871.877	60.24
872.05	11.09
872.223	-25.77
872.396	119.64
872.569	-48.3
872.742	-91.31
872.915	62.29
873.088	-52.39
873.261	-42.15
873.434	99.16
873.607	-74.92
873.78	68.44
873.953	-54.44
874.126	39.76
874.299	0.85
874.471	-3.24
874.644	-60.59
874.817	119.64
874.99	148.31
875.163	-17.58
875.335	72.53
875.508	17.24
875.681	56.15
875.853	-27.82
876.026	-60.59
876.199	78.68
876.371	9.05
876.544	19.29
876.717	15.19
876.889	-21.67
877.062	54.1
877.234	-70.83
877.407	-9.39
877.579	31.57
877.752	17.24
877.924	54.1
878.097	11.09
878.269	50
878.442	25.43
878.614	154.45
878.786	95.06
878.959	50
879.131	31.57
879.303	-87.21
879.476	-29.87
879.648	88.92
879.82	9.05
879.993	13.14
880.165	-83.11
880.337	-95.4
880.509	11.09
880.681	-99.5
880.854	-40.11
881.026	64.34
881.198	146.26
881.37	-29.87
881.542	-68.78
881.714	-27.82
881.886	-42.15
882.058	-1.19
882.23	43.86
882.402	37.72
882.574	-13.48
882.746	76.63
882.918	117.59
883.09	76.63
883.262	-27.82
883.434	70.48
883.606	-105.64
883.778	68.44
883.95	60.24
884.122	-13.48
884.293	56.15
884.465	47.96
884.637	113.49
884.809	-56.49
884.98	-40.11
885.152	33.62
885.324	115.54
885.496	-44.2
885.667	-83.11
885.839	-36.01
886.011	86.87
886.182	62.29
886.354	41.81
886.525	11.09
886.697	64.34
886.869	-79.02
887.04	21.33
887.212	54.1
887.383	174.93
887.555	-9.39
887.726	-40.11
887.897	-46.25
888.069	-66.73
888.24	74.58
888.412	-11.43
888.583	56.15
888.754	7
888.926	-5.29
889.097	-29.87
889.268	-156.84
889.44	23.38
889.611	-33.96
889.782	-21.67
889.953	-38.06
890.125	109.4
890.296	-21.67
890.467	-17.58
890.638	-52.39
890.809	-5.29
890.98	-64.68
891.151	23.38
891.323	82.77
891.494	47.96
891.665	25.43
891.836	133.97
892.007	54.1
892.178	27.48
892.349	-1.19
892.52	-11.43
892.691	-66.73
892.862	-5.29
893.032	-19.63
893.203	35.67
893.374	105.3
893.545	27.48
893.716	-15.53
893.887	76.63
894.057	64.34
894.228	17.24
894.399	-70.83
894.57	4.95
894.74	31.57
894.911	41.81
895.082	23.38
895.253	-91.31
895.423	-46.25
895.594	39.76
895.764	56.15
895.935	-93.35
896.106	29.52
896.276	-60.59
896.447	13.14
896.617	-93.35
896.788	-89.26
896.958	45.91
897.129	-36.01
897.299	-31.91
897.47	121.68
897.64	-27.82
897.81	93.01
897.981	7
898.151	-21.67
898.322	158.55
898.492	-1.19
898.662	-50.35
898.832	-44.2
899.003	-91.31
899.173	52.05
899.343	-29.87
899.513	-97.45
