Data from USB4F104151__240__11-06-34-524.txt Node

Date: Wed Feb 26 11:06:34 EST 2025
User: louis
Spectrometer: USB4F10415
Trigger mode: 4
Integration Time (sec): 1.000000E-1
Scans to average: 1
Electric dark correction enabled: true
Nonlinearity correction enabled: false
Boxcar width: 0
XAxis mode: Wavelengths
Number of Pixels in Spectrum: 3648
>>>>>Begin Spectral Data<<<<<
178.204	-321.02
178.424	-321.02
178.644	-321.02
178.864	-349.69
179.084	-409.08
179.304	35.33
179.524	37.38
179.744	-30.21
179.964	45.57
180.184	-13.82
180.404	84.48
180.624	-24.06
180.844	10.75
181.064	-85.5
181.283	-26.11
181.503	-30.21
181.723	-3.58
181.943	-136.7
182.163	213.5
182.383	64
182.602	82.43
182.822	127.49
183.042	27.14
183.262	4.61
183.482	35.33
183.701	-15.87
183.921	33.28
184.141	-40.45
184.361	25.09
184.58	23.04
184.8	45.57
185.02	-83.45
185.239	80.38
185.459	88.57
185.679	137.73
185.898	-58.88
186.118	92.67
186.338	39.42
186.557	158.21
186.777	59.9
186.997	33.28
187.216	35.33
187.436	211.45
187.655	137.73
187.875	123.39
188.095	53.76
188.314	117.25
188.534	160.25
188.753	-62.98
188.973	109.05
189.192	139.77
189.412	2.56
189.631	-36.35
189.851	41.47
190.07	141.82
190.29	-26.11
190.509	-1.54
190.729	66.05
190.948	188.93
191.168	225.79
191.387	27.14
191.607	-7.68
191.826	111.1
192.045	68.09
192.265	-24.06
192.484	45.57
192.704	53.76
192.923	-22.02
193.142	229.88
193.362	127.49
193.581	119.29
193.8	41.47
194.02	61.95
194.239	8.7
194.458	41.47
194.678	49.66
194.897	35.33
195.116	39.42
195.335	84.48
195.555	25.09
195.774	2.56
195.993	129.53
196.212	68.09
196.432	-71.17
196.651	-9.73
196.87	92.67
197.089	268.8
197.308	47.62
197.528	111.1
197.747	-95.74
197.966	78.33
198.185	154.11
198.404	-1.54
198.623	158.21
198.842	102.91
199.062	127.49
199.281	156.16
199.5	47.62
199.719	66.05
199.938	100.86
200.157	96.77
200.376	125.44
200.595	98.81
200.814	84.48
201.033	-17.92
201.252	223.74
201.471	-65.02
201.69	88.57
201.909	61.95
202.128	127.49
202.347	76.29
202.566	8.7
202.785	-26.11
203.004	-44.54
203.223	238.08
203.442	10.75
203.661	-30.21
203.879	66.05
204.098	107.01
204.317	-3.58
204.536	80.38
204.755	104.96
204.974	143.87
205.193	0.51
205.411	45.57
205.63	107.01
205.849	160.25
206.068	10.75
206.287	12.8
206.505	111.1
206.724	-1.54
206.943	76.29
207.162	68.09
207.381	49.66
207.599	66.05
207.818	74.24
208.037	-7.68
208.255	88.57
208.474	102.91
208.693	86.53
208.911	-28.16
209.13	125.44
209.349	121.34
209.567	107.01
209.786	90.62
210.005	47.62
210.223	61.95
210.442	-118.27
210.661	-52.74
210.879	86.53
211.098	68.09
211.316	131.58
211.535	111.1
211.753	131.58
211.972	0.51
212.191	16.9
212.409	2.56
212.628	18.94
212.846	6.66
213.065	68.09
213.283	129.53
213.502	23.04
213.72	10.75
213.938	76.29
214.157	25.09
214.375	125.44
214.594	90.62
214.812	123.39
215.031	43.52
215.249	98.81
215.467	66.05
215.686	84.48
215.904	39.42
216.122	41.47
216.341	164.35
216.559	61.95
216.778	113.15
216.996	205.31
217.214	49.66
217.432	43.52
217.651	-81.41
217.869	35.33
218.087	104.96
218.306	25.09
218.524	-9.73
218.742	-11.78
218.96	119.29
219.179	-28.16
219.397	10.75
219.615	262.65
219.833	117.25
220.051	-11.78
220.27	172.54
220.488	80.38
220.706	96.77
220.924	29.18
221.142	12.8
221.36	82.43
221.578	100.86
221.796	16.9
222.015	2.56
222.233	53.76
222.451	164.35
222.669	-140.8
222.887	127.49
223.105	-34.3
223.323	-7.68
223.541	-19.97
223.759	-1.54
223.977	-13.82
224.195	154.11
224.413	47.62
224.631	92.67
224.849	92.67
225.067	166.4
225.285	27.14
225.503	4.61
225.721	-44.54
225.939	72.19
226.157	86.53
226.375	236.03
226.592	-19.97
226.81	-5.63
227.028	145.92
227.246	145.92
227.464	35.33
227.682	53.76
227.9	154.11
228.117	109.05
228.335	55.81
228.553	86.53
228.771	102.91
228.989	82.43
229.206	49.66
229.424	-15.87
229.642	33.28
229.86	-79.36
230.077	129.53
230.295	107.01
230.513	78.33
230.731	111.1
230.948	209.4
231.166	121.34
231.384	94.72
231.601	31.23
231.819	205.31
232.037	18.94
232.254	-62.98
232.472	61.95
232.689	-54.78
232.907	76.29
233.125	55.81
233.342	-38.4
233.56	31.23
233.777	-5.63
233.995	25.09
234.213	100.86
234.43	84.48
234.648	-40.45
234.865	20.99
235.083	90.62
235.3	74.24
235.518	51.71
235.735	66.05
235.953	129.53
236.17	20.99
236.388	41.47
236.605	61.95
236.822	55.81
237.04	211.45
237.257	76.29
237.475	-13.82
237.692	43.52
237.909	123.39
238.127	-26.11
238.344	150.01
238.562	16.9
238.779	-13.82
238.996	-71.17
239.214	59.9
239.431	115.2
239.648	35.33
239.865	80.38
240.083	117.25
240.3	35.33
240.517	-42.5
240.735	47.62
240.952	174.59
241.169	172.54
241.386	74.24
241.603	8.7
241.821	-28.16
242.038	43.52
242.255	86.53
242.472	6.66
242.689	57.86
242.907	68.09
243.124	29.18
243.341	6.66
243.558	29.18
243.775	-69.12
243.992	-42.5
244.209	45.57
244.426	193.02
244.643	57.86
244.86	39.42
245.078	61.95
245.295	41.47
245.512	47.62
245.729	35.33
245.946	119.29
246.163	53.76
246.38	41.47
246.597	2.56
246.814	49.66
247.031	55.81
247.248	35.33
247.464	94.72
247.681	18.94
247.898	35.33
248.115	39.42
248.332	-60.93
248.549	166.4
248.766	227.84
248.983	92.67
249.2	72.19
249.417	88.57
249.633	-22.02
249.85	61.95
250.067	94.72
250.284	64
250.501	72.19
250.717	88.57
250.934	41.47
251.151	12.8
251.368	51.71
251.585	35.33
251.801	102.91
252.018	-69.12
252.235	66.05
252.451	-9.73
252.668	-38.4
252.885	131.58
253.102	125.44
253.318	-9.73
253.535	18.94
253.752	43.52
253.968	45.57
254.185	-19.97
254.401	61.95
254.618	18.94
254.835	-26.11
255.051	176.64
255.268	55.81
255.484	27.14
255.701	-5.63
255.917	47.62
256.134	2.56
256.351	39.42
256.567	2.56
256.784	70.14
257	-44.54
257.217	135.68
257.433	119.29
257.65	14.85
257.866	164.35
258.082	-7.68
258.299	-3.58
258.515	-3.58
258.732	-28.16
258.948	-54.78
259.165	55.81
259.381	-38.4
259.597	133.63
259.814	51.71
260.03	78.33
260.246	23.04
260.463	102.91
260.679	90.62
260.895	29.18
261.112	72.19
261.328	55.81
261.544	-5.63
261.761	170.49
261.977	18.94
262.193	-44.54
262.409	90.62
262.626	12.8
262.842	31.23
263.058	-5.63
263.274	145.92
263.49	98.81
263.707	102.91
263.923	90.62
264.139	-54.78
264.355	33.28
264.571	55.81
264.787	37.38
265.004	68.09
265.22	-11.78
265.436	10.75
265.652	29.18
265.868	82.43
266.084	-46.59
266.3	96.77
266.516	-7.68
266.732	49.66
266.948	102.91
267.164	100.86
267.38	109.05
267.596	107.01
267.812	137.73
268.028	27.14
268.244	74.24
268.46	94.72
268.676	47.62
268.892	68.09
269.108	27.14
269.324	-15.87
269.54	86.53
269.756	88.57
269.972	-38.4
270.188	8.7
270.403	-58.88
270.619	10.75
270.835	61.95
271.051	8.7
271.267	-60.93
271.483	25.09
271.698	90.62
271.914	29.18
272.13	72.19
272.346	6.66
272.562	117.25
272.777	152.06
272.993	18.94
273.209	-26.11
273.425	109.05
273.64	-40.45
273.856	121.34
274.072	6.66
274.287	-9.73
274.503	82.43
274.719	176.64
274.934	-30.21
275.15	43.52
275.366	51.71
275.581	-24.06
275.797	0.51
276.012	49.66
276.228	-1.54
276.444	55.81
276.659	78.33
276.875	-40.45
277.09	90.62
277.306	-3.58
277.521	121.34
277.737	68.09
277.952	74.24
278.168	74.24
278.383	-3.58
278.599	51.71
278.814	43.52
279.03	102.91
279.245	131.58
279.461	37.38
279.676	154.11
279.892	-69.12
280.107	-48.64
280.322	-48.64
280.538	47.62
280.753	-15.87
280.969	78.33
281.184	49.66
281.399	150.01
281.615	66.05
281.83	72.19
282.045	-71.17
282.26	12.8
282.476	80.38
282.691	20.99
282.906	107.01
283.122	55.81
283.337	-58.88
283.552	160.25
283.767	10.75
283.983	104.96
284.198	-48.64
284.413	125.44
284.628	-65.02
284.843	104.96
285.058	102.91
285.274	43.52
285.489	-11.78
285.704	172.54
285.919	-5.63
286.134	-11.78
286.349	31.23
286.564	-26.11
286.779	119.29
286.995	53.76
287.21	-48.64
287.425	16.9
287.64	4.61
287.855	125.44
288.07	-46.59
288.285	102.91
288.5	154.11
288.715	20.99
288.93	27.14
289.145	27.14
289.36	84.48
289.575	-26.11
289.79	109.05
290.004	37.38
290.219	188.93
290.434	-5.63
290.649	-71.17
290.864	-9.73
291.079	35.33
291.294	115.2
291.509	119.29
291.724	88.57
291.938	43.52
292.153	78.33
292.368	-42.5
292.583	47.62
292.798	119.29
293.012	-13.82
293.227	66.05
293.442	41.47
293.657	143.87
293.871	203.26
294.086	84.48
294.301	133.63
294.516	164.35
294.73	49.66
294.945	-9.73
295.16	72.19
295.374	137.73
295.589	104.96
295.804	47.62
296.018	76.29
296.233	145.92
296.447	8.7
296.662	4.61
296.877	129.53
297.091	104.96
297.306	84.48
297.52	23.04
297.735	59.9
297.949	109.05
298.164	4.61
298.378	49.66
298.593	0.51
298.807	-3.58
299.022	20.99
299.236	156.16
299.451	31.23
299.665	2.56
299.88	4.61
300.094	90.62
300.309	119.29
300.523	90.62
300.737	31.23
300.952	49.66
301.166	61.95
301.381	6.66
301.595	-9.73
301.809	70.14
302.024	51.71
302.238	2.56
302.452	166.4
302.667	45.57
302.881	131.58
303.095	90.62
303.309	166.4
303.524	-9.73
303.738	66.05
303.952	49.66
304.166	49.66
304.381	-163.33
304.595	135.68
304.809	-1.54
305.023	53.76
305.237	80.38
305.452	-40.45
305.666	84.48
305.88	88.57
306.094	143.87
306.308	94.72
306.522	100.86
306.736	66.05
306.95	66.05
307.164	27.14
307.379	47.62
307.593	219.64
307.807	115.2
308.021	125.44
308.235	127.49
308.449	-71.17
308.663	-3.58
308.877	262.65
309.091	39.42
309.305	94.72
309.519	-50.69
309.733	74.24
309.947	-34.3
310.161	92.67
310.374	86.53
310.588	188.93
310.802	27.14
311.016	78.33
311.23	117.25
311.444	-15.87
311.658	100.86
311.872	164.35
312.085	133.63
312.299	125.44
312.513	195.07
312.727	68.09
312.941	-15.87
313.154	45.57
313.368	76.29
313.582	59.9
313.796	102.91
314.009	-34.3
314.223	82.43
314.437	104.96
314.651	90.62
314.864	-58.88
315.078	94.72
315.292	-42.5
315.505	-3.58
315.719	2.56
315.933	147.97
316.146	109.05
316.36	-17.92
316.573	139.77
316.787	92.67
317.001	104.96
317.214	-28.16
317.428	61.95
317.641	-36.35
317.855	10.75
318.068	31.23
318.282	45.57
318.495	135.68
318.709	131.58
318.922	31.23
319.136	119.29
319.349	102.91
319.563	-13.82
319.776	150.01
319.99	-67.07
320.203	86.53
320.417	74.24
320.63	139.77
320.843	164.35
321.057	49.66
321.27	92.67
321.483	115.2
321.697	68.09
321.91	74.24
322.124	61.95
322.337	66.05
322.55	-40.45
322.763	115.2
322.977	35.33
323.19	-9.73
323.403	51.71
323.617	10.75
323.83	80.38
324.043	51.71
324.256	84.48
324.469	8.7
324.683	117.25
324.896	35.33
325.109	27.14
325.322	-118.27
325.535	143.87
325.748	133.63
325.962	20.99
326.175	92.67
326.388	43.52
326.601	127.49
326.814	152.06
327.027	18.94
327.24	135.68
327.453	-69.12
327.666	107.01
327.879	74.24
328.092	0.51
328.305	139.77
328.518	45.57
328.731	-11.78
328.944	35.33
329.157	59.9
329.37	35.33
329.583	209.4
329.796	170.49
330.009	23.04
330.222	68.09
330.435	131.58
330.648	45.57
330.861	98.81
331.073	49.66
331.286	94.72
331.499	23.04
331.712	-56.83
331.925	8.7
332.138	12.8
332.35	78.33
332.563	41.47
332.776	109.05
332.989	-15.87
333.202	92.67
333.414	113.15
333.627	-3.58
333.84	74.24
334.053	86.53
334.265	-13.82
334.478	-93.69
334.691	70.14
334.903	47.62
335.116	64
335.329	-56.83
335.541	113.15
335.754	203.26
335.966	45.57
336.179	8.7
336.392	-13.82
336.604	53.76
336.817	23.04
337.029	137.73
337.242	92.67
337.454	119.29
337.667	-19.97
337.88	172.54
338.092	96.77
338.305	104.96
338.517	-7.68
338.729	55.81
338.942	147.97
339.154	-54.78
339.367	35.33
339.579	92.67
339.792	10.75
340.004	86.53
340.217	43.52
340.429	-7.68
340.641	-36.35
340.854	47.62
341.066	18.94
341.278	178.69
341.491	188.93
341.703	20.99
341.915	29.18
342.128	172.54
342.34	123.39
342.552	-56.83
342.764	25.09
342.977	8.7
343.189	23.04
343.401	-3.58
343.613	-28.16
343.826	47.62
344.038	27.14
344.25	98.81
344.462	39.42
344.674	57.86
344.886	70.14
345.099	125.44
345.311	64
345.523	29.18
345.735	-73.21
345.947	74.24
346.159	49.66
346.371	59.9
346.583	68.09
346.795	182.78
347.007	-30.21
347.219	111.1
347.431	195.07
347.643	143.87
347.855	94.72
348.067	215.55
348.279	-89.6
348.491	41.47
348.703	72.19
348.915	-15.87
349.127	-48.64
349.339	76.29
349.551	-50.69
349.763	82.43
349.975	76.29
350.187	16.9
350.399	127.49
350.61	147.97
350.822	53.76
351.034	98.81
351.246	68.09
351.458	121.34
351.669	117.25
351.881	115.2
352.093	127.49
352.305	92.67
352.517	88.57
352.728	156.16
352.94	53.76
353.152	72.19
353.363	-7.68
353.575	45.57
353.787	184.83
353.999	55.81
354.21	143.87
354.422	39.42
354.633	84.48
354.845	-15.87
355.057	82.43
355.268	74.24
355.48	119.29
355.692	0.51
355.903	10.75
356.115	4.61
356.326	-42.5
356.538	158.21
356.749	80.38
356.961	166.4
357.172	84.48
357.384	0.51
357.595	190.97
357.807	2.56
358.018	-19.97
358.23	64
358.441	178.69
358.653	125.44
358.864	-26.11
359.075	-15.87
359.287	41.47
359.498	129.53
359.709	113.15
359.921	74.24
360.132	166.4
360.344	-22.02
360.555	16.9
360.766	84.48
360.977	-3.58
361.189	98.81
361.4	27.14
361.611	213.5
361.823	143.87
362.034	25.09
362.245	-62.98
362.456	51.71
362.667	133.63
362.879	14.85
363.09	59.9
363.301	115.2
363.512	20.99
363.723	-26.11
363.935	82.43
364.146	76.29
364.357	39.42
364.568	94.72
364.779	-73.21
364.99	195.07
365.201	29.18
365.412	143.87
365.623	35.33
365.834	88.57
366.045	51.71
366.256	47.62
366.467	35.33
366.678	2.56
366.889	27.14
367.1	-9.73
367.311	100.86
367.522	-5.63
367.733	82.43
367.944	125.44
368.155	12.8
368.366	84.48
368.577	133.63
368.788	154.11
368.999	33.28
369.209	51.71
369.42	166.4
369.631	295.42
369.842	76.29
370.053	84.48
370.264	127.49
370.474	8.7
370.685	115.2
370.896	-40.45
371.107	131.58
371.317	72.19
371.528	0.51
371.739	92.67
371.95	-7.68
372.16	61.95
372.371	90.62
372.582	66.05
372.792	25.09
373.003	90.62
373.214	66.05
373.424	43.52
373.635	-32.26
373.846	184.83
374.056	115.2
374.267	150.01
374.477	0.51
374.688	-15.87
374.898	64
375.109	55.81
375.319	84.48
375.53	80.38
375.74	188.93
375.951	49.66
376.161	88.57
376.372	186.88
376.582	84.48
376.793	113.15
377.003	37.38
377.214	14.85
377.424	90.62
377.635	41.47
377.845	23.04
378.055	238.08
378.266	57.86
378.476	8.7
378.686	-17.92
378.897	8.7
379.107	98.81
379.317	49.66
379.528	18.94
379.738	88.57
379.948	-30.21
380.158	129.53
380.369	84.48
380.579	113.15
380.789	-11.78
380.999	164.35
381.21	107.01
381.42	188.93
381.63	57.86
381.84	109.05
382.05	35.33
382.261	156.16
382.471	90.62
382.681	-34.3
382.891	133.63
383.101	0.51
383.311	-13.82
383.521	53.76
383.731	72.19
383.941	127.49
384.151	33.28
384.361	23.04
384.571	59.9
384.781	100.86
384.991	201.21
385.201	176.64
385.411	125.44
385.621	68.09
385.831	84.48
386.041	92.67
386.251	2.56
386.461	88.57
386.671	33.28
386.881	51.71
387.091	6.66
387.301	88.57
387.511	27.14
387.72	111.1
387.93	86.53
388.14	-3.58
388.35	-40.45
388.56	211.45
388.769	100.86
388.979	82.43
389.189	27.14
389.399	47.62
389.609	100.86
389.818	59.9
390.028	96.77
390.238	76.29
390.447	-81.41
390.657	117.25
390.867	-17.92
391.076	-36.35
391.286	-7.68
391.496	76.29
391.705	-19.97
391.915	113.15
392.125	119.29
392.334	43.52
392.544	143.87
392.753	49.66
392.963	20.99
393.172	41.47
393.382	41.47
393.591	150.01
393.801	-19.97
394.01	158.21
394.22	92.67
394.429	37.38
394.639	23.04
394.848	70.14
395.058	68.09
395.267	53.76
395.477	82.43
395.686	88.57
395.895	172.54
396.105	231.93
396.314	107.01
396.524	18.94
396.733	33.28
396.942	94.72
397.152	76.29
397.361	143.87
397.57	82.43
397.78	-54.78
397.989	109.05
398.198	154.11
398.407	111.1
398.617	41.47
398.826	76.29
399.035	-40.45
399.244	158.21
399.453	47.62
399.663	43.52
399.872	117.25
400.081	4.61
400.29	170.49
400.499	20.99
400.708	90.62
400.917	57.86
401.127	4.61
401.336	47.62
401.545	195.07
401.754	139.77
401.963	115.2
402.172	102.91
402.381	20.99
402.59	102.91
402.799	53.76
403.008	94.72
403.217	82.43
403.426	107.01
403.635	-85.5
403.844	8.7
404.053	66.05
404.262	61.95
404.471	117.25
404.68	96.77
404.888	-24.06
405.097	14.85
405.306	35.33
405.515	96.77
405.724	14.85
405.933	131.58
406.142	25.09
406.35	207.36
406.559	131.58
406.768	150.01
406.977	199.16
407.185	45.57
407.394	66.05
407.603	-24.06
407.812	45.57
408.02	113.15
408.229	31.23
408.438	205.31
408.646	-112.13
408.855	41.47
409.064	57.86
409.272	-40.45
409.481	27.14
409.69	33.28
409.898	14.85
410.107	78.33
410.315	88.57
410.524	-1.54
410.733	37.38
410.941	20.99
411.15	70.14
411.358	94.72
411.567	119.29
411.775	16.9
411.984	39.42
412.192	133.63
412.401	55.81
412.609	205.31
412.818	178.69
413.026	133.63
413.234	6.66
413.443	37.38
413.651	18.94
413.86	104.96
414.068	96.77
414.276	199.16
414.485	31.23
414.693	172.54
414.901	240.12
415.11	115.2
415.318	-17.92
415.526	10.75
415.734	123.39
415.943	131.58
416.151	152.06
416.359	49.66
416.567	74.24
416.776	156.16
416.984	141.82
417.192	131.58
417.4	80.38
417.608	70.14
417.817	-32.26
418.025	96.77
418.233	227.84
418.441	-13.82
418.649	72.19
418.857	84.48
419.065	104.96
419.273	-34.3
419.481	98.81
419.689	111.1
419.897	55.81
420.105	23.04
420.313	37.38
420.521	197.12
420.729	68.09
420.937	-7.68
421.145	57.86
421.353	111.1
421.561	174.59
421.769	57.86
421.977	45.57
422.185	119.29
422.393	82.43
422.601	100.86
422.809	41.47
423.017	23.04
423.224	139.77
423.432	137.73
423.64	66.05
423.848	201.21
424.056	-9.73
424.263	137.73
424.471	64
424.679	242.17
424.887	-19.97
425.094	102.91
425.302	152.06
425.51	61.95
425.718	166.4
425.925	113.15
426.133	43.52
426.341	236.03
426.548	152.06
426.756	92.67
426.964	131.58
427.171	55.81
427.379	94.72
427.586	104.96
427.794	162.3
428.001	225.79
428.209	127.49
428.417	182.78
428.624	68.09
428.832	135.68
429.039	96.77
429.247	143.87
429.454	133.63
429.662	201.21
429.869	147.97
430.076	143.87
430.284	158.21
430.491	270.84
430.699	174.59
430.906	209.4
431.114	117.25
431.321	276.99
431.528	84.48
431.736	174.59
431.943	139.77
432.15	107.01
432.358	172.54
432.565	209.4
432.772	59.9
432.979	227.84
433.187	233.98
433.394	205.31
433.601	141.82
433.808	276.99
434.016	186.88
434.223	274.94
434.43	238.08
434.637	231.93
434.844	395.77
435.052	301.56
435.259	324.09
435.466	350.71
435.673	377.34
435.88	381.43
436.087	350.71
436.294	473.59
436.501	385.53
436.708	363
436.915	356.86
437.122	401.91
437.329	358.91
437.537	453.11
437.743	385.53
437.95	551.42
438.157	494.07
438.364	440.83
438.571	506.36
438.778	489.98
438.985	561.66
439.192	518.65
439.399	578.04
439.606	547.32
439.813	573.94
440.02	729.59
440.227	709.11
440.433	653.81
440.64	621.05
440.847	645.62
441.054	737.78
441.261	799.22
441.467	725.49
441.674	766.45
441.881	868.85
442.088	788.98
442.294	776.69
442.501	928.24
442.708	948.72
442.914	842.23
443.121	1016.3
443.328	1020.4
443.534	1067.5
443.741	1100.27
443.948	926.19
444.154	1079.79
444.361	1348.08
444.568	1149.42
444.774	1174
444.981	1108.46
445.187	1438.19
445.394	1354.22
445.6	1360.36
445.807	1569.26
446.013	1620.46
446.22	1401.32
446.426	1657.32
446.633	1724.9
446.839	1966.56
447.046	1604.07
447.252	1866.21
447.459	1907.17
447.665	1880.55
447.871	2052.58
448.078	2247.13
448.284	2079.2
448.491	2294.24
448.697	2429.4
448.903	2476.51
449.11	2539.99
449.316	2519.51
449.522	2775.51
449.728	2793.94
449.935	2902.48
450.141	2939.35
450.347	3267.02
450.553	3103.18
450.76	3205.58
450.966	3365.32
451.172	3545.55
451.378	3594.7
451.584	3791.3
451.791	4151.74
451.997	3946.95
452.203	4266.43
452.409	4325.82
452.615	4514.24
452.821	4356.54
453.027	4428.22
453.233	4948.4
453.44	5030.32
453.646	5161.39
453.852	5276.08
454.058	5654.95
454.264	5710.25
454.47	6275.49
454.676	6201.76
454.882	6703.51
455.088	6424.99
455.294	6758.81
455.5	7418.25
455.705	7770.51
455.911	7645.58
456.117	7811.46
456.323	8190.34
456.529	8126.85
456.735	8862.07
456.941	9034.1
457.147	9513.33
457.352	9748.84
457.558	10039.65
457.764	10666.33
457.97	10871.13
458.176	11342.16
458.381	11882.83
458.587	12132.68
458.793	12398.91
458.999	12644.67
459.204	14053.67
459.41	14831.9
459.616	14328.1
459.821	15448.34
460.027	16097.55
460.233	16800
460.438	16804.1
460.644	17641.71
460.85	18039.02
461.055	18647.27
461.261	19564.76
461.466	19151.07
461.672	19519.7
461.878	21786.8
462.083	21539
462.289	21813.43
462.494	22825.12
462.7	22958.24
462.905	23306.4
463.111	25602.17
463.316	26789.99
463.522	27224.16
463.727	28121.17
463.932	28979.27
464.138	30089.27
464.343	31070.25
464.549	31193.12
464.754	33769.47
464.959	34602.99
465.165	34992.11
465.37	35166.18
465.575	34727.92
465.781	37371.85
465.986	38434.74
466.191	37398.47
466.397	38152.12
466.602	37603.27
466.807	38997.93
467.012	39544.74
467.218	40400.79
467.423	40931.22
467.628	41813.89
467.833	44091.23
468.038	43345.77
468.244	42098.56
468.449	44787.54
468.654	43480.94
468.859	43732.84
469.064	43911.01
469.269	42502.01
469.474	43188.08
469.679	44289.88
469.885	43157.36
470.09	43849.57
470.295	43442.03
470.5	42831.73
470.705	43175.79
470.91	41891.71
471.115	41371.53
471.32	42352.51
471.525	41809.79
471.73	40726.42
471.935	40349.59
472.139	38805.42
472.344	38772.66
472.549	38651.83
472.754	37869.5
472.959	37013.45
473.164	36497.36
473.369	35506.15
473.574	36229.08
473.778	35960.8
473.983	35151.85
474.188	34775.02
474.393	32933.9
474.598	32772.11
474.802	32133.14
475.007	31782.94
475.212	31414.3
475.417	30306.35
475.621	29726.78
475.826	29435.97
476.031	28917.83
476.235	28168.27
476.44	28485.71
476.645	27295.84
476.849	27381.85
477.054	26746.98
477.259	26208.37
477.463	26105.97
477.668	25538.68
477.872	25618.55
478.077	24840.32
478.282	24025.23
478.486	23898.26
478.691	23627.93
478.895	23394.46
479.1	23392.41
479.304	23193.76
479.509	22184.11
479.713	22534.31
479.918	22075.57
480.122	21469.37
480.326	21971.12
480.531	21737.65
480.735	21569.72
480.94	21264.57
481.144	22040.75
481.348	20785.35
481.553	20928.7
481.757	20252.87
481.961	20711.62
482.166	20832.45
482.37	20275.4
482.574	19994.83
482.778	20164.81
482.983	20099.28
483.187	19847.38
483.391	19636.44
483.595	19286.23
483.8	19067.1
484.004	19376.34
484.208	19046.62
484.412	18821.34
484.616	18673.89
484.821	18483.43
485.025	18094.32
485.229	18084.08
485.433	17674.48
485.637	17780.98
485.841	17195.26
486.045	17045.76
486.249	16980.22
486.453	16736.51
486.657	16429.32
486.861	16204.04
487.065	15513.88
487.269	15769.87
487.473	15098.14
487.677	15577.36
487.881	15331.61
488.085	14854.43
488.289	14688.54
488.493	14174.5
488.697	14342.44
488.901	13846.83
489.105	13480.24
489.309	13463.86
489.512	12898.62
489.716	13007.16
489.92	12779.84
490.124	12421.44
490.328	12503.36
490.531	11893.07
490.735	11835.72
490.939	11516.24
491.143	11360.59
491.346	11274.58
491.55	11243.86
491.754	10860.89
491.958	11002.2
492.161	10942.81
492.365	10490.21
492.569	10322.27
492.772	10197.35
492.976	10129.77
493.18	9996.65
493.383	9779.56
493.587	9666.92
493.79	9705.84
493.994	9388.4
494.197	9435.5
494.401	9314.67
494.605	9253.23
494.808	9193.84
495.012	9316.72
495.215	9120.12
495.419	9044.34
495.622	8819.07
495.825	8855.93
496.029	8735.1
496.232	8851.83
496.436	8745.34
496.639	9068.92
496.843	8882.55
497.046	8841.59
497.249	8898.94
497.453	8728.95
497.656	8798.59
497.859	8743.29
498.063	8921.46
498.266	9120.12
498.469	8677.76
498.673	8839.55
498.876	8825.21
499.079	8907.13
499.282	8900.98
499.485	9179.51
499.689	9085.3
499.892	9503.09
500.095	9001.33
500.298	9410.93
500.501	9111.92
500.705	9597.29
500.908	9574.77
501.111	9421.17
501.314	9797.99
501.517	9849.19
501.72	9920.87
501.923	9937.26
502.126	10137.96
502.329	10252.64
502.532	10199.4
502.735	10219.88
502.938	10619.23
503.141	10680.67
503.344	10774.88
503.547	10869.08
503.75	11002.2
503.953	11223.38
504.156	11592.02
504.359	11682.13
504.562	11653.45
504.765	12020.04
504.968	12058.95
505.17	12376.39
505.373	12396.87
505.576	12536.13
505.779	12833.08
505.982	12851.52
506.185	13146.42
506.387	13345.08
506.59	13711.66
506.793	14264.61
506.996	14123.3
507.198	14709.02
507.401	14702.88
507.604	15120.67
507.807	15259.93
508.009	15520.02
508.212	15855.89
508.415	16478.47
508.617	16591.11
508.82	16687.36
509.022	16951.55
509.225	17531.12
509.428	17903.85
509.63	18088.17
509.833	18692.32
510.035	19372.25
510.238	19527.89
510.44	19884.24
510.643	20306.12
510.845	20771.01
511.048	20969.66
511.25	21946.55
511.453	22022.32
511.655	23212.19
511.858	22970.53
512.06	23662.74
512.262	24049.81
512.465	24524.94
512.667	25309.31
512.87	25659.51
513.072	26169.46
513.274	27250.78
513.477	27777.11
513.679	28129.36
513.881	28913.73
514.084	29620.28
514.286	29806.65
514.488	30519.34
514.69	31694.88
514.893	32081.94
515.095	32491.54
515.297	33001.48
515.499	33980.41
515.701	34430.96
515.904	35428.32
516.106	36366.29
516.308	36843.47
516.51	37457.86
516.712	37830.59
516.914	38711.22
517.116	40085.4
517.318	40054.68
517.52	40837.01
517.722	41181.07
517.925	42422.14
518.127	43384.68
518.329	43564.9
518.531	43845.47
518.733	45418.31
518.935	46182.21
519.136	46065.47
519.338	47238.96
519.54	48021.28
519.742	48676.63
519.944	49293.07
520.146	50413.31
520.348	50591.48
520.55	51031.8
520.752	51666.67
520.954	52760.28
521.155	52514.53
521.357	53534.42
521.559	54116.04
521.761	54888.12
521.963	55152.31
522.164	55207.61
522.366	55566
522.568	56845.98
522.77	56764.06
522.971	57466.52
523.173	56925.85
523.375	57855.63
523.576	57806.48
523.778	57671.31
523.98	58685.06
524.181	58424.96
524.383	59182.71
524.584	59518.58
524.786	59080.31
524.988	58945.15
525.189	59252.34
525.391	59494
525.592	59541.11
525.794	59854.45
525.995	59522.68
526.197	59485.81
526.398	59309.69
526.6	59170.43
526.801	58916.48
527.003	59334.26
527.204	58435.2
527.406	58744.45
527.607	58128.01
527.808	58254.98
528.01	56833.69
528.211	57327.25
528.412	57753.23
528.614	57155.22
528.815	56698.53
529.016	56737.44
529.218	55262.9
529.419	55281.33
529.62	55043.77
529.822	54398.66
530.023	53432.02
530.224	53315.28
530.425	52500.19
530.626	51969.77
530.828	51386.1
531.029	52025.06
531.23	50638.59
531.431	50190.08
531.632	49981.19
531.833	49483.53
532.035	48664.35
532.236	47820.58
532.437	47005.49
532.638	46589.75
532.839	46460.73
533.04	45836.1
533.241	44799.83
533.442	45596.49
533.643	44652.37
533.844	43511.66
534.045	43145.07
534.246	42237.82
534.447	41846.66
534.648	40931.22
534.849	40951.7
535.05	39784.35
535.251	39735.2
535.451	39169.96
535.652	38428.6
535.853	37593.03
536.054	37404.61
536.255	37044.17
536.456	36169.69
536.657	36376.53
536.857	35250.15
537.058	34795.5
537.259	34705.39
537.46	34131.96
537.66	33771.52
537.861	33607.68
538.062	32464.91
538.263	32366.61
538.463	31877.15
538.664	31408.16
538.865	31057.96
539.065	30863.4
539.266	30539.82
539.466	30089.27
539.667	29608
539.868	29608
540.068	28958.79
540.269	28491.85
540.469	28512.33
540.67	27803.74
540.87	27918.42
541.071	27443.29
541.271	26820.71
541.472	26849.38
541.672	26065.01
541.873	25817.21
542.073	25528.44
542.274	25563.26
542.474	25186.43
542.675	24643.72
542.875	24772.74
543.075	24289.42
543.276	23636.12
543.476	24031.38
543.676	23554.2
543.877	23576.73
544.077	23382.17
544.277	22628.52
544.478	22657.19
544.678	22378.67
544.878	22020.27
545.078	21745.84
545.279	21426.36
545.479	21352.63
545.679	20920.51
545.879	20795.59
546.079	20562.12
546.28	20244.68
546.48	19865.81
546.68	20130
546.88	19611.86
547.08	19253.47
547.28	19097.82
547.48	18821.34
547.68	18985.18
547.88	18450.66
548.081	18313.45
548.281	17959.15
548.481	17756.4
548.681	17705.2
548.881	17318.14
549.081	17254.65
549.28	16773.38
549.48	16664.83
549.68	16423.17
549.88	16662.79
550.08	15933.71
550.28	16007.44
550.48	15620.37
550.68	15366.42
550.88	15178.01
551.08	14866.72
551.279	14993.69
551.479	14551.33
551.679	14467.36
551.879	14111.02
552.079	14051.63
552.278	13687.09
552.478	13578.54
552.678	13379.89
552.878	13332.79
553.077	12841.28
553.277	12640.58
553.477	12599.62
553.676	12366.15
553.876	12210.5
554.076	12034.38
554.275	11848.01
554.475	11458.9
554.674	11544.91
554.874	11333.97
555.074	11080.02
555.273	10877.27
555.473	10707.29
555.672	10502.5
555.872	10461.54
556.071	10285.41
556.271	9974.12
556.47	9980.26
556.67	9785.71
556.869	9556.33
557.068	9298.29
557.268	9197.94
557.467	9081.21
557.667	9144.69
557.866	8784.25
558.065	8665.47
558.265	8397.18
558.464	8509.82
558.663	8313.22
558.863	8149.38
559.062	8155.52
559.261	7776.65
559.461	7811.46
559.66	7659.92
559.859	7383.44
560.058	7250.32
560.258	7336.34
560.457	7240.08
560.656	7178.64
560.855	6719.9
561.054	6812.06
561.253	6769.05
561.453	6707.61
561.652	6459.81
561.851	6678.94
562.05	6304.16
562.249	6179.23
562.448	6138.27
562.647	6099.36
562.846	5908.9
563.045	5962.15
563.244	5865.89
563.443	5939.62
563.642	5607.85
563.841	5669.29
564.04	5474.73
564.239	5341.61
564.438	5257.65
564.637	5188.02
564.836	5138.87
565.035	5102
565.234	4979.12
565.432	4893.11
565.631	4850.1
565.83	4889.01
566.029	4647.35
566.228	4645.31
566.427	4596.15
566.625	4524.47
566.824	4501.95
567.023	4473.28
567.222	4426.17
567.42	4248
567.619	4383.17
567.818	4346.3
568.016	4276.67
568.215	4118.98
568.414	4073.92
568.612	4024.77
568.811	3920.32
569.01	3826.12
569.208	3781.06
569.407	3858.89
569.605	3609.03
569.804	3566.03
570.002	3602.89
570.201	3551.69
570.4	3557.83
570.598	3574.22
570.797	3348.94
570.995	3426.76
571.193	3246.54
571.392	3379.66
571.59	2986.45
571.789	3193.3
571.987	3154.38
572.186	3277.26
572.384	3103.18
572.582	3080.66
572.781	2953.68
572.979	2781.65
573.177	2925.01
573.376	2748.89
573.574	2861.52
573.772	2613.72
573.971	2701.78
574.169	2570.71
574.367	2699.73
574.565	2591.19
574.763	2572.76
574.962	2433.5
575.16	2398.68
575.358	2380.25
575.556	2245.09
575.754	2308.57
575.952	2300.38
576.151	2404.83
576.349	2288.09
576.547	2173.41
576.745	2253.28
576.943	2134.5
577.141	2136.54
577.339	1837.54
577.537	2005.47
577.735	2066.91
577.933	2075.1
578.131	1876.45
578.329	2087.39
578.527	1804.77
578.725	1894.88
578.923	1831.4
579.121	1917.41
579.319	1626.6
579.516	1614.31
579.714	1915.36
579.912	1679.85
580.11	1532.39
580.308	1604.07
580.506	1473
580.704	1491.43
580.901	1589.74
581.099	1706.47
581.297	1569.26
581.495	1419.75
581.692	1483.24
581.89	1608.17
582.088	1534.44
582.285	1452.52
582.483	1329.64
582.681	1432.04
582.878	1407.47
583.076	1366.51
583.274	1382.89
583.471	1493.48
583.669	1257.96
583.866	1126.89
584.064	1186.29
584.262	1083.89
584.459	1214.96
584.657	1184.24
584.854	1214.96
585.052	1290.73
585.249	1180.14
585.447	1087.98
585.644	1001.97
585.841	1196.53
586.039	1161.71
586.236	1145.33
586.434	1059.31
586.631	1016.3
586.828	971.25
587.026	1030.64
587.223	944.63
587.42	946.67
587.618	891.38
587.815	1071.6
588.012	922.1
588.21	834.04
588.407	1016.3
588.604	1065.46
588.801	913.91
588.999	1024.5
589.196	928.24
589.393	944.63
589.59	860.66
589.787	856.56
589.984	924.15
590.182	870.9
590.379	752.12
590.576	907.76
590.773	834.04
590.97	905.71
591.167	918
591.364	842.23
591.561	795.12
591.758	973.3
591.955	881.14
592.152	823.8
592.349	813.56
592.546	741.88
592.743	766.45
592.94	870.9
593.137	829.94
593.334	868.85
593.531	862.71
593.727	930.29
593.924	868.85
594.121	856.56
594.318	791.03
594.515	954.87
594.712	1001.97
594.908	903.67
595.105	711.16
595.302	956.91
595.499	936.43
595.696	1067.5
595.892	840.18
596.089	1102.32
596.286	924.15
596.482	1075.7
596.679	979.44
596.876	956.91
597.072	1171.95
597.269	1059.31
597.466	1102.32
597.662	1116.65
597.859	1077.74
598.055	1184.24
598.252	1305.07
598.448	1257.96
598.645	1366.51
598.841	1296.88
599.038	1436.14
599.234	1567.21
599.431	1464.81
599.627	1473
599.824	1616.36
600.02	1534.44
600.217	1724.9
600.413	1737.19
600.609	1831.4
600.806	2138.59
601.002	1915.36
601.198	2060.77
601.395	2159.07
601.591	2220.51
601.787	2200.03
601.984	2378.2
602.18	2550.23
602.376	2646.49
602.572	2650.58
602.769	2836.95
602.965	2830.8
603.161	2978.26
603.357	3115.47
603.553	3164.62
603.75	3240.4
603.946	3305.93
604.142	3459.53
604.338	3797.45
604.534	3740.1
604.73	3826.12
604.926	3967.43
605.122	4106.69
605.318	4037.06
605.514	4366.78
605.71	4460.99
605.906	4626.87
606.102	4837.81
606.298	4985.27
606.494	4993.46
606.69	5409.2
606.886	5216.69
607.082	5314.99
607.278	5679.53
607.474	5700.01
607.67	6025.64
607.866	6066.6
608.062	6343.07
608.257	6449.57
608.453	6521.24
608.649	6902.17
608.845	6879.64
609.041	7117.2
609.236	7319.95
609.432	7543.18
609.628	7899.53
609.824	7997.83
610.019	8237.44
610.215	8333.7
610.411	8724.86
610.606	8876.41
610.802	8962.42
610.998	9181.56
611.193	9814.38
611.389	9683.31
611.584	10060.13
611.78	10402.15
611.976	10461.54
612.171	10942.81
612.367	11190.61
612.562	11397.46
612.758	11688.27
612.953	11905.35
613.149	12235.08
613.344	12472.64
613.539	13052.22
613.735	13152.57
613.93	13916.46
614.126	14184.74
614.321	14436.64
614.517	14887.2
614.712	15180.06
614.907	15497.49
615.103	15927.56
615.298	16107.79
615.493	17111.29
615.688	16924.93
615.884	17936.62
616.079	18043.12
616.274	18637.03
616.47	18878.69
616.665	19433.69
616.86	19781.84
617.055	20568.26
617.25	20881.6
617.445	21690.55
617.641	21717.17
617.836	22558.89
618.031	22761.64
618.226	23822.48
618.421	24039.57
618.616	25038.98
618.811	25116.8
619.006	26189.94
619.201	26286.19
619.396	27246.69
619.591	27254.88
619.786	28373.07
619.981	28696.65
620.176	29554.75
620.371	29720.63
620.566	30312.5
620.761	30939.18
620.956	31946.78
621.151	32364.56
621.346	33472.51
621.541	33447.94
621.735	34504.69
621.93	34496.5
622.125	35459.04
622.32	35330.02
622.515	36779.98
622.709	37148.62
622.904	37885.89
623.099	39038.89
623.294	39620.52
623.488	39909.28
623.683	40892.3
623.878	40636.31
624.072	42219.39
624.267	42467.19
624.462	43372.39
624.656	43487.08
624.851	44705.62
625.046	44887.89
625.24	45629.26
625.435	45711.17
625.629	47089.46
625.824	47210.29
626.018	48166.69
626.213	47695.66
626.407	49082.13
626.602	49137.43
626.796	49962.76
626.991	50063.11
627.185	51072.76
627.38	51080.95
627.574	51160.82
627.768	51375.86
627.963	51715.82
628.157	51777.26
628.352	52432.61
628.546	51650.28
628.74	52670.17
628.935	51324.66
629.129	52135.65
629.323	51433.2
629.517	51039.99
629.712	51083
629.906	51136.24
630.1	50032.39
630.294	49800.97
630.489	49047.32
630.683	48942.87
630.877	47337.26
631.071	46812.98
631.265	46550.84
631.459	45547.34
631.653	44416.86
631.848	43542.38
632.042	42426.23
632.236	41328.52
632.43	40075.16
632.624	39600.04
632.818	38385.59
633.012	36612.05
633.206	35702.75
633.4	35026.92
633.594	33218.57
633.788	32581.65
633.982	31608.86
634.176	30365.74
634.369	29149.25
634.563	28090.45
634.757	26613.87
634.951	26187.89
635.145	25245.82
635.339	24103.06
635.533	23306.4
635.726	22208.69
635.92	21459.13
636.114	20412.62
636.308	19695.83
636.501	18741.47
636.695	18049.26
636.889	17031.42
637.083	16550.15
637.276	15931.66
637.47	15102.23
637.664	14496.03
637.857	13930.8
638.051	13826.35
638.244	13064.5
638.438	12341.57
638.632	12159.3
638.825	11481.42
639.019	10969.43
639.212	10555.74
639.406	10291.55
639.599	9830.76
639.793	9367.92
639.986	8876.41
640.18	8771.96
640.373	8546.69
640.567	7864.71
640.76	7659.92
640.954	7455.12
641.147	6971.8
641.34	6764.95
641.534	6590.88
641.727	6465.95
641.92	6011.3
642.114	5777.83
642.307	5550.51
642.5	5517.74
642.694	5073.33
642.887	5085.62
643.08	4979.12
643.273	4741.56
643.467	4540.86
643.66	4219.33
643.853	4133.31
644.046	3979.72
644.239	3893.7
644.432	3703.24
644.626	3498.44
644.819	3355.08
645.012	3303.89
645.205	3230.16
645.398	3150.29
645.591	2976.21
645.784	2886.1
645.977	2552.28
646.17	2617.82
646.363	2511.32
646.556	2464.22
646.749	2261.47
646.942	2288.09
647.135	2183.65
647.328	2173.41
647.521	1999.33
647.714	1966.56
647.907	1878.5
648.099	1591.78
648.292	1870.31
648.485	1739.24
648.678	1604.07
648.871	1505.77
649.064	1526.25
649.256	1346.03
649.449	1346.03
649.642	1161.71
649.835	1194.48
650.027	1196.53
650.22	1223.15
650.413	1110.51
650.605	1141.23
650.798	1065.46
650.991	1055.22
651.183	934.39
651.376	977.39
651.568	1059.31
651.761	823.8
651.954	944.63
652.146	834.04
652.339	956.91
652.531	958.96
652.724	707.06
652.916	680.44
653.109	584.18
653.301	754.16
653.494	686.58
653.686	659.96
653.879	762.36
654.071	745.97
654.263	596.47
654.456	526.84
654.648	631.29
654.84	539.13
655.033	561.66
655.225	668.15
655.417	375.29
655.61	588.28
655.802	606.71
655.994	489.98
656.186	459.26
656.379	498.17
656.571	436.73
656.763	428.54
656.955	389.63
657.148	363
657.34	518.65
657.532	414.2
657.724	379.39
657.916	430.59
658.108	354.81
658.3	344.57
658.492	358.91
658.684	213.5
658.876	346.62
659.068	297.47
659.26	231.93
659.452	233.98
659.644	256.51
659.836	414.2
660.028	272.89
660.22	297.47
660.412	299.52
660.604	260.6
660.796	297.47
660.988	391.67
661.18	203.26
661.372	299.52
661.563	238.08
661.755	322.04
661.947	205.31
662.139	190.97
662.331	195.07
662.522	188.93
662.714	121.34
662.906	150.01
663.097	199.16
663.289	147.97
663.481	98.81
663.673	197.12
663.864	186.88
664.056	215.55
664.247	139.77
664.439	332.28
664.631	211.45
664.822	283.13
665.014	150.01
665.205	285.18
665.397	156.16
665.588	231.93
665.78	182.78
665.971	221.69
666.163	168.45
666.354	197.12
666.546	152.06
666.737	125.44
666.929	111.1
667.12	178.69
667.311	176.64
667.503	113.15
667.694	203.26
667.885	256.51
668.077	246.27
668.268	76.29
668.459	98.81
668.651	133.63
668.842	154.11
669.033	135.68
669.224	188.93
669.416	381.43
669.607	131.58
669.798	107.01
669.989	240.12
670.18	94.72
670.371	219.64
670.563	-11.78
670.754	252.41
670.945	211.45
671.136	227.84
671.327	104.96
671.518	283.13
671.709	268.8
671.9	172.54
672.091	207.36
672.282	164.35
672.473	209.4
672.664	150.01
672.855	135.68
673.046	174.59
673.237	295.42
673.428	170.49
673.619	201.21
673.809	156.16
674	178.69
674.191	199.16
674.382	64
674.573	102.91
674.764	84.48
674.954	244.22
675.145	66.05
675.336	70.14
675.527	137.73
675.717	168.45
675.908	72.19
676.099	170.49
676.289	195.07
676.48	88.57
676.671	182.78
676.861	51.71
677.052	225.79
677.243	147.97
677.433	176.64
677.624	301.56
677.814	82.43
678.005	135.68
678.195	303.61
678.386	127.49
678.576	113.15
678.767	143.87
678.957	176.64
679.148	244.22
679.338	340.47
679.529	276.99
679.719	195.07
679.909	260.6
680.1	279.04
680.29	166.4
680.481	123.39
680.671	268.8
680.861	256.51
681.052	205.31
681.242	68.09
681.432	223.74
681.622	162.3
681.813	121.34
682.003	172.54
682.193	152.06
682.383	233.98
682.573	121.34
682.764	233.98
682.954	195.07
683.144	297.47
683.334	227.84
683.524	162.3
683.714	242.17
683.904	252.41
684.094	250.36
684.284	184.83
684.474	295.42
684.664	309.76
684.854	215.55
685.044	229.88
685.234	164.35
685.424	246.27
685.614	170.49
685.804	301.56
685.994	182.78
686.184	254.46
686.374	240.12
686.564	211.45
686.753	158.21
686.943	158.21
687.133	211.45
687.323	201.21
687.513	246.27
687.702	276.99
687.892	195.07
688.082	172.54
688.272	307.71
688.461	207.36
688.651	315.9
688.841	270.84
689.03	170.49
689.22	178.69
689.41	186.88
689.599	225.79
689.789	111.1
689.979	356.86
690.168	184.83
690.358	238.08
690.547	217.6
690.737	221.69
690.926	193.02
691.116	201.21
691.305	248.32
691.495	244.22
691.684	109.05
691.874	195.07
692.063	209.4
692.252	272.89
692.442	238.08
692.631	92.67
692.82	205.31
693.01	199.16
693.199	178.69
693.388	262.65
693.578	186.88
693.767	166.4
693.956	262.65
694.146	160.25
694.335	244.22
694.524	223.74
694.713	274.94
694.902	188.93
695.092	193.02
695.281	268.8
695.47	123.39
695.659	201.21
695.848	182.78
696.037	164.35
696.226	227.84
696.415	225.79
696.604	301.56
696.793	184.83
696.982	199.16
697.171	311.8
697.36	131.58
697.549	207.36
697.738	100.86
697.927	184.83
698.116	123.39
698.305	279.04
698.494	170.49
698.683	242.17
698.872	315.9
699.061	209.4
699.25	217.6
699.438	213.5
699.627	242.17
699.816	352.76
700.005	59.9
700.193	205.31
700.382	186.88
700.571	276.99
700.76	231.93
700.948	291.32
701.137	158.21
701.326	170.49
701.514	145.92
701.703	188.93
701.892	221.69
702.08	369.15
702.269	145.92
702.457	201.21
702.646	268.8
702.834	170.49
703.023	266.75
703.212	178.69
703.4	209.4
703.589	188.93
703.777	160.25
703.965	117.25
704.154	160.25
704.342	55.81
704.531	119.29
704.719	147.97
704.907	256.51
705.096	133.63
705.284	209.4
705.472	168.45
705.661	186.88
705.849	223.74
706.037	315.9
706.226	180.73
706.414	168.45
706.602	133.63
706.79	238.08
706.979	211.45
707.167	154.11
707.355	98.81
707.543	225.79
707.731	211.45
707.919	166.4
708.107	197.12
708.296	145.92
708.484	66.05
708.672	221.69
708.86	160.25
709.048	115.2
709.236	162.3
709.424	211.45
709.612	182.78
709.8	145.92
709.988	201.21
710.176	248.32
710.364	272.89
710.551	188.93
710.739	205.31
710.927	145.92
711.115	203.26
711.303	240.12
711.491	289.28
711.679	100.86
711.866	221.69
712.054	207.36
712.242	223.74
712.43	305.66
712.617	197.12
712.805	299.52
712.993	262.65
713.181	64
713.368	246.27
713.556	203.26
713.744	162.3
713.931	377.34
714.119	209.4
714.306	133.63
714.494	104.96
714.682	260.6
714.869	145.92
715.057	166.4
715.244	107.01
715.432	141.82
715.619	180.73
715.807	139.77
715.994	111.1
716.182	205.31
716.369	195.07
716.556	254.46
716.744	186.88
716.931	133.63
717.119	190.97
717.306	217.6
717.493	238.08
717.681	156.16
717.868	176.64
718.055	270.84
718.242	178.69
718.43	334.33
718.617	270.84
718.804	90.62
718.991	268.8
719.179	252.41
719.366	205.31
719.553	197.12
719.74	170.49
719.927	207.36
720.114	279.04
720.301	147.97
720.488	61.95
720.676	215.55
720.863	256.51
721.05	344.57
721.237	217.6
721.424	258.56
721.611	199.16
721.798	133.63
721.985	145.92
722.172	205.31
722.358	145.92
722.545	279.04
722.732	248.32
722.919	289.28
723.106	217.6
723.293	262.65
723.48	279.04
723.667	219.64
723.853	315.9
724.04	246.27
724.227	287.23
724.414	225.79
724.6	266.75
724.787	328.19
724.974	430.59
725.161	197.12
725.347	203.26
725.534	199.16
725.72	317.95
725.907	336.38
726.094	268.8
726.28	139.77
726.467	186.88
726.653	248.32
726.84	356.86
727.027	322.04
727.213	238.08
727.4	270.84
727.586	186.88
727.773	115.2
727.959	199.16
728.145	299.52
728.332	236.03
728.518	152.06
728.705	287.23
728.891	272.89
729.077	166.4
729.264	162.3
729.45	311.8
729.636	221.69
729.823	242.17
730.009	238.08
730.195	229.88
730.382	358.91
730.568	145.92
730.754	305.66
730.94	252.41
731.126	258.56
731.313	320
731.499	229.88
731.685	326.14
731.871	283.13
732.057	256.51
732.243	291.32
732.429	213.5
732.615	332.28
732.801	289.28
732.987	240.12
733.173	281.08
733.359	182.78
733.545	256.51
733.731	303.61
733.917	379.39
734.103	373.24
734.289	197.12
734.475	166.4
734.661	426.49
734.847	219.64
735.033	272.89
735.219	348.67
735.404	217.6
735.59	190.97
735.776	227.84
735.962	264.7
736.148	281.08
736.333	363
736.519	195.07
736.705	199.16
736.89	244.22
737.076	250.36
737.262	254.46
737.447	197.12
737.633	285.18
737.819	348.67
738.004	238.08
738.19	236.03
738.375	289.28
738.561	320
738.747	254.46
738.932	268.8
739.118	369.15
739.303	322.04
739.489	332.28
739.674	244.22
739.859	150.01
740.045	313.85
740.23	231.93
740.416	70.14
740.601	266.75
740.786	223.74
740.972	256.51
741.157	207.36
741.342	246.27
741.528	109.05
741.713	369.15
741.898	219.64
742.084	238.08
742.269	223.74
742.454	320
742.639	252.41
742.824	176.64
743.01	360.95
743.195	360.95
743.38	260.6
743.565	299.52
743.75	221.69
743.935	309.76
744.12	297.47
744.305	123.39
744.49	154.11
744.675	238.08
744.86	250.36
745.045	336.38
745.23	227.84
745.415	205.31
745.6	262.65
745.785	197.12
745.97	311.8
746.155	223.74
746.34	326.14
746.525	246.27
746.71	317.95
746.895	156.16
747.079	252.41
747.264	213.5
747.449	328.19
747.634	266.75
747.819	354.81
748.003	168.45
748.188	129.53
748.373	283.13
748.557	248.32
748.742	258.56
748.927	205.31
749.111	186.88
749.296	221.69
749.481	317.95
749.665	262.65
749.85	168.45
750.034	256.51
750.219	188.93
750.404	170.49
750.588	260.6
750.773	170.49
750.957	248.32
751.141	127.49
751.326	276.99
751.51	31.23
751.695	211.45
751.879	123.39
752.064	287.23
752.248	193.02
752.432	303.61
752.617	324.09
752.801	176.64
752.985	186.88
753.17	330.23
753.354	178.69
753.538	182.78
753.722	129.53
753.907	164.35
754.091	197.12
754.275	291.32
754.459	72.19
754.643	70.14
754.828	172.54
755.012	262.65
755.196	207.36
755.38	201.21
755.564	141.82
755.748	119.29
755.932	174.59
756.116	199.16
756.3	184.83
756.484	141.82
756.668	211.45
756.852	61.95
757.036	170.49
757.22	176.64
757.404	96.77
757.588	166.4
757.772	180.73
757.956	223.74
758.14	309.76
758.323	115.2
758.507	123.39
758.691	113.15
758.875	211.45
759.059	231.93
759.242	137.73
759.426	113.15
759.61	162.3
759.794	74.24
759.977	203.26
760.161	348.67
760.345	217.6
760.528	207.36
760.712	156.16
760.895	166.4
761.079	145.92
761.263	23.04
761.446	100.86
761.63	66.05
761.813	150.01
761.997	20.99
762.18	150.01
762.364	117.25
762.547	66.05
762.731	29.18
762.914	160.25
763.098	47.62
763.281	98.81
763.464	113.15
763.648	166.4
763.831	72.19
764.015	66.05
764.198	156.16
764.381	57.86
764.564	168.45
764.748	84.48
764.931	137.73
765.114	10.75
765.297	150.01
765.481	53.76
765.664	117.25
765.847	53.76
766.03	272.89
766.213	90.62
766.397	102.91
766.58	-34.3
766.763	201.21
766.946	27.14
767.129	35.33
767.312	43.52
767.495	96.77
767.678	82.43
767.861	96.77
768.044	145.92
768.227	92.67
768.41	43.52
768.593	133.63
768.776	135.68
768.959	64
769.142	123.39
769.324	47.62
769.507	147.97
769.69	8.7
769.873	64
770.056	262.65
770.239	61.95
770.421	96.77
770.604	64
770.787	104.96
770.97	78.33
771.152	-32.26
771.335	182.78
771.518	39.42
771.7	213.5
771.883	182.78
772.066	94.72
772.248	74.24
772.431	180.73
772.613	244.22
772.796	119.29
772.978	133.63
773.161	145.92
773.343	4.61
773.526	47.62
773.708	-30.21
773.891	-58.88
774.073	80.38
774.256	66.05
774.438	150.01
774.621	29.18
774.803	152.06
774.985	35.33
775.168	82.43
775.35	12.8
775.532	174.59
775.715	51.71
775.897	23.04
776.079	39.42
776.261	53.76
776.444	64
776.626	27.14
776.808	129.53
776.99	-73.21
777.173	82.43
777.355	117.25
777.537	2.56
777.719	139.77
777.901	2.56
778.083	90.62
778.265	10.75
778.447	195.07
778.629	16.9
778.811	70.14
778.993	104.96
779.175	107.01
779.357	121.34
779.539	-15.87
779.721	88.57
779.903	35.33
780.085	53.76
780.267	100.86
780.449	74.24
780.631	158.21
780.812	178.69
780.994	125.44
781.176	90.62
781.358	78.33
781.54	86.53
781.721	100.86
781.903	96.77
782.085	39.42
782.267	104.96
782.448	-32.26
782.63	35.33
782.812	125.44
782.993	59.9
783.175	61.95
783.357	-36.35
783.538	104.96
783.72	2.56
783.901	59.9
784.083	78.33
784.264	133.63
784.446	-9.73
784.627	10.75
784.809	102.91
784.99	2.56
785.172	66.05
785.353	31.23
785.535	92.67
785.716	-1.54
785.897	-44.54
786.079	66.05
786.26	61.95
786.441	131.58
786.623	-114.17
786.804	-75.26
786.985	68.09
787.167	84.48
787.348	104.96
787.529	43.52
787.71	203.26
787.891	35.33
788.073	37.38
788.254	-126.46
788.435	174.59
788.616	41.47
788.797	76.29
788.978	27.14
789.159	-15.87
789.34	76.29
789.522	-44.54
789.703	-44.54
789.884	12.8
790.065	31.23
790.246	199.16
790.427	-42.5
790.607	135.68
790.788	92.67
790.969	45.57
791.15	64
791.331	14.85
791.512	10.75
791.693	-44.54
791.874	8.7
792.054	203.26
792.235	72.19
792.416	18.94
792.597	-67.07
792.778	90.62
792.958	31.23
793.139	72.19
793.32	10.75
793.5	-67.07
793.681	160.25
793.862	53.76
794.042	35.33
794.223	-44.54
794.404	78.33
794.584	-73.21
794.765	57.86
794.945	70.14
795.126	45.57
795.306	133.63
795.487	18.94
795.667	53.76
795.848	-13.82
796.028	14.85
796.209	23.04
796.389	150.01
796.57	31.23
796.75	-105.98
796.93	80.38
797.111	-7.68
797.291	-83.45
797.471	147.97
797.652	59.9
797.832	-15.87
798.012	29.18
798.192	10.75
798.373	-28.16
798.553	-34.3
798.733	49.66
798.913	-50.69
799.093	4.61
799.274	10.75
799.454	29.18
799.634	107.01
799.814	53.76
799.994	70.14
800.174	107.01
800.354	57.86
800.534	-77.31
800.714	94.72
800.894	-91.65
801.074	-71.17
801.254	-120.32
801.434	121.34
801.614	20.99
801.794	-36.35
801.974	1931.75
802.154	-11.78
802.334	72.19
802.514	-91.65
802.693	16.9
802.873	8.7
803.053	160.25
803.233	90.62
803.413	20.99
803.592	-30.21
803.772	-13.82
803.952	43.52
804.131	-75.26
804.311	94.72
804.491	94.72
804.67	-9.73
804.85	-26.11
805.03	37.38
805.209	154.11
805.389	27.14
805.568	-15.87
805.748	-38.4
805.928	8.7
806.107	27.14
806.287	100.86
806.466	82.43
806.646	80.38
806.825	-7.68
807.004	2.56
807.184	27.14
807.363	84.48
807.543	2.56
807.722	35.33
807.901	66.05
808.081	59.9
808.26	-163.33
808.439	-54.78
808.619	45.57
808.798	37.38
808.977	80.38
809.156	92.67
809.336	16.9
809.515	25.09
809.694	2.56
809.873	-3.58
810.052	33.28
810.231	96.77
810.411	88.57
810.59	2.56
810.769	-1.54
810.948	86.53
811.127	-175.61
811.306	16.9
811.485	45.57
811.664	74.24
811.843	31.23
812.022	12.8
812.201	16.9
812.38	18.94
812.559	-60.93
812.737	53.76
812.916	-116.22
813.095	25.09
813.274	80.38
813.453	-48.64
813.632	74.24
813.811	61.95
813.989	-67.07
814.168	18.94
814.347	-89.6
814.526	70.14
814.704	141.82
814.883	88.57
815.062	-50.69
815.24	47.62
815.419	-112.13
815.598	37.38
815.776	-36.35
815.955	-19.97
816.133	-144.89
816.312	-7.68
816.49	-7.68
816.669	-17.92
816.847	27.14
817.026	0.51
817.204	20.99
817.383	-28.16
817.561	-17.92
817.74	78.33
817.918	-48.64
818.097	-62.98
818.275	-7.68
818.453	47.62
818.632	-24.06
818.81	-89.6
818.988	41.47
819.167	-11.78
819.345	18.94
819.523	-3.58
819.701	-15.87
819.879	47.62
820.058	8.7
820.236	76.29
820.414	-32.26
820.592	-36.35
820.77	-9.73
820.948	-17.92
821.127	0.51
821.305	-50.69
821.483	-46.59
821.661	53.76
821.839	41.47
822.017	-38.4
822.195	-19.97
822.373	82.43
822.551	70.14
822.729	76.29
822.907	-46.59
823.085	94.72
823.262	-9.73
823.44	-65.02
823.618	-19.97
823.796	4.61
823.974	82.43
824.152	-136.7
824.329	14.85
824.507	12.8
824.685	57.86
824.863	47.62
825.04	4.61
825.218	-17.92
825.396	25.09
825.574	37.38
825.751	-3.58
825.929	102.91
826.107	-48.64
826.284	47.62
826.462	78.33
826.639	23.04
826.817	-69.12
826.994	-15.87
827.172	-85.5
827.349	43.52
827.527	59.9
827.704	61.95
827.882	150.01
828.059	0.51
828.237	-7.68
828.414	96.77
828.591	-95.74
828.769	51.71
828.946	-36.35
829.124	78.33
829.301	139.77
829.478	4.61
829.655	-50.69
829.833	43.52
830.01	-71.17
830.187	43.52
830.364	23.04
830.542	41.47
830.719	145.92
830.896	41.47
831.073	-36.35
831.25	35.33
831.427	84.48
831.604	-34.3
831.782	-48.64
831.959	27.14
832.136	-60.93
832.313	35.33
832.49	2.56
832.667	123.39
832.844	-48.64
833.021	53.76
833.198	55.81
833.374	47.62
833.551	92.67
833.728	-38.4
833.905	61.95
834.082	-118.27
834.259	31.23
834.436	111.1
834.612	-17.92
834.789	39.42
834.966	80.38
835.143	0.51
835.319	-95.74
835.496	2.56
835.673	18.94
835.85	0.51
836.026	-44.54
836.203	80.38
836.38	-32.26
836.556	10.75
836.733	-17.92
836.909	107.01
837.086	88.57
837.262	-26.11
837.439	-3.58
837.616	-60.93
837.792	-9.73
837.968	-11.78
838.145	-103.93
838.321	-19.97
838.498	20.99
838.674	35.33
838.851	-17.92
839.027	-67.07
839.203	39.42
839.38	59.9
839.556	-38.4
839.732	72.19
839.909	61.95
840.085	10.75
840.261	-62.98
840.437	70.14
840.614	-30.21
840.79	96.77
840.966	47.62
841.142	68.09
841.318	-28.16
841.494	59.9
841.671	100.86
841.847	-50.69
842.023	-108.03
842.199	23.04
842.375	145.92
842.551	-103.93
842.727	-52.74
842.903	96.77
843.079	-42.5
843.255	90.62
843.431	-15.87
843.607	43.52
843.783	-144.89
843.959	-46.59
844.134	-19.97
844.31	-26.11
844.486	12.8
844.662	31.23
844.838	10.75
845.013	74.24
845.189	78.33
845.365	31.23
845.541	29.18
845.716	-34.3
845.892	14.85
846.068	-15.87
846.244	-110.08
846.419	55.81
846.595	-56.83
846.77	-52.74
846.946	70.14
847.122	-1.54
847.297	49.66
847.473	121.34
847.648	-19.97
847.824	8.7
847.999	-103.93
848.175	41.47
848.35	0.51
848.526	59.9
848.701	90.62
848.876	68.09
849.052	10.75
849.227	-7.68
849.403	-71.17
849.578	-30.21
849.753	2.56
849.929	39.42
850.104	-67.07
850.279	-36.35
850.454	39.42
850.63	78.33
850.805	-36.35
850.98	8.7
851.155	-32.26
851.33	39.42
851.505	-50.69
851.681	182.78
851.856	-114.17
852.031	10.75
852.206	-3.58
852.381	2.56
852.556	41.47
852.731	33.28
852.906	27.14
853.081	25.09
853.256	57.86
853.431	-32.26
853.606	-85.5
853.781	20.99
853.956	-17.92
854.131	49.66
854.305	-75.26
854.48	-17.92
854.655	-36.35
854.83	-36.35
855.005	-38.4
855.18	25.09
855.354	2.56
855.529	39.42
855.704	-54.78
855.879	74.24
856.053	-81.41
856.228	49.66
856.403	-85.5
856.577	0.51
856.752	-83.45
856.926	-11.78
857.101	10.75
857.276	-116.22
857.45	12.8
857.625	82.43
857.799	20.99
857.974	-24.06
858.148	-99.84
858.323	10.75
858.497	25.09
858.672	-50.69
858.846	-161.28
859.02	33.28
859.195	10.75
859.369	-1.54
859.543	66.05
859.718	39.42
859.892	12.8
860.066	-15.87
860.241	-75.26
860.415	18.94
860.589	-9.73
860.763	-11.78
860.938	-13.82
861.112	14.85
861.286	-56.83
861.46	55.81
861.634	0.51
861.808	6.66
861.982	43.52
862.157	-87.55
862.331	-73.21
862.505	-99.84
862.679	-50.69
862.853	-65.02
863.027	-34.3
863.201	109.05
863.375	-32.26
863.549	102.91
863.722	47.62
863.896	31.23
864.07	-79.36
864.244	-9.73
864.418	80.38
864.592	107.01
864.766	96.77
864.939	-34.3
865.113	-19.97
865.287	49.66
865.461	-50.69
865.634	10.75
865.808	-83.45
865.982	27.14
866.156	-60.93
866.329	-122.37
866.503	-17.92
866.676	18.94
866.85	35.33
867.024	-83.45
867.197	35.33
867.371	2.56
867.544	90.62
867.718	-65.02
867.891	145.92
868.065	-54.78
868.238	51.71
868.412	125.44
868.585	49.66
868.759	-26.11
868.932	-110.08
869.105	-112.13
869.279	-65.02
869.452	-83.45
869.625	-1.54
869.799	-15.87
869.972	-105.98
870.145	-58.88
870.319	39.42
870.492	-1.54
870.665	18.94
870.838	-50.69
871.011	-105.98
871.185	-34.3
871.358	-58.88
871.531	39.42
871.704	-50.69
871.877	-40.45
872.05	-56.83
872.223	-44.54
872.396	49.66
872.569	23.04
872.742	-99.84
872.915	16.9
873.088	25.09
873.261	-22.02
873.434	49.66
873.607	-24.06
873.78	115.2
873.953	-46.59
874.126	64
874.299	-19.97
874.471	-77.31
874.644	-30.21
874.817	119.29
874.99	70.14
875.163	-103.93
875.335	41.47
875.508	-24.06
875.681	115.2
875.853	20.99
876.026	33.28
876.199	-3.58
876.371	-11.78
876.544	-105.98
876.717	2.56
876.889	-5.63
877.062	2.56
877.234	-89.6
877.407	-28.16
877.579	-7.68
877.752	33.28
877.924	-15.87
878.097	-36.35
878.269	10.75
878.442	-36.35
878.614	61.95
878.786	-50.69
878.959	70.14
879.131	14.85
879.303	-122.37
879.476	37.38
879.648	78.33
879.82	10.75
879.993	-52.74
880.165	-67.07
880.337	-126.46
880.509	51.71
880.681	-87.55
880.854	-30.21
881.026	43.52
881.198	74.24
881.37	-1.54
881.542	0.51
881.714	-52.74
881.886	-46.59
882.058	-7.68
882.23	23.04
882.402	16.9
882.574	-9.73
882.746	64
882.918	111.1
883.09	98.81
883.262	-26.11
883.434	14.85
883.606	-46.59
883.778	-110.08
883.95	68.09
884.122	18.94
884.293	78.33
884.465	4.61
884.637	88.57
884.809	-112.13
884.98	41.47
885.152	74.24
885.324	47.62
885.496	-77.31
885.667	-5.63
885.839	23.04
886.011	100.86
886.182	-34.3
886.354	29.18
886.525	6.66
886.697	4.61
886.869	-52.74
887.04	-24.06
887.212	45.57
887.383	113.15
887.555	-24.06
887.726	-62.98
887.897	-40.45
888.069	-9.73
888.24	49.66
888.412	0.51
888.583	2.56
888.754	-48.64
888.926	-71.17
889.097	23.04
889.268	-13.82
889.44	74.24
889.611	-9.73
889.782	-120.32
889.953	-56.83
890.125	104.96
890.296	-69.12
890.467	-34.3
890.638	6.66
890.809	-5.63
890.98	-81.41
891.151	27.14
891.323	195.07
891.494	43.52
891.665	111.1
891.836	-42.5
892.007	-34.3
892.178	37.38
892.349	72.19
892.52	-36.35
892.691	-19.97
892.862	-1.54
893.032	-46.59
893.203	27.14
893.374	2.56
893.545	96.77
893.716	-40.45
893.887	51.71
894.057	-5.63
894.228	12.8
894.399	-17.92
894.57	154.11
894.74	25.09
894.911	18.94
895.082	55.81
895.253	-42.5
895.423	18.94
895.594	68.09
895.764	51.71
895.935	-60.93
896.106	37.38
896.276	-26.11
896.447	8.7
896.617	-42.5
896.788	-48.64
896.958	8.7
897.129	6.66
897.299	-52.74
897.47	119.29
897.64	57.86
897.81	-79.36
897.981	66.05
898.151	-83.45
898.322	6.66
898.492	29.18
898.662	2.56
898.832	-73.21
899.003	-30.21
899.173	16.9
899.343	-128.51
899.513	-132.61
