Data from USB4F104151__126__10-46-20-757.txt Node

Date: Wed Feb 26 10:46:20 EST 2025
User: louis
Spectrometer: USB4F10415
Trigger mode: 4
Integration Time (sec): 1.000000E-1
Scans to average: 1
Electric dark correction enabled: true
Nonlinearity correction enabled: false
Boxcar width: 0
XAxis mode: Wavelengths
Number of Pixels in Spectrum: 3648
>>>>>Begin Spectral Data<<<<<
178.204	-432.46
178.424	-432.46
178.644	-432.46
178.864	-379.22
179.084	-364.88
179.304	-4.44
179.524	3.75
179.744	-59.73
179.964	57
180.184	13.99
180.404	50.86
180.624	-53.59
180.844	-39.25
181.064	-57.68
181.283	40.62
181.503	22.19
181.723	26.28
181.943	-180.56
182.163	165.54
182.383	11.95
182.602	83.63
182.822	110.25
183.042	100.01
183.262	40.62
183.482	-29.01
183.701	71.34
183.921	65.19
184.141	-96.6
184.361	116.39
184.58	-29.01
184.8	24.23
185.02	-10.58
185.239	75.43
185.459	50.86
185.679	175.78
185.898	-53.59
186.118	81.58
186.338	20.14
186.557	200.36
186.777	-55.64
186.997	22.19
187.216	-2.39
187.436	208.55
187.655	85.67
187.875	63.15
188.095	50.86
188.314	128.68
188.534	169.64
188.753	-31.06
188.973	91.82
189.192	245.41
189.412	20.14
189.631	75.43
189.851	13.99
190.07	237.22
190.29	-90.45
190.509	26.28
190.729	-26.96
190.948	143.02
191.168	226.98
191.387	87.72
191.607	-94.55
191.826	73.39
192.045	1.71
192.265	-67.92
192.484	52.91
192.704	-4.44
192.923	-20.82
193.142	159.4
193.362	165.54
193.581	204.46
193.8	77.48
194.02	44.71
194.239	42.67
194.458	69.29
194.678	44.71
194.897	42.67
195.116	100.01
195.335	69.29
195.555	79.53
195.774	-29.01
195.993	122.54
196.212	26.28
196.432	-10.58
196.651	-2.39
196.87	59.05
197.089	290.47
197.308	-43.35
197.528	114.34
197.747	-94.55
197.966	-20.82
198.185	161.45
198.404	50.86
198.623	186.02
198.842	171.69
199.062	120.49
199.281	112.3
199.5	63.15
199.719	104.11
199.938	50.86
200.157	124.58
200.376	130.73
200.595	198.31
200.814	57
201.033	54.95
201.252	110.25
201.471	50.86
201.69	100.01
201.909	20.14
202.128	42.67
202.347	147.11
202.566	79.53
202.785	-8.53
203.004	67.24
203.223	294.57
203.442	18.09
203.661	5.8
203.879	11.95
204.098	118.44
204.317	-2.39
204.536	118.44
204.755	79.53
204.974	85.67
205.193	44.71
205.411	151.21
205.63	36.52
205.849	81.58
206.068	42.67
206.287	30.38
206.505	196.26
206.724	65.19
206.943	-20.82
207.162	-49.49
207.381	63.15
207.599	26.28
207.818	124.58
208.037	-84.31
208.255	-31.06
208.474	3.75
208.693	38.57
208.911	24.23
209.13	186.02
209.349	36.52
209.567	16.04
209.786	-6.49
210.005	95.91
210.223	65.19
210.442	-67.92
210.661	-0.34
210.879	97.96
211.098	1.71
211.316	32.43
211.535	81.58
211.753	110.25
211.972	108.2
212.191	-63.83
212.409	63.15
212.628	63.15
212.846	40.62
213.065	20.14
213.283	120.49
213.502	71.34
213.72	61.1
213.938	128.68
214.157	16.04
214.375	143.02
214.594	13.99
214.812	114.34
215.031	22.19
215.249	-18.77
215.467	83.63
215.686	22.19
215.904	36.52
216.122	67.24
216.341	157.35
216.559	32.43
216.778	165.54
216.996	165.54
217.214	91.82
217.432	38.57
217.651	-43.35
217.869	13.99
218.087	34.47
218.306	-6.49
218.524	26.28
218.742	26.28
218.96	59.05
219.179	50.86
219.397	54.95
219.615	210.6
219.833	54.95
220.051	-16.73
220.27	106.15
220.488	114.34
220.706	18.09
220.924	-65.88
221.142	-53.59
221.36	28.33
221.578	46.76
221.796	-4.44
222.015	59.05
222.233	95.91
222.451	126.63
222.669	-14.68
222.887	38.57
223.105	50.86
223.323	65.19
223.541	-33.11
223.759	132.78
223.977	26.28
224.195	140.97
224.413	120.49
224.631	-2.39
224.849	73.39
225.067	222.89
225.285	-2.39
225.503	-80.21
225.721	-92.5
225.939	95.91
226.157	3.75
226.375	183.98
226.592	59.05
226.81	-4.44
227.028	100.01
227.246	181.93
227.464	85.67
227.682	100.01
227.9	20.14
228.117	87.72
228.335	83.63
228.553	97.96
228.771	48.81
228.989	-0.34
229.206	73.39
229.424	-6.49
229.642	28.33
229.86	-41.3
230.077	153.26
230.295	32.43
230.513	95.91
230.731	147.11
230.948	198.31
231.166	163.5
231.384	5.8
231.601	-41.3
231.819	106.15
232.037	36.52
232.254	-10.58
232.472	26.28
232.689	-31.06
232.907	114.34
233.125	18.09
233.342	-24.92
233.56	75.43
233.777	30.38
233.995	59.05
234.213	108.2
234.43	75.43
234.648	65.19
234.865	67.24
235.083	-39.25
235.3	79.53
235.518	26.28
235.735	106.15
235.953	57
236.17	65.19
236.388	63.15
236.605	67.24
236.822	138.92
237.04	104.11
237.257	61.1
237.475	-63.83
237.692	102.06
237.909	63.15
238.127	5.8
238.344	91.82
238.562	116.39
238.779	-6.49
238.996	-20.82
239.214	22.19
239.431	32.43
239.648	87.72
239.865	-12.63
240.083	122.54
240.3	30.38
240.517	-2.39
240.735	7.85
240.952	206.5
241.169	130.73
241.386	57
241.603	59.05
241.821	-0.34
242.038	116.39
242.255	134.82
242.472	26.28
242.689	126.63
242.907	93.87
243.124	75.43
243.341	-0.34
243.558	-24.92
243.775	-67.92
243.992	-2.39
244.209	63.15
244.426	169.64
244.643	9.9
244.86	44.71
245.078	114.34
245.295	106.15
245.512	46.76
245.729	54.95
245.946	108.2
246.163	3.75
246.38	24.23
246.597	93.87
246.814	110.25
247.031	48.81
247.248	-10.58
247.464	140.97
247.681	110.25
247.898	116.39
248.115	30.38
248.332	48.81
248.549	196.26
248.766	149.16
248.983	50.86
249.2	67.24
249.417	188.07
249.633	59.05
249.85	167.59
250.067	7.85
250.284	52.91
250.501	28.33
250.717	18.09
250.934	-6.49
251.151	38.57
251.368	32.43
251.585	71.34
251.801	69.29
252.018	-100.69
252.235	136.87
252.451	18.09
252.668	67.24
252.885	95.91
253.102	63.15
253.318	69.29
253.535	46.76
253.752	30.38
253.968	44.71
254.185	13.99
254.401	89.77
254.618	44.71
254.835	-26.96
255.051	93.87
255.268	71.34
255.484	87.72
255.701	61.1
255.917	188.07
256.134	-16.73
256.351	44.71
256.567	-63.83
256.784	48.81
257	-63.83
257.217	9.9
257.433	69.29
257.65	30.38
257.866	81.58
258.082	-10.58
258.299	-22.87
258.515	63.15
258.732	69.29
258.948	1.71
259.165	67.24
259.381	24.23
259.597	104.11
259.814	-0.34
260.03	-33.11
260.246	11.95
260.463	102.06
260.679	181.93
260.895	50.86
261.112	71.34
261.328	44.71
261.544	-45.4
261.761	175.78
261.977	-6.49
262.193	-69.97
262.409	63.15
262.626	106.15
262.842	48.81
263.058	16.04
263.274	132.78
263.49	22.19
263.707	128.68
263.923	147.11
264.139	-74.07
264.355	171.69
264.571	116.39
264.787	157.35
265.004	153.26
265.22	11.95
265.436	-26.96
265.652	22.19
265.868	1.71
266.084	-67.92
266.3	110.25
266.516	-14.68
266.732	67.24
266.948	48.81
267.164	-22.87
267.38	75.43
267.596	34.47
267.812	147.11
268.028	-2.39
268.244	9.9
268.46	54.95
268.676	42.67
268.892	22.19
269.108	40.62
269.324	24.23
269.54	-47.44
269.756	108.2
269.972	34.47
270.188	26.28
270.403	-6.49
270.619	-16.73
270.835	83.63
271.051	93.87
271.267	40.62
271.483	-18.77
271.698	159.4
271.914	79.53
272.13	36.52
272.346	5.8
272.562	54.95
272.777	149.16
272.993	-2.39
273.209	1.71
273.425	97.96
273.64	-24.92
273.856	81.58
274.072	36.52
274.287	48.81
274.503	85.67
274.719	104.11
274.934	-37.2
275.15	-59.73
275.366	67.24
275.581	-49.49
275.797	34.47
276.012	-12.63
276.228	73.39
276.444	83.63
276.659	83.63
276.875	-29.01
277.09	46.76
277.306	34.47
277.521	112.3
277.737	112.3
277.952	102.06
278.168	57
278.383	28.33
278.599	1.71
278.814	138.92
279.03	42.67
279.245	136.87
279.461	36.52
279.676	28.33
279.892	-53.59
280.107	-2.39
280.322	13.99
280.538	114.34
280.753	16.04
280.969	65.19
281.184	67.24
281.399	120.49
281.615	-4.44
281.83	77.48
282.045	-10.58
282.26	-8.53
282.476	-35.16
282.691	97.96
282.906	108.2
283.122	95.91
283.337	-80.21
283.552	126.63
283.767	50.86
283.983	95.91
284.198	-41.3
284.413	73.39
284.628	42.67
284.843	71.34
285.058	157.35
285.274	38.57
285.489	-43.35
285.704	67.24
285.919	-22.87
286.134	118.44
286.349	57
286.564	16.04
286.779	81.58
286.995	54.95
287.21	-76.12
287.425	108.2
287.64	-41.3
287.855	69.29
288.07	-67.92
288.285	28.33
288.5	106.15
288.715	134.82
288.93	65.19
289.145	-41.3
289.36	122.54
289.575	-16.73
289.79	128.68
290.004	-26.96
290.219	118.44
290.434	-0.34
290.649	22.19
290.864	61.1
291.079	5.8
291.294	79.53
291.509	46.76
291.724	44.71
291.938	-12.63
292.153	46.76
292.368	-14.68
292.583	155.3
292.798	130.73
293.012	106.15
293.227	83.63
293.442	-2.39
293.657	57
293.871	136.87
294.086	124.58
294.301	208.55
294.516	104.11
294.73	59.05
294.945	-35.16
295.16	69.29
295.374	140.97
295.589	114.34
295.804	22.19
296.018	22.19
296.233	206.5
296.447	-2.39
296.662	7.85
296.877	79.53
297.091	63.15
297.306	65.19
297.52	63.15
297.735	91.82
297.949	87.72
298.164	71.34
298.378	120.49
298.593	-12.63
298.807	42.67
299.022	54.95
299.236	171.69
299.451	34.47
299.665	18.09
299.88	-6.49
300.094	83.63
300.309	-6.49
300.523	83.63
300.737	20.14
300.952	32.43
301.166	30.38
301.381	-14.68
301.595	-4.44
301.809	7.85
302.024	28.33
302.238	38.57
302.452	79.53
302.667	73.39
302.881	97.96
303.095	147.11
303.309	63.15
303.524	-45.4
303.738	-6.49
303.952	-16.73
304.166	85.67
304.381	-76.12
304.595	200.36
304.809	-8.53
305.023	59.05
305.237	54.95
305.452	13.99
305.666	34.47
305.88	108.2
306.094	104.11
306.308	79.53
306.522	128.68
306.736	112.3
306.95	89.77
307.164	83.63
307.379	85.67
307.593	237.22
307.807	173.74
308.021	54.95
308.235	134.82
308.449	-41.3
308.663	79.53
308.877	239.27
309.091	157.35
309.305	87.72
309.519	-31.06
309.733	177.83
309.947	-14.68
310.161	104.11
310.374	136.87
310.588	28.33
310.802	3.75
311.016	20.14
311.23	91.82
311.444	-37.2
311.658	79.53
311.872	163.5
312.085	65.19
312.299	208.55
312.513	159.4
312.727	46.76
312.941	-8.53
313.154	175.78
313.368	147.11
313.582	30.38
313.796	34.47
314.009	91.82
314.223	140.97
314.437	81.58
314.651	75.43
314.864	18.09
315.078	20.14
315.292	-31.06
315.505	28.33
315.719	138.92
315.933	5.8
316.146	40.62
316.36	-82.26
316.573	155.3
316.787	48.81
317.001	3.75
317.214	-2.39
317.428	52.91
317.641	75.43
317.855	48.81
318.068	71.34
318.282	65.19
318.495	130.73
318.709	128.68
318.922	-0.34
319.136	128.68
319.349	69.29
319.563	-8.53
319.776	-6.49
319.99	-31.06
320.203	183.98
320.417	65.19
320.63	138.92
320.843	153.26
321.057	61.1
321.27	-43.35
321.483	122.54
321.697	147.11
321.91	-18.77
322.124	79.53
322.337	106.15
322.55	5.8
322.763	30.38
322.977	54.95
323.19	-12.63
323.403	126.63
323.617	102.06
323.83	63.15
324.043	54.95
324.256	97.96
324.469	-72.02
324.683	124.58
324.896	16.04
325.109	28.33
325.322	-35.16
325.535	85.67
325.748	108.2
325.962	24.23
326.175	50.86
326.388	40.62
326.601	124.58
326.814	138.92
327.027	114.34
327.24	87.72
327.453	-98.64
327.666	108.2
327.879	136.87
328.092	112.3
328.305	102.06
328.518	7.85
328.731	-8.53
328.944	40.62
329.157	93.87
329.37	73.39
329.583	179.88
329.796	126.63
330.009	22.19
330.222	108.2
330.435	112.3
330.648	30.38
330.861	57
331.073	138.92
331.286	147.11
331.499	57
331.712	3.75
331.925	83.63
332.138	69.29
332.35	100.01
332.563	-29.01
332.776	67.24
332.989	13.99
333.202	50.86
333.414	83.63
333.627	30.38
333.84	-29.01
334.053	91.82
334.265	-29.01
334.478	-78.16
334.691	18.09
334.903	46.76
335.116	-76.12
335.329	79.53
335.541	61.1
335.754	97.96
335.966	30.38
336.179	97.96
336.392	61.1
336.604	61.1
336.817	161.45
337.029	50.86
337.242	16.04
337.454	114.34
337.667	-16.73
337.88	138.92
338.092	42.67
338.305	9.9
338.517	20.14
338.729	18.09
338.942	134.82
339.154	-43.35
339.367	-4.44
339.579	108.2
339.792	24.23
340.004	85.67
340.217	24.23
340.429	20.14
340.641	40.62
340.854	118.44
341.066	-33.11
341.278	124.58
341.491	102.06
341.703	-14.68
341.915	-78.16
342.128	54.95
342.34	61.1
342.552	-0.34
342.764	-16.73
342.977	18.09
343.189	130.73
343.401	71.34
343.613	-55.64
343.826	73.39
344.038	-49.49
344.25	-24.92
344.462	-6.49
344.674	-20.82
344.886	32.43
345.099	50.86
345.311	54.95
345.523	11.95
345.735	-78.16
345.947	44.71
346.159	36.52
346.371	38.57
346.583	32.43
346.795	167.59
347.007	-24.92
347.219	26.28
347.431	22.19
347.643	106.15
347.855	42.67
348.067	163.5
348.279	-12.63
348.491	132.78
348.703	75.43
348.915	75.43
349.127	-24.92
349.339	52.91
349.551	-24.92
349.763	124.58
349.975	114.34
350.187	106.15
350.399	188.07
350.61	67.24
350.822	7.85
351.034	87.72
351.246	114.34
351.458	48.81
351.669	112.3
351.881	85.67
352.093	132.78
352.305	34.47
352.517	136.87
352.728	181.93
352.94	73.39
353.152	97.96
353.363	-16.73
353.575	71.34
353.787	220.84
353.999	73.39
354.21	138.92
354.422	32.43
354.633	-14.68
354.845	71.34
355.057	-35.16
355.268	104.11
355.48	134.82
355.692	-57.68
355.903	67.24
356.115	-98.64
356.326	-57.68
356.538	100.01
356.749	95.91
356.961	128.68
357.172	50.86
357.384	57
357.595	214.7
357.807	-20.82
358.018	13.99
358.23	42.67
358.441	145.06
358.653	36.52
358.864	75.43
359.075	-39.25
359.287	136.87
359.498	85.67
359.709	77.48
359.921	9.9
360.132	34.47
360.344	140.97
360.555	26.28
360.766	120.49
360.977	-8.53
361.189	126.63
361.4	-35.16
361.611	128.68
361.823	108.2
362.034	50.86
362.245	-76.12
362.456	48.81
362.667	69.29
362.879	-86.36
363.09	63.15
363.301	59.05
363.512	52.91
363.723	1.71
363.935	9.9
364.146	145.06
364.357	69.29
364.568	16.04
364.779	-2.39
364.99	151.21
365.201	54.95
365.412	167.59
365.623	-24.92
365.834	145.06
366.045	36.52
366.256	79.53
366.467	81.58
366.678	59.05
366.889	54.95
367.1	30.38
367.311	114.34
367.522	-14.68
367.733	95.91
367.944	114.34
368.155	22.19
368.366	79.53
368.577	159.4
368.788	159.4
368.999	-18.77
369.209	95.91
369.42	206.5
369.631	253.61
369.842	102.06
370.053	54.95
370.264	118.44
370.474	-43.35
370.685	30.38
370.896	63.15
371.107	143.02
371.317	38.57
371.528	38.57
371.739	177.83
371.95	87.72
372.16	77.48
372.371	52.91
372.582	61.1
372.792	79.53
373.003	108.2
373.214	116.39
373.424	140.97
373.635	36.52
373.846	124.58
374.056	112.3
374.267	16.04
374.477	24.23
374.688	18.09
374.898	136.87
375.109	91.82
375.319	114.34
375.53	81.58
375.74	145.06
375.951	118.44
376.161	77.48
376.372	188.07
376.582	18.09
376.793	132.78
377.003	22.19
377.214	34.47
377.424	110.25
377.635	30.38
377.845	-8.53
378.055	97.96
378.266	-0.34
378.476	42.67
378.686	108.2
378.897	50.86
379.107	147.11
379.317	85.67
379.528	32.43
379.738	91.82
379.948	16.04
380.158	116.39
380.369	1.71
380.579	155.3
380.789	44.71
380.999	210.6
381.21	79.53
381.42	194.22
381.63	128.68
381.84	93.87
382.05	93.87
382.261	132.78
382.471	81.58
382.681	-22.87
382.891	147.11
383.101	50.86
383.311	3.75
383.521	-2.39
383.731	89.77
383.941	81.58
384.151	124.58
384.361	-2.39
384.571	30.38
384.781	85.67
384.991	241.32
385.201	220.84
385.411	71.34
385.621	44.71
385.831	95.91
386.041	16.04
386.251	136.87
386.461	118.44
386.671	13.99
386.881	87.72
387.091	73.39
387.301	102.06
387.511	112.3
387.72	9.9
387.93	79.53
388.14	34.47
388.35	71.34
388.56	120.49
388.769	69.29
388.979	91.82
389.189	42.67
389.399	57
389.609	104.11
389.818	85.67
390.028	87.72
390.238	52.91
390.447	-10.58
390.657	63.15
390.867	-0.34
391.076	-43.35
391.286	54.95
391.496	42.67
391.705	44.71
391.915	93.87
392.125	173.74
392.334	38.57
392.544	83.63
392.753	22.19
392.963	75.43
393.172	1.71
393.382	89.77
393.591	198.31
393.801	-12.63
394.01	149.16
394.22	212.65
394.429	87.72
394.639	87.72
394.848	34.47
395.058	89.77
395.267	26.28
395.477	71.34
395.686	71.34
395.895	255.65
396.105	179.88
396.314	79.53
396.524	97.96
396.733	69.29
396.942	77.48
397.152	151.21
397.361	79.53
397.57	-31.06
397.78	149.16
397.989	155.3
398.198	192.17
398.407	59.05
398.617	42.67
398.826	61.1
399.035	75.43
399.244	188.07
399.453	132.78
399.663	44.71
399.872	114.34
400.081	-8.53
400.29	237.22
400.499	69.29
400.708	134.82
400.917	87.72
401.127	73.39
401.336	71.34
401.545	140.97
401.754	91.82
401.963	112.3
402.172	71.34
402.381	16.04
402.59	3.75
402.799	42.67
403.008	104.11
403.217	95.91
403.426	18.09
403.635	-29.01
403.844	34.47
404.053	54.95
404.262	34.47
404.471	169.64
404.68	11.95
404.888	100.01
405.097	-2.39
405.306	48.81
405.515	149.16
405.724	7.85
405.933	159.4
406.142	77.48
406.35	159.4
406.559	18.09
406.768	50.86
406.977	110.25
407.185	57
407.394	147.11
407.603	-26.96
407.812	67.24
408.02	124.58
408.229	13.99
408.438	73.39
408.646	-14.68
408.855	50.86
409.064	57
409.272	7.85
409.481	63.15
409.69	7.85
409.898	-16.73
410.107	91.82
410.315	75.43
410.524	9.9
410.733	50.86
410.941	81.58
411.15	104.11
411.358	52.91
411.567	200.36
411.775	132.78
411.984	73.39
412.192	110.25
412.401	42.67
412.609	165.54
412.818	104.11
413.026	57
413.234	61.1
413.443	3.75
413.651	44.71
413.86	102.06
414.068	128.68
414.276	143.02
414.485	46.76
414.693	134.82
414.901	224.94
415.11	93.87
415.318	93.87
415.526	52.91
415.734	169.64
415.943	59.05
416.151	118.44
416.359	87.72
416.567	132.78
416.776	151.21
416.984	165.54
417.192	198.31
417.4	40.62
417.608	46.76
417.817	42.67
418.025	85.67
418.233	188.07
418.441	44.71
418.649	-49.49
418.857	32.43
419.065	155.3
419.273	28.33
419.481	28.33
419.689	50.86
419.897	120.49
420.105	-29.01
420.313	159.4
420.521	241.32
420.729	161.45
420.937	89.77
421.145	9.9
421.353	140.97
421.561	157.35
421.769	100.01
421.977	20.14
422.185	132.78
422.393	104.11
422.601	95.91
422.809	140.97
423.017	42.67
423.224	83.63
423.432	147.11
423.64	59.05
423.848	153.26
424.056	48.81
424.263	116.39
424.471	67.24
424.679	167.59
424.887	-14.68
425.094	183.98
425.302	149.16
425.51	30.38
425.718	79.53
425.925	-22.87
426.133	24.23
426.341	198.31
426.548	128.68
426.756	89.77
426.964	65.19
427.171	63.15
427.379	108.2
427.586	81.58
427.794	169.64
428.001	134.82
428.209	188.07
428.417	149.16
428.624	57
428.832	143.02
429.039	124.58
429.247	52.91
429.454	206.5
429.662	255.65
429.869	71.34
430.076	138.92
430.284	128.68
430.491	239.27
430.699	190.12
430.906	292.52
431.114	149.16
431.321	138.92
431.528	179.88
431.736	210.6
431.943	181.93
432.15	157.35
432.358	175.78
432.565	255.65
432.772	116.39
432.979	239.27
433.187	95.91
433.394	222.89
433.601	214.7
433.808	237.22
434.016	323.24
434.223	171.69
434.43	247.46
434.637	263.85
434.844	235.18
435.052	360.1
435.259	331.43
435.466	343.72
435.673	272.04
435.88	415.4
436.087	353.96
436.294	401.06
436.501	419.49
436.708	353.96
436.915	372.39
437.122	497.32
437.329	339.62
437.537	243.37
437.743	417.44
437.95	495.27
438.157	485.03
438.364	487.08
438.571	468.64
438.778	503.46
438.985	534.18
439.192	589.47
439.399	460.45
439.606	538.27
439.813	554.66
440.02	757.41
440.227	753.31
440.433	566.95
440.64	624.29
440.847	562.85
441.054	716.45
441.261	872.09
441.467	714.4
441.674	702.11
441.881	822.94
442.088	753.31
442.294	865.95
442.501	835.23
442.708	966.3
442.914	931.48
443.121	1001.12
443.328	964.25
443.534	1058.46
443.741	1009.31
443.948	1046.17
444.154	1193.62
444.361	1322.65
444.568	1257.11
444.774	1091.23
444.981	1132.19
445.187	1343.13
445.394	1326.74
445.6	1398.42
445.807	1584.79
446.013	1496.72
446.22	1490.58
446.426	1525.4
446.633	1719.95
446.839	1808.02
447.046	1648.27
447.252	1984.14
447.459	1916.56
447.665	1957.52
447.871	2057.87
448.078	2303.62
448.284	2125.45
448.491	2360.97
448.697	2565.76
448.903	2473.6
449.11	2702.98
449.316	2518.66
449.522	2827.9
449.728	2942.59
449.935	2819.71
450.141	3059.32
450.347	3223.16
450.553	3147.39
450.76	3190.39
450.966	3434.1
451.172	3489.4
451.378	3716.72
451.584	3735.15
451.791	3923.57
451.997	4023.92
452.203	4122.22
452.409	4279.91
452.615	4564.58
452.821	4404.84
453.027	4505.19
453.233	5045.85
453.44	5000.8
453.646	5152.35
453.852	5492.31
454.058	5572.18
454.264	5848.66
454.47	6194.76
454.676	6202.96
454.882	6673.99
455.088	6354.51
455.294	6739.52
455.5	7177.79
455.705	7546.42
455.911	7585.33
456.117	7863.86
456.323	8169.01
456.529	8091.18
456.735	8988.19
456.941	9188.89
457.147	9514.52
457.352	9760.28
457.558	9975.31
457.764	10522.12
457.97	10804.74
458.176	11189.76
458.381	11865.59
458.587	12133.87
458.793	12553.71
458.999	12606.95
459.204	14368.21
459.41	14820.81
459.616	14616.01
459.821	15400.38
460.027	16117.17
460.233	16612.78
460.438	16825.77
460.644	17788.32
460.85	18023.83
461.055	18533.78
461.261	19326.34
461.466	19135.88
461.672	19643.77
461.878	21577.06
462.083	21593.44
462.289	21919.07
462.494	22863.18
462.7	22971.72
462.905	23143.75
463.111	25029.93
463.316	26422.55
463.522	26848.53
463.727	27770.11
463.932	28845.3
464.138	29672.68
464.343	30555.35
464.549	31110.35
464.754	33365.17
464.959	34079.91
465.165	34796.7
465.37	34395.29
465.575	34454.68
465.781	36904.06
465.986	37678.19
466.191	37231.73
466.397	37534.83
466.602	36859
466.807	38771.8
467.012	39619.66
467.218	40246.34
467.423	40561.73
467.628	41483.31
467.833	43197.46
468.038	42634.27
468.244	42040.36
468.449	43897.87
468.654	42716.19
468.859	42808.35
469.064	43176.98
469.269	42312.74
469.474	42474.53
469.679	43265.05
469.885	41974.83
470.09	42802.21
470.295	42951.71
470.5	42198.05
470.705	42136.62
470.91	41356.34
471.115	41112.63
471.32	41788.46
471.525	41409.59
471.73	40078.41
471.935	39619.66
472.139	38427.74
472.344	38509.66
472.549	38145.12
472.754	37561.45
472.959	36754.55
473.164	35509.39
473.369	35062.93
473.574	35912.84
473.778	35093.65
473.983	34589.85
474.188	33805.48
474.393	32562.36
474.598	32505.02
474.802	31704.26
475.007	31026.39
475.212	30444.76
475.417	29680.87
475.621	29408.49
475.826	29138.16
476.031	28077.31
476.235	27944.19
476.44	27579.65
476.645	26881.3
476.849	26729.75
477.054	26260.76
477.259	25578.79
477.463	25580.84
477.668	24948.01
477.872	25234.73
478.077	24325.43
478.282	23477.57
478.486	23641.41
478.691	23094.6
478.895	22908.24
479.1	22736.21
479.304	22572.37
479.509	21874.01
479.713	22465.88
479.918	21673.31
480.122	21122.41
480.326	21425.51
480.531	21357.92
480.735	20843.88
480.94	20798.83
481.144	21298.53
481.348	20268.41
481.553	20671.86
481.757	19740.03
481.961	20041.08
482.166	19993.98
482.37	19926.39
482.574	18949.51
482.778	19551.62
482.983	19664.25
483.187	19393.92
483.391	19334.53
483.595	18720.14
483.8	18404.75
484.004	18288.02
484.208	18627.98
484.412	18468.24
484.616	18337.17
484.821	17739.16
485.025	17601.95
485.229	17485.22
485.433	17104.29
485.637	17216.93
485.841	16569.77
486.045	16453.04
486.249	16469.42
486.453	16100.79
486.657	15963.58
486.861	15844.79
487.065	15123.91
487.269	15164.87
487.473	14548.43
487.677	14992.84
487.881	14765.51
488.085	14226.9
488.289	14013.91
488.493	13788.63
488.697	13866.46
488.901	13659.61
489.105	13051.36
489.309	12871.14
489.512	12871.14
489.716	12465.64
489.92	12467.69
490.124	11961.84
490.328	12301.81
490.531	11707.9
490.735	11795.96
490.939	11441.66
491.143	11138.56
491.346	11056.64
491.55	10788.36
491.754	10771.97
491.958	10423.82
492.161	10421.77
492.365	10044.95
492.569	10034.71
492.772	9733.65
492.976	9786.9
493.18	9635.35
493.383	9745.94
493.587	9260.57
493.79	9371.16
493.994	8982.05
494.197	9190.94
494.401	8918.56
494.605	8791.59
494.808	8748.58
495.012	8693.29
495.215	8748.58
495.419	8713.77
495.622	8267.31
495.825	8558.12
496.029	8410.67
496.232	8504.87
496.436	8326.7
496.639	8394.28
496.843	8308.27
497.046	8420.91
497.249	8312.36
497.453	8453.67
497.656	8398.38
497.859	8322.6
498.063	8429.1
498.266	8502.82
498.469	8447.53
498.673	8498.73
498.876	8511.02
499.079	8474.15
499.282	8732.2
499.485	9043.49
499.689	8580.65
499.892	8965.67
500.095	8545.83
500.298	8740.39
500.501	8695.33
500.705	8896.03
500.908	9180.7
501.111	9201.18
501.314	9123.36
501.517	9514.52
501.72	9272.86
501.923	9516.57
502.126	9571.86
502.329	9786.9
502.532	9840.15
502.735	10137.1
502.938	10147.34
503.141	10155.54
503.344	10239.5
503.547	10604.04
503.75	10522.12
503.953	10796.55
504.156	10890.76
504.359	11138.56
504.562	10974.72
504.765	11265.53
504.968	11474.43
505.17	11759.1
505.373	11785.72
505.576	12211.7
505.779	12131.83
505.982	12367.34
506.185	12791.27
506.387	12568.04
506.59	13190.63
506.793	13475.29
506.996	13444.57
507.198	14001.62
507.401	14022.1
507.604	14212.56
507.807	14564.81
508.009	15009.22
508.212	15138.24
508.415	15467.97
508.617	15934.9
508.82	15984.05
509.022	15998.39
509.225	16799.15
509.428	17151.4
509.63	17167.78
509.833	17816.99
510.035	18320.79
510.238	18535.82
510.44	18914.7
510.643	19471.75
510.845	20030.84
511.048	20350.32
511.25	20428.15
511.453	20960.62
511.655	22226.26
511.858	22046.04
512.06	22768.98
512.262	22887.76
512.465	23407.94
512.667	24044.86
512.87	24614.2
513.072	25089.32
513.274	25931.04
513.477	26551.57
513.679	27225.36
513.881	27587.85
514.084	28056.83
514.286	28398.84
514.488	28984.56
514.69	30164.19
514.893	30598.36
515.095	31235.28
515.297	31925.44
515.499	32226.49
515.701	33080.5
515.904	33522.86
516.106	34507.93
516.308	35171.47
516.51	35859.59
516.712	36768.89
516.914	37457.01
517.116	38130.79
517.318	38775.9
517.52	39210.07
517.722	39351.38
517.925	41229.37
518.127	41503.79
518.329	42599.46
518.531	42531.87
518.733	43734.03
518.935	44432.39
519.136	44811.26
519.338	46164.97
519.54	46119.91
519.742	46808.03
519.944	47287.26
520.146	48368.58
520.348	49099.71
520.55	49429.43
520.752	49808.31
520.954	51092.38
521.155	50410.41
521.357	52099.98
521.559	52638.6
521.761	53748.6
521.963	53339
522.164	54109.04
522.366	54426.48
522.568	55149.41
522.77	55389.02
522.971	56013.65
523.173	55786.33
523.375	56759.11
523.576	56521.55
523.778	56576.84
523.98	57469.76
524.181	57588.54
524.383	57527.1
524.584	58157.88
524.786	58172.21
524.988	58241.84
525.189	58202.93
525.391	58880.81
525.592	58587.95
525.794	58850.09
525.995	58305.33
526.197	58403.63
526.398	58426.16
526.6	58516.27
526.801	58204.98
527.003	58176.31
527.204	58149.68
527.406	57975.61
527.607	57500.48
527.808	58059.57
528.01	56322.9
528.211	56834.89
528.412	57336.64
528.614	56259.41
528.815	56288.08
529.016	55913.3
529.218	54729.58
529.419	54688.62
529.62	54217.58
529.822	53873.52
530.023	53492.6
530.224	52939.65
530.425	52665.22
530.626	51633.05
530.828	51282.84
531.029	52067.22
531.23	50318.25
531.431	49783.73
531.632	49957.81
531.833	48792.51
532.035	48399.3
532.236	47971.28
532.437	47453.14
532.638	46447.59
532.839	46138.35
533.04	45644.79
533.241	44719.1
533.442	44956.67
533.643	43908.11
533.844	43607.06
534.045	42902.56
534.246	41907.24
534.447	42124.33
534.648	41542.7
534.849	40715.33
535.05	40006.73
535.251	39619.66
535.451	39261.27
535.652	38761.56
535.853	38063.21
536.054	37690.48
536.255	37547.12
536.456	36486.27
536.657	36746.36
536.857	35650.7
537.058	34884.76
537.259	34673.82
537.46	34196.64
537.66	33952.93
537.861	33340.59
538.062	32955.57
538.263	32679.1
538.463	32373.95
538.664	31532.23
538.865	31390.92
539.065	31118.54
539.266	30485.72
539.466	30446.81
539.667	29684.97
539.868	29820.13
540.068	28959.98
540.269	28878.07
540.469	28703.99
540.67	28171.52
540.87	27780.35
541.071	27170.06
541.271	27180.3
541.472	26645.78
541.672	26731.79
541.873	26035.49
542.073	25537.83
542.274	25707.81
542.474	25496.87
542.675	24931.63
542.875	24896.81
543.075	24317.24
543.276	24376.63
543.476	24169.79
543.676	23414.09
543.877	23780.67
544.077	23227.72
544.277	22988.11
544.478	22646.1
544.678	22500.69
544.878	22054.23
545.078	22011.23
545.279	21298.53
545.479	21206.38
545.679	21065.07
545.879	21013.87
546.079	20749.68
546.28	20297.08
546.48	19963.26
546.68	20153.72
546.88	19811.71
547.08	19664.25
547.28	19393.92
547.48	18945.42
547.68	18967.95
547.88	18458
548.081	18601.36
548.281	18128.28
548.481	17663.39
548.681	17859.99
548.881	17487.26
549.081	17229.22
549.28	16911.78
549.48	16981.42
549.68	16346.55
549.88	16344.5
550.08	15920.57
550.28	16115.12
550.48	15855.03
550.68	15457.73
550.88	15371.71
551.08	15001.03
551.279	15103.43
551.479	14601.68
551.679	14450.13
551.879	14196.18
552.079	14038.48
552.278	13780.44
552.478	13682.14
552.678	13352.41
552.878	13385.18
553.077	13051.36
553.277	12588.52
553.477	12750.31
553.676	12281.33
553.876	12160.5
554.076	12168.69
554.275	11906.55
554.475	11595.26
554.674	11591.16
554.874	11529.72
555.074	11058.69
555.273	11052.55
555.473	10874.37
555.672	10612.23
555.872	10212.88
556.071	10444.3
556.271	10352.14
556.47	10075.66
556.67	9827.86
556.869	9602.58
557.068	9555.48
557.268	9225.76
557.467	9137.7
557.667	9317.92
557.866	8846.88
558.065	8820.26
558.265	8621.61
558.464	8394.28
558.663	8476.2
558.863	8117.81
559.062	7992.88
559.261	7812.66
559.461	7999.02
559.66	7593.53
559.859	7734.84
560.058	7384.63
560.258	7310.91
560.457	7284.28
560.656	7124.54
560.855	6813.25
561.054	6901.31
561.253	6719.04
561.453	6717
561.652	6567.49
561.851	6739.52
562.05	6340.17
562.249	6151.76
562.448	6315.59
562.647	6094.41
562.846	5983.82
563.045	5957.2
563.244	5633.62
563.443	5897.81
563.642	5594.71
563.841	5658.2
564.04	5371.48
564.239	5430.87
564.438	5316.19
564.637	5215.84
564.836	5037.66
565.035	5135.96
565.234	4968.03
565.432	4931.17
565.631	4849.25
565.83	4879.97
566.029	4746.85
566.228	4675.17
566.427	4798.05
566.625	4376.17
566.824	4415.08
567.023	4427.37
567.222	4181.61
567.42	4292.2
567.619	4269.67
567.818	4109.93
568.016	4236.91
568.215	4083.31
568.414	4050.54
568.612	3958.38
568.811	3917.42
569.01	3874.42
569.208	3616.37
569.407	3694.19
569.605	3612.28
569.804	3602.04
570.002	3583.6
570.201	3460.73
570.4	3497.59
570.598	3436.15
570.797	3434.1
570.995	3190.39
571.193	3202.68
571.392	3221.11
571.59	3147.39
571.789	3096.19
571.987	3083.9
572.186	3073.66
572.384	2901.63
572.582	2868.86
572.781	2889.34
572.979	2842.24
573.177	2791.04
573.376	2750.08
573.574	2793.09
573.772	2576
573.971	2629.25
574.169	2535.04
574.367	2676.35
574.565	2440.84
574.763	2463.37
574.962	2381.45
575.16	2371.21
575.358	2303.62
575.556	2270.86
575.754	2311.82
575.952	2227.85
576.151	2248.33
576.349	2139.79
576.547	2096.78
576.745	2055.82
576.943	2143.88
577.141	1994.38
577.339	1943.18
577.537	1969.8
577.735	1973.9
577.933	1951.37
578.131	1820.3
578.329	1932.94
578.527	1904.27
578.725	1853.07
578.923	1621.65
579.121	1697.42
579.319	1556.11
579.516	1715.86
579.714	1832.59
579.912	1676.95
580.11	1439.38
580.308	1676.95
580.506	1599.12
580.704	1390.23
580.901	1543.83
581.099	1609.36
581.297	1533.59
581.495	1621.65
581.692	1304.21
581.89	1496.72
582.088	1359.51
582.285	1377.94
582.483	1363.61
582.681	1357.46
582.878	1332.89
583.076	1336.98
583.274	1304.21
583.471	1406.61
583.669	1322.65
583.866	1171.1
584.064	1185.43
584.262	1222.3
584.459	1060.51
584.657	1138.33
584.854	1183.38
585.052	1101.47
585.249	1187.48
585.447	1054.36
585.644	1027.74
585.841	1179.29
586.039	1119.9
586.236	1150.62
586.434	997.02
586.631	878.24
586.828	949.92
587.026	968.35
587.223	870.05
587.42	974.49
587.618	984.73
587.815	966.3
588.012	865.95
588.21	915.1
588.407	937.63
588.604	956.06
588.801	843.42
588.999	861.85
589.196	896.67
589.393	800.41
589.59	941.72
589.787	851.61
589.984	824.99
590.182	816.8
590.379	806.56
590.576	829.09
590.773	759.46
590.97	724.64
591.167	861.85
591.364	818.85
591.561	720.54
591.758	919.2
591.955	835.23
592.152	671.39
592.349	773.79
592.546	687.78
592.743	835.23
592.94	847.52
593.137	800.41
593.334	884.38
593.531	925.34
593.727	790.17
593.924	749.22
594.121	712.35
594.318	790.17
594.515	755.36
594.712	915.1
594.908	794.27
595.105	775.84
595.302	755.36
595.499	827.04
595.696	908.96
595.892	816.8
596.089	949.92
596.286	724.64
596.482	1060.51
596.679	954.01
596.876	933.53
597.072	1021.6
597.269	970.4
597.466	1060.51
597.662	994.97
597.859	994.97
598.055	1023.64
598.252	1117.85
598.448	1146.52
598.645	1355.41
598.841	1300.12
599.038	1357.46
599.234	1472.15
599.431	1431.19
599.627	1492.63
599.824	1472.15
600.02	1509.01
600.217	1574.55
600.413	1719.95
600.609	1724.05
600.806	2037.39
601.002	1863.31
601.198	1699.47
601.395	2057.87
601.591	2086.54
601.787	2027.15
601.984	2172.55
602.18	2379.4
602.376	2315.91
602.572	2457.22
602.769	2713.22
602.965	2592.39
603.161	2793.09
603.357	2741.89
603.553	2875.01
603.75	2932.35
603.946	3061.37
604.142	3155.58
604.338	3284.6
604.534	3409.53
604.73	3491.45
604.926	3636.85
605.122	3831.41
605.318	3839.6
605.514	4079.21
605.71	3997.29
605.906	4390.5
606.102	4349.54
606.298	4607.59
606.494	4638.31
606.69	4900.45
606.886	4843.1
607.082	4871.78
607.278	5158.49
607.474	5381.72
607.67	5375.58
607.866	5533.27
608.062	5787.22
608.257	5748.31
608.453	6041.17
608.649	6166.09
608.845	6405.7
609.041	6567.49
609.236	6710.85
609.432	7054.91
609.628	7214.65
609.824	7331.39
610.019	7448.12
610.215	7665.21
610.411	7763.51
610.606	8349.23
610.802	8216.11
610.998	8437.29
611.193	8842.79
611.389	8846.88
611.584	9289.24
611.78	9313.82
611.976	9528.86
612.171	9924.12
612.367	10262.03
612.562	10620.42
612.758	10450.44
612.953	10823.17
613.149	11171.33
613.344	11503.1
613.539	11783.67
613.735	12080.63
613.93	12447.21
614.126	12707.3
614.321	13309.41
614.517	13620.7
614.712	13798.87
614.907	14138.83
615.103	14515.66
615.298	15001.03
615.493	15295.94
615.688	15467.97
615.884	16262.58
616.079	16383.41
616.274	16985.51
616.47	17096.1
616.665	17468.83
616.86	17853.85
617.055	18296.21
617.25	18812.3
617.445	19637.63
617.641	19539.33
617.836	20358.52
618.031	20465.01
618.226	21439.84
618.421	21960.03
618.616	22517.08
618.811	22635.86
619.006	23500.1
619.201	23455.04
619.396	24288.57
619.591	24534.32
619.786	25451.81
619.981	25601.32
620.176	26670.36
620.371	26750.23
620.566	27634.95
620.761	28019.97
620.956	28691.7
621.151	29150.45
621.346	29773.03
621.541	30133.47
621.735	31036.63
621.93	31427.79
622.125	32072.9
622.32	32376
622.515	33287.34
622.709	33631.4
622.904	34110.63
623.099	34669.72
623.294	35308.69
623.488	35484.81
623.683	36308.1
623.878	36674.68
624.072	37313.65
624.267	38194.28
624.462	39005.27
624.656	39504.98
624.851	40123.46
625.046	40397.89
625.24	40887.35
625.435	41174.07
625.629	42101.8
625.824	42603.55
626.018	43131.93
626.213	42859.55
626.407	43768.85
626.602	44219.4
626.796	45046.78
626.991	45448.18
627.185	45626.35
627.38	46246.89
627.574	46447.59
627.768	46150.63
627.963	46490.6
628.157	47066.08
628.352	47115.23
628.546	46588.9
628.74	47131.61
628.935	46701.54
629.129	47111.13
629.323	46689.25
629.517	46574.56
629.712	46275.56
629.906	46175.21
630.1	45104.12
630.294	45347.83
630.489	44563.46
630.683	44465.16
630.877	43183.13
631.071	42488.87
631.265	42282.02
631.459	41294.9
631.653	40385.6
631.848	39656.53
632.042	38480.99
632.236	38143.08
632.43	36379.78
632.624	36013.19
632.818	34753.69
633.012	33248.43
633.206	32701.62
633.4	31855.81
633.594	30403.8
633.788	29537.51
633.982	28673.27
634.176	27573.51
634.369	26606.87
634.563	25081.13
634.757	24173.88
634.951	23852.35
635.145	22854.99
635.339	22027.61
635.533	20946.28
635.726	20125.05
635.92	19320.2
636.114	18494.86
636.308	17882.52
636.501	16954.79
636.695	16311.73
636.889	15689.15
637.083	15144.39
637.276	14413.26
637.47	14003.67
637.664	13092.32
637.857	12719.59
638.051	12520.94
638.244	11711.99
638.438	11384.32
638.632	10976.77
638.825	10683.91
639.019	10075.66
639.212	9479.71
639.406	9362.97
639.599	8734.25
639.793	8541.74
639.986	8017.46
640.18	7921.2
640.373	7403.07
640.567	7214.65
640.76	7116.35
640.954	6635.08
641.147	6393.42
641.34	6162
641.534	6035.02
641.727	5914.19
641.92	5629.52
642.114	5422.68
642.307	5027.42
642.5	4943.46
642.694	4791.91
642.887	4492.9
643.08	4589.16
643.273	4327.02
643.467	4032.11
643.66	3858.03
643.853	3714.67
644.046	3561.08
644.239	3411.57
644.432	3415.67
644.626	3333.75
644.819	3038.84
645.012	2862.72
645.205	2909.82
645.398	2872.96
645.591	2633.35
645.784	2514.56
645.977	2307.72
646.17	2336.39
646.363	2227.85
646.556	2021
646.749	2031.24
646.942	2035.34
647.135	1980.04
647.328	1842.83
647.521	1883.79
647.714	1775.25
647.907	1730.19
648.099	1599.12
648.292	1689.23
648.485	1509.01
648.678	1365.65
648.871	1488.53
649.064	1353.37
649.256	1271.45
649.449	1193.62
649.642	1156.76
649.835	1191.58
650.027	1113.75
650.22	1181.34
650.413	1015.45
650.605	1003.16
650.798	941.72
650.991	898.72
651.183	833.18
651.376	857.76
651.568	968.35
651.761	706.21
651.954	759.46
652.146	820.89
652.339	824.99
652.531	859.81
652.724	591.52
652.916	607.91
653.109	607.91
653.301	747.17
653.494	706.21
653.686	685.73
653.879	753.31
654.071	642.72
654.263	501.41
654.456	544.42
654.648	525.99
654.84	509.6
655.033	429.73
655.225	568.99
655.417	341.67
655.61	605.86
655.802	513.7
655.994	464.55
656.186	378.53
656.379	419.49
656.571	378.53
656.763	390.82
656.955	427.68
657.148	435.88
657.34	462.5
657.532	347.81
657.724	347.81
657.916	368.29
658.108	468.64
658.3	435.88
658.492	368.29
658.684	229.03
658.876	407.2
659.068	341.67
659.26	202.41
659.452	196.26
659.644	272.04
659.836	374.44
660.028	255.65
660.22	327.33
660.412	296.61
660.604	259.75
660.796	337.57
660.988	362.15
661.18	181.93
661.372	321.19
661.563	310.95
661.755	349.86
661.947	130.73
662.139	241.32
662.331	222.89
662.522	243.37
662.714	163.5
662.906	157.35
663.097	179.88
663.289	206.5
663.481	116.39
663.673	235.18
663.864	204.46
664.056	255.65
664.247	169.64
664.439	272.04
664.631	212.65
664.822	257.7
665.014	149.16
665.205	149.16
665.397	153.26
665.588	237.22
665.78	196.26
665.971	263.85
666.163	102.06
666.354	286.37
666.546	186.02
666.737	104.11
666.929	143.02
667.12	157.35
667.311	247.46
667.503	204.46
667.694	194.22
667.885	194.22
668.077	198.31
668.268	161.45
668.459	161.45
668.651	190.12
668.842	222.89
669.033	204.46
669.224	69.29
669.416	437.92
669.607	136.87
669.798	95.91
669.989	267.94
670.18	214.7
670.371	214.7
670.563	3.75
670.754	226.98
670.945	237.22
671.136	186.02
671.327	163.5
671.518	220.84
671.709	272.04
671.9	292.52
672.091	192.17
672.282	167.59
672.473	140.97
672.664	100.01
672.855	163.5
673.046	171.69
673.237	261.8
673.428	253.61
673.619	253.61
673.809	220.84
674	210.6
674.191	190.12
674.382	120.49
674.573	149.16
674.764	241.32
674.954	337.57
675.145	97.96
675.336	167.59
675.527	214.7
675.717	153.26
675.908	216.74
676.099	100.01
676.289	239.27
676.48	134.82
676.671	188.07
676.861	208.55
677.052	173.74
677.243	77.48
677.433	140.97
677.624	247.46
677.814	226.98
678.005	145.06
678.195	376.48
678.386	136.87
678.576	220.84
678.767	163.5
678.957	188.07
679.148	269.99
679.338	278.18
679.529	251.56
679.719	222.89
679.909	306.85
680.1	296.61
680.29	345.77
680.481	179.88
680.671	288.42
680.861	315.05
681.052	288.42
681.242	192.17
681.432	325.29
681.622	220.84
681.813	235.18
682.003	259.75
682.193	165.54
682.383	190.12
682.573	216.74
682.764	241.32
682.954	274.09
683.144	327.33
683.334	239.27
683.524	284.33
683.714	282.28
683.904	280.23
684.094	196.26
684.284	206.5
684.474	380.58
684.664	310.95
684.854	245.41
685.044	239.27
685.234	247.46
685.424	196.26
685.614	173.74
685.804	294.57
685.994	226.98
686.184	317.09
686.374	255.65
686.564	286.37
686.753	220.84
686.943	145.06
687.133	226.98
687.323	325.29
687.513	237.22
687.702	351.91
687.892	290.47
688.082	310.95
688.272	380.58
688.461	341.67
688.651	358.05
688.841	310.95
689.03	265.89
689.22	278.18
689.41	278.18
689.599	339.62
689.789	171.69
689.979	429.73
690.168	284.33
690.358	304.81
690.547	241.32
690.737	315.05
690.926	233.13
691.116	306.85
691.305	347.81
691.495	358.05
691.684	169.64
691.874	245.41
692.063	255.65
692.252	304.81
692.442	308.9
692.631	237.22
692.82	253.61
693.01	229.03
693.199	231.08
693.388	261.8
693.578	231.08
693.767	272.04
693.956	290.47
694.146	179.88
694.335	335.53
694.524	186.02
694.713	374.44
694.902	177.83
695.092	196.26
695.281	304.81
695.47	216.74
695.659	196.26
695.848	255.65
696.037	149.16
696.226	313
696.415	261.8
696.604	208.55
696.793	302.76
696.982	292.52
697.171	349.86
697.36	186.02
697.549	188.07
697.738	118.44
697.927	216.74
698.116	128.68
698.305	288.42
698.494	276.13
698.683	214.7
698.872	351.91
699.061	233.13
699.25	169.64
699.438	245.41
699.627	171.69
699.816	390.82
700.005	147.11
700.193	188.07
700.382	241.32
700.571	231.08
700.76	253.61
700.948	241.32
701.137	304.81
701.326	261.8
701.514	143.02
701.703	319.14
701.892	253.61
702.08	403.11
702.269	245.41
702.457	186.02
702.646	249.51
702.834	147.11
703.023	239.27
703.212	263.85
703.4	235.18
703.589	212.65
703.777	183.98
703.965	220.84
704.154	202.41
704.342	81.58
704.531	186.02
704.719	231.08
704.907	226.98
705.096	124.58
705.284	85.67
705.472	218.79
705.661	261.8
705.849	284.33
706.037	337.57
706.226	247.46
706.414	308.9
706.602	149.16
706.79	179.88
706.979	218.79
707.167	296.61
707.355	112.3
707.543	263.85
707.731	181.93
707.919	210.6
708.107	171.69
708.296	153.26
708.484	159.4
708.672	315.05
708.86	167.59
709.048	136.87
709.236	196.26
709.424	208.55
709.612	224.94
709.8	102.06
709.988	194.22
710.176	253.61
710.364	331.43
710.551	157.35
710.739	255.65
710.927	226.98
711.115	153.26
711.303	370.34
711.491	280.23
711.679	140.97
711.866	261.8
712.054	175.78
712.242	224.94
712.43	321.19
712.617	243.37
712.805	269.99
712.993	220.84
713.181	116.39
713.368	226.98
713.556	210.6
713.744	198.31
713.931	466.6
714.119	329.38
714.306	220.84
714.494	188.07
714.682	206.5
714.869	89.77
715.057	231.08
715.244	192.17
715.432	235.18
715.619	153.26
715.807	153.26
715.994	245.41
716.182	224.94
716.369	290.47
716.556	339.62
716.744	153.26
716.931	224.94
717.119	169.64
717.306	247.46
717.493	319.14
717.681	200.36
717.868	263.85
718.055	239.27
718.242	214.7
718.43	249.51
718.617	251.56
718.804	226.98
718.991	222.89
719.179	310.95
719.366	298.66
719.553	290.47
719.74	245.41
719.927	222.89
720.114	243.37
720.301	175.78
720.488	196.26
720.676	206.5
720.863	362.15
721.05	454.31
721.237	341.67
721.424	251.56
721.611	237.22
721.798	181.93
721.985	181.93
722.172	267.94
722.358	267.94
722.545	378.53
722.732	288.42
722.919	343.72
723.106	278.18
723.293	204.46
723.48	263.85
723.667	179.88
723.853	343.72
724.04	229.03
724.227	423.59
724.414	278.18
724.6	394.92
724.787	358.05
724.974	372.39
725.161	198.31
725.347	171.69
725.534	298.66
725.72	257.7
725.907	333.48
726.094	317.09
726.28	265.89
726.467	151.21
726.653	167.59
726.84	243.37
727.027	448.16
727.213	190.12
727.4	274.09
727.586	347.81
727.773	249.51
727.959	286.37
728.145	278.18
728.332	239.27
728.518	241.32
728.705	321.19
728.891	353.96
729.077	267.94
729.264	222.89
729.45	241.32
729.636	323.24
729.823	175.78
730.009	263.85
730.195	343.72
730.382	421.54
730.568	171.69
730.754	321.19
730.94	233.13
731.126	333.48
731.313	319.14
731.499	300.71
731.685	372.39
731.871	304.81
732.057	231.08
732.243	372.39
732.429	384.68
732.615	353.96
732.801	315.05
732.987	237.22
733.173	274.09
733.359	245.41
733.545	243.37
733.731	173.74
733.917	380.58
734.103	296.61
734.289	292.52
734.475	239.27
734.661	435.88
734.847	313
735.033	255.65
735.219	310.95
735.404	290.47
735.59	245.41
735.776	288.42
735.962	286.37
736.148	382.63
736.333	376.48
736.519	278.18
736.705	294.57
736.89	300.71
737.076	296.61
737.262	226.98
737.447	261.8
737.633	206.5
737.819	421.54
738.004	226.98
738.19	302.76
738.375	366.25
738.561	349.86
738.747	249.51
738.932	231.08
739.118	421.54
739.303	323.24
739.489	290.47
739.674	177.83
739.859	163.5
740.045	310.95
740.23	282.28
740.416	132.78
740.601	251.56
740.786	282.28
740.972	204.46
741.157	235.18
741.342	261.8
741.528	200.36
741.713	325.29
741.898	241.32
742.084	196.26
742.269	321.19
742.454	259.75
742.639	319.14
742.824	214.7
743.01	345.77
743.195	380.58
743.38	286.37
743.565	304.81
743.75	251.56
743.935	272.04
744.12	280.23
744.305	157.35
744.49	231.08
744.675	253.61
744.86	233.13
745.045	368.29
745.23	300.71
745.415	333.48
745.6	362.15
745.785	226.98
745.97	284.33
746.155	245.41
746.34	300.71
746.525	313
746.71	304.81
746.895	155.3
747.079	192.17
747.264	229.03
747.449	399.01
747.634	327.33
747.819	269.99
748.003	206.5
748.188	149.16
748.373	206.5
748.557	208.55
748.742	186.02
748.927	208.55
749.111	231.08
749.296	206.5
749.481	292.52
749.665	263.85
749.85	226.98
750.034	274.09
750.219	118.44
750.404	198.31
750.588	214.7
750.773	224.94
750.957	177.83
751.141	229.03
751.326	321.19
751.51	175.78
751.695	171.69
751.879	171.69
752.064	323.24
752.248	175.78
752.432	298.66
752.617	325.29
752.801	233.13
752.985	183.98
753.17	220.84
753.354	231.08
753.538	198.31
753.722	59.05
753.907	155.3
754.091	93.87
754.275	245.41
754.459	26.28
754.643	59.05
754.828	218.79
755.012	288.42
755.196	91.82
755.38	216.74
755.564	95.91
755.748	167.59
755.932	220.84
756.116	192.17
756.3	282.28
756.484	190.12
756.668	233.13
756.852	38.57
757.036	165.54
757.22	181.93
757.404	130.73
757.588	132.78
757.772	224.94
757.956	91.82
758.14	288.42
758.323	79.53
758.507	198.31
758.691	138.92
758.875	190.12
759.059	265.89
759.242	138.92
759.426	132.78
759.61	167.59
759.794	138.92
759.977	140.97
760.161	376.48
760.345	263.85
760.528	247.46
760.712	163.5
760.895	245.41
761.079	153.26
761.263	81.58
761.446	1.71
761.63	130.73
761.813	253.61
761.997	38.57
762.18	110.25
762.364	183.98
762.547	-78.16
762.731	138.92
762.914	126.63
763.098	116.39
763.281	183.98
763.464	54.95
763.648	104.11
763.831	122.54
764.015	112.3
764.198	157.35
764.381	71.34
764.564	95.91
764.748	122.54
764.931	130.73
765.114	54.95
765.297	153.26
765.481	54.95
765.664	122.54
765.847	38.57
766.03	192.17
766.213	1.71
766.397	85.67
766.58	157.35
766.763	124.58
766.946	130.73
767.129	20.14
767.312	44.71
767.495	143.02
767.678	38.57
767.861	147.11
768.044	73.39
768.227	77.48
768.41	67.24
768.593	34.47
768.776	108.2
768.959	54.95
769.142	120.49
769.324	108.2
769.507	75.43
769.69	5.8
769.873	106.15
770.056	282.28
770.239	124.58
770.421	194.22
770.604	122.54
770.787	34.47
770.97	63.15
771.152	52.91
771.335	71.34
771.518	26.28
771.7	179.88
771.883	210.6
772.066	-18.77
772.248	124.58
772.431	192.17
772.613	116.39
772.796	87.72
772.978	102.06
773.161	218.79
773.343	61.1
773.526	95.91
773.708	-26.96
773.891	57
774.073	75.43
774.256	108.2
774.438	229.03
774.621	124.58
774.803	42.67
774.985	48.81
775.168	159.4
775.35	87.72
775.532	134.82
775.715	9.9
775.897	118.44
776.079	63.15
776.261	110.25
776.444	-0.34
776.626	73.39
776.808	87.72
776.99	-4.44
777.173	-16.73
777.355	61.1
777.537	95.91
777.719	26.28
777.901	-4.44
778.083	44.71
778.265	48.81
778.447	134.82
778.629	-55.64
778.811	63.15
778.993	102.06
779.175	73.39
779.357	95.91
779.539	-43.35
779.721	85.67
779.903	124.58
780.085	54.95
780.267	95.91
780.449	65.19
780.631	163.5
780.812	120.49
780.994	97.96
781.176	18.09
781.358	73.39
781.54	69.29
781.721	114.34
781.903	169.64
782.085	42.67
782.267	175.78
782.448	32.43
782.63	75.43
782.812	106.15
782.993	108.2
783.175	89.77
783.357	13.99
783.538	36.52
783.72	-4.44
783.901	57
784.083	85.67
784.264	153.26
784.446	-55.64
784.627	9.9
784.809	120.49
784.99	71.34
785.172	124.58
785.353	97.96
785.535	79.53
785.716	5.8
785.897	-10.58
786.079	16.04
786.26	24.23
786.441	83.63
786.623	-78.16
786.804	40.62
786.985	-0.34
787.167	147.11
787.348	-10.58
787.529	-20.82
787.71	171.69
787.891	52.91
788.073	-45.4
788.254	42.67
788.435	198.31
788.616	91.82
788.797	11.95
788.978	3.75
789.159	83.63
789.34	126.63
789.522	34.47
789.703	22.19
789.884	65.19
790.065	50.86
790.246	202.41
790.427	28.33
790.607	136.87
790.788	122.54
790.969	-67.92
791.15	-29.01
791.331	-31.06
791.512	65.19
791.693	-14.68
791.874	42.67
792.054	173.74
792.235	122.54
792.416	3.75
792.597	-31.06
792.778	118.44
792.958	42.67
793.139	-65.88
793.32	44.71
793.5	-39.25
793.681	75.43
793.862	85.67
794.042	59.05
794.223	38.57
794.404	13.99
794.584	-190.8
794.765	-55.64
794.945	20.14
795.126	69.29
795.306	122.54
795.487	26.28
795.667	24.23
795.848	65.19
796.028	1.71
796.209	52.91
796.389	97.96
796.57	-31.06
796.75	-33.11
796.93	-63.83
797.111	-16.73
797.291	-0.34
797.471	136.87
797.652	-72.02
797.832	-39.25
798.012	177.83
798.192	-31.06
798.373	-33.11
798.553	-41.3
798.733	97.96
798.913	7.85
799.093	28.33
799.274	54.95
799.454	77.48
799.634	69.29
799.814	7.85
799.994	52.91
800.174	38.57
800.354	-35.16
800.534	24.23
800.714	83.63
800.894	-26.96
801.074	-22.87
801.254	-29.01
801.434	167.59
801.614	-67.92
801.794	-61.78
801.974	1541.78
802.154	-63.83
802.334	102.06
802.514	-55.64
802.693	22.19
802.873	-24.92
803.053	208.55
803.233	44.71
803.413	-37.2
803.592	-59.73
803.772	-67.92
803.952	42.67
804.131	-53.59
804.311	69.29
804.491	97.96
804.67	46.76
804.85	-20.82
805.03	-2.39
805.209	79.53
805.389	9.9
805.568	-22.87
805.748	67.24
805.928	93.87
806.107	91.82
806.287	11.95
806.466	61.1
806.646	-24.92
806.825	34.47
807.004	-22.87
807.184	-6.49
807.363	28.33
807.543	38.57
807.722	-41.3
807.901	136.87
808.081	50.86
808.26	-170.32
808.439	28.33
808.619	-37.2
808.798	-14.68
808.977	-22.87
809.156	124.58
809.336	-76.12
809.515	38.57
809.694	-51.54
809.873	-51.54
810.052	-22.87
810.231	124.58
810.411	65.19
810.59	85.67
810.769	13.99
810.948	173.74
811.127	-74.07
811.306	-22.87
811.485	-6.49
811.664	116.39
811.843	26.28
812.022	18.09
812.201	18.09
812.38	-47.44
812.559	-24.92
812.737	28.33
812.916	-31.06
813.095	-39.25
813.274	52.91
813.453	42.67
813.632	28.33
813.811	91.82
813.989	-72.02
814.168	59.05
814.347	-20.82
814.526	-65.88
814.704	91.82
814.883	52.91
815.062	-6.49
815.24	-39.25
815.419	-72.02
815.598	20.14
815.776	-104.79
815.955	63.15
816.133	-67.92
816.312	13.99
816.49	-0.34
816.669	59.05
816.847	9.9
817.026	5.8
817.204	-20.82
817.383	46.76
817.561	-80.21
817.74	89.77
817.918	77.48
818.097	-41.3
818.275	-94.55
818.453	-0.34
818.632	104.11
818.81	13.99
818.988	-39.25
819.167	1.71
819.345	114.34
819.523	36.52
819.701	-8.53
819.879	5.8
820.058	-8.53
820.236	50.86
820.414	-18.77
820.592	-4.44
820.77	-92.5
820.948	-47.44
821.127	59.05
821.305	-18.77
821.483	-76.12
821.661	110.25
821.839	44.71
822.017	-43.35
822.195	-72.02
822.373	3.75
822.551	30.38
822.729	40.62
822.907	26.28
823.085	106.15
823.262	-31.06
823.44	18.09
823.618	5.8
823.796	42.67
823.974	18.09
824.152	-57.68
824.329	20.14
824.507	20.14
824.685	77.48
824.863	-26.96
825.04	-10.58
825.218	93.87
825.396	32.43
825.574	46.76
825.751	59.05
825.929	-14.68
826.107	-0.34
826.284	13.99
826.462	59.05
826.639	-41.3
826.817	-65.88
826.994	-0.34
827.172	-26.96
827.349	149.16
827.527	-98.64
827.704	54.95
827.882	50.86
828.059	22.19
828.237	54.95
828.414	36.52
828.591	-123.22
828.769	48.81
828.946	-84.31
829.124	106.15
829.301	181.93
829.478	16.04
829.655	1.71
829.833	11.95
830.01	-100.69
830.187	13.99
830.364	-18.77
830.542	18.09
830.719	104.11
830.896	59.05
831.073	52.91
831.25	3.75
831.427	65.19
831.604	13.99
831.782	-51.54
831.959	114.34
832.136	-47.44
832.313	57
832.49	-69.97
832.667	-22.87
832.844	-10.58
833.021	91.82
833.198	3.75
833.374	89.77
833.551	-14.68
833.728	-2.39
833.905	18.09
834.082	-86.36
834.259	20.14
834.436	83.63
834.612	11.95
834.789	52.91
834.966	11.95
835.143	-0.34
835.319	-110.93
835.496	73.39
835.673	63.15
835.85	85.67
836.026	13.99
836.203	42.67
836.38	11.95
836.556	32.43
836.733	-59.73
836.909	130.73
837.086	32.43
837.262	-129.36
837.439	-24.92
837.616	7.85
837.792	11.95
837.968	34.47
838.145	-65.88
838.321	-57.68
838.498	38.57
838.674	44.71
838.851	28.33
839.027	-20.82
839.203	-10.58
839.38	65.19
839.556	24.23
839.732	112.3
839.909	-76.12
840.085	-12.63
840.261	-29.01
840.437	-26.96
840.614	-10.58
840.79	42.67
840.966	44.71
841.142	7.85
841.318	-29.01
841.494	48.81
841.671	44.71
841.847	-67.92
842.023	-82.26
842.199	87.72
842.375	165.54
842.551	-74.07
842.727	-92.5
842.903	63.15
843.079	-137.56
843.255	143.02
843.431	1.71
843.607	104.11
843.783	-108.88
843.959	38.57
844.134	-20.82
844.31	118.44
844.486	-18.77
844.662	-53.59
844.838	42.67
845.013	48.81
845.189	30.38
845.365	85.67
845.541	-33.11
845.716	3.75
845.892	30.38
846.068	-33.11
846.244	-49.49
846.419	32.43
846.595	-65.88
846.77	20.14
846.946	40.62
847.122	-78.16
847.297	-67.92
847.473	167.59
847.648	-57.68
847.824	34.47
847.999	-129.36
848.175	11.95
848.35	138.92
848.526	89.77
848.701	87.72
848.876	59.05
849.052	110.25
849.227	11.95
849.403	-35.16
849.578	9.9
849.753	18.09
849.929	79.53
850.104	-59.73
850.279	46.76
850.454	48.81
850.63	112.3
850.805	-35.16
850.98	11.95
851.155	9.9
851.33	16.04
851.505	22.19
851.681	153.26
851.856	30.38
852.031	57
852.206	-14.68
852.381	-24.92
852.556	26.28
852.731	38.57
852.906	100.01
853.081	-24.92
853.256	91.82
853.431	-12.63
853.606	-39.25
853.781	9.9
853.956	-80.21
854.131	61.1
854.305	-100.69
854.48	-12.63
854.655	-74.07
854.83	-59.73
855.005	1.71
855.18	-6.49
855.354	59.05
855.529	-61.78
855.704	-18.77
855.879	26.28
856.053	-37.2
856.228	22.19
856.403	-94.55
856.577	-22.87
856.752	-84.31
856.926	-29.01
857.101	-18.77
857.276	-76.12
857.45	-6.49
857.625	57
857.799	57
857.974	3.75
858.148	-104.79
858.323	-41.3
858.497	-10.58
858.672	48.81
858.846	-55.64
859.02	59.05
859.195	-22.87
859.369	24.23
859.543	-35.16
859.718	22.19
859.892	22.19
860.066	79.53
860.241	-39.25
860.415	-24.92
860.589	-65.88
860.763	-12.63
860.938	-33.11
861.112	57
861.286	-6.49
861.46	112.3
861.634	28.33
861.808	-53.59
861.982	-94.55
862.157	-123.22
862.331	-35.16
862.505	-65.88
862.679	-51.54
862.853	-31.06
863.027	65.19
863.201	130.73
863.375	-61.78
863.549	7.85
863.722	-4.44
863.896	116.39
864.07	-117.08
864.244	-14.68
864.418	13.99
864.592	-104.79
864.766	-49.49
864.939	3.75
865.113	-88.4
865.287	67.24
865.461	3.75
865.634	65.19
865.808	20.14
865.982	26.28
866.156	-31.06
866.329	-18.77
866.503	34.47
866.676	63.15
866.85	36.52
867.024	9.9
867.197	91.82
867.371	97.96
867.544	40.62
867.718	-18.77
867.891	93.87
868.065	-14.68
868.238	-10.58
868.412	112.3
868.585	28.33
868.759	-39.25
868.932	30.38
869.105	-41.3
869.279	30.38
869.452	-98.64
869.625	57
869.799	22.19
869.972	-145.75
870.145	-35.16
870.319	95.91
870.492	-20.82
870.665	50.86
870.838	3.75
871.011	-76.12
871.185	42.67
871.358	-65.88
871.531	-12.63
871.704	-12.63
871.877	7.85
872.05	-26.96
872.223	-22.87
872.396	52.91
872.569	7.85
872.742	-86.36
872.915	89.77
873.088	91.82
873.261	-8.53
873.434	-16.73
873.607	-55.64
873.78	102.06
873.953	-61.78
874.126	-31.06
874.299	48.81
874.471	-90.45
874.644	-26.96
874.817	36.52
874.99	157.35
875.163	-78.16
875.335	57
875.508	3.75
875.681	50.86
875.853	-12.63
876.026	7.85
876.199	26.28
876.371	52.91
876.544	26.28
876.717	54.95
876.889	-59.73
877.062	65.19
877.234	-61.78
877.407	-26.96
877.579	-2.39
877.752	104.11
877.924	67.24
878.097	36.52
878.269	20.14
878.442	9.9
878.614	5.8
878.786	57
878.959	22.19
879.131	9.9
879.303	-211.28
879.476	5.8
879.648	75.43
879.82	-14.68
879.993	-6.49
880.165	-29.01
880.337	-61.78
880.509	44.71
880.681	-100.69
880.854	-59.73
881.026	52.91
881.198	167.59
881.37	-0.34
881.542	-53.59
881.714	-31.06
881.886	-61.78
882.058	63.15
882.23	48.81
882.402	-18.77
882.574	36.52
882.746	59.05
882.918	100.01
883.09	108.2
883.262	-47.44
883.434	30.38
883.606	-49.49
883.778	-12.63
883.95	208.55
884.122	-33.11
884.293	7.85
884.465	-4.44
884.637	20.14
884.809	-92.5
884.98	1.71
885.152	36.52
885.324	61.1
885.496	-57.68
885.667	36.52
885.839	1.71
886.011	124.58
886.182	-6.49
886.354	75.43
886.525	18.09
886.697	-8.53
886.869	-51.54
887.04	-10.58
887.212	161.45
887.383	136.87
887.555	-33.11
887.726	-88.4
887.897	36.52
888.069	16.04
888.24	65.19
888.412	-31.06
888.583	-2.39
888.754	-31.06
888.926	-92.5
889.097	-4.44
889.268	-102.74
889.44	81.58
889.611	-2.39
889.782	-90.45
889.953	-69.97
890.125	130.73
890.296	-12.63
890.467	-53.59
890.638	-24.92
890.809	-41.3
890.98	9.9
891.151	50.86
891.323	57
891.494	1.71
891.665	-37.2
891.836	38.57
892.007	91.82
892.178	52.91
892.349	-55.64
892.52	-78.16
892.691	-108.88
892.862	-39.25
893.032	-92.5
893.203	30.38
893.374	50.86
893.545	59.05
893.716	-26.96
893.887	46.76
894.057	-55.64
894.228	-104.79
894.399	-78.16
894.57	120.49
894.74	-65.88
894.911	44.71
895.082	-51.54
895.253	-10.58
895.423	-24.92
895.594	-31.06
895.764	61.1
895.935	-37.2
896.106	18.09
896.276	-104.79
896.447	-49.49
896.617	-39.25
896.788	54.95
896.958	9.9
897.129	-43.35
897.299	-69.97
897.47	134.82
897.64	-8.53
897.81	59.05
897.981	30.38
898.151	-49.49
898.322	-0.34
898.492	93.87
898.662	-96.6
898.832	-47.44
899.003	-4.44
899.173	46.76
899.343	-51.54
899.513	-84.31
