Data from USB4F104151__277__11-20-51-730.txt Node

Date: Wed Feb 26 11:20:51 EST 2025
User: louis
Spectrometer: USB4F10415
Trigger mode: 4
Integration Time (sec): 1.000000E-1
Scans to average: 1
Electric dark correction enabled: true
Nonlinearity correction enabled: false
Boxcar width: 0
XAxis mode: Wavelengths
Number of Pixels in Spectrum: 3648
>>>>>Begin Spectral Data<<<<<
178.204	-405.84
178.424	-405.84
178.644	-405.84
178.864	-424.27
179.084	-323.92
179.304	93.87
179.524	83.63
179.744	-24.92
179.964	11.95
180.184	50.86
180.404	-26.96
180.624	-92.5
180.844	-29.01
181.064	-90.45
181.283	52.91
181.503	3.75
181.723	-33.11
181.943	-123.22
182.163	140.97
182.383	-8.53
182.602	57
182.822	151.21
183.042	46.76
183.262	-43.35
183.482	-12.63
183.701	-45.4
183.921	36.52
184.141	30.38
184.361	95.91
184.58	36.52
184.8	44.71
185.02	-0.34
185.239	106.15
185.459	59.05
185.679	108.2
185.898	-76.12
186.118	110.25
186.338	77.48
186.557	44.71
186.777	13.99
186.997	32.43
187.216	20.14
187.436	167.59
187.655	120.49
187.875	77.48
188.095	81.58
188.314	75.43
188.534	114.34
188.753	-69.97
188.973	97.96
189.192	93.87
189.412	-35.16
189.631	40.62
189.851	30.38
190.07	171.69
190.29	34.47
190.509	-10.58
190.729	9.9
190.948	89.77
191.168	247.46
191.387	87.72
191.607	32.43
191.826	40.62
192.045	22.19
192.265	24.23
192.484	130.73
192.704	-0.34
192.923	-72.02
193.142	190.12
193.362	34.47
193.581	75.43
193.8	50.86
194.02	112.3
194.239	73.39
194.458	63.15
194.678	-2.39
194.897	59.05
195.116	77.48
195.335	36.52
195.555	26.28
195.774	-29.01
195.993	122.54
196.212	20.14
196.432	13.99
196.651	9.9
196.87	46.76
197.089	218.79
197.308	18.09
197.528	34.47
197.747	-102.74
197.966	77.48
198.185	108.2
198.404	-20.82
198.623	81.58
198.842	36.52
199.062	124.58
199.281	112.3
199.5	11.95
199.719	69.29
199.938	81.58
200.157	52.91
200.376	102.06
200.595	87.72
200.814	22.19
201.033	-45.4
201.252	93.87
201.471	93.87
201.69	50.86
201.909	-6.49
202.128	136.87
202.347	30.38
202.566	18.09
202.785	-37.2
203.004	11.95
203.223	263.85
203.442	110.25
203.661	-4.44
203.879	175.78
204.098	130.73
204.317	-29.01
204.536	71.34
204.755	22.19
204.974	116.39
205.193	-51.54
205.411	200.36
205.63	179.88
205.849	97.96
206.068	59.05
206.287	-33.11
206.505	69.29
206.724	-47.44
206.943	1.71
207.162	-37.2
207.381	140.97
207.599	93.87
207.818	69.29
208.037	-59.73
208.255	40.62
208.474	75.43
208.693	7.85
208.911	-4.44
209.13	87.72
209.349	-20.82
209.567	26.28
209.786	95.91
210.005	73.39
210.223	-6.49
210.442	-172.37
210.661	18.09
210.879	106.15
211.098	16.04
211.316	26.28
211.535	192.17
211.753	30.38
211.972	114.34
212.191	44.71
212.409	26.28
212.628	87.72
212.846	57
213.065	52.91
213.283	69.29
213.502	54.95
213.72	63.15
213.938	7.85
214.157	-29.01
214.375	116.39
214.594	48.81
214.812	40.62
215.031	42.67
215.249	16.04
215.467	40.62
215.686	-33.11
215.904	50.86
216.122	7.85
216.341	104.11
216.559	59.05
216.778	1.71
216.996	198.31
217.214	11.95
217.432	-51.54
217.651	-96.6
217.869	24.23
218.087	54.95
218.306	44.71
218.524	-18.77
218.742	57
218.96	57
219.179	-14.68
219.397	-35.16
219.615	235.18
219.833	118.44
220.051	-14.68
220.27	24.23
220.488	89.77
220.706	44.71
220.924	50.86
221.142	28.33
221.36	18.09
221.578	89.77
221.796	30.38
222.015	77.48
222.233	20.14
222.451	120.49
222.669	-31.06
222.887	67.24
223.105	-20.82
223.323	13.99
223.541	-53.59
223.759	-16.73
223.977	110.25
224.195	93.87
224.413	75.43
224.631	50.86
224.849	204.46
225.067	163.5
225.285	71.34
225.503	57
225.721	-29.01
225.939	89.77
226.157	32.43
226.375	235.18
226.592	54.95
226.81	-35.16
227.028	40.62
227.246	140.97
227.464	54.95
227.682	179.88
227.9	38.57
228.117	18.09
228.335	73.39
228.553	36.52
228.771	67.24
228.989	65.19
229.206	69.29
229.424	-67.92
229.642	9.9
229.86	-8.53
230.077	200.36
230.295	48.81
230.513	159.4
230.731	106.15
230.948	54.95
231.166	143.02
231.384	9.9
231.601	-14.68
231.819	155.3
232.037	67.24
232.254	-24.92
232.472	-20.82
232.689	38.57
232.907	100.01
233.125	24.23
233.342	-41.3
233.56	-16.73
233.777	26.28
233.995	22.19
234.213	226.98
234.43	116.39
234.648	48.81
234.865	30.38
235.083	63.15
235.3	93.87
235.518	104.11
235.735	104.11
235.953	120.49
236.17	5.8
236.388	44.71
236.605	34.47
236.822	93.87
237.04	143.02
237.257	77.48
237.475	-65.88
237.692	32.43
237.909	79.53
238.127	24.23
238.344	116.39
238.562	34.47
238.779	-31.06
238.996	-55.64
239.214	100.01
239.431	91.82
239.648	-37.2
239.865	122.54
240.083	102.06
240.3	-61.78
240.517	-82.26
240.735	-0.34
240.952	102.06
241.169	18.09
241.386	-2.39
241.603	-4.44
241.821	-63.83
242.038	118.44
242.255	34.47
242.472	9.9
242.689	40.62
242.907	63.15
243.124	1.71
243.341	9.9
243.558	-6.49
243.775	-31.06
243.992	3.75
244.209	126.63
244.426	177.83
244.643	44.71
244.86	42.67
245.078	77.48
245.295	13.99
245.512	-8.53
245.729	61.1
245.946	147.11
246.163	157.35
246.38	32.43
246.597	106.15
246.814	34.47
247.031	-22.87
247.248	-0.34
247.464	122.54
247.681	22.19
247.898	26.28
248.115	100.01
248.332	-29.01
248.549	93.87
248.766	212.65
248.983	104.11
249.2	110.25
249.417	132.78
249.633	24.23
249.85	40.62
250.067	48.81
250.284	102.06
250.501	61.1
250.717	65.19
250.934	-10.58
251.151	71.34
251.368	-4.44
251.585	22.19
251.801	40.62
252.018	-37.2
252.235	177.83
252.451	-6.49
252.668	16.04
252.885	108.2
253.102	54.95
253.318	-22.87
253.535	-29.01
253.752	-18.77
253.968	26.28
254.185	-63.83
254.401	79.53
254.618	97.96
254.835	-82.26
255.051	89.77
255.268	52.91
255.484	73.39
255.701	-6.49
255.917	79.53
256.134	-22.87
256.351	67.24
256.567	13.99
256.784	44.71
257	-63.83
257.217	169.64
257.433	32.43
257.65	-12.63
257.866	149.16
258.082	-67.92
258.299	22.19
258.515	61.1
258.732	28.33
258.948	-8.53
259.165	71.34
259.381	-12.63
259.597	36.52
259.814	63.15
260.03	52.91
260.246	-14.68
260.463	140.97
260.679	122.54
260.895	3.75
261.112	36.52
261.328	32.43
261.544	-20.82
261.761	159.4
261.977	13.99
262.193	-57.68
262.409	104.11
262.626	59.05
262.842	100.01
263.058	-33.11
263.274	126.63
263.49	159.4
263.707	22.19
263.923	97.96
264.139	-35.16
264.355	81.58
264.571	65.19
264.787	1.71
265.004	116.39
265.22	69.29
265.436	-4.44
265.652	22.19
265.868	36.52
266.084	-53.59
266.3	7.85
266.516	-41.3
266.732	118.44
266.948	65.19
267.164	46.76
267.38	126.63
267.596	95.91
267.812	120.49
268.028	73.39
268.244	-6.49
268.46	69.29
268.676	38.57
268.892	114.34
269.108	-33.11
269.324	-37.2
269.54	61.1
269.756	104.11
269.972	-0.34
270.188	28.33
270.403	-20.82
270.619	28.33
270.835	79.53
271.051	28.33
271.267	3.75
271.483	9.9
271.698	81.58
271.914	75.43
272.13	-6.49
272.346	-10.58
272.562	52.91
272.777	163.5
272.993	18.09
273.209	18.09
273.425	104.11
273.64	-57.68
273.856	106.15
274.072	52.91
274.287	-33.11
274.503	120.49
274.719	102.06
274.934	28.33
275.15	-55.64
275.366	69.29
275.581	40.62
275.797	-33.11
276.012	-0.34
276.228	59.05
276.444	57
276.659	161.45
276.875	24.23
277.09	-31.06
277.306	7.85
277.521	73.39
277.737	40.62
277.952	36.52
278.168	7.85
278.383	71.34
278.599	40.62
278.814	79.53
279.03	28.33
279.245	95.91
279.461	52.91
279.676	77.48
279.892	-65.88
280.107	-49.49
280.322	-16.73
280.538	138.92
280.753	13.99
280.969	108.2
281.184	20.14
281.399	100.01
281.615	-69.97
281.83	134.82
282.045	-37.2
282.26	-37.2
282.476	69.29
282.691	122.54
282.906	114.34
283.122	57
283.337	-51.54
283.552	63.15
283.767	42.67
283.983	106.15
284.198	11.95
284.413	106.15
284.628	-76.12
284.843	124.58
285.058	61.1
285.274	-45.4
285.489	11.95
285.704	54.95
285.919	9.9
286.134	7.85
286.349	81.58
286.564	24.23
286.779	108.2
286.995	3.75
287.21	-67.92
287.425	7.85
287.64	-18.77
287.855	36.52
288.07	-94.55
288.285	132.78
288.5	149.16
288.715	34.47
288.93	28.33
289.145	-20.82
289.36	85.67
289.575	79.53
289.79	155.3
290.004	-57.68
290.219	83.63
290.434	-47.44
290.649	1.71
290.864	-14.68
291.079	52.91
291.294	40.62
291.509	36.52
291.724	22.19
291.938	36.52
292.153	67.24
292.368	1.71
292.583	54.95
292.798	102.06
293.012	161.45
293.227	42.67
293.442	-18.77
293.657	95.91
293.871	181.93
294.086	65.19
294.301	130.73
294.516	147.11
294.73	59.05
294.945	-33.11
295.16	87.72
295.374	85.67
295.589	130.73
295.804	-65.88
296.018	40.62
296.233	136.87
296.447	18.09
296.662	-35.16
296.877	122.54
297.091	145.06
297.306	42.67
297.52	-0.34
297.735	97.96
297.949	65.19
298.164	9.9
298.378	100.01
298.593	-24.92
298.807	-24.92
299.022	73.39
299.236	183.98
299.451	77.48
299.665	-20.82
299.88	9.9
300.094	65.19
300.309	65.19
300.523	1.71
300.737	28.33
300.952	75.43
301.166	63.15
301.381	-43.35
301.595	5.8
301.809	52.91
302.024	16.04
302.238	48.81
302.452	167.59
302.667	-49.49
302.881	108.2
303.095	102.06
303.309	9.9
303.524	-57.68
303.738	-12.63
303.952	13.99
304.166	13.99
304.381	-47.44
304.595	112.3
304.809	36.52
305.023	116.39
305.237	-24.92
305.452	26.28
305.666	100.01
305.88	61.1
306.094	130.73
306.308	67.24
306.522	52.91
306.736	59.05
306.95	157.35
307.164	11.95
307.379	-4.44
307.593	169.64
307.807	175.78
308.021	79.53
308.235	89.77
308.449	-51.54
308.663	3.75
308.877	247.46
309.091	57
309.305	50.86
309.519	-158.03
309.733	106.15
309.947	-78.16
310.161	102.06
310.374	89.77
310.588	77.48
310.802	13.99
311.016	-12.63
311.23	93.87
311.444	-0.34
311.658	85.67
311.872	155.3
312.085	122.54
312.299	163.5
312.513	97.96
312.727	50.86
312.941	20.14
313.154	118.44
313.368	75.43
313.582	-14.68
313.796	57
314.009	-12.63
314.223	153.26
314.437	73.39
314.651	112.3
314.864	28.33
315.078	-0.34
315.292	-61.78
315.505	54.95
315.719	59.05
315.933	91.82
316.146	5.8
316.36	5.8
316.573	116.39
316.787	95.91
317.001	153.26
317.214	-59.73
317.428	-10.58
317.641	28.33
317.855	83.63
318.068	48.81
318.282	26.28
318.495	183.98
318.709	18.09
318.922	-4.44
319.136	81.58
319.349	128.68
319.563	54.95
319.776	108.2
319.99	-55.64
320.203	83.63
320.417	61.1
320.63	77.48
320.843	163.5
321.057	95.91
321.27	3.75
321.483	16.04
321.697	208.55
321.91	52.91
322.124	36.52
322.337	63.15
322.55	-24.92
322.763	114.34
322.977	-6.49
323.19	-12.63
323.403	-6.49
323.617	69.29
323.83	87.72
324.043	42.67
324.256	65.19
324.469	-115.03
324.683	65.19
324.896	38.57
325.109	44.71
325.322	-61.78
325.535	112.3
325.748	167.59
325.962	13.99
326.175	93.87
326.388	100.01
326.601	71.34
326.814	-39.25
327.027	3.75
327.24	50.86
327.453	-145.75
327.666	69.29
327.879	169.64
328.092	122.54
328.305	112.3
328.518	-22.87
328.731	-41.3
328.944	20.14
329.157	95.91
329.37	65.19
329.583	171.69
329.796	130.73
330.009	-65.88
330.222	102.06
330.435	102.06
330.648	-20.82
330.861	44.71
331.073	77.48
331.286	63.15
331.499	42.67
331.712	-90.45
331.925	44.71
332.138	22.19
332.35	110.25
332.563	18.09
332.776	177.83
332.989	-41.3
333.202	1.71
333.414	83.63
333.627	42.67
333.84	-0.34
334.053	50.86
334.265	-20.82
334.478	-18.77
334.691	108.2
334.903	100.01
335.116	-6.49
335.329	50.86
335.541	81.58
335.754	145.06
335.966	11.95
336.179	24.23
336.392	28.33
336.604	61.1
336.817	32.43
337.029	34.47
337.242	16.04
337.454	44.71
337.667	-53.59
337.88	128.68
338.092	48.81
338.305	114.34
338.517	5.8
338.729	87.72
338.942	114.34
339.154	-76.12
339.367	-143.7
339.579	106.15
339.792	-31.06
340.004	50.86
340.217	57
340.429	-18.77
340.641	83.63
340.854	32.43
341.066	-20.82
341.278	165.54
341.491	161.45
341.703	75.43
341.915	-20.82
342.128	11.95
342.34	42.67
342.552	-0.34
342.764	16.04
342.977	13.99
343.189	104.11
343.401	147.11
343.613	-29.01
343.826	28.33
344.038	61.1
344.25	46.76
344.462	22.19
344.674	5.8
344.886	-0.34
345.099	118.44
345.311	89.77
345.523	-6.49
345.735	-84.31
345.947	-6.49
346.159	95.91
346.371	18.09
346.583	3.75
346.795	202.41
347.007	9.9
347.219	122.54
347.431	67.24
347.643	122.54
347.855	42.67
348.067	77.48
348.279	-65.88
348.491	91.82
348.703	97.96
348.915	-12.63
349.127	11.95
349.339	38.57
349.551	32.43
349.763	118.44
349.975	46.76
350.187	59.05
350.399	130.73
350.61	67.24
350.822	-16.73
351.034	106.15
351.246	93.87
351.458	77.48
351.669	102.06
351.881	81.58
352.093	57
352.305	130.73
352.517	87.72
352.728	75.43
352.94	69.29
353.152	30.38
353.363	-12.63
353.575	89.77
353.787	177.83
353.999	57
354.21	140.97
354.422	-63.83
354.633	7.85
354.845	42.67
355.057	-45.4
355.268	3.75
355.48	95.91
355.692	-12.63
355.903	85.67
356.115	-84.31
356.326	-67.92
356.538	190.12
356.749	77.48
356.961	159.4
357.172	44.71
357.384	9.9
357.595	255.65
357.807	-20.82
358.018	-41.3
358.23	73.39
358.441	118.44
358.653	106.15
358.864	9.9
359.075	-98.64
359.287	-26.96
359.498	79.53
359.709	110.25
359.921	3.75
360.132	46.76
360.344	-41.3
360.555	-63.83
360.766	18.09
360.977	40.62
361.189	126.63
361.4	20.14
361.611	163.5
361.823	83.63
362.034	26.28
362.245	-45.4
362.456	-53.59
362.667	50.86
362.879	-33.11
363.09	61.1
363.301	61.1
363.512	118.44
363.723	-74.07
363.935	44.71
364.146	91.82
364.357	69.29
364.568	75.43
364.779	-18.77
364.99	108.2
365.201	-74.07
365.412	165.54
365.623	-0.34
365.834	89.77
366.045	13.99
366.256	110.25
366.467	13.99
366.678	30.38
366.889	5.8
367.1	-51.54
367.311	85.67
367.522	-24.92
367.733	81.58
367.944	67.24
368.155	-43.35
368.366	16.04
368.577	118.44
368.788	77.48
368.999	-51.54
369.209	5.8
369.42	194.22
369.631	233.13
369.842	16.04
370.053	22.19
370.264	38.57
370.474	-45.4
370.685	57
370.896	75.43
371.107	120.49
371.317	-4.44
371.528	85.67
371.739	165.54
371.95	63.15
372.16	24.23
372.371	-2.39
372.582	-0.34
372.792	77.48
373.003	5.8
373.214	83.63
373.424	77.48
373.635	-45.4
373.846	120.49
374.056	36.52
374.267	126.63
374.477	11.95
374.688	-49.49
374.898	67.24
375.109	1.71
375.319	32.43
375.53	100.01
375.74	134.82
375.951	7.85
376.161	147.11
376.372	93.87
376.582	3.75
376.793	16.04
377.003	44.71
377.214	-45.4
377.424	85.67
377.635	73.39
377.845	32.43
378.055	122.54
378.266	-72.02
378.476	75.43
378.686	79.53
378.897	26.28
379.107	128.68
379.317	65.19
379.528	-24.92
379.738	171.69
379.948	-98.64
380.158	16.04
380.369	34.47
380.579	114.34
380.789	63.15
380.999	110.25
381.21	16.04
381.42	138.92
381.63	83.63
381.84	97.96
382.05	83.63
382.261	81.58
382.471	130.73
382.681	-6.49
382.891	208.55
383.101	52.91
383.311	-26.96
383.521	-2.39
383.731	122.54
383.941	118.44
384.151	-53.59
384.361	48.81
384.571	28.33
384.781	26.28
384.991	169.64
385.201	194.22
385.411	83.63
385.621	155.3
385.831	32.43
386.041	-57.68
386.251	44.71
386.461	128.68
386.671	11.95
386.881	46.76
387.091	-8.53
387.301	71.34
387.511	163.5
387.72	87.72
387.93	89.77
388.14	-90.45
388.35	120.49
388.56	145.06
388.769	95.91
388.979	-45.4
389.189	-22.87
389.399	36.52
389.609	116.39
389.818	128.68
390.028	83.63
390.238	32.43
390.447	-24.92
390.657	87.72
390.867	93.87
391.076	-86.36
391.286	106.15
391.496	-6.49
391.705	42.67
391.915	179.88
392.125	132.78
392.334	-37.2
392.544	147.11
392.753	26.28
392.963	9.9
393.172	46.76
393.382	-12.63
393.591	171.69
393.801	24.23
394.01	194.22
394.22	81.58
394.429	91.82
394.639	63.15
394.848	48.81
395.058	36.52
395.267	5.8
395.477	87.72
395.686	57
395.895	114.34
396.105	214.7
396.314	50.86
396.524	38.57
396.733	-10.58
396.942	194.22
397.152	102.06
397.361	52.91
397.57	63.15
397.78	13.99
397.989	100.01
398.198	192.17
398.407	77.48
398.617	54.95
398.826	46.76
399.035	-41.3
399.244	67.24
399.453	65.19
399.663	18.09
399.872	67.24
400.081	-35.16
400.29	177.83
400.499	-43.35
400.708	100.01
400.917	-6.49
401.127	36.52
401.336	-51.54
401.545	163.5
401.754	87.72
401.963	91.82
402.172	-39.25
402.381	-6.49
402.59	67.24
402.799	-18.77
403.008	97.96
403.217	9.9
403.426	79.53
403.635	-47.44
403.844	7.85
404.053	-35.16
404.262	34.47
404.471	73.39
404.68	38.57
404.888	52.91
405.097	63.15
405.306	36.52
405.515	136.87
405.724	32.43
405.933	163.5
406.142	20.14
406.35	138.92
406.559	18.09
406.768	48.81
406.977	206.5
407.185	81.58
407.394	87.72
407.603	-8.53
407.812	65.19
408.02	89.77
408.229	42.67
408.438	18.09
408.646	5.8
408.855	20.14
409.064	118.44
409.272	-31.06
409.481	89.77
409.69	-0.34
409.898	-82.26
410.107	128.68
410.315	128.68
410.524	-14.68
410.733	52.91
410.941	38.57
411.15	159.4
411.358	155.3
411.567	79.53
411.775	46.76
411.984	153.26
412.192	112.3
412.401	16.04
412.609	161.45
412.818	44.71
413.026	87.72
413.234	16.04
413.443	46.76
413.651	-29.01
413.86	38.57
414.068	165.54
414.276	229.03
414.485	7.85
414.693	161.45
414.901	204.46
415.11	77.48
415.318	-10.58
415.526	46.76
415.734	106.15
415.943	67.24
416.151	128.68
416.359	13.99
416.567	-51.54
416.776	69.29
416.984	95.91
417.192	165.54
417.4	-4.44
417.608	-43.35
417.817	-53.59
418.025	110.25
418.233	208.55
418.441	7.85
418.649	-6.49
418.857	118.44
419.065	120.49
419.273	-26.96
419.481	40.62
419.689	50.86
419.897	-0.34
420.105	-6.49
420.313	120.49
420.521	106.15
420.729	91.82
420.937	-35.16
421.145	-20.82
421.353	30.38
421.561	112.3
421.769	87.72
421.977	-4.44
422.185	83.63
422.393	77.48
422.601	128.68
422.809	151.21
423.017	30.38
423.224	36.52
423.432	59.05
423.64	26.28
423.848	124.58
424.056	61.1
424.263	122.54
424.471	42.67
424.679	196.26
424.887	-51.54
425.094	169.64
425.302	85.67
425.51	-16.73
425.718	128.68
425.925	57
426.133	36.52
426.341	222.89
426.548	59.05
426.756	73.39
426.964	108.2
427.171	-12.63
427.379	106.15
427.586	110.25
427.794	110.25
428.001	153.26
428.209	102.06
428.417	157.35
428.624	138.92
428.832	69.29
429.039	95.91
429.247	40.62
429.454	93.87
429.662	251.56
429.869	67.24
430.076	120.49
430.284	167.59
430.491	233.13
430.699	167.59
430.906	274.09
431.114	188.07
431.321	93.87
431.528	118.44
431.736	132.78
431.943	183.98
432.15	151.21
432.358	288.42
432.565	313
432.772	24.23
432.979	206.5
433.187	196.26
433.394	151.21
433.601	128.68
433.808	261.8
434.016	249.51
434.223	212.65
434.43	136.87
434.637	253.61
434.844	249.51
435.052	190.12
435.259	315.05
435.466	235.18
435.673	339.62
435.88	280.23
436.087	341.67
436.294	325.29
436.501	286.37
436.708	280.23
436.915	292.52
437.122	384.68
437.329	222.89
437.537	339.62
437.743	378.53
437.95	439.97
438.157	353.96
438.364	429.73
438.571	374.44
438.778	403.11
438.985	442.02
439.192	435.88
439.399	427.68
439.606	478.88
439.813	394.92
440.02	607.91
440.227	663.2
440.433	562.85
440.64	513.7
440.847	464.55
441.054	546.47
441.261	568.99
441.467	519.84
441.674	589.47
441.881	657.06
442.088	556.71
442.294	609.95
442.501	757.41
442.708	716.45
442.914	712.35
443.121	691.87
443.328	790.17
443.534	779.93
443.741	822.94
443.948	763.55
444.154	831.13
444.361	1078.94
444.568	939.68
444.774	904.86
444.981	911
445.187	1068.7
445.394	1134.23
445.6	1052.31
445.807	1183.38
446.013	1162.9
446.22	1144.47
446.426	1271.45
446.633	1320.6
446.839	1584.79
447.046	1285.78
447.252	1470.1
447.459	1480.34
447.665	1461.91
447.871	1685.14
448.078	1756.82
448.284	1734.29
448.491	1953.42
448.697	1785.49
448.903	1969.8
449.11	1941.13
449.316	2049.68
449.522	2178.7
449.728	2287.24
449.935	2340.49
450.141	2363.01
450.347	2594.44
450.553	2393.73
450.76	2551.43
450.966	2717.31
451.172	2809.47
451.378	2829.95
451.584	2942.59
451.791	3196.54
451.997	3190.39
452.203	3374.71
452.409	3620.47
452.615	3604.08
452.821	3507.83
453.027	3563.12
453.233	3964.53
453.44	3837.55
453.646	4073.07
453.852	4367.98
454.058	4359.78
454.264	4646.5
454.47	4886.11
454.676	4865.63
454.882	5357.14
455.088	4988.51
455.294	5510.74
455.5	5717.59
455.705	6016.59
455.911	6043.21
456.117	6260.3
456.323	6413.9
456.529	6325.83
456.735	6991.42
456.941	7091.77
457.147	7458.36
457.352	7593.53
457.558	7786.04
457.764	8349.23
457.97	8519.21
458.176	8779.3
458.381	9127.46
458.587	9358.88
458.793	9895.44
458.999	10022.42
459.204	11101.7
459.41	11488.76
459.616	11503.1
459.821	11904.5
460.027	12652.01
460.233	13166.05
460.438	13426.14
460.644	13944.28
460.85	13948.37
461.055	14470.61
461.261	15340.99
461.466	14829
461.672	15269.31
461.878	17173.92
462.083	17081.77
462.289	17272.23
462.494	18130.33
462.7	18513.3
462.905	18673.04
463.111	19791.23
463.316	21022.06
463.522	21132.65
463.727	22064.47
463.932	22844.75
464.138	23397.7
464.343	24507.7
464.549	24745.27
464.754	26320.15
464.959	26752.27
465.165	27559.17
465.37	27088.14
465.575	27409.67
465.781	29138.16
465.986	29879.52
466.191	29570.28
466.397	29754.6
466.602	29074.67
466.807	30971.09
467.012	31433.93
467.218	31919.3
467.423	32130.24
467.628	32924.85
467.833	34610.33
468.038	34090.15
468.244	33154.22
468.449	35081.36
468.654	34358.43
468.859	34393.25
469.064	34421.92
469.269	33780.9
469.474	34112.67
469.679	34835.61
469.885	33854.63
470.09	34671.77
470.295	34346.14
470.5	33719.46
470.705	33866.92
470.91	33146.03
471.115	33072.31
471.32	33223.86
471.525	33189.04
471.73	32201.92
471.935	32120
472.139	30766.29
472.344	30829.78
472.549	30692.57
472.754	30196.96
472.959	29349.1
473.164	28404.99
473.369	28017.92
473.574	29064.43
473.778	28112.13
473.983	27731.2
474.188	27512.07
474.393	26041.63
474.598	25799.97
474.802	25441.57
475.007	24962.35
475.212	24778.03
475.417	23680.32
475.621	23663.94
475.826	23407.94
476.031	22830.41
476.235	22359.38
476.44	22246.74
476.645	21509.47
476.849	21441.89
477.054	21278.05
477.259	21083.5
477.463	20800.88
477.668	20092.28
477.872	20063.61
478.077	19533.18
478.282	19101.06
478.486	18808.2
478.691	18650.51
478.895	18505.1
479.1	18587.02
479.304	18230.68
479.509	17630.62
479.713	17761.69
479.918	17378.72
480.122	16971.18
480.326	17368.48
480.531	17274.28
480.735	17026.47
480.94	16760.23
481.144	17145.25
481.348	16188.85
481.553	16526.77
481.757	15947.19
481.961	16285.11
482.166	16276.91
482.37	16184.76
482.574	15560.13
482.778	15496.64
482.983	15930.81
483.187	15455.68
483.391	15523.26
483.595	15005.13
483.8	15027.65
484.004	14853.58
484.208	14839.24
484.412	14898.63
484.616	14554.57
484.821	14708.17
485.025	14083.54
485.229	14300.62
485.433	13766.1
485.637	14067.16
485.841	13530.59
486.045	13309.41
486.249	13270.5
486.453	13207.01
486.657	12924.39
486.861	12801.51
487.065	12328.43
487.269	12402.16
487.473	11699.7
487.677	12058.1
487.881	12068.34
488.085	11546.11
488.289	11580.92
488.493	11048.45
488.697	11058.69
488.901	11144.7
489.105	10728.97
489.309	10526.22
489.512	10561.03
489.716	10468.87
489.92	9946.64
490.124	9905.68
490.328	9928.21
490.531	9305.63
490.735	9328.16
490.939	9182.75
491.143	9029.15
491.346	9012.77
491.55	8834.6
491.754	8607.27
491.958	8814.12
492.161	8306.22
492.365	8201.77
492.569	8152.62
492.772	8029.74
492.976	8101.42
493.18	7908.91
493.383	7884.34
493.587	7697.97
493.79	7611.96
493.994	7464.5
494.197	7411.26
494.401	7491.13
494.605	7294.52
494.808	7206.46
495.012	7206.46
495.215	7257.66
495.419	7099.97
495.622	7183.93
495.825	6923.84
496.029	6860.35
496.232	7155.26
496.436	6868.55
496.639	6948.42
496.843	6938.18
497.046	6917.7
497.249	7059.01
497.453	7046.72
497.656	6934.08
497.859	6946.37
498.063	6889.03
498.266	7239.23
498.469	6872.64
498.673	7136.83
498.876	7087.68
499.079	7073.34
499.282	7308.86
499.485	7435.83
499.689	7378.49
499.892	7355.96
500.095	7296.57
500.298	7282.24
500.501	7310.91
500.705	7585.33
500.908	7632.44
501.111	7702.07
501.314	7691.83
501.517	7827
501.72	7804.47
501.923	7882.29
502.126	8048.18
502.329	8265.26
502.532	8369.71
502.735	8187.44
502.938	8537.64
503.141	8500.78
503.344	8402.47
503.547	8785.44
503.75	9010.72
503.953	8902.18
504.156	9111.07
504.359	9027.1
504.562	9233.95
504.765	9539.1
504.968	9614.87
505.17	9858.58
505.373	10087.95
505.576	10296.85
505.779	10358.28
505.982	10184.21
506.185	10552.84
506.387	10817.03
506.59	11036.16
506.793	11357.69
506.996	11343.36
507.198	11795.96
507.401	11845.11
507.604	12191.22
507.807	12443.12
508.009	12535.28
508.212	12811.75
508.415	12801.51
508.617	13278.69
508.82	13493.72
509.022	13817.3
509.225	14147.03
509.428	14517.71
509.63	14646.73
509.833	14808.52
510.035	15711.67
510.238	15553.98
510.44	15963.58
510.643	16512.43
510.845	16682.41
511.048	16901.54
511.25	17626.53
511.453	17565.09
511.655	18681.23
511.858	18550.16
512.06	19273.09
512.262	19529.09
512.465	19692.93
512.667	20258.17
512.87	20833.64
513.072	21146.98
513.274	21802.33
513.477	22015.32
513.679	22766.93
513.881	23219.53
514.084	23739.71
514.286	24044.86
514.488	24427.83
514.69	25435.43
514.893	25695.52
515.095	26514.71
515.297	26905.87
515.499	27405.58
515.701	27815.17
515.904	28732.66
516.106	29002.99
516.308	29842.66
516.51	30293.21
516.712	30739.67
516.914	31247.57
517.116	32158.91
517.318	32421.05
517.52	33412.27
517.722	34069.67
517.925	34845.85
518.127	35054.74
518.329	36160.64
518.531	35722.38
518.733	36672.64
518.935	37461.1
519.136	37909.61
519.338	38693.98
519.54	39138.39
519.742	39918.67
519.944	40281.16
520.146	41118.78
520.348	41643.06
520.55	42232.87
520.752	42409
520.954	43303.96
521.155	43351.06
521.357	44127.24
521.559	44639.23
521.761	45073.4
521.963	45806.58
522.164	46042.09
522.366	46392.29
522.568	46693.35
522.77	46965.73
522.971	47684.56
523.173	47393.75
523.375	48051.15
523.576	48096.2
523.778	48102.35
523.98	48968.64
524.181	49236.92
524.383	49130.43
524.584	49462.2
524.786	49224.64
524.988	49112
525.189	49601.46
525.391	50066.35
525.592	49972.14
525.794	50021.3
525.995	49818.55
526.197	49669.04
526.398	49810.35
526.6	50015.15
526.801	49552.31
527.003	49570.74
527.204	49425.34
527.406	49712.05
527.607	49234.88
527.808	49167.29
528.01	48212.94
528.211	48477.13
528.412	48403.4
528.614	48133.07
528.815	47375.32
529.016	47727.57
529.218	46924.77
529.419	46760.93
529.62	46332.9
529.822	45736.94
530.023	45140.99
530.224	45183.99
530.425	44409.86
530.626	44272.65
530.828	43797.52
531.029	44284.93
531.23	42949.66
531.431	41952.3
531.632	41985.07
531.833	41471.03
532.035	41161.78
532.236	40541.25
532.437	40264.77
532.638	39380.05
532.839	39431.25
533.04	38610.01
533.241	38141.03
533.442	38364.26
533.643	37258.35
533.844	36826.23
534.045	36623.48
534.246	36009.09
534.447	35513.48
534.648	35339.41
534.849	34430.11
535.05	33891.49
535.251	33461.42
535.451	33201.33
535.652	32871.61
535.853	32177.34
536.054	31624.39
536.255	31374.54
536.456	30934.23
536.657	31065.3
536.857	30125.28
537.058	29865.19
537.259	29586.66
537.46	29150.45
537.66	28404.99
537.861	28202.24
538.062	27739.4
538.263	27587.85
538.463	27092.24
538.664	26782.99
538.865	26234.14
539.065	26479.89
539.266	25681.19
539.466	25748.77
539.667	25419.05
539.868	25318.7
540.068	24759.6
540.269	24517.94
540.469	24247.61
540.67	24223.03
540.87	23549.25
541.071	23391.56
541.271	23192.9
541.472	22924.62
541.672	22447.44
541.873	22148.44
542.073	22052.19
542.274	21769.57
542.474	21675.36
542.675	21642.59
542.875	21208.42
543.075	20678
543.276	20409.72
543.476	20112.76
543.676	20084.09
543.877	20098.42
544.077	19883.39
544.277	19475.84
544.478	19338.63
544.678	19174.79
544.878	18822.54
545.078	18711.95
545.279	18281.88
545.479	18245.01
545.679	18077.08
545.879	17835.42
546.079	17896.86
546.28	17601.95
546.48	17251.75
546.68	17296.8
546.88	17010.09
547.08	16846.25
547.28	16598.45
547.48	15910.33
547.68	16111.03
547.88	15867.32
548.081	15838.65
548.281	15586.75
548.481	14972.36
548.681	15222.21
548.881	14986.69
549.081	14777.8
549.28	14327.25
549.48	14345.68
549.68	14106.07
549.88	13929.94
550.08	13329.89
550.28	13618.65
550.48	13438.43
550.68	13266.4
550.88	13000.16
551.08	12774.89
551.279	12731.88
551.479	12187.12
551.679	12310
551.879	11939.32
552.079	11967.99
552.278	11625.98
552.478	11552.25
552.678	11675.13
552.878	11132.42
553.077	11120.13
553.277	10634.76
553.477	10743.3
553.676	10978.82
553.876	10544.65
554.076	10389
554.275	10223.12
554.475	9983.51
554.674	9840.15
554.874	9651.74
555.074	9354.78
555.273	9537.05
555.473	9053.73
555.672	8896.03
555.872	9131.55
556.071	8685.09
556.271	8834.6
556.47	8699.43
556.67	8412.71
556.869	8216.11
557.068	8035.89
557.268	7818.8
557.467	7876.15
557.667	7827
557.866	7628.34
558.065	7327.29
558.265	7306.81
558.464	7128.64
558.663	7343.67
558.863	6932.03
559.062	6936.13
559.261	6624.84
559.461	6839.87
559.66	6522.44
559.859	6473.29
560.058	6305.35
560.258	6205
560.457	6112.85
560.656	6231.63
560.855	5971.54
561.054	6078.03
561.253	5699.16
561.453	5703.25
561.652	5645.91
561.851	5586.52
562.05	5375.58
562.249	5473.88
562.448	5424.73
562.647	5088.86
562.846	5074.53
563.045	5150.3
563.244	5076.57
563.443	4961.89
563.642	4750.95
563.841	4787.81
564.04	4693.6
564.239	4644.45
564.438	4597.35
564.637	4564.58
564.836	4306.54
565.035	4392.55
565.234	4367.98
565.432	4218.47
565.631	4247.15
565.83	4316.78
566.029	4077.16
566.228	3946.09
566.427	4050.54
566.625	3753.59
566.824	3909.23
567.023	3796.59
567.222	3714.67
567.42	3632.76
567.619	3636.85
567.818	3597.94
568.016	3604.08
568.215	3530.36
568.414	3407.48
568.612	3432.05
568.811	3270.26
569.01	3247.74
569.208	3237.5
569.407	3329.66
569.605	3178.11
569.804	3071.61
570.002	3141.24
570.201	2954.88
570.4	3049.08
570.598	2885.25
570.797	2940.54
570.995	2879.1
571.193	2803.33
571.392	2780.8
571.59	2608.77
571.789	2903.68
571.987	2729.6
572.186	2776.7
572.384	2623.11
572.582	2510.47
572.781	2619.01
572.979	2393.73
573.177	2346.63
573.376	2481.8
573.574	2408.07
573.772	2367.11
573.971	2197.13
574.169	2111.11
574.367	2246.28
574.565	2082.44
574.763	2227.85
574.962	2197.13
575.16	2045.58
575.358	2115.21
575.556	1943.18
575.754	2059.92
575.952	1965.71
576.151	2016.91
576.349	1975.95
576.547	1754.77
576.745	1865.36
576.943	1779.34
577.141	1771.15
577.339	1674.9
577.537	1644.18
577.735	1722
577.933	1728.14
578.131	1539.73
578.329	1730.19
578.527	1404.57
578.725	1654.42
578.923	1470.1
579.121	1638.03
579.319	1480.34
579.516	1386.13
579.714	1689.23
579.912	1492.63
580.11	1384.09
580.308	1339.03
580.506	1347.22
580.704	1199.77
580.901	1250.97
581.099	1398.42
581.297	1248.92
581.495	1279.64
581.692	1257.11
581.89	1339.03
582.088	1332.89
582.285	1187.48
582.483	1105.56
582.681	1250.97
582.878	1128.09
583.076	1076.89
583.274	1128.09
583.471	1242.78
583.669	1074.84
583.866	990.88
584.064	1083.03
584.262	937.63
584.459	976.54
584.657	988.83
584.854	1027.74
585.052	988.83
585.249	966.3
585.447	960.16
585.644	718.5
585.841	960.16
586.039	970.4
586.236	900.76
586.434	900.76
586.631	835.23
586.828	855.71
587.026	886.43
587.223	851.61
587.42	827.04
587.618	861.85
587.815	915.1
588.012	865.95
588.21	745.12
588.407	913.05
588.604	788.13
588.801	738.98
588.999	736.93
589.196	806.56
589.393	781.98
589.59	667.3
589.787	810.65
589.984	745.12
590.182	792.22
590.379	634.53
590.576	663.2
590.773	728.74
590.97	675.49
591.167	618.15
591.364	743.07
591.561	708.26
591.758	765.6
591.955	775.84
592.152	642.72
592.349	650.91
592.546	558.75
592.743	616.1
592.94	636.58
593.137	659.1
593.334	792.22
593.531	706.21
593.727	724.64
593.924	734.88
594.121	726.69
594.318	685.73
594.515	757.41
594.712	822.94
594.908	704.16
595.105	642.72
595.302	698.02
595.499	665.25
595.696	863.9
595.892	667.3
596.089	824.99
596.286	773.79
596.482	927.39
596.679	843.42
596.876	798.37
597.072	896.67
597.269	870.05
597.466	804.51
597.662	870.05
597.859	831.13
598.055	915.1
598.252	958.11
598.448	921.24
598.645	1113.75
598.841	1105.56
599.038	1134.23
599.234	1236.63
599.431	1234.58
599.627	1253.02
599.824	1377.94
600.02	1287.83
600.217	1320.6
600.413	1320.6
600.609	1414.81
600.806	1750.67
601.002	1525.4
601.198	1476.24
601.395	1687.18
601.591	1777.3
601.787	1834.64
601.984	1885.84
602.18	1996.43
602.376	2006.67
602.572	2096.78
602.769	2186.89
602.965	2287.24
603.161	2393.73
603.357	2428.55
603.553	2563.72
603.75	2526.85
603.946	2702.98
604.142	2795.14
604.338	2948.73
604.534	3044.99
604.73	2920.06
604.926	3094.14
605.122	3300.98
605.318	3249.79
605.514	3491.45
605.71	3382.9
605.906	3677.81
606.102	3626.61
606.298	3950.19
606.494	4028.01
606.69	4079.21
606.886	4062.83
607.082	4320.87
607.278	4224.62
607.474	4497
607.67	4691.56
607.866	4640.36
608.062	4879.97
608.257	5074.53
608.453	5148.25
608.649	5379.67
608.845	5338.71
609.041	5590.61
609.236	5772.88
609.432	6000.21
609.628	6047.31
609.824	6303.31
610.019	6450.76
610.215	6454.86
610.411	6923.84
610.606	6999.62
610.802	6966.85
610.998	7319.1
611.193	7597.62
611.389	7515.7
611.584	7902.77
611.78	7773.75
611.976	8203.82
612.171	8797.73
612.367	8859.17
612.562	8977.95
612.758	9143.84
612.953	9319.96
613.149	9545.24
613.344	9694.74
613.539	10182.16
613.735	10335.76
613.93	10780.17
614.126	10814.98
614.321	11326.97
614.517	11687.42
614.712	11742.71
614.907	12049.91
615.103	12432.88
615.298	12482.03
615.493	13049.32
615.688	13436.38
615.884	13721.05
616.079	13993.43
616.274	14501.33
616.47	14650.83
616.665	15277.51
616.86	15392.19
617.055	15793.59
617.25	16051.64
617.445	16649.64
617.641	16811.43
617.836	17614.24
618.031	17681.82
618.226	18412.95
618.421	18648.46
618.616	19146.12
618.811	19342.72
619.006	20045.18
619.201	20047.22
619.396	20678
619.591	20985.19
619.786	22127.96
619.981	22142.3
620.176	22975.82
620.371	23211.34
620.566	23723.33
620.761	23811.39
620.956	24612.15
621.151	24841.52
621.346	25500.97
621.541	25713.95
621.735	26850.58
621.93	26772.75
622.125	27409.67
622.32	27704.58
622.515	28148.99
622.709	28886.26
622.904	29471.98
623.099	29656.29
623.294	30563.54
623.488	30844.12
623.683	31618.25
623.878	31524.04
624.072	32462.01
624.267	33117.36
624.462	33590.44
624.656	33662.12
624.851	34409.63
625.046	35032.21
625.24	35316.88
625.435	35527.82
625.629	36222.08
625.824	36658.3
626.018	37561.45
626.213	37252.21
626.407	38665.31
626.602	37891.18
626.796	38890.59
626.991	39361.62
627.185	39605.33
627.38	39531.6
627.574	39930.95
627.768	39838.79
627.963	40356.93
628.157	40229.96
628.352	40946.75
628.546	40324.16
628.74	41104.44
628.935	40727.61
629.129	40936.51
629.323	39697.48
629.517	40242.24
629.712	40256.58
629.906	39689.29
630.1	39218.26
630.294	39302.23
630.489	38757.47
630.683	38370.4
630.877	37510.25
631.071	36883.58
631.265	36621.44
631.459	35740.81
631.653	34696.35
631.848	34417.82
632.042	33295.53
632.236	32978.1
632.43	31565
632.624	31016.15
632.818	30106.85
633.012	28843.25
633.206	28134.65
633.4	27831.55
633.594	26037.53
633.788	25906.46
633.982	24722.74
634.176	23772.48
634.369	23289.16
634.563	22312.28
634.757	21149.03
634.951	20417.91
635.145	19887.48
635.339	18988.42
635.533	18247.06
635.726	17921.43
635.92	16819.63
636.114	16045.49
636.308	15463.87
636.501	14861.77
636.695	14329.3
636.889	13671.9
637.083	13313.5
637.276	12633.58
637.47	12051.95
637.664	11476.48
637.857	11128.32
638.051	10944
638.244	10186.26
638.438	9840.15
638.632	9678.36
638.825	8814.12
639.019	8924.71
639.212	8259.12
639.406	8021.55
639.599	7773.75
639.793	7444.03
639.986	7216.7
640.18	6874.69
640.373	6645.32
640.567	6368.84
640.76	6100.56
640.954	5992.02
641.147	5760.59
641.34	5310.04
641.534	5158.49
641.727	5213.79
641.92	5107.29
642.114	4763.23
642.307	4437.61
642.5	4341.35
642.694	4200.04
642.887	3925.61
643.08	3825.26
643.273	3765.87
643.467	3548.79
643.66	3403.38
643.853	3151.48
644.046	3071.61
644.239	3126.91
644.432	2954.88
644.626	2702.98
644.819	2614.91
645.012	2608.77
645.205	2549.38
645.398	2485.89
645.591	2348.68
645.784	2291.34
645.977	2088.59
646.17	1986.19
646.363	2004.62
646.556	1967.76
646.749	1818.25
646.942	1801.87
647.135	1777.3
647.328	1633.94
647.521	1705.62
647.714	1517.2
647.907	1482.39
648.099	1468.05
648.292	1500.82
648.485	1267.35
648.678	1210.01
648.871	1210.01
649.064	1277.59
649.256	997.02
649.449	1037.98
649.642	960.16
649.835	990.88
650.027	849.57
650.22	994.97
650.413	939.68
650.605	888.48
650.798	765.6
650.991	767.65
651.183	757.41
651.376	796.32
651.568	763.55
651.761	618.15
651.954	767.65
652.146	661.15
652.339	702.11
652.531	798.37
652.724	548.51
652.916	568.99
653.109	534.18
653.301	724.64
653.494	667.3
653.686	575.14
653.879	601.76
654.071	566.95
654.263	525.99
654.456	435.88
654.648	558.75
654.84	450.21
655.033	376.48
655.225	468.64
655.417	388.77
655.61	507.55
655.802	409.25
655.994	564.9
656.186	362.15
656.379	419.49
656.571	341.67
656.763	349.86
656.955	356.01
657.148	415.4
657.34	390.82
657.532	351.91
657.724	310.95
657.916	358.05
658.108	370.34
658.3	313
658.492	411.3
658.684	181.93
658.876	313
659.068	159.4
659.26	204.46
659.452	181.93
659.644	265.89
659.836	374.44
660.028	308.9
660.22	253.61
660.412	310.95
660.604	261.8
660.796	261.8
660.988	323.24
661.18	288.42
661.372	288.42
661.563	171.69
661.755	222.89
661.947	177.83
662.139	204.46
662.331	202.41
662.522	204.46
662.714	134.82
662.906	214.7
663.097	202.41
663.289	151.21
663.481	136.87
663.673	220.84
663.864	159.4
664.056	181.93
664.247	24.23
664.439	294.57
664.631	226.98
664.822	222.89
665.014	179.88
665.205	54.95
665.397	194.22
665.588	149.16
665.78	206.5
665.971	214.7
666.163	202.41
666.354	204.46
666.546	130.73
666.737	161.45
666.929	140.97
667.12	151.21
667.311	249.51
667.503	188.07
667.694	140.97
667.885	196.26
668.077	206.5
668.268	11.95
668.459	112.3
668.651	110.25
668.842	216.74
669.033	44.71
669.224	97.96
669.416	241.32
669.607	89.77
669.798	89.77
669.989	237.22
670.18	149.16
670.371	186.02
670.563	59.05
670.754	233.13
670.945	200.36
671.136	286.37
671.327	159.4
671.518	188.07
671.709	245.41
671.9	181.93
672.091	288.42
672.282	235.18
672.473	200.36
672.664	206.5
672.855	138.92
673.046	173.74
673.237	206.5
673.428	153.26
673.619	136.87
673.809	239.27
674	253.61
674.191	177.83
674.382	181.93
674.573	163.5
674.764	130.73
674.954	257.7
675.145	124.58
675.336	216.74
675.527	149.16
675.717	110.25
675.908	222.89
676.099	173.74
676.289	175.78
676.48	61.1
676.671	202.41
676.861	192.17
677.052	239.27
677.243	196.26
677.433	130.73
677.624	267.94
677.814	263.85
678.005	216.74
678.195	261.8
678.386	67.24
678.576	229.03
678.767	132.78
678.957	237.22
679.148	347.81
679.338	403.11
679.529	257.7
679.719	124.58
679.909	317.09
680.1	241.32
680.29	310.95
680.481	130.73
680.671	323.24
680.861	220.84
681.052	253.61
681.242	229.03
681.432	286.37
681.622	231.08
681.813	134.82
682.003	192.17
682.193	134.82
682.383	245.41
682.573	212.65
682.764	159.4
682.954	245.41
683.144	345.77
683.334	161.45
683.524	210.6
683.714	220.84
683.904	265.89
684.094	151.21
684.284	267.94
684.474	366.25
684.664	220.84
684.854	321.19
685.044	296.61
685.234	259.75
685.424	265.89
685.614	249.51
685.804	366.25
685.994	341.67
686.184	263.85
686.374	313
686.564	313
686.753	294.57
686.943	159.4
687.133	208.55
687.323	220.84
687.513	282.28
687.702	288.42
687.892	278.18
688.082	216.74
688.272	313
688.461	304.81
688.651	401.06
688.841	302.76
689.03	241.32
689.22	241.32
689.41	284.33
689.599	296.61
689.789	151.21
689.979	356.01
690.168	335.53
690.358	308.9
690.547	226.98
690.737	222.89
690.926	288.42
691.116	229.03
691.305	308.9
691.495	333.48
691.684	212.65
691.874	194.22
692.063	306.85
692.252	286.37
692.442	329.38
692.631	200.36
692.82	263.85
693.01	173.74
693.199	229.03
693.388	257.7
693.578	247.46
693.767	306.85
693.956	339.62
694.146	188.07
694.335	323.24
694.524	247.46
694.713	300.71
694.902	253.61
695.092	190.12
695.281	304.81
695.47	290.47
695.659	259.75
695.848	267.94
696.037	181.93
696.226	294.57
696.415	237.22
696.604	337.57
696.793	339.62
696.982	229.03
697.171	376.48
697.36	294.57
697.549	224.94
697.738	151.21
697.927	216.74
698.116	188.07
698.305	335.53
698.494	165.54
698.683	196.26
698.872	368.29
699.061	190.12
699.25	206.5
699.438	231.08
699.627	222.89
699.816	310.95
700.005	73.39
700.193	208.55
700.382	302.76
700.571	265.89
700.76	278.18
700.948	313
701.137	284.33
701.326	296.61
701.514	206.5
701.703	247.46
701.892	208.55
702.08	394.92
702.269	249.51
702.457	140.97
702.646	261.8
702.834	224.94
703.023	315.05
703.212	306.85
703.4	212.65
703.589	218.79
703.777	175.78
703.965	147.11
704.154	173.74
704.342	159.4
704.531	218.79
704.719	200.36
704.907	308.9
705.096	212.65
705.284	104.11
705.472	208.55
705.661	251.56
705.849	235.18
706.037	296.61
706.226	253.61
706.414	243.37
706.602	177.83
706.79	319.14
706.979	216.74
707.167	204.46
707.355	167.59
707.543	288.42
707.731	272.04
707.919	145.06
708.107	224.94
708.296	200.36
708.484	61.1
708.672	300.71
708.86	331.43
709.048	278.18
709.236	102.06
709.424	253.61
709.612	286.37
709.8	89.77
709.988	190.12
710.176	343.72
710.364	263.85
710.551	272.04
710.739	175.78
710.927	267.94
711.115	206.5
711.303	210.6
711.491	265.89
711.679	163.5
711.866	239.27
712.054	233.13
712.242	282.28
712.43	237.22
712.617	253.61
712.805	263.85
712.993	278.18
713.181	126.63
713.368	349.86
713.556	177.83
713.744	188.07
713.931	384.68
714.119	341.67
714.306	222.89
714.494	181.93
714.682	251.56
714.869	147.11
715.057	196.26
715.244	212.65
715.432	284.33
715.619	200.36
715.807	226.98
715.994	233.13
716.182	272.04
716.369	300.71
716.556	251.56
716.744	118.44
716.931	155.3
717.119	315.05
717.306	257.7
717.493	290.47
717.681	183.98
717.868	167.59
718.055	274.09
718.242	222.89
718.43	226.98
718.617	190.12
718.804	186.02
718.991	380.58
719.179	261.8
719.366	282.28
719.553	235.18
719.74	247.46
719.927	290.47
720.114	247.46
720.301	278.18
720.488	245.41
720.676	241.32
720.863	321.19
721.05	442.02
721.237	247.46
721.424	304.81
721.611	255.65
721.798	241.32
721.985	259.75
722.172	173.74
722.358	335.53
722.545	321.19
722.732	267.94
722.919	313
723.106	310.95
723.293	274.09
723.48	194.22
723.667	233.13
723.853	415.4
724.04	249.51
724.227	351.91
724.414	229.03
724.6	224.94
724.787	384.68
724.974	302.76
725.161	220.84
725.347	216.74
725.534	290.47
725.72	251.56
725.907	370.34
726.094	296.61
726.28	194.22
726.467	321.19
726.653	173.74
726.84	345.77
727.027	413.35
727.213	333.48
727.4	356.01
727.586	259.75
727.773	280.23
727.959	198.31
728.145	202.41
728.332	210.6
728.518	235.18
728.705	358.05
728.891	329.38
729.077	288.42
729.264	128.68
729.45	218.79
729.636	261.8
729.823	282.28
730.009	396.96
730.195	339.62
730.382	368.29
730.568	272.04
730.754	341.67
730.94	239.27
731.126	343.72
731.313	313
731.499	284.33
731.685	325.29
731.871	313
732.057	315.05
732.243	317.09
732.429	253.61
732.615	409.25
732.801	358.05
732.987	263.85
733.173	278.18
733.359	263.85
733.545	288.42
733.731	288.42
733.917	417.44
734.103	292.52
734.289	300.71
734.475	181.93
734.661	380.58
734.847	308.9
735.033	310.95
735.219	323.24
735.404	196.26
735.59	208.55
735.776	366.25
735.962	331.43
736.148	366.25
736.333	405.16
736.519	302.76
736.705	183.98
736.89	272.04
737.076	358.05
737.262	261.8
737.447	274.09
737.633	351.91
737.819	394.92
738.004	263.85
738.19	286.37
738.375	345.77
738.561	353.96
738.747	390.82
738.932	278.18
739.118	511.65
739.303	407.2
739.489	288.42
739.674	204.46
739.859	233.13
740.045	302.76
740.23	345.77
740.416	153.26
740.601	366.25
740.786	253.61
740.972	259.75
741.157	222.89
741.342	237.22
741.528	306.85
741.713	360.1
741.898	290.47
742.084	288.42
742.269	317.09
742.454	325.29
742.639	347.81
742.824	327.33
743.01	372.39
743.195	419.49
743.38	298.66
743.565	282.28
743.75	304.81
743.935	300.71
744.12	384.68
744.305	159.4
744.49	237.22
744.675	319.14
744.86	323.24
745.045	347.81
745.23	284.33
745.415	204.46
745.6	358.05
745.785	251.56
745.97	315.05
746.155	329.38
746.34	343.72
746.525	278.18
746.71	351.91
746.895	126.63
747.079	196.26
747.264	183.98
747.449	315.05
747.634	286.37
747.819	331.43
748.003	239.27
748.188	169.64
748.373	259.75
748.557	253.61
748.742	286.37
748.927	263.85
749.111	255.65
749.296	274.09
749.481	226.98
749.665	290.47
749.85	159.4
750.034	269.99
750.219	290.47
750.404	237.22
750.588	282.28
750.773	259.75
750.957	263.85
751.141	216.74
751.326	220.84
751.51	161.45
751.695	210.6
751.879	177.83
752.064	274.09
752.248	241.32
752.432	399.01
752.617	267.94
752.801	235.18
752.985	161.45
753.17	333.48
753.354	163.5
753.538	247.46
753.722	112.3
753.907	245.41
754.091	153.26
754.275	315.05
754.459	143.02
754.643	159.4
754.828	188.07
755.012	249.51
755.196	118.44
755.38	247.46
755.564	59.05
755.748	134.82
755.932	169.64
756.116	239.27
756.3	267.94
756.484	218.79
756.668	263.85
756.852	198.31
757.036	149.16
757.22	157.35
757.404	128.68
757.588	124.58
757.772	255.65
757.956	163.5
758.14	210.6
758.323	108.2
758.507	192.17
758.691	134.82
758.875	200.36
759.059	304.81
759.242	140.97
759.426	157.35
759.61	220.84
759.794	147.11
759.977	282.28
760.161	325.29
760.345	272.04
760.528	278.18
760.712	188.07
760.895	126.63
761.079	155.3
761.263	63.15
761.446	130.73
761.63	120.49
761.813	175.78
761.997	30.38
762.18	153.26
762.364	175.78
762.547	42.67
762.731	89.77
762.914	165.54
763.098	136.87
763.281	108.2
763.464	143.02
763.648	147.11
763.831	153.26
764.015	22.19
764.198	210.6
764.381	159.4
764.564	153.26
764.748	75.43
764.931	106.15
765.114	167.59
765.297	143.02
765.481	114.34
765.664	167.59
765.847	63.15
766.03	196.26
766.213	38.57
766.397	63.15
766.58	42.67
766.763	134.82
766.946	59.05
767.129	138.92
767.312	71.34
767.495	79.53
767.678	83.63
767.861	100.01
768.044	97.96
768.227	83.63
768.41	73.39
768.593	169.64
768.776	116.39
768.959	1.71
769.142	222.89
769.324	71.34
769.507	44.71
769.69	118.44
769.873	122.54
770.056	206.5
770.239	100.01
770.421	130.73
770.604	85.67
770.787	128.68
770.97	54.95
771.152	50.86
771.335	169.64
771.518	95.91
771.7	231.08
771.883	124.58
772.066	63.15
772.248	122.54
772.431	118.44
772.613	153.26
772.796	44.71
772.978	143.02
773.161	171.69
773.343	102.06
773.526	-24.92
773.708	-22.87
773.891	-78.16
774.073	63.15
774.256	18.09
774.438	210.6
774.621	57
774.803	22.19
774.985	104.11
775.168	102.06
775.35	42.67
775.532	89.77
775.715	54.95
775.897	116.39
776.079	18.09
776.261	106.15
776.444	143.02
776.626	38.57
776.808	89.77
776.99	-55.64
777.173	114.34
777.355	132.78
777.537	116.39
777.719	85.67
777.901	-10.58
778.083	11.95
778.265	-31.06
778.447	245.41
778.629	5.8
778.811	100.01
778.993	134.82
779.175	65.19
779.357	73.39
779.539	-16.73
779.721	87.72
779.903	114.34
780.085	18.09
780.267	85.67
780.449	112.3
780.631	81.58
780.812	190.12
780.994	48.81
781.176	63.15
781.358	-35.16
781.54	-33.11
781.721	161.45
781.903	112.3
782.085	5.8
782.267	116.39
782.448	11.95
782.63	69.29
782.812	102.06
782.993	3.75
783.175	159.4
783.357	-18.77
783.538	87.72
783.72	-43.35
783.901	16.04
784.083	122.54
784.264	73.39
784.446	-61.78
784.627	9.9
784.809	179.88
784.99	-80.21
785.172	97.96
785.353	7.85
785.535	38.57
785.716	7.85
785.897	-6.49
786.079	-14.68
786.26	38.57
786.441	-37.2
786.623	-72.02
786.804	7.85
786.985	54.95
787.167	167.59
787.348	59.05
787.529	-39.25
787.71	69.29
787.891	138.92
788.073	28.33
788.254	-41.3
788.435	83.63
788.616	81.58
788.797	-31.06
788.978	-18.77
789.159	16.04
789.34	130.73
789.522	30.38
789.703	-24.92
789.884	1.71
790.065	114.34
790.246	130.73
790.427	-35.16
790.607	89.77
790.788	116.39
790.969	-16.73
791.15	42.67
791.331	-8.53
791.512	71.34
791.693	-61.78
791.874	73.39
792.054	177.83
792.235	128.68
792.416	13.99
792.597	-20.82
792.778	30.38
792.958	40.62
793.139	-0.34
793.32	22.19
793.5	-37.2
793.681	171.69
793.862	28.33
794.042	-2.39
794.223	-20.82
794.404	18.09
794.584	-61.78
794.765	28.33
794.945	7.85
795.126	151.21
795.306	116.39
795.487	77.48
795.667	61.1
795.848	91.82
796.028	22.19
796.209	-31.06
796.389	69.29
796.57	108.2
796.75	-88.4
796.93	44.71
797.111	-43.35
797.291	16.04
797.471	85.67
797.652	28.33
797.832	-10.58
798.012	32.43
798.192	-51.54
798.373	-67.92
798.553	-16.73
798.733	44.71
798.913	-20.82
799.093	-20.82
799.274	77.48
799.454	85.67
799.634	122.54
799.814	42.67
799.994	108.2
800.174	63.15
800.354	85.67
800.534	-94.55
800.714	65.19
800.894	-90.45
801.074	-37.2
801.254	-45.4
801.434	93.87
801.614	7.85
801.794	-80.21
801.974	1877.65
802.154	-10.58
802.334	163.5
802.514	-110.93
802.693	3.75
802.873	-31.06
803.053	81.58
803.233	59.05
803.413	50.86
803.592	-41.3
803.772	-31.06
803.952	122.54
804.131	-94.55
804.311	7.85
804.491	93.87
804.67	-45.4
804.85	-43.35
805.03	104.11
805.209	77.48
805.389	-22.87
805.568	-10.58
805.748	-80.21
805.928	40.62
806.107	91.82
806.287	13.99
806.466	18.09
806.646	-2.39
806.825	22.19
807.004	-18.77
807.184	-41.3
807.363	40.62
807.543	110.25
807.722	-10.58
807.901	192.17
808.081	108.2
808.26	-37.2
808.439	95.91
808.619	-49.49
808.798	-12.63
808.977	32.43
809.156	44.71
809.336	3.75
809.515	138.92
809.694	-26.96
809.873	-69.97
810.052	-14.68
810.231	126.63
810.411	24.23
810.59	91.82
810.769	24.23
810.948	93.87
811.127	-117.08
811.306	-29.01
811.485	32.43
811.664	108.2
811.843	79.53
812.022	32.43
812.201	-18.77
812.38	-47.44
812.559	-37.2
812.737	34.47
812.916	-35.16
813.095	-14.68
813.274	13.99
813.453	-31.06
813.632	20.14
813.811	75.43
813.989	-61.78
814.168	18.09
814.347	-39.25
814.526	16.04
814.704	91.82
814.883	75.43
815.062	-65.88
815.24	100.01
815.419	-69.97
815.598	26.28
815.776	-65.88
815.955	-20.82
816.133	-69.97
816.312	-39.25
816.49	-57.68
816.669	40.62
816.847	7.85
817.026	147.11
817.204	-33.11
817.383	-69.97
817.561	-98.64
817.74	16.04
817.918	85.67
818.097	-29.01
818.275	-14.68
818.453	24.23
818.632	79.53
818.81	-37.2
818.988	18.09
819.167	-20.82
819.345	52.91
819.523	-88.4
819.701	36.52
819.879	69.29
820.058	18.09
820.236	-22.87
820.414	34.47
820.592	-72.02
820.77	-57.68
820.948	71.34
821.127	1.71
821.305	44.71
821.483	-82.26
821.661	44.71
821.839	-35.16
822.017	-88.4
822.195	-49.49
822.373	11.95
822.551	16.04
822.729	59.05
822.907	-16.73
823.085	134.82
823.262	57
823.44	-57.68
823.618	-14.68
823.796	-18.77
823.974	-4.44
824.152	-145.75
824.329	34.47
824.507	57
824.685	120.49
824.863	44.71
825.04	-53.59
825.218	-63.83
825.396	-8.53
825.574	-14.68
825.751	-33.11
825.929	87.72
826.107	-94.55
826.284	-20.82
826.462	32.43
826.639	-76.12
826.817	-63.83
826.994	30.38
827.172	-127.32
827.349	145.06
827.527	87.72
827.704	40.62
827.882	34.47
828.059	-10.58
828.237	-33.11
828.414	87.72
828.591	-131.41
828.769	9.9
828.946	-26.96
829.124	110.25
829.301	138.92
829.478	54.95
829.655	50.86
829.833	-24.92
830.01	-164.18
830.187	-10.58
830.364	-10.58
830.542	-18.77
830.719	147.11
830.896	42.67
831.073	54.95
831.25	32.43
831.427	81.58
831.604	-14.68
831.782	-112.98
831.959	79.53
832.136	-10.58
832.313	61.1
832.49	-0.34
832.667	52.91
832.844	-63.83
833.021	108.2
833.198	-67.92
833.374	-39.25
833.551	34.47
833.728	-78.16
833.905	57
834.082	-119.12
834.259	81.58
834.436	124.58
834.612	-14.68
834.789	87.72
834.966	71.34
835.143	34.47
835.319	-131.41
835.496	-4.44
835.673	59.05
835.85	18.09
836.026	7.85
836.203	81.58
836.38	-39.25
836.556	-31.06
836.733	-47.44
836.909	128.68
837.086	-31.06
837.262	-80.21
837.439	38.57
837.616	13.99
837.792	-2.39
837.968	-49.49
838.145	-147.8
838.321	-31.06
838.498	-6.49
838.674	59.05
838.851	-37.2
839.027	20.14
839.203	-29.01
839.38	81.58
839.556	-47.44
839.732	46.76
839.909	40.62
840.085	34.47
840.261	-98.64
840.437	97.96
840.614	-53.59
840.79	112.3
840.966	3.75
841.142	42.67
841.318	-0.34
841.494	79.53
841.671	71.34
841.847	-29.01
842.023	-63.83
842.199	16.04
842.375	145.06
842.551	-102.74
842.727	-31.06
842.903	48.81
843.079	-92.5
843.255	54.95
843.431	40.62
843.607	-31.06
843.783	-117.08
843.959	34.47
844.134	-57.68
844.31	95.91
844.486	-33.11
844.662	-104.79
844.838	-55.64
845.013	36.52
845.189	22.19
845.365	-4.44
845.541	-10.58
845.716	-31.06
845.892	7.85
846.068	-12.63
846.244	-47.44
846.419	46.76
846.595	-59.73
846.77	-137.56
846.946	54.95
847.122	7.85
847.297	-33.11
847.473	110.25
847.648	-29.01
847.824	52.91
847.999	-121.17
848.175	-12.63
848.35	34.47
848.526	69.29
848.701	-12.63
848.876	7.85
849.052	73.39
849.227	34.47
849.403	28.33
849.578	13.99
849.753	48.81
849.929	28.33
850.104	-26.96
850.279	-45.4
850.454	32.43
850.63	30.38
850.805	-14.68
850.98	-92.5
851.155	-69.97
851.33	65.19
851.505	-88.4
851.681	93.87
851.856	-137.56
852.031	-12.63
852.206	48.81
852.381	-59.73
852.556	-8.53
852.731	71.34
852.906	151.21
853.081	61.1
853.256	151.21
853.431	50.86
853.606	-59.73
853.781	-53.59
853.956	-115.03
854.131	11.95
854.305	-174.42
854.48	-10.58
854.655	-43.35
854.83	-2.39
855.005	52.91
855.18	52.91
855.354	-41.3
855.529	44.71
855.704	-20.82
855.879	1.71
856.053	-69.97
856.228	85.67
856.403	-131.41
856.577	50.86
856.752	-149.84
856.926	-59.73
857.101	-8.53
857.276	-119.12
857.45	42.67
857.625	69.29
857.799	38.57
857.974	-4.44
858.148	-129.36
858.323	22.19
858.497	-69.97
858.672	-65.88
858.846	52.91
859.02	32.43
859.195	-37.2
859.369	-16.73
859.543	22.19
859.718	24.23
859.892	-0.34
860.066	63.15
860.241	32.43
860.415	-43.35
860.589	-43.35
860.763	-33.11
860.938	-29.01
861.112	18.09
861.286	-26.96
861.46	57
861.634	7.85
861.808	13.99
861.982	11.95
862.157	-108.88
862.331	-16.73
862.505	-182.61
862.679	-65.88
862.853	-20.82
863.027	13.99
863.201	140.97
863.375	-61.78
863.549	87.72
863.722	-4.44
863.896	67.24
864.07	-0.34
864.244	1.71
864.418	36.52
864.592	-20.82
864.766	-49.49
864.939	13.99
865.113	-88.4
865.287	116.39
865.461	-43.35
865.634	-10.58
865.808	-10.58
865.982	-45.4
866.156	-88.4
866.329	-41.3
866.503	24.23
866.676	1.71
866.85	85.67
867.024	-86.36
867.197	71.34
867.371	26.28
867.544	67.24
867.718	-53.59
867.891	28.33
868.065	-98.64
868.238	16.04
868.412	104.11
868.585	48.81
868.759	-22.87
868.932	-12.63
869.105	-80.21
869.279	-49.49
869.452	-76.12
869.625	-8.53
869.799	-14.68
869.972	-110.93
870.145	-37.2
870.319	54.95
870.492	-49.49
870.665	-18.77
870.838	-102.74
871.011	-153.94
871.185	-16.73
871.358	18.09
871.531	149.16
871.704	-12.63
871.877	38.57
872.05	-45.4
872.223	-31.06
872.396	73.39
872.569	65.19
872.742	-143.7
872.915	-24.92
873.088	5.8
873.261	-108.88
873.434	-4.44
873.607	-39.25
873.78	54.95
873.953	1.71
874.126	38.57
874.299	-35.16
874.471	-53.59
874.644	1.71
874.817	83.63
874.99	77.48
875.163	-31.06
875.335	30.38
875.508	-45.4
875.681	34.47
875.853	-67.92
876.026	-67.92
876.199	87.72
876.371	-4.44
876.544	-31.06
876.717	50.86
876.889	-57.68
877.062	100.01
877.234	-96.6
877.407	3.75
877.579	-59.73
877.752	75.43
877.924	11.95
878.097	44.71
878.269	-33.11
878.442	5.8
878.614	118.44
878.786	13.99
878.959	30.38
879.131	52.91
879.303	-59.73
879.476	-20.82
879.648	104.11
879.82	9.9
879.993	-41.3
880.165	-61.78
880.337	-33.11
880.509	-37.2
880.681	-160.08
880.854	-49.49
881.026	79.53
881.198	132.78
881.37	-61.78
881.542	5.8
881.714	-86.36
881.886	-106.84
882.058	16.04
882.23	3.75
882.402	-29.01
882.574	42.67
882.746	38.57
882.918	151.21
883.09	77.48
883.262	-88.4
883.434	-16.73
883.606	-65.88
883.778	9.9
883.95	147.11
884.122	-61.78
884.293	50.86
884.465	48.81
884.637	7.85
884.809	-108.88
884.98	34.47
885.152	34.47
885.324	116.39
885.496	-61.78
885.667	-63.83
885.839	-22.87
886.011	104.11
886.182	54.95
886.354	3.75
886.525	5.8
886.697	5.8
886.869	-104.79
887.04	-10.58
887.212	93.87
887.383	149.16
887.555	-57.68
887.726	-14.68
887.897	-24.92
888.069	1.71
888.24	5.8
888.412	-86.36
888.583	-22.87
888.754	-115.03
888.926	-108.88
889.097	-61.78
889.268	-92.5
889.44	69.29
889.611	-82.26
889.782	-100.69
889.953	-115.03
890.125	54.95
890.296	-125.27
890.467	-84.31
890.638	-78.16
890.809	36.52
890.98	-10.58
891.151	11.95
891.323	67.24
891.494	52.91
891.665	-61.78
891.836	-33.11
892.007	34.47
892.178	32.43
892.349	3.75
892.52	-74.07
892.691	-39.25
892.862	-0.34
893.032	-162.13
893.203	20.14
893.374	-67.92
893.545	97.96
893.716	-53.59
893.887	126.63
894.057	-106.84
894.228	-16.73
894.399	-102.74
894.57	61.1
894.74	3.75
894.911	42.67
895.082	-96.6
895.253	-72.02
895.423	28.33
895.594	91.82
895.764	128.68
895.935	-51.54
896.106	42.67
896.276	-119.12
896.447	-10.58
896.617	-125.27
896.788	-33.11
896.958	-53.59
897.129	-74.07
897.299	-35.16
897.47	57
897.64	73.39
897.81	-53.59
897.981	61.1
898.151	-18.77
898.322	-8.53
898.492	50.86
898.662	-16.73
898.832	-86.36
899.003	32.43
899.173	42.67
899.343	-45.4
899.513	-43.35
