Data from USB4F104151__257__11-20-13-634.txt Node

Date: Wed Feb 26 11:20:13 EST 2025
User: louis
Spectrometer: USB4F10415
Trigger mode: 4
Integration Time (sec): 1.000000E-1
Scans to average: 1
Electric dark correction enabled: true
Nonlinearity correction enabled: false
Boxcar width: 0
XAxis mode: Wavelengths
Number of Pixels in Spectrum: 3648
>>>>>Begin Spectral Data<<<<<
178.204	-408.91
178.424	-408.91
178.644	-408.91
178.864	-406.86
179.084	-443.73
179.304	144.04
179.524	-50.52
179.744	2.73
179.964	66.22
180.184	74.41
180.404	-7.51
180.624	-50.52
180.844	-101.72
181.064	-30.04
181.283	-23.89
181.503	-11.61
181.723	-11.61
181.943	-120.15
182.163	176.81
182.383	12.97
182.602	92.84
182.822	90.79
183.042	29.35
183.262	-111.96
183.482	10.92
183.701	-1.37
183.921	31.4
184.141	-73.04
184.361	78.51
184.58	-3.41
184.8	76.46
185.02	-93.52
185.239	47.79
185.459	-1.37
185.679	94.89
185.898	-87.38
186.118	-1.37
186.338	53.93
186.557	92.84
186.777	-11.61
186.997	-58.71
187.216	-25.94
187.436	187.05
187.655	31.4
187.875	146.09
188.095	-13.65
188.314	164.52
188.534	39.59
188.753	-60.76
188.973	158.38
189.192	135.85
189.412	49.83
189.631	-58.71
189.851	66.22
190.07	137.9
190.29	-17.75
190.509	-40.28
190.729	-3.41
190.948	178.86
191.168	260.77
191.387	17.07
191.607	8.87
191.826	-7.51
192.045	-44.37
192.265	-36.18
192.484	82.6
192.704	-7.51
192.923	-144.72
193.142	191.14
193.362	72.36
193.581	64.17
193.8	84.65
194.02	43.69
194.239	41.64
194.458	-9.56
194.678	92.84
194.897	10.92
195.116	115.37
195.335	-54.61
195.555	64.17
195.774	-19.8
195.993	45.74
196.212	-36.18
196.432	-111.96
196.651	-73.04
196.87	17.07
197.089	230.06
197.308	101.03
197.528	-27.99
197.747	-91.48
197.966	-30.04
198.185	19.11
198.404	4.78
198.623	62.12
198.842	45.74
199.062	33.45
199.281	31.4
199.5	55.98
199.719	31.4
199.938	70.31
200.157	86.7
200.376	53.93
200.595	80.55
200.814	88.75
201.033	-17.75
201.252	103.08
201.471	80.55
201.69	45.74
201.909	-66.9
202.128	78.51
202.347	21.16
202.566	17.07
202.785	-36.18
203.004	-46.42
203.223	185
203.442	-48.47
203.661	-73.04
203.879	78.51
204.098	84.65
204.317	-40.28
204.536	68.27
204.755	-30.04
204.974	170.66
205.193	0.68
205.411	160.42
205.63	74.41
205.849	49.83
206.068	25.26
206.287	17.07
206.505	105.13
206.724	19.11
206.943	-89.43
207.162	-48.47
207.381	152.23
207.599	-46.42
207.818	2.73
208.037	-91.48
208.255	-34.13
208.474	-3.41
208.693	-9.56
208.911	-1.37
209.13	70.31
209.349	86.7
209.567	55.98
209.786	90.79
210.005	55.98
210.223	19.11
210.442	-81.24
210.661	23.21
210.879	109.23
211.098	-46.42
211.316	64.17
211.535	47.79
211.753	0.68
211.972	55.98
212.191	-19.8
212.409	-5.46
212.628	25.26
212.846	2.73
213.065	39.59
213.283	78.51
213.502	103.08
213.72	17.07
213.938	35.5
214.157	-34.13
214.375	76.46
214.594	47.79
214.812	119.46
215.031	-40.28
215.249	12.97
215.467	84.65
215.686	47.79
215.904	2.73
216.122	35.5
216.341	135.85
216.559	-11.61
216.778	103.08
216.996	127.66
217.214	12.97
217.432	43.69
217.651	-95.57
217.869	-9.56
218.087	2.73
218.306	-73.04
218.524	17.07
218.742	-5.46
218.96	131.75
219.179	-7.51
219.397	-79.19
219.615	254.63
219.833	92.84
220.051	-73.04
220.27	133.8
220.488	141.99
220.706	-40.28
220.924	51.88
221.142	-5.46
221.36	8.87
221.578	-19.8
221.796	-9.56
222.015	-19.8
222.233	6.83
222.451	160.42
222.669	-46.42
222.887	78.51
223.105	29.35
223.323	8.87
223.541	-7.51
223.759	-9.56
223.977	80.55
224.195	174.76
224.413	150.18
224.631	12.97
224.849	101.03
225.067	178.86
225.285	-23.89
225.503	12.97
225.721	-128.34
225.939	17.07
226.157	19.11
226.375	156.33
226.592	-52.56
226.81	47.79
227.028	94.89
227.246	113.32
227.464	-3.41
227.682	117.42
227.9	45.74
228.117	39.59
228.335	58.03
228.553	39.59
228.771	27.31
228.989	41.64
229.206	90.79
229.424	-38.23
229.642	-44.37
229.86	-73.04
230.077	131.75
230.295	70.31
230.513	8.87
230.731	58.03
230.948	148.14
231.166	107.18
231.384	47.79
231.601	-42.32
231.819	117.42
232.037	33.45
232.254	-71
232.472	58.03
232.689	15.02
232.907	185
233.125	-21.84
233.342	-30.04
233.56	6.83
233.777	37.55
233.995	47.79
234.213	121.51
234.43	-17.75
234.648	-25.94
234.865	-11.61
235.083	51.88
235.3	25.26
235.518	-17.75
235.735	123.56
235.953	174.76
236.17	6.83
236.388	19.11
236.605	68.27
236.822	88.75
237.04	76.46
237.257	76.46
237.475	25.26
237.692	0.68
237.909	117.42
238.127	0.68
238.344	-50.52
238.562	53.93
238.779	-52.56
238.996	-54.61
239.214	-21.84
239.431	31.4
239.648	-71
239.865	121.51
240.083	105.13
240.3	4.78
240.517	6.83
240.735	21.16
240.952	123.56
241.169	-9.56
241.386	37.55
241.603	51.88
241.821	4.78
242.038	86.7
242.255	150.18
242.472	-3.41
242.689	35.5
242.907	31.4
243.124	-1.37
243.341	-11.61
243.558	-66.9
243.775	-11.61
243.992	-68.95
244.209	68.27
244.426	166.57
244.643	-40.28
244.86	8.87
245.078	66.22
245.295	66.22
245.512	43.69
245.729	-52.56
245.946	47.79
246.163	19.11
246.38	-32.08
246.597	-1.37
246.814	-19.8
247.031	27.31
247.248	25.26
247.464	33.45
247.681	-42.32
247.898	121.51
248.115	47.79
248.332	-109.91
248.549	180.9
248.766	86.7
248.983	58.03
249.2	53.93
249.417	109.23
249.633	-1.37
249.85	92.84
250.067	49.83
250.284	60.07
250.501	49.83
250.717	66.22
250.934	-68.95
251.151	-56.66
251.368	25.26
251.585	60.07
251.801	4.78
252.018	-23.89
252.235	8.87
252.451	-23.89
252.668	10.92
252.885	76.46
253.102	113.32
253.318	-19.8
253.535	-32.08
253.752	-40.28
253.968	-32.08
254.185	-7.51
254.401	90.79
254.618	72.36
254.835	-54.61
255.051	105.13
255.268	78.51
255.484	84.65
255.701	23.21
255.917	23.21
256.134	-62.8
256.351	23.21
256.567	-73.04
256.784	-25.94
257	-34.13
257.217	66.22
257.433	35.5
257.65	78.51
257.866	144.04
258.082	-54.61
258.299	-23.89
258.515	37.55
258.732	12.97
258.948	-11.61
259.165	8.87
259.381	-11.61
259.597	35.5
259.814	-34.13
260.03	51.88
260.246	-46.42
260.463	113.32
260.679	101.03
260.895	49.83
261.112	10.92
261.328	35.5
261.544	-38.23
261.761	203.43
261.977	-75.09
262.193	-50.52
262.409	84.65
262.626	123.56
262.842	117.42
263.058	-60.76
263.274	115.37
263.49	-34.13
263.707	148.14
263.923	25.26
264.139	-91.48
264.355	10.92
264.571	105.13
264.787	74.41
265.004	88.75
265.22	49.83
265.436	-44.37
265.652	-21.84
265.868	0.68
266.084	-101.72
266.3	-21.84
266.516	-56.66
266.732	17.07
266.948	8.87
267.164	-23.89
267.38	107.18
267.596	82.6
267.812	96.94
268.028	8.87
268.244	58.03
268.46	25.26
268.676	0.68
268.892	43.69
269.108	-58.71
269.324	10.92
269.54	21.16
269.756	72.36
269.972	-1.37
270.188	-9.56
270.403	-1.37
270.619	-30.04
270.835	23.21
271.051	-34.13
271.267	-58.71
271.483	-50.52
271.698	74.41
271.914	68.27
272.13	-7.51
272.346	-23.89
272.562	107.18
272.777	139.94
272.993	58.03
273.209	39.59
273.425	15.02
273.64	-120.15
273.856	150.18
274.072	-5.46
274.287	-25.94
274.503	31.4
274.719	68.27
274.934	-13.65
275.15	-13.65
275.366	15.02
275.581	29.35
275.797	-9.56
276.012	72.36
276.228	-48.47
276.444	-25.94
276.659	92.84
276.875	-68.95
277.09	12.97
277.306	23.21
277.521	62.12
277.737	-5.46
277.952	51.88
278.168	53.93
278.383	23.21
278.599	12.97
278.814	55.98
279.03	29.35
279.245	170.66
279.461	-1.37
279.676	158.38
279.892	-87.38
280.107	-27.99
280.322	-19.8
280.538	0.68
280.753	-15.7
280.969	64.17
281.184	23.21
281.399	129.7
281.615	12.97
281.83	33.45
282.045	-46.42
282.26	31.4
282.476	-73.04
282.691	51.88
282.906	70.31
283.122	31.4
283.337	0.68
283.552	64.17
283.767	-21.84
283.983	41.64
284.198	-9.56
284.413	55.98
284.628	-122.2
284.843	-15.7
285.058	49.83
285.274	-77.14
285.489	-32.08
285.704	76.46
285.919	17.07
286.134	19.11
286.349	43.69
286.564	58.03
286.779	146.09
286.995	60.07
287.21	-75.09
287.425	62.12
287.64	62.12
287.855	123.56
288.07	-89.43
288.285	105.13
288.5	72.36
288.715	107.18
288.93	21.16
289.145	19.11
289.36	33.45
289.575	-66.9
289.79	133.8
290.004	-101.72
290.219	109.23
290.434	-23.89
290.649	-54.61
290.864	-50.52
291.079	58.03
291.294	60.07
291.509	51.88
291.724	31.4
291.938	-40.28
292.153	29.35
292.368	-42.32
292.583	88.75
292.798	76.46
293.012	19.11
293.227	72.36
293.442	-30.04
293.657	80.55
293.871	197.29
294.086	-11.61
294.301	139.94
294.516	115.37
294.73	-40.28
294.945	-62.8
295.16	15.02
295.374	78.51
295.589	66.22
295.804	115.37
296.018	-64.85
296.233	64.17
296.447	37.55
296.662	-17.75
296.877	80.55
297.091	88.75
297.306	-7.51
297.52	-32.08
297.735	51.88
297.949	27.31
298.164	64.17
298.378	82.6
298.593	-32.08
298.807	-48.47
299.022	37.55
299.236	53.93
299.451	10.92
299.665	-25.94
299.88	-5.46
300.094	94.89
300.309	-40.28
300.523	-3.41
300.737	-21.84
300.952	64.17
301.166	45.74
301.381	31.4
301.595	-30.04
301.809	12.97
302.024	-27.99
302.238	-48.47
302.452	-5.46
302.667	8.87
302.881	176.81
303.095	115.37
303.309	39.59
303.524	-7.51
303.738	55.98
303.952	-52.56
304.166	37.55
304.381	-163.15
304.595	166.57
304.809	0.68
305.023	23.21
305.237	4.78
305.452	17.07
305.666	39.59
305.88	53.93
306.094	156.33
306.308	78.51
306.522	8.87
306.736	86.7
306.95	121.51
307.164	101.03
307.379	17.07
307.593	103.08
307.807	90.79
308.021	53.93
308.235	55.98
308.449	33.45
308.663	29.35
308.877	127.66
309.091	82.6
309.305	37.55
309.519	-107.86
309.733	74.41
309.947	-93.52
310.161	84.65
310.374	90.79
310.588	72.36
310.802	-32.08
311.016	-38.23
311.23	-5.46
311.444	-68.95
311.658	-25.94
311.872	109.23
312.085	111.27
312.299	185
312.513	115.37
312.727	-56.66
312.941	-60.76
313.154	33.45
313.368	23.21
313.582	-1.37
313.796	35.5
314.009	21.16
314.223	82.6
314.437	19.11
314.651	41.64
314.864	-38.23
315.078	10.92
315.292	-146.77
315.505	-3.41
315.719	64.17
315.933	109.23
316.146	21.16
316.36	-62.8
316.573	51.88
316.787	72.36
317.001	25.26
317.214	-30.04
317.428	55.98
317.641	-19.8
317.855	58.03
318.068	49.83
318.282	72.36
318.495	101.03
318.709	74.41
318.922	64.17
319.136	189.1
319.349	148.14
319.563	-3.41
319.776	111.27
319.99	-34.13
320.203	23.21
320.417	25.26
320.63	49.83
320.843	164.52
321.057	66.22
321.27	15.02
321.483	92.84
321.697	141.99
321.91	64.17
322.124	31.4
322.337	25.26
322.55	-1.37
322.763	29.35
322.977	21.16
323.19	-17.75
323.403	8.87
323.617	41.64
323.83	131.75
324.043	-73.04
324.256	43.69
324.469	-62.8
324.683	103.08
324.896	39.59
325.109	62.12
325.322	-58.71
325.535	135.85
325.748	111.27
325.962	-25.94
326.175	119.46
326.388	-34.13
326.601	94.89
326.814	31.4
327.027	-5.46
327.24	109.23
327.453	-58.71
327.666	23.21
327.879	123.56
328.092	41.64
328.305	29.35
328.518	-25.94
328.731	-21.84
328.944	31.4
329.157	47.79
329.37	-5.46
329.583	197.29
329.796	101.03
330.009	-89.43
330.222	82.6
330.435	64.17
330.648	15.02
330.861	-21.84
331.073	74.41
331.286	88.75
331.499	35.5
331.712	10.92
331.925	-48.47
332.138	12.97
332.35	182.95
332.563	-32.08
332.776	41.64
332.989	-60.76
333.202	-36.18
333.414	47.79
333.627	-56.66
333.84	86.7
334.053	55.98
334.265	-23.89
334.478	-81.24
334.691	12.97
334.903	10.92
335.116	-81.24
335.329	-50.52
335.541	129.7
335.754	64.17
335.966	35.5
336.179	19.11
336.392	-25.94
336.604	-25.94
336.817	74.41
337.029	96.94
337.242	47.79
337.454	-19.8
337.667	70.31
337.88	105.13
338.092	35.5
338.305	82.6
338.517	-17.75
338.729	49.83
338.942	84.65
339.154	-1.37
339.367	-44.37
339.579	-1.37
339.792	-89.43
340.004	17.07
340.217	-9.56
340.429	41.64
340.641	-99.67
340.854	-52.56
341.066	-58.71
341.278	31.4
341.491	172.71
341.703	25.26
341.915	-36.18
342.128	12.97
342.34	27.31
342.552	-17.75
342.764	41.64
342.977	19.11
343.189	19.11
343.401	35.5
343.613	-60.76
343.826	-44.37
344.038	-30.04
344.25	49.83
344.462	-46.42
344.674	66.22
344.886	-17.75
345.099	33.45
345.311	51.88
345.523	-27.99
345.735	-50.52
345.947	127.66
346.159	144.04
346.371	0.68
346.583	-11.61
346.795	113.32
347.007	-34.13
347.219	58.03
347.431	-15.7
347.643	105.13
347.855	-52.56
348.067	115.37
348.279	-87.38
348.491	17.07
348.703	109.23
348.915	55.98
349.127	-42.32
349.339	-25.94
349.551	55.98
349.763	62.12
349.975	-5.46
350.187	109.23
350.399	135.85
350.61	45.74
350.822	12.97
351.034	-23.89
351.246	-23.89
351.458	137.9
351.669	109.23
351.881	185
352.093	37.55
352.305	121.51
352.517	49.83
352.728	53.93
352.94	-48.47
353.152	12.97
353.363	-34.13
353.575	117.42
353.787	117.42
353.999	47.79
354.21	156.33
354.422	-50.52
354.633	21.16
354.845	12.97
355.057	53.93
355.268	-46.42
355.48	92.84
355.692	-21.84
355.903	-3.41
356.115	-56.66
356.326	-195.92
356.538	94.89
356.749	58.03
356.961	133.8
357.172	74.41
357.384	37.55
357.595	215.72
357.807	45.74
358.018	-1.37
358.23	23.21
358.441	152.23
358.653	62.12
358.864	45.74
359.075	-25.94
359.287	29.35
359.498	94.89
359.709	66.22
359.921	33.45
360.132	21.16
360.344	23.21
360.555	-46.42
360.766	49.83
360.977	-52.56
361.189	98.99
361.4	-19.8
361.611	78.51
361.823	113.32
362.034	111.27
362.245	-11.61
362.456	49.83
362.667	117.42
362.879	-103.76
363.09	43.69
363.301	70.31
363.512	-46.42
363.723	-25.94
363.935	4.78
364.146	-1.37
364.357	8.87
364.568	43.69
364.779	-95.57
364.99	135.85
365.201	10.92
365.412	105.13
365.623	2.73
365.834	-5.46
366.045	41.64
366.256	55.98
366.467	107.18
366.678	21.16
366.889	-3.41
367.1	-50.52
367.311	90.79
367.522	45.74
367.733	86.7
367.944	72.36
368.155	-9.56
368.366	70.31
368.577	72.36
368.788	35.5
368.999	-34.13
369.209	-58.71
369.42	178.86
369.631	182.95
369.842	49.83
370.053	-48.47
370.264	47.79
370.474	-30.04
370.685	8.87
370.896	-32.08
371.107	76.46
371.317	37.55
371.528	37.55
371.739	47.79
371.95	90.79
372.16	12.97
372.371	-48.47
372.582	-42.32
372.792	8.87
373.003	55.98
373.214	92.84
373.424	94.89
373.635	-34.13
373.846	113.32
374.056	8.87
374.267	90.79
374.477	53.93
374.688	8.87
374.898	17.07
375.109	-23.89
375.319	115.37
375.53	74.41
375.74	98.99
375.951	33.45
376.161	70.31
376.372	160.42
376.582	29.35
376.793	133.8
377.003	-36.18
377.214	-85.33
377.424	76.46
377.635	-3.41
377.845	8.87
378.055	148.14
378.266	-71
378.476	-40.28
378.686	103.08
378.897	37.55
379.107	64.17
379.317	-1.37
379.528	29.35
379.738	-15.7
379.948	-58.71
380.158	92.84
380.369	-15.7
380.579	29.35
380.789	88.75
380.999	84.65
381.21	94.89
381.42	211.62
381.63	29.35
381.84	111.27
382.05	51.88
382.261	148.14
382.471	82.6
382.681	31.4
382.891	162.47
383.101	0.68
383.311	-169.3
383.521	12.97
383.731	21.16
383.941	49.83
384.151	84.65
384.361	68.27
384.571	31.4
384.781	53.93
384.991	207.53
385.201	164.52
385.411	131.75
385.621	41.64
385.831	25.26
386.041	68.27
386.251	15.02
386.461	105.13
386.671	-66.9
386.881	25.26
387.091	-15.7
387.301	55.98
387.511	58.03
387.72	-3.41
387.93	66.22
388.14	-46.42
388.35	-17.75
388.56	33.45
388.769	84.65
388.979	-17.75
389.189	-173.39
389.399	135.85
389.609	64.17
389.818	96.94
390.028	6.83
390.238	96.94
390.447	-52.56
390.657	101.03
390.867	-68.95
391.076	-93.52
391.286	82.6
391.496	-34.13
391.705	35.5
391.915	144.04
392.125	-11.61
392.334	-62.8
392.544	76.46
392.753	131.75
392.963	-91.48
393.172	101.03
393.382	-73.04
393.591	248.49
393.801	6.83
394.01	80.55
394.22	15.02
394.429	33.45
394.639	60.07
394.848	88.75
395.058	27.31
395.267	-3.41
395.477	74.41
395.686	64.17
395.895	209.58
396.105	236.2
396.314	74.41
396.524	51.88
396.733	8.87
396.942	172.71
397.152	53.93
397.361	74.41
397.57	-3.41
397.78	94.89
397.989	141.99
398.198	182.95
398.407	105.13
398.617	15.02
398.826	8.87
399.035	-15.7
399.244	74.41
399.453	-7.51
399.663	92.84
399.872	29.35
400.081	6.83
400.29	39.59
400.499	-23.89
400.708	78.51
400.917	23.21
401.127	-38.23
401.336	15.02
401.545	148.14
401.754	111.27
401.963	84.65
402.172	-36.18
402.381	2.73
402.59	8.87
402.799	31.4
403.008	203.43
403.217	21.16
403.426	72.36
403.635	-25.94
403.844	29.35
404.053	8.87
404.262	2.73
404.471	154.28
404.68	107.18
404.888	-7.51
405.097	23.21
405.306	66.22
405.515	119.46
405.724	27.31
405.933	96.94
406.142	66.22
406.35	68.27
406.559	62.12
406.768	-19.8
406.977	203.43
407.185	-19.8
407.394	49.83
407.603	-48.47
407.812	72.36
408.02	158.38
408.229	37.55
408.438	68.27
408.646	35.5
408.855	-19.8
409.064	39.59
409.272	19.11
409.481	101.03
409.69	-81.24
409.898	-64.85
410.107	86.7
410.315	66.22
410.524	2.73
410.733	70.31
410.941	-25.94
411.15	129.7
411.358	121.51
411.567	70.31
411.775	37.55
411.984	70.31
412.192	109.23
412.401	0.68
412.609	121.51
412.818	150.18
413.026	98.99
413.234	37.55
413.443	53.93
413.651	-68.95
413.86	94.89
414.068	62.12
414.276	156.33
414.485	23.21
414.693	129.7
414.901	172.71
415.11	66.22
415.318	47.79
415.526	29.35
415.734	96.94
415.943	-9.56
416.151	86.7
416.359	82.6
416.567	103.08
416.776	135.85
416.984	33.45
417.192	185
417.4	-19.8
417.608	-30.04
417.817	-81.24
418.025	133.8
418.233	156.33
418.441	0.68
418.649	-54.61
418.857	154.28
419.065	88.75
419.273	-30.04
419.481	70.31
419.689	-23.89
419.897	-3.41
420.105	-25.94
420.313	58.03
420.521	258.73
420.729	217.77
420.937	6.83
421.145	-48.47
421.353	74.41
421.561	203.43
421.769	41.64
421.977	-1.37
422.185	105.13
422.393	-5.46
422.601	74.41
422.809	107.18
423.017	58.03
423.224	105.13
423.432	21.16
423.64	58.03
423.848	115.37
424.056	-17.75
424.263	195.24
424.471	21.16
424.679	182.95
424.887	-48.47
425.094	135.85
425.302	72.36
425.51	21.16
425.718	133.8
425.925	129.7
426.133	-83.28
426.341	178.86
426.548	58.03
426.756	21.16
426.964	113.32
427.171	41.64
427.379	98.99
427.586	31.4
427.794	101.03
428.001	144.04
428.209	84.65
428.417	189.1
428.624	101.03
428.832	150.18
429.039	156.33
429.247	74.41
429.454	101.03
429.662	232.1
429.869	158.38
430.076	148.14
430.284	135.85
430.491	195.24
430.699	152.23
430.906	166.57
431.114	105.13
431.321	152.23
431.528	92.84
431.736	166.57
431.943	170.66
432.15	195.24
432.358	176.81
432.565	307.88
432.772	70.31
432.979	172.71
433.187	78.51
433.394	293.54
433.601	107.18
433.808	187.05
434.016	244.39
434.223	246.44
434.43	203.43
434.637	230.06
434.844	316.07
435.052	266.92
435.259	258.73
435.466	275.11
435.673	234.15
435.88	291.49
436.087	361.13
436.294	324.26
436.501	340.65
436.708	242.34
436.915	289.45
437.122	340.65
437.329	346.79
437.537	393.89
437.743	367.27
437.95	432.8
438.157	445.09
438.364	338.6
438.571	402.08
438.778	461.48
438.985	457.38
439.192	481.96
439.399	506.53
439.606	559.78
439.813	549.54
440.02	643.74
440.227	744.1
440.433	598.69
440.64	557.73
440.847	547.49
441.054	664.22
441.261	690.85
441.467	721.57
441.674	688.8
441.881	830.11
442.088	598.69
442.294	778.91
442.501	860.83
442.708	903.84
442.914	854.69
443.121	996
443.328	985.76
443.534	1039
443.741	932.51
443.948	905.88
444.154	1090.2
444.361	1274.52
444.568	1143.45
444.774	1251.99
444.981	1092.25
445.187	1356.44
445.394	1340.05
445.6	1299.09
445.807	1501.84
446.013	1442.45
446.22	1417.88
446.426	1594
446.633	1743.5
446.839	1870.48
447.046	1696.4
447.252	1761.94
447.459	1864.33
447.665	1866.38
447.871	2083.47
448.078	2185.87
448.284	2071.18
448.491	2153.1
448.697	2450.05
448.903	2413.19
449.11	2562.69
449.316	2400.9
449.522	2787.97
449.728	2767.49
449.935	2937.47
450.141	2847.36
450.347	3224.19
450.553	3033.72
450.76	3189.37
450.966	3320.44
451.172	3498.61
451.378	3641.97
451.584	3555.96
451.791	3887.73
451.997	3967.6
452.203	4158.06
452.409	4307.56
452.615	4354.66
452.821	4346.47
453.027	4602.47
453.233	5141.08
453.44	4792.93
453.646	5061.21
453.852	5372.5
454.058	5628.5
454.264	5632.6
454.47	6146.64
454.676	6120.01
454.882	6656.58
455.088	6548.04
455.294	6668.87
455.5	7152.19
455.705	7539.26
455.911	7746.1
456.117	7903.79
456.323	8014.38
456.529	8194.61
456.735	8772.13
456.941	9007.65
457.147	9417.24
457.352	9437.72
457.558	9685.53
457.764	10418.7
457.97	10467.85
458.176	11049.47
458.381	11923.96
458.587	11823.61
458.793	12655.08
458.999	12653.03
459.204	13967.83
459.41	14672.33
459.616	14414.29
459.821	15147.46
460.027	15985.08
460.233	16529.84
460.438	16683.44
460.644	17670.56
460.85	17752.48
461.055	18411.92
461.261	19632.51
461.466	18792.84
461.672	19427.71
461.878	21707.1
462.083	21379.43
462.289	21842.27
462.494	22933.84
462.7	22903.12
462.905	22913.36
463.111	25026.86
463.316	26380.57
463.522	26974.48
463.727	27891.97
463.932	28774.64
464.138	29636.84
464.343	30841.04
464.549	30798.04
464.754	33296.56
464.959	34087.07
465.165	34431.13
465.37	34416.8
465.575	34769.05
465.781	37103.73
465.986	38152.29
466.191	37146.74
466.397	37445.74
466.602	36681.85
466.807	38733.92
467.012	39565.39
467.218	40470.59
467.423	40122.44
467.628	41562.16
467.833	43397.14
468.038	42629.15
468.244	41912.36
468.449	44318.73
468.654	42911.77
468.859	43307.03
469.064	43255.83
469.269	42373.16
469.474	42397.73
469.679	44040.2
469.885	42842.14
470.09	42977.31
470.295	43417.62
470.5	42266.66
470.705	42954.78
470.91	41728.05
471.115	41326.64
471.32	41879.6
471.525	41730.09
471.73	40497.22
471.935	40177.73
472.139	38658.14
472.344	38592.61
472.549	38410.34
472.754	37933.16
472.959	36896.89
473.164	35707.02
473.369	35475.6
473.574	36296.83
473.778	35506.32
473.983	35033.24
474.188	34441.37
474.393	32850.1
474.598	32542.91
474.802	31832.26
475.007	31340.75
475.212	31090.9
475.417	29898.98
475.621	29892.83
475.826	29399.27
476.031	28225.79
476.235	27963.65
476.44	28033.28
476.645	27754.76
476.849	27199.76
477.054	26786.07
477.259	26167.58
477.463	26153.24
477.668	25375.02
477.872	25401.64
478.077	24781.1
478.282	23937.34
478.486	23771.46
478.691	23513.41
478.895	23593.28
479.1	23173.45
479.304	23054.67
479.509	22339.93
479.713	22673.74
479.918	21965.15
480.122	21875.04
480.326	21596.51
480.531	21961.05
480.735	21487.97
480.94	21068.14
481.144	21891.42
481.348	20283.77
481.553	20515.19
481.757	20193.65
481.961	20326.77
482.166	20693.36
482.37	20040.06
482.574	19509.63
482.778	19616.13
482.983	19814.78
483.187	19601.79
483.391	19513.73
483.595	18887.05
483.8	18657.68
484.004	18921.87
484.208	18946.44
484.412	18473.36
484.616	18305.43
484.821	18153.88
485.025	17674.65
485.229	17953.18
485.433	17287.59
485.637	17338.79
485.841	17160.61
486.045	17025.45
486.249	17070.5
486.453	16335.28
486.657	16421.3
486.861	16054.71
487.065	15350.21
487.269	15626.68
487.473	14983.62
487.677	15159.75
487.881	15151.56
488.085	14698.95
488.289	14520.78
488.493	14215.63
488.697	14131.67
488.901	13765.08
489.105	13412.83
489.309	13134.31
489.512	13246.94
489.716	12831.21
489.92	12567.02
490.124	12345.84
490.328	12421.61
490.531	11770.36
490.735	11950.58
490.939	11565.56
491.143	11182.59
491.346	11145.73
491.55	11149.82
491.754	10891.78
491.958	10740.23
492.161	10367.5
492.365	10383.88
492.569	10039.83
492.772	10011.15
492.976	9951.76
493.18	9679.38
493.383	9773.59
493.587	9589.27
493.79	9630.23
493.994	9024.03
494.197	9173.53
494.401	9202.21
494.605	9124.38
494.808	9062.94
495.012	8870.44
495.215	8684.07
495.419	8827.43
495.622	8720.93
495.825	8669.73
496.029	8622.63
496.232	8802.85
496.436	8569.38
496.639	8593.96
496.843	8393.26
497.046	8647.21
497.249	8772.13
497.453	8645.16
497.656	8483.37
497.859	8659.49
498.063	8679.97
498.266	8833.57
498.469	8591.91
498.673	8509.99
498.876	8780.32
499.079	8729.13
499.282	8532.52
499.485	9009.7
499.689	8888.87
499.892	9034.27
500.095	8931.87
500.298	9161.25
500.501	8927.78
500.705	9464.35
500.908	9314.84
501.111	9294.36
501.314	9296.41
501.517	9540.12
501.72	9495.07
501.923	9738.77
502.126	9865.75
502.329	10015.25
502.532	9900.56
502.735	10107.41
502.938	10596.87
503.141	10353.16
503.344	10291.73
503.547	10748.42
503.75	10650.12
503.953	10881.54
504.156	11067.91
504.359	11311.61
504.562	11338.24
504.765	11491.84
504.968	11723.26
505.17	12073.46
505.373	11969.01
505.576	12358.13
505.779	12427.76
505.982	12607.98
506.185	13351.39
506.387	12962.28
506.59	13271.52
506.793	13750.74
506.996	13697.5
507.198	14195.15
507.401	14252.5
507.604	14586.32
507.807	15024.58
508.009	15356.35
508.212	15460.8
508.415	15851.96
508.617	16179.64
508.82	16189.88
509.022	16671.15
509.225	17232.29
509.428	17656.22
509.63	17672.6
509.833	18123.16
510.035	19089.8
510.238	18909.58
510.44	19440
510.643	19831.16
510.845	20373.88
511.048	20418.93
511.25	21086.57
511.453	21608.8
511.655	22335.83
511.858	22825.29
512.06	23136.59
512.262	23325
512.465	23904.57
512.667	24385.85
512.87	25164.07
513.072	25753.89
513.274	26530.07
513.477	26939.66
513.679	27388.17
513.881	28082.43
514.084	28836.08
514.286	29298.92
514.488	29874.4
514.69	31074.51
514.893	31307.98
515.095	31981.76
515.297	32508.09
515.499	33261.74
515.701	34019.49
515.904	34662.55
516.106	35369.1
516.308	36081.8
516.51	36823.16
516.712	37361.78
516.914	37972.07
517.116	39139.41
517.318	39385.17
517.52	40349.76
517.722	40478.78
517.925	41916.46
518.127	42479.65
518.329	43507.73
518.531	43431.96
518.733	44488.71
518.935	45332.47
519.136	45869.04
519.338	46819.3
519.54	47347.67
519.742	47960.01
519.944	48625.6
520.146	49981.36
520.348	50063.28
520.55	50907.04
520.752	51427.23
520.954	52555.66
521.155	52629.38
521.357	53458.81
521.559	53493.63
521.761	55189.34
521.963	54714.22
522.164	55396.19
522.366	55396.19
522.568	56166.23
522.77	56346.45
522.971	57646.91
523.173	56891.21
523.375	57806.65
523.576	58152.76
523.778	58126.13
523.98	58978.09
524.181	58779.43
524.383	59139.88
524.584	59168.55
524.786	59440.93
524.988	59330.34
525.189	59782.94
525.391	60020.5
525.592	59766.55
525.794	59791.13
525.995	59672.35
526.197	59701.02
526.398	59553.57
526.6	59899.67
526.801	59236.13
527.003	59860.76
527.204	59004.71
527.406	59989.78
527.607	59119.4
527.808	59182.88
528.01	57812.79
528.211	57911.09
528.412	58455.85
528.614	57431.87
528.815	57259.84
529.016	57386.81
529.218	55936.85
529.419	56049.49
529.62	55381.85
529.822	55220.06
530.023	54478.7
530.224	53946.23
530.425	53673.85
530.626	52479.88
530.828	52023.18
531.029	52461.45
531.23	51337.12
531.431	50839.46
531.632	50431.91
531.833	50038.7
532.035	49321.91
532.236	49057.73
532.437	48728
532.638	47863.76
532.839	47321.05
533.04	46782.43
533.241	45744.11
533.442	46505.96
533.643	44922.88
533.844	44535.81
534.045	44177.42
534.246	42915.87
534.447	42473.51
534.648	42158.12
534.849	41633.84
535.05	40951.87
535.251	40644.67
535.451	40097.86
535.652	39331.92
535.853	38983.77
536.054	38312.03
536.255	37679.21
536.456	36829.3
536.657	37171.32
536.857	36044.93
537.058	35866.76
537.259	35651.72
537.46	34975.89
537.66	34252.96
537.861	34396.32
538.062	33239.22
538.263	33138.86
538.463	32561.34
538.664	32749.75
538.865	32151.74
539.065	31600.84
539.266	30839
539.466	31088.85
539.667	29790.44
539.868	30126.3
540.068	29589.74
540.269	29352.17
540.469	29006.06
540.67	28702.96
540.87	28346.62
541.071	27992.32
541.271	27928.83
541.472	27500.81
541.672	27142.41
541.873	26546.45
542.073	26353.94
542.274	26550.55
542.474	25837.86
542.675	25561.38
542.875	25350.44
543.075	25063.72
543.276	24426.81
543.476	24613.17
543.676	24140.09
543.877	24254.78
544.077	23710.02
544.277	23013.71
544.478	23064.91
544.678	23038.28
544.878	22577.49
545.078	22419.8
545.279	22128.99
545.479	21649.76
545.679	21700.96
545.879	21287.27
546.079	21379.43
546.28	20787.57
546.48	20322.68
546.68	20586.86
546.88	20431.22
547.08	19929.47
547.28	19620.22
547.48	19241.35
547.68	19310.98
547.88	19034.5
548.081	18692.49
548.281	18454.93
548.481	18143.64
548.681	18211.22
548.881	17879.45
549.081	17697.18
549.28	17113.51
549.48	17414.56
549.68	17039.78
549.88	16877.99
550.08	16255.41
550.28	16390.58
550.48	16185.78
550.68	15866.3
550.88	15542.72
551.08	15489.47
551.279	15440.32
551.479	14760.39
551.679	14746.06
551.879	14408.14
552.079	14301.65
552.278	14234.07
552.478	14143.95
552.678	13677.02
552.878	13660.63
553.077	13339.1
553.277	12863.97
553.477	13050.34
553.676	12626.41
553.876	12450.28
554.076	12001.78
554.275	12222.96
554.475	11821.56
554.674	11799.03
554.874	11624.95
555.074	11403.77
555.273	11024.9
555.473	11160.06
555.672	10807.81
555.872	10727.94
556.071	10600.97
556.271	10469.9
556.47	10031.63
556.67	9941.52
556.869	9744.92
557.068	9716.25
557.268	9552.41
557.467	9607.7
557.667	9280.03
557.866	9067.04
558.065	8890.91
558.265	8860.2
558.464	8520.23
558.663	8620.58
558.863	8258.09
559.062	8483.37
559.261	8090.16
559.461	8153.65
559.66	7848.5
559.859	7752.24
560.058	7490.1
560.258	7543.35
560.457	7373.37
560.656	7436.86
560.855	7039.55
561.054	7035.46
561.253	6855.23
561.453	6703.68
561.652	6664.77
561.851	6797.89
562.05	6505.03
562.249	6466.12
562.448	6361.67
562.647	6140.49
562.846	6040.14
563.045	6122.06
563.244	5904.98
563.443	5937.74
563.642	5657.17
563.841	5800.53
564.04	5548.63
564.239	5591.64
564.438	5425.75
564.637	5233.24
564.836	5311.07
565.035	5126.75
565.234	5216.86
565.432	5071.45
565.631	4983.39
565.83	4993.63
566.029	4682.34
566.228	4731.49
566.427	4774.5
566.625	4502.12
566.824	4440.68
567.023	4559.46
567.222	4387.43
567.42	4452.97
567.619	4291.18
567.818	4133.48
568.016	4219.5
568.215	4244.07
568.414	4239.98
568.612	4110.96
568.811	4008.56
569.01	3912.3
569.208	3775.09
569.407	3869.3
569.605	3906.16
569.804	3760.75
570.002	3594.87
570.201	3637.88
570.4	3576.44
570.598	3457.65
570.797	3451.51
570.995	3183.23
571.193	3236.47
571.392	3324.54
571.59	3203.71
571.789	3236.47
571.987	3224.19
572.186	3213.95
572.384	3060.35
572.582	3107.45
572.781	3070.59
572.979	2824.83
573.177	2810.5
573.376	2747.01
573.574	2869.89
573.772	2830.98
573.971	2650.75
574.169	2675.33
574.367	2691.71
574.565	2697.86
574.763	2491.01
574.962	2466.44
575.16	2441.86
575.358	2343.56
575.556	2275.98
575.754	2271.88
575.952	2316.94
576.151	2241.16
576.349	2339.46
576.547	2134.67
576.745	2206.35
576.943	2144.91
577.141	2097.8
577.339	1968.78
577.537	1999.5
577.735	2155.15
577.933	2026.12
578.131	1929.87
578.329	2101.9
578.527	1788.56
578.725	1890.96
578.923	1772.18
579.121	1788.56
579.319	1657.49
579.516	1761.94
579.714	1907.34
579.912	1673.87
580.11	1536.66
580.308	1628.82
580.506	1495.7
580.704	1413.78
580.901	1432.21
581.099	1647.25
581.297	1499.8
581.495	1481.36
581.692	1426.07
581.89	1536.66
582.088	1432.21
582.285	1331.86
582.483	1370.77
582.681	1454.74
582.878	1254.04
583.076	1280.66
583.274	1315.48
583.471	1385.11
583.669	1217.18
583.866	1227.42
584.064	1297.05
584.262	1180.31
584.459	1243.8
584.657	1297.05
584.854	1215.13
585.052	1239.7
585.249	1108.63
585.447	1051.29
585.644	1006.24
585.841	1043.1
586.039	1110.68
586.236	1118.87
586.434	963.23
586.631	893.6
586.828	1000.09
587.026	973.47
587.223	909.98
587.42	940.7
587.618	987.8
587.815	1059.48
588.012	1039
588.21	928.41
588.407	944.8
588.604	1034.91
588.801	832.16
588.999	903.84
589.196	1010.33
589.393	807.58
589.59	830.11
589.787	955.04
589.984	881.31
590.182	869.02
590.379	760.48
590.576	864.93
590.773	852.64
590.97	836.25
591.167	836.25
591.364	832.16
591.561	703.14
591.758	940.7
591.955	823.97
592.152	897.69
592.349	733.86
592.546	762.53
592.743	754.34
592.94	795.29
593.137	826.01
593.334	887.45
593.531	826.01
593.727	854.69
593.924	844.45
594.121	830.11
594.318	723.62
594.515	973.47
594.712	1020.57
594.908	944.8
595.105	746.14
595.302	842.4
595.499	928.41
595.696	926.36
595.892	826.01
596.089	971.42
596.286	963.23
596.482	985.76
596.679	998.04
596.876	871.07
597.072	1157.79
597.269	996
597.466	1026.72
597.662	1065.63
597.859	1012.38
598.055	1168.02
598.252	1155.74
598.448	1290.9
598.645	1286.81
598.841	1278.62
599.038	1505.94
599.234	1567.38
599.431	1411.73
599.627	1516.18
599.824	1614.48
600.02	1512.08
600.217	1606.29
600.413	1680.02
600.609	1790.61
600.806	2007.69
601.002	2005.64
601.198	1927.82
601.395	2075.28
601.591	2140.81
601.787	2210.44
601.984	2388.61
602.18	2407.05
602.376	2359.94
602.572	2675.33
602.769	2790.02
602.965	2747.01
603.161	2914.94
603.357	3019.39
603.553	3064.44
603.75	3154.55
603.946	3193.47
604.142	3512.95
604.338	3607.16
604.534	3508.85
604.73	3703.41
604.926	3914.35
605.122	4026.99
605.318	4141.68
605.514	4280.94
605.71	4264.55
605.906	4704.87
606.102	4563.56
606.298	4880.99
606.494	5048.93
606.69	5177.95
606.886	5268.06
607.082	5263.96
607.278	5325.4
607.474	5548.63
607.67	5943.89
607.866	5896.78
608.062	6177.36
608.257	6419.02
608.453	6396.49
608.649	6732.36
608.845	6804.03
609.041	6900.29
609.236	7277.12
609.432	7344.7
609.628	7748.15
609.824	7860.79
610.019	8051.25
610.215	8190.51
610.411	8614.44
610.606	8915.49
610.802	8835.62
610.998	9153.06
611.193	9470.49
611.389	9581.08
611.584	9837.08
611.78	10037.78
611.976	10437.13
612.171	10828.29
612.367	11147.78
612.562	11207.17
612.758	11543.03
612.953	11770.36
613.149	12155.38
613.344	12407.28
613.539	12685.8
613.735	13064.68
613.93	13468.13
614.126	13681.11
614.321	14135.76
614.517	14686.67
614.712	14744.01
614.907	15278.53
615.103	15792.57
615.298	15948.22
615.493	16480.69
615.688	16781.74
615.884	17437.09
616.079	17492.38
616.274	18420.11
616.47	18330
616.665	19200.39
616.86	19786.11
617.055	19896.7
617.25	20490.61
617.445	21414.24
617.641	21332.33
617.836	22131.03
618.031	22319.45
618.226	23177.55
618.421	23574.85
618.616	24516.92
618.811	24555.83
619.006	25506.09
619.201	25403.69
619.396	26503.45
619.591	26474.77
619.786	27521.29
619.981	27805.95
620.176	28623.09
620.371	29112.56
620.566	29802.72
620.761	30058.72
620.956	31490.25
621.151	31445.19
621.346	32413.88
621.541	32733.37
621.735	33986.72
621.93	33802.41
622.125	34963.61
622.32	34893.97
622.515	35883.14
622.709	36653.18
622.904	37277.81
623.099	37869.67
623.294	38510.69
623.488	38899.8
623.683	39802.96
623.878	40087.62
624.072	41031.74
624.267	41660.46
624.462	42641.44
624.656	42690.59
624.851	43851.79
625.046	43913.23
625.24	44797.95
625.435	45082.62
625.629	45754.35
625.824	46469.09
626.018	47200.22
626.213	46925.79
626.407	48066.51
626.602	47874
626.796	49188.8
626.991	49672.12
627.185	49862.58
627.38	50094
627.574	50200.49
627.768	50378.67
627.963	50730.92
628.157	50780.07
628.352	51828.63
628.546	50952.1
628.74	51693.46
628.935	50853.79
629.129	51615.64
629.323	50659.24
629.517	50632.61
629.712	50909.09
629.906	50497.45
630.1	49475.51
630.294	49328.06
630.489	48607.17
630.683	48453.58
630.877	47364.06
631.071	46622.69
631.265	46231.53
631.459	45125.63
631.653	44259.34
631.848	43567.12
632.042	42225.7
632.236	41437.23
632.43	40075.34
632.624	39295.06
632.818	38238.31
633.012	36833.4
633.206	35631.24
633.4	35315.86
633.594	33577.13
633.788	32690.36
633.982	31527.11
634.176	30398.68
634.369	29425.9
634.563	28256.51
634.757	27296.01
634.951	26286.36
635.145	25391.4
635.339	24283.45
635.533	23267.66
635.726	22335.83
635.92	21289.32
636.114	20402.55
636.308	19755.39
636.501	19149.19
636.695	18155.93
636.889	17394.08
637.083	16652.72
637.276	15940.02
637.47	15342.02
637.664	14709.19
637.857	14146
638.051	13410.78
638.244	13287.9
638.438	12452.33
638.632	12241.39
638.825	11436.54
639.019	11092.48
639.212	10469.9
639.406	10197.52
639.599	9665.05
639.793	9753.11
639.986	9171.49
640.18	8745.51
640.373	8432.17
640.567	7977.52
640.76	7766.58
640.954	7557.69
641.147	7146.05
641.34	6795.84
641.534	6521.42
641.727	6556.23
641.92	6189.64
642.114	6007.38
642.307	5735
642.5	5487.19
642.694	5143.13
642.887	5016.16
643.08	4995.68
643.273	4848.22
643.467	4444.77
643.66	4307.56
643.853	4033.13
644.046	4127.34
644.239	3709.55
644.432	3730.03
644.626	3381.88
644.819	3400.31
645.012	3275.38
645.205	3254.9
645.398	3197.56
645.591	2900.61
645.784	2660.99
645.977	2613.89
646.17	2701.95
646.363	2448.01
646.556	2316.94
646.749	2149
646.942	2278.02
647.135	2306.7
647.328	2044.56
647.521	2048.65
647.714	1874.57
647.907	1956.49
648.099	1774.22
648.292	1735.31
648.485	1581.71
648.678	1493.65
648.871	1432.21
649.064	1526.42
649.256	1372.82
649.449	1317.53
649.642	1284.76
649.835	1223.32
650.027	1106.59
650.22	1235.61
650.413	1190.55
650.605	1149.59
650.798	1014.43
650.991	1028.76
651.183	858.78
651.376	985.76
651.568	959.13
651.761	834.21
651.954	955.04
652.146	815.77
652.339	864.93
652.531	858.78
652.724	670.37
652.916	670.37
653.109	633.51
653.301	711.33
653.494	719.52
653.686	686.75
653.879	701.09
654.071	588.45
654.263	535.2
654.456	522.91
654.648	666.27
654.84	606.88
655.033	481.96
655.225	670.37
655.417	330.41
655.61	580.26
655.802	516.77
655.994	621.22
656.186	391.84
656.379	522.91
656.571	354.98
656.763	434.85
656.955	322.21
657.148	375.46
657.34	565.92
657.532	383.65
657.724	332.45
657.916	414.37
658.108	422.56
658.3	357.03
658.492	377.51
658.684	275.11
658.876	316.07
659.068	244.39
659.26	166.57
659.452	215.72
659.644	336.55
659.836	332.45
660.028	217.77
660.22	324.26
660.412	262.82
660.604	225.96
660.796	223.91
660.988	303.78
661.18	236.2
661.372	295.59
661.563	264.87
661.755	215.72
661.947	178.86
662.139	221.86
662.331	326.31
662.522	152.23
662.714	174.76
662.906	185
663.097	228.01
663.289	176.81
663.481	105.13
663.673	242.34
663.864	178.86
664.056	238.25
664.247	146.09
664.439	336.55
664.631	174.76
664.822	258.73
665.014	137.9
665.205	119.46
665.397	185
665.588	187.05
665.78	121.51
665.971	240.3
666.163	49.83
666.354	137.9
666.546	19.11
666.737	80.55
666.929	129.7
667.12	64.17
667.311	158.38
667.503	107.18
667.694	166.57
667.885	164.52
668.077	105.13
668.268	72.36
668.459	127.66
668.651	144.04
668.842	195.24
669.033	21.16
669.224	58.03
669.416	277.16
669.607	29.35
669.798	74.41
669.989	203.43
670.18	72.36
670.371	178.86
670.563	76.46
670.754	203.43
670.945	146.09
671.136	129.7
671.327	64.17
671.518	160.42
671.709	240.3
671.9	162.47
672.091	240.3
672.282	60.07
672.473	105.13
672.664	84.65
672.855	80.55
673.046	90.79
673.237	158.38
673.428	135.85
673.619	203.43
673.809	144.04
674	244.39
674.191	197.29
674.382	123.56
674.573	86.7
674.764	33.45
674.954	189.1
675.145	-11.61
675.336	88.75
675.527	-19.8
675.717	37.55
675.908	148.14
676.099	121.51
676.289	123.56
676.48	-5.46
676.671	31.4
676.861	111.27
677.052	101.03
677.243	129.7
677.433	103.08
677.624	182.95
677.814	170.66
678.005	84.65
678.195	258.73
678.386	45.74
678.576	66.22
678.767	17.07
678.957	98.99
679.148	96.94
679.338	254.63
679.529	215.72
679.719	90.79
679.909	260.77
680.1	199.34
680.29	144.04
680.481	31.4
680.671	127.66
680.861	223.91
681.052	117.42
681.242	66.22
681.432	232.1
681.622	117.42
681.813	129.7
682.003	90.79
682.193	86.7
682.383	90.79
682.573	191.14
682.764	35.5
682.954	127.66
683.144	158.38
683.334	154.28
683.524	170.66
683.714	133.8
683.904	164.52
684.094	146.09
684.284	170.66
684.474	228.01
684.664	242.34
684.854	185
685.044	180.9
685.234	152.23
685.424	189.1
685.614	193.19
685.804	326.31
685.994	250.53
686.184	105.13
686.374	170.66
686.564	176.81
686.753	176.81
686.943	86.7
687.133	66.22
687.323	133.8
687.513	193.19
687.702	182.95
687.892	117.42
688.082	203.43
688.272	295.59
688.461	201.38
688.651	219.82
688.841	164.52
689.03	58.03
689.22	103.08
689.41	213.67
689.599	121.51
689.789	92.84
689.979	217.77
690.168	148.14
690.358	230.06
690.547	105.13
690.737	178.86
690.926	234.15
691.116	213.67
691.305	187.05
691.495	256.68
691.684	121.51
691.874	64.17
692.063	185
692.252	201.38
692.442	158.38
692.631	162.47
692.82	148.14
693.01	178.86
693.199	68.27
693.388	133.8
693.578	115.37
693.767	287.4
693.956	271.01
694.146	178.86
694.335	203.43
694.524	113.32
694.713	236.2
694.902	121.51
695.092	43.69
695.281	166.57
695.47	209.58
695.659	133.8
695.848	213.67
696.037	98.99
696.226	127.66
696.415	209.58
696.604	258.73
696.793	209.58
696.982	10.92
697.171	303.78
697.36	123.56
697.549	127.66
697.738	12.97
697.927	146.09
698.116	111.27
698.305	166.57
698.494	109.23
698.683	29.35
698.872	330.41
699.061	49.83
699.25	164.52
699.438	88.75
699.627	94.89
699.816	361.13
700.005	27.31
700.193	156.33
700.382	164.52
700.571	166.57
700.76	189.1
700.948	244.39
701.137	236.2
701.326	187.05
701.514	90.79
701.703	156.33
701.892	182.95
702.08	318.12
702.269	168.62
702.457	123.56
702.646	117.42
702.834	154.28
703.023	252.58
703.212	160.42
703.4	191.14
703.589	76.46
703.777	96.94
703.965	94.89
704.154	119.46
704.342	37.55
704.531	152.23
704.719	127.66
704.907	189.1
705.096	90.79
705.284	68.27
705.472	137.9
705.661	172.71
705.849	117.42
706.037	303.78
706.226	187.05
706.414	185
706.602	185
706.79	189.1
706.979	133.8
707.167	199.34
707.355	-25.94
707.543	172.71
707.731	180.9
707.919	133.8
708.107	123.56
708.296	35.5
708.484	8.87
708.672	189.1
708.86	178.86
709.048	156.33
709.236	86.7
709.424	172.71
709.612	195.24
709.8	62.12
709.988	170.66
710.176	225.96
710.364	236.2
710.551	98.99
710.739	84.65
710.927	58.03
711.115	213.67
711.303	205.48
711.491	250.53
711.679	119.46
711.866	156.33
712.054	84.65
712.242	160.42
712.43	234.15
712.617	80.55
712.805	178.86
712.993	209.58
713.181	-34.13
713.368	221.86
713.556	139.94
713.744	62.12
713.931	316.07
714.119	254.63
714.306	172.71
714.494	148.14
714.682	139.94
714.869	62.12
715.057	166.57
715.244	-58.71
715.432	178.86
715.619	41.64
715.807	62.12
715.994	60.07
716.182	107.18
716.369	166.57
716.556	244.39
716.744	72.36
716.931	43.69
717.119	230.06
717.306	166.57
717.493	199.34
717.681	123.56
717.868	117.42
718.055	254.63
718.242	209.58
718.43	211.62
718.617	271.01
718.804	168.62
718.991	273.06
719.179	180.9
719.366	170.66
719.553	137.9
719.74	152.23
719.927	160.42
720.114	139.94
720.301	127.66
720.488	111.27
720.676	86.7
720.863	254.63
721.05	221.86
721.237	203.43
721.424	166.57
721.611	74.41
721.798	80.55
721.985	129.7
722.172	168.62
722.358	129.7
722.545	238.25
722.732	185
722.919	316.07
723.106	225.96
723.293	160.42
723.48	246.44
723.667	123.56
723.853	180.9
724.04	144.04
724.227	238.25
724.414	141.99
724.6	150.18
724.787	271.01
724.974	275.11
725.161	213.67
725.347	172.71
725.534	154.28
725.72	248.49
725.907	205.48
726.094	295.59
726.28	119.46
726.467	125.61
726.653	62.12
726.84	285.35
727.027	246.44
727.213	264.87
727.4	252.58
727.586	205.48
727.773	230.06
727.959	117.42
728.145	246.44
728.332	160.42
728.518	107.18
728.705	178.86
728.891	213.67
729.077	182.95
729.264	82.6
729.45	176.81
729.636	228.01
729.823	219.82
730.009	209.58
730.195	223.91
730.382	225.96
730.568	176.81
730.754	187.05
730.94	201.38
731.126	303.78
731.313	82.6
731.499	238.25
731.685	209.58
731.871	275.11
732.057	199.34
732.243	277.16
732.429	133.8
732.615	236.2
732.801	232.1
732.987	146.09
733.173	205.48
733.359	230.06
733.545	225.96
733.731	164.52
733.917	273.06
734.103	178.86
734.289	234.15
734.475	127.66
734.661	295.59
734.847	283.3
735.033	266.92
735.219	209.58
735.404	176.81
735.59	139.94
735.776	152.23
735.962	84.65
736.148	250.53
736.333	193.19
736.519	238.25
736.705	207.53
736.89	199.34
737.076	146.09
737.262	189.1
737.447	170.66
737.633	146.09
737.819	262.82
738.004	139.94
738.19	195.24
738.375	182.95
738.561	219.82
738.747	195.24
738.932	72.36
739.118	279.21
739.303	289.45
739.489	277.16
739.674	164.52
739.859	209.58
740.045	146.09
740.23	205.48
740.416	41.64
740.601	209.58
740.786	262.82
740.972	21.16
741.157	137.9
741.342	156.33
741.528	111.27
741.713	285.35
741.898	146.09
742.084	215.72
742.269	197.29
742.454	111.27
742.639	238.25
742.824	174.76
743.01	256.68
743.195	262.82
743.38	197.29
743.565	199.34
743.75	82.6
743.935	170.66
744.12	260.77
744.305	152.23
744.49	115.37
744.675	158.38
744.86	154.28
745.045	217.77
745.23	211.62
745.415	141.99
745.6	162.47
745.785	144.04
745.97	291.49
746.155	199.34
746.34	232.1
746.525	137.9
746.71	232.1
746.895	103.08
747.079	133.8
747.264	115.37
747.449	199.34
747.634	215.72
747.819	127.66
748.003	150.18
748.188	58.03
748.373	252.58
748.557	144.04
748.742	119.46
748.927	191.14
749.111	146.09
749.296	103.08
749.481	121.51
749.665	191.14
749.85	119.46
750.034	211.62
750.219	189.1
750.404	275.11
750.588	152.23
750.773	154.28
750.957	185
751.141	199.34
751.326	232.1
751.51	-7.51
751.695	141.99
751.879	150.18
752.064	318.12
752.248	131.75
752.432	213.67
752.617	94.89
752.801	187.05
752.985	144.04
753.17	236.2
753.354	164.52
753.538	172.71
753.722	152.23
753.907	137.9
754.091	0.68
754.275	178.86
754.459	70.31
754.643	88.75
754.828	170.66
755.012	150.18
755.196	6.83
755.38	131.75
755.564	62.12
755.748	127.66
755.932	156.33
756.116	168.62
756.3	111.27
756.484	115.37
756.668	113.32
756.852	8.87
757.036	31.4
757.22	113.32
757.404	82.6
757.588	131.75
757.772	166.57
757.956	141.99
758.14	291.49
758.323	107.18
758.507	180.9
758.691	70.31
758.875	256.68
759.059	211.62
759.242	39.59
759.426	58.03
759.61	115.37
759.794	80.55
759.977	109.23
760.161	283.3
760.345	244.39
760.528	133.8
760.712	109.23
760.895	154.28
761.079	15.02
761.263	-46.42
761.446	17.07
761.63	62.12
761.813	203.43
761.997	-25.94
762.18	84.65
762.364	51.88
762.547	-17.75
762.731	82.6
762.914	109.23
763.098	41.64
763.281	55.98
763.464	10.92
763.648	92.84
763.831	21.16
764.015	2.73
764.198	113.32
764.381	53.93
764.564	43.69
764.748	98.99
764.931	88.75
765.114	115.37
765.297	129.7
765.481	45.74
765.664	27.31
765.847	82.6
766.03	193.19
766.213	-23.89
766.397	74.41
766.58	35.5
766.763	76.46
766.946	62.12
767.129	-48.47
767.312	41.64
767.495	-52.56
767.678	-9.56
767.861	72.36
768.044	58.03
768.227	62.12
768.41	0.68
768.593	90.79
768.776	137.9
768.959	-3.41
769.142	47.79
769.324	55.98
769.507	72.36
769.69	76.46
769.873	45.74
770.056	252.58
770.239	49.83
770.421	152.23
770.604	84.65
770.787	72.36
770.97	15.02
771.152	15.02
771.335	80.55
771.518	27.31
771.7	76.46
771.883	129.7
772.066	0.68
772.248	141.99
772.431	107.18
772.613	107.18
772.796	92.84
772.978	137.9
773.161	185
773.343	27.31
773.526	-17.75
773.708	-50.52
773.891	-1.37
774.073	12.97
774.256	-9.56
774.438	168.62
774.621	6.83
774.803	-13.65
774.985	53.93
775.168	90.79
775.35	-11.61
775.532	78.51
775.715	-9.56
775.897	25.26
776.079	10.92
776.261	41.64
776.444	47.79
776.626	96.94
776.808	29.35
776.99	-42.32
777.173	115.37
777.355	51.88
777.537	31.4
777.719	33.45
777.901	-1.37
778.083	-79.19
778.265	-30.04
778.447	133.8
778.629	6.83
778.811	80.55
778.993	125.61
779.175	53.93
779.357	-5.46
779.539	-38.23
779.721	29.35
779.903	90.79
780.085	49.83
780.267	31.4
780.449	86.7
780.631	33.45
780.812	141.99
780.994	-48.47
781.176	-17.75
781.358	-52.56
781.54	-15.7
781.721	68.27
781.903	78.51
782.085	6.83
782.267	45.74
782.448	-56.66
782.63	29.35
782.812	-44.37
782.993	-23.89
783.175	123.56
783.357	10.92
783.538	-17.75
783.72	-50.52
783.901	-13.65
784.083	45.74
784.264	43.69
784.446	-118.1
784.627	-77.14
784.809	115.37
784.99	-38.23
785.172	45.74
785.353	82.6
785.535	66.22
785.716	-27.99
785.897	6.83
786.079	4.78
786.26	43.69
786.441	74.41
786.623	-93.52
786.804	-32.08
786.985	-5.46
787.167	8.87
787.348	-68.95
787.529	-44.37
787.71	135.85
787.891	-27.99
788.073	-52.56
788.254	-60.76
788.435	111.27
788.616	-1.37
788.797	-32.08
788.978	-13.65
789.159	-25.94
789.34	66.22
789.522	98.99
789.703	-7.51
789.884	39.59
790.065	-32.08
790.246	195.24
790.427	64.17
790.607	86.7
790.788	144.04
790.969	-25.94
791.15	45.74
791.331	-11.61
791.512	-17.75
791.693	-11.61
791.874	-64.85
792.054	185
792.235	58.03
792.416	-44.37
792.597	-89.43
792.778	2.73
792.958	4.78
793.139	-36.18
793.32	0.68
793.5	-79.19
793.681	168.62
793.862	53.93
794.042	-17.75
794.223	-1.37
794.404	-3.41
794.584	-128.34
794.765	58.03
794.945	33.45
795.126	78.51
795.306	101.03
795.487	29.35
795.667	2.73
795.848	-21.84
796.028	-83.28
796.209	76.46
796.389	55.98
796.57	-27.99
796.75	-19.8
796.93	10.92
797.111	-95.57
797.291	-9.56
797.471	86.7
797.652	-58.71
797.832	4.78
798.012	41.64
798.192	25.26
798.373	-126.29
798.553	15.02
798.733	15.02
798.913	2.73
799.093	-17.75
799.274	60.07
799.454	55.98
799.634	10.92
799.814	23.21
799.994	21.16
800.174	58.03
800.354	2.73
800.534	-50.52
800.714	78.51
800.894	-40.28
801.074	-128.34
801.254	-40.28
801.434	94.89
801.614	-52.56
801.794	-122.2
801.974	1704.59
802.154	-15.7
802.334	103.08
802.514	-91.48
802.693	29.35
802.873	-87.38
803.053	49.83
803.233	64.17
803.413	-58.71
803.592	-50.52
803.772	-7.51
803.952	-48.47
804.131	-62.8
804.311	101.03
804.491	53.93
804.67	-66.9
804.85	-77.14
805.03	2.73
805.209	101.03
805.389	-9.56
805.568	-34.13
805.748	17.07
805.928	-38.23
806.107	33.45
806.287	-1.37
806.466	37.55
806.646	-42.32
806.825	-71
807.004	2.73
807.184	-3.41
807.363	49.83
807.543	29.35
807.722	-34.13
807.901	64.17
808.081	113.32
808.26	-136.53
808.439	-5.46
808.619	101.03
808.798	4.78
808.977	33.45
809.156	55.98
809.336	10.92
809.515	25.26
809.694	-89.43
809.873	-97.62
810.052	-36.18
810.231	27.31
810.411	-3.41
810.59	35.5
810.769	-3.41
810.948	33.45
811.127	-109.91
811.306	-93.52
811.485	-36.18
811.664	111.27
811.843	6.83
812.022	6.83
812.201	-58.71
812.38	-62.8
812.559	43.69
812.737	-32.08
812.916	-91.48
813.095	-163.15
813.274	37.55
813.453	15.02
813.632	53.93
813.811	58.03
813.989	-130.39
814.168	76.46
814.347	-140.63
814.526	31.4
814.704	33.45
814.883	23.21
815.062	-71
815.24	8.87
815.419	-93.52
815.598	45.74
815.776	-56.66
815.955	-64.85
816.133	-128.34
816.312	21.16
816.49	-9.56
816.669	-71
816.847	-38.23
817.026	12.97
817.204	70.31
817.383	-111.96
817.561	-124.24
817.74	-46.42
817.918	-1.37
818.097	-54.61
818.275	-75.09
818.453	-52.56
818.632	-27.99
818.81	-15.7
818.988	-87.38
819.167	-36.18
819.345	72.36
819.523	-83.28
819.701	-15.7
819.879	19.11
820.058	58.03
820.236	4.78
820.414	15.02
820.592	-48.47
820.77	-62.8
820.948	-36.18
821.127	-93.52
821.305	-9.56
821.483	-114
821.661	19.11
821.839	8.87
822.017	-105.81
822.195	-21.84
822.373	94.89
822.551	8.87
822.729	35.5
822.907	-15.7
823.085	45.74
823.262	12.97
823.44	-95.57
823.618	-30.04
823.796	-44.37
823.974	-9.56
824.152	-105.81
824.329	-1.37
824.507	-11.61
824.685	43.69
824.863	-3.41
825.04	-42.32
825.218	43.69
825.396	25.26
825.574	-15.7
825.751	60.07
825.929	39.59
826.107	-62.8
826.284	-52.56
826.462	43.69
826.639	-87.38
826.817	-42.32
826.994	-13.65
827.172	-103.76
827.349	62.12
827.527	-40.28
827.704	-34.13
827.882	-5.46
828.059	49.83
828.237	-44.37
828.414	12.97
828.591	-200.02
828.769	41.64
828.946	-58.71
829.124	72.36
829.301	10.92
829.478	-19.8
829.655	21.16
829.833	-23.89
830.01	-177.49
830.187	45.74
830.364	-40.28
830.542	-15.7
830.719	33.45
830.896	53.93
831.073	-5.46
831.25	17.07
831.427	78.51
831.604	-25.94
831.782	0.68
831.959	35.5
832.136	-118.1
832.313	-27.99
832.49	-122.2
832.667	31.4
832.844	-64.85
833.021	43.69
833.198	17.07
833.374	-17.75
833.551	-36.18
833.728	-81.24
833.905	47.79
834.082	-150.87
834.259	-52.56
834.436	125.61
834.612	-48.47
834.789	-34.13
834.966	-27.99
835.143	-21.84
835.319	-103.76
835.496	-34.13
835.673	-7.51
835.85	0.68
836.026	35.5
836.203	41.64
836.38	-44.37
836.556	-19.8
836.733	10.92
836.909	127.66
837.086	-81.24
837.262	-140.63
837.439	-11.61
837.616	-50.52
837.792	-25.94
837.968	74.41
838.145	-130.39
838.321	4.78
838.498	-73.04
838.674	43.69
838.851	-5.46
839.027	-64.85
839.203	-9.56
839.38	6.83
839.556	-15.7
839.732	94.89
839.909	-48.47
840.085	-36.18
840.261	-71
840.437	92.84
840.614	-71
840.79	21.16
840.966	19.11
841.142	27.31
841.318	29.35
841.494	12.97
841.671	129.7
841.847	-64.85
842.023	-118.1
842.199	23.21
842.375	82.6
842.551	-152.91
842.727	-48.47
842.903	90.79
843.079	-101.72
843.255	76.46
843.431	-54.61
843.607	25.26
843.783	-146.77
843.959	31.4
844.134	-91.48
844.31	6.83
844.486	-50.52
844.662	8.87
844.838	-62.8
845.013	0.68
845.189	15.02
845.365	-1.37
845.541	25.26
845.716	29.35
845.892	68.27
846.068	-23.89
846.244	-111.96
846.419	2.73
846.595	12.97
846.77	-122.2
846.946	53.93
847.122	-73.04
847.297	-89.43
847.473	72.36
847.648	-52.56
847.824	-19.8
847.999	-181.59
848.175	-58.71
848.35	35.5
848.526	60.07
848.701	19.11
848.876	62.12
849.052	37.55
849.227	-5.46
849.403	-62.8
849.578	2.73
849.753	-7.51
849.929	72.36
850.104	-126.29
850.279	-9.56
850.454	62.12
850.63	25.26
850.805	23.21
850.98	-75.09
851.155	-89.43
851.33	0.68
851.505	-97.62
851.681	72.36
851.856	-60.76
852.031	55.98
852.206	-40.28
852.381	-54.61
852.556	-56.66
852.731	-3.41
852.906	-11.61
853.081	-17.75
853.256	45.74
853.431	53.93
853.606	-126.29
853.781	-126.29
853.956	-134.48
854.131	70.31
854.305	-34.13
854.48	-81.24
854.655	-107.86
854.83	12.97
855.005	-142.68
855.18	-27.99
855.354	-15.7
855.529	0.68
855.704	-134.48
855.879	49.83
856.053	-66.9
856.228	-9.56
856.403	-58.71
856.577	43.69
856.752	-146.77
856.926	25.26
857.101	25.26
857.276	-114
857.45	-40.28
857.625	25.26
857.799	-34.13
857.974	-144.72
858.148	-56.66
858.323	21.16
858.497	-23.89
858.672	-66.9
858.846	-163.15
859.02	70.31
859.195	-79.19
859.369	-105.81
859.543	27.31
859.718	-62.8
859.892	-3.41
860.066	-27.99
860.241	-64.85
860.415	-75.09
860.589	-44.37
860.763	-21.84
860.938	-60.76
861.112	-13.65
861.286	-152.91
861.46	25.26
861.634	-91.48
861.808	21.16
861.982	2.73
862.157	-83.28
862.331	-50.52
862.505	-171.35
862.679	-128.34
862.853	-73.04
863.027	-1.37
863.201	109.23
863.375	-48.47
863.549	0.68
863.722	29.35
863.896	141.99
864.07	-97.62
864.244	-46.42
864.418	-38.23
864.592	31.4
864.766	-5.46
864.939	-19.8
865.113	-52.56
865.287	86.7
865.461	-150.87
865.634	-75.09
865.808	-42.32
865.982	-42.32
866.156	-81.24
866.329	-91.48
866.503	-50.52
866.676	27.31
866.85	-34.13
867.024	-66.9
867.197	-17.75
867.371	-32.08
867.544	-23.89
867.718	-91.48
867.891	64.17
868.065	-44.37
868.238	31.4
868.412	109.23
868.585	-32.08
868.759	-58.71
868.932	-99.67
869.105	-138.58
869.279	-46.42
869.452	-27.99
869.625	10.92
869.799	-36.18
869.972	-105.81
870.145	-7.51
870.319	37.55
870.492	-75.09
870.665	-95.57
870.838	-83.28
871.011	-152.91
871.185	-27.99
871.358	-97.62
871.531	-13.65
871.704	-130.39
871.877	23.21
872.05	15.02
872.223	-36.18
872.396	12.97
872.569	98.99
872.742	-163.15
872.915	2.73
873.088	-81.24
873.261	-64.85
873.434	72.36
873.607	-79.19
873.78	123.56
873.953	-128.34
874.126	-9.56
874.299	37.55
874.471	-73.04
874.644	-91.48
874.817	-7.51
874.99	103.08
875.163	-34.13
875.335	23.21
875.508	-77.14
875.681	66.22
875.853	-71
876.026	-42.32
876.199	78.51
876.371	-15.7
876.544	-46.42
876.717	0.68
876.889	-97.62
877.062	12.97
877.234	-38.23
877.407	-54.61
877.579	-25.94
877.752	43.69
877.924	80.55
878.097	-15.7
878.269	0.68
878.442	12.97
878.614	68.27
878.786	-11.61
878.959	-44.37
879.131	10.92
879.303	-109.91
879.476	-79.19
879.648	15.02
879.82	-5.46
879.993	-77.14
880.165	-154.96
880.337	-87.38
880.509	-9.56
880.681	-132.44
880.854	-175.44
881.026	31.4
881.198	119.46
881.37	-126.29
881.542	-66.9
881.714	-9.56
881.886	-7.51
882.058	-23.89
882.23	-23.89
882.402	-27.99
882.574	21.16
882.746	15.02
882.918	107.18
883.09	21.16
883.262	-9.56
883.434	23.21
883.606	-136.53
883.778	-52.56
883.95	127.66
884.122	-48.47
884.293	84.65
884.465	-3.41
884.637	12.97
884.809	-58.71
884.98	-38.23
885.152	47.79
885.324	47.79
885.496	-32.08
885.667	-40.28
885.839	-58.71
886.011	51.88
886.182	-62.8
886.354	127.66
886.525	-3.41
886.697	29.35
886.869	-175.44
887.04	23.21
887.212	21.16
887.383	144.04
887.555	-48.47
887.726	-17.75
887.897	-83.28
888.069	92.84
888.24	19.11
888.412	-42.32
888.583	-79.19
888.754	12.97
888.926	-163.15
889.097	-42.32
889.268	-171.35
889.44	-25.94
889.611	-134.48
889.782	-75.09
889.953	-27.99
890.125	78.51
890.296	-56.66
890.467	-114
890.638	-79.19
890.809	-48.47
890.98	-83.28
891.151	47.79
891.323	137.9
891.494	-60.76
891.665	-52.56
891.836	-85.33
892.007	21.16
892.178	-93.52
892.349	-5.46
892.52	-34.13
892.691	-93.52
892.862	-7.51
893.032	-103.76
893.203	-87.38
893.374	-32.08
893.545	37.55
893.716	-77.14
893.887	-17.75
894.057	-99.67
894.228	-105.81
894.399	-25.94
894.57	-9.56
894.74	64.17
894.911	17.07
895.082	-89.43
895.253	-83.28
895.423	-9.56
895.594	-13.65
895.764	84.65
895.935	-89.43
896.106	-5.46
896.276	-19.8
896.447	-15.7
896.617	-99.67
896.788	-144.72
896.958	-99.67
897.129	-42.32
897.299	-116.05
897.47	29.35
897.64	107.18
897.81	-71
897.981	-17.75
898.151	-105.81
898.322	-7.51
898.492	12.97
898.662	-56.66
898.832	-136.53
899.003	-34.13
899.173	41.64
899.343	-152.91
899.513	-87.38
