Data from USB4F104151__47__10-43-17-777.txt Node

Date: Wed Feb 26 10:43:17 EST 2025
User: louis
Spectrometer: USB4F10415
Trigger mode: 4
Integration Time (sec): 1.000000E-1
Scans to average: 1
Electric dark correction enabled: true
Nonlinearity correction enabled: false
Boxcar width: 0
XAxis mode: Wavelengths
Number of Pixels in Spectrum: 3648
>>>>>Begin Spectral Data<<<<<
178.204	-375.97
178.424	-375.97
178.644	-375.97
178.864	-449.7
179.084	-402.6
179.304	21.33
179.524	-50.35
179.744	31.57
179.964	19.29
180.184	-11.43
180.404	45.91
180.624	9.05
180.844	-29.87
181.064	-130.22
181.283	52.05
181.503	37.72
181.723	4.95
181.943	-111.78
182.163	244.56
182.383	-17.58
182.602	27.48
182.822	129.88
183.042	43.86
183.262	-1.19
183.482	15.19
183.701	76.63
183.921	97.11
184.141	-140.46
184.361	86.87
184.58	109.4
184.8	93.01
185.02	-21.67
185.239	113.49
185.459	56.15
185.679	80.72
185.898	-50.35
186.118	84.82
186.338	93.01
186.557	82.77
186.777	-5.29
186.997	-36.01
187.216	113.49
187.436	203.6
187.655	82.77
187.875	45.91
188.095	41.81
188.314	166.74
188.534	125.78
188.753	41.81
188.973	84.82
189.192	168.79
189.412	25.43
189.631	45.91
189.851	136.02
190.07	166.74
190.29	-7.34
190.509	-15.53
190.729	111.44
190.948	138.07
191.168	224.08
191.387	23.38
191.607	52.05
191.826	56.15
192.045	13.14
192.265	31.57
192.484	113.49
192.704	50
192.923	-56.49
193.142	275.28
193.362	172.88
193.581	142.16
193.8	-31.91
194.02	193.36
194.239	121.68
194.458	146.26
194.678	43.86
194.897	0.85
195.116	125.78
195.335	52.05
195.555	111.44
195.774	23.38
195.993	121.68
196.212	45.91
196.432	-9.39
196.651	11.09
196.87	-3.24
197.089	277.33
197.308	84.82
197.528	136.02
197.747	-74.92
197.966	21.33
198.185	121.68
198.404	-23.72
198.623	115.54
198.842	84.82
199.062	64.34
199.281	166.74
199.5	80.72
199.719	9.05
199.938	80.72
200.157	140.12
200.376	62.29
200.595	158.55
200.814	37.72
201.033	-17.58
201.252	217.94
201.471	74.58
201.69	84.82
201.909	-48.3
202.128	164.69
202.347	56.15
202.566	105.3
202.785	-44.2
203.004	-33.96
203.223	308.05
203.442	97.11
203.661	-52.39
203.879	164.69
204.098	136.02
204.317	-50.35
204.536	211.79
204.755	138.07
204.974	187.22
205.193	78.68
205.411	191.31
205.63	136.02
205.849	80.72
206.068	78.68
206.287	-19.63
206.505	185.17
206.724	27.48
206.943	29.52
207.162	43.86
207.381	111.44
207.599	144.21
207.818	107.35
208.037	2.9
208.255	-1.19
208.474	70.48
208.693	-3.24
208.911	11.09
209.13	119.64
209.349	138.07
209.567	113.49
209.786	86.87
210.005	105.3
210.223	23.38
210.442	-144.55
210.661	70.48
210.879	82.77
211.098	37.72
211.316	76.63
211.535	133.97
211.753	144.21
211.972	43.86
212.191	90.96
212.409	107.35
212.628	131.92
212.846	2.9
213.065	76.63
213.283	82.77
213.502	64.34
213.72	33.62
213.938	74.58
214.157	-13.48
214.375	105.3
214.594	58.2
214.812	99.16
215.031	45.91
215.249	56.15
215.467	136.02
215.686	97.11
215.904	111.44
216.122	31.57
216.341	142.16
216.559	50
216.778	146.26
216.996	70.48
217.214	43.86
217.432	21.33
217.651	17.24
217.869	66.39
218.087	103.25
218.306	78.68
218.524	74.58
218.742	62.29
218.96	58.2
219.179	-13.48
219.397	60.24
219.615	250.71
219.833	68.44
220.051	-17.58
220.27	41.81
220.488	129.88
220.706	105.3
220.924	-5.29
221.142	54.1
221.36	80.72
221.578	56.15
221.796	68.44
222.015	138.07
222.233	2.9
222.451	125.78
222.669	-60.59
222.887	80.72
223.105	60.24
223.323	62.29
223.541	-7.34
223.759	47.96
223.977	78.68
224.195	144.21
224.413	144.21
224.631	13.14
224.849	123.73
225.067	215.89
225.285	2.9
225.503	47.96
225.721	-81.07
225.939	82.77
226.157	52.05
226.375	273.23
226.592	62.29
226.81	13.14
227.028	136.02
227.246	123.73
227.464	136.02
227.682	80.72
227.9	111.44
228.117	56.15
228.335	93.01
228.553	13.14
228.771	33.62
228.989	144.21
229.206	131.92
229.424	23.38
229.642	86.87
229.86	15.19
230.077	90.96
230.295	54.1
230.513	105.3
230.731	86.87
230.948	230.23
231.166	82.77
231.384	39.76
231.601	-48.3
231.819	228.18
232.037	-27.82
232.254	-15.53
232.472	37.72
232.689	29.52
232.907	148.31
233.125	17.24
233.342	72.53
233.56	19.29
233.777	2.9
233.995	-15.53
234.213	86.87
234.43	138.07
234.648	37.72
234.865	58.2
235.083	17.24
235.3	99.16
235.518	160.59
235.735	111.44
235.953	125.78
236.17	50
236.388	72.53
236.605	21.33
236.822	125.78
237.04	74.58
237.257	90.96
237.475	0.85
237.692	41.81
237.909	119.64
238.127	-13.48
238.344	70.48
238.562	41.81
238.779	2.9
238.996	-3.24
239.214	-5.29
239.431	127.83
239.648	31.57
239.865	115.54
240.083	78.68
240.3	-27.82
240.517	-9.39
240.735	39.76
240.952	189.27
241.169	88.92
241.386	129.88
241.603	50
241.821	0.85
242.038	76.63
242.255	138.07
242.472	4.95
242.689	115.54
242.907	50
243.124	101.2
243.341	80.72
243.558	9.05
243.775	-19.63
243.992	19.29
244.209	43.86
244.426	113.49
244.643	78.68
244.86	-23.72
245.078	119.64
245.295	23.38
245.512	41.81
245.729	-7.34
245.946	56.15
246.163	37.72
246.38	54.1
246.597	58.2
246.814	39.76
247.031	2.9
247.248	2.9
247.464	107.35
247.681	84.82
247.898	123.73
248.115	76.63
248.332	47.96
248.549	152.4
248.766	260.95
248.983	19.29
249.2	166.74
249.417	119.64
249.633	11.09
249.85	129.88
250.067	52.05
250.284	95.06
250.501	76.63
250.717	58.2
250.934	-103.59
251.151	80.72
251.368	119.64
251.585	74.58
251.801	103.25
252.018	-29.87
252.235	78.68
252.451	15.19
252.668	31.57
252.885	84.82
253.102	70.48
253.318	43.86
253.535	35.67
253.752	23.38
253.968	-72.87
254.185	-56.49
254.401	88.92
254.618	111.44
254.835	19.29
255.051	93.01
255.268	29.52
255.484	52.05
255.701	99.16
255.917	70.48
256.134	-1.19
256.351	43.86
256.567	25.43
256.784	13.14
257	-25.77
257.217	146.26
257.433	156.5
257.65	82.77
257.866	127.83
258.082	0.85
258.299	13.14
258.515	11.09
258.732	2.9
258.948	86.87
259.165	27.48
259.381	-44.2
259.597	136.02
259.814	58.2
260.03	-11.43
260.246	56.15
260.463	164.69
260.679	80.72
260.895	-36.01
261.112	33.62
261.328	99.16
261.544	-1.19
261.761	209.75
261.977	25.43
262.193	41.81
262.409	58.2
262.626	121.68
262.842	15.19
263.058	-15.53
263.274	197.46
263.49	99.16
263.707	123.73
263.923	133.97
264.139	15.19
264.355	133.97
264.571	95.06
264.787	27.48
265.004	240.47
265.22	17.24
265.436	-15.53
265.652	58.2
265.868	76.63
266.084	58.2
266.3	99.16
266.516	-68.78
266.732	62.29
266.948	-25.77
267.164	54.1
267.38	121.68
267.596	13.14
267.812	115.54
268.028	82.77
268.244	41.81
268.46	31.57
268.676	15.19
268.892	66.39
269.108	50
269.324	-74.92
269.54	-46.25
269.756	70.48
269.972	-38.06
270.188	80.72
270.403	2.9
270.619	45.91
270.835	80.72
271.051	39.76
271.267	-66.73
271.483	-17.58
271.698	43.86
271.914	-11.43
272.13	99.16
272.346	-23.72
272.562	97.11
272.777	273.23
272.993	25.43
273.209	19.29
273.425	101.2
273.64	-93.35
273.856	86.87
274.072	-70.83
274.287	84.82
274.503	82.77
274.719	113.49
274.934	-11.43
275.15	-70.83
275.366	113.49
275.581	0.85
275.797	115.54
276.012	35.67
276.228	29.52
276.444	54.1
276.659	174.93
276.875	-38.06
277.09	58.2
277.306	62.29
277.521	133.97
277.737	62.29
277.952	62.29
278.168	-15.53
278.383	35.67
278.599	97.11
278.814	50
279.03	11.09
279.245	136.02
279.461	19.29
279.676	109.4
279.892	-60.59
280.107	-58.54
280.322	47.96
280.538	148.31
280.753	13.14
280.969	84.82
281.184	25.43
281.399	215.89
281.615	111.44
281.83	35.67
282.045	-40.11
282.26	23.38
282.476	-33.96
282.691	99.16
282.906	90.96
283.122	47.96
283.337	74.58
283.552	93.01
283.767	58.2
283.983	109.4
284.198	7
284.413	117.59
284.628	-36.01
284.843	70.48
285.058	117.59
285.274	82.77
285.489	-70.83
285.704	33.62
285.919	62.29
286.134	82.77
286.349	66.39
286.564	86.87
286.779	150.36
286.995	-31.91
287.21	19.29
287.425	136.02
287.64	-36.01
287.855	103.25
288.07	-44.2
288.285	125.78
288.5	142.16
288.715	62.29
288.93	13.14
289.145	-3.24
289.36	54.1
289.575	-19.63
289.79	129.88
290.004	21.33
290.219	136.02
290.434	-68.78
290.649	-7.34
290.864	-68.78
291.079	0.85
291.294	60.24
291.509	60.24
291.724	21.33
291.938	19.29
292.153	62.29
292.368	-1.19
292.583	154.45
292.798	144.21
293.012	125.78
293.227	15.19
293.442	52.05
293.657	58.2
293.871	172.88
294.086	86.87
294.301	195.41
294.516	119.64
294.73	31.57
294.945	-1.19
295.16	37.72
295.374	133.97
295.589	56.15
295.804	0.85
296.018	-38.06
296.233	121.68
296.447	148.31
296.662	27.48
296.877	140.12
297.091	70.48
297.306	54.1
297.52	-7.34
297.735	-17.58
297.949	66.39
298.164	90.96
298.378	74.58
298.593	7
298.807	15.19
299.022	60.24
299.236	199.51
299.451	-9.39
299.665	-3.24
299.88	29.52
300.094	76.63
300.309	56.15
300.523	93.01
300.737	-25.77
300.952	154.45
301.166	127.83
301.381	-17.58
301.595	-40.11
301.809	45.91
302.024	54.1
302.238	90.96
302.452	58.2
302.667	29.52
302.881	152.4
303.095	74.58
303.309	154.45
303.524	-5.29
303.738	52.05
303.952	7
304.166	58.2
304.381	-40.11
304.595	185.17
304.809	-33.96
305.023	105.3
305.237	37.72
305.452	62.29
305.666	33.62
305.88	146.26
306.094	97.11
306.308	121.68
306.522	166.74
306.736	82.77
306.95	70.48
307.164	17.24
307.379	58.2
307.593	183.12
307.807	117.59
308.021	115.54
308.235	162.64
308.449	-3.24
308.663	41.81
308.877	144.21
309.091	-13.48
309.305	78.68
309.519	-64.68
309.733	142.16
309.947	-15.53
310.161	107.35
310.374	60.24
310.588	93.01
310.802	-70.83
311.016	74.58
311.23	-1.19
311.444	-27.82
311.658	52.05
311.872	136.02
312.085	160.59
312.299	86.87
312.513	164.69
312.727	131.92
312.941	-60.59
313.154	86.87
313.368	54.1
313.582	70.48
313.796	152.4
314.009	97.11
314.223	170.83
314.437	148.31
314.651	113.49
314.864	13.14
315.078	35.67
315.292	-5.29
315.505	15.19
315.719	105.3
315.933	123.73
316.146	95.06
316.36	45.91
316.573	119.64
316.787	144.21
317.001	43.86
317.214	-42.15
317.428	68.44
317.641	47.96
317.855	13.14
318.068	-31.91
318.282	4.95
318.495	172.88
318.709	123.73
318.922	78.68
319.136	148.31
319.349	99.16
319.563	19.29
319.776	129.88
319.99	-13.48
320.203	105.3
320.417	31.57
320.63	144.21
320.843	154.45
321.057	-3.24
321.27	23.38
321.483	131.92
321.697	113.49
321.91	43.86
322.124	90.96
322.337	21.33
322.55	19.29
322.763	41.81
322.977	-15.53
323.19	27.48
323.403	109.4
323.617	84.82
323.83	158.55
324.043	19.29
324.256	2.9
324.469	-3.24
324.683	125.78
324.896	50
325.109	60.24
325.322	-126.12
325.535	166.74
325.748	172.88
325.962	23.38
326.175	-7.34
326.388	43.86
326.601	107.35
326.814	54.1
327.027	60.24
327.24	156.5
327.453	-31.91
327.666	13.14
327.879	158.55
328.092	93.01
328.305	58.2
328.518	35.67
328.731	70.48
328.944	50
329.157	37.72
329.37	41.81
329.583	195.41
329.796	82.77
330.009	4.95
330.222	160.59
330.435	80.72
330.648	68.44
330.861	33.62
331.073	56.15
331.286	82.77
331.499	70.48
331.712	39.76
331.925	54.1
332.138	103.25
332.35	117.59
332.563	-17.58
332.776	127.83
332.989	72.53
333.202	25.43
333.414	54.1
333.627	70.48
333.84	4.95
334.053	99.16
334.265	4.95
334.478	43.86
334.691	15.19
334.903	60.24
335.116	-40.11
335.329	80.72
335.541	4.95
335.754	162.64
335.966	27.48
336.179	39.76
336.392	54.1
336.604	84.82
336.817	78.68
337.029	97.11
337.242	90.96
337.454	93.01
337.667	93.01
337.88	215.89
338.092	168.79
338.305	90.96
338.517	70.48
338.729	88.92
338.942	88.92
339.154	-1.19
339.367	-21.67
339.579	88.92
339.792	-56.49
340.004	90.96
340.217	105.3
340.429	113.49
340.641	21.33
340.854	-9.39
341.066	66.39
341.278	131.92
341.491	140.12
341.703	78.68
341.915	-13.48
342.128	88.92
342.34	156.5
342.552	-5.29
342.764	70.48
342.977	2.9
343.189	-7.34
343.401	115.54
343.613	37.72
343.826	136.02
344.038	54.1
344.25	-13.48
344.462	7
344.674	86.87
344.886	76.63
345.099	117.59
345.311	101.2
345.523	25.43
345.735	-27.82
345.947	82.77
346.159	109.4
346.371	-1.19
346.583	7
346.795	242.51
347.007	17.24
347.219	121.68
347.431	60.24
347.643	111.44
347.855	19.29
348.067	127.83
348.279	-13.48
348.491	2.9
348.703	50
348.915	2.9
349.127	11.09
349.339	31.57
349.551	7
349.763	129.88
349.975	-36.01
350.187	117.59
350.399	88.92
350.61	64.34
350.822	39.76
351.034	47.96
351.246	80.72
351.458	41.81
351.669	74.58
351.881	70.48
352.093	107.35
352.305	142.16
352.517	107.35
352.728	140.12
352.94	111.44
353.152	133.97
353.363	29.52
353.575	31.57
353.787	217.94
353.999	166.74
354.21	168.79
354.422	-13.48
354.633	60.24
354.845	66.39
355.057	84.82
355.268	68.44
355.48	119.64
355.692	-19.63
355.903	84.82
356.115	-5.29
356.326	-36.01
356.538	144.21
356.749	95.06
356.961	121.68
357.172	45.91
357.384	45.91
357.595	230.23
357.807	-44.2
358.018	25.43
358.23	-1.19
358.441	201.55
358.653	148.31
358.864	21.33
359.075	4.95
359.287	17.24
359.498	82.77
359.709	136.02
359.921	76.63
360.132	47.96
360.344	58.2
360.555	39.76
360.766	93.01
360.977	50
361.189	35.67
361.4	70.48
361.611	119.64
361.823	193.36
362.034	15.19
362.245	-25.77
362.456	11.09
362.667	39.76
362.879	19.29
363.09	54.1
363.301	117.59
363.512	78.68
363.723	60.24
363.935	52.05
364.146	138.07
364.357	13.14
364.568	21.33
364.779	-11.43
364.99	107.35
365.201	76.63
365.412	187.22
365.623	-56.49
365.834	97.11
366.045	76.63
366.256	172.88
366.467	60.24
366.678	15.19
366.889	66.39
367.1	-13.48
367.311	107.35
367.522	60.24
367.733	90.96
367.944	101.2
368.155	35.67
368.366	88.92
368.577	197.46
368.788	148.31
368.999	58.2
369.209	21.33
369.42	250.71
369.631	320.34
369.842	54.1
370.053	41.81
370.264	146.26
370.474	50
370.685	4.95
370.896	39.76
371.107	117.59
371.317	78.68
371.528	76.63
371.739	164.69
371.95	152.4
372.16	123.73
372.371	-19.63
372.582	-19.63
372.792	88.92
373.003	111.44
373.214	107.35
373.424	76.63
373.635	0.85
373.846	115.54
374.056	60.24
374.267	64.34
374.477	78.68
374.688	35.67
374.898	82.77
375.109	60.24
375.319	62.29
375.53	185.17
375.74	101.2
375.951	27.48
376.161	70.48
376.372	123.73
376.582	99.16
376.793	93.01
377.003	43.86
377.214	39.76
377.424	119.64
377.635	90.96
377.845	45.91
378.055	213.84
378.266	-1.19
378.476	95.06
378.686	-31.91
378.897	66.39
379.107	146.26
379.317	66.39
379.528	68.44
379.738	138.07
379.948	74.58
380.158	58.2
380.369	93.01
380.579	97.11
380.789	80.72
380.999	148.31
381.21	144.21
381.42	170.83
381.63	72.53
381.84	88.92
382.05	107.35
382.261	166.74
382.471	136.02
382.681	4.95
382.891	166.74
383.101	78.68
383.311	-17.58
383.521	-9.39
383.731	209.75
383.941	142.16
384.151	54.1
384.361	0.85
384.571	37.72
384.781	99.16
384.991	219.99
385.201	201.55
385.411	127.83
385.621	99.16
385.831	95.06
386.041	74.58
386.251	84.82
386.461	148.31
386.671	33.62
386.881	158.55
387.091	54.1
387.301	174.93
387.511	66.39
387.72	99.16
387.93	191.31
388.14	2.9
388.35	54.1
388.56	142.16
388.769	125.78
388.979	56.15
389.189	-5.29
389.399	58.2
389.609	140.12
389.818	136.02
390.028	99.16
390.238	125.78
390.447	86.87
390.657	113.49
390.867	-1.19
391.076	13.14
391.286	105.3
391.496	41.81
391.705	101.2
391.915	123.73
392.125	115.54
392.334	37.72
392.544	76.63
392.753	21.33
392.963	0.85
393.172	19.29
393.382	60.24
393.591	170.83
393.801	-3.24
394.01	215.89
394.22	31.57
394.429	93.01
394.639	25.43
394.848	90.96
395.058	119.64
395.267	52.05
395.477	88.92
395.686	111.44
395.895	215.89
396.105	283.47
396.314	97.11
396.524	93.01
396.733	27.48
396.942	158.55
397.152	86.87
397.361	170.83
397.57	121.68
397.78	66.39
397.989	123.73
398.198	209.75
398.407	88.92
398.617	52.05
398.826	84.82
399.035	103.25
399.244	50
399.453	90.96
399.663	33.62
399.872	97.11
400.081	52.05
400.29	258.9
400.499	7
400.708	144.21
400.917	17.24
401.127	74.58
401.336	72.53
401.545	256.85
401.754	187.22
401.963	103.25
402.172	76.63
402.381	56.15
402.59	95.06
402.799	109.4
403.008	86.87
403.217	60.24
403.426	37.72
403.635	-29.87
403.844	93.01
404.053	29.52
404.262	23.38
404.471	111.44
404.68	93.01
404.888	9.05
405.097	33.62
405.306	97.11
405.515	123.73
405.724	33.62
405.933	140.12
406.142	101.2
406.35	150.36
406.559	41.81
406.768	60.24
406.977	189.27
407.185	74.58
407.394	109.4
407.603	103.25
407.812	-1.19
408.02	95.06
408.229	154.45
408.438	47.96
408.646	37.72
408.855	95.06
409.064	140.12
409.272	74.58
409.481	119.64
409.69	21.33
409.898	-64.68
410.107	154.45
410.315	179.03
410.524	29.52
410.733	164.69
410.941	80.72
411.15	-9.39
411.358	138.07
411.567	176.98
411.775	142.16
411.984	93.01
412.192	183.12
412.401	54.1
412.609	179.03
412.818	115.54
413.026	25.43
413.234	66.39
413.443	119.64
413.651	37.72
413.86	68.44
414.068	103.25
414.276	185.17
414.485	-11.43
414.693	215.89
414.901	234.32
415.11	45.91
415.318	90.96
415.526	115.54
415.734	105.3
415.943	95.06
416.151	154.45
416.359	37.72
416.567	43.86
416.776	129.88
416.984	121.68
417.192	250.71
417.4	31.57
417.608	-21.67
417.817	33.62
418.025	97.11
418.233	219.99
418.441	62.29
418.649	52.05
418.857	146.26
419.065	183.12
419.273	86.87
419.481	45.91
419.689	70.48
419.897	90.96
420.105	-5.29
420.313	191.31
420.521	160.59
420.729	168.79
420.937	29.52
421.145	25.43
421.353	174.93
421.561	119.64
421.769	117.59
421.977	-9.39
422.185	88.92
422.393	54.1
422.601	187.22
422.809	88.92
423.017	105.3
423.224	113.49
423.432	117.59
423.64	78.68
423.848	179.03
424.056	54.1
424.263	179.03
424.471	105.3
424.679	201.55
424.887	-81.07
425.094	232.27
425.302	168.79
425.51	15.19
425.718	78.68
425.925	97.11
426.133	129.88
426.341	236.37
426.548	138.07
426.756	45.91
426.964	136.02
427.171	11.09
427.379	125.78
427.586	109.4
427.794	115.54
428.001	170.83
428.209	185.17
428.417	209.75
428.624	86.87
428.832	125.78
429.039	90.96
429.247	95.06
429.454	50
429.662	260.95
429.869	203.6
430.076	185.17
430.284	189.27
430.491	203.6
430.699	207.7
430.906	215.89
431.114	97.11
431.321	199.51
431.528	123.73
431.736	183.12
431.943	248.66
432.15	242.51
432.358	203.6
432.565	260.95
432.772	37.72
432.979	181.07
433.187	183.12
433.394	199.51
433.601	138.07
433.808	170.83
434.016	340.82
434.223	275.28
434.43	224.08
434.637	351.06
434.844	365.39
435.052	308.05
435.259	371.54
435.466	357.2
435.673	344.91
435.88	349.01
436.087	418.64
436.294	426.83
436.501	385.87
436.708	369.49
436.915	373.58
437.122	369.49
437.329	281.43
437.537	402.26
437.743	455.5
437.95	484.17
438.157	439.12
438.364	402.26
438.571	506.7
438.778	506.7
438.985	545.61
439.192	545.61
439.399	459.6
439.606	510.8
439.813	584.52
440.02	699.21
440.227	740.17
440.433	709.45
440.64	639.82
440.847	578.38
441.054	676.68
441.261	783.18
441.467	729.93
441.674	838.47
441.881	826.18
442.088	736.07
442.294	805.71
442.501	922.44
442.708	891.72
442.914	910.15
443.121	1047.37
443.328	928.58
443.534	1043.27
443.741	1051.46
443.948	996.17
444.154	1186.63
444.361	1481.53
444.568	1190.72
444.774	1217.35
444.981	1157.96
445.187	1368.9
445.394	1375.04
445.6	1403.71
445.807	1502.01
446.013	1512.25
446.22	1471.29
446.426	1665.85
446.633	1770.3
446.839	1848.12
447.046	1755.96
447.252	2032.44
447.459	1880.89
447.665	1893.18
447.871	2059.06
448.078	2179.89
448.284	2227
448.491	2282.29
448.697	2370.35
448.903	2577.2
449.11	2618.16
449.316	2548.53
449.522	2724.65
449.728	2949.93
449.935	2913.06
450.141	3042.09
450.347	3183.4
450.553	2988.84
450.76	3212.07
450.966	3298.08
451.172	3240.74
451.378	3619.61
451.584	3592.99
451.791	3887.9
451.997	4061.98
452.203	4203.29
452.409	4553.49
452.615	4408.08
452.821	4258.58
453.027	4561.68
453.233	4948.75
453.44	4815.63
453.646	5038.86
453.852	5264.13
454.058	5464.83
454.264	5679.87
454.47	5950.2
454.676	6120.18
454.882	6621.94
455.088	6417.14
455.294	6703.86
455.5	7164.65
455.705	7582.43
455.911	7568.1
456.117	7719.65
456.323	8133.34
456.529	8030.94
456.735	8825.55
456.941	9044.68
457.147	9366.21
457.352	9816.77
457.558	9919.17
457.764	10576.56
457.97	10691.25
458.176	11131.56
458.381	11774.63
458.587	11936.42
458.793	12530.33
458.999	12642.96
459.204	13908.61
459.41	14510.71
459.616	14250.62
459.821	15114.86
460.027	15774.31
460.233	16458.33
460.438	16560.73
460.644	17519.18
460.85	17707.59
461.055	18344.51
461.261	19493.42
461.466	18975.28
461.672	19225.14
461.878	21662.22
462.083	21416.46
462.289	21883.4
462.494	22475.26
462.7	22839.8
462.905	23112.18
463.111	24781.28
463.316	25973.19
463.522	26464.71
463.727	27586.99
463.932	28574.11
464.138	29411.73
464.343	30527.88
464.549	30642.56
464.754	32739.68
464.959	33681.75
465.165	34117.96
465.37	34154.83
465.575	34124.11
465.781	36415.79
465.986	37431.58
466.191	36829.48
466.397	37529.88
466.602	36340.01
466.807	38742.28
467.012	39053.57
467.218	39647.48
467.423	39844.09
467.628	40823.01
467.833	43018.44
468.038	42240.21
468.244	41519.32
468.449	43133.12
468.654	42641.61
468.859	42301.65
469.064	42670.28
469.269	41943.25
469.474	41781.46
469.679	43036.87
469.885	41830.62
470.09	43079.88
470.295	42793.16
470.5	41797.85
470.705	42338.51
470.91	41109.73
471.115	40679.66
471.32	41478.36
471.525	40882.41
471.73	39934.2
471.935	39483.64
472.139	38144.27
472.344	38269.2
472.549	37751.06
472.754	37030.18
472.959	36716.84
473.164	35549.49
473.369	34761.03
473.574	36163.89
473.778	35258.68
473.983	34523.46
474.188	33757.52
474.393	32295.27
474.598	32125.29
474.802	31414.65
475.007	30923.13
475.212	31152.51
475.417	29487.51
475.621	29284.76
475.826	29219.22
476.031	28443.04
476.235	27511.22
476.44	27681.2
476.645	27072.95
476.849	26687.93
477.054	26163.65
477.259	25840.08
477.463	25891.27
477.668	24918.49
477.872	25000.41
478.077	24392.16
478.282	23917.03
478.486	23441.9
478.691	23153.14
478.895	22917.62
479.1	22919.67
479.304	22743.55
479.509	22004.23
479.713	22336
479.918	21647.88
480.122	21314.06
480.326	21498.38
480.531	21559.82
480.735	21189.14
480.94	20632.09
481.144	21654.03
481.348	20613.66
481.553	20593.18
481.757	19921.45
481.961	20034.08
482.166	20408.86
482.37	20052.52
482.574	19356.21
482.778	19444.27
482.983	19894.82
483.187	19141.17
483.391	19309.1
483.595	18840.12
483.8	18772.53
484.004	18852.41
484.208	18928.18
484.412	18227.78
484.616	18111.04
484.821	18014.79
485.025	17431.12
485.229	17523.27
485.433	17257.04
485.637	17281.61
485.841	17091.15
486.045	16646.74
486.249	16626.26
486.453	16122.46
486.657	16198.24
486.861	16054.88
487.065	15268.46
487.269	15368.81
487.473	14809.72
487.677	15110.77
487.881	14965.36
488.085	14406.27
488.289	14086.78
488.493	13795.97
488.697	13890.18
488.901	13681.28
489.105	13243.02
489.309	13116.05
489.512	13013.65
489.716	12755.6
489.92	12393.11
490.124	12219.03
490.328	12186.27
490.531	11838.11
490.735	11633.32
490.939	11348.65
491.143	11266.73
491.346	11023.02
491.55	10980.01
491.754	10738.35
491.958	10568.37
492.161	10293.94
492.365	10250.94
492.569	9980.61
492.772	9927.36
492.976	9964.22
493.18	9816.77
493.383	9597.63
493.587	9405.13
493.79	9329.35
493.994	9140.94
494.197	9034.44
494.401	8925.9
494.605	8905.42
494.808	8913.61
495.012	8821.45
495.215	8886.99
495.419	8710.86
495.622	8637.14
495.825	8501.97
496.029	8399.57
496.232	8573.65
496.436	8375
496.639	8651.47
496.843	8409.81
497.046	8428.24
497.249	8499.92
497.453	8360.66
497.656	8407.77
497.859	8444.63
498.063	8407.77
498.266	8606.42
498.469	8288.98
498.673	8319.7
498.876	8501.97
499.079	8624.85
499.282	8571.6
499.485	8837.84
499.689	8782.54
499.892	8852.17
500.095	8909.52
500.298	8948.43
500.501	8751.82
500.705	8981.2
500.908	9081.55
501.111	9175.75
501.314	9147.08
501.517	9411.27
501.72	9390.79
501.923	9370.31
502.126	9489.09
502.329	9745.09
502.532	9822.91
502.735	9679.55
502.938	10107.58
503.141	10097.34
503.344	10453.69
503.547	10277.56
503.75	10511.03
503.953	10705.59
504.156	10785.46
504.359	11027.12
504.562	11033.26
504.765	11262.63
504.968	11440.81
505.17	11606.69
505.373	11813.54
505.576	12090.01
505.779	12305.05
505.982	12149.4
506.185	12733.08
506.387	12659.35
506.59	12946.06
506.793	13116.05
506.996	13503.11
507.198	13779.59
507.401	13816.45
507.604	14097.02
507.807	14301.82
508.009	14748.28
508.212	14953.07
508.415	15344.24
508.617	15655.53
508.82	15620.71
509.022	15886.95
509.225	16718.42
509.428	16949.84
509.63	16980.56
509.833	17578.57
510.035	18209.34
510.238	17984.07
510.44	18864.69
510.643	19159.6
510.845	19761.7
511.048	19421.74
511.25	20355.61
511.453	20785.69
511.655	21555.72
511.858	21348.88
512.06	22252.03
512.262	22503.93
512.465	22669.82
512.667	23591.41
512.87	24068.58
513.072	24469.98
513.274	25106.9
513.477	25663.95
513.679	26472.9
513.881	26962.36
514.084	27423.15
514.286	28170.66
514.488	28178.86
514.69	29444.5
514.893	29888.91
515.095	30357.89
515.297	31289.72
515.499	31568.24
515.701	32176.49
515.904	32737.63
516.106	33614.16
516.308	34337.1
516.51	35078.46
516.712	35465.53
516.914	36315.44
517.116	37433.63
517.318	37630.23
517.52	38154.51
517.722	39119.1
517.925	39844.09
518.127	40544.49
518.329	41279.71
518.531	41494.75
518.733	42432.72
518.935	42729.67
519.136	43571.39
519.338	44384.43
519.54	44855.46
519.742	45594.78
519.944	45977.75
520.146	47222.92
520.348	47450.24
520.55	48158.84
520.752	48490.61
520.954	49801.31
521.155	49268.84
521.357	50251.86
521.559	50694.22
521.761	51761.22
521.963	51626.05
522.164	52279.35
522.366	52883.5
522.568	53100.59
522.77	53270.57
522.971	53940.25
523.173	53737.51
523.375	54433.81
523.576	54564.88
523.778	54278.17
523.98	55334.92
524.181	55402.5
524.383	55429.13
524.584	55896.06
524.786	55836.67
524.988	55685.12
525.189	55949.31
525.391	56283.13
525.592	56043.52
525.794	56133.63
525.995	56356.86
526.197	55928.83
526.398	55863.3
526.6	56166.4
526.801	55502.85
527.003	56027.13
527.204	55308.3
527.406	55859.2
527.607	55425.03
527.808	55001.1
528.01	53770.27
528.211	54061.08
528.412	54706.19
528.614	53438.5
528.815	53434.41
529.016	53768.22
529.218	52078.65
529.419	52260.92
529.62	51818.56
529.822	51466.31
530.023	50923.6
530.224	50710.61
530.425	50092.12
530.626	48904.3
530.828	48504.95
531.029	49018.99
531.23	48273.52
531.431	47472.77
531.632	47331.46
531.833	47042.7
532.035	45932.7
532.236	45775
532.437	45250.72
532.638	44363.95
532.839	44011.7
533.04	43374.78
533.241	42744.01
533.442	42684.62
533.643	41836.76
533.844	41339.1
534.045	40564.97
534.246	39647.48
534.447	39459.07
534.648	38572.3
534.849	38564.1
535.05	37738.77
535.251	37531.93
535.451	36907.3
535.652	36835.62
535.853	36032.82
536.054	35510.58
536.255	35432.76
536.456	34253.13
536.657	34531.65
536.857	33585.49
537.058	33032.54
537.259	32870.75
537.46	32502.12
537.66	31646.07
537.861	31854.96
538.062	31011.2
538.263	30896.51
538.463	29921.68
538.664	29989.26
538.865	29741.46
539.065	29387.16
539.266	28701.09
539.466	29069.72
539.667	27974.06
539.868	28285.35
540.068	27197.88
540.269	27193.78
540.469	26968.51
540.67	26732.99
540.87	26091.98
541.071	25819.6
541.271	25688.53
541.472	25242.07
541.672	25043.42
541.873	24826.33
542.073	24125.93
542.274	24472.03
542.474	23771.63
542.675	23402.99
542.875	23503.34
543.075	22888.95
543.276	22436.35
543.476	22735.35
543.676	22073.86
543.877	22151.68
544.077	21975.56
544.277	21645.84
544.478	21367.31
544.678	21309.97
544.878	20937.24
545.078	20720.15
545.279	20529.69
545.479	20120.1
545.679	19989.03
545.879	19753.51
546.079	19518
546.28	19118.64
546.48	18643.51
546.68	19227.18
546.88	18477.63
547.08	18510.39
547.28	17787.46
547.48	17590.86
547.68	17818.18
547.88	17259.09
548.081	17306.19
548.281	17113.68
548.481	16687.7
548.681	16648.79
548.881	16587.35
549.081	16325.21
549.28	15962.72
549.48	15927.91
549.68	15372.91
549.88	15622.76
550.08	15018.61
550.28	14973.55
550.48	14754.42
550.68	14498.42
550.88	14441.08
551.08	14334.59
551.279	14244.48
551.479	13578.89
551.679	13595.27
551.879	13103.76
552.079	13056.65
552.278	13107.85
552.478	12726.93
552.678	12622.48
552.878	12327.58
553.077	12157.6
553.277	11944.61
553.477	11942.56
553.676	11786.91
553.876	11463.33
554.076	11334.31
554.275	11162.28
554.475	10857.14
554.674	10832.56
554.874	10638
555.074	10334.9
555.273	10293.94
555.473	10234.55
555.672	10005.18
555.872	9788.1
556.071	9745.09
556.271	9581.25
556.47	9229
556.67	8880.85
556.869	9147.08
557.068	8889.04
557.268	8651.47
557.467	8504.02
557.667	8497.88
557.866	8399.57
558.065	8274.65
558.265	8086.23
558.464	7836.38
558.663	7860.96
558.863	7766.75
559.062	7672.54
559.261	7332.58
559.461	7500.51
559.66	7142.12
559.859	7156.46
560.058	7006.95
560.258	6800.11
560.457	6851.31
560.656	6783.73
560.855	6482.67
561.054	6619.89
561.253	6279.93
561.453	6353.65
561.652	6320.88
561.851	6085.37
562.05	5888.76
562.249	5784.32
562.448	5874.43
562.647	5778.17
562.846	5651.2
563.045	5610.24
563.244	5358.34
563.443	5483.27
563.642	5364.48
563.841	5292.8
564.04	5208.84
564.239	5176.07
564.438	4897.55
564.637	4799.24
564.836	4942.6
565.035	4807.44
565.234	4842.25
565.432	4694.8
565.631	4533.01
565.83	4709.13
566.029	4453.14
566.228	4586.26
566.427	4315.92
566.625	4348.69
566.824	4281.11
567.023	4082.46
567.222	3996.44
567.42	4008.73
567.619	4143.89
567.818	3926.81
568.016	4043.54
568.215	3918.62
568.414	3805.98
568.612	3705.63
568.811	3572.51
569.01	3590.94
569.208	3564.32
569.407	3547.94
569.605	3488.54
569.804	3488.54
570.002	3470.11
570.201	3365.67
570.4	3197.73
570.598	3293.99
570.797	3201.83
570.995	3136.29
571.193	3146.53
571.392	3040.04
571.59	2894.63
571.789	2958.12
571.987	3087.14
572.186	2921.26
572.384	2777.9
572.582	2790.19
572.781	2876.2
572.979	2673.45
573.177	2749.23
573.376	2769.71
573.574	2698.03
573.772	2462.51
573.971	2409.26
574.169	2337.59
574.367	2485.04
574.565	2368.31
574.763	2374.45
574.962	2227
575.16	2308.91
575.358	2165.56
575.556	2159.41
575.754	2104.12
575.952	2157.36
576.151	2218.8
576.349	2222.9
576.547	1936.18
576.745	2059.06
576.943	2087.73
577.141	2022.2
577.339	1884.98
577.537	1868.6
577.735	1966.9
577.933	1944.38
578.131	1872.7
578.329	1923.9
578.527	1755.96
578.725	1741.63
578.923	1618.75
579.121	1733.43
579.319	1463.1
579.516	1585.98
579.714	1841.98
579.912	1608.51
580.11	1463.1
580.308	1502.01
580.506	1454.91
580.704	1456.96
580.901	1372.99
581.099	1592.13
581.297	1413.95
581.495	1381.18
581.692	1362.75
581.89	1557.31
582.088	1309.51
582.285	1276.74
582.483	1375.04
582.681	1344.32
582.878	1190.72
583.076	1327.94
583.274	1264.45
583.471	1291.07
583.669	1221.44
583.866	1076.04
584.064	1176.39
584.262	1065.8
584.459	1041.22
584.657	1061.7
584.854	1104.71
585.052	1073.99
585.249	1155.91
585.447	1051.46
585.644	969.54
585.841	1084.23
586.039	1121.09
586.236	1049.41
586.434	1004.36
586.631	1008.45
586.828	910.15
587.026	1022.79
587.223	914.25
587.42	828.23
587.618	922.44
587.815	1024.84
588.012	885.58
588.21	881.48
588.407	1047.37
588.604	932.68
588.801	787.27
588.999	897.86
589.196	936.78
589.393	815.94
589.59	783.18
589.787	883.53
589.984	871.24
590.182	836.42
590.379	723.79
590.576	811.85
590.773	774.99
590.97	688.97
591.167	774.99
591.364	863.05
591.561	777.03
591.758	858.95
591.955	889.67
592.152	766.79
592.349	793.42
592.546	760.65
592.743	652.11
592.94	731.98
593.137	777.03
593.334	848.71
593.531	793.42
593.727	787.27
593.924	756.55
594.121	770.89
594.318	764.75
594.515	734.03
594.712	987.97
594.908	865.1
595.105	656.2
595.302	861
595.499	840.52
595.696	838.47
595.892	742.22
596.089	947.01
596.286	922.44
596.482	912.2
596.679	955.21
596.876	899.91
597.072	1092.42
597.269	947.01
597.466	963.4
597.662	1010.5
597.859	916.3
598.055	1102.66
598.252	1123.14
598.448	1098.56
598.645	1241.92
598.841	1444.67
599.038	1362.75
599.234	1403.71
599.431	1348.42
599.627	1448.77
599.824	1524.54
600.02	1512.25
600.217	1555.26
600.413	1663.8
600.609	1610.56
600.806	1975.1
601.002	1946.42
601.198	1794.87
601.395	2147.12
601.591	2210.61
601.787	2100.02
601.984	2241.33
602.18	2237.24
602.376	2474.8
602.572	2485.04
602.769	2648.88
602.965	2640.69
603.161	2781.99
603.357	2964.26
603.553	2911.02
603.75	3068.71
603.946	3072.81
604.142	3154.73
604.338	3406.63
604.534	3326.75
604.73	3668.77
604.926	3627.81
605.122	3838.75
605.318	3779.36
605.514	4150.04
605.71	4162.33
605.906	4340.5
606.102	4322.07
606.298	4578.06
606.494	4580.11
606.69	4936.46
606.886	4852.49
607.082	5085.96
607.278	5235.46
607.474	5372.68
607.67	5559.04
607.866	5667.58
608.062	5968.63
608.257	6038.27
608.453	6101.75
608.649	6365.94
608.845	6447.86
609.041	6490.87
609.236	6892.27
609.432	7115.5
609.628	7127.78
609.824	7447.27
610.019	7721.7
610.215	7887.58
610.411	8172.25
610.606	8325.85
610.802	8276.7
610.998	8561.36
611.193	8907.47
611.389	9108.17
611.584	9317.06
611.78	9401.03
611.976	9802.43
612.171	10318.52
612.367	10584.76
612.562	10625.72
612.758	10871.47
612.953	11031.21
613.149	11281.07
613.344	11567.78
613.539	12090.01
613.735	12450.46
613.93	12958.35
614.126	12917.39
614.321	13521.54
614.517	13906.56
614.712	13984.38
614.907	14430.84
615.103	14705.27
615.298	14987.89
615.493	15510.12
615.688	15817.32
615.884	16222.81
616.079	16558.68
616.274	17015.38
616.47	17363.53
616.665	17965.64
616.86	18434.62
617.055	18690.62
617.25	19153.46
617.445	19898.92
617.641	20015.65
617.836	20679.19
618.031	21129.75
618.226	22075.91
618.421	22006.28
618.616	22858.23
618.811	23042.55
619.006	24044.01
619.201	24127.97
619.396	25006.55
619.591	25074.13
619.786	25782.73
619.981	26159.56
620.176	27120.06
620.371	27449.78
620.566	27984.3
620.761	28586.4
620.956	29391.25
621.151	29682.06
621.346	30607.75
621.541	30478.72
621.735	31701.36
621.93	31787.38
622.125	32297.32
622.32	32684.39
622.515	33476.95
622.709	34435.4
622.904	35031.36
623.099	35504.44
623.294	35688.76
623.488	36073.77
623.683	37597.46
623.878	37693.72
624.072	38529.29
624.267	38703.37
624.462	39446.78
624.656	39663.86
624.851	40818.92
625.046	41015.52
625.24	41742.55
625.435	42178.77
625.629	43108.55
625.824	43200.71
626.018	44028.09
626.213	43704.51
626.407	45144.23
626.602	44873.9
626.796	45967.51
626.991	46282.9
627.185	46684.3
627.38	46659.73
627.574	46932.11
627.768	47067.27
627.963	46895.24
628.157	47427.71
628.352	48181.37
628.546	47507.58
628.74	48580.72
628.935	47624.32
629.129	47652.99
629.323	47245.44
629.517	47421.57
629.712	46950.54
629.906	46917.77
630.1	45928.6
630.294	45688.99
630.489	45220
630.683	44957.86
630.877	43382.98
631.071	43450.56
631.265	42881.22
631.459	42166.48
631.653	40915.17
631.848	40339.69
632.042	39381.24
632.236	38480.14
632.43	37024.03
632.624	36710.69
632.818	35471.67
633.012	33954.13
633.206	33251.67
633.4	32420.2
633.594	30753.15
633.788	30296.46
633.982	28891.55
634.176	28008.87
634.369	26919.35
634.563	26042.82
634.757	24803.8
634.951	24291.81
635.145	23017.97
635.339	22551.04
635.533	21721.61
635.726	20611.61
635.92	19509.8
636.114	18938.42
636.308	17932.87
636.501	17525.32
636.695	16747.09
636.889	15989.35
637.083	15370.86
637.276	14578.29
637.47	14111.36
637.664	13505.16
637.857	13005.45
638.051	12518.04
638.244	11909.79
638.438	11674.28
638.632	11190.95
638.825	10654.39
639.019	10207.93
639.212	9652.93
639.406	9446.09
639.599	8905.42
639.793	8645.33
639.986	8274.65
640.18	8164.06
640.373	7568.1
640.567	7367.4
640.76	7236.33
640.954	6828.78
641.147	6587.12
641.34	6228.73
641.534	6134.52
641.727	5788.41
641.92	5577.47
642.114	5303.04
642.307	4993.8
642.5	5038.86
642.694	4754.19
642.887	4666.13
643.08	4582.16
643.273	4471.57
643.467	4121.37
643.66	4018.97
643.853	3699.48
644.046	3722.01
644.239	3578.65
644.432	3425.06
644.626	3097.38
644.819	3113.77
645.012	2986.79
645.205	2978.6
645.398	2900.78
645.591	2749.23
645.784	2464.56
645.977	2534.19
646.17	2358.07
646.363	2294.58
646.556	2202.42
646.749	2030.39
646.942	2093.88
647.135	2179.89
647.328	1882.94
647.521	1856.31
647.714	1647.42
647.907	1733.43
648.099	1659.71
648.292	1639.23
648.485	1581.89
648.678	1502.01
648.871	1418.05
649.064	1428.29
649.256	1272.64
649.449	1344.32
649.642	1196.87
649.835	1102.66
650.027	1086.28
650.22	1139.52
650.413	1053.51
650.605	1053.51
650.798	971.59
650.991	1020.74
651.183	928.58
651.376	965.45
651.568	955.21
651.761	865.1
651.954	830.28
652.146	729.93
652.339	852.81
652.531	799.56
652.724	750.41
652.916	672.59
653.109	480.08
653.301	666.44
653.494	758.6
653.686	619.34
653.879	676.68
654.071	615.24
654.263	492.37
654.456	518.99
654.648	766.79
654.84	529.23
655.033	455.5
655.225	654.16
655.417	283.47
655.61	537.42
655.802	521.04
655.994	549.71
656.186	418.64
656.379	492.37
656.571	389.97
656.763	406.35
656.955	392.02
657.148	496.46
657.34	455.5
657.532	404.3
657.724	344.91
657.916	361.3
658.108	439.12
658.3	396.11
658.492	299.86
658.684	310.1
658.876	381.78
659.068	244.56
659.26	262.99
659.452	215.89
659.644	322.38
659.836	437.07
660.028	328.53
660.22	361.3
660.412	295.76
660.604	226.13
660.796	301.9
660.988	336.72
661.18	326.48
661.372	224.08
661.563	230.23
661.755	291.66
661.947	176.98
662.139	232.27
662.331	258.9
662.522	234.32
662.714	187.22
662.906	168.79
663.097	281.43
663.289	90.96
663.481	76.63
663.673	193.36
663.864	222.03
664.056	219.99
664.247	209.75
664.439	267.09
664.631	179.03
664.822	250.71
665.014	158.55
665.205	187.22
665.397	222.03
665.588	129.88
665.78	248.66
665.971	291.66
666.163	148.31
666.354	201.55
666.546	197.46
666.737	273.23
666.929	95.06
667.12	154.45
667.311	217.94
667.503	217.94
667.694	310.1
667.885	234.32
668.077	242.51
668.268	97.11
668.459	131.92
668.651	121.68
668.842	136.02
669.033	166.74
669.224	111.44
669.416	326.48
669.607	146.26
669.798	121.68
669.989	256.85
670.18	113.49
670.371	187.22
670.563	111.44
670.754	310.1
670.945	238.42
671.136	183.12
671.327	-1.19
671.518	258.9
671.709	236.37
671.9	185.17
672.091	328.53
672.282	199.51
672.473	88.92
672.664	119.64
672.855	168.79
673.046	174.93
673.237	211.79
673.428	138.07
673.619	240.47
673.809	195.41
674	230.23
674.191	146.26
674.382	191.31
674.573	174.93
674.764	248.66
674.954	215.89
675.145	113.49
675.336	140.12
675.527	37.72
675.717	115.54
675.908	117.59
676.099	150.36
676.289	207.7
676.48	176.98
676.671	185.17
676.861	176.98
677.052	193.36
677.243	172.88
677.433	176.98
677.624	250.71
677.814	211.79
678.005	138.07
678.195	277.33
678.386	131.92
678.576	228.18
678.767	66.39
678.957	244.56
679.148	326.48
679.338	262.99
679.529	250.71
679.719	193.36
679.909	281.43
680.1	277.33
680.29	228.18
680.481	166.74
680.671	271.19
680.861	195.41
681.052	256.85
681.242	150.36
681.432	291.66
681.622	281.43
681.813	189.27
682.003	213.84
682.193	174.93
682.383	224.08
682.573	222.03
682.764	170.83
682.954	297.81
683.144	342.86
683.334	250.71
683.524	256.85
683.714	353.1
683.904	244.56
684.094	267.09
684.284	209.75
684.474	316.24
684.664	265.04
684.854	262.99
685.044	252.75
685.234	289.62
685.424	256.85
685.614	291.66
685.804	381.78
685.994	275.28
686.184	228.18
686.374	273.23
686.564	222.03
686.753	189.27
686.943	148.31
687.133	269.14
687.323	226.13
687.513	246.61
687.702	246.61
687.892	226.13
688.082	295.76
688.272	373.58
688.461	265.04
688.651	394.06
688.841	287.57
689.03	209.75
689.22	273.23
689.41	285.52
689.599	314.19
689.789	232.27
689.979	367.44
690.168	164.69
690.358	293.71
690.547	238.42
690.737	244.56
690.926	306
691.116	322.38
691.305	254.8
691.495	338.77
691.684	93.01
691.874	195.41
692.063	295.76
692.252	283.47
692.442	392.02
692.631	156.5
692.82	265.04
693.01	228.18
693.199	205.65
693.388	283.47
693.578	203.6
693.767	349.01
693.956	279.38
694.146	228.18
694.335	271.19
694.524	250.71
694.713	310.1
694.902	242.51
695.092	222.03
695.281	242.51
695.47	226.13
695.659	144.21
695.848	131.92
696.037	164.69
696.226	260.95
696.415	234.32
696.604	332.62
696.793	232.27
696.982	158.55
697.171	328.53
697.36	250.71
697.549	183.12
697.738	125.78
697.927	199.51
698.116	199.51
698.305	262.99
698.494	299.86
698.683	146.26
698.872	349.01
699.061	246.61
699.25	195.41
699.438	234.32
699.627	181.07
699.816	326.48
700.005	187.22
700.193	232.27
700.382	217.94
700.571	230.23
700.76	287.57
700.948	260.95
701.137	248.66
701.326	254.8
701.514	201.55
701.703	269.14
701.892	226.13
702.08	406.35
702.269	133.97
702.457	183.12
702.646	219.99
702.834	215.89
703.023	211.79
703.212	238.42
703.4	258.9
703.589	162.64
703.777	183.12
703.965	136.02
704.154	217.94
704.342	199.51
704.531	201.55
704.719	199.51
704.907	275.28
705.096	172.88
705.284	158.55
705.472	230.23
705.661	316.24
705.849	324.43
706.037	295.76
706.226	299.86
706.414	199.51
706.602	185.17
706.79	273.23
706.979	191.31
707.167	211.79
707.355	86.87
707.543	265.04
707.731	228.18
707.919	189.27
708.107	240.47
708.296	230.23
708.484	183.12
708.672	242.51
708.86	242.51
709.048	246.61
709.236	262.99
709.424	242.51
709.612	289.62
709.8	90.96
709.988	283.47
710.176	344.91
710.364	306
710.551	195.41
710.739	246.61
710.927	240.47
711.115	215.89
711.303	316.24
711.491	314.19
711.679	189.27
711.866	320.34
712.054	138.07
712.242	219.99
712.43	279.38
712.617	236.37
712.805	291.66
712.993	176.98
713.181	160.59
713.368	306
713.556	232.27
713.744	138.07
713.931	426.83
714.119	338.77
714.306	140.12
714.494	226.13
714.682	285.52
714.869	125.78
715.057	201.55
715.244	84.82
715.432	303.95
715.619	215.89
715.807	146.26
715.994	179.03
716.182	185.17
716.369	193.36
716.556	289.62
716.744	144.21
716.931	156.5
717.119	228.18
717.306	222.03
717.493	277.33
717.681	158.55
717.868	219.99
718.055	279.38
718.242	236.37
718.43	254.8
718.617	256.85
718.804	267.09
718.991	295.76
719.179	193.36
719.366	283.47
719.553	246.61
719.74	303.95
719.927	256.85
720.114	230.23
720.301	213.84
720.488	226.13
720.676	113.49
720.863	338.77
721.05	408.4
721.237	156.5
721.424	203.6
721.611	248.66
721.798	150.36
721.985	140.12
722.172	168.79
722.358	183.12
722.545	316.24
722.732	320.34
722.919	328.53
723.106	273.23
723.293	170.83
723.48	271.19
723.667	185.17
723.853	256.85
724.04	308.05
724.227	234.32
724.414	146.26
724.6	258.9
724.787	381.78
724.974	437.07
725.161	242.51
725.347	201.55
725.534	195.41
725.72	269.14
725.907	303.95
726.094	287.57
726.28	238.42
726.467	283.47
726.653	152.4
726.84	342.86
727.027	371.54
727.213	209.75
727.4	287.57
727.586	312.14
727.773	277.33
727.959	240.47
728.145	269.14
728.332	228.18
728.518	193.36
728.705	258.9
728.891	277.33
729.077	267.09
729.264	297.81
729.45	176.98
729.636	349.01
729.823	269.14
730.009	310.1
730.195	308.05
730.382	289.62
730.568	215.89
730.754	211.79
730.94	240.47
731.126	258.9
731.313	303.95
731.499	324.43
731.685	222.03
731.871	369.49
732.057	299.86
732.243	303.95
732.429	332.62
732.615	389.97
732.801	308.05
732.987	195.41
733.173	369.49
733.359	260.95
733.545	318.29
733.731	291.66
733.917	414.54
734.103	332.62
734.289	248.66
734.475	326.48
734.661	437.07
734.847	199.51
735.033	357.2
735.219	387.92
735.404	260.95
735.59	250.71
735.776	226.13
735.962	295.76
736.148	353.1
736.333	389.97
736.519	322.38
736.705	271.19
736.89	289.62
737.076	289.62
737.262	275.28
737.447	240.47
737.633	226.13
737.819	349.01
738.004	306
738.19	297.81
738.375	373.58
738.561	369.49
738.747	289.62
738.932	246.61
739.118	447.31
739.303	361.3
739.489	326.48
739.674	324.43
739.859	203.6
740.045	396.11
740.23	262.99
740.416	209.75
740.601	244.56
740.786	328.53
740.972	308.05
741.157	248.66
741.342	166.74
741.528	203.6
741.713	357.2
741.898	250.71
742.084	258.9
742.269	256.85
742.454	349.01
742.639	295.76
742.824	308.05
743.01	379.73
743.195	435.02
743.38	312.14
743.565	371.54
743.75	312.14
743.935	398.16
744.12	365.39
744.305	162.64
744.49	207.7
744.675	185.17
744.86	211.79
745.045	338.77
745.23	250.71
745.415	262.99
745.6	346.96
745.785	205.65
745.97	342.86
746.155	244.56
746.34	228.18
746.525	281.43
746.71	285.52
746.895	160.59
747.079	271.19
747.264	201.55
747.449	336.72
747.634	252.75
747.819	246.61
748.003	279.38
748.188	156.5
748.373	279.38
748.557	289.62
748.742	250.71
748.927	332.62
749.111	287.57
749.296	209.75
749.481	271.19
749.665	295.76
749.85	234.32
750.034	230.23
750.219	252.75
750.404	228.18
750.588	181.07
750.773	207.7
750.957	271.19
751.141	240.47
751.326	271.19
751.51	144.21
751.695	211.79
751.879	179.03
752.064	283.47
752.248	127.83
752.432	334.67
752.617	299.86
752.801	287.57
752.985	289.62
753.17	283.47
753.354	248.66
753.538	242.51
753.722	176.98
753.907	115.54
754.091	103.25
754.275	269.14
754.459	131.92
754.643	39.76
754.828	127.83
755.012	248.66
755.196	142.16
755.38	267.09
755.564	140.12
755.748	154.45
755.932	224.08
756.116	240.47
756.3	148.31
756.484	195.41
756.668	320.34
756.852	66.39
757.036	166.74
757.22	193.36
757.404	62.29
757.588	176.98
757.772	185.17
757.956	205.65
758.14	281.43
758.323	144.21
758.507	267.09
758.691	105.3
758.875	191.31
759.059	217.94
759.242	93.01
759.426	160.59
759.61	201.55
759.794	62.29
759.977	222.03
760.161	365.39
760.345	258.9
760.528	181.07
760.712	242.51
760.895	170.83
761.079	152.4
761.263	111.44
761.446	176.98
761.63	144.21
761.813	228.18
761.997	52.05
762.18	119.64
762.364	236.37
762.547	54.1
762.731	117.59
762.914	199.51
763.098	136.02
763.281	183.12
763.464	109.4
763.648	150.36
763.831	99.16
764.015	150.36
764.198	187.22
764.381	56.15
764.564	150.36
764.748	131.92
764.931	213.84
765.114	142.16
765.297	105.3
765.481	129.88
765.664	103.25
765.847	105.3
766.03	217.94
766.213	113.49
766.397	150.36
766.58	43.86
766.763	146.26
766.946	60.24
767.129	54.1
767.312	62.29
767.495	93.01
767.678	131.92
767.861	183.12
768.044	146.26
768.227	142.16
768.41	119.64
768.593	129.88
768.776	156.5
768.959	78.68
769.142	170.83
769.324	21.33
769.507	129.88
769.69	138.07
769.873	138.07
770.056	273.23
770.239	144.21
770.421	152.4
770.604	129.88
770.787	131.92
770.97	166.74
771.152	160.59
771.335	230.23
771.518	56.15
771.7	215.89
771.883	140.12
772.066	35.67
772.248	64.34
772.431	131.92
772.613	136.02
772.796	41.81
772.978	160.59
773.161	160.59
773.343	64.34
773.526	23.38
773.708	54.1
773.891	37.72
774.073	84.82
774.256	-3.24
774.438	207.7
774.621	93.01
774.803	115.54
774.985	54.1
775.168	68.44
775.35	62.29
775.532	115.54
775.715	103.25
775.897	170.83
776.079	72.53
776.261	111.44
776.444	70.48
776.626	111.44
776.808	68.44
776.99	60.24
777.173	144.21
777.355	62.29
777.537	136.02
777.719	119.64
777.901	-42.15
778.083	11.09
778.265	19.29
778.447	131.92
778.629	33.62
778.811	86.87
778.993	162.64
779.175	121.68
779.357	123.73
779.539	33.62
779.721	76.63
779.903	95.06
780.085	50
780.267	60.24
780.449	133.97
780.631	101.2
780.812	199.51
780.994	-11.43
781.176	113.49
781.358	84.82
781.54	41.81
781.721	172.88
781.903	123.73
782.085	39.76
782.267	111.44
782.448	-38.06
782.63	17.24
782.812	82.77
782.993	82.77
783.175	115.54
783.357	72.53
783.538	45.91
783.72	-29.87
783.901	103.25
784.083	35.67
784.264	127.83
784.446	-58.54
784.627	-50.35
784.809	129.88
784.99	21.33
785.172	140.12
785.353	72.53
785.535	82.77
785.716	41.81
785.897	31.57
786.079	74.58
786.26	148.31
786.441	54.1
786.623	-93.35
786.804	70.48
786.985	74.58
787.167	127.83
787.348	25.43
787.529	78.68
787.71	209.75
787.891	103.25
788.073	54.1
788.254	29.52
788.435	179.03
788.616	39.76
788.797	-17.58
788.978	27.48
789.159	-21.67
789.34	66.39
789.522	37.72
789.703	13.14
789.884	43.86
790.065	70.48
790.246	158.55
790.427	-7.34
790.607	107.35
790.788	80.72
790.969	11.09
791.15	76.63
791.331	21.33
791.512	43.86
791.693	0.85
791.874	-23.72
792.054	205.65
792.235	52.05
792.416	-27.82
792.597	35.67
792.778	131.92
792.958	148.31
793.139	45.91
793.32	86.87
793.5	-38.06
793.681	129.88
793.862	99.16
794.042	9.05
794.223	-52.39
794.404	-3.24
794.584	-50.35
794.765	52.05
794.945	62.29
795.126	95.06
795.306	43.86
795.487	-3.24
795.667	54.1
795.848	103.25
796.028	27.48
796.209	70.48
796.389	93.01
796.57	101.2
796.75	-5.29
796.93	58.2
797.111	4.95
797.291	82.77
797.471	33.62
797.652	-21.67
797.832	-23.72
798.012	60.24
798.192	7
798.373	-19.63
798.553	25.43
798.733	111.44
798.913	2.9
799.093	-111.78
799.274	140.12
799.454	74.58
799.634	33.62
799.814	80.72
799.994	9.05
800.174	64.34
800.354	66.39
800.534	-89.26
800.714	82.77
800.894	-11.43
801.074	9.05
801.254	-23.72
801.434	115.54
801.614	-33.96
801.794	-23.72
801.974	1796.92
802.154	103.25
802.334	115.54
802.514	-17.58
802.693	-13.48
802.873	-50.35
803.053	183.12
803.233	93.01
803.413	-11.43
803.592	-44.2
803.772	-36.01
803.952	9.05
804.131	-40.11
804.311	127.83
804.491	148.31
804.67	-1.19
804.85	-23.72
805.03	113.49
805.209	74.58
805.389	50
805.568	25.43
805.748	19.29
805.928	7
806.107	99.16
806.287	105.3
806.466	50
806.646	-7.34
806.825	60.24
807.004	-36.01
807.184	80.72
807.363	127.83
807.543	60.24
807.722	-27.82
807.901	82.77
808.081	70.48
808.26	-76.97
808.439	-15.53
808.619	2.9
808.798	-23.72
808.977	64.34
809.156	123.73
809.336	15.19
809.515	121.68
809.694	-17.58
809.873	-25.77
810.052	70.48
810.231	35.67
810.411	86.87
810.59	84.82
810.769	60.24
810.948	-1.19
811.127	-74.92
811.306	-66.73
811.485	-42.15
811.664	168.79
811.843	4.95
812.022	-52.39
812.201	11.09
812.38	29.52
812.559	31.57
812.737	78.68
812.916	-97.45
813.095	-44.2
813.274	25.43
813.453	23.38
813.632	25.43
813.811	84.82
813.989	-76.97
814.168	-5.29
814.347	-62.63
814.526	-38.06
814.704	170.83
814.883	13.14
815.062	-17.58
815.24	185.17
815.419	-23.72
815.598	62.29
815.776	-72.87
815.955	35.67
816.133	-54.44
816.312	25.43
816.49	31.57
816.669	19.29
816.847	11.09
817.026	115.54
817.204	-15.53
817.383	60.24
817.561	21.33
817.74	62.29
817.918	66.39
818.097	27.48
818.275	-25.77
818.453	129.88
818.632	54.1
818.81	-23.72
818.988	-3.24
819.167	-44.2
819.345	-38.06
819.523	21.33
819.701	74.58
819.879	107.35
820.058	82.77
820.236	62.29
820.414	45.91
820.592	-44.2
820.77	-1.19
820.948	58.2
821.127	-1.19
821.305	29.52
821.483	-44.2
821.661	127.83
821.839	68.44
822.017	-62.63
822.195	47.96
822.373	138.07
822.551	78.68
822.729	62.29
822.907	13.14
823.085	107.35
823.262	19.29
823.44	-56.49
823.618	-7.34
823.796	-27.82
823.974	-7.34
824.152	-3.24
824.329	13.14
824.507	54.1
824.685	68.44
824.863	-13.48
825.04	76.63
825.218	52.05
825.396	25.43
825.574	62.29
825.751	90.96
825.929	82.77
826.107	-91.31
826.284	29.52
826.462	101.2
826.639	-23.72
826.817	2.9
826.994	31.57
827.172	-68.78
827.349	127.83
827.527	58.2
827.704	25.43
827.882	123.73
828.059	19.29
828.237	-40.11
828.414	105.3
828.591	-56.49
828.769	95.06
828.946	-40.11
829.124	52.05
829.301	162.64
829.478	58.2
829.655	47.96
829.833	-29.87
830.01	-76.97
830.187	-40.11
830.364	-9.39
830.542	21.33
830.719	84.82
830.896	86.87
831.073	68.44
831.25	52.05
831.427	37.72
831.604	-1.19
831.782	-33.96
831.959	56.15
832.136	62.29
832.313	41.81
832.49	2.9
832.667	60.24
832.844	-31.91
833.021	166.74
833.198	17.24
833.374	70.48
833.551	39.76
833.728	-7.34
833.905	158.55
834.082	-169.13
834.259	33.62
834.436	117.59
834.612	-7.34
834.789	15.19
834.966	11.09
835.143	58.2
835.319	-70.83
835.496	80.72
835.673	78.68
835.85	99.16
836.026	58.2
836.203	33.62
836.38	-17.58
836.556	4.95
836.733	-52.39
836.909	101.2
837.086	-38.06
837.262	-58.54
837.439	15.19
837.616	-44.2
837.792	21.33
837.968	21.33
838.145	-89.26
838.321	21.33
838.498	64.34
838.674	74.58
838.851	0.85
839.027	-13.48
839.203	15.19
839.38	119.64
839.556	-58.54
839.732	-3.24
839.909	35.67
840.085	31.57
840.261	-142.5
840.437	43.86
840.614	39.76
840.79	101.2
840.966	88.92
841.142	-38.06
841.318	-17.58
841.494	31.57
841.671	152.4
841.847	-23.72
842.023	-42.15
842.199	17.24
842.375	131.92
842.551	-109.74
842.727	-62.63
842.903	193.36
843.079	-44.2
843.255	62.29
843.431	-9.39
843.607	21.33
843.783	-115.88
843.959	-48.3
844.134	-66.73
844.31	136.02
844.486	-9.39
844.662	-52.39
844.838	-56.49
845.013	56.15
845.189	37.72
845.365	2.9
845.541	68.44
845.716	-3.24
845.892	82.77
846.068	-21.67
846.244	11.09
846.419	7
846.595	-83.11
846.77	-85.16
846.946	70.48
847.122	-48.3
847.297	-48.3
847.473	72.53
847.648	-113.83
847.824	17.24
847.999	-87.21
848.175	-38.06
848.35	95.06
848.526	62.29
848.701	78.68
848.876	68.44
849.052	170.83
849.227	50
849.403	-17.58
849.578	-3.24
849.753	-21.67
849.929	86.87
850.104	-7.34
850.279	-23.72
850.454	86.87
850.63	82.77
850.805	43.86
850.98	9.05
851.155	29.52
851.33	82.77
851.505	-23.72
851.681	152.4
851.856	-38.06
852.031	25.43
852.206	-1.19
852.381	-33.96
852.556	11.09
852.731	117.59
852.906	31.57
853.081	31.57
853.256	174.93
853.431	-11.43
853.606	19.29
853.781	52.05
853.956	-134.31
854.131	7
854.305	-31.91
854.48	-21.67
854.655	-27.82
854.83	-74.92
855.005	37.72
855.18	25.43
855.354	45.91
855.529	56.15
855.704	9.05
855.879	150.36
856.053	-56.49
856.228	-60.59
856.403	21.33
856.577	64.34
856.752	-76.97
856.926	-31.91
857.101	-7.34
857.276	-5.29
857.45	74.58
857.625	27.48
857.799	-15.53
857.974	-19.63
858.148	-74.92
858.323	54.1
858.497	-79.02
858.672	-3.24
858.846	-17.58
859.02	39.76
859.195	-134.31
859.369	-44.2
859.543	109.4
859.718	-29.87
859.892	-50.35
860.066	70.48
860.241	13.14
860.415	-13.48
860.589	15.19
860.763	17.24
860.938	9.05
861.112	86.87
861.286	-44.2
861.46	70.48
861.634	7
861.808	-15.53
861.982	-27.82
862.157	-152.74
862.331	-68.78
862.505	-81.07
862.679	-160.94
862.853	29.52
863.027	-50.35
863.201	168.79
863.375	-68.78
863.549	-5.29
863.722	2.9
863.896	113.49
864.07	-89.26
864.244	-27.82
864.418	37.72
864.592	13.14
864.766	4.95
864.939	54.1
865.113	-70.83
865.287	152.4
865.461	-52.39
865.634	41.81
865.808	-25.77
865.982	-31.91
866.156	15.19
866.329	-111.78
866.503	72.53
866.676	82.77
866.85	19.29
867.024	-83.11
867.197	54.1
867.371	76.63
867.544	33.62
867.718	-87.21
867.891	86.87
868.065	-93.35
868.238	11.09
868.412	148.31
868.585	37.72
868.759	-36.01
868.932	-7.34
869.105	-152.74
869.279	11.09
869.452	-85.16
869.625	107.35
869.799	35.67
869.972	-126.12
870.145	27.48
870.319	82.77
870.492	54.1
870.665	0.85
870.838	-89.26
871.011	-85.16
871.185	66.39
871.358	7
871.531	29.52
871.704	4.95
871.877	70.48
872.05	-17.58
872.223	-177.32
872.396	66.39
872.569	105.3
872.742	-83.11
872.915	111.44
873.088	-9.39
873.261	-40.11
873.434	88.92
873.607	47.96
873.78	109.4
873.953	-48.3
874.126	15.19
874.299	64.34
874.471	-23.72
874.644	-44.2
874.817	68.44
874.99	115.54
875.163	-46.25
875.335	52.05
875.508	-3.24
875.681	140.12
875.853	-11.43
876.026	21.33
876.199	45.91
876.371	50
876.544	-17.58
876.717	-36.01
876.889	-19.63
877.062	74.58
877.234	-115.88
877.407	-83.11
877.579	31.57
877.752	15.19
877.924	62.29
878.097	35.67
878.269	-40.11
878.442	41.81
878.614	90.96
878.786	9.05
878.959	-50.35
879.131	90.96
879.303	-79.02
879.476	2.9
879.648	111.44
879.82	88.92
879.993	-33.96
880.165	-23.72
880.337	-72.87
880.509	-52.39
880.681	-50.35
880.854	-40.11
881.026	37.72
881.198	211.79
881.37	-7.34
881.542	-17.58
881.714	0.85
881.886	-21.67
882.058	-1.19
882.23	-15.53
882.402	11.09
882.574	60.24
882.746	21.33
882.918	68.44
883.09	68.44
883.262	-17.58
883.434	-3.24
883.606	-68.78
883.778	0.85
883.95	115.54
884.122	-44.2
884.293	76.63
884.465	64.34
884.637	39.76
884.809	4.95
884.98	52.05
885.152	4.95
885.324	99.16
885.496	-17.58
885.667	62.29
885.839	0.85
886.011	119.64
886.182	-21.67
886.354	19.29
886.525	82.77
886.697	19.29
886.869	-60.59
887.04	60.24
887.212	60.24
887.383	119.64
887.555	70.48
887.726	-23.72
887.897	-42.15
888.069	19.29
888.24	33.62
888.412	-48.3
888.583	27.48
888.754	50
888.926	-103.59
889.097	-5.29
889.268	-83.11
889.44	88.92
889.611	-95.4
889.782	-189.61
889.953	7
890.125	129.88
890.296	-83.11
890.467	43.86
890.638	37.72
890.809	31.57
890.98	-64.68
891.151	68.44
891.323	103.25
891.494	-64.68
891.665	29.52
891.836	11.09
892.007	99.16
892.178	9.05
892.349	70.48
892.52	-21.67
892.691	-17.58
892.862	-89.26
893.032	-111.78
893.203	0.85
893.374	-15.53
893.545	68.44
893.716	-60.59
893.887	95.06
894.057	-23.72
894.228	9.05
894.399	-46.25
894.57	107.35
894.74	52.05
894.911	41.81
895.082	-31.91
895.253	-79.02
895.423	13.14
895.594	64.34
895.764	84.82
895.935	-117.93
896.106	78.68
896.276	-38.06
896.447	64.34
896.617	-40.11
896.788	-36.01
896.958	31.57
897.129	-21.67
897.299	-29.87
897.47	80.72
897.64	60.24
897.81	-46.25
897.981	50
898.151	-52.39
898.322	33.62
898.492	-7.34
898.662	-54.44
898.832	-9.39
899.003	-5.29
899.173	31.57
899.343	-13.48
899.513	-70.83
