Data from USB4F104151__162__11-04-43-736.txt Node

Date: Wed Feb 26 11:04:43 EST 2025
User: louis
Spectrometer: USB4F10415
Trigger mode: 4
Integration Time (sec): 1.000000E-1
Scans to average: 1
Electric dark correction enabled: true
Nonlinearity correction enabled: false
Boxcar width: 0
XAxis mode: Wavelengths
Number of Pixels in Spectrum: 3648
>>>>>Begin Spectral Data<<<<<
178.204	-381.6
178.424	-381.6
178.644	-381.6
178.864	-391.84
179.084	-453.28
179.304	-70.31
179.524	-88.75
179.744	52.56
179.964	19.8
180.184	89.43
180.404	71
180.624	-21.16
180.844	-35.5
181.064	1.37
181.283	3.41
181.503	-82.6
181.723	60.76
181.943	-217.77
182.163	161.11
182.383	-62.12
182.602	42.32
182.822	173.39
183.042	91.48
183.262	-125.61
183.482	-43.69
183.701	34.13
183.921	107.86
184.141	-45.74
184.361	54.61
184.58	107.86
184.8	81.24
185.02	-0.68
185.239	128.34
185.459	36.18
185.679	64.85
185.898	-139.94
186.118	87.38
186.338	68.95
186.557	140.63
186.777	-103.08
186.997	-68.27
187.216	1.37
187.436	138.58
187.655	52.56
187.875	15.7
188.095	42.32
188.314	142.68
188.534	183.63
188.753	-84.65
188.973	101.72
189.192	111.96
189.412	36.18
189.631	52.56
189.851	107.86
190.07	75.09
190.29	42.32
190.509	-29.35
190.729	56.66
190.948	212.31
191.168	195.92
191.387	38.23
191.607	-35.5
191.826	7.51
192.045	-49.83
192.265	-8.87
192.484	52.56
192.704	75.09
192.923	1.37
193.142	200.02
193.362	150.87
193.581	118.1
193.8	109.91
194.02	58.71
194.239	73.04
194.458	30.04
194.678	64.85
194.897	34.13
195.116	107.86
195.335	83.28
195.555	81.24
195.774	42.32
195.993	81.24
196.212	11.61
196.432	-21.16
196.651	-2.73
196.87	17.75
197.089	183.63
197.308	15.7
197.528	116.05
197.747	36.18
197.966	138.58
198.185	163.15
198.404	87.38
198.623	159.06
198.842	66.9
199.062	42.32
199.281	27.99
199.5	34.13
199.719	56.66
199.938	95.57
200.157	40.28
200.376	152.91
200.595	126.29
200.814	-35.5
201.033	1.37
201.252	150.87
201.471	54.61
201.69	101.72
201.909	54.61
202.128	52.56
202.347	118.1
202.566	58.71
202.785	-33.45
203.004	11.61
203.223	300.37
203.442	52.56
203.661	-31.4
203.879	40.28
204.098	140.63
204.317	-25.26
204.536	68.95
204.755	17.75
204.974	111.96
205.193	1.37
205.411	150.87
205.63	165.2
205.849	-8.87
206.068	-21.16
206.287	-37.55
206.505	150.87
206.724	1.37
206.943	1.37
207.162	7.51
207.381	62.8
207.599	3.41
207.818	40.28
208.037	-58.03
208.255	-2.73
208.474	23.89
208.693	64.85
208.911	-17.07
209.13	89.43
209.349	-21.16
209.567	46.42
209.786	120.15
210.005	146.77
210.223	75.09
210.442	-45.74
210.661	81.24
210.879	103.76
211.098	54.61
211.316	56.66
211.535	58.71
211.753	105.81
211.972	122.2
212.191	-6.83
212.409	-0.68
212.628	11.61
212.846	-15.02
213.065	-31.4
213.283	122.2
213.502	25.94
213.72	17.75
213.938	75.09
214.157	-8.87
214.375	68.95
214.594	40.28
214.812	23.89
215.031	122.2
215.249	95.57
215.467	3.41
215.686	9.56
215.904	124.24
216.122	60.76
216.341	177.49
216.559	109.91
216.778	93.52
216.996	154.96
217.214	19.8
217.432	-29.35
217.651	-68.27
217.869	17.75
218.087	25.94
218.306	56.66
218.524	9.56
218.742	-62.12
218.96	85.33
219.179	-0.68
219.397	32.08
219.615	200.02
219.833	107.86
220.051	-55.98
220.27	1.37
220.488	83.28
220.706	15.7
220.924	3.41
221.142	1.37
221.36	23.89
221.578	105.81
221.796	-8.87
222.015	85.33
222.233	75.09
222.451	120.15
222.669	-55.98
222.887	75.09
223.105	-58.03
223.323	103.76
223.541	15.7
223.759	46.42
223.977	5.46
224.195	171.35
224.413	54.61
224.631	46.42
224.849	1.37
225.067	157.01
225.285	36.18
225.503	25.94
225.721	-51.88
225.939	32.08
226.157	85.33
226.375	206.16
226.592	21.85
226.81	46.42
227.028	118.1
227.246	85.33
227.464	48.47
227.682	19.8
227.9	66.9
228.117	32.08
228.335	52.56
228.553	40.28
228.771	17.75
228.989	58.71
229.206	-4.78
229.424	-39.59
229.642	54.61
229.86	-43.69
230.077	118.1
230.295	9.56
230.513	30.04
230.731	64.85
230.948	200.02
231.166	255.31
231.384	-0.68
231.601	-43.69
231.819	187.73
232.037	-58.03
232.254	-12.97
232.472	68.95
232.689	-53.93
232.907	163.15
233.125	-6.83
233.342	-51.88
233.56	-43.69
233.777	77.14
233.995	17.75
234.213	25.94
234.43	58.71
234.648	3.41
234.865	11.61
235.083	50.52
235.3	46.42
235.518	144.72
235.735	144.72
235.953	91.48
236.17	77.14
236.388	64.85
236.605	77.14
236.822	144.72
237.04	101.72
237.257	9.56
237.475	-96.94
237.692	27.99
237.909	44.37
238.127	60.76
238.344	15.7
238.562	25.94
238.779	-45.74
238.996	30.04
239.214	54.61
239.431	73.04
239.648	-6.83
239.865	34.13
240.083	118.1
240.3	-41.64
240.517	42.32
240.735	-12.97
240.952	159.06
241.169	99.67
241.386	124.24
241.603	52.56
241.821	-66.22
242.038	124.24
242.255	85.33
242.472	1.37
242.689	58.71
242.907	109.91
243.124	114
243.341	15.7
243.558	-41.64
243.775	-33.45
243.992	-21.16
244.209	144.72
244.426	185.68
244.643	148.82
244.86	-31.4
245.078	144.72
245.295	62.8
245.512	-66.22
245.729	-43.69
245.946	73.04
246.163	32.08
246.38	11.61
246.597	75.09
246.814	30.04
247.031	-15.02
247.248	-17.07
247.464	95.57
247.681	56.66
247.898	101.72
248.115	87.38
248.332	17.75
248.549	58.71
248.766	197.97
248.983	81.24
249.2	126.29
249.417	99.67
249.633	19.8
249.85	58.71
250.067	1.37
250.284	-2.73
250.501	87.38
250.717	107.86
250.934	-21.16
251.151	17.75
251.368	77.14
251.585	50.52
251.801	128.34
252.018	-31.4
252.235	111.96
252.451	-45.74
252.668	52.56
252.885	89.43
253.102	66.9
253.318	-6.83
253.535	21.85
253.752	19.8
253.968	-31.4
254.185	-55.98
254.401	64.85
254.618	107.86
254.835	-66.22
255.051	105.81
255.268	75.09
255.484	19.8
255.701	11.61
255.917	66.9
256.134	-45.74
256.351	34.13
256.567	21.85
256.784	42.32
257	-123.56
257.217	114
257.433	130.39
257.65	32.08
257.866	120.15
258.082	-90.79
258.299	32.08
258.515	103.76
258.732	-47.79
258.948	-58.03
259.165	23.89
259.381	27.99
259.597	62.8
259.814	46.42
260.03	44.37
260.246	-27.31
260.463	161.11
260.679	161.11
260.895	83.28
261.112	85.33
261.328	-2.73
261.544	-96.94
261.761	177.49
261.977	-33.45
262.193	-53.93
262.409	111.96
262.626	68.95
262.842	68.95
263.058	-94.89
263.274	56.66
263.49	34.13
263.707	87.38
263.923	50.52
264.139	-74.41
264.355	73.04
264.571	85.33
264.787	73.04
265.004	93.52
265.22	71
265.436	-12.97
265.652	77.14
265.868	50.52
266.084	-47.79
266.3	21.85
266.516	-92.84
266.732	85.33
266.948	103.76
267.164	-33.45
267.38	93.52
267.596	50.52
267.812	165.2
268.028	3.41
268.244	15.7
268.46	130.39
268.676	87.38
268.892	-0.68
269.108	-15.02
269.324	-55.98
269.54	-35.5
269.756	132.44
269.972	-47.79
270.188	11.61
270.403	-27.31
270.619	36.18
270.835	58.71
271.051	89.43
271.267	-55.98
271.483	-0.68
271.698	122.2
271.914	68.95
272.13	17.75
272.346	-31.4
272.562	19.8
272.777	111.96
272.993	-6.83
273.209	48.47
273.425	48.47
273.64	-84.65
273.856	54.61
274.072	40.28
274.287	13.65
274.503	77.14
274.719	44.37
274.934	-15.02
275.15	-74.41
275.366	44.37
275.581	-6.83
275.797	13.65
276.012	105.81
276.228	-17.07
276.444	93.52
276.659	89.43
276.875	-19.11
277.09	52.56
277.306	27.99
277.521	77.14
277.737	52.56
277.952	85.33
278.168	34.13
278.383	60.76
278.599	54.61
278.814	126.29
279.03	42.32
279.245	73.04
279.461	3.41
279.676	58.71
279.892	27.99
280.107	38.23
280.322	-72.36
280.538	40.28
280.753	54.61
280.969	66.9
281.184	11.61
281.399	122.2
281.615	34.13
281.83	150.87
282.045	-15.02
282.26	-72.36
282.476	25.94
282.691	130.39
282.906	136.53
283.122	58.71
283.337	58.71
283.552	32.08
283.767	40.28
283.983	126.29
284.198	-45.74
284.413	99.67
284.628	-47.79
284.843	66.9
285.058	83.28
285.274	27.99
285.489	-21.16
285.704	159.06
285.919	21.85
286.134	-6.83
286.349	-4.78
286.564	17.75
286.779	234.83
286.995	21.85
287.21	-47.79
287.425	148.82
287.64	5.46
287.855	60.76
288.07	-17.07
288.285	44.37
288.5	81.24
288.715	34.13
288.93	-64.17
289.145	-35.5
289.36	64.85
289.575	30.04
289.79	152.91
290.004	-19.11
290.219	136.53
290.434	-78.51
290.649	-27.31
290.864	-47.79
291.079	62.8
291.294	44.37
291.509	60.76
291.724	21.85
291.938	9.56
292.153	120.15
292.368	23.89
292.583	48.47
292.798	75.09
293.012	-12.97
293.227	13.65
293.442	-76.46
293.657	167.25
293.871	54.61
294.086	89.43
294.301	111.96
294.516	7.51
294.73	48.47
294.945	-62.12
295.16	-58.03
295.374	136.53
295.589	140.63
295.804	-23.21
296.018	107.86
296.233	120.15
296.447	-37.55
296.662	40.28
296.877	183.63
297.091	77.14
297.306	25.94
297.52	-6.83
297.735	-35.5
297.949	19.8
298.164	95.57
298.378	-4.78
298.593	-10.92
298.807	25.94
299.022	1.37
299.236	83.28
299.451	-27.31
299.665	15.7
299.88	25.94
300.094	75.09
300.309	68.95
300.523	30.04
300.737	44.37
300.952	48.47
301.166	75.09
301.381	3.41
301.595	25.94
301.809	3.41
302.024	-12.97
302.238	-6.83
302.452	150.87
302.667	-55.98
302.881	181.59
303.095	83.28
303.309	42.32
303.524	30.04
303.738	23.89
303.952	34.13
304.166	101.72
304.381	-17.07
304.595	173.39
304.809	40.28
305.023	32.08
305.237	42.32
305.452	15.7
305.666	38.23
305.88	40.28
306.094	114
306.308	42.32
306.522	95.57
306.736	71
306.95	136.53
307.164	15.7
307.379	-39.59
307.593	193.87
307.807	109.91
308.021	152.91
308.235	1.37
308.449	-17.07
308.663	52.56
308.877	163.15
309.091	25.94
309.305	109.91
309.519	-43.69
309.733	105.81
309.947	-6.83
310.161	87.38
310.374	87.38
310.588	179.54
310.802	-35.5
311.016	34.13
311.23	111.96
311.444	-25.26
311.658	75.09
311.872	87.38
312.085	181.59
312.299	138.58
312.513	197.97
312.727	71
312.941	-101.03
313.154	73.04
313.368	40.28
313.582	60.76
313.796	11.61
314.009	56.66
314.223	171.35
314.437	19.8
314.651	75.09
314.864	81.24
315.078	-72.36
315.292	-23.21
315.505	-15.02
315.719	66.9
315.933	71
316.146	-2.73
316.36	-31.4
316.573	56.66
316.787	93.52
317.001	77.14
317.214	-39.59
317.428	66.9
317.641	34.13
317.855	30.04
318.068	38.23
318.282	77.14
318.495	173.39
318.709	60.76
318.922	89.43
319.136	144.72
319.349	56.66
319.563	58.71
319.776	68.95
319.99	-47.79
320.203	46.42
320.417	7.51
320.63	171.35
320.843	195.92
321.057	32.08
321.27	11.61
321.483	75.09
321.697	107.86
321.91	60.76
322.124	46.42
322.337	77.14
322.55	44.37
322.763	36.18
322.977	-82.6
323.19	-23.21
323.403	58.71
323.617	101.72
323.83	107.86
324.043	-35.5
324.256	50.52
324.469	-37.55
324.683	154.96
324.896	11.61
325.109	42.32
325.322	-127.66
325.535	89.43
325.748	83.28
325.962	1.37
326.175	30.04
326.388	58.71
326.601	116.05
326.814	-4.78
327.027	56.66
327.24	157.01
327.453	-94.89
327.666	48.47
327.879	124.24
328.092	130.39
328.305	73.04
328.518	46.42
328.731	85.33
328.944	-33.45
329.157	60.76
329.37	-8.87
329.583	148.82
329.796	105.81
330.009	-35.5
330.222	146.77
330.435	81.24
330.648	93.52
330.861	-0.68
331.073	58.71
331.286	105.81
331.499	81.24
331.712	-119.46
331.925	130.39
332.138	56.66
332.35	44.37
332.563	-33.45
332.776	118.1
332.989	-25.26
333.202	27.99
333.414	42.32
333.627	-35.5
333.84	-0.68
334.053	56.66
334.265	17.75
334.478	25.94
334.691	27.99
334.903	48.47
335.116	52.56
335.329	-31.4
335.541	91.48
335.754	152.91
335.966	-17.07
336.179	87.38
336.392	-2.73
336.604	-64.17
336.817	165.2
337.029	50.52
337.242	5.46
337.454	75.09
337.667	85.33
337.88	159.06
338.092	-0.68
338.305	79.19
338.517	52.56
338.729	120.15
338.942	83.28
339.154	13.65
339.367	-78.51
339.579	111.96
339.792	-49.83
340.004	-12.97
340.217	-60.07
340.429	87.38
340.641	-6.83
340.854	-33.45
341.066	-66.22
341.278	179.54
341.491	175.44
341.703	11.61
341.915	-23.21
342.128	157.01
342.34	79.19
342.552	-53.93
342.764	-25.26
342.977	42.32
343.189	134.48
343.401	107.86
343.613	-45.74
343.826	56.66
344.038	-19.11
344.25	46.42
344.462	-70.31
344.674	32.08
344.886	30.04
345.099	38.23
345.311	91.48
345.523	-0.68
345.735	-23.21
345.947	36.18
346.159	48.47
346.371	71
346.583	87.38
346.795	163.15
347.007	60.76
347.219	50.52
347.431	68.95
347.643	132.44
347.855	-23.21
348.067	148.82
348.279	-37.55
348.491	48.47
348.703	71
348.915	30.04
349.127	54.61
349.339	19.8
349.551	-105.13
349.763	206.16
349.975	66.9
350.187	11.61
350.399	124.24
350.61	71
350.822	-47.79
351.034	71
351.246	44.37
351.458	122.2
351.669	60.76
351.881	95.57
352.093	91.48
352.305	62.8
352.517	64.85
352.728	210.26
352.94	19.8
353.152	23.89
353.363	-37.55
353.575	38.23
353.787	148.82
353.999	138.58
354.21	148.82
354.422	-35.5
354.633	-49.83
354.845	17.75
355.057	-39.59
355.268	81.24
355.48	132.44
355.692	-70.31
355.903	-6.83
356.115	-6.83
356.326	-25.26
356.538	173.39
356.749	42.32
356.961	120.15
357.172	-43.69
357.384	50.52
357.595	216.4
357.807	3.41
358.018	19.8
358.23	54.61
358.441	124.24
358.653	-0.68
358.864	30.04
359.075	-45.74
359.287	79.19
359.498	87.38
359.709	17.75
359.921	-0.68
360.132	62.8
360.344	46.42
360.555	13.65
360.766	87.38
360.977	15.7
361.189	134.48
361.4	44.37
361.611	79.19
361.823	132.44
362.034	64.85
362.245	-47.79
362.456	25.94
362.667	97.62
362.879	-19.11
363.09	58.71
363.301	42.32
363.512	83.28
363.723	-33.45
363.935	1.37
364.146	75.09
364.357	-27.31
364.568	87.38
364.779	-82.6
364.99	81.24
365.201	68.95
365.412	132.44
365.623	-82.6
365.834	7.51
366.045	46.42
366.256	27.99
366.467	93.52
366.678	77.14
366.889	44.37
367.1	34.13
367.311	101.72
367.522	3.41
367.733	56.66
367.944	103.76
368.155	-25.26
368.366	91.48
368.577	89.43
368.788	48.47
368.999	-17.07
369.209	30.04
369.42	224.59
369.631	210.26
369.842	-23.21
370.053	73.04
370.264	89.43
370.474	-19.11
370.685	60.76
370.896	71
371.107	111.96
371.317	85.33
371.528	7.51
371.739	114
371.95	87.38
372.16	34.13
372.371	-43.69
372.582	27.99
372.792	71
373.003	89.43
373.214	89.43
373.424	161.11
373.635	-35.5
373.846	116.05
374.056	7.51
374.267	44.37
374.477	85.33
374.688	-21.16
374.898	15.7
375.109	44.37
375.319	77.14
375.53	130.39
375.74	36.18
375.951	46.42
376.161	83.28
376.372	114
376.582	-2.73
376.793	99.67
377.003	23.89
377.214	-23.21
377.424	83.28
377.635	109.91
377.845	5.46
378.055	122.2
378.266	-33.45
378.476	-23.21
378.686	-0.68
378.897	107.86
379.107	189.78
379.317	25.94
379.528	7.51
379.738	103.76
379.948	-47.79
380.158	103.76
380.369	58.71
380.579	27.99
380.789	83.28
380.999	25.94
381.21	93.52
381.42	126.29
381.63	-12.97
381.84	136.53
382.05	40.28
382.261	152.91
382.471	66.9
382.681	13.65
382.891	114
383.101	73.04
383.311	-19.11
383.521	-84.65
383.731	42.32
383.941	138.58
384.151	38.23
384.361	30.04
384.571	136.53
384.781	15.7
384.991	267.6
385.201	163.15
385.411	9.56
385.621	103.76
385.831	27.99
386.041	-43.69
386.251	11.61
386.461	138.58
386.671	48.47
386.881	-12.97
387.091	-10.92
387.301	73.04
387.511	124.24
387.72	146.77
387.93	128.34
388.14	-53.93
388.35	7.51
388.56	50.52
388.769	157.01
388.979	19.8
389.189	27.99
389.399	58.71
389.609	118.1
389.818	50.52
390.028	-19.11
390.238	99.67
390.447	5.46
390.657	138.58
390.867	30.04
391.076	-68.27
391.286	93.52
391.496	23.89
391.705	25.94
391.915	124.24
392.125	89.43
392.334	-15.02
392.544	120.15
392.753	17.75
392.963	-27.31
393.172	38.23
393.382	-37.55
393.591	77.14
393.801	54.61
394.01	136.53
394.22	42.32
394.429	11.61
394.639	87.38
394.848	50.52
395.058	19.8
395.267	1.37
395.477	50.52
395.686	75.09
395.895	107.86
396.105	222.55
396.314	85.33
396.524	66.9
396.733	25.94
396.942	138.58
397.152	111.96
397.361	42.32
397.57	95.57
397.78	15.7
397.989	144.72
398.198	253.27
398.407	46.42
398.617	48.47
398.826	73.04
399.035	-10.92
399.244	126.29
399.453	46.42
399.663	54.61
399.872	40.28
400.081	19.8
400.29	79.19
400.499	17.75
400.708	71
400.917	25.94
401.127	58.71
401.336	-70.31
401.545	208.21
401.754	136.53
401.963	11.61
402.172	13.65
402.381	-55.98
402.59	46.42
402.799	25.94
403.008	157.01
403.217	34.13
403.426	101.72
403.635	-53.93
403.844	-43.69
404.053	-10.92
404.262	71
404.471	120.15
404.68	81.24
404.888	27.99
405.097	79.19
405.306	75.09
405.515	66.9
405.724	40.28
405.933	58.71
406.142	64.85
406.35	111.96
406.559	38.23
406.768	64.85
406.977	177.49
407.185	13.65
407.394	46.42
407.603	-0.68
407.812	97.62
408.02	175.44
408.229	64.85
408.438	5.46
408.646	-43.69
408.855	-29.35
409.064	99.67
409.272	27.99
409.481	58.71
409.69	1.37
409.898	1.37
410.107	23.89
410.315	136.53
410.524	7.51
410.733	193.87
410.941	-29.35
411.15	99.67
411.358	-39.59
411.567	116.05
411.775	52.56
411.984	32.08
412.192	179.54
412.401	-17.07
412.609	169.3
412.818	97.62
413.026	89.43
413.234	105.81
413.443	-21.16
413.651	9.56
413.86	19.8
414.068	103.76
414.276	165.2
414.485	44.37
414.693	179.54
414.901	157.01
415.11	62.8
415.318	68.95
415.526	77.14
415.734	140.63
415.943	66.9
416.151	173.39
416.359	56.66
416.567	54.61
416.776	116.05
416.984	89.43
417.192	87.38
417.4	46.42
417.608	25.94
417.817	-10.92
418.025	208.21
418.233	195.92
418.441	5.46
418.649	-82.6
418.857	38.23
419.065	167.25
419.273	9.56
419.481	95.57
419.689	81.24
419.897	85.33
420.105	19.8
420.313	85.33
420.521	136.53
420.729	48.47
420.937	9.56
421.145	19.8
421.353	126.29
421.561	177.49
421.769	75.09
421.977	62.8
422.185	75.09
422.393	68.95
422.601	165.2
422.809	73.04
423.017	40.28
423.224	-2.73
423.432	148.82
423.64	85.33
423.848	126.29
424.056	62.8
424.263	27.99
424.471	52.56
424.679	214.35
424.887	38.23
425.094	148.82
425.302	62.8
425.51	60.76
425.718	75.09
425.925	107.86
426.133	52.56
426.341	220.5
426.548	118.1
426.756	34.13
426.964	111.96
427.171	9.56
427.379	107.86
427.586	17.75
427.794	93.52
428.001	175.44
428.209	81.24
428.417	103.76
428.624	66.9
428.832	138.58
429.039	93.52
429.247	32.08
429.454	21.85
429.662	212.31
429.869	124.24
430.076	144.72
430.284	81.24
430.491	193.87
430.699	109.91
430.906	271.7
431.114	81.24
431.321	202.07
431.528	204.11
431.736	152.91
431.943	208.21
432.15	132.44
432.358	245.07
432.565	243.03
432.772	95.57
432.979	236.88
433.187	122.2
433.394	187.73
433.601	167.25
433.808	288.08
434.016	183.63
434.223	265.55
434.43	193.87
434.637	273.75
434.844	193.87
435.052	296.27
435.259	314.7
435.466	202.07
435.673	288.08
435.88	208.21
436.087	335.18
436.294	318.8
436.501	279.89
436.708	245.07
436.915	234.83
437.122	402.77
437.329	114
437.537	279.89
437.743	296.27
437.95	406.86
438.157	312.66
438.364	363.86
438.571	367.95
438.778	396.62
438.985	429.39
439.192	427.34
439.399	394.58
439.606	456.01
439.813	482.64
440.02	595.28
440.227	587.08
440.433	492.88
440.64	480.59
440.847	468.3
441.054	525.65
441.261	677.2
441.467	552.27
441.674	523.6
441.881	705.87
442.088	605.52
442.294	701.77
442.501	689.48
442.708	775.5
442.914	693.58
443.121	857.42
443.328	744.78
443.534	910.66
443.741	847.18
443.948	789.83
444.154	861.51
444.361	1092.93
444.568	968.01
444.774	951.62
444.981	877.9
445.187	1185.09
445.394	1080.64
445.6	1074.5
445.807	1342.78
446.013	1363.26
446.22	1164.61
446.426	1377.6
446.633	1482.05
446.839	1649.98
447.046	1332.55
447.252	1668.41
447.459	1494.33
447.665	1512.77
447.871	1742.14
448.078	1850.68
448.284	1799.48
448.491	1901.88
448.697	2073.91
448.903	1955.13
449.11	2039.09
449.316	2129.2
449.522	2323.76
449.728	2372.91
449.935	2391.34
450.141	2483.5
450.347	2612.53
450.553	2596.14
450.76	2516.27
450.966	2825.51
451.172	3007.78
451.378	3009.83
451.584	3196.2
451.791	3425.57
451.997	3421.47
452.203	3468.58
452.409	3634.46
452.615	3833.11
452.821	3765.53
453.027	3673.37
453.233	4187.41
453.44	4103.45
453.646	4193.56
453.852	4406.55
454.058	4658.45
454.264	4859.15
454.47	5192.97
454.676	5135.62
454.882	5772.54
455.088	5338.37
455.294	5797.12
455.5	6053.11
455.705	6440.18
455.911	6315.25
456.117	6522.1
456.323	6806.77
456.529	6919.4
456.735	7365.86
456.941	7767.26
457.147	7881.95
457.352	8105.18
457.558	8385.75
457.764	8948.94
457.97	9077.96
458.176	9487.56
458.381	10114.23
458.587	10077.37
458.793	10613.94
458.999	10929.33
459.204	12086.43
459.41	12285.08
459.616	12164.25
459.821	12971.15
460.027	13671.56
460.233	14128.25
460.438	14281.85
460.644	15156.33
460.85	15080.56
461.055	15752.29
461.261	16428.12
461.466	16063.58
461.672	16497.75
461.878	18558.01
462.083	18275.39
462.289	18766.9
462.494	19094.58
462.7	19622.95
462.905	19848.23
463.111	21683.21
463.316	22612.99
463.522	22893.56
463.727	23655.4
463.932	24597.47
464.138	25359.31
464.343	26332.1
464.549	26629.06
464.754	28543.91
464.959	29481.88
465.165	29483.92
465.37	29141.91
465.575	29399.96
465.781	31314.81
465.986	32138.09
466.191	31873.9
466.397	32119.66
466.602	31329.14
466.807	33147.74
467.012	33704.79
467.218	34306.89
467.423	34511.69
467.628	35365.69
467.833	36985.63
468.038	36444.97
468.244	36008.75
468.449	37321.5
468.654	36981.54
468.859	36971.3
469.064	36725.54
469.269	35918.64
469.474	36231.98
469.679	37088.03
469.885	36186.93
470.09	36999.97
470.295	37258.01
470.5	36014.9
470.705	36170.54
470.91	35150.65
471.115	34999.1
471.32	35244.86
471.525	35199.8
471.73	33915.73
471.935	34141
472.139	32641.89
472.344	33028.96
472.549	32666.47
472.754	31804.27
472.959	31052.67
473.164	30391.17
473.369	29918.09
473.574	30606.21
473.778	29658
473.983	29350.81
474.188	28736.41
474.393	27417.52
474.598	27415.47
474.802	26645.44
475.007	26786.75
475.212	26162.12
475.417	25060.31
475.621	24925.14
475.826	24437.73
476.031	23866.35
476.235	23655.4
476.44	23585.77
476.645	22899.7
476.849	22944.76
477.054	22416.38
477.259	21828.62
477.463	21853.19
477.668	21439.5
477.872	20974.61
478.077	20847.64
478.282	20091.94
478.486	20169.76
478.691	19944.49
478.895	19719.21
479.1	19407.92
479.304	19516.46
479.509	18594.87
479.713	18990.13
479.918	18515
480.122	17859.65
480.326	18254.91
480.531	18285.63
480.735	18011.2
480.94	17525.83
481.144	17943.62
481.348	17364.04
481.553	17339.47
481.757	16809.04
481.961	17058.9
482.166	17200.21
482.37	17058.9
482.574	16542.81
482.778	16235.61
482.983	16807
483.187	16444.51
483.391	16622.68
483.595	16172.13
483.8	15627.37
484.004	15924.32
484.208	15795.3
484.412	15623.27
484.616	15410.28
484.821	15320.17
485.025	14707.83
485.229	15064.18
485.433	14744.69
485.637	14754.93
485.841	14120.06
486.045	14001.28
486.249	14298.24
486.453	13628.55
486.657	13472.9
486.861	13505.67
487.065	12864.66
487.269	12946.58
487.473	12393.62
487.677	12690.58
487.881	12784.79
488.085	12061.85
488.289	11840.67
488.493	11693.22
488.697	11685.03
488.901	11156.65
489.105	11044.01
489.309	11064.49
489.512	10749.11
489.716	10564.79
489.92	10380.47
490.124	10261.69
490.328	10282.17
490.531	9901.25
490.735	9723.07
490.939	9503.94
491.143	9338.05
491.346	9145.55
491.55	9166.03
491.754	8729.81
491.958	8781.01
492.161	8623.31
492.365	8539.35
492.569	8348.89
492.772	8096.99
492.976	8219.86
493.18	8008.92
493.383	8021.21
493.587	7847.13
493.79	7927
493.994	7636.19
494.197	7711.97
494.401	7591.14
494.605	7384.29
494.808	7472.36
495.012	7365.86
495.215	7453.92
495.419	7294.18
495.622	7066.86
495.825	7021.8
496.029	7064.81
496.232	7169.26
496.436	6874.35
496.639	7050.47
496.843	6976.75
497.046	6980.84
497.249	7089.39
497.453	7042.28
497.656	6956.27
497.859	6892.78
498.063	7034.09
498.266	7228.65
498.469	6894.83
498.673	6900.97
498.876	7089.39
499.079	7134.44
499.282	7011.56
499.485	7388.39
499.689	7191.78
499.892	7460.07
500.095	7154.92
500.298	7429.35
500.501	7382.24
500.705	7498.98
500.908	7617.76
501.111	7419.11
501.314	7505.12
501.517	7916.76
501.72	7746.78
501.923	7849.18
502.126	7898.33
502.329	8197.34
502.532	8041.69
502.735	7963.87
502.938	8379.61
503.141	8377.56
503.344	8350.93
503.547	8584.4
503.75	8563.92
503.953	8719.57
504.156	8983.76
504.359	9073.87
504.562	8946.89
504.765	9293
504.968	9413.83
505.17	9452.74
505.373	9518.28
505.576	9966.78
505.779	9942.21
505.982	10034.36
506.185	10337.46
506.387	10630.32
506.59	10693.81
506.793	10810.54
506.996	11015.34
507.198	11351.21
507.401	11551.91
507.604	11762.85
507.807	11992.22
508.009	12197.02
508.212	12231.83
508.415	12526.74
508.617	12962.96
508.82	13386.89
509.022	13202.57
509.225	13716.61
509.428	14144.64
509.63	14371.96
509.833	14414.97
510.035	14924.91
510.238	15115.37
510.44	15354.99
510.643	15828.07
510.845	16274.52
511.048	16086.11
511.25	16753.75
511.453	17310.8
511.655	17921.09
511.858	18031.68
512.06	18205.76
512.262	18680.89
512.465	19127.35
512.667	19610.67
512.87	19924.01
513.072	20261.92
513.274	21036.05
513.477	21445.65
513.679	21832.71
513.881	22436.86
514.084	22897.66
514.286	23194.61
514.488	23663.6
514.69	24605.66
514.893	25011.16
515.095	25373.65
515.297	25990.09
515.499	26393.54
515.701	27048.89
515.904	27900.84
516.106	27872.17
516.308	28674.98
516.51	29502.36
516.712	29868.94
516.914	30485.38
517.116	31058.81
517.318	31226.74
517.52	32234.35
517.722	32793.44
517.925	33391.45
518.127	34554.69
518.329	34476.87
518.531	35064.64
518.733	36162.35
518.935	36373.29
519.136	36703.01
519.338	37645.08
519.54	38030.1
519.742	38406.92
519.944	39041.79
520.146	39990
520.348	40336.11
520.55	40819.43
520.752	41054.95
520.954	41939.67
521.155	42347.22
521.357	42713.8
521.559	43399.87
521.761	43928.25
521.963	43981.49
522.164	44538.54
522.366	44636.84
522.568	45353.63
522.77	45537.95
522.971	46258.84
523.173	45939.35
523.375	46465.68
523.576	46504.59
523.778	47035.02
523.98	47626.88
524.181	47186.57
524.383	47604.35
524.584	47946.36
524.786	47710.85
524.988	47975.03
525.189	48179.83
525.391	48198.26
525.592	48687.73
525.794	48265.84
525.995	48237.17
526.197	48245.37
526.398	48222.84
526.6	48618.1
526.801	48208.5
527.003	47991.42
527.204	47819.39
527.406	47794.81
527.607	47313.54
527.808	47753.85
528.01	46637.71
528.211	46977.67
528.412	47252.1
528.614	46357.14
528.815	46303.89
529.016	46353.04
529.218	45396.64
529.419	44923.56
529.62	44479.15
529.822	44157.62
530.023	43297.47
530.224	43764.41
530.425	43156.16
530.626	42308.3
530.828	41822.94
531.029	42224.34
531.23	41298.66
531.431	41149.15
531.632	40450.8
531.833	40028.91
532.035	39727.86
532.236	39287.55
532.437	38476.55
532.638	38126.35
532.839	37579.54
533.04	37348.12
533.241	36225.84
533.442	36750.12
533.643	35904.31
533.844	35248.96
534.045	34882.37
534.246	34388.81
534.447	34405.19
534.648	33459.03
534.849	33096.54
535.05	32490.34
535.251	32215.91
535.451	31523.7
535.652	31357.81
535.853	30620.55
536.054	30788.48
536.255	30163.85
536.456	29328.28
536.657	29510.55
536.857	28763.04
537.058	28543.91
537.259	28296.1
537.46	27954.09
537.66	27433.91
537.861	27067.32
538.062	26586.05
538.263	26315.72
538.463	25846.73
538.664	25545.68
538.865	25570.26
539.065	25084.89
539.266	24634.33
539.466	24687.58
539.667	24208.36
539.868	24224.74
540.068	23905.26
540.269	23354.35
540.469	23301.11
540.67	23100.4
540.87	22750.2
541.071	22197.25
541.271	21847.05
541.472	21912.58
541.672	21603.34
541.873	21195.79
542.073	20620.31
542.274	20933.65
542.474	20702.23
542.675	20474.91
542.875	20306.98
543.075	19971.11
543.276	19678.25
543.476	19592.23
543.676	18930.74
543.877	18873.4
544.077	19057.71
544.277	18756.66
544.478	18359.36
544.678	18318.4
544.878	18086.98
545.078	17781.83
545.279	17368.14
545.479	17345.61
545.679	17269.84
545.879	17038.42
546.079	16843.86
546.28	16352.35
546.48	16059.49
546.68	16335.96
546.88	16008.29
547.08	15965.28
547.28	15815.78
547.48	15420.52
547.68	15350.89
547.88	15137.9
548.081	14957.68
548.281	14630.01
548.481	14318.71
548.681	14367.87
548.881	14269.56
549.081	13982.85
549.28	13825.15
549.48	13870.21
549.68	13489.29
549.88	13249.68
550.08	12944.53
550.28	12989.58
550.48	12870.8
550.68	12725.4
550.88	12336.28
551.08	12332.19
551.279	12387.48
551.479	11781.28
551.679	11627.68
551.879	11644.07
552.079	11461.8
552.278	11226.28
552.478	11248.81
552.678	11064.49
552.878	10953.9
553.077	10501.3
553.277	10190.01
553.477	10245.31
553.676	10204.35
553.876	10081.47
554.076	9766.08
554.275	9858.24
554.475	9338.05
554.674	9313.48
554.874	9360.58
555.074	9006.28
555.273	9049.29
555.473	8830.16
555.672	8670.42
555.872	8697.04
556.071	8391.89
556.271	8367.32
556.47	8109.27
556.67	8031.45
556.869	7910.62
557.068	7716.06
557.268	7617.76
557.467	7417.06
557.667	7394.53
557.866	7163.11
558.065	7073
558.265	7109.86
558.464	6882.54
558.663	6819.05
558.863	6518
559.062	6565.11
559.261	6237.43
559.461	6464.75
559.66	6202.61
559.859	5960.95
560.058	6018.3
560.258	5844.22
560.457	5762.3
560.656	5778.69
560.855	5606.66
561.054	5620.99
561.253	5580.03
561.453	5479.68
561.652	5512.45
561.851	5328.13
562.05	5215.49
562.249	5039.37
562.448	5080.33
562.647	4916.49
562.846	4826.38
563.045	4805.9
563.244	4752.65
563.443	4775.18
563.642	4597.01
563.841	4531.47
564.04	4496.66
564.239	4412.69
564.438	4279.57
564.637	4230.42
564.836	4121.88
565.035	4089.11
565.234	3970.33
565.432	4054.3
565.631	3923.23
565.83	3970.33
566.029	3763.48
566.228	3765.53
566.427	3939.61
566.625	3704.09
566.824	3638.56
567.023	3538.21
567.222	3419.43
567.42	3417.38
567.619	3444
567.818	3425.57
568.016	3421.47
568.215	3210.53
568.414	3271.97
568.612	3247.4
568.811	3196.2
569.01	3208.48
569.208	3099.94
569.407	3077.41
569.605	2946.34
569.804	3003.69
570.002	3028.26
570.201	2774.31
570.4	2870.57
570.598	2770.22
570.797	2729.26
570.995	2503.98
571.193	2657.58
571.392	2688.3
571.59	2454.83
571.789	2616.62
571.987	2587.95
572.186	2647.34
572.384	2440.5
572.582	2319.67
572.781	2458.93
572.979	2383.15
573.177	2260.27
573.376	2176.31
573.574	2278.71
573.772	2112.82
573.971	2088.25
574.169	1955.13
574.367	2166.07
574.565	1979.7
574.763	1893.69
574.962	2030.9
575.16	1852.73
575.358	1846.59
575.556	1932.6
575.754	1860.92
575.952	1828.15
576.151	1846.59
576.349	1801.53
576.547	1609.02
576.745	1707.32
576.943	1742.14
577.141	1666.36
577.339	1568.06
577.537	1625.4
577.735	1606.97
577.933	1539.39
578.131	1547.58
578.329	1572.16
578.527	1441.09
578.725	1461.57
578.923	1365.31
579.121	1504.57
579.319	1291.59
579.516	1379.65
579.714	1551.68
579.912	1353.02
580.11	1207.62
580.308	1289.54
580.506	1221.95
580.704	1140.04
580.901	1224
581.099	1316.16
581.297	1193.28
581.495	1256.77
581.692	1131.84
581.89	1353.02
582.088	1125.7
582.285	1107.27
582.483	1129.8
582.681	1023.3
582.878	1039.69
583.076	1135.94
583.274	963.91
583.471	1201.47
583.669	1013.06
583.866	918.86
584.064	970.05
584.262	810.31
584.459	869.7
584.657	974.15
584.854	1086.79
585.052	959.81
585.249	972.1
585.447	935.24
585.644	884.04
585.841	1008.97
586.039	918.86
586.236	1008.97
586.434	802.12
586.631	695.63
586.828	906.57
587.026	795.98
587.223	675.15
587.42	755.02
587.618	814.41
587.815	910.66
588.012	775.5
588.21	703.82
588.407	843.08
588.604	750.92
588.801	736.59
588.999	746.83
589.196	832.84
589.393	550.22
589.59	716.11
589.787	697.67
589.984	697.67
590.182	705.87
590.379	632.14
590.576	720.2
590.773	632.14
590.97	619.85
591.167	640.33
591.364	712.01
591.561	552.27
591.758	732.49
591.955	687.43
592.152	613.71
592.349	619.85
592.546	593.23
592.743	601.42
592.94	595.28
593.137	640.33
593.334	646.48
593.531	685.39
593.727	748.87
593.924	687.43
594.121	671.05
594.318	654.67
594.515	781.64
594.712	777.55
594.908	716.11
595.105	615.76
595.302	699.72
595.499	636.24
595.696	777.55
595.892	681.29
596.089	836.94
596.286	681.29
596.482	849.22
596.679	820.55
596.876	705.87
597.072	951.62
597.269	824.65
597.466	812.36
597.662	779.59
597.859	886.09
598.055	855.37
598.252	1060.17
598.448	984.39
598.645	1086.79
598.841	1195.33
599.038	1189.19
599.234	1314.11
599.431	1189.19
599.627	1221.95
599.824	1287.49
600.02	1344.83
600.217	1402.18
600.413	1398.08
600.609	1508.67
600.806	1744.19
601.002	1604.92
601.198	1568.06
601.395	1680.7
601.591	1748.28
601.787	1865.02
601.984	1973.56
602.18	2065.72
602.376	2106.68
602.572	2192.69
602.769	2282.8
602.965	2204.98
603.161	2383.15
603.357	2403.63
603.553	2487.6
603.75	2569.52
603.946	2581.81
604.142	2776.36
604.338	2989.35
604.534	3028.26
604.73	3083.56
604.926	3085.61
605.122	3218.72
605.318	3249.44
605.514	3575.07
605.71	3482.91
605.906	3759.39
606.102	3773.72
606.298	3867.93
606.494	4101.4
606.69	4168.98
606.886	4414.74
607.082	4226.32
607.278	4312.34
607.474	4562.19
607.67	4742.41
607.866	4828.43
608.062	5037.32
608.257	5147.91
608.453	5053.7
608.649	5328.13
608.845	5528.83
609.041	5436.67
609.236	5889.28
609.432	6022.39
609.628	6262.01
609.824	6339.83
610.019	6333.68
610.215	6460.66
610.411	7156.97
610.606	6882.54
610.802	7208.17
610.998	7419.11
611.193	7601.38
611.389	7648.48
611.584	8015.07
611.78	8031.45
611.976	8080.6
612.171	8914.13
612.367	8768.72
612.562	9112.78
612.758	9153.74
612.953	9241.8
613.149	9643.2
613.344	9985.21
613.539	10138.81
613.735	10478.77
613.93	10904.75
614.126	11142.32
614.321	11371.69
614.517	11560.1
614.712	11715.75
614.907	12049.57
615.103	12659.86
615.298	12655.76
615.493	13194.38
615.688	13464.71
615.884	14077.05
616.079	14163.07
616.274	14541.94
616.47	14679.16
616.665	15293.55
616.86	15484.01
617.055	15938.66
617.25	16495.71
617.445	17050.71
617.641	17081.42
617.836	17605.7
618.031	17853.51
618.226	18736.18
618.421	18869.3
618.616	19219.5
618.811	19555.37
619.006	20157.47
619.201	20440.09
619.396	20892.69
619.591	21036.05
619.786	22293.51
619.981	22187.01
620.176	22897.66
620.371	23190.52
620.566	24103.91
620.761	24284.13
620.956	24781.79
621.151	25234.39
621.346	25691.09
621.541	25797.58
621.735	26842.04
621.93	26903.48
622.125	27505.59
622.32	27747.25
622.515	28707.74
622.709	28787.61
622.904	29723.54
623.099	30194.57
623.294	30382.98
623.488	30860.16
623.683	31548.28
623.878	31603.57
624.072	32580.45
624.267	33127.26
624.462	33751.89
624.656	33669.97
624.851	34767.68
625.046	34933.57
625.24	35554.1
625.435	35533.62
625.629	36256.56
625.824	36483.88
626.018	37243.68
626.213	36811.56
626.407	37872.4
626.602	37839.64
626.796	38615.82
626.991	39052.03
627.185	39336.7
627.38	39523.07
627.574	39559.93
627.768	40143.6
627.963	40162.03
628.157	40035.06
628.352	40458.99
628.546	39650.04
628.74	40680.17
628.935	39680.76
629.129	39869.17
629.323	39539.45
629.517	39418.62
629.712	39074.56
629.906	38746.89
630.1	38517.51
630.294	38238.99
630.489	37128.99
630.683	37243.68
630.877	36518.7
631.071	35945.26
631.265	35509.05
631.459	34321.23
631.653	33807.19
631.848	33041.25
632.042	31890.29
632.236	31525.75
632.43	30378.89
632.624	29752.21
632.818	28849.05
633.012	27683.76
633.206	26850.24
633.4	26094.54
633.594	24919
633.788	24476.64
633.982	23442.42
634.176	22615.04
634.369	21818.38
634.563	20933.65
634.757	20007.97
634.951	19227.7
635.145	18783.29
635.339	17996.87
635.533	17005.65
635.726	16372.83
635.92	15369.32
636.114	14937.2
636.308	14607.48
636.501	14263.42
636.695	13403.27
636.889	12627.09
637.083	12289.18
637.276	11752.61
637.47	11166.89
637.664	10863.79
637.857	10396.85
638.051	10095.8
638.244	9342.15
638.438	9135.31
638.632	8854.73
638.825	8324.31
639.019	8244.44
639.212	7754.98
639.406	7548.13
639.599	7281.89
639.793	6921.45
639.986	6642.93
640.18	6452.47
640.373	6216.95
640.567	5743.87
640.76	5745.92
640.954	5670.14
641.147	5381.38
641.34	5014.79
641.534	4771.08
641.727	4644.11
641.92	4359.44
642.114	4408.59
642.307	4177.17
642.5	4130.07
642.694	3820.83
642.887	3538.21
643.08	3708.19
643.273	3380.51
643.467	3243.3
643.66	3304.74
643.853	2970.92
644.046	2948.39
644.239	2872.62
644.432	2696.49
644.626	2454.83
644.819	2628.91
645.012	2501.94
645.205	2434.35
645.398	2327.86
645.591	2104.63
645.784	2082.1
645.977	1877.3
646.17	1930.55
646.363	1920.31
646.556	1738.04
646.749	1729.85
646.942	1723.71
647.135	1572.16
647.328	1465.66
647.521	1492.29
647.714	1312.07
647.907	1295.68
648.099	1240.39
648.292	1369.41
648.485	1224
648.678	1316.16
648.871	1017.16
649.064	1017.16
649.256	945.48
649.449	945.48
649.642	822.6
649.835	955.72
650.027	877.9
650.22	988.49
650.413	836.94
650.605	830.79
650.798	752.97
650.991	714.06
651.183	744.78
651.376	734.54
651.568	771.4
651.761	626
651.954	636.24
652.146	691.53
652.339	689.48
652.531	636.24
652.724	636.24
652.916	523.6
653.109	417.1
653.301	603.47
653.494	574.8
653.686	542.03
653.879	574.8
654.071	496.97
654.263	435.53
654.456	363.86
654.648	558.41
654.84	490.83
655.033	425.29
655.225	521.55
655.417	308.56
655.61	460.11
655.802	425.29
655.994	486.73
656.186	314.7
656.379	400.72
656.571	361.81
656.763	292.18
656.955	347.47
657.148	269.65
657.34	302.42
657.532	306.51
657.724	249.17
657.916	283.99
658.108	312.66
658.3	263.51
658.492	300.37
658.684	171.35
658.876	304.46
659.068	214.35
659.26	134.48
659.452	232.79
659.644	234.83
659.836	451.92
660.028	263.51
660.22	191.83
660.412	142.68
660.604	175.44
660.796	204.11
660.988	288.08
661.18	206.16
661.372	255.31
661.563	130.39
661.755	236.88
661.947	3.41
662.139	52.56
662.331	152.91
662.522	161.11
662.714	202.07
662.906	138.58
663.097	150.87
663.289	101.72
663.481	91.48
663.673	181.59
663.864	177.49
664.056	197.97
664.247	124.24
664.439	267.6
664.631	154.96
664.822	171.35
665.014	177.49
665.205	138.58
665.397	140.63
665.588	220.5
665.78	214.35
665.971	161.11
666.163	79.19
666.354	220.5
666.546	44.37
666.737	181.59
666.929	68.95
667.12	138.58
667.311	136.53
667.503	197.97
667.694	157.01
667.885	185.68
668.077	220.5
668.268	50.52
668.459	132.44
668.651	173.39
668.842	177.49
669.033	11.61
669.224	66.9
669.416	294.22
669.607	154.96
669.798	93.52
669.989	150.87
670.18	118.1
670.371	142.68
670.563	48.47
670.754	216.4
670.945	251.22
671.136	189.78
671.327	71
671.518	232.79
671.709	243.03
671.9	169.3
672.091	212.31
672.282	144.72
672.473	152.91
672.664	5.46
672.855	122.2
673.046	136.53
673.237	216.4
673.428	101.72
673.619	265.55
673.809	173.39
674	189.78
674.191	154.96
674.382	109.91
674.573	183.63
674.764	97.62
674.954	238.93
675.145	144.72
675.336	68.95
675.527	138.58
675.717	105.81
675.908	130.39
676.099	66.9
676.289	163.15
676.48	-0.68
676.671	181.59
676.861	99.67
677.052	144.72
677.243	91.48
677.433	111.96
677.624	105.81
677.814	177.49
678.005	75.09
678.195	269.65
678.386	165.2
678.576	177.49
678.767	85.33
678.957	138.58
679.148	138.58
679.338	265.55
679.529	189.78
679.719	103.76
679.909	269.65
680.1	179.54
680.29	148.82
680.481	136.53
680.671	259.41
680.861	208.21
681.052	183.63
681.242	79.19
681.432	169.3
681.622	150.87
681.813	120.15
682.003	165.2
682.193	185.68
682.383	157.01
682.573	124.24
682.764	111.96
682.954	271.7
683.144	337.23
683.334	114
683.524	222.55
683.714	212.31
683.904	200.02
684.094	165.2
684.284	134.48
684.474	232.79
684.664	224.59
684.854	189.78
685.044	204.11
685.234	181.59
685.424	216.4
685.614	136.53
685.804	374.1
685.994	265.55
686.184	150.87
686.374	269.65
686.564	148.82
686.753	167.25
686.943	122.2
687.133	183.63
687.323	193.87
687.513	298.32
687.702	175.44
687.892	224.59
688.082	222.55
688.272	216.4
688.461	214.35
688.651	322.9
688.841	255.31
689.03	171.35
689.22	249.17
689.41	234.83
689.599	159.06
689.789	171.35
689.979	320.85
690.168	200.02
690.358	308.56
690.547	165.2
690.737	214.35
690.926	224.59
691.116	138.58
691.305	298.32
691.495	230.74
691.684	173.39
691.874	187.73
692.063	146.77
692.252	189.78
692.442	257.36
692.631	189.78
692.82	212.31
693.01	210.26
693.199	251.22
693.388	195.92
693.578	226.64
693.767	234.83
693.956	212.31
694.146	251.22
694.335	216.4
694.524	136.53
694.713	243.03
694.902	195.92
695.092	161.11
695.281	283.99
695.47	183.63
695.659	148.82
695.848	163.15
696.037	171.35
696.226	240.98
696.415	107.86
696.604	290.13
696.793	234.83
696.982	157.01
697.171	218.45
697.36	107.86
697.549	222.55
697.738	89.43
697.927	138.58
698.116	93.52
698.305	159.06
698.494	171.35
698.683	177.49
698.872	353.62
699.061	165.2
699.25	206.16
699.438	179.54
699.627	97.62
699.816	279.89
700.005	124.24
700.193	114
700.382	212.31
700.571	212.31
700.76	157.01
700.948	193.87
701.137	273.75
701.326	265.55
701.514	103.76
701.703	228.69
701.892	185.68
702.08	349.52
702.269	130.39
702.457	85.33
702.646	148.82
702.834	140.63
703.023	195.92
703.212	167.25
703.4	165.2
703.589	97.62
703.777	144.72
703.965	73.04
704.154	146.77
704.342	146.77
704.531	161.11
704.719	140.63
704.907	197.97
705.096	105.81
705.284	150.87
705.472	114
705.661	230.74
705.849	275.79
706.037	253.27
706.226	251.22
706.414	236.88
706.602	109.91
706.79	269.65
706.979	105.81
707.167	181.59
707.355	130.39
707.543	187.73
707.731	189.78
707.919	103.76
708.107	60.76
708.296	157.01
708.484	177.49
708.672	191.83
708.86	187.73
709.048	195.92
709.236	183.63
709.424	210.26
709.612	195.92
709.8	99.67
709.988	154.96
710.176	212.31
710.364	230.74
710.551	165.2
710.739	154.96
710.927	185.68
711.115	195.92
711.303	247.12
711.491	159.06
711.679	95.57
711.866	263.51
712.054	175.44
712.242	331.09
712.43	290.13
712.617	132.44
712.805	314.7
712.993	128.34
713.181	48.47
713.368	243.03
713.556	193.87
713.744	152.91
713.931	335.18
714.119	222.55
714.306	154.96
714.494	148.82
714.682	189.78
714.869	142.68
715.057	177.49
715.244	40.28
715.432	212.31
715.619	93.52
715.807	245.07
715.994	118.1
716.182	204.11
716.369	286.03
716.556	185.68
716.744	77.14
716.931	140.63
717.119	195.92
717.306	212.31
717.493	255.31
717.681	114
717.868	150.87
718.055	255.31
718.242	95.57
718.43	195.92
718.617	224.59
718.804	171.35
718.991	279.89
719.179	185.68
719.366	228.69
719.553	263.51
719.74	214.35
719.927	230.74
720.114	245.07
720.301	111.96
720.488	154.96
720.676	140.63
720.863	277.84
721.05	281.94
721.237	132.44
721.424	304.46
721.611	181.59
721.798	114
721.985	163.15
722.172	144.72
722.358	150.87
722.545	222.55
722.732	255.31
722.919	249.17
723.106	187.73
723.293	163.15
723.48	146.77
723.667	159.06
723.853	302.42
724.04	281.94
724.227	269.65
724.414	150.87
724.6	216.4
724.787	374.1
724.974	310.61
725.161	173.39
725.347	167.25
725.534	267.6
725.72	212.31
725.907	288.08
726.094	269.65
726.28	109.91
726.467	140.63
726.653	175.44
726.84	308.56
727.027	314.7
727.213	232.79
727.4	177.49
727.586	228.69
727.773	214.35
727.959	195.92
728.145	224.59
728.332	212.31
728.518	173.39
728.705	312.66
728.891	206.16
729.077	238.93
729.264	140.63
729.45	157.01
729.636	288.08
729.823	210.26
730.009	236.88
730.195	236.88
730.382	255.31
730.568	228.69
730.754	202.07
730.94	230.74
731.126	236.88
731.313	365.9
731.499	218.45
731.685	294.22
731.871	294.22
732.057	218.45
732.243	261.46
732.429	169.3
732.615	343.38
732.801	267.6
732.987	210.26
733.173	310.61
733.359	204.11
733.545	222.55
733.731	283.99
733.917	392.53
734.103	281.94
734.289	259.41
734.475	179.54
734.661	394.58
734.847	257.36
735.033	259.41
735.219	339.28
735.404	216.4
735.59	214.35
735.776	161.11
735.962	218.45
736.148	273.75
736.333	306.51
736.519	271.7
736.705	159.06
736.89	191.83
737.076	232.79
737.262	105.81
737.447	189.78
737.633	238.93
737.819	249.17
738.004	212.31
738.19	257.36
738.375	286.03
738.561	275.79
738.747	204.11
738.932	179.54
739.118	339.28
739.303	177.49
739.489	216.4
739.674	302.42
739.859	167.25
740.045	271.7
740.23	263.51
740.416	87.38
740.601	243.03
740.786	218.45
740.972	140.63
741.157	146.77
741.342	132.44
741.528	175.44
741.713	292.18
741.898	200.02
742.084	281.94
742.269	251.22
742.454	236.88
742.639	279.89
742.824	144.72
743.01	298.32
743.195	283.99
743.38	230.74
743.565	224.59
743.75	191.83
743.935	273.75
744.12	314.7
744.305	161.11
744.49	230.74
744.675	232.79
744.86	154.96
745.045	316.75
745.23	175.44
745.415	195.92
745.6	384.34
745.785	146.77
745.97	300.37
746.155	238.93
746.34	318.8
746.525	238.93
746.71	310.61
746.895	97.62
747.079	183.63
747.264	216.4
747.449	224.59
747.634	281.94
747.819	238.93
748.003	200.02
748.188	120.15
748.373	253.27
748.557	234.83
748.742	181.59
748.927	312.66
749.111	173.39
749.296	169.3
749.481	288.08
749.665	187.73
749.85	130.39
750.034	159.06
750.219	222.55
750.404	228.69
750.588	257.36
750.773	85.33
750.957	165.2
751.141	171.35
751.326	181.59
751.51	165.2
751.695	181.59
751.879	132.44
752.064	267.6
752.248	265.55
752.432	251.22
752.617	263.51
752.801	236.88
752.985	142.68
753.17	173.39
753.354	163.15
753.538	193.87
753.722	179.54
753.907	189.78
754.091	114
754.275	181.59
754.459	75.09
754.643	103.76
754.828	103.76
755.012	169.3
755.196	124.24
755.38	222.55
755.564	177.49
755.748	195.92
755.932	206.16
756.116	238.93
756.3	171.35
756.484	97.62
756.668	200.02
756.852	25.94
757.036	173.39
757.22	126.29
757.404	157.01
757.588	89.43
757.772	169.3
757.956	163.15
758.14	232.79
758.323	52.56
758.507	146.77
758.691	222.55
758.875	216.4
759.059	197.97
759.242	93.52
759.426	163.15
759.61	140.63
759.794	91.48
759.977	193.87
760.161	312.66
760.345	234.83
760.528	152.91
760.712	154.96
760.895	197.97
761.079	114
761.263	93.52
761.446	15.7
761.63	142.68
761.813	240.98
761.997	7.51
762.18	77.14
762.364	122.2
762.547	21.85
762.731	34.13
762.914	122.2
763.098	120.15
763.281	42.32
763.464	75.09
763.648	154.96
763.831	140.63
764.015	30.04
764.198	157.01
764.381	109.91
764.564	109.91
764.748	183.63
764.931	111.96
765.114	85.33
765.297	134.48
765.481	-29.35
765.664	114
765.847	75.09
766.03	210.26
766.213	5.46
766.397	79.19
766.58	-6.83
766.763	132.44
766.946	75.09
767.129	25.94
767.312	116.05
767.495	89.43
767.678	-0.68
767.861	148.82
768.044	56.66
768.227	103.76
768.41	25.94
768.593	99.67
768.776	148.82
768.959	64.85
769.142	183.63
769.324	68.95
769.507	60.76
769.69	21.85
769.873	97.62
770.056	261.46
770.239	54.61
770.421	154.96
770.604	68.95
770.787	56.66
770.97	101.72
771.152	-4.78
771.335	97.62
771.518	25.94
771.7	124.24
771.883	148.82
772.066	-2.73
772.248	9.56
772.431	116.05
772.613	118.1
772.796	46.42
772.978	85.33
773.161	226.64
773.343	-35.5
773.526	13.65
773.708	1.37
773.891	-43.69
774.073	-2.73
774.256	114
774.438	187.73
774.621	77.14
774.803	93.52
774.985	-60.07
775.168	157.01
775.35	17.75
775.532	19.8
775.715	-17.07
775.897	128.34
776.079	50.52
776.261	23.89
776.444	7.51
776.626	-33.45
776.808	83.28
776.99	-2.73
777.173	64.85
777.355	73.04
777.537	103.76
777.719	148.82
777.901	60.76
778.083	-27.31
778.265	-10.92
778.447	208.21
778.629	-8.87
778.811	48.47
778.993	87.38
779.175	169.3
779.357	111.96
779.539	-29.35
779.721	46.42
779.903	89.43
780.085	-12.97
780.267	95.57
780.449	60.76
780.631	56.66
780.812	54.61
780.994	9.56
781.176	42.32
781.358	-17.07
781.54	-8.87
781.721	81.24
781.903	114
782.085	52.56
782.267	85.33
782.448	-92.84
782.63	36.18
782.812	54.61
782.993	81.24
783.175	111.96
783.357	91.48
783.538	36.18
783.72	1.37
783.901	11.61
784.083	163.15
784.264	56.66
784.446	-58.03
784.627	-27.31
784.809	107.86
784.99	-74.41
785.172	138.58
785.353	34.13
785.535	27.99
785.716	-37.55
785.897	-70.31
786.079	-12.97
786.26	52.56
786.441	15.7
786.623	-29.35
786.804	-41.64
786.985	1.37
787.167	56.66
787.348	36.18
787.529	32.08
787.71	140.63
787.891	71
788.073	-39.59
788.254	-94.89
788.435	169.3
788.616	19.8
788.797	42.32
788.978	-17.07
789.159	-19.11
789.34	64.85
789.522	-21.16
789.703	-17.07
789.884	77.14
790.065	87.38
790.246	144.72
790.427	48.47
790.607	157.01
790.788	71
790.969	-47.79
791.15	44.37
791.331	40.28
791.512	-0.68
791.693	-74.41
791.874	-33.45
792.054	187.73
792.235	124.24
792.416	7.51
792.597	-6.83
792.778	64.85
792.958	95.57
793.139	-8.87
793.32	17.75
793.5	40.28
793.681	126.29
793.862	114
794.042	11.61
794.223	-47.79
794.404	19.8
794.584	-10.92
794.765	62.8
794.945	-8.87
795.126	99.67
795.306	103.76
795.487	-8.87
795.667	9.56
795.848	42.32
796.028	15.7
796.209	13.65
796.389	122.2
796.57	79.19
796.75	-31.4
796.93	23.89
797.111	-53.93
797.291	32.08
797.471	15.7
797.652	-15.02
797.832	-17.07
798.012	157.01
798.192	-90.79
798.373	-98.99
798.553	11.61
798.733	27.99
798.913	7.51
799.093	-2.73
799.274	34.13
799.454	138.58
799.634	60.76
799.814	126.29
799.994	85.33
800.174	97.62
800.354	77.14
800.534	-144.04
800.714	56.66
800.894	-8.87
801.074	-68.27
801.254	-74.41
801.434	68.95
801.614	-27.31
801.794	-70.31
801.974	1918.26
802.154	-82.6
802.334	15.7
802.514	-84.65
802.693	48.47
802.873	-10.92
803.053	103.76
803.233	68.95
803.413	-17.07
803.592	-31.4
803.772	17.75
803.952	-72.36
804.131	-53.93
804.311	101.72
804.491	111.96
804.67	9.56
804.85	1.37
805.03	116.05
805.209	118.1
805.389	-33.45
805.568	-94.89
805.748	9.56
805.928	3.41
806.107	48.47
806.287	77.14
806.466	9.56
806.646	-23.21
806.825	-101.03
807.004	-6.83
807.184	52.56
807.363	101.72
807.543	89.43
807.722	-35.5
807.901	52.56
808.081	32.08
808.26	-150.18
808.439	52.56
808.619	1.37
808.798	-53.93
808.977	64.85
809.156	17.75
809.336	89.43
809.515	-6.83
809.694	9.56
809.873	-17.07
810.052	99.67
810.231	109.91
810.411	25.94
810.59	142.68
810.769	17.75
810.948	11.61
811.127	-86.7
811.306	-66.22
811.485	-21.16
811.664	93.52
811.843	25.94
812.022	27.99
812.201	-29.35
812.38	34.13
812.559	-35.5
812.737	38.23
812.916	-131.75
813.095	-41.64
813.274	27.99
813.453	60.76
813.632	13.65
813.811	81.24
813.989	-8.87
814.168	13.65
814.347	-19.11
814.526	-51.88
814.704	87.38
814.883	140.63
815.062	-70.31
815.24	85.33
815.419	-80.55
815.598	36.18
815.776	-127.66
815.955	-17.07
816.133	23.89
816.312	34.13
816.49	-51.88
816.669	38.23
816.847	-74.41
817.026	71
817.204	-84.65
817.383	1.37
817.561	-74.41
817.74	-53.93
817.918	7.51
818.097	-109.22
818.275	3.41
818.453	56.66
818.632	38.23
818.81	-33.45
818.988	-43.69
819.167	79.19
819.345	68.95
819.523	-21.16
819.701	-10.92
819.879	-2.73
820.058	66.9
820.236	-29.35
820.414	13.65
820.592	11.61
820.77	13.65
820.948	-23.21
821.127	-96.94
821.305	23.89
821.483	-39.59
821.661	73.04
821.839	42.32
822.017	-27.31
822.195	-2.73
822.373	30.04
822.551	52.56
822.729	-12.97
822.907	-51.88
823.085	75.09
823.262	-51.88
823.44	-37.55
823.618	-10.92
823.796	-43.69
823.974	-70.31
824.152	-23.21
824.329	-15.02
824.507	19.8
824.685	58.71
824.863	56.66
825.04	-19.11
825.218	25.94
825.396	19.8
825.574	30.04
825.751	-41.64
825.929	71
826.107	-66.22
826.284	-27.31
826.462	-80.55
826.639	-135.85
826.817	-119.46
826.994	87.38
827.172	-45.74
827.349	52.56
827.527	-0.68
827.704	-15.02
827.882	42.32
828.059	48.47
828.237	-49.83
828.414	71
828.591	-107.18
828.769	32.08
828.946	-21.16
829.124	13.65
829.301	30.04
829.478	-2.73
829.655	-12.97
829.833	9.56
830.01	-113.32
830.187	-0.68
830.364	42.32
830.542	27.99
830.719	126.29
830.896	-53.93
831.073	83.28
831.25	52.56
831.427	144.72
831.604	32.08
831.782	-47.79
831.959	7.51
832.136	7.51
832.313	60.76
832.49	-35.5
832.667	-41.64
832.844	-43.69
833.021	42.32
833.198	11.61
833.374	15.7
833.551	54.61
833.728	1.37
833.905	116.05
834.082	-96.94
834.259	19.8
834.436	128.34
834.612	-92.84
834.789	-27.31
834.966	75.09
835.143	-31.4
835.319	-139.94
835.496	95.57
835.673	38.23
835.85	52.56
836.026	9.56
836.203	-0.68
836.38	-66.22
836.556	30.04
836.733	9.56
836.909	66.9
837.086	13.65
837.262	-133.8
837.439	-2.73
837.616	-78.51
837.792	-31.4
837.968	5.46
838.145	-92.84
838.321	-33.45
838.498	54.61
838.674	42.32
838.851	87.38
839.027	-12.97
839.203	-39.59
839.38	-8.87
839.556	17.75
839.732	73.04
839.909	-25.26
840.085	48.47
840.261	32.08
840.437	25.94
840.614	-45.74
840.79	44.37
840.966	17.75
841.142	68.95
841.318	-88.75
841.494	-17.07
841.671	99.67
841.847	-27.31
842.023	-39.59
842.199	3.41
842.375	60.76
842.551	-123.56
842.727	-92.84
842.903	128.34
843.079	-111.27
843.255	105.81
843.431	3.41
843.607	38.23
843.783	-109.22
843.959	42.32
844.134	-23.21
844.31	60.76
844.486	-41.64
844.662	-66.22
844.838	-15.02
845.013	62.8
845.189	68.95
845.365	60.76
845.541	-25.26
845.716	-76.46
845.892	111.96
846.068	-82.6
846.244	-82.6
846.419	-0.68
846.595	-29.35
846.77	-96.94
846.946	71
847.122	-37.55
847.297	-96.94
847.473	109.91
847.648	-60.07
847.824	19.8
847.999	-131.75
848.175	-8.87
848.35	-47.79
848.526	79.19
848.701	13.65
848.876	118.1
849.052	11.61
849.227	44.37
849.403	3.41
849.578	-21.16
849.753	21.85
849.929	95.57
850.104	-66.22
850.279	3.41
850.454	21.85
850.63	66.9
850.805	-45.74
850.98	46.42
851.155	-111.27
851.33	-25.26
851.505	-47.79
851.681	77.14
851.856	-0.68
852.031	30.04
852.206	-12.97
852.381	-86.7
852.556	23.89
852.731	54.61
852.906	91.48
853.081	7.51
853.256	21.85
853.431	-12.97
853.606	-27.31
853.781	-60.07
853.956	-131.75
854.131	-0.68
854.305	-68.27
854.48	-12.97
854.655	-33.45
854.83	-117.42
855.005	-55.98
855.18	60.76
855.354	-64.17
855.529	3.41
855.704	-62.12
855.879	64.85
856.053	-84.65
856.228	-0.68
856.403	-68.27
856.577	46.42
856.752	-94.89
856.926	27.99
857.101	27.99
857.276	-64.17
857.45	-2.73
857.625	73.04
857.799	13.65
857.974	-64.17
858.148	-162.47
858.323	9.56
858.497	60.76
858.672	-92.84
858.846	-76.46
859.02	36.18
859.195	-64.17
859.369	-25.26
859.543	77.14
859.718	-37.55
859.892	-27.31
860.066	46.42
860.241	-51.88
860.415	-51.88
860.589	-2.73
860.763	40.28
860.938	-82.6
861.112	71
861.286	-31.4
861.46	32.08
861.634	-88.75
861.808	91.48
861.982	-115.37
862.157	-41.64
862.331	-55.98
862.505	-27.31
862.679	-135.85
862.853	-37.55
863.027	-19.11
863.201	138.58
863.375	-55.98
863.549	-64.17
863.722	-19.11
863.896	116.05
864.07	3.41
864.244	-25.26
864.418	30.04
864.592	5.46
864.766	42.32
864.939	-78.51
865.113	7.51
865.287	60.76
865.461	1.37
865.634	44.37
865.808	-55.98
865.982	-15.02
866.156	-121.51
866.329	25.94
866.503	-15.02
866.676	91.48
866.85	30.04
867.024	27.99
867.197	17.75
867.371	-29.35
867.544	75.09
867.718	-117.42
867.891	23.89
868.065	-80.55
868.238	-10.92
868.412	15.7
868.585	-6.83
868.759	-47.79
868.932	5.46
869.105	-105.13
869.279	34.13
869.452	-43.69
869.625	13.65
869.799	34.13
869.972	-94.89
870.145	-64.17
870.319	27.99
870.492	-29.35
870.665	38.23
870.838	-92.84
871.011	-146.09
871.185	-31.4
871.358	-29.35
871.531	48.47
871.704	-0.68
871.877	54.61
872.05	-62.12
872.223	-76.46
872.396	101.72
872.569	64.85
872.742	-55.98
872.915	-51.88
873.088	-144.04
873.261	-19.11
873.434	103.76
873.607	-68.27
873.78	120.15
873.953	-105.13
874.126	9.56
874.299	68.95
874.471	21.85
874.644	-66.22
874.817	27.99
874.99	136.53
875.163	-23.21
875.335	-43.69
875.508	-35.5
875.681	50.52
875.853	-45.74
876.026	-86.7
876.199	11.61
876.371	7.51
876.544	-39.59
876.717	-2.73
876.889	-70.31
877.062	-23.21
877.234	-84.65
877.407	-21.16
877.579	36.18
877.752	75.09
877.924	105.81
878.097	7.51
878.269	15.7
878.442	-19.11
878.614	7.51
878.786	5.46
878.959	25.94
879.131	25.94
879.303	-148.14
879.476	40.28
879.648	62.8
879.82	-17.07
879.993	-74.41
880.165	-49.83
880.337	-31.4
880.509	-17.07
880.681	-76.46
880.854	-37.55
881.026	64.85
881.198	126.29
881.37	-64.17
881.542	-2.73
881.714	-6.83
881.886	-0.68
882.058	-23.21
882.23	-45.74
882.402	68.95
882.574	-21.16
882.746	77.14
882.918	109.91
883.09	85.33
883.262	-107.18
883.434	77.14
883.606	-119.46
883.778	-58.03
883.95	181.59
884.122	-25.26
884.293	75.09
884.465	64.85
884.637	42.32
884.809	-129.7
884.98	-31.4
885.152	-88.75
885.324	15.7
885.496	-72.36
885.667	-84.65
885.839	62.8
886.011	79.19
886.182	42.32
886.354	77.14
886.525	-0.68
886.697	-17.07
886.869	-78.51
887.04	60.76
887.212	68.95
887.383	114
887.555	60.76
887.726	-45.74
887.897	-33.45
888.069	-41.64
888.24	66.9
888.412	-70.31
888.583	5.46
888.754	-29.35
888.926	-39.59
889.097	-62.12
889.268	-66.22
889.44	-21.16
889.611	-62.12
889.782	-37.55
889.953	-94.89
890.125	46.42
890.296	-53.93
890.467	-8.87
890.638	-4.78
890.809	-35.5
890.98	60.76
891.151	32.08
891.323	95.57
891.494	-47.79
891.665	-2.73
891.836	-35.5
892.007	-8.87
892.178	-17.07
892.349	-6.83
892.52	-82.6
892.691	30.04
892.862	-41.64
893.032	-107.18
893.203	-41.64
893.374	-2.73
893.545	-37.55
893.716	64.85
893.887	-6.83
894.057	-55.98
894.228	-31.4
894.399	-80.55
894.57	85.33
894.74	-60.07
894.911	-35.5
895.082	-4.78
895.253	-55.98
895.423	-17.07
895.594	15.7
895.764	23.89
895.935	-23.21
896.106	30.04
896.276	-82.6
896.447	-23.21
896.617	-17.07
896.788	-33.45
896.958	-66.22
897.129	-45.74
897.299	17.75
897.47	87.38
897.64	64.85
897.81	-23.21
897.981	-21.16
898.151	-80.55
898.322	73.04
898.492	36.18
898.662	-12.97
898.832	-49.83
899.003	3.41
899.173	-33.45
899.343	-29.35
899.513	-90.79
