Data from USB4F104151__158__11-04-37-436.txt Node

Date: Wed Feb 26 11:04:37 EST 2025
User: louis
Spectrometer: USB4F10415
Trigger mode: 4
Integration Time (sec): 1.000000E-1
Scans to average: 1
Electric dark correction enabled: true
Nonlinearity correction enabled: false
Boxcar width: 0
XAxis mode: Wavelengths
Number of Pixels in Spectrum: 3648
>>>>>Begin Spectral Data<<<<<
178.204	-522.91
178.424	-522.91
178.644	-522.91
178.864	-389.8
179.084	-451.24
179.304	56.66
179.524	34.13
179.744	-0.68
179.964	27.99
180.184	48.47
180.404	21.85
180.624	-53.93
180.844	-47.79
181.064	-82.6
181.283	-4.78
181.503	-70.31
181.723	71
181.943	-31.4
182.163	175.44
182.383	-19.11
182.602	66.9
182.822	152.92
183.042	32.08
183.262	-84.65
183.482	-25.26
183.701	-10.92
183.921	17.75
184.141	-98.99
184.361	66.9
184.58	105.81
184.8	-0.68
185.02	-86.7
185.239	97.62
185.459	130.39
185.679	75.09
185.898	-135.85
186.118	109.91
186.338	30.04
186.557	75.09
186.777	-78.51
186.997	-39.59
187.216	36.18
187.436	167.25
187.655	111.96
187.875	87.38
188.095	38.23
188.314	122.2
188.534	66.9
188.753	-41.64
188.973	89.43
189.192	114
189.412	40.28
189.631	23.89
189.851	34.13
190.07	154.96
190.29	-29.35
190.509	73.04
190.729	27.99
190.948	142.68
191.168	224.59
191.387	111.96
191.607	13.65
191.826	56.66
192.045	-55.98
192.265	32.08
192.484	140.63
192.704	17.75
192.923	-96.94
193.142	132.44
193.362	52.56
193.581	154.96
193.8	107.86
194.02	27.99
194.239	97.62
194.458	79.19
194.678	-12.97
194.897	36.18
195.116	50.52
195.335	40.28
195.555	93.52
195.774	44.37
195.993	95.57
196.212	44.37
196.432	-58.03
196.651	-60.07
196.87	42.32
197.089	212.31
197.308	42.32
197.528	81.24
197.747	-29.35
197.966	-41.64
198.185	79.19
198.404	-55.98
198.623	91.48
198.842	107.86
199.062	71
199.281	114
199.5	-35.5
199.719	60.76
199.938	71
200.157	62.8
200.376	64.85
200.595	54.61
200.814	79.19
201.033	7.51
201.252	165.2
201.471	25.94
201.69	79.19
201.909	-39.59
202.128	111.96
202.347	36.18
202.566	13.65
202.785	-29.35
203.004	42.32
203.223	167.25
203.442	42.32
203.661	-51.88
203.879	97.62
204.098	93.52
204.317	7.51
204.536	177.49
204.755	58.71
204.974	124.24
205.193	-2.73
205.411	97.62
205.63	95.57
205.849	3.41
206.068	21.85
206.287	-47.79
206.505	136.53
206.724	91.48
206.943	-21.16
207.162	-49.83
207.381	81.24
207.599	-0.68
207.818	-10.92
208.037	-53.93
208.255	30.04
208.474	30.04
208.693	42.32
208.911	71
209.13	114
209.349	42.32
209.567	17.75
209.786	81.24
210.005	126.29
210.223	54.61
210.442	-64.17
210.661	21.85
210.879	42.32
211.098	-35.5
211.316	120.15
211.535	38.23
211.753	25.94
211.972	19.8
212.191	-43.69
212.409	-12.97
212.628	114
212.846	34.13
213.065	73.04
213.283	95.57
213.502	5.46
213.72	17.75
213.938	-35.5
214.157	21.85
214.375	23.89
214.594	15.7
214.812	62.8
215.031	-0.68
215.249	66.9
215.467	95.57
215.686	21.85
215.904	36.18
216.122	-27.31
216.341	152.92
216.559	48.47
216.778	124.24
216.996	122.2
217.214	40.28
217.432	19.8
217.651	-70.31
217.869	7.51
218.087	-23.21
218.306	-15.02
218.524	50.52
218.742	-33.45
218.96	97.62
219.179	54.61
219.397	27.99
219.615	208.21
219.833	56.66
220.051	15.7
220.27	118.1
220.488	150.87
220.706	-27.31
220.924	-33.45
221.142	-2.73
221.36	9.56
221.578	77.14
221.796	-23.21
222.015	54.61
222.233	3.41
222.451	97.62
222.669	-41.64
222.887	150.87
223.105	-12.97
223.323	42.32
223.541	-35.5
223.759	93.52
223.977	71
224.195	161.11
224.413	128.34
224.631	99.67
224.849	103.76
225.067	183.63
225.285	-70.31
225.503	73.04
225.721	-107.18
225.939	79.19
226.157	11.61
226.375	189.78
226.592	-90.79
226.81	15.7
227.028	85.33
227.246	179.54
227.464	-0.68
227.682	87.38
227.9	54.61
228.117	17.75
228.335	87.38
228.553	48.47
228.771	17.75
228.989	73.04
229.206	66.9
229.424	-0.68
229.642	-0.68
229.86	7.51
230.077	120.15
230.295	-12.97
230.513	58.71
230.731	-12.97
230.948	191.83
231.166	171.35
231.384	15.7
231.601	-49.83
231.819	212.31
232.037	15.7
232.254	-45.74
232.472	13.65
232.689	-80.55
232.907	148.82
233.125	54.61
233.342	27.99
233.56	-4.78
233.777	11.61
233.995	-21.16
234.213	87.38
234.43	109.91
234.648	3.41
234.865	-10.92
235.083	93.52
235.3	71
235.518	68.95
235.735	93.52
235.953	126.29
236.17	52.56
236.388	40.28
236.605	-37.55
236.822	68.95
237.04	142.68
237.257	-2.73
237.475	-88.75
237.692	118.1
237.909	50.52
238.127	-31.4
238.344	1.37
238.562	11.61
238.779	-6.83
238.996	-45.74
239.214	52.56
239.431	66.9
239.648	25.94
239.865	42.32
240.083	116.05
240.3	-47.79
240.517	19.8
240.735	30.04
240.952	118.1
241.169	58.71
241.386	93.52
241.603	73.04
241.821	-53.93
242.038	93.52
242.255	64.85
242.472	-23.21
242.689	85.33
242.907	36.18
243.124	54.61
243.341	5.46
243.558	-29.35
243.775	11.61
243.992	-45.74
244.209	56.66
244.426	187.73
244.643	40.28
244.86	-27.31
245.078	111.96
245.295	42.32
245.512	50.52
245.729	15.7
245.946	118.1
246.163	27.99
246.38	-43.69
246.597	36.18
246.814	27.99
247.031	40.28
247.248	23.89
247.464	38.23
247.681	-23.21
247.898	77.14
248.115	7.51
248.332	-94.89
248.549	177.49
248.766	173.39
248.983	83.28
249.2	46.42
249.417	66.9
249.633	32.08
249.85	3.41
250.067	62.8
250.284	36.18
250.501	122.2
250.717	-37.55
250.934	-51.88
251.151	-29.35
251.368	-10.92
251.585	27.99
251.801	46.42
252.018	-80.55
252.235	85.33
252.451	-88.75
252.668	50.52
252.885	101.72
253.102	44.37
253.318	44.37
253.535	-25.26
253.752	9.56
253.968	1.37
254.185	-109.22
254.401	36.18
254.618	19.8
254.835	-12.97
255.051	62.8
255.268	64.85
255.484	99.67
255.701	-10.92
255.917	52.56
256.134	-39.59
256.351	34.13
256.567	40.28
256.784	-4.78
257	-55.98
257.217	122.2
257.433	167.25
257.65	-10.92
257.866	150.87
258.082	-58.03
258.299	-17.07
258.515	36.18
258.732	5.46
258.948	44.37
259.165	52.56
259.381	-43.69
259.597	15.7
259.814	60.76
260.03	-21.16
260.246	9.56
260.463	130.39
260.679	77.14
260.895	114
261.112	77.14
261.328	27.99
261.544	3.41
261.761	120.15
261.977	-31.4
262.193	-70.31
262.409	-23.21
262.626	13.65
262.842	36.18
263.058	17.75
263.274	107.86
263.49	114
263.707	91.48
263.923	60.76
264.139	-66.22
264.355	87.38
264.571	157.01
264.787	38.23
265.004	124.24
265.22	27.99
265.436	-55.98
265.652	15.7
265.868	-0.68
266.084	-86.7
266.3	44.37
266.516	-29.35
266.732	-12.97
266.948	19.8
267.164	32.08
267.38	62.8
267.596	50.52
267.812	197.97
268.028	58.71
268.244	-6.83
268.46	-31.4
268.676	-96.94
268.892	97.62
269.108	56.66
269.324	-55.98
269.54	-25.26
269.756	132.44
269.972	1.37
270.188	21.85
270.403	-62.12
270.619	-4.78
270.835	64.85
271.051	30.04
271.267	-131.75
271.483	-8.87
271.698	42.32
271.914	81.24
272.13	62.8
272.346	13.65
272.562	38.23
272.777	144.72
272.993	21.85
273.209	-53.93
273.425	38.23
273.64	-37.55
273.856	73.04
274.072	-23.21
274.287	7.51
274.503	56.66
274.719	120.15
274.934	-31.4
275.15	-27.31
275.366	21.85
275.581	-74.41
275.797	48.47
276.012	83.28
276.228	-43.69
276.444	-58.03
276.659	77.14
276.875	-82.6
277.09	-23.21
277.306	-21.16
277.521	81.24
277.737	-31.4
277.952	42.32
278.168	46.42
278.383	21.85
278.599	109.91
278.814	165.2
279.03	27.99
279.245	75.09
279.461	-29.35
279.676	118.1
279.892	21.85
280.107	17.75
280.322	38.23
280.538	34.13
280.753	-21.16
280.969	19.8
281.184	44.37
281.399	138.58
281.615	48.47
281.83	42.32
282.045	-78.51
282.26	15.7
282.476	-19.11
282.691	85.33
282.906	-49.83
283.122	-41.64
283.337	-76.46
283.552	-4.78
283.767	-4.78
283.983	97.62
284.198	-29.35
284.413	5.46
284.628	-53.93
284.843	13.65
285.058	5.46
285.274	-27.31
285.489	-62.12
285.704	120.15
285.919	-35.5
286.134	66.9
286.349	-10.92
286.564	9.56
286.779	38.23
286.995	-55.98
287.21	-168.62
287.425	9.56
287.64	15.7
287.855	27.99
288.07	-90.79
288.285	114
288.5	185.68
288.715	62.8
288.93	5.46
289.145	-35.5
289.36	83.28
289.575	-2.73
289.79	60.76
290.004	-60.07
290.219	111.96
290.434	-39.59
290.649	-29.35
290.864	-6.83
291.079	23.89
291.294	66.9
291.509	114
291.724	91.48
291.938	-21.16
292.153	-33.45
292.368	66.9
292.583	73.04
292.798	19.8
293.012	21.85
293.227	-2.73
293.442	-64.17
293.657	120.15
293.871	128.34
294.086	9.56
294.301	122.2
294.516	48.47
294.73	42.32
294.945	25.94
295.16	7.51
295.374	83.28
295.589	54.61
295.804	-8.87
296.018	7.51
296.233	128.34
296.447	75.09
296.662	-51.88
296.877	91.48
297.091	105.81
297.306	-107.18
297.52	-15.02
297.735	11.61
297.949	21.85
298.164	25.94
298.378	7.51
298.593	17.75
298.807	-55.98
299.022	79.19
299.236	154.96
299.451	93.52
299.665	34.13
299.88	25.94
300.094	52.56
300.309	-62.12
300.523	66.9
300.737	30.04
300.952	1.37
301.166	109.91
301.381	-19.11
301.595	-19.11
301.809	30.04
302.024	23.89
302.238	-15.02
302.452	109.91
302.667	-12.97
302.881	189.78
303.095	95.57
303.309	73.04
303.524	-10.92
303.738	36.18
303.952	-6.83
304.166	40.28
304.381	-164.52
304.595	111.96
304.809	64.85
305.023	30.04
305.237	91.48
305.452	11.61
305.666	83.28
305.88	23.89
306.094	66.9
306.308	81.24
306.522	15.7
306.736	93.52
306.95	34.13
307.164	32.08
307.379	-12.97
307.593	126.29
307.807	142.68
308.021	52.56
308.235	21.85
308.449	-125.61
308.663	-35.5
308.877	122.2
309.091	75.09
309.305	114
309.519	-58.03
309.733	150.87
309.947	-53.93
310.161	50.52
310.374	87.38
310.588	224.59
310.802	-17.07
311.016	-6.83
311.23	15.7
311.444	-25.26
311.658	32.08
311.872	95.57
312.085	142.68
312.299	105.81
312.513	171.35
312.727	54.61
312.941	19.8
313.154	5.46
313.368	36.18
313.582	21.85
313.796	116.05
314.009	46.42
314.223	103.76
314.437	128.34
314.651	56.66
314.864	-12.97
315.078	-12.97
315.292	-66.22
315.505	1.37
315.719	68.95
315.933	66.9
316.146	1.37
316.36	-51.88
316.573	161.11
316.787	163.15
317.001	50.52
317.214	-19.11
317.428	56.66
317.641	44.37
317.855	-21.16
318.068	56.66
318.282	32.08
318.495	200.02
318.709	75.09
318.922	77.14
319.136	109.91
319.349	71
319.563	19.8
319.776	107.86
319.99	-17.07
320.203	99.67
320.417	-25.26
320.63	93.52
320.843	118.1
321.057	25.94
321.27	60.76
321.483	66.9
321.697	107.86
321.91	64.85
322.124	79.19
322.337	32.08
322.55	-152.23
322.763	21.85
322.977	36.18
323.19	-35.5
323.403	38.23
323.617	83.28
323.83	30.04
324.043	-31.4
324.256	-25.26
324.469	-88.75
324.683	89.43
324.896	30.04
325.109	36.18
325.322	-62.12
325.535	40.28
325.748	83.28
325.962	15.7
326.175	50.52
326.388	50.52
326.601	77.14
326.814	-58.03
327.027	40.28
327.24	97.62
327.453	-64.17
327.666	60.76
327.879	107.86
328.092	15.7
328.305	27.99
328.518	44.37
328.731	11.61
328.944	-8.87
329.157	83.28
329.37	25.94
329.583	169.3
329.796	140.63
330.009	-33.45
330.222	52.56
330.435	73.04
330.648	-62.12
330.861	-39.59
331.073	48.47
331.286	56.66
331.499	50.52
331.712	44.37
331.925	50.52
332.138	89.43
332.35	91.48
332.563	-29.35
332.776	146.77
332.989	-12.97
333.202	32.08
333.414	25.94
333.627	54.61
333.84	15.7
334.053	36.18
334.265	1.37
334.478	48.47
334.691	7.51
334.903	54.61
335.116	25.94
335.329	50.52
335.541	42.32
335.754	171.35
335.966	52.56
336.179	-2.73
336.392	52.56
336.604	-12.97
336.817	44.37
337.029	19.8
337.242	34.13
337.454	64.85
337.667	66.9
337.88	60.76
338.092	40.28
338.305	52.56
338.517	1.37
338.729	105.81
338.942	173.39
339.154	36.18
339.367	34.13
339.579	48.47
339.792	-33.45
340.004	58.71
340.217	21.85
340.429	-23.21
340.641	-29.35
340.854	-51.88
341.066	42.32
341.278	124.24
341.491	122.2
341.703	77.14
341.915	-17.07
342.128	60.76
342.34	56.66
342.552	5.46
342.764	71
342.977	-15.02
343.189	21.85
343.401	23.89
343.613	-17.07
343.826	50.52
344.038	-0.68
344.25	21.85
344.462	-37.55
344.674	62.8
344.886	44.37
345.099	-8.87
345.311	105.81
345.523	-27.31
345.735	-31.4
345.947	23.89
346.159	46.42
346.371	23.89
346.583	-12.97
346.795	157.01
347.007	-23.21
347.219	17.75
347.431	-29.35
347.643	64.85
347.855	-4.78
348.067	124.24
348.279	-17.07
348.491	46.42
348.703	44.37
348.915	38.23
349.127	32.08
349.339	44.37
349.551	25.94
349.763	3.41
349.975	32.08
350.187	87.38
350.399	173.39
350.61	124.24
350.822	-33.45
351.034	-12.97
351.246	66.9
351.458	66.9
351.669	77.14
351.881	109.91
352.093	118.1
352.305	138.58
352.517	79.19
352.728	124.24
352.94	27.99
353.152	101.72
353.363	-62.12
353.575	101.72
353.787	111.96
353.999	40.28
354.21	97.62
354.422	13.65
354.633	32.08
354.845	36.18
355.057	27.99
355.268	48.47
355.48	118.1
355.692	-66.22
355.903	5.46
356.115	-35.5
356.326	-103.08
356.538	138.58
356.749	124.24
356.961	146.77
357.172	19.8
357.384	-74.41
357.595	169.3
357.807	-43.69
358.018	-0.68
358.23	-82.6
358.441	126.29
358.653	15.7
358.864	9.56
359.075	-10.92
359.287	89.43
359.498	42.32
359.709	30.04
359.921	13.65
360.132	9.56
360.344	1.37
360.555	-25.26
360.766	50.52
360.977	40.28
361.189	136.53
361.4	15.7
361.611	95.57
361.823	181.59
362.034	30.04
362.245	-70.31
362.456	-39.59
362.667	146.77
362.879	-33.45
363.09	66.9
363.301	83.28
363.512	159.06
363.723	-23.21
363.935	11.61
364.146	93.52
364.357	54.61
364.568	62.8
364.779	-105.13
364.99	91.48
365.201	-17.07
365.412	101.72
365.623	-105.13
365.834	27.99
366.045	-15.02
366.256	58.71
366.467	89.43
366.678	58.71
366.889	-4.78
367.1	15.7
367.311	146.77
367.522	17.75
367.733	56.66
367.944	79.19
368.155	-12.97
368.366	107.86
368.577	144.72
368.788	87.38
368.999	-109.22
369.209	-66.22
369.42	265.55
369.631	210.26
369.842	85.33
370.053	52.56
370.264	52.56
370.474	-8.87
370.685	40.28
370.896	25.94
371.107	140.63
371.317	103.76
371.528	15.7
371.739	66.9
371.95	32.08
372.16	-27.31
372.371	-55.98
372.582	-39.59
372.792	109.91
373.003	54.61
373.214	83.28
373.424	66.9
373.635	-10.92
373.846	134.48
374.056	-8.87
374.267	85.33
374.477	71
374.688	66.9
374.898	68.95
375.109	9.56
375.319	54.61
375.53	99.67
375.74	148.82
375.951	-0.68
376.161	17.75
376.372	89.43
376.582	11.61
376.793	87.38
377.003	-92.84
377.214	-45.74
377.424	89.43
377.635	-10.92
377.845	36.18
378.055	216.4
378.266	-53.93
378.476	34.13
378.686	58.71
378.897	15.7
379.107	75.09
379.317	83.28
379.528	-8.87
379.738	89.43
379.948	-29.35
380.158	101.72
380.369	85.33
380.579	120.15
380.789	87.38
380.999	68.95
381.21	97.62
381.42	169.3
381.63	58.71
381.84	81.24
382.05	5.46
382.261	136.53
382.471	58.71
382.681	40.28
382.891	134.48
383.101	60.76
383.311	-10.92
383.521	-25.26
383.731	62.8
383.941	109.91
384.151	71
384.361	-37.55
384.571	3.41
384.781	64.85
384.991	103.76
385.201	71
385.411	66.9
385.621	-8.87
385.831	87.38
386.041	3.41
386.251	17.75
386.461	150.87
386.671	30.04
386.881	89.43
387.091	38.23
387.301	105.81
387.511	50.52
387.72	42.32
387.93	134.48
388.14	-66.22
388.35	7.51
388.56	64.85
388.769	46.42
388.979	-37.55
389.189	-68.27
389.399	56.66
389.609	60.76
389.818	105.81
390.028	48.47
390.238	60.76
390.447	-2.73
390.657	38.23
390.867	40.28
391.076	-72.36
391.286	71
391.496	-41.64
391.705	34.13
391.915	107.86
392.125	73.04
392.334	-33.45
392.544	146.77
392.753	-15.02
392.963	-17.07
393.172	-4.78
393.382	3.41
393.591	163.15
393.801	-17.07
394.01	146.77
394.22	62.8
394.429	21.85
394.639	95.57
394.848	21.85
395.058	87.38
395.267	-2.73
395.477	91.48
395.686	73.04
395.895	230.74
396.105	146.77
396.314	97.62
396.524	30.04
396.733	66.9
396.942	116.05
397.152	111.96
397.361	171.35
397.57	25.94
397.78	56.66
397.989	79.19
398.198	187.73
398.407	-0.68
398.617	-25.26
398.826	54.61
399.035	13.65
399.244	142.68
399.453	54.61
399.663	-15.02
399.872	64.85
400.081	-66.22
400.29	116.05
400.499	27.99
400.708	181.59
400.917	-6.83
401.127	52.56
401.336	-4.78
401.545	193.87
401.754	101.72
401.963	116.05
402.172	-27.31
402.381	-41.64
402.59	-0.68
402.799	17.75
403.008	44.37
403.217	42.32
403.426	-31.4
403.635	-76.46
403.844	27.99
404.053	40.28
404.262	58.71
404.471	120.15
404.68	25.94
404.888	1.37
405.097	54.61
405.306	32.08
405.515	89.43
405.724	-33.45
405.933	138.58
406.142	32.08
406.35	109.91
406.559	27.99
406.768	116.05
406.977	183.63
407.185	25.94
407.394	64.85
407.603	-53.93
407.812	91.48
408.02	159.06
408.229	103.76
408.438	40.28
408.646	-8.87
408.855	9.56
409.064	163.15
409.272	66.9
409.481	165.2
409.69	-19.11
409.898	-17.07
410.107	64.85
410.315	179.54
410.524	-80.55
410.733	48.47
410.941	-82.6
411.15	44.37
411.358	83.28
411.567	7.51
411.775	9.56
411.984	27.99
412.192	66.9
412.401	42.32
412.609	122.2
412.818	134.48
413.026	79.19
413.234	30.04
413.443	19.8
413.651	87.38
413.86	48.47
414.068	181.59
414.276	122.2
414.485	-10.92
414.693	134.48
414.901	189.78
415.11	79.19
415.318	-17.07
415.526	32.08
415.734	175.44
415.943	17.75
416.151	107.86
416.359	50.52
416.567	34.13
416.776	83.28
416.984	109.91
417.192	154.96
417.4	73.04
417.608	-19.11
417.817	-49.83
418.025	122.2
418.233	191.83
418.441	-45.74
418.649	-51.88
418.857	97.62
419.065	130.39
419.273	32.08
419.481	48.47
419.689	64.85
419.897	19.8
420.105	-70.31
420.313	124.24
420.521	163.15
420.729	195.92
420.937	25.94
421.145	-64.17
421.353	75.09
421.561	204.11
421.769	36.18
421.977	25.94
422.185	126.29
422.393	-21.16
422.601	124.24
422.809	118.1
423.017	124.24
423.224	54.61
423.432	89.43
423.64	68.95
423.848	103.76
424.056	-23.21
424.263	122.2
424.471	107.86
424.679	179.54
424.887	-29.35
425.094	9.56
425.302	107.86
425.51	50.52
425.718	79.19
425.925	66.9
426.133	30.04
426.341	220.5
426.548	77.14
426.756	3.41
426.964	81.24
427.171	-8.87
427.379	23.89
427.586	15.7
427.794	224.59
428.001	130.39
428.209	124.24
428.417	150.87
428.624	116.05
428.832	218.45
429.039	185.68
429.247	148.82
429.454	152.92
429.662	214.35
429.869	148.82
430.076	101.72
430.284	161.11
430.491	216.4
430.699	150.87
430.906	232.79
431.114	107.86
431.321	132.44
431.528	93.52
431.736	163.15
431.943	128.34
432.15	259.41
432.358	238.93
432.565	208.21
432.772	71
432.979	302.42
433.187	95.57
433.394	185.68
433.601	130.39
433.808	232.79
434.016	232.79
434.223	208.21
434.43	208.21
434.637	234.83
434.844	288.08
435.052	175.44
435.259	226.64
435.466	292.18
435.673	267.6
435.88	292.18
436.087	322.9
436.294	339.28
436.501	341.33
436.708	273.75
436.915	275.79
437.122	312.66
437.329	306.51
437.537	310.61
437.743	324.94
437.95	488.78
438.157	429.39
438.364	339.28
438.571	390.48
438.778	486.73
438.985	509.26
439.192	492.88
439.399	408.91
439.606	464.21
439.813	527.69
440.02	679.24
440.227	623.95
440.433	505.17
440.64	472.4
440.847	552.27
441.054	640.33
441.261	746.83
441.467	658.76
441.674	671.05
441.881	728.39
442.088	709.96
442.294	804.17
442.501	785.74
442.708	910.66
442.914	818.5
443.121	955.72
443.328	808.27
443.534	986.44
443.741	996.68
443.948	884.04
444.154	1150.28
444.361	1232.19
444.568	1121.6
444.774	1006.92
444.981	1090.88
445.187	1320.26
445.394	1297.73
445.6	1297.73
445.807	1365.31
446.013	1375.55
446.22	1291.59
446.426	1457.47
446.633	1670.46
446.839	1742.14
447.046	1684.8
447.252	1793.34
447.459	1764.67
447.665	1641.79
447.871	1969.46
448.078	2184.5
448.284	2059.57
448.491	2243.89
448.697	2331.95
448.903	2506.03
449.11	2495.79
449.316	2356.53
449.522	2620.72
449.728	2620.72
449.935	2759.98
450.141	2706.73
450.347	3169.57
450.553	2909.48
450.76	3034.41
450.966	3267.88
451.172	3288.36
451.378	3521.82
451.584	3616.03
451.791	3636.51
451.997	3945.75
452.203	3882.27
452.409	4070.68
452.615	4287.76
452.821	4089.11
453.027	4332.82
453.233	4822.28
453.44	4726.03
453.646	4941.07
453.852	5154.05
454.058	5139.72
454.264	5479.68
454.47	5803.26
454.676	5987.58
454.882	6321.4
455.088	6190.33
455.294	6343.92
455.5	6735.09
455.705	7376.1
455.911	7171.3
456.117	7408.87
456.323	7810.27
456.529	7726.3
456.735	8656.08
456.941	8596.69
457.147	8903.89
457.352	9333.96
457.558	9577.67
457.764	10108.09
457.97	10519.73
458.176	10904.75
458.381	11543.72
458.587	11388.07
458.793	12219.55
458.999	12137.63
459.204	13685.89
459.41	14052.48
459.616	13794.43
459.821	14691.45
460.027	15262.83
460.233	15967.33
460.438	16329.82
460.644	17052.75
460.85	17237.07
461.055	17964.1
461.261	18820.15
461.466	18435.13
461.672	18971.7
461.878	21091.35
462.083	20771.86
462.289	21312.53
462.494	22178.82
462.7	22029.32
462.905	22563.84
463.111	24585.18
463.316	25568.21
463.522	26004.42
463.727	26590.14
463.932	28054.44
464.138	28945.31
464.343	29750.16
464.549	30155.66
464.754	32428.9
464.959	33346.39
465.165	33796.95
465.37	33659.73
465.575	33669.97
465.781	35533.62
465.986	36651.81
466.191	36186.93
466.397	36506.41
466.602	35738.42
466.807	37765.91
467.012	38329.1
467.218	38695.69
467.423	39441.15
467.628	40506.09
467.833	42076.88
468.038	41466.59
468.244	40645.35
468.449	42814.15
468.654	41620.19
468.859	41947.86
469.064	41861.85
469.269	40891.11
469.474	40772.33
469.679	42242.77
469.885	41186.02
470.09	41753.3
470.295	42148.56
470.5	41196.26
470.705	41198.3
470.91	39795.45
471.115	39373.56
471.32	40422.12
471.525	40102.64
471.73	38564.62
471.935	39107.33
472.139	37344.03
472.344	37448.47
472.549	37157.66
472.754	36387.63
472.959	35445.56
473.164	34356.04
473.369	33712.98
473.574	34886.46
473.778	33889.1
473.983	33788.75
474.188	33008.48
474.393	31310.71
474.598	31372.15
474.802	30712.7
475.007	30382.98
475.212	30061.45
475.417	28681.12
475.621	28660.64
475.826	28416.93
476.031	27384.76
476.235	26866.62
476.44	26956.73
476.645	26131.4
476.849	25854.92
477.054	25584.59
477.259	24886.23
477.463	24933.34
477.668	24122.34
477.872	24185.83
478.077	23632.88
478.282	22924.28
478.486	22868.98
478.691	22543.36
478.895	22477.82
479.1	22402.05
479.304	22131.72
479.509	21447.69
479.713	21550.09
479.918	20896.79
480.122	20536.35
480.326	20900.89
480.531	21040.15
480.735	20325.41
480.94	20454.43
481.144	20945.94
481.348	19450.92
481.553	20100.13
481.757	19344.43
481.961	19676.2
482.166	19641.39
482.37	19364.91
482.574	19162.16
482.778	19158.06
482.983	19264.56
483.187	18568.25
483.391	18508.86
483.595	18545.72
483.8	18132.03
484.004	18304.06
484.208	17833.03
484.412	18093.12
484.616	17681.48
484.821	17374.28
485.025	17095.76
485.229	17163.34
485.433	16942.16
485.637	16829.52
485.841	16204.89
486.045	16264.29
486.249	16151.65
486.453	15850.6
486.657	15649.89
486.861	15420.52
487.065	14896.24
487.269	14910.58
487.473	14236.8
487.677	14560.38
487.881	14482.55
488.085	13782.15
488.289	13927.55
488.493	13534.34
488.697	13454.47
488.901	13200.52
489.105	12842.13
489.309	12835.99
489.512	12629.14
489.716	11998.37
489.92	11949.22
490.124	11629.73
490.328	11857.06
490.531	11254.95
490.735	11414.7
490.939	11007.15
491.143	10720.43
491.346	10501.3
491.55	10429.62
491.754	10202.3
491.958	10273.98
492.161	9788.61
492.365	9880.77
492.569	9721.02
492.772	9567.43
492.976	9454.79
493.18	9362.63
493.383	9383.11
493.587	9116.87
493.79	9010.38
493.994	8783.06
494.197	8664.27
494.401	8555.73
494.605	8649.94
494.808	8660.18
495.012	8639.7
495.215	8430.8
495.419	8451.28
495.622	8240.34
495.825	8152.28
496.029	8103.13
496.232	8275.16
496.436	8033.5
496.639	8441.04
496.843	8119.51
497.046	8252.63
497.249	8459.48
497.453	8223.96
497.656	8191.19
497.859	8074.46
498.063	8160.47
498.266	8236.25
498.469	8273.11
498.673	8033.5
498.876	8240.34
499.079	8201.43
499.282	8430.8
499.485	8608.98
499.689	8582.35
499.892	8654.03
500.095	8705.23
500.298	8705.23
500.501	8608.98
500.705	8678.61
500.908	8877.26
501.111	8955.08
501.314	8879.31
501.517	9118.92
501.72	9206.98
501.923	9004.24
502.126	9204.94
502.329	9542.85
502.532	9649.35
502.735	9706.69
502.938	9956.54
503.141	9913.53
503.344	9962.69
503.547	10122.43
503.75	10239.16
503.953	10308.79
504.156	10482.87
504.359	10648.75
504.562	10767.54
504.765	11068.59
504.968	11119.79
505.17	11338.92
505.373	11578.53
505.576	11728.03
505.779	11717.79
505.982	11873.44
506.185	12367
506.387	12428.44
506.59	12672.15
506.793	12833.94
506.996	13073.55
507.198	13495.43
507.401	13522.06
507.604	13886.59
507.807	14175.36
508.009	14466.17
508.212	14705.78
508.415	14912.63
508.617	15238.25
508.82	15477.87
509.022	15559.78
509.225	16317.53
509.428	16510.04
509.63	16694.36
509.833	17005.65
510.035	17757.25
510.238	17867.84
510.44	18197.57
510.643	18983.99
510.845	19168.3
511.048	19688.49
511.25	20010.02
511.453	20331.55
511.655	21103.64
511.858	21416.97
512.06	21883.91
512.262	22137.86
512.465	22592.51
512.667	23288.82
512.87	23798.76
513.072	24052.71
513.274	25050.07
513.477	25609.17
513.679	25965.51
513.881	26745.79
514.084	27167.67
514.286	27771.82
514.488	28251.05
514.69	29219.74
514.893	29862.8
515.095	29971.34
515.297	31191.93
515.499	31093.63
515.701	31939.44
515.904	32846.69
516.106	33430.36
516.308	34282.31
516.51	34755.39
516.712	35068.73
516.914	35760.95
517.116	36842.28
517.318	37321.5
517.52	38548.23
517.722	38578.95
517.925	39224.06
518.127	40387.31
518.329	40936.16
518.531	41329.37
518.733	42711.75
518.935	42635.98
519.136	42881.73
519.338	44061.36
519.54	44812.97
519.742	45183.65
519.944	45769.37
520.146	47264.39
520.348	47272.58
520.55	48222.84
520.752	48265.84
520.954	49730.14
521.155	49085.03
521.357	50170.46
521.559	50590.29
521.761	51382.85
521.963	51315.27
522.164	51870.27
522.366	52554.29
522.568	52582.96
522.77	53129.77
522.971	53735.97
523.173	53875.23
523.375	54448.66
523.576	54485.53
523.778	54645.27
523.98	54796.82
524.181	55013.9
524.383	55575.05
524.584	55968.26
524.786	55562.76
524.988	55439.88
525.189	55998.97
525.391	56070.65
525.592	56162.81
525.794	56324.6
525.995	56033.79
526.197	55990.78
526.398	55622.15
526.6	55777.79
526.801	55937.54
527.003	55366.15
527.204	55071.24
527.406	55403.02
527.607	55345.67
527.808	55073.29
528.01	53908
528.211	53805.6
528.412	54415.89
528.614	53850.66
528.815	53471.78
529.016	53590.56
529.218	52496.95
529.419	52331.06
529.62	51839.55
529.822	50987.6
530.023	50281.05
530.224	50250.33
530.425	49873.5
530.626	48743.02
530.828	48435.83
531.029	48929.39
531.23	47493.76
531.431	47542.91
531.632	47215.24
531.833	46365.33
532.035	45732.51
532.236	45458.08
532.437	44786.35
532.638	44014.26
532.839	43453.12
533.04	43326.14
533.241	42281.68
533.442	42455.76
533.643	41894.61
533.844	41013.99
534.045	40620.78
534.246	39580.41
534.447	39688.95
534.648	38607.62
534.849	38470.41
535.05	37438.23
535.251	37245.72
535.451	36868.9
535.652	36811.56
535.853	35689.27
536.054	35746.61
536.255	34982.72
536.456	34116.43
536.657	34335.56
536.857	33303.39
537.058	33008.48
537.259	33035.1
537.46	32129.9
537.66	31734.64
537.861	31351.67
538.062	31021.95
538.263	30772.1
538.463	30040.97
538.664	29649.81
538.865	29477.78
539.065	29426.58
539.266	28750.75
539.466	28476.32
539.667	28072.87
539.868	28029.87
540.068	27405.24
540.269	26885.05
540.469	26923.96
540.67	26391.49
540.87	26260.42
541.071	25617.36
541.271	25471.95
541.472	25258.96
541.672	25074.65
541.873	24716.25
542.073	23817.19
542.274	24421.34
542.474	23782.38
542.675	23292.91
542.875	23651.31
543.075	22975.48
543.276	22371.33
543.476	22649.85
543.676	22408.19
543.877	22066.18
544.077	21730.31
544.277	21769.23
544.478	21117.97
544.678	21343.25
544.878	20669.47
545.078	20675.61
545.279	20266.02
545.479	20184.1
545.679	20020.26
545.879	19702.82
546.079	19383.34
546.28	19467.31
546.48	18983.99
546.68	19080.24
546.88	18584.63
547.08	18494.52
547.28	17966.15
547.48	17843.27
547.68	17880.13
547.88	17267.79
548.081	17560.65
548.281	17169.49
548.481	16819.28
548.681	16837.72
548.881	16469.08
549.081	16053.34
549.28	15996
549.48	15436.91
549.68	15535.21
549.88	15275.12
550.08	15037.55
550.28	14842.99
550.48	14834.8
550.68	14509.18
550.88	14185.6
551.08	13976.7
551.279	14107.77
551.479	13585.54
551.679	13794.43
551.879	13393.03
552.079	13309.07
552.278	12807.31
552.478	12876.94
552.678	12561.56
552.878	12354.71
553.077	12115.1
553.277	11799.71
553.477	11832.48
553.676	11791.52
553.876	11695.27
554.076	11162.8
554.275	11121.84
554.475	10855.6
554.674	10828.98
554.874	10558.64
555.074	10587.32
555.273	10321.08
555.473	10099.9
555.672	10009.79
555.872	9651.39
556.071	9807.04
556.271	9731.26
556.47	9467.08
556.67	9024.72
556.869	9039.05
557.068	8824.01
557.268	8860.88
557.467	8473.81
557.667	8678.61
557.866	8379.61
558.065	8213.72
558.265	8121.56
558.464	7871.71
558.663	7933.15
558.863	7738.59
559.062	7673.06
559.261	7300.33
559.461	7427.3
559.66	7159.02
559.859	7197.93
560.058	7103.72
560.258	6890.73
560.457	6671.6
560.656	6849.77
560.855	6552.82
561.054	6591.73
561.253	6313.2
561.453	6321.4
561.652	6210.81
561.851	6188.28
562.05	6030.59
562.249	5831.93
562.448	5833.98
562.647	5567.74
562.846	5772.54
563.045	5727.49
563.244	5426.43
563.443	5512.45
563.642	5258.5
563.841	5238.02
564.04	5149.96
564.239	5166.34
564.438	5039.37
564.637	4904.2
564.836	4953.35
565.035	4721.93
565.234	4738.32
565.432	4693.26
565.631	4676.88
565.83	4644.11
566.029	4496.66
566.228	4496.66
566.427	4408.59
566.625	4191.51
566.824	4427.03
567.023	4193.56
567.222	4132.12
567.42	4082.97
567.619	3917.08
567.818	3976.47
568.016	4082.97
568.215	4001.05
568.414	3855.64
568.612	3896.6
568.811	3693.85
569.01	3683.61
569.208	3505.44
569.407	3456.29
569.605	3456.29
569.804	3355.94
570.002	3450.14
570.201	3192.1
570.4	3314.98
570.598	3190.05
570.797	3126.57
570.995	3122.47
571.193	3091.75
571.392	3243.3
571.59	2995.5
571.789	3089.7
571.987	3118.37
572.186	2911.53
572.384	2876.71
572.582	2833.71
572.781	2741.55
572.979	2567.47
573.177	2692.4
573.376	2635.05
573.574	2694.44
573.772	2458.93
573.971	2469.17
574.169	2385.2
574.367	2493.74
574.565	2381.11
574.763	2374.96
574.962	2338.1
575.16	2346.29
575.358	2247.99
575.556	2164.02
575.754	2227.51
575.952	2221.36
576.151	2194.74
576.349	2116.92
576.547	1959.22
576.745	2022.71
576.943	2135.35
577.141	2125.11
577.339	1908.02
577.537	1901.88
577.735	1957.18
577.933	1854.78
578.131	1832.25
578.329	1908.02
578.527	1809.72
578.725	1787.19
578.923	1649.98
579.121	1723.71
579.319	1580.35
579.516	1604.92
579.714	1756.47
579.912	1523.01
580.11	1494.33
580.308	1516.86
580.506	1551.68
580.704	1359.17
580.901	1455.42
581.099	1580.35
581.297	1537.34
581.495	1490.24
581.692	1439.04
581.89	1473.85
582.088	1279.3
582.285	1367.36
582.483	1297.73
582.681	1406.27
582.878	1262.91
583.076	1295.68
583.274	1187.14
583.471	1256.77
583.669	1213.76
583.866	1195.33
584.064	1170.76
584.262	1078.6
584.459	1119.56
584.657	1119.56
584.854	1164.61
585.052	1115.46
585.249	1135.94
585.447	1039.69
585.644	970.05
585.841	1119.56
586.039	994.63
586.236	1088.84
586.434	961.86
586.631	861.51
586.828	1054.02
587.026	941.38
587.223	843.08
587.42	965.96
587.618	1039.69
587.815	1023.3
588.012	972.1
588.21	847.18
588.407	982.34
588.604	947.53
588.801	812.36
588.999	859.46
589.196	904.52
589.393	845.13
589.59	777.55
589.787	828.74
589.984	800.07
590.182	834.89
590.379	748.87
590.576	791.88
590.773	843.08
590.97	783.69
591.167	853.32
591.364	800.07
591.561	746.83
591.758	992.58
591.955	826.7
592.152	728.39
592.349	720.2
592.546	734.54
592.743	630.09
592.94	699.72
593.137	777.55
593.334	814.41
593.531	822.6
593.727	824.65
593.924	795.98
594.121	728.39
594.318	759.11
594.515	816.46
594.712	951.62
594.908	890.18
595.105	765.26
595.302	818.5
595.499	845.13
595.696	857.42
595.892	843.08
596.089	931.14
596.286	881.99
596.482	1023.3
596.679	931.14
596.876	845.13
597.072	1054.02
597.269	994.63
597.466	1008.97
597.662	1054.02
597.859	1035.59
598.055	1160.52
598.252	1185.09
598.448	1293.63
598.645	1287.49
598.841	1267.01
599.038	1416.51
599.234	1488.19
599.431	1385.79
599.627	1477.95
599.824	1586.49
600.02	1598.78
600.217	1662.27
600.413	1699.13
600.609	1760.57
600.806	2030.9
601.002	1996.09
601.198	1936.7
601.395	2088.25
601.591	2073.91
601.787	2227.51
601.984	2237.75
602.18	2299.19
602.376	2434.35
602.572	2608.43
602.769	2635.05
602.965	2678.06
603.161	2811.18
603.357	2966.82
603.553	3108.13
603.75	3118.37
603.946	3101.99
604.142	3200.29
604.338	3507.49
604.534	3437.86
604.73	3667.23
604.926	3712.28
605.122	3955.99
605.318	4017.43
605.514	4332.82
605.71	4111.64
605.906	4484.37
606.102	4381.97
606.298	4762.89
606.494	4750.6
606.69	5149.96
606.886	5131.53
607.082	5139.72
607.278	5475.59
607.474	5430.53
607.67	5733.63
607.866	5713.15
608.062	6089.98
608.257	6165.75
608.453	6022.39
608.649	6604.02
608.845	6474.99
609.041	6735.09
609.236	7027.95
609.432	7359.72
609.628	7404.77
609.824	7591.14
610.019	7613.67
610.215	7945.44
610.411	8246.49
610.606	8496.34
610.802	8449.24
610.998	8891.6
611.193	9184.46
611.389	9225.42
611.584	9528.52
611.78	9630.91
611.976	10038.46
612.171	10501.3
612.367	10636.47
612.562	10974.38
612.758	11017.39
612.953	11218.09
613.149	11852.96
613.344	11787.43
613.539	12307.61
613.735	12631.19
613.93	13051.02
614.126	13073.55
614.321	13829.25
614.517	14050.43
614.712	14191.74
614.907	14632.05
615.103	15252.59
615.298	15459.43
615.493	15801.44
615.688	15942.75
615.884	16936.02
616.079	16897.11
616.274	17749.06
616.47	17814.6
616.665	18449.47
616.86	18660.41
617.055	19239.98
617.25	19428.4
617.445	20247.58
617.641	20749.34
617.836	21560.33
618.031	21484.56
618.226	22344.7
618.421	22662.14
618.616	23591.92
618.811	23567.34
619.006	24495.07
619.201	24685.53
619.396	25406.42
619.591	25533.39
619.786	26665.92
619.981	26977.21
620.176	27870.12
620.371	27823.02
620.566	28615.58
620.761	29197.21
620.956	30000.01
621.151	30110.6
621.346	31069.05
621.541	31828.85
621.735	32330.6
621.93	32809.82
622.125	33157.98
622.32	33133.4
622.515	34528.07
622.709	34964.29
622.904	35656.5
623.099	36074.29
623.294	36946.72
623.488	37241.63
623.683	38116.11
623.878	38425.35
624.072	39650.04
624.267	39817.97
624.462	40317.68
624.656	40940.26
624.851	41777.88
625.046	41831.13
625.24	42785.48
625.435	43123.4
625.629	43700.92
625.824	44300.98
626.018	44839.59
626.213	44855.98
626.407	45757.08
626.602	45961.88
626.796	46613.13
626.991	46916.23
627.185	47495.81
627.38	47641.21
627.574	47571.58
627.768	47555.2
627.963	48028.28
628.157	47501.95
628.352	48632.43
628.546	47710.85
628.74	48622.19
628.935	47831.68
629.129	48095.86
629.323	47567.49
629.517	47467.14
629.712	46760.59
629.906	46760.59
630.1	46047.89
630.294	45738.65
630.489	45126.31
630.683	44624.56
630.877	43471.55
631.071	42592.97
631.265	42230.48
631.459	41149.15
631.653	40116.98
631.848	39359.23
632.042	38472.46
632.236	37860.12
632.43	36254.51
632.624	35697.46
632.818	34169.68
633.012	32842.59
633.206	32222.06
633.4	31253.37
633.594	29940.62
633.788	28947.36
633.982	28062.63
634.176	27147.19
634.369	25924.55
634.563	25056.22
634.757	23905.26
634.951	23378.93
635.145	22514.69
635.339	21251.09
635.533	20335.65
635.726	19706.92
635.92	18895.92
636.114	18314.3
636.308	17441.87
636.501	16739.41
636.695	15938.66
636.889	15244.4
637.083	14656.63
637.276	14023.81
637.47	13440.14
637.664	12936.34
637.857	12410.01
638.051	12004.51
638.244	11535.53
638.438	10888.37
638.632	10712.24
638.825	10384.57
639.019	9874.62
639.212	9295.05
639.406	9106.63
639.599	8627.41
639.793	8338.65
639.986	8010.97
640.18	7781.6
640.373	7257.32
640.567	7054.57
640.76	6835.44
640.954	6714.61
641.147	6241.53
641.34	5944.57
641.534	5825.79
641.727	5643.52
641.92	5534.98
642.114	5172.49
642.307	5055.75
642.5	4836.62
642.694	4529.42
642.887	4304.15
643.08	4341.01
643.273	4052.25
643.467	4003.1
643.66	3757.34
643.853	3650.85
644.046	3640.61
644.239	3323.17
644.432	3198.24
644.626	3046.69
644.819	3087.65
645.012	2673.96
645.205	2792.75
645.398	2743.6
645.591	2565.42
645.784	2295.09
645.977	2264.37
646.17	2397.49
646.363	2174.26
646.556	2071.86
646.749	1922.36
646.942	2008.37
647.135	1858.87
647.328	1748.28
647.521	1799.48
647.714	1611.07
647.907	1586.49
648.099	1514.81
648.292	1598.78
648.485	1457.47
648.678	1314.11
648.871	1348.93
649.064	1305.92
649.256	1215.81
649.449	1045.83
649.642	1002.82
649.835	1094.98
650.027	1121.6
650.22	1115.46
650.413	980.29
650.605	1070.4
650.798	892.23
650.991	957.77
651.183	863.56
651.376	871.75
651.568	818.5
651.761	691.53
651.954	843.08
652.146	726.35
652.339	757.07
652.531	779.59
652.724	582.99
652.916	593.23
653.109	533.84
653.301	648.52
653.494	650.57
653.686	589.13
653.879	632.14
654.071	615.76
654.263	519.5
654.456	451.92
654.648	626
654.84	511.31
655.033	343.38
655.225	628.04
655.417	324.94
655.61	505.17
655.802	499.02
655.994	445.77
656.186	359.76
656.379	449.87
656.571	396.62
656.763	386.38
656.955	312.66
657.148	341.33
657.34	437.58
657.532	367.95
657.724	302.42
657.916	349.52
658.108	355.66
658.3	355.66
658.492	382.29
658.684	212.31
658.876	335.18
659.068	245.07
659.26	187.73
659.452	183.63
659.644	304.46
659.836	419.15
660.028	337.23
660.22	275.79
660.412	263.51
660.604	181.59
660.796	191.83
660.988	296.27
661.18	152.92
661.372	292.18
661.563	243.03
661.755	263.51
661.947	163.15
662.139	177.49
662.331	243.03
662.522	337.23
662.714	193.87
662.906	220.5
663.097	171.35
663.289	114
663.481	105.81
663.673	193.87
663.864	167.25
664.056	157.01
664.247	140.63
664.439	281.94
664.631	169.3
664.822	226.64
665.014	187.73
665.205	132.44
665.397	130.39
665.588	128.34
665.78	99.67
665.971	236.88
666.163	173.39
666.354	157.01
666.546	64.85
666.737	93.52
666.929	109.91
667.12	75.09
667.311	175.44
667.503	179.54
667.694	212.31
667.885	124.24
668.077	173.39
668.268	83.28
668.459	116.05
668.651	183.63
668.842	200.02
669.033	40.28
669.224	25.94
669.416	234.83
669.607	79.19
669.798	93.52
669.989	204.11
670.18	116.05
670.371	267.6
670.563	1.37
670.754	247.12
670.945	154.96
671.136	216.4
671.327	97.62
671.518	134.48
671.709	197.97
671.9	163.15
672.091	195.92
672.282	79.19
672.473	146.77
672.664	-21.16
672.855	120.15
673.046	154.96
673.237	163.15
673.428	116.05
673.619	126.29
673.809	75.09
674	210.26
674.191	204.11
674.382	126.29
674.573	109.91
674.764	132.44
674.954	220.5
675.145	97.62
675.336	85.33
675.527	58.71
675.717	159.06
675.908	132.44
676.099	148.82
676.289	114
676.48	32.08
676.671	42.32
676.861	83.28
677.052	169.3
677.243	109.91
677.433	30.04
677.624	99.67
677.814	64.85
678.005	17.75
678.195	191.83
678.386	5.46
678.576	122.2
678.767	77.14
678.957	163.15
679.148	173.39
679.338	136.53
679.529	251.22
679.719	111.96
679.909	228.69
680.1	218.45
680.29	111.96
680.481	71
680.671	193.87
680.861	167.25
681.052	138.58
681.242	89.43
681.432	144.72
681.622	200.02
681.813	109.91
682.003	159.06
682.193	68.95
682.383	146.77
682.573	161.11
682.764	73.04
682.954	148.82
683.144	259.41
683.334	99.67
683.524	175.44
683.714	193.87
683.904	193.87
684.094	148.82
684.284	91.48
684.474	265.55
684.664	185.68
684.854	136.53
685.044	204.11
685.234	175.44
685.424	208.21
685.614	85.33
685.804	298.32
685.994	204.11
686.184	144.72
686.374	191.83
686.564	267.6
686.753	171.35
686.943	150.87
687.133	109.91
687.323	161.11
687.513	218.45
687.702	163.15
687.892	157.01
688.082	261.46
688.272	222.55
688.461	193.87
688.651	318.8
688.841	197.97
689.03	114
689.22	175.44
689.41	165.2
689.599	148.82
689.789	34.13
689.979	257.36
690.168	183.63
690.358	226.64
690.547	202.07
690.737	122.2
690.926	216.4
691.116	257.36
691.305	173.39
691.495	220.5
691.684	157.01
691.874	38.23
692.063	109.91
692.252	271.7
692.442	189.78
692.631	146.77
692.82	222.55
693.01	165.2
693.199	183.63
693.388	204.11
693.578	122.2
693.767	173.39
693.956	167.25
694.146	122.2
694.335	230.74
694.524	148.82
694.713	240.98
694.902	173.39
695.092	140.63
695.281	222.55
695.47	56.66
695.659	114
695.848	93.52
696.037	128.34
696.226	206.16
696.415	191.83
696.604	314.7
696.793	253.27
696.982	85.33
697.171	179.54
697.36	159.06
697.549	91.48
697.738	-0.68
697.927	87.38
698.116	95.57
698.305	187.73
698.494	161.11
698.683	181.59
698.872	259.41
699.061	154.96
699.25	19.8
699.438	114
699.627	175.44
699.816	263.51
700.005	83.28
700.193	136.53
700.382	210.26
700.571	238.93
700.76	185.68
700.948	152.92
701.137	189.78
701.326	232.79
701.514	103.76
701.703	230.74
701.892	183.63
702.08	302.42
702.269	116.05
702.457	103.76
702.646	222.55
702.834	128.34
703.023	163.15
703.212	243.03
703.4	146.77
703.589	120.15
703.777	159.06
703.965	105.81
704.154	105.81
704.342	116.05
704.531	87.38
704.719	136.53
704.907	265.55
705.096	42.32
705.284	56.66
705.472	146.77
705.661	218.45
705.849	183.63
706.037	253.27
706.226	175.44
706.414	214.35
706.602	136.53
706.79	257.36
706.979	150.87
707.167	177.49
707.355	38.23
707.543	210.26
707.731	218.45
707.919	232.79
708.107	124.24
708.296	5.46
708.484	152.92
708.672	187.73
708.86	152.92
709.048	226.64
709.236	36.18
709.424	177.49
709.612	197.97
709.8	11.61
709.988	154.96
710.176	226.64
710.364	251.22
710.551	120.15
710.739	148.82
710.927	150.87
711.115	124.24
711.303	238.93
711.491	202.07
711.679	114
711.866	226.64
712.054	105.81
712.242	228.69
712.43	197.97
712.617	154.96
712.805	191.83
712.993	144.72
713.181	23.89
713.368	206.16
713.556	116.05
713.744	114
713.931	286.03
714.119	214.35
714.306	91.48
714.494	150.87
714.682	111.96
714.869	81.24
715.057	126.29
715.244	77.14
715.432	175.44
715.619	124.24
715.807	111.96
715.994	159.06
716.182	202.07
716.369	236.88
716.556	216.4
716.744	79.19
716.931	109.91
717.119	200.02
717.306	152.92
717.493	249.17
717.681	79.19
717.868	140.63
718.055	169.3
718.242	144.72
718.43	236.88
718.617	197.97
718.804	136.53
718.991	329.04
719.179	193.87
719.366	204.11
719.553	191.83
719.74	181.59
719.927	154.96
720.114	228.69
720.301	81.24
720.488	95.57
720.676	167.25
720.863	292.18
721.05	195.92
721.237	208.21
721.424	238.93
721.611	169.3
721.798	126.29
721.985	66.9
722.172	185.68
722.358	226.64
722.545	200.02
722.732	167.25
722.919	326.99
723.106	167.25
723.293	159.06
723.48	161.11
723.667	107.86
723.853	292.18
724.04	208.21
724.227	294.22
724.414	128.34
724.6	179.54
724.787	288.08
724.974	380.24
725.161	163.15
725.347	93.52
725.534	197.97
725.72	193.87
725.907	245.07
726.094	210.26
726.28	122.2
726.467	179.54
726.653	42.32
726.84	329.04
727.027	273.75
727.213	118.1
727.4	206.16
727.586	212.31
727.773	191.83
727.959	228.69
728.145	228.69
728.332	202.07
728.518	60.76
728.705	197.97
728.891	204.11
729.077	187.73
729.264	171.35
729.45	161.11
729.636	228.69
729.823	236.88
730.009	324.94
730.195	263.51
730.382	240.98
730.568	114
730.754	236.88
730.94	181.59
731.126	187.73
731.313	208.21
731.499	169.3
731.685	214.35
731.871	240.98
732.057	238.93
732.243	275.79
732.429	240.98
732.615	331.09
732.801	197.97
732.987	228.69
733.173	165.2
733.359	146.77
733.545	187.73
733.731	181.59
733.917	204.11
734.103	169.3
734.289	206.16
734.475	144.72
734.661	361.81
734.847	175.44
735.033	249.17
735.219	245.07
735.404	163.15
735.59	167.25
735.776	169.3
735.962	191.83
736.148	204.11
736.333	302.42
736.519	193.87
736.705	159.06
736.89	212.31
737.076	271.7
737.262	191.83
737.447	122.2
737.633	175.44
737.819	310.61
738.004	224.59
738.19	146.77
738.375	288.08
738.561	300.37
738.747	271.7
738.932	144.72
739.118	318.8
739.303	197.97
739.489	195.92
739.674	169.3
739.859	150.87
740.045	204.11
740.23	236.88
740.416	126.29
740.601	261.46
740.786	169.3
740.972	169.3
741.157	240.98
741.342	91.48
741.528	124.24
741.713	257.36
741.898	281.94
742.084	243.03
742.269	179.54
742.454	267.6
742.639	232.79
742.824	208.21
743.01	324.94
743.195	402.77
743.38	312.66
743.565	212.31
743.75	283.98
743.935	247.12
744.12	277.84
744.305	169.3
744.49	161.11
744.675	202.07
744.86	228.69
745.045	200.02
745.23	193.87
745.415	157.01
745.6	208.21
745.785	183.63
745.97	345.42
746.155	197.97
746.34	218.45
746.525	157.01
746.71	310.61
746.895	120.15
747.079	81.24
747.264	130.39
747.449	238.93
747.634	234.83
747.819	234.83
748.003	185.68
748.188	97.62
748.373	240.98
748.557	177.49
748.742	163.15
748.927	140.63
749.111	226.64
749.296	107.86
749.481	222.55
749.665	204.11
749.85	138.58
750.034	210.26
750.219	269.65
750.404	148.82
750.588	187.73
750.773	159.06
750.957	181.59
751.141	132.44
751.326	193.87
751.51	21.85
751.695	83.28
751.879	152.92
752.064	224.59
752.248	157.01
752.432	132.44
752.617	226.64
752.801	290.13
752.985	161.11
753.17	220.5
753.354	185.68
753.538	150.87
753.722	83.28
753.907	36.18
754.091	89.43
754.275	91.48
754.459	60.76
754.643	136.53
754.828	111.96
755.012	157.01
755.196	23.89
755.38	128.34
755.564	77.14
755.748	142.68
755.932	159.06
756.116	181.59
756.3	175.44
756.484	77.14
756.668	138.58
756.852	68.95
757.036	159.06
757.22	212.31
757.404	68.95
757.588	85.33
757.772	173.39
757.956	144.72
758.14	263.51
758.323	58.71
758.507	181.59
758.691	148.82
758.875	181.59
759.059	245.07
759.242	54.61
759.426	99.67
759.61	87.38
759.794	38.23
759.977	232.79
760.161	310.61
760.345	294.22
760.528	171.35
760.712	132.44
760.895	132.44
761.079	56.66
761.263	91.48
761.446	87.38
761.63	54.61
761.813	165.2
761.997	-29.35
762.18	105.81
762.364	126.29
762.547	7.51
762.731	60.76
762.914	73.04
763.098	136.53
763.281	27.99
763.464	17.75
763.648	50.52
763.831	64.85
764.015	52.56
764.198	91.48
764.381	114
764.564	85.33
764.748	99.67
764.931	97.62
765.114	11.61
765.297	142.68
765.481	-49.83
765.664	54.61
765.847	30.04
766.03	177.49
766.213	-23.21
766.397	122.2
766.58	-0.68
766.763	132.44
766.946	62.8
767.129	62.8
767.312	36.18
767.495	-4.78
767.678	36.18
767.861	40.28
768.044	50.52
768.227	-39.59
768.41	71
768.593	75.09
768.776	109.91
768.959	-47.79
769.142	101.72
769.324	56.66
769.507	103.76
769.69	17.75
769.873	58.71
770.056	230.74
770.239	101.72
770.421	152.92
770.604	101.72
770.787	75.09
770.97	54.61
771.152	-49.83
771.335	114
771.518	-10.92
771.7	124.24
771.883	200.02
772.066	21.85
772.248	148.82
772.431	75.09
772.613	66.9
772.796	11.61
772.978	17.75
773.161	179.54
773.343	23.89
773.526	34.13
773.708	-101.03
773.891	13.65
774.073	54.61
774.256	42.32
774.438	132.44
774.621	-10.92
774.803	144.72
774.985	23.89
775.168	89.43
775.35	-10.92
775.532	109.91
775.715	-25.26
775.897	89.43
776.079	7.51
776.261	64.85
776.444	64.85
776.626	93.52
776.808	25.94
776.99	-29.35
777.173	56.66
777.355	44.37
777.537	11.61
777.719	91.48
777.901	68.95
778.083	-33.45
778.265	-62.12
778.447	103.76
778.629	-15.02
778.811	11.61
778.993	177.49
779.175	157.01
779.357	21.85
779.539	-62.12
779.721	103.76
779.903	58.71
780.085	27.99
780.267	64.85
780.449	11.61
780.631	103.76
780.812	159.06
780.994	32.08
781.176	-4.78
781.358	-76.46
781.54	85.33
781.721	144.72
781.903	89.43
782.085	3.41
782.267	105.81
782.448	-29.35
782.63	32.08
782.812	15.7
782.993	93.52
783.175	91.48
783.357	3.41
783.538	95.57
783.72	-43.69
783.901	15.7
784.083	15.7
784.264	23.89
784.446	-39.59
784.627	-35.5
784.809	56.66
784.99	-49.83
785.172	38.23
785.353	-25.26
785.535	107.86
785.716	-0.68
785.897	-37.55
786.079	-35.5
786.26	-19.11
786.441	13.65
786.623	-66.22
786.804	-37.55
786.985	36.18
787.167	32.08
787.348	36.18
787.529	5.46
787.71	148.82
787.891	13.65
788.073	1.37
788.254	-121.51
788.435	177.49
788.616	-2.73
788.797	9.56
788.978	-19.11
789.159	-45.74
789.34	58.71
789.522	34.13
789.703	-12.97
789.884	62.8
790.065	62.8
790.246	107.86
790.427	87.38
790.607	85.33
790.788	62.8
790.969	-64.17
791.15	25.94
791.331	-4.78
791.512	-25.26
791.693	-96.94
791.874	-45.74
792.054	195.92
792.235	136.53
792.416	-33.45
792.597	-41.64
792.778	138.58
792.958	-15.02
793.139	15.7
793.32	-10.92
793.5	5.46
793.681	77.14
793.862	-8.87
794.042	36.18
794.223	-127.66
794.404	1.37
794.584	-62.12
794.765	-2.73
794.945	-37.55
795.126	71
795.306	91.48
795.487	-62.12
795.667	-37.55
795.848	81.24
796.028	-17.07
796.209	87.38
796.389	44.37
796.57	52.56
796.75	-8.87
796.93	-103.08
797.111	-148.14
797.291	-33.45
797.471	-33.45
797.652	-6.83
797.832	-51.88
798.012	52.56
798.192	23.89
798.373	-17.07
798.553	19.8
798.733	77.14
798.913	-141.99
799.093	-43.69
799.274	-80.55
799.454	-12.97
799.634	64.85
799.814	128.34
799.994	44.37
800.174	3.41
800.354	58.71
800.534	-125.61
800.714	-0.68
800.894	-80.55
801.074	-70.31
801.254	-98.99
801.434	144.72
801.614	-60.07
801.794	-41.64
801.974	1881.4
802.154	-37.55
802.334	64.85
802.514	-119.46
802.693	11.61
802.873	21.85
803.053	144.72
803.233	103.76
803.413	-21.16
803.592	-15.02
803.772	-47.79
803.952	-0.68
804.131	-68.27
804.311	27.99
804.491	114
804.67	-70.31
804.85	-92.84
805.03	64.85
805.209	40.28
805.389	66.9
805.568	-82.6
805.748	42.32
805.928	48.47
806.107	52.56
806.287	-12.97
806.466	7.51
806.646	-76.46
806.825	13.65
807.004	-88.75
807.184	48.47
807.363	79.19
807.543	56.66
807.722	-51.88
807.901	3.41
808.081	120.15
808.26	-135.85
808.439	75.09
808.619	23.89
808.798	-72.36
808.977	-8.87
809.156	9.56
809.336	-4.78
809.515	-33.45
809.694	-51.88
809.873	-41.64
810.052	-35.5
810.231	142.68
810.411	-35.5
810.59	19.8
810.769	44.37
810.948	75.09
811.127	-148.14
811.306	-45.74
811.485	-62.12
811.664	42.32
811.843	-19.11
812.022	-60.07
812.201	-72.36
812.38	46.42
812.559	-15.02
812.737	19.8
812.916	-125.61
813.095	-58.03
813.274	81.24
813.453	-17.07
813.632	95.57
813.811	91.48
813.989	-84.65
814.168	-12.97
814.347	-76.46
814.526	40.28
814.704	165.2
814.883	101.72
815.062	-80.55
815.24	52.56
815.419	-10.92
815.598	-15.02
815.776	-135.85
815.955	13.65
816.133	-115.37
816.312	-45.74
816.49	-21.16
816.669	-41.64
816.847	-82.6
817.026	1.37
817.204	-78.51
817.383	13.65
817.561	-74.41
817.74	-51.88
817.918	-0.68
818.097	-60.07
818.275	-4.78
818.453	3.41
818.632	75.09
818.81	-2.73
818.988	-160.42
819.167	-55.98
819.345	-27.31
819.523	-25.26
819.701	-12.97
819.879	3.41
820.058	44.37
820.236	93.52
820.414	-15.02
820.592	-19.11
820.77	79.19
820.948	-2.73
821.127	-66.22
821.305	5.46
821.483	-53.93
821.661	-33.45
821.839	50.52
822.017	-107.18
822.195	-78.51
822.373	75.09
822.551	48.47
822.729	50.52
822.907	-62.12
823.085	46.42
823.262	-12.97
823.44	-66.22
823.618	-58.03
823.796	-58.03
823.974	-68.27
824.152	-53.93
824.329	7.51
824.507	-47.79
824.685	50.52
824.863	-10.92
825.04	-35.5
825.218	17.75
825.396	42.32
825.574	-41.64
825.751	-80.55
825.929	-12.97
826.107	-39.59
826.284	25.94
826.462	-8.87
826.639	-17.07
826.817	-64.17
826.994	-49.83
827.172	-68.27
827.349	93.52
827.527	-0.68
827.704	-94.89
827.882	-0.68
828.059	-27.31
828.237	-49.83
828.414	34.13
828.591	-82.6
828.769	-113.32
828.946	-80.55
829.124	50.52
829.301	7.51
829.478	-96.94
829.655	-4.78
829.833	21.85
830.01	-185
830.187	54.61
830.364	25.94
830.542	19.8
830.719	118.1
830.896	25.94
831.073	-12.97
831.25	66.9
831.427	93.52
831.604	9.56
831.782	-64.17
831.959	-39.59
832.136	11.61
832.313	-10.92
832.49	-41.64
832.667	-41.64
832.844	-70.31
833.021	44.37
833.198	60.76
833.374	-23.21
833.551	-35.5
833.728	-17.07
833.905	154.96
834.082	-150.18
834.259	-23.21
834.436	138.58
834.612	-68.27
834.789	-4.78
834.966	97.62
835.143	66.9
835.319	-135.85
835.496	-4.78
835.673	15.7
835.85	36.18
836.026	-19.11
836.203	54.61
836.38	-68.27
836.556	-84.65
836.733	-55.98
836.909	19.8
837.086	-12.97
837.262	-107.18
837.439	-41.64
837.616	-12.97
837.792	-49.83
837.968	132.44
838.145	-103.08
838.321	-29.35
838.498	-10.92
838.674	-0.68
838.851	-58.03
839.027	-127.66
839.203	-64.17
839.38	17.75
839.556	-17.07
839.732	44.37
839.909	7.51
840.085	27.99
840.261	-53.93
840.437	7.51
840.614	-84.65
840.79	114
840.966	-8.87
841.142	-17.07
841.318	19.8
841.494	136.53
841.671	75.09
841.847	-96.94
842.023	-121.51
842.199	-17.07
842.375	23.89
842.551	-115.37
842.727	-70.31
842.903	89.43
843.079	-21.16
843.255	93.52
843.431	7.51
843.607	21.85
843.783	-88.75
843.959	-39.59
844.134	-68.27
844.31	62.8
844.486	-68.27
844.662	-66.22
844.838	-39.59
845.013	23.89
845.189	32.08
845.365	-6.83
845.541	27.99
845.716	83.28
845.892	64.85
846.068	-74.41
846.244	-23.21
846.419	-2.73
846.595	-115.37
846.77	-74.41
846.946	134.48
847.122	-62.12
847.297	11.61
847.473	81.24
847.648	-96.94
847.824	5.46
847.999	-105.13
848.175	19.8
848.35	-37.55
848.526	54.61
848.701	17.75
848.876	103.76
849.052	75.09
849.227	-33.45
849.403	-12.97
849.578	40.28
849.753	23.89
849.929	-0.68
850.104	-68.27
850.279	15.7
850.454	-47.79
850.63	-47.79
850.805	5.46
850.98	87.38
851.155	-41.64
851.33	48.47
851.505	-51.88
851.681	105.81
851.856	-70.31
852.031	1.37
852.206	46.42
852.381	-103.08
852.556	-78.51
852.731	19.8
852.906	25.94
853.081	42.32
853.256	44.37
853.431	-70.31
853.606	-39.59
853.781	-78.51
853.956	-135.85
854.131	-27.31
854.305	-94.89
854.48	-58.03
854.655	-12.97
854.83	-31.4
855.005	-0.68
855.18	34.13
855.354	-76.46
855.529	-47.79
855.704	-139.94
855.879	-41.64
856.053	-62.12
856.228	-51.88
856.403	-107.18
856.577	50.52
856.752	-84.65
856.926	-62.12
857.101	40.28
857.276	-53.93
857.45	-0.68
857.625	44.37
857.799	9.56
857.974	-15.02
858.148	-121.51
858.323	23.89
858.497	-12.97
858.672	-76.46
858.846	-88.75
859.02	21.85
859.195	-82.6
859.369	-4.78
859.543	25.94
859.718	-21.16
859.892	34.13
860.066	13.65
860.241	-84.65
860.415	-88.75
860.589	-29.35
860.763	-58.03
860.938	-21.16
861.112	-6.83
861.286	-45.74
861.46	75.09
861.634	-19.11
861.808	44.37
861.982	-58.03
862.157	-133.8
862.331	-86.7
862.505	-131.75
862.679	-41.64
862.853	-15.02
863.027	-66.22
863.201	130.39
863.375	-86.7
863.549	-33.45
863.722	107.86
863.896	87.38
864.07	-23.21
864.244	44.37
864.418	52.56
864.592	-8.87
864.766	-74.41
864.939	-45.74
865.113	-117.42
865.287	48.47
865.461	-23.21
865.634	-43.69
865.808	-98.99
865.982	-176.81
866.156	-15.02
866.329	-96.94
866.503	13.65
866.676	13.65
866.85	-6.83
867.024	-154.28
867.197	-55.98
867.371	44.37
867.544	1.37
867.718	-60.07
867.891	-2.73
868.065	-117.42
868.238	-23.21
868.412	52.56
868.585	-19.11
868.759	-55.98
868.932	-39.59
869.105	-101.03
869.279	9.56
869.452	-37.55
869.625	-29.35
869.799	-8.87
869.972	-139.94
870.145	-33.45
870.319	32.08
870.492	-31.4
870.665	-29.35
870.838	-98.99
871.011	-146.09
871.185	-21.16
871.358	-84.65
871.531	-12.97
871.704	-0.68
871.877	-31.4
872.05	-111.27
872.223	-105.13
872.396	58.71
872.569	-39.59
872.742	-78.51
872.915	-27.31
873.088	-17.07
873.261	-60.07
873.434	54.61
873.607	27.99
873.78	77.14
873.953	-123.56
874.126	-27.31
874.299	83.28
874.471	-78.51
874.644	-82.6
874.817	81.24
874.99	105.81
875.163	40.28
875.335	1.37
875.508	-27.31
875.681	54.61
875.853	-41.64
876.026	15.7
876.199	30.04
876.371	-33.45
876.544	-17.07
876.717	-25.26
876.889	-96.94
877.062	19.8
877.234	-111.27
877.407	3.41
877.579	-35.5
877.752	-35.5
877.924	40.28
878.097	75.09
878.269	-78.51
878.442	-35.5
878.614	19.8
878.786	58.71
878.959	-43.69
879.131	-39.59
879.303	-39.59
879.476	1.37
879.648	44.37
879.82	-12.97
879.993	-101.03
880.165	-107.18
880.337	-137.9
880.509	-19.11
880.681	-33.45
880.854	-29.35
881.026	-6.83
881.198	253.27
881.37	-55.98
881.542	21.85
881.714	-43.69
881.886	-47.79
882.058	-64.17
882.23	-39.59
882.402	-45.74
882.574	-41.64
882.746	52.56
882.918	9.56
883.09	9.56
883.262	-27.31
883.434	17.75
883.606	-127.66
883.778	-23.21
883.95	138.58
884.122	-84.65
884.293	-0.68
884.465	3.41
884.637	56.66
884.809	-96.94
884.98	-12.97
885.152	-68.27
885.324	-0.68
885.496	-66.22
885.667	-23.21
885.839	-47.79
886.011	46.42
886.182	-21.16
886.354	46.42
886.525	15.7
886.697	-103.08
886.869	-19.11
887.04	-49.83
887.212	62.8
887.383	103.76
887.555	-21.16
887.726	-86.7
887.897	-15.02
888.069	54.61
888.24	52.56
888.412	-12.97
888.583	-15.02
888.754	1.37
888.926	-144.04
889.097	-90.79
889.268	-105.13
889.44	13.65
889.611	-103.08
889.782	-86.7
889.953	-103.08
890.125	-8.87
890.296	-68.27
890.467	-70.31
890.638	-19.11
890.809	-6.83
890.98	-33.45
891.151	-0.68
891.323	71
891.494	-60.07
891.665	-90.79
891.836	1.37
892.007	-107.18
892.178	-64.17
892.349	-8.87
892.52	-17.07
892.691	-2.73
892.862	-117.42
893.032	-109.22
893.203	-88.75
893.374	9.56
893.545	27.99
893.716	17.75
893.887	-31.4
894.057	-82.6
894.228	-62.12
894.399	-94.89
894.57	79.19
894.74	-74.41
894.911	-4.78
895.082	-0.68
895.253	-84.65
895.423	-92.84
895.594	-58.03
895.764	-94.89
895.935	-31.4
896.106	-25.26
896.276	-111.27
896.447	23.89
896.617	-55.98
896.788	-27.31
896.958	-12.97
897.129	-88.75
897.299	-2.73
897.47	48.47
897.64	17.75
897.81	-76.46
897.981	36.18
898.151	-94.89
898.322	-33.45
898.492	3.41
898.662	-55.98
898.832	-70.31
899.003	-25.26
899.173	36.18
899.343	-156.33
899.513	-74.41
