Data from USB4F104151__68__10-44-00-573.txt Node

Date: Wed Feb 26 10:44:00 EST 2025
User: louis
Spectrometer: USB4F10415
Trigger mode: 4
Integration Time (sec): 1.000000E-1
Scans to average: 1
Electric dark correction enabled: true
Nonlinearity correction enabled: false
Boxcar width: 0
XAxis mode: Wavelengths
Number of Pixels in Spectrum: 3648
>>>>>Begin Spectral Data<<<<<
178.204	-334.16
178.424	-334.16
178.644	-334.16
178.864	-397.65
179.084	-358.74
179.304	75.43
179.524	-35.16
179.744	5.8
179.964	30.38
180.184	5.8
180.404	11.95
180.624	-6.49
180.844	9.9
181.064	-69.97
181.283	-16.73
181.503	-63.83
181.723	52.91
181.943	-74.07
182.163	163.5
182.383	-16.73
182.602	95.91
182.822	93.87
183.042	44.71
183.262	-20.82
183.482	20.14
183.701	22.19
183.921	59.05
184.141	9.9
184.361	73.39
184.58	54.95
184.8	116.39
185.02	-26.96
185.239	112.3
185.459	87.72
185.679	128.68
185.898	-147.8
186.118	13.99
186.338	34.47
186.557	120.49
186.777	5.8
186.997	83.63
187.216	32.43
187.436	95.91
187.655	-35.16
187.875	85.67
188.095	-24.92
188.314	50.86
188.534	50.86
188.753	-49.49
188.973	63.15
189.192	108.2
189.412	-35.16
189.631	50.86
189.851	24.23
190.07	85.67
190.29	-14.68
190.509	-18.77
190.729	-35.16
190.948	132.78
191.168	233.13
191.387	87.72
191.607	57
191.826	61.1
192.045	1.71
192.265	-65.88
192.484	165.54
192.704	-10.58
192.923	-74.07
193.142	186.02
193.362	104.11
193.581	89.77
193.8	16.04
194.02	67.24
194.239	95.91
194.458	5.8
194.678	36.52
194.897	-6.49
195.116	57
195.335	46.76
195.555	3.75
195.774	-6.49
195.993	132.78
196.212	42.67
196.432	-49.49
196.651	-47.44
196.87	77.48
197.089	190.12
197.308	48.81
197.528	122.54
197.747	-61.78
197.966	20.14
198.185	122.54
198.404	-24.92
198.623	100.01
198.842	83.63
199.062	42.67
199.281	120.49
199.5	108.2
199.719	63.15
199.938	3.75
200.157	54.95
200.376	91.82
200.595	42.67
200.814	116.39
201.033	16.04
201.252	124.58
201.471	65.19
201.69	79.53
201.909	100.01
202.128	147.11
202.347	75.43
202.566	28.33
202.785	-55.64
203.004	-20.82
203.223	247.46
203.442	54.95
203.661	-43.35
203.879	85.67
204.098	140.97
204.317	-57.68
204.536	71.34
204.755	61.1
204.974	140.97
205.193	-47.44
205.411	155.3
205.63	85.67
205.849	106.15
206.068	-2.39
206.287	-8.53
206.505	110.25
206.724	-29.01
206.943	18.09
207.162	-6.49
207.381	40.62
207.599	32.43
207.818	50.86
208.037	-49.49
208.255	108.2
208.474	87.72
208.693	-33.11
208.911	18.09
209.13	7.85
209.349	63.15
209.567	112.3
209.786	87.72
210.005	77.48
210.223	-22.87
210.442	-74.07
210.661	63.15
210.879	87.72
211.098	65.19
211.316	22.19
211.535	136.87
211.753	46.76
211.972	40.62
212.191	-10.58
212.409	1.71
212.628	112.3
212.846	-4.44
213.065	69.29
213.283	116.39
213.502	52.91
213.72	-4.44
213.938	-43.35
214.157	38.57
214.375	52.91
214.594	-4.44
214.812	63.15
215.031	77.48
215.249	-10.58
215.467	28.33
215.686	54.95
215.904	85.67
216.122	61.1
216.341	239.27
216.559	-31.06
216.778	140.97
216.996	132.78
217.214	-2.39
217.432	-26.96
217.651	-29.01
217.869	167.59
218.087	-4.44
218.306	-92.5
218.524	40.62
218.742	-2.39
218.96	79.53
219.179	-37.2
219.397	-12.63
219.615	179.88
219.833	73.39
220.051	-0.34
220.27	147.11
220.488	140.97
220.706	75.43
220.924	32.43
221.142	54.95
221.36	30.38
221.578	44.71
221.796	-10.58
222.015	20.14
222.233	67.24
222.451	124.58
222.669	-37.2
222.887	61.1
223.105	22.19
223.323	34.47
223.541	34.47
223.759	50.86
223.977	81.58
224.195	138.92
224.413	114.34
224.631	83.63
224.849	13.99
225.067	288.42
225.285	-14.68
225.503	-26.96
225.721	-135.51
225.939	-35.16
226.157	46.76
226.375	181.93
226.592	26.28
226.81	54.95
227.028	130.73
227.246	175.78
227.464	63.15
227.682	112.3
227.9	81.58
228.117	59.05
228.335	73.39
228.553	44.71
228.771	52.91
228.989	65.19
229.206	110.25
229.424	42.67
229.642	-45.4
229.86	32.43
230.077	93.87
230.295	-10.58
230.513	151.21
230.731	89.77
230.948	151.21
231.166	208.55
231.384	22.19
231.601	7.85
231.819	259.75
232.037	13.99
232.254	-137.56
232.472	-2.39
232.689	18.09
232.907	50.86
233.125	-20.82
233.342	-59.73
233.56	-12.63
233.777	44.71
233.995	-10.58
234.213	177.83
234.43	136.87
234.648	1.71
234.865	16.04
235.083	83.63
235.3	71.34
235.518	32.43
235.735	65.19
235.953	83.63
236.17	63.15
236.388	-8.53
236.605	83.63
236.822	83.63
237.04	157.35
237.257	77.48
237.475	-31.06
237.692	79.53
237.909	-4.44
238.127	-24.92
238.344	75.43
238.562	67.24
238.779	-84.31
238.996	-39.25
239.214	71.34
239.431	65.19
239.648	-55.64
239.865	-8.53
240.083	116.39
240.3	-65.88
240.517	-80.21
240.735	79.53
240.952	59.05
241.169	40.62
241.386	102.06
241.603	-39.25
241.821	-51.54
242.038	71.34
242.255	28.33
242.472	-45.4
242.689	65.19
242.907	106.15
243.124	50.86
243.341	104.11
243.558	44.71
243.775	-29.01
243.992	-55.64
244.209	89.77
244.426	124.58
244.643	67.24
244.86	22.19
245.078	65.19
245.295	89.77
245.512	16.04
245.729	-100.69
245.946	79.53
246.163	69.29
246.38	9.9
246.597	-59.73
246.814	116.39
247.031	-29.01
247.248	44.71
247.464	52.91
247.681	34.47
247.898	-2.39
248.115	-20.82
248.332	-43.35
248.549	151.21
248.766	112.3
248.983	122.54
249.2	97.96
249.417	89.77
249.633	-26.96
249.85	102.06
250.067	20.14
250.284	67.24
250.501	81.58
250.717	71.34
250.934	-41.3
251.151	67.24
251.368	81.58
251.585	-6.49
251.801	42.67
252.018	18.09
252.235	85.67
252.451	-82.26
252.668	26.28
252.885	114.34
253.102	46.76
253.318	61.1
253.535	-33.11
253.752	18.09
253.968	36.52
254.185	-53.59
254.401	57
254.618	59.05
254.835	-0.34
255.051	124.58
255.268	50.86
255.484	48.81
255.701	38.57
255.917	38.57
256.134	-65.88
256.351	-18.77
256.567	-2.39
256.784	-61.78
257	-153.94
257.217	11.95
257.433	102.06
257.65	7.85
257.866	132.78
258.082	-65.88
258.299	-24.92
258.515	61.1
258.732	-61.78
258.948	-45.4
259.165	57
259.381	-98.64
259.597	40.62
259.814	-57.68
260.03	-47.44
260.246	32.43
260.463	100.01
260.679	155.3
260.895	3.75
261.112	93.87
261.328	-45.4
261.544	-20.82
261.761	231.08
261.977	-39.25
262.193	-115.03
262.409	149.16
262.626	57
262.842	32.43
263.058	32.43
263.274	57
263.49	46.76
263.707	116.39
263.923	102.06
264.139	-37.2
264.355	73.39
264.571	18.09
264.787	26.28
265.004	106.15
265.22	40.62
265.436	-59.73
265.652	7.85
265.868	57
266.084	-94.55
266.3	83.63
266.516	-20.82
266.732	-14.68
266.948	67.24
267.164	-24.92
267.38	85.67
267.596	73.39
267.812	122.54
268.028	1.71
268.244	50.86
268.46	54.95
268.676	30.38
268.892	32.43
269.108	-26.96
269.324	-41.3
269.54	63.15
269.756	61.1
269.972	-55.64
270.188	67.24
270.403	-22.87
270.619	50.86
270.835	85.67
271.051	-4.44
271.267	-8.53
271.483	-112.98
271.698	81.58
271.914	87.72
272.13	46.76
272.346	-45.4
272.562	73.39
272.777	87.72
272.993	18.09
273.209	-22.87
273.425	28.33
273.64	5.8
273.856	-10.58
274.072	11.95
274.287	-0.34
274.503	59.05
274.719	3.75
274.934	-14.68
275.15	-98.64
275.366	-2.39
275.581	-4.44
275.797	67.24
276.012	32.43
276.228	30.38
276.444	63.15
276.659	128.68
276.875	-74.07
277.09	-16.73
277.306	-26.96
277.521	108.2
277.737	112.3
277.952	75.43
278.168	54.95
278.383	79.53
278.599	36.52
278.814	11.95
279.03	46.76
279.245	155.3
279.461	52.91
279.676	177.83
279.892	-55.64
280.107	26.28
280.322	-29.01
280.538	40.62
280.753	9.9
280.969	112.3
281.184	3.75
281.399	147.11
281.615	-24.92
281.83	65.19
282.045	-18.77
282.26	22.19
282.476	50.86
282.691	140.97
282.906	38.57
283.122	30.38
283.337	1.71
283.552	85.67
283.767	34.47
283.983	79.53
284.198	7.85
284.413	-18.77
284.628	-84.31
284.843	26.28
285.058	116.39
285.274	-8.53
285.489	-16.73
285.704	73.39
285.919	11.95
286.134	-76.12
286.349	54.95
286.564	-12.63
286.779	87.72
286.995	63.15
287.21	65.19
287.425	46.76
287.64	9.9
287.855	42.67
288.07	1.71
288.285	83.63
288.5	89.77
288.715	108.2
288.93	30.38
289.145	-8.53
289.36	108.2
289.575	46.76
289.79	159.4
290.004	20.14
290.219	34.47
290.434	-16.73
290.649	59.05
290.864	-90.45
291.079	9.9
291.294	34.47
291.509	124.58
291.724	-37.2
291.938	22.19
292.153	65.19
292.368	7.85
292.583	124.58
292.798	28.33
293.012	128.68
293.227	85.67
293.442	-45.4
293.657	149.16
293.871	116.39
294.086	16.04
294.301	157.35
294.516	108.2
294.73	-8.53
294.945	-45.4
295.16	36.52
295.374	147.11
295.589	116.39
295.804	-10.58
296.018	20.14
296.233	95.91
296.447	24.23
296.662	-31.06
296.877	79.53
297.091	91.82
297.306	18.09
297.52	5.8
297.735	50.86
297.949	18.09
298.164	50.86
298.378	-10.58
298.593	-31.06
298.807	-24.92
299.022	134.82
299.236	181.93
299.451	-53.59
299.665	11.95
299.88	-72.02
300.094	18.09
300.309	42.67
300.523	100.01
300.737	-4.44
300.952	52.91
301.166	79.53
301.381	-6.49
301.595	46.76
301.809	36.52
302.024	-14.68
302.238	-22.87
302.452	83.63
302.667	11.95
302.881	116.39
303.095	155.3
303.309	87.72
303.524	48.81
303.738	38.57
303.952	28.33
304.166	110.25
304.381	-80.21
304.595	67.24
304.809	-8.53
305.023	112.3
305.237	-35.16
305.452	7.85
305.666	65.19
305.88	100.01
306.094	85.67
306.308	75.43
306.522	151.21
306.736	-10.58
306.95	61.1
307.164	-39.25
307.379	-0.34
307.593	91.82
307.807	40.62
308.021	69.29
308.235	16.04
308.449	7.85
308.663	30.38
308.877	196.26
309.091	120.49
309.305	71.34
309.519	-65.88
309.733	147.11
309.947	-35.16
310.161	161.45
310.374	48.81
310.588	97.96
310.802	-2.39
311.016	48.81
311.23	89.77
311.444	-51.54
311.658	44.71
311.872	132.78
312.085	87.72
312.299	145.06
312.513	118.44
312.727	16.04
312.941	-0.34
313.154	85.67
313.368	32.43
313.582	-22.87
313.796	-16.73
314.009	-51.54
314.223	120.49
314.437	-31.06
314.651	93.87
314.864	20.14
315.078	-39.25
315.292	-10.58
315.505	-20.82
315.719	140.97
315.933	34.47
316.146	-74.07
316.36	-12.63
316.573	116.39
316.787	65.19
317.001	50.86
317.214	-37.2
317.428	-2.39
317.641	-59.73
317.855	30.38
318.068	20.14
318.282	91.82
318.495	143.02
318.709	59.05
318.922	9.9
319.136	163.5
319.349	110.25
319.563	38.57
319.776	50.86
319.99	-86.36
320.203	130.73
320.417	69.29
320.63	83.63
320.843	89.77
321.057	79.53
321.27	54.95
321.483	81.58
321.697	118.44
321.91	143.02
322.124	28.33
322.337	65.19
322.55	54.95
322.763	36.52
322.977	-53.59
323.19	-33.11
323.403	73.39
323.617	108.2
323.83	97.96
324.043	20.14
324.256	-63.83
324.469	-2.39
324.683	95.91
324.896	42.67
325.109	1.71
325.322	-45.4
325.535	24.23
325.748	138.92
325.962	38.57
326.175	50.86
326.388	87.72
326.601	130.73
326.814	30.38
327.027	22.19
327.24	106.15
327.453	-47.44
327.666	77.48
327.879	120.49
328.092	34.47
328.305	46.76
328.518	-37.2
328.731	36.52
328.944	28.33
329.157	50.86
329.37	95.91
329.583	110.25
329.796	190.12
330.009	-153.94
330.222	69.29
330.435	132.78
330.648	59.05
330.861	42.67
331.073	-8.53
331.286	157.35
331.499	1.71
331.712	-16.73
331.925	11.95
332.138	28.33
332.35	79.53
332.563	-26.96
332.776	93.87
332.989	-8.53
333.202	108.2
333.414	26.28
333.627	5.8
333.84	-4.44
334.053	110.25
334.265	5.8
334.478	-16.73
334.691	61.1
334.903	59.05
335.116	22.19
335.329	-10.58
335.541	69.29
335.754	165.54
335.966	-84.31
336.179	13.99
336.392	11.95
336.604	-0.34
336.817	118.44
337.029	48.81
337.242	54.95
337.454	1.71
337.667	-18.77
337.88	171.69
338.092	50.86
338.305	87.72
338.517	-53.59
338.729	112.3
338.942	138.92
339.154	16.04
339.367	-2.39
339.579	40.62
339.792	-31.06
340.004	91.82
340.217	24.23
340.429	91.82
340.641	38.57
340.854	-80.21
341.066	120.49
341.278	59.05
341.491	196.26
341.703	40.62
341.915	-29.01
342.128	118.44
342.34	57
342.552	16.04
342.764	67.24
342.977	11.95
343.189	89.77
343.401	50.86
343.613	-61.78
343.826	57
344.038	-65.88
344.25	-6.49
344.462	3.75
344.674	30.38
344.886	20.14
345.099	11.95
345.311	9.9
345.523	-14.68
345.735	-104.79
345.947	7.85
346.159	42.67
346.371	108.2
346.583	26.28
346.795	218.79
347.007	-6.49
347.219	59.05
347.431	38.57
347.643	83.63
347.855	16.04
348.067	97.96
348.279	-39.25
348.491	40.62
348.703	71.34
348.915	20.14
349.127	-4.44
349.339	83.63
349.551	-45.4
349.763	108.2
349.975	65.19
350.187	46.76
350.399	108.2
350.61	134.82
350.822	-20.82
351.034	95.91
351.246	57
351.458	112.3
351.669	120.49
351.881	128.68
352.093	89.77
352.305	122.54
352.517	16.04
352.728	87.72
352.94	65.19
353.152	54.95
353.363	-14.68
353.575	77.48
353.787	192.17
353.999	130.73
354.21	132.78
354.422	-112.98
354.633	-10.58
354.845	-8.53
355.057	34.47
355.268	-8.53
355.48	67.24
355.692	-41.3
355.903	40.62
356.115	-98.64
356.326	-90.45
356.538	145.06
356.749	22.19
356.961	192.17
357.172	50.86
357.384	-16.73
357.595	247.46
357.807	-55.64
358.018	-24.92
358.23	1.71
358.441	145.06
358.653	83.63
358.864	-2.39
359.075	48.81
359.287	36.52
359.498	134.82
359.709	83.63
359.921	57
360.132	77.48
360.344	34.47
360.555	85.67
360.766	140.97
360.977	-14.68
361.189	85.67
361.4	57
361.611	69.29
361.823	42.67
362.034	54.95
362.245	-49.49
362.456	67.24
362.667	102.06
362.879	-65.88
363.09	13.99
363.301	3.75
363.512	18.09
363.723	-16.73
363.935	-29.01
364.146	112.3
364.357	-8.53
364.568	87.72
364.779	-110.93
364.99	128.68
365.201	-41.3
365.412	89.77
365.623	-72.02
365.834	11.95
366.045	67.24
366.256	83.63
366.467	81.58
366.678	-22.87
366.889	26.28
367.1	-33.11
367.311	106.15
367.522	13.99
367.733	97.96
367.944	122.54
368.155	30.38
368.366	114.34
368.577	149.16
368.788	36.52
368.999	-10.58
369.209	-20.82
369.42	188.07
369.631	214.7
369.842	110.25
370.053	32.43
370.264	54.95
370.474	3.75
370.685	48.81
370.896	28.33
371.107	89.77
371.317	87.72
371.528	16.04
371.739	163.5
371.95	112.3
372.16	112.3
372.371	-20.82
372.582	48.81
372.792	93.87
373.003	65.19
373.214	34.47
373.424	140.97
373.635	11.95
373.846	147.11
374.056	11.95
374.267	52.91
374.477	5.8
374.688	22.19
374.898	26.28
375.109	65.19
375.319	79.53
375.53	112.3
375.74	116.39
375.951	7.85
376.161	-2.39
376.372	42.67
376.582	-47.44
376.793	79.53
377.003	-31.06
377.214	-63.83
377.424	87.72
377.635	20.14
377.845	-10.58
378.055	132.78
378.266	5.8
378.476	71.34
378.686	91.82
378.897	30.38
379.107	13.99
379.317	40.62
379.528	-20.82
379.738	120.49
379.948	-84.31
380.158	69.29
380.369	44.71
380.579	106.15
380.789	32.43
380.999	71.34
381.21	61.1
381.42	183.98
381.63	40.62
381.84	73.39
382.05	42.67
382.261	151.21
382.471	124.58
382.681	1.71
382.891	143.02
383.101	83.63
383.311	-80.21
383.521	11.95
383.731	50.86
383.941	136.87
384.151	85.67
384.361	-8.53
384.571	9.9
384.781	20.14
384.991	126.63
385.201	149.16
385.411	73.39
385.621	122.54
385.831	44.71
386.041	-16.73
386.251	28.33
386.461	85.67
386.671	130.73
386.881	61.1
387.091	42.67
387.301	61.1
387.511	38.57
387.72	126.63
387.93	77.48
388.14	-121.17
388.35	52.91
388.56	157.35
388.769	89.77
388.979	75.43
389.189	69.29
389.399	75.43
389.609	59.05
389.818	95.91
390.028	-16.73
390.238	93.87
390.447	-57.68
390.657	163.5
390.867	38.57
391.076	-8.53
391.286	106.15
391.496	36.52
391.705	40.62
391.915	95.91
392.125	108.2
392.334	-18.77
392.544	110.25
392.753	110.25
392.963	-4.44
393.172	116.39
393.382	-12.63
393.591	163.5
393.801	22.19
394.01	89.77
394.22	40.62
394.429	54.95
394.639	-24.92
394.848	116.39
395.058	44.71
395.267	-35.16
395.477	93.87
395.686	73.39
395.895	202.41
396.105	208.55
396.314	95.91
396.524	48.81
396.733	20.14
396.942	73.39
397.152	104.11
397.361	102.06
397.57	128.68
397.78	85.67
397.989	91.82
398.198	171.69
398.407	46.76
398.617	106.15
398.826	18.09
399.035	30.38
399.244	77.48
399.453	67.24
399.663	26.28
399.872	28.33
400.081	-14.68
400.29	91.82
400.499	-16.73
400.708	155.3
400.917	59.05
401.127	-2.39
401.336	-35.16
401.545	145.06
401.754	153.26
401.963	79.53
402.172	95.91
402.381	-39.25
402.59	69.29
402.799	91.82
403.008	52.91
403.217	75.43
403.426	112.3
403.635	-69.97
403.844	40.62
404.053	52.91
404.262	30.38
404.471	155.3
404.68	59.05
404.888	32.43
405.097	-2.39
405.306	67.24
405.515	50.86
405.724	36.52
405.933	79.53
406.142	81.58
406.35	102.06
406.559	-47.44
406.768	42.67
406.977	118.44
407.185	102.06
407.394	116.39
407.603	-53.59
407.812	67.24
408.02	77.48
408.229	77.48
408.438	67.24
408.646	-12.63
408.855	26.28
409.064	26.28
409.272	54.95
409.481	75.43
409.69	-37.2
409.898	24.23
410.107	38.57
410.315	50.86
410.524	-6.49
410.733	63.15
410.941	28.33
411.15	147.11
411.358	136.87
411.567	136.87
411.775	18.09
411.984	71.34
412.192	79.53
412.401	-55.64
412.609	210.6
412.818	196.26
413.026	30.38
413.234	7.85
413.443	149.16
413.651	7.85
413.86	126.63
414.068	116.39
414.276	175.78
414.485	75.43
414.693	186.02
414.901	138.92
415.11	-39.25
415.318	145.06
415.526	48.81
415.734	89.77
415.943	89.77
416.151	147.11
416.359	28.33
416.567	44.71
416.776	38.57
416.984	126.63
417.192	179.88
417.4	48.81
417.608	-45.4
417.817	-41.3
418.025	57
418.233	118.44
418.441	34.47
418.649	-33.11
418.857	120.49
419.065	165.54
419.273	95.91
419.481	59.05
419.689	85.67
419.897	7.85
420.105	-98.64
420.313	151.21
420.521	179.88
420.729	153.26
420.937	54.95
421.145	-49.49
421.353	97.96
421.561	134.82
421.769	71.34
421.977	9.9
422.185	153.26
422.393	-16.73
422.601	108.2
422.809	40.62
423.017	28.33
423.224	91.82
423.432	91.82
423.64	50.86
423.848	122.54
424.056	34.47
424.263	97.96
424.471	28.33
424.679	124.58
424.887	-8.53
425.094	81.58
425.302	100.01
425.51	104.11
425.718	104.11
425.925	9.9
426.133	11.95
426.341	235.18
426.548	-8.53
426.756	85.67
426.964	77.48
427.171	30.38
427.379	26.28
427.586	108.2
427.794	57
428.001	93.87
428.209	124.58
428.417	112.3
428.624	110.25
428.832	91.82
429.039	95.91
429.247	71.34
429.454	104.11
429.662	274.09
429.869	132.78
430.076	36.52
430.284	112.3
430.491	239.27
430.699	169.64
430.906	226.98
431.114	118.44
431.321	128.68
431.528	181.93
431.736	145.06
431.943	149.16
432.15	124.58
432.358	259.75
432.565	233.13
432.772	63.15
432.979	159.4
433.187	57
433.394	249.51
433.601	112.3
433.808	251.56
434.016	165.54
434.223	245.41
434.43	181.93
434.637	245.41
434.844	190.12
435.052	173.74
435.259	165.54
435.466	231.08
435.673	255.65
435.88	304.81
436.087	239.27
436.294	286.37
436.501	272.04
436.708	233.13
436.915	284.33
437.122	358.05
437.329	276.13
437.537	269.99
437.743	308.9
437.95	394.92
438.157	306.85
438.364	378.53
438.571	319.14
438.778	364.2
438.985	456.36
439.192	392.87
439.399	450.21
439.606	419.49
439.813	464.55
440.02	581.28
440.227	609.95
440.433	530.08
440.64	487.08
440.847	450.21
441.054	509.6
441.261	712.35
441.467	513.7
441.674	505.51
441.881	614.05
442.088	609.95
442.294	685.73
442.501	700.06
442.708	677.54
442.914	763.55
443.121	845.47
443.328	771.74
443.534	935.58
443.741	734.88
443.948	745.12
444.154	835.23
444.361	986.78
444.568	988.83
444.774	915.1
444.981	915.1
445.187	1138.33
445.394	1015.45
445.6	1107.61
445.807	1216.15
446.013	1142.43
446.22	1195.67
446.426	1394.33
446.633	1420.95
446.839	1570.45
447.046	1238.68
447.252	1580.69
447.459	1556.11
447.665	1494.68
447.871	1619.6
448.078	1810.06
448.284	1834.64
448.491	1863.31
448.697	1873.55
448.903	1939.09
449.11	1984.14
449.316	2027.15
449.522	2188.94
449.728	2305.67
449.935	2356.87
450.141	2324.1
450.347	2446.98
450.553	2465.41
450.76	2578.05
450.966	2623.11
451.172	2754.18
451.378	2784.9
451.584	2940.54
451.791	3094.14
451.997	3180.15
452.203	3313.27
452.409	3585.65
452.615	3610.23
452.821	3503.73
453.027	3667.57
453.233	4111.98
453.44	4025.97
453.646	4052.59
453.852	4234.86
454.058	4517.48
454.264	4484.71
454.47	4791.91
454.676	5054.05
454.882	5355.1
455.088	4978.27
455.294	5430.87
455.5	5756.5
455.705	6116.94
455.911	5899.86
456.117	6125.13
456.323	6495.82
456.529	6581.83
456.735	6964.8
456.941	7413.31
457.147	7482.94
457.352	7607.86
457.558	8015.41
457.764	8347.18
457.97	8517.16
458.176	8900.13
458.381	9326.11
458.587	9494.04
458.793	9983.51
458.999	9842.2
459.204	11044.35
459.41	11677.18
459.616	11544.06
459.821	12174.83
460.027	12797.42
460.233	13293.02
460.438	13256.16
460.644	14130.64
460.85	14196.18
461.055	14814.66
461.261	15330.75
461.466	15123.91
461.672	15263.17
461.878	17442.21
462.083	17190.31
462.289	17442.21
462.494	18263.44
462.7	18611.6
462.905	18711.95
463.111	20092.28
463.316	21001.58
463.522	21175.66
463.727	22060.38
463.932	22916.43
464.138	23442.76
464.343	24479.03
464.549	24845.62
464.754	26639.64
464.959	27135.24
465.165	27837.7
465.37	27507.97
465.575	27397.38
465.781	29269.23
465.986	30110.94
466.191	29832.42
466.397	30299.36
466.602	29400.3
466.807	31116.5
467.012	31280.33
467.218	32177.34
467.423	32324.8
467.628	33273.01
467.833	34749.59
468.038	34196.64
468.244	33799.33
468.449	35171.47
468.654	34514.08
468.859	34446.49
469.064	34694.3
469.269	33795.24
469.474	34385.05
469.679	35099.8
469.885	34002.08
470.09	34589.85
470.295	34772.12
470.5	34075.81
470.705	34260.13
470.91	33209.52
471.115	33189.04
471.32	33776.81
471.525	33350.83
471.73	32464.06
471.935	32027.84
472.139	31032.53
472.344	30999.76
472.549	30975.19
472.754	30266.59
472.959	29488.36
473.164	28534.01
473.369	28247.29
473.574	28714.23
473.778	28421.37
473.983	27835.65
474.188	27460.87
474.393	26199.32
474.598	25974.05
474.802	25537.83
475.007	25163.05
475.212	24988.97
475.417	23825.73
475.621	23819.58
475.826	23430.47
476.031	22703.44
476.235	22560.08
476.44	22666.58
476.645	21970.27
476.849	21204.33
477.054	21261.67
477.259	20899.18
477.463	20757.87
477.668	20211.06
477.872	20006.27
478.077	19660.16
478.282	19047.82
478.486	19269
478.691	18746.76
478.895	18480.53
479.1	18646.41
479.304	18199.96
479.509	17704.35
479.713	17876.38
479.918	17382.82
480.122	17196.45
480.326	17370.53
480.531	17391.01
480.735	17003.94
480.94	16833.96
481.144	17431.97
481.348	16450.99
481.553	16666.03
481.757	16106.93
481.961	16260.53
482.166	16190.9
482.37	16117.17
482.574	15859.13
482.778	15961.53
482.983	15787.45
483.187	15863.22
483.391	15556.03
483.595	15185.35
483.8	15031.75
484.004	14996.93
484.208	15214.02
484.412	14804.42
484.616	14753.23
484.821	14747.08
485.025	14202.32
485.229	14304.72
485.433	14069.2
485.637	13862.36
485.841	13559.26
486.045	13327.84
486.249	13358.56
486.453	12930.53
486.657	12883.43
486.861	12768.74
487.065	12269.04
487.269	12490.22
487.473	11972.08
487.677	12209.65
487.881	12064.24
488.085	11564.54
488.289	11679.22
488.493	11329.02
488.697	11347.45
488.901	10960.39
489.105	10726.92
489.309	10538.51
489.512	10352.14
489.716	10339.85
489.92	10262.03
490.124	9651.74
490.328	9995.79
490.531	9389.6
490.735	9557.53
490.939	9315.87
491.143	9111.07
491.346	8898.08
491.55	8810.02
491.754	8793.64
491.958	8420.91
492.161	8597.03
492.365	8265.26
492.569	8068.66
492.772	8080.94
492.976	7913.01
493.18	7749.17
493.383	7738.93
493.587	7804.47
493.79	7712.31
493.994	7530.04
494.197	7235.13
494.401	7370.3
494.605	7222.84
494.808	7210.56
495.012	7032.38
495.215	7005.76
495.419	7067.2
495.622	6882.88
495.825	6868.55
496.029	6893.12
496.232	6934.08
496.436	6682.18
496.639	6811.2
496.843	6700.61
497.046	6817.35
497.249	6872.64
497.453	6667.84
497.656	6633.03
497.859	6843.97
498.063	6841.92
498.266	6936.13
498.469	6827.59
498.673	6766.15
498.876	6905.41
499.079	6876.74
499.282	6823.49
499.485	7122.49
499.689	7032.38
499.892	7118.4
500.095	6919.75
500.298	7157.31
500.501	6839.87
500.705	7214.65
500.908	7335.48
501.111	7284.28
501.314	7394.87
501.517	7605.81
501.72	7476.79
501.923	7542.33
502.126	7611.96
502.329	7839.28
502.532	7786.04
502.735	7781.94
502.938	7970.35
503.141	8169.01
503.344	8171.05
503.547	8363.56
503.75	8457.77
503.953	8396.33
504.156	8594.98
504.359	8666.66
504.562	8836.64
504.765	9008.67
504.968	9078.3
505.17	9281.05
505.373	9373.21
505.576	9637.4
505.779	9668.12
505.982	9715.22
506.185	10051.09
506.387	10063.38
506.59	10143.25
506.793	10409.48
506.996	10677.77
507.198	10956.29
507.401	11236.86
507.604	11175.42
507.807	11425.28
508.009	11666.94
508.212	12006.9
508.415	12113.39
508.617	12334.57
508.82	12543.47
509.022	12584.43
509.225	13219.3
509.428	13409.76
509.63	13698.52
509.833	13772.25
510.035	14396.88
510.238	14335.44
510.44	14884.3
510.643	15277.51
510.845	15433.15
511.048	15730.11
511.25	16059.83
511.453	16235.95
511.655	17053.09
511.858	17067.43
512.06	17501.6
512.262	17984.92
512.465	18179.48
512.667	18761.1
512.87	19191.17
513.072	19737.98
513.274	20186.49
513.477	20491.63
513.679	20958.57
513.881	21525.86
514.084	22093.15
514.286	22381.91
514.488	22637.91
514.69	23670.08
514.893	24024.38
515.095	24505.65
515.297	24569.14
515.499	25261.35
515.701	25754.91
515.904	26471.7
516.106	27051.28
516.308	27675.91
516.51	28056.83
516.712	28278.01
516.914	28892.4
517.116	29799.65
517.318	30166.24
517.52	30528.73
517.722	31218.89
517.925	32171.2
518.127	32496.83
518.329	33152.18
518.531	32976.05
518.733	33926.31
518.935	34411.68
519.136	34915.48
519.338	35675.27
519.54	36023.43
519.742	36836.47
519.944	36967.54
520.146	38173.8
520.348	38362.21
520.55	39054.42
520.752	39375.95
520.954	39726.16
521.155	39863.37
521.357	40647.74
521.559	41321.52
521.761	42064.94
521.963	41968.68
522.164	42470.43
522.366	42521.63
522.568	43463.7
522.77	43152.41
522.971	44375.05
523.173	43672.59
523.375	44530.69
523.576	44137.48
523.778	44383.24
523.98	45046.78
524.181	45460.47
524.383	45190.14
524.584	45517.81
524.786	45390.84
524.988	45581.3
525.189	46152.68
525.391	46365.67
525.592	45954.03
525.794	46130.15
525.995	46201.83
526.197	46121.96
526.398	45812.72
526.6	45874.16
526.801	45771.76
527.003	45820.91
527.204	45667.31
527.406	45913.07
527.607	45374.45
527.808	45251.58
528.01	44139.53
528.211	44524.55
528.412	44641.28
528.614	44350.47
528.815	44076.04
529.016	44071.95
529.218	43617.3
529.419	43344.92
529.62	42662.94
529.822	42671.14
530.023	41880.62
530.224	41733.17
530.425	41255.99
530.626	40471.62
530.828	40113.22
531.029	40242.24
531.23	39496.78
531.431	38863.96
531.632	38849.63
531.833	38085.73
532.035	38071.4
532.236	37309.55
532.437	37215.35
532.638	36478.08
532.839	36236.42
533.04	35658.89
533.241	35030.16
533.442	35267.73
533.643	34311.33
533.844	33725.61
534.045	33680.55
534.246	32865.46
534.447	32722.1
534.648	31800.52
534.849	31868.1
535.05	31243.47
535.251	31122.64
535.451	30629.08
535.652	30270.68
535.853	29703.4
536.054	29240.56
536.255	29031.66
536.456	28527.86
536.657	28411.13
536.857	27583.75
537.058	27073.81
537.259	27114.76
537.46	26739.99
537.66	26060.06
537.861	25892.13
538.062	25849.12
538.263	25261.35
538.463	24913.2
538.664	24460.6
538.865	24499.51
539.065	24501.56
539.266	23878.97
539.466	23649.6
539.667	23117.13
539.868	23213.38
540.068	22629.71
540.269	22623.57
540.469	22490.45
540.67	21816.67
540.87	21577.06
541.071	21185.9
541.271	21286.25
541.472	21173.61
541.672	20665.71
541.873	20483.44
542.073	19799.42
542.274	20219.25
542.474	19545.47
542.675	19428.74
542.875	19377.54
543.075	18906.51
543.276	18668.94
543.476	18967.95
543.676	18152.85
543.877	18396.56
544.077	18148.76
544.277	17857.95
544.478	17888.67
544.678	17411.49
544.878	17382.82
545.078	17077.67
545.279	16946.6
545.479	16522.67
545.679	16522.67
545.879	16303.54
546.079	16174.52
546.28	15627.71
546.48	15615.42
546.68	15687.1
546.88	15441.34
547.08	15064.52
547.28	15171.01
547.48	14435.79
547.68	14794.18
547.88	14380.5
548.081	14517.71
548.281	14087.64
548.481	13997.53
548.681	13964.76
548.881	13528.54
549.081	13506.01
549.28	13239.78
549.48	12910.05
549.68	12830.18
549.88	12944.87
550.08	12508.65
550.28	12330.48
550.48	12211.7
550.68	12033.52
550.88	11853.3
551.08	11736.57
551.279	11683.32
551.479	11326.97
551.679	11204.1
551.879	11116.03
552.079	10896.9
552.278	10634.76
552.478	10583.56
552.678	10458.64
552.878	10378.76
553.077	10010.13
553.277	9805.33
553.477	9793.05
553.676	9836.05
553.876	9649.69
554.076	9266.72
554.275	9330.2
554.475	8822.31
554.674	9192.99
554.874	8789.54
555.074	8687.14
555.273	8511.02
555.473	8558.12
555.672	8224.3
555.872	8154.67
556.071	7974.45
556.271	8113.71
556.47	7820.85
556.67	7419.45
556.869	7583.29
557.068	7484.98
557.268	7200.32
557.467	7138.88
557.667	7206.46
557.866	6829.63
558.065	6772.29
558.265	6620.74
558.464	6483.53
558.663	6583.88
558.863	6364.75
559.062	6342.22
559.261	6094.41
559.461	6112.85
559.66	6080.08
559.859	5856.85
560.058	5717.59
560.258	5729.88
560.457	5570.13
560.656	5629.52
560.855	5426.78
561.054	5344.86
561.253	5371.48
561.453	5193.31
561.652	5252.7
561.851	5129.82
562.05	4925.02
562.249	4761.19
562.448	4814.43
562.647	4773.47
562.846	4626.02
563.045	4542.05
563.244	4613.73
563.443	4546.15
563.642	4294.25
563.841	4335.21
564.04	4284.01
564.239	4126.32
564.438	4101.74
564.637	4011.63
564.836	4015.73
565.035	3868.27
565.234	3968.62
565.432	3716.72
565.631	3894.9
565.83	3702.39
566.029	3747.44
566.228	3741.3
566.427	3634.8
566.625	3497.59
566.824	3524.21
567.023	3417.72
567.222	3417.72
567.42	3294.84
567.619	3382.9
567.818	3157.63
568.016	3319.42
568.215	3034.75
568.414	3194.49
568.612	3049.08
568.811	3137.15
569.01	3030.65
569.208	2811.52
569.407	2889.34
569.605	2897.53
569.804	2866.81
570.002	2793.09
570.201	2705.03
570.4	2801.28
570.598	2682.5
570.797	2715.27
570.995	2616.96
571.193	2535.04
571.392	2545.28
571.59	2344.58
571.789	2463.37
571.987	2492.04
572.186	2403.97
572.384	2254.47
572.582	2252.42
572.781	2295.43
572.979	2197.13
573.177	2193.03
573.376	2184.84
573.574	2180.75
573.772	2104.97
573.971	2037.39
574.169	1891.98
574.367	1947.28
574.565	1949.32
574.763	1984.14
574.962	1902.22
575.16	1793.68
575.358	1709.71
575.556	1908.37
575.754	1791.63
575.952	1775.25
576.151	1767.06
576.349	1754.77
576.547	1545.88
576.745	1713.81
576.943	1552.02
577.141	1662.61
577.339	1382.04
577.537	1609.36
577.735	1629.84
577.933	1574.55
578.131	1547.92
578.329	1468.05
578.527	1431.19
578.725	1461.91
578.923	1285.78
579.121	1502.87
579.319	1267.35
579.516	1275.54
579.714	1511.06
579.912	1408.66
580.11	1234.58
580.308	1212.06
580.506	1253.02
580.704	1074.84
580.901	1167
581.099	1224.34
581.297	1179.29
581.495	1148.57
581.692	1029.79
581.89	1273.5
582.088	994.97
582.285	1066.65
582.483	1083.03
582.681	1150.62
582.878	1169.05
583.076	937.63
583.274	976.54
583.471	978.59
583.669	1011.36
583.866	929.44
584.064	896.67
584.262	798.37
584.459	951.96
584.657	966.3
584.854	898.72
585.052	925.34
585.249	882.33
585.447	868
585.644	853.66
585.841	980.64
586.039	880.29
586.236	861.85
586.434	820.89
586.631	693.92
586.828	761.5
587.026	716.45
587.223	669.34
587.42	837.28
587.618	757.41
587.815	798.37
588.012	743.07
588.21	593.57
588.407	843.42
588.604	790.17
588.801	704.16
588.999	716.45
589.196	749.22
589.393	646.82
589.59	710.3
589.787	769.69
589.984	732.83
590.182	667.3
590.379	585.38
590.576	687.78
590.773	595.62
590.97	626.34
591.167	685.73
591.364	730.78
591.561	591.52
591.758	724.64
591.955	616.1
592.152	708.26
592.349	607.91
592.546	605.86
592.743	513.7
592.94	650.91
593.137	605.86
593.334	792.22
593.531	722.59
593.727	632.48
593.924	638.62
594.121	630.43
594.318	605.86
594.515	632.48
594.712	824.99
594.908	849.57
595.105	583.33
595.302	683.68
595.499	677.54
595.696	816.8
595.892	722.59
596.089	765.6
596.286	675.49
596.482	835.23
596.679	786.08
596.876	732.83
597.072	786.08
597.269	802.46
597.466	876.19
597.662	714.4
597.859	849.57
598.055	904.86
598.252	974.49
598.448	976.54
598.645	1007.26
598.841	1085.08
599.038	1138.33
599.234	1222.3
599.431	1003.16
599.627	1304.21
599.824	1240.73
600.02	1218.2
600.217	1263.26
600.413	1341.08
600.609	1439.38
600.806	1754.77
601.002	1539.73
601.198	1574.55
601.395	1787.54
601.591	1795.73
601.787	1834.64
601.984	1881.74
602.18	1947.28
602.376	1883.79
602.572	2193.03
602.769	2166.41
602.965	2150.03
603.161	2426.5
603.357	2510.47
603.553	2565.76
603.75	2500.23
603.946	2664.07
604.142	2715.27
604.338	2920.06
604.534	2909.82
604.73	3073.66
604.926	2995.84
605.122	3235.45
605.318	3296.89
605.514	3491.45
605.71	3475.06
605.906	3767.92
606.102	3595.89
606.298	3931.76
606.494	3929.71
606.69	4136.56
606.886	4118.12
607.082	4318.82
607.278	4343.4
607.474	4556.39
607.67	4712.03
607.866	4666.98
608.062	5150.3
608.257	5168.73
608.453	5090.91
608.649	5447.26
608.845	5379.67
609.041	5672.53
609.236	5830.23
609.432	5983.82
609.628	6256.2
609.824	6385.23
610.019	6407.75
610.215	6477.38
610.411	6858.31
610.606	7018.05
610.802	7249.47
610.998	7304.76
611.193	7892.53
611.389	7609.91
611.584	8023.6
611.78	7992.88
611.976	8351.28
612.171	8775.2
612.367	8717.86
612.562	8769.06
612.758	9127.46
612.953	9178.65
613.149	9684.5
613.344	9704.98
613.539	10262.03
613.735	10452.49
613.93	10810.89
614.126	11124.22
614.321	11574.78
614.517	11757.05
614.712	12039.67
614.907	12213.74
615.103	12551.66
615.298	12678.63
615.493	13299.17
615.688	13202.91
615.884	13966.81
616.079	14054.87
616.274	14740.94
616.47	14742.99
616.665	15289.79
616.86	15846.84
617.055	16113.08
617.25	16395.7
617.445	17026.47
617.641	17274.28
617.836	17563.04
618.031	18134.42
618.226	18697.61
618.421	18658.7
618.616	19692.93
618.811	19332.48
619.006	20505.97
619.201	20628.85
619.396	21175.66
619.591	21382.5
619.786	21906.78
619.981	22357.33
620.176	23258.44
620.371	23264.58
620.566	23958.85
620.761	24634.67
620.956	25320.74
621.151	24941.87
621.346	25928.99
621.541	26295.58
621.735	27350.28
621.93	27360.52
622.125	28169.47
622.32	27917.57
622.515	29000.94
622.709	29187.31
622.904	29924.58
623.099	30151.9
623.294	31216.85
623.488	31460.55
623.683	31956.16
623.878	32550.07
624.072	32853.17
624.267	33643.69
624.462	34036.9
624.656	34706.59
624.851	35173.52
625.046	35175.57
625.24	35982.47
625.435	36547.71
625.629	37203.06
625.824	37383.28
626.018	38089.83
626.213	37774.44
626.407	38990.94
626.602	38845.53
626.796	39634
626.991	40191.05
627.185	40543.3
627.38	40207.43
627.574	40713.28
627.768	40713.28
627.963	41024.57
628.157	41282.61
628.352	41837.61
628.546	40883.26
628.74	41622.58
628.935	41176.12
629.129	41434.16
629.323	41040.95
629.517	41253.94
629.712	41028.66
629.906	40543.3
630.1	40027.21
630.294	39695.44
630.489	38956.12
630.683	38886.49
630.877	37825.64
631.071	37588.08
631.265	37129.33
631.459	36492.41
631.653	35384.46
631.848	34940.05
632.042	33866.92
632.236	33526.96
632.43	32242.88
632.624	31786.18
632.818	30622.94
633.012	29748.45
633.206	28835.06
633.4	28323.07
633.594	26893.58
633.788	26314.01
633.982	25511.21
634.176	24384.82
634.369	23227.72
634.563	22719.82
634.757	21638.5
634.951	21136.74
635.145	20319.6
635.339	19725.69
635.533	18427.28
635.726	18052.5
635.92	17087.91
636.114	16506.29
636.308	15902.14
636.501	15306.18
636.695	14646.73
636.889	13903.32
637.083	13532.64
637.276	12705.26
637.47	12031.48
637.664	11777.53
637.857	11326.97
638.051	11085.31
638.244	10450.44
638.438	9993.75
638.632	9786.9
638.825	8967.71
639.019	8898.08
639.212	8189.49
639.406	8287.79
639.599	7898.67
639.793	7667.25
639.986	7097.92
640.18	7071.29
640.373	6657.61
640.567	6280.78
640.76	6358.6
640.954	5965.39
641.147	5701.2
641.34	5506.65
641.534	5305.95
641.727	5142.11
641.92	5047.9
642.114	4767.33
642.307	4515.43
642.5	4517.48
642.694	4243.05
642.887	4017.77
643.08	4032.11
643.273	3882.61
643.467	3536.5
643.66	3387
643.853	3374.71
644.046	3257.98
644.239	3137.15
644.432	2971.26
644.626	2741.89
644.819	2770.56
645.012	2793.09
645.205	2614.91
645.398	2551.43
645.591	2332.3
645.784	2295.43
645.977	2154.12
646.17	2170.51
646.363	2059.92
646.556	1883.79
646.749	1846.93
646.942	1828.49
647.135	1722
647.328	1607.31
647.521	1619.6
647.714	1492.63
647.907	1535.64
648.099	1418.9
648.292	1451.67
648.485	1357.46
648.678	1212.06
648.871	1238.68
649.064	1128.09
649.256	1072.79
649.449	1076.89
649.642	945.82
649.835	1052.31
650.027	917.15
650.22	949.92
650.413	870.05
650.605	908.96
650.798	820.89
650.991	730.78
651.183	872.09
651.376	833.18
651.568	738.98
651.761	671.39
651.954	829.09
652.146	730.78
652.339	736.93
652.531	712.35
652.724	640.67
652.916	519.84
653.109	499.36
653.301	638.62
653.494	618.15
653.686	487.08
653.879	566.95
654.071	515.75
654.263	499.36
654.456	411.3
654.648	554.66
654.84	466.6
655.033	403.11
655.225	503.46
655.417	345.77
655.61	571.04
655.802	444.07
655.994	515.75
656.186	257.7
656.379	423.59
656.571	358.05
656.763	360.1
656.955	382.63
657.148	380.58
657.34	439.97
657.532	345.77
657.724	241.32
657.916	267.94
658.108	444.07
658.3	288.42
658.492	337.57
658.684	251.56
658.876	403.11
659.068	269.99
659.26	192.17
659.452	167.59
659.644	237.22
659.836	362.15
660.028	276.13
660.22	163.5
660.412	210.6
660.604	192.17
660.796	321.19
660.988	302.76
661.18	200.36
661.372	337.57
661.563	210.6
661.755	179.88
661.947	165.54
662.139	155.3
662.331	104.11
662.522	171.69
662.714	132.78
662.906	186.02
663.097	251.56
663.289	147.11
663.481	161.45
663.673	179.88
663.864	140.97
664.056	274.09
664.247	126.63
664.439	257.7
664.631	169.64
664.822	202.41
665.014	132.78
665.205	95.91
665.397	200.36
665.588	165.54
665.78	192.17
665.971	192.17
666.163	145.06
666.354	286.37
666.546	89.77
666.737	145.06
666.929	149.16
667.12	136.87
667.311	95.91
667.503	153.26
667.694	186.02
667.885	89.77
668.077	179.88
668.268	69.29
668.459	167.59
668.651	157.35
668.842	163.5
669.033	122.54
669.224	59.05
669.416	335.53
669.607	89.77
669.798	143.02
669.989	214.7
670.18	130.73
670.371	149.16
670.563	-2.39
670.754	196.26
670.945	175.78
671.136	171.69
671.327	59.05
671.518	173.74
671.709	251.56
671.9	147.11
672.091	231.08
672.282	100.01
672.473	153.26
672.664	95.91
672.855	89.77
673.046	134.82
673.237	161.45
673.428	126.63
673.619	177.83
673.809	130.73
674	243.37
674.191	198.31
674.382	138.92
674.573	138.92
674.764	181.93
674.954	204.46
675.145	83.63
675.336	63.15
675.527	97.96
675.717	93.87
675.908	71.34
676.099	71.34
676.289	147.11
676.48	122.54
676.671	222.89
676.861	206.5
677.052	200.36
677.243	77.48
677.433	46.76
677.624	198.31
677.814	190.12
678.005	50.86
678.195	214.7
678.386	75.43
678.576	171.69
678.767	73.39
678.957	167.59
679.148	241.32
679.338	210.6
679.529	163.5
679.719	140.97
679.909	247.46
680.1	241.32
680.29	151.21
680.481	100.01
680.671	245.41
680.861	173.74
681.052	220.84
681.242	112.3
681.432	274.09
681.622	241.32
681.813	77.48
682.003	245.41
682.193	116.39
682.383	179.88
682.573	167.59
682.764	183.98
682.954	231.08
683.144	202.41
683.334	126.63
683.524	89.77
683.714	169.64
683.904	206.5
684.094	192.17
684.284	167.59
684.474	333.48
684.664	263.85
684.854	204.46
685.044	110.25
685.234	188.07
685.424	259.75
685.614	89.77
685.804	263.85
685.994	237.22
686.184	212.65
686.374	284.33
686.564	243.37
686.753	226.98
686.943	122.54
687.133	233.13
687.323	192.17
687.513	298.66
687.702	212.65
687.892	151.21
688.082	229.03
688.272	229.03
688.461	263.85
688.651	372.39
688.841	231.08
689.03	130.73
689.22	134.82
689.41	161.45
689.599	304.81
689.789	106.15
689.979	321.19
690.168	192.17
690.358	177.83
690.547	198.31
690.737	233.13
690.926	272.04
691.116	257.7
691.305	196.26
691.495	220.84
691.684	167.59
691.874	171.69
692.063	153.26
692.252	212.65
692.442	233.13
692.631	143.02
692.82	169.64
693.01	186.02
693.199	224.94
693.388	220.84
693.578	202.41
693.767	257.7
693.956	194.22
694.146	149.16
694.335	208.55
694.524	161.45
694.713	214.7
694.902	231.08
695.092	210.6
695.281	206.5
695.47	157.35
695.659	202.41
695.848	251.56
696.037	149.16
696.226	210.6
696.415	216.74
696.604	272.04
696.793	235.18
696.982	161.45
697.171	343.72
697.36	198.31
697.549	100.01
697.738	65.19
697.927	218.79
698.116	177.83
698.305	278.18
698.494	233.13
698.683	169.64
698.872	384.68
699.061	186.02
699.25	171.69
699.438	204.46
699.627	161.45
699.816	233.13
700.005	48.81
700.193	145.06
700.382	261.8
700.571	218.79
700.76	183.98
700.948	206.5
701.137	226.98
701.326	251.56
701.514	124.58
701.703	188.07
701.892	175.78
702.08	378.53
702.269	183.98
702.457	149.16
702.646	183.98
702.834	143.02
703.023	308.9
703.212	231.08
703.4	179.88
703.589	196.26
703.777	77.48
703.965	153.26
704.154	171.69
704.342	44.71
704.531	171.69
704.719	231.08
704.907	212.65
705.096	138.92
705.284	155.3
705.472	161.45
705.661	257.7
705.849	231.08
706.037	276.13
706.226	267.94
706.414	216.74
706.602	95.91
706.79	300.71
706.979	108.2
707.167	233.13
707.355	97.96
707.543	263.85
707.731	200.36
707.919	202.41
708.107	214.7
708.296	106.15
708.484	116.39
708.672	192.17
708.86	181.93
709.048	149.16
709.236	100.01
709.424	263.85
709.612	163.5
709.8	79.53
709.988	175.78
710.176	192.17
710.364	280.23
710.551	169.64
710.739	145.06
710.927	186.02
711.115	241.32
711.303	181.93
711.491	253.61
711.679	120.49
711.866	165.54
712.054	186.02
712.242	218.79
712.43	179.88
712.617	202.41
712.805	274.09
712.993	171.69
713.181	81.58
713.368	296.61
713.556	155.3
713.744	77.48
713.931	321.19
714.119	284.33
714.306	200.36
714.494	155.3
714.682	218.79
714.869	71.34
715.057	147.11
715.244	54.95
715.432	200.36
715.619	153.26
715.807	231.08
715.994	198.31
716.182	159.4
716.369	210.6
716.556	208.55
716.744	159.4
716.931	134.82
717.119	194.22
717.306	222.89
717.493	253.61
717.681	175.78
717.868	165.54
718.055	274.09
718.242	183.98
718.43	149.16
718.617	192.17
718.804	239.27
718.991	235.18
719.179	251.56
719.366	198.31
719.553	265.89
719.74	196.26
719.927	132.78
720.114	231.08
720.301	153.26
720.488	194.22
720.676	140.97
720.863	263.85
721.05	356.01
721.237	169.64
721.424	218.79
721.611	188.07
721.798	122.54
721.985	145.06
722.172	222.89
722.358	263.85
722.545	323.24
722.732	188.07
722.919	278.18
723.106	210.6
723.293	257.7
723.48	210.6
723.667	200.36
723.853	317.09
724.04	321.19
724.227	200.36
724.414	165.54
724.6	286.37
724.787	399.01
724.974	341.67
725.161	171.69
725.347	208.55
725.534	97.96
725.72	265.89
725.907	304.81
726.094	310.95
726.28	149.16
726.467	222.89
726.653	155.3
726.84	239.27
727.027	282.28
727.213	247.46
727.4	251.56
727.586	239.27
727.773	104.11
727.959	165.54
728.145	161.45
728.332	192.17
728.518	145.06
728.705	239.27
728.891	226.98
729.077	216.74
729.264	136.87
729.45	224.94
729.636	247.46
729.823	235.18
730.009	243.37
730.195	276.13
730.382	257.7
730.568	124.58
730.754	149.16
730.94	231.08
731.126	206.5
731.313	286.37
731.499	261.8
731.685	251.56
731.871	278.18
732.057	243.37
732.243	241.32
732.429	165.54
732.615	306.85
732.801	276.13
732.987	233.13
733.173	249.51
733.359	186.02
733.545	237.22
733.731	241.32
733.917	319.14
734.103	351.91
734.289	224.94
734.475	165.54
734.661	378.53
734.847	265.89
735.033	243.37
735.219	237.22
735.404	247.46
735.59	183.98
735.776	249.51
735.962	261.8
736.148	351.91
736.333	321.19
736.519	143.02
736.705	310.95
736.89	190.12
737.076	204.46
737.262	192.17
737.447	130.73
737.633	224.94
737.819	284.33
738.004	241.32
738.19	239.27
738.375	300.71
738.561	372.39
738.747	247.46
738.932	134.82
739.118	388.77
739.303	315.05
739.489	300.71
739.674	200.36
739.859	212.65
740.045	345.77
740.23	173.74
740.416	112.3
740.601	282.28
740.786	245.41
740.972	155.3
741.157	165.54
741.342	212.65
741.528	147.11
741.713	407.2
741.898	177.83
742.084	253.61
742.269	196.26
742.454	278.18
742.639	296.61
742.824	343.72
743.01	220.84
743.195	315.05
743.38	259.75
743.565	136.87
743.75	222.89
743.935	327.33
744.12	347.81
744.305	140.97
744.49	212.65
744.675	321.19
744.86	220.84
745.045	198.31
745.23	161.45
745.415	192.17
745.6	345.77
745.785	175.78
745.97	290.47
746.155	269.99
746.34	319.14
746.525	235.18
746.71	298.66
746.895	210.6
747.079	165.54
747.264	192.17
747.449	247.46
747.634	308.9
747.819	216.74
748.003	202.41
748.188	157.35
748.373	290.47
748.557	237.22
748.742	171.69
748.927	177.83
749.111	241.32
749.296	177.83
749.481	368.29
749.665	233.13
749.85	81.58
750.034	177.83
750.219	202.41
750.404	116.39
750.588	206.5
750.773	95.91
750.957	241.32
751.141	145.06
751.326	198.31
751.51	22.19
751.695	167.59
751.879	173.74
752.064	202.41
752.248	206.5
752.432	304.81
752.617	300.71
752.801	204.46
752.985	143.02
753.17	278.18
753.354	202.41
753.538	173.74
753.722	155.3
753.907	132.78
754.091	128.68
754.275	153.26
754.459	85.67
754.643	20.14
754.828	192.17
755.012	216.74
755.196	57
755.38	87.72
755.564	186.02
755.748	196.26
755.932	224.94
756.116	206.5
756.3	263.85
756.484	108.2
756.668	132.78
756.852	34.47
757.036	126.63
757.22	106.15
757.404	124.58
757.588	126.63
757.772	210.6
757.956	145.06
758.14	245.41
758.323	59.05
758.507	222.89
758.691	16.04
758.875	247.46
759.059	171.69
759.242	83.63
759.426	61.1
759.61	208.55
759.794	87.72
759.977	259.75
760.161	329.38
760.345	251.56
760.528	186.02
760.712	95.91
760.895	149.16
761.079	110.25
761.263	-14.68
761.446	42.67
761.63	114.34
761.813	186.02
761.997	36.52
762.18	104.11
762.364	140.97
762.547	-45.4
762.731	97.96
762.914	57
763.098	89.77
763.281	77.48
763.464	77.48
763.648	95.91
763.831	54.95
764.015	65.19
764.198	143.02
764.381	24.23
764.564	100.01
764.748	134.82
764.931	183.98
765.114	-8.53
765.297	159.4
765.481	34.47
765.664	85.67
765.847	67.24
766.03	222.89
766.213	79.53
766.397	73.39
766.58	61.1
766.763	124.58
766.946	46.76
767.129	69.29
767.312	-8.53
767.495	57
767.678	108.2
767.861	149.16
768.044	38.57
768.227	-8.53
768.41	104.11
768.593	130.73
768.776	87.72
768.959	18.09
769.142	57
769.324	50.86
769.507	157.35
769.69	65.19
769.873	83.63
770.056	214.7
770.239	128.68
770.421	208.55
770.604	46.76
770.787	75.43
770.97	120.49
771.152	32.43
771.335	138.92
771.518	42.67
771.7	167.59
771.883	231.08
772.066	22.19
772.248	87.72
772.431	104.11
772.613	147.11
772.796	40.62
772.978	65.19
773.161	265.89
773.343	30.38
773.526	-2.39
773.708	5.8
773.891	-20.82
774.073	22.19
774.256	77.48
774.438	204.46
774.621	-14.68
774.803	130.73
774.985	44.71
775.168	97.96
775.35	75.43
775.532	110.25
775.715	18.09
775.897	143.02
776.079	1.71
776.261	102.06
776.444	57
776.626	132.78
776.808	44.71
776.99	-51.54
777.173	110.25
777.355	44.71
777.537	87.72
777.719	73.39
777.901	-59.73
778.083	26.28
778.265	-33.11
778.447	95.91
778.629	63.15
778.811	91.82
778.993	136.87
779.175	155.3
779.357	5.8
779.539	30.38
779.721	-29.01
779.903	100.01
780.085	28.33
780.267	71.34
780.449	126.63
780.631	67.24
780.812	87.72
780.994	71.34
781.176	83.63
781.358	24.23
781.54	-0.34
781.721	54.95
781.903	40.62
782.085	24.23
782.267	100.01
782.448	13.99
782.63	30.38
782.812	7.85
782.993	204.46
783.175	67.24
783.357	-6.49
783.538	3.75
783.72	18.09
783.901	-24.92
784.083	100.01
784.264	20.14
784.446	-4.44
784.627	-29.01
784.809	57
784.99	-14.68
785.172	87.72
785.353	-2.39
785.535	83.63
785.716	-6.49
785.897	-18.77
786.079	1.71
786.26	24.23
786.441	57
786.623	-74.07
786.804	71.34
786.985	-35.16
787.167	83.63
787.348	-51.54
787.529	40.62
787.71	130.73
787.891	73.39
788.073	-76.12
788.254	-67.92
788.435	89.77
788.616	24.23
788.797	-78.16
788.978	26.28
789.159	54.95
789.34	147.11
789.522	38.57
789.703	-63.83
789.884	28.33
790.065	59.05
790.246	173.74
790.427	-16.73
790.607	145.06
790.788	26.28
790.969	9.9
791.15	13.99
791.331	-6.49
791.512	-33.11
791.693	-69.97
791.874	-24.92
792.054	200.36
792.235	138.92
792.416	-39.25
792.597	-14.68
792.778	102.06
792.958	-20.82
793.139	57
793.32	28.33
793.5	-24.92
793.681	95.91
793.862	79.53
794.042	-55.64
794.223	-49.49
794.404	20.14
794.584	-98.64
794.765	-14.68
794.945	38.57
795.126	104.11
795.306	116.39
795.487	-43.35
795.667	-108.88
795.848	11.95
796.028	9.9
796.209	30.38
796.389	48.81
796.57	-18.77
796.75	-37.2
796.93	67.24
797.111	-115.03
797.291	40.62
797.471	67.24
797.652	-41.3
797.832	-135.51
798.012	-49.49
798.192	-33.11
798.373	-41.3
798.553	-37.2
798.733	124.58
798.913	26.28
799.093	-12.63
799.274	95.91
799.454	67.24
799.634	122.54
799.814	75.43
799.994	63.15
800.174	52.91
800.354	46.76
800.534	-82.26
800.714	112.3
800.894	-96.6
801.074	-8.53
801.254	-33.11
801.434	61.1
801.614	-0.34
801.794	-33.11
801.974	1586.83
802.154	-72.02
802.334	128.68
802.514	32.43
802.693	30.38
802.873	30.38
803.053	149.16
803.233	63.15
803.413	16.04
803.592	-100.69
803.772	3.75
803.952	30.38
804.131	-125.27
804.311	126.63
804.491	116.39
804.67	-35.16
804.85	-72.02
805.03	24.23
805.209	-6.49
805.389	-14.68
805.568	11.95
805.748	-2.39
805.928	-31.06
806.107	38.57
806.287	46.76
806.466	1.71
806.646	-18.77
806.825	-31.06
807.004	-86.36
807.184	87.72
807.363	9.9
807.543	26.28
807.722	-86.36
807.901	52.91
808.081	112.3
808.26	-143.7
808.439	-43.35
808.619	-10.58
808.798	-31.06
808.977	-22.87
809.156	79.53
809.336	-41.3
809.515	77.48
809.694	-72.02
809.873	-82.26
810.052	61.1
810.231	34.47
810.411	1.71
810.59	54.95
810.769	-22.87
810.948	42.67
811.127	9.9
811.306	18.09
811.485	-18.77
811.664	77.48
811.843	24.23
812.022	71.34
812.201	9.9
812.38	20.14
812.559	-53.59
812.737	57
812.916	-123.22
813.095	-86.36
813.274	40.62
813.453	-53.59
813.632	59.05
813.811	59.05
813.989	-147.8
814.168	106.15
814.347	-29.01
814.526	-0.34
814.704	81.58
814.883	77.48
815.062	-82.26
815.24	44.71
815.419	-53.59
815.598	50.86
815.776	-96.6
815.955	-59.73
816.133	-115.03
816.312	-49.49
816.49	-22.87
816.669	44.71
816.847	11.95
817.026	110.25
817.204	-31.06
817.383	-20.82
817.561	-74.07
817.74	18.09
817.918	-0.34
818.097	-18.77
818.275	-39.25
818.453	83.63
818.632	59.05
818.81	-4.44
818.988	-20.82
819.167	-74.07
819.345	-22.87
819.523	-117.08
819.701	63.15
819.879	-22.87
820.058	-37.2
820.236	5.8
820.414	81.58
820.592	-10.58
820.77	-26.96
820.948	-72.02
821.127	-35.16
821.305	61.1
821.483	7.85
821.661	48.81
821.839	95.91
822.017	-88.4
822.195	-10.58
822.373	100.01
822.551	93.87
822.729	46.76
822.907	-35.16
823.085	-0.34
823.262	3.75
823.44	-90.45
823.618	-2.39
823.796	59.05
823.974	-22.87
824.152	-108.88
824.329	-37.2
824.507	11.95
824.685	91.82
824.863	-69.97
825.04	97.96
825.218	-2.39
825.396	-2.39
825.574	22.19
825.751	30.38
825.929	75.43
826.107	-26.96
826.284	1.71
826.462	22.19
826.639	-16.73
826.817	-47.44
826.994	-43.35
827.172	-96.6
827.349	102.06
827.527	28.33
827.704	26.28
827.882	95.91
828.059	-29.01
828.237	46.76
828.414	57
828.591	-112.98
828.769	30.38
828.946	-57.68
829.124	36.52
829.301	112.3
829.478	-39.25
829.655	48.81
829.833	30.38
830.01	-129.36
830.187	34.47
830.364	-43.35
830.542	1.71
830.719	87.72
830.896	42.67
831.073	-69.97
831.25	-20.82
831.427	22.19
831.604	-92.5
831.782	-14.68
831.959	54.95
832.136	-53.59
832.313	20.14
832.49	30.38
832.667	-12.63
832.844	-16.73
833.021	143.02
833.198	38.57
833.374	-35.16
833.551	81.58
833.728	11.95
833.905	75.43
834.082	-84.31
834.259	28.33
834.436	116.39
834.612	-6.49
834.789	40.62
834.966	16.04
835.143	-29.01
835.319	-53.59
835.496	57
835.673	46.76
835.85	7.85
836.026	18.09
836.203	50.86
836.38	-45.4
836.556	-12.63
836.733	-20.82
836.909	128.68
837.086	5.8
837.262	-94.55
837.439	-37.2
837.616	-96.6
837.792	-14.68
837.968	1.71
838.145	-57.68
838.321	-0.34
838.498	44.71
838.674	63.15
838.851	-35.16
839.027	-82.26
839.203	28.33
839.38	73.39
839.556	-59.73
839.732	-12.63
839.909	-12.63
840.085	65.19
840.261	-18.77
840.437	54.95
840.614	-31.06
840.79	136.87
840.966	112.3
841.142	59.05
841.318	-20.82
841.494	61.1
841.671	22.19
841.847	-80.21
842.023	-72.02
842.199	32.43
842.375	124.58
842.551	-72.02
842.727	-63.83
842.903	114.34
843.079	-117.08
843.255	75.43
843.431	-78.16
843.607	112.3
843.783	-121.17
843.959	36.52
844.134	-43.35
844.31	100.01
844.486	-20.82
844.662	-117.08
844.838	16.04
845.013	-20.82
845.189	54.95
845.365	130.73
845.541	3.75
845.716	30.38
845.892	9.9
846.068	-72.02
846.244	-22.87
846.419	22.19
846.595	-112.98
846.77	-49.49
846.946	81.58
847.122	-55.64
847.297	-98.64
847.473	100.01
847.648	-88.4
847.824	-22.87
847.999	-57.68
848.175	-65.88
848.35	-16.73
848.526	108.2
848.701	30.38
848.876	48.81
849.052	48.81
849.227	-104.79
849.403	-39.25
849.578	16.04
849.753	71.34
849.929	81.58
850.104	-98.64
850.279	11.95
850.454	-24.92
850.63	81.58
850.805	-55.64
850.98	67.24
851.155	-41.3
851.33	42.67
851.505	-145.75
851.681	83.63
851.856	-121.17
852.031	-12.63
852.206	-29.01
852.381	-127.32
852.556	11.95
852.731	-14.68
852.906	32.43
853.081	44.71
853.256	46.76
853.431	-22.87
853.606	-8.53
853.781	-96.6
853.956	-94.55
854.131	79.53
854.305	-96.6
854.48	-18.77
854.655	-35.16
854.83	57
855.005	-24.92
855.18	32.43
855.354	-26.96
855.529	-53.59
855.704	13.99
855.879	73.39
856.053	52.91
856.228	69.29
856.403	-96.6
856.577	93.87
856.752	-35.16
856.926	36.52
857.101	-31.06
857.276	-92.5
857.45	-49.49
857.625	102.06
857.799	-49.49
857.974	38.57
858.148	-127.32
858.323	59.05
858.497	13.99
858.672	-76.12
858.846	-100.69
859.02	67.24
859.195	-57.68
859.369	-53.59
859.543	-51.54
859.718	-92.5
859.892	46.76
860.066	-12.63
860.241	-61.78
860.415	-59.73
860.589	-0.34
860.763	-22.87
860.938	63.15
861.112	-14.68
861.286	-18.77
861.46	42.67
861.634	-51.54
861.808	100.01
861.982	-51.54
862.157	-57.68
862.331	-78.16
862.505	-104.79
862.679	-61.78
862.853	-18.77
863.027	-4.44
863.201	124.58
863.375	-45.4
863.549	22.19
863.722	85.67
863.896	87.72
864.07	-2.39
864.244	-29.01
864.418	42.67
864.592	34.47
864.766	44.71
864.939	1.71
865.113	-61.78
865.287	67.24
865.461	-49.49
865.634	63.15
865.808	-45.4
865.982	-115.03
866.156	-61.78
866.329	-37.2
866.503	-49.49
866.676	87.72
866.85	3.75
867.024	-84.31
867.197	7.85
867.371	13.99
867.544	-6.49
867.718	-112.98
867.891	38.57
868.065	-51.54
868.238	-26.96
868.412	54.95
868.585	-106.84
868.759	-45.4
868.932	-51.54
869.105	-59.73
869.279	-10.58
869.452	-63.83
869.625	-33.11
869.799	-2.39
869.972	-108.88
870.145	-16.73
870.319	30.38
870.492	-137.56
870.665	-37.2
870.838	-72.02
871.011	-96.6
871.185	-53.59
871.358	-26.96
871.531	26.28
871.704	-147.8
871.877	-63.83
872.05	-78.16
872.223	-84.31
872.396	87.72
872.569	3.75
872.742	-172.37
872.915	-2.39
873.088	-6.49
873.261	-55.64
873.434	79.53
873.607	83.63
873.78	106.15
873.953	-59.73
874.126	44.71
874.299	28.33
874.471	5.8
874.644	-90.45
874.817	13.99
874.99	71.34
875.163	-47.44
875.335	-0.34
875.508	5.8
875.681	-0.34
875.853	-100.69
876.026	-88.4
876.199	9.9
876.371	91.82
876.544	-4.44
876.717	-8.53
876.889	-26.96
877.062	110.25
877.234	-137.56
877.407	-88.4
877.579	-43.35
877.752	34.47
877.924	22.19
878.097	26.28
878.269	-16.73
878.442	81.58
878.614	-2.39
878.786	-45.4
878.959	-67.92
879.131	52.91
879.303	-63.83
879.476	-2.39
879.648	91.82
879.82	-8.53
879.993	-59.73
880.165	-57.68
880.337	-53.59
880.509	-26.96
880.681	-86.36
880.854	-67.92
881.026	87.72
881.198	157.35
881.37	-96.6
881.542	-37.2
881.714	-18.77
881.886	-29.01
882.058	3.75
882.23	-61.78
882.402	-51.54
882.574	-22.87
882.746	38.57
882.918	91.82
883.09	3.75
883.262	-10.58
883.434	16.04
883.606	-164.18
883.778	-53.59
883.95	52.91
884.122	-6.49
884.293	118.44
884.465	-12.63
884.637	59.05
884.809	-67.92
884.98	-24.92
885.152	18.09
885.324	61.1
885.496	3.75
885.667	48.81
885.839	9.9
886.011	83.63
886.182	87.72
886.354	77.48
886.525	-12.63
886.697	-33.11
886.869	-141.65
887.04	-55.64
887.212	46.76
887.383	104.11
887.555	11.95
887.726	-98.64
887.897	-6.49
888.069	52.91
888.24	3.75
888.412	-22.87
888.583	-63.83
888.754	26.28
888.926	-92.5
889.097	16.04
889.268	-61.78
889.44	-20.82
889.611	-112.98
889.782	-45.4
889.953	-24.92
890.125	97.96
890.296	-37.2
890.467	-6.49
890.638	-43.35
890.809	-43.35
890.98	-39.25
891.151	34.47
891.323	79.53
891.494	-41.3
891.665	-72.02
891.836	-51.54
892.007	-12.63
892.178	18.09
892.349	-37.2
892.52	-18.77
892.691	-8.53
892.862	-65.88
893.032	-158.03
893.203	-14.68
893.374	22.19
893.545	20.14
893.716	-14.68
893.887	102.06
894.057	-90.45
894.228	-35.16
894.399	-86.36
894.57	34.47
894.74	-61.78
894.911	44.71
895.082	-84.31
895.253	-125.27
895.423	22.19
895.594	79.53
895.764	116.39
895.935	-63.83
896.106	-22.87
896.276	-67.92
896.447	-4.44
896.617	-29.01
896.788	-96.6
896.958	-43.35
897.129	-24.92
897.299	-67.92
897.47	48.81
897.64	95.91
897.81	20.14
897.981	20.14
898.151	-90.45
898.322	28.33
898.492	-14.68
898.662	-110.93
898.832	-115.03
899.003	-16.73
899.173	73.39
899.343	-53.59
899.513	-76.12
