Data from USB4F104151__294__11-21-15-727.txt Node

Date: Wed Feb 26 11:21:15 EST 2025
User: louis
Spectrometer: USB4F10415
Trigger mode: 4
Integration Time (sec): 1.000000E-1
Scans to average: 1
Electric dark correction enabled: true
Nonlinearity correction enabled: false
Boxcar width: 0
XAxis mode: Wavelengths
Number of Pixels in Spectrum: 3648
>>>>>Begin Spectral Data<<<<<
178.204	-418.13
178.424	-418.13
178.644	-418.13
178.864	-442.7
179.084	-362.83
179.304	-31.06
179.524	-14.68
179.744	28.33
179.964	75.43
180.184	73.39
180.404	-26.96
180.624	-108.88
180.844	36.52
181.064	-41.3
181.283	18.09
181.503	-10.58
181.723	1.71
181.943	-98.64
182.163	110.25
182.383	-55.64
182.602	108.2
182.822	130.73
183.042	81.58
183.262	-24.92
183.482	-6.49
183.701	1.71
183.921	73.39
184.141	46.76
184.361	48.81
184.58	114.34
184.8	91.82
185.02	-76.12
185.239	155.3
185.459	24.23
185.679	85.67
185.898	-155.99
186.118	-37.2
186.338	30.38
186.557	173.74
186.777	-35.16
186.997	13.99
187.216	-16.73
187.436	196.26
187.655	89.77
187.875	26.28
188.095	-20.82
188.314	161.45
188.534	192.17
188.753	-45.4
188.973	114.34
189.192	116.39
189.412	-0.34
189.631	-2.39
189.851	44.71
190.07	46.76
190.29	-4.44
190.509	-43.35
190.729	-31.06
190.948	128.68
191.168	263.85
191.387	85.67
191.607	5.8
191.826	42.67
192.045	20.14
192.265	-43.35
192.484	9.9
192.704	20.14
192.923	-110.93
193.142	143.02
193.362	130.73
193.581	188.07
193.8	79.53
194.02	59.05
194.239	1.71
194.458	93.87
194.678	22.19
194.897	28.33
195.116	11.95
195.335	63.15
195.555	91.82
195.774	-20.82
195.993	44.71
196.212	34.47
196.432	-35.16
196.651	-20.82
196.87	1.71
197.089	167.59
197.308	97.96
197.528	57
197.747	-37.2
197.966	9.9
198.185	104.11
198.404	-0.34
198.623	69.29
198.842	50.86
199.062	104.11
199.281	100.01
199.5	28.33
199.719	122.54
199.938	63.15
200.157	54.95
200.376	143.02
200.595	28.33
200.814	93.87
201.033	-110.93
201.252	132.78
201.471	26.28
201.69	85.67
201.909	-35.16
202.128	114.34
202.347	177.83
202.566	-33.11
202.785	-39.25
203.004	-39.25
203.223	269.99
203.442	-33.11
203.661	-35.16
203.879	102.06
204.098	218.79
204.317	-57.68
204.536	147.11
204.755	63.15
204.974	110.25
205.193	40.62
205.411	79.53
205.63	79.53
205.849	42.67
206.068	26.28
206.287	-8.53
206.505	134.82
206.724	40.62
206.943	-72.02
207.162	-53.59
207.381	69.29
207.599	-20.82
207.818	59.05
208.037	-14.68
208.255	30.38
208.474	42.67
208.693	48.81
208.911	-57.68
209.13	126.63
209.349	18.09
209.567	65.19
209.786	75.43
210.005	87.72
210.223	36.52
210.442	-106.84
210.661	-14.68
210.879	44.71
211.098	28.33
211.316	42.67
211.535	95.91
211.753	44.71
211.972	143.02
212.191	22.19
212.409	3.75
212.628	87.72
212.846	-31.06
213.065	48.81
213.283	48.81
213.502	22.19
213.72	83.63
213.938	59.05
214.157	-4.44
214.375	106.15
214.594	-10.58
214.812	28.33
215.031	-33.11
215.249	-24.92
215.467	59.05
215.686	-47.44
215.904	157.35
216.122	-6.49
216.341	186.02
216.559	-35.16
216.778	97.96
216.996	83.63
217.214	-6.49
217.432	-18.77
217.651	-141.65
217.869	54.95
218.087	67.24
218.306	-2.39
218.524	73.39
218.742	7.85
218.96	95.91
219.179	26.28
219.397	-24.92
219.615	243.37
219.833	46.76
220.051	-16.73
220.27	61.1
220.488	110.25
220.706	46.76
220.924	20.14
221.142	-12.63
221.36	73.39
221.578	32.43
221.796	48.81
222.015	1.71
222.233	83.63
222.451	46.76
222.669	-63.83
222.887	83.63
223.105	1.71
223.323	-49.49
223.541	18.09
223.759	83.63
223.977	-24.92
224.195	114.34
224.413	34.47
224.631	32.43
224.849	73.39
225.067	202.41
225.285	-16.73
225.503	-0.34
225.721	3.75
225.939	-2.39
226.157	79.53
226.375	210.6
226.592	-45.4
226.81	67.24
227.028	140.97
227.246	77.48
227.464	52.91
227.682	61.1
227.9	61.1
228.117	52.91
228.335	79.53
228.553	50.86
228.771	34.47
228.989	-6.49
229.206	89.77
229.424	34.47
229.642	-29.01
229.86	-6.49
230.077	97.96
230.295	61.1
230.513	61.1
230.731	34.47
230.948	124.58
231.166	130.73
231.384	89.77
231.601	5.8
231.819	171.69
232.037	-12.63
232.254	-72.02
232.472	65.19
232.689	5.8
232.907	-39.25
233.125	11.95
233.342	-6.49
233.56	-67.92
233.777	-10.58
233.995	16.04
234.213	118.44
234.43	50.86
234.648	18.09
234.865	-8.53
235.083	54.95
235.3	79.53
235.518	114.34
235.735	102.06
235.953	122.54
236.17	71.34
236.388	22.19
236.605	77.48
236.822	104.11
237.04	173.74
237.257	-0.34
237.475	3.75
237.692	71.34
237.909	75.43
238.127	18.09
238.344	73.39
238.562	22.19
238.779	-86.36
238.996	7.85
239.214	5.8
239.431	102.06
239.648	36.52
239.865	171.69
240.083	46.76
240.3	36.52
240.517	44.71
240.735	34.47
240.952	128.68
241.169	75.43
241.386	83.63
241.603	48.81
241.821	-53.59
242.038	153.26
242.255	44.71
242.472	9.9
242.689	50.86
242.907	13.99
243.124	67.24
243.341	34.47
243.558	24.23
243.775	-4.44
243.992	-117.08
244.209	104.11
244.426	157.35
244.643	83.63
244.86	-4.44
245.078	48.81
245.295	57
245.512	-18.77
245.729	-20.82
245.946	173.74
246.163	3.75
246.38	-0.34
246.597	87.72
246.814	26.28
247.031	97.96
247.248	-26.96
247.464	104.11
247.681	42.67
247.898	52.91
248.115	83.63
248.332	-49.49
248.549	106.15
248.766	-4.44
248.983	81.58
249.2	104.11
249.417	118.44
249.633	-2.39
249.85	71.34
250.067	9.9
250.284	65.19
250.501	-12.63
250.717	63.15
250.934	-72.02
251.151	34.47
251.368	67.24
251.585	108.2
251.801	89.77
252.018	-37.2
252.235	85.67
252.451	-88.4
252.668	26.28
252.885	104.11
253.102	18.09
253.318	30.38
253.535	16.04
253.752	-37.2
253.968	-12.63
254.185	-94.55
254.401	-18.77
254.618	134.82
254.835	24.23
255.051	95.91
255.268	-2.39
255.484	1.71
255.701	77.48
255.917	63.15
256.134	-18.77
256.351	18.09
256.567	-31.06
256.784	48.81
257	-33.11
257.217	120.49
257.433	93.87
257.65	67.24
257.866	114.34
258.082	-53.59
258.299	-39.25
258.515	30.38
258.732	-41.3
258.948	-0.34
259.165	85.67
259.381	-35.16
259.597	75.43
259.814	9.9
260.03	-43.35
260.246	3.75
260.463	59.05
260.679	116.39
260.895	73.39
261.112	48.81
261.328	69.29
261.544	-29.01
261.761	151.21
261.977	-29.01
262.193	-6.49
262.409	52.91
262.626	-2.39
262.842	-26.96
263.058	22.19
263.274	93.87
263.49	5.8
263.707	30.38
263.923	57
264.139	-65.88
264.355	65.19
264.571	104.11
264.787	87.72
265.004	110.25
265.22	40.62
265.436	-153.94
265.652	-6.49
265.868	18.09
266.084	-33.11
266.3	59.05
266.516	-63.83
266.732	9.9
266.948	69.29
267.164	22.19
267.38	-4.44
267.596	44.71
267.812	122.54
268.028	18.09
268.244	-2.39
268.46	67.24
268.676	28.33
268.892	40.62
269.108	-0.34
269.324	-14.68
269.54	-82.26
269.756	87.72
269.972	-10.58
270.188	26.28
270.403	-67.92
270.619	18.09
270.835	30.38
271.051	69.29
271.267	11.95
271.483	-98.64
271.698	118.44
271.914	59.05
272.13	63.15
272.346	11.95
272.562	40.62
272.777	124.58
272.993	28.33
273.209	-31.06
273.425	85.67
273.64	1.71
273.856	124.58
274.072	-96.6
274.287	24.23
274.503	57
274.719	77.48
274.934	-6.49
275.15	-22.87
275.366	28.33
275.581	-112.98
275.797	-53.59
276.012	102.06
276.228	40.62
276.444	69.29
276.659	106.15
276.875	-6.49
277.09	61.1
277.306	-41.3
277.521	-0.34
277.737	71.34
277.952	100.01
278.168	-22.87
278.383	46.76
278.599	59.05
278.814	102.06
279.03	-26.96
279.245	134.82
279.461	69.29
279.676	97.96
279.892	-61.78
280.107	-86.36
280.322	-108.88
280.538	7.85
280.753	-67.92
280.969	-69.97
281.184	-33.11
281.399	124.58
281.615	91.82
281.83	7.85
282.045	-61.78
282.26	5.8
282.476	-12.63
282.691	118.44
282.906	16.04
283.122	28.33
283.337	-76.12
283.552	38.57
283.767	-8.53
283.983	108.2
284.198	-31.06
284.413	61.1
284.628	-63.83
284.843	-6.49
285.058	79.53
285.274	95.91
285.489	-29.01
285.704	106.15
285.919	-69.97
286.134	48.81
286.349	1.71
286.564	36.52
286.779	46.76
286.995	-8.53
287.21	-182.61
287.425	18.09
287.64	-22.87
287.855	52.91
288.07	-16.73
288.285	42.67
288.5	52.91
288.715	38.57
288.93	-29.01
289.145	22.19
289.36	32.43
289.575	-16.73
289.79	116.39
290.004	-14.68
290.219	87.72
290.434	-18.77
290.649	-47.44
290.864	-35.16
291.079	-14.68
291.294	114.34
291.509	26.28
291.724	22.19
291.938	71.34
292.153	-26.96
292.368	11.95
292.583	59.05
292.798	81.58
293.012	50.86
293.227	124.58
293.442	-51.54
293.657	-8.53
293.871	89.77
294.086	40.62
294.301	163.5
294.516	61.1
294.73	65.19
294.945	-55.64
295.16	18.09
295.374	104.11
295.589	130.73
295.804	63.15
296.018	52.91
296.233	140.97
296.447	67.24
296.662	28.33
296.877	145.06
297.091	38.57
297.306	-4.44
297.52	22.19
297.735	20.14
297.949	-8.53
298.164	93.87
298.378	-53.59
298.593	-6.49
298.807	-31.06
299.022	104.11
299.236	202.41
299.451	-12.63
299.665	73.39
299.88	5.8
300.094	87.72
300.309	3.75
300.523	9.9
300.737	1.71
300.952	50.86
301.166	11.95
301.381	-10.58
301.595	-102.74
301.809	1.71
302.024	71.34
302.238	-0.34
302.452	40.62
302.667	71.34
302.881	257.7
303.095	108.2
303.309	-18.77
303.524	50.86
303.738	-31.06
303.952	-47.44
304.166	69.29
304.381	-65.88
304.595	132.78
304.809	-72.02
305.023	112.3
305.237	-63.83
305.452	-45.4
305.666	79.53
305.88	85.67
306.094	102.06
306.308	46.76
306.522	100.01
306.736	24.23
306.95	167.59
307.164	75.43
307.379	22.19
307.593	102.06
307.807	77.48
308.021	87.72
308.235	108.2
308.449	-127.32
308.663	-39.25
308.877	104.11
309.091	67.24
309.305	65.19
309.519	-108.88
309.733	130.73
309.947	-49.49
310.161	-2.39
310.374	110.25
310.588	89.77
310.802	-49.49
311.016	-22.87
311.23	100.01
311.444	-41.3
311.658	65.19
311.872	104.11
312.085	89.77
312.299	97.96
312.513	73.39
312.727	1.71
312.941	-6.49
313.154	30.38
313.368	-33.11
313.582	36.52
313.796	18.09
314.009	-4.44
314.223	69.29
314.437	91.82
314.651	44.71
314.864	-10.58
315.078	71.34
315.292	-45.4
315.505	3.75
315.719	42.67
315.933	42.67
316.146	24.23
316.36	-26.96
316.573	91.82
316.787	108.2
317.001	34.47
317.214	-86.36
317.428	-4.44
317.641	-43.35
317.855	-24.92
318.068	13.99
318.282	36.52
318.495	143.02
318.709	34.47
318.922	18.09
319.136	149.16
319.349	81.58
319.563	24.23
319.776	61.1
319.99	24.23
320.203	104.11
320.417	36.52
320.63	61.1
320.843	175.78
321.057	91.82
321.27	7.85
321.483	75.43
321.697	42.67
321.91	38.57
322.124	61.1
322.337	7.85
322.55	-16.73
322.763	-29.01
322.977	16.04
323.19	30.38
323.403	-16.73
323.617	89.77
323.83	93.87
324.043	-22.87
324.256	-2.39
324.469	-102.74
324.683	95.91
324.896	32.43
325.109	34.47
325.322	-76.12
325.535	40.62
325.748	65.19
325.962	75.43
326.175	9.9
326.388	20.14
326.601	69.29
326.814	-31.06
327.027	20.14
327.24	132.78
327.453	-4.44
327.666	108.2
327.879	110.25
328.092	69.29
328.305	24.23
328.518	30.38
328.731	-63.83
328.944	61.1
329.157	24.23
329.37	24.23
329.583	155.3
329.796	63.15
330.009	-108.88
330.222	87.72
330.435	179.88
330.648	77.48
330.861	71.34
331.073	28.33
331.286	65.19
331.499	48.81
331.712	11.95
331.925	-33.11
332.138	30.38
332.35	71.34
332.563	-49.49
332.776	151.21
332.989	-45.4
333.202	63.15
333.414	81.58
333.627	36.52
333.84	5.8
334.053	73.39
334.265	-20.82
334.478	52.91
334.691	18.09
334.903	42.67
335.116	-22.87
335.329	30.38
335.541	57
335.754	192.17
335.966	-51.54
336.179	57
336.392	5.8
336.604	-14.68
336.817	83.63
337.029	57
337.242	16.04
337.454	83.63
337.667	50.86
337.88	106.15
338.092	69.29
338.305	85.67
338.517	7.85
338.729	11.95
338.942	130.73
339.154	-43.35
339.367	16.04
339.579	100.01
339.792	-33.11
340.004	69.29
340.217	69.29
340.429	112.3
340.641	-69.97
340.854	-12.63
341.066	18.09
341.278	145.06
341.491	165.54
341.703	24.23
341.915	-22.87
342.128	149.16
342.34	22.19
342.552	9.9
342.764	13.99
342.977	7.85
343.189	-16.73
343.401	93.87
343.613	-45.4
343.826	79.53
344.038	-39.25
344.25	32.43
344.462	-10.58
344.674	9.9
344.886	52.91
345.099	24.23
345.311	134.82
345.523	-43.35
345.735	-49.49
345.947	46.76
346.159	52.91
346.371	9.9
346.583	-4.44
346.795	147.11
347.007	48.81
347.219	100.01
347.431	46.76
347.643	79.53
347.855	44.71
348.067	145.06
348.279	-45.4
348.491	73.39
348.703	59.05
348.915	28.33
349.127	-2.39
349.339	50.86
349.551	-82.26
349.763	67.24
349.975	52.91
350.187	104.11
350.399	112.3
350.61	97.96
350.822	16.04
351.034	38.57
351.246	42.67
351.458	122.54
351.669	79.53
351.881	24.23
352.093	71.34
352.305	108.2
352.517	59.05
352.728	126.63
352.94	46.76
353.152	32.43
353.363	5.8
353.575	93.87
353.787	120.49
353.999	13.99
354.21	247.46
354.422	5.8
354.633	-53.59
354.845	38.57
355.057	54.95
355.268	61.1
355.48	67.24
355.692	-65.88
355.903	73.39
356.115	-4.44
356.326	-110.93
356.538	95.91
356.749	114.34
356.961	102.06
357.172	50.86
357.384	-26.96
357.595	235.18
357.807	-41.3
358.018	-2.39
358.23	-8.53
358.441	149.16
358.653	85.67
358.864	102.06
359.075	-80.21
359.287	46.76
359.498	44.71
359.709	44.71
359.921	32.43
360.132	87.72
360.344	69.29
360.555	1.71
360.766	75.43
360.977	11.95
361.189	83.63
361.4	30.38
361.611	69.29
361.823	87.72
362.034	20.14
362.245	-90.45
362.456	11.95
362.667	42.67
362.879	-82.26
363.09	52.91
363.301	67.24
363.512	-45.4
363.723	-53.59
363.935	-43.35
364.146	71.34
364.357	28.33
364.568	52.91
364.779	-112.98
364.99	118.44
365.201	22.19
365.412	75.43
365.623	-86.36
365.834	71.34
366.045	1.71
366.256	65.19
366.467	42.67
366.678	-29.01
366.889	81.58
367.1	-18.77
367.311	52.91
367.522	-31.06
367.733	59.05
367.944	44.71
368.155	42.67
368.366	100.01
368.577	87.72
368.788	102.06
368.999	-57.68
369.209	38.57
369.42	171.69
369.631	274.09
369.842	50.86
370.053	-10.58
370.264	198.31
370.474	-51.54
370.685	57
370.896	46.76
371.107	136.87
371.317	81.58
371.528	-59.73
371.739	112.3
371.95	3.75
372.16	75.43
372.371	-6.49
372.582	-6.49
372.792	161.45
373.003	9.9
373.214	9.9
373.424	110.25
373.635	-61.78
373.846	138.92
374.056	91.82
374.267	32.43
374.477	-4.44
374.688	26.28
374.898	91.82
375.109	73.39
375.319	-10.58
375.53	67.24
375.74	132.78
375.951	26.28
376.161	24.23
376.372	134.82
376.582	-4.44
376.793	-22.87
377.003	3.75
377.214	-33.11
377.424	97.96
377.635	104.11
377.845	7.85
378.055	110.25
378.266	-33.11
378.476	3.75
378.686	83.63
378.897	28.33
379.107	75.43
379.317	95.91
379.528	26.28
379.738	145.06
379.948	-74.07
380.158	77.48
380.369	71.34
380.579	38.57
380.789	32.43
380.999	77.48
381.21	69.29
381.42	159.4
381.63	18.09
381.84	52.91
382.05	48.81
382.261	147.11
382.471	120.49
382.681	-12.63
382.891	108.2
383.101	93.87
383.311	-80.21
383.521	-6.49
383.731	87.72
383.941	75.43
384.151	-31.06
384.361	54.95
384.571	83.63
384.781	106.15
384.991	165.54
385.201	200.36
385.411	134.82
385.621	-4.44
385.831	112.3
386.041	71.34
386.251	54.95
386.461	122.54
386.671	30.38
386.881	59.05
387.091	132.78
387.301	161.45
387.511	95.91
387.72	102.06
387.93	26.28
388.14	-84.31
388.35	11.95
388.56	159.4
388.769	79.53
388.979	-47.44
389.189	24.23
389.399	48.81
389.609	102.06
389.818	24.23
390.028	104.11
390.238	83.63
390.447	-18.77
390.657	59.05
390.867	-51.54
391.076	-59.73
391.286	18.09
391.496	-8.53
391.705	-16.73
391.915	200.36
392.125	79.53
392.334	69.29
392.544	143.02
392.753	106.15
392.963	-57.68
393.172	81.58
393.382	-88.4
393.591	181.93
393.801	-45.4
394.01	188.07
394.22	112.3
394.429	48.81
394.639	73.39
394.848	61.1
395.058	52.91
395.267	-4.44
395.477	102.06
395.686	102.06
395.895	243.37
396.105	237.22
396.314	77.48
396.524	11.95
396.733	91.82
396.942	26.28
397.152	69.29
397.361	128.68
397.57	18.09
397.78	155.3
397.989	77.48
398.198	126.63
398.407	3.75
398.617	46.76
398.826	36.52
399.035	-90.45
399.244	200.36
399.453	71.34
399.663	61.1
399.872	11.95
400.081	-8.53
400.29	126.63
400.499	32.43
400.708	124.58
400.917	106.15
401.127	85.67
401.336	-2.39
401.545	106.15
401.754	54.95
401.963	83.63
402.172	-2.39
402.381	-12.63
402.59	9.9
402.799	100.01
403.008	87.72
403.217	77.48
403.426	85.67
403.635	-78.16
403.844	18.09
404.053	-76.12
404.262	9.9
404.471	145.06
404.68	73.39
404.888	-8.53
405.097	54.95
405.306	36.52
405.515	118.44
405.724	-14.68
405.933	102.06
406.142	67.24
406.35	181.93
406.559	-18.77
406.768	75.43
406.977	159.4
407.185	81.58
407.394	102.06
407.603	-26.96
407.812	-31.06
408.02	108.2
408.229	-6.49
408.438	57
408.646	9.9
408.855	46.76
409.064	71.34
409.272	-10.58
409.481	71.34
409.69	40.62
409.898	-47.44
410.107	67.24
410.315	147.11
410.524	-4.44
410.733	71.34
410.941	34.47
411.15	100.01
411.358	136.87
411.567	192.17
411.775	124.58
411.984	40.62
412.192	124.58
412.401	7.85
412.609	108.2
412.818	151.21
413.026	54.95
413.234	-2.39
413.443	85.67
413.651	42.67
413.86	24.23
414.068	128.68
414.276	163.5
414.485	5.8
414.693	216.74
414.901	100.01
415.11	200.36
415.318	5.8
415.526	26.28
415.734	208.55
415.943	97.96
416.151	85.67
416.359	79.53
416.567	63.15
416.776	134.82
416.984	112.3
417.192	120.49
417.4	65.19
417.608	28.33
417.817	-37.2
418.025	188.07
418.233	116.39
418.441	1.71
418.649	-12.63
418.857	44.71
419.065	216.74
419.273	-10.58
419.481	63.15
419.689	54.95
419.897	81.58
420.105	42.67
420.313	179.88
420.521	124.58
420.729	147.11
420.937	61.1
421.145	-35.16
421.353	173.74
421.561	145.06
421.769	89.77
421.977	-29.01
422.185	77.48
422.393	79.53
422.601	145.06
422.809	157.35
423.017	-6.49
423.224	54.95
423.432	149.16
423.64	138.92
423.848	163.5
424.056	102.06
424.263	79.53
424.471	26.28
424.679	188.07
424.887	-33.11
425.094	151.21
425.302	54.95
425.51	48.81
425.718	108.2
425.925	130.73
426.133	7.85
426.341	274.09
426.548	65.19
426.756	13.99
426.964	34.47
427.171	-8.53
427.379	36.52
427.586	134.82
427.794	44.71
428.001	165.54
428.209	67.24
428.417	157.35
428.624	89.77
428.832	124.58
429.039	112.3
429.247	163.5
429.454	122.54
429.662	224.94
429.869	167.59
430.076	112.3
430.284	171.69
430.491	165.54
430.699	149.16
430.906	347.81
431.114	136.87
431.321	126.63
431.528	77.48
431.736	155.3
431.943	159.4
432.15	243.37
432.358	200.36
432.565	235.18
432.772	34.47
432.979	249.51
433.187	130.73
433.394	165.54
433.601	120.49
433.808	274.09
434.016	214.7
434.223	253.61
434.43	257.7
434.637	280.23
434.844	267.94
435.052	226.98
435.259	341.67
435.466	401.06
435.673	204.46
435.88	325.29
436.087	374.44
436.294	376.48
436.501	376.48
436.708	374.44
436.915	427.68
437.122	480.93
437.329	319.14
437.537	425.64
437.743	411.3
437.95	472.74
438.157	450.21
438.364	450.21
438.571	452.26
438.778	464.55
438.985	593.57
439.192	530.08
439.399	517.79
439.606	599.71
439.813	554.66
440.02	700.06
440.227	734.88
440.433	671.39
440.64	673.44
440.847	605.86
441.054	706.21
441.261	861.85
441.467	818.85
441.674	712.35
441.881	902.81
442.088	894.62
442.294	966.3
442.501	980.64
442.708	956.06
442.914	980.64
443.121	1076.89
443.328	1068.7
443.534	1146.52
443.741	1197.72
443.948	1169.05
444.154	1226.39
444.361	1361.56
444.568	1253.02
444.774	1349.27
444.981	1277.59
445.187	1478.29
445.394	1400.47
445.6	1427.09
445.807	1613.46
446.013	1683.09
446.22	1658.51
446.426	1738.38
446.633	1885.84
446.839	2107.02
447.046	1869.45
447.252	2088.59
447.459	2207.37
447.665	2127.5
447.871	2246.28
448.078	2315.91
448.284	2430.6
448.491	2631.3
448.697	2629.25
448.903	2825.86
449.11	2821.76
449.316	2821.76
449.522	3057.28
449.728	3042.94
449.935	3194.49
450.141	3116.67
450.347	3446.39
450.553	3374.71
450.76	3456.63
450.966	3806.83
451.172	3954.29
451.378	4200.04
451.584	4056.68
451.791	4419.18
451.997	4585.06
452.203	4529.77
452.409	4845.15
452.615	5084.77
452.821	4695.65
453.027	5047.9
453.233	5584.47
453.44	5416.54
453.646	5570.13
453.852	5906
454.058	6250.06
454.264	6336.07
454.47	6889.03
454.676	6792.77
454.882	7427.64
455.088	6993.47
455.294	7607.86
455.5	8169.01
455.705	8431.15
455.911	8459.82
456.117	8654.37
456.323	9035.3
456.529	9123.36
456.735	9956.88
456.941	9963.03
457.147	10425.87
457.352	10892.8
457.558	11222.53
457.764	11701.75
457.97	12011
458.176	12672.49
458.381	13057.51
458.587	13096.42
458.793	14001.62
458.999	14042.58
459.204	15754.68
459.41	16174.52
459.616	15941.05
459.821	16926.12
460.027	17909.15
460.233	18527.63
460.438	18636.17
460.644	19572.1
460.85	19971.45
461.055	20534.64
461.261	21826.91
461.466	21265.77
461.672	21716.32
461.878	24368.44
462.083	23924.03
462.289	24483.13
462.494	25525.54
462.7	25787.68
462.905	25984.29
463.111	28288.25
463.316	29742.31
463.522	30033.12
463.727	31005.91
463.932	32388.28
464.138	33328.3
464.343	34319.52
464.549	34765.98
464.754	37104.76
464.959	38159.46
465.165	39046.23
465.37	38452.32
465.575	38474.85
465.781	40950.84
465.986	42548.26
466.191	41626.67
466.397	42089.51
466.602	41278.52
466.807	43576.34
467.012	43926.54
467.218	44741.63
467.423	45341.69
467.628	45782
467.833	48409.54
468.038	47453.14
468.244	47090.65
468.449	49144.76
468.654	48368.58
468.859	48620.48
469.064	48307.15
469.269	47322.07
469.474	47479.77
469.679	49380.28
469.885	47387.61
470.09	48571.33
470.295	48495.56
470.5	47238.11
470.705	48188.36
470.91	46625.76
471.115	46230.51
471.32	47281.11
471.525	46701.54
471.73	45351.93
471.935	45073.4
472.139	43203.61
472.344	43473.94
472.549	43050.01
472.754	42664.99
472.959	41641.01
473.164	40348.74
473.369	39734.35
473.574	40766.52
473.778	39574.61
473.983	39111.77
474.188	38698.08
474.393	36615.29
474.598	36924.54
474.802	36238.47
475.007	35544.2
475.212	35433.61
475.417	33858.73
475.621	33766.57
475.826	33041.59
476.031	32148.67
476.235	31501.51
476.44	31565
476.645	30565.59
476.849	30428.38
477.054	29852.9
477.259	29355.24
477.463	29463.79
477.668	28671.22
477.872	28282.11
478.077	28077.31
478.282	27206.92
478.486	26668.31
478.691	26504.47
478.895	26383.64
479.1	25990.43
479.304	25953.57
479.509	25113.9
479.713	25531.69
479.918	24524.08
480.122	24470.84
480.326	24218.94
480.531	24556.85
480.735	24257.85
480.94	23858.49
481.144	24446.26
481.348	23094.6
481.553	23240.01
481.757	22631.76
481.961	23133.51
482.166	23407.94
482.37	22891.85
482.574	22089.05
482.778	22283.61
482.983	22799.69
483.187	21921.12
483.391	22054.23
483.595	21671.26
483.8	21400.93
484.004	21325.16
484.208	21359.97
484.412	21112.17
484.616	20874.6
484.821	20778.35
485.025	19887.48
485.229	20188.53
485.433	19879.29
485.637	19512.7
485.841	19395.97
486.045	18861.45
486.249	19105.16
486.453	18337.17
486.657	18077.08
486.861	18271.64
487.065	17440.16
487.269	17681.82
487.473	16942.5
487.677	17085.86
487.881	17001.9
488.085	16375.22
488.289	16557.49
488.493	16016.82
488.697	16037.3
488.901	15553.98
489.105	14947.78
489.309	15041.99
489.512	14677.45
489.716	14398.93
489.92	14314.96
490.124	13829.59
490.328	13983.19
490.531	13397.47
490.735	13213.15
490.939	12897.77
491.143	12740.07
491.346	12631.53
491.55	12496.36
491.754	12383.73
491.958	12170.74
492.161	11841.01
492.365	11648.5
492.569	11279.87
492.772	11331.07
492.976	11132.42
493.18	10931.72
493.383	11052.55
493.587	10825.22
493.79	10894.85
493.994	10436.11
494.197	10298.89
494.401	10282.51
494.605	10343.95
494.808	10245.65
495.012	9895.44
495.215	10155.54
495.419	9936.4
495.622	9479.71
495.825	9707.03
496.029	9463.32
496.232	9864.72
496.436	9461.27
496.639	9686.55
496.843	9444.89
497.046	9494.04
497.249	9541.15
497.453	9535
497.656	9530.91
497.859	9434.65
498.063	9616.92
498.266	9780.76
498.469	9354.78
498.673	9266.72
498.876	9491.99
499.079	9770.52
499.282	9555.48
499.485	9930.26
499.689	9807.38
499.892	9829.91
500.095	9750.04
500.298	9987.6
500.501	9850.39
500.705	10231.31
500.908	10188.3
501.111	10264.08
501.314	10509.83
501.517	10634.76
501.72	10610.18
501.923	10515.98
502.126	10751.49
502.329	11011.59
502.532	10958.34
502.735	10991.11
502.938	11230.72
503.141	11460.09
503.344	11519.48
503.547	11752.95
503.75	11855.35
503.953	11873.78
504.156	12070.39
504.359	12408.3
504.562	12260.85
504.765	12504.56
504.968	12715.5
505.17	12725.74
505.373	13051.36
505.576	13262.3
505.779	13583.84
505.982	13600.22
506.185	13997.53
506.387	13886.93
506.59	14321.1
506.793	14843.34
506.996	14632.4
507.198	15283.65
507.401	15371.71
507.604	15517.12
507.807	16063.93
508.009	16278.96
508.212	16594.35
508.415	16844.2
508.617	17317.28
508.82	17515.94
509.022	17632.67
509.225	18324.88
509.428	18742.67
509.63	19037.58
509.833	18965.9
510.035	19946.87
510.238	19912.06
510.44	20655.47
510.643	21120.36
510.845	21443.94
511.048	21898.59
511.25	22109.53
511.453	23012.68
511.655	23983.42
511.858	24223.03
512.06	24202.55
512.262	25023.79
512.465	24988.97
512.667	26139.93
512.87	26283.29
513.072	27057.42
513.274	27886.85
513.477	28122.37
513.679	29138.16
513.881	29508.84
514.084	29998.3
514.286	30782.68
514.488	31212.75
514.69	32711.86
514.893	33148.08
515.095	33158.32
515.297	33989.8
515.499	34548.89
515.701	35417.23
515.904	36461.69
516.106	36822.14
516.308	37416.05
516.51	38577.25
516.712	38919.26
516.914	39634
517.116	40416.32
517.318	40907.83
517.52	41882.67
517.722	42341.41
517.925	42851.36
518.127	44069.9
518.329	44981.24
518.531	44805.12
518.733	45904.88
518.935	47094.75
519.136	47266.78
519.338	48204.75
519.54	49126.33
519.742	49951.66
519.944	50629.54
520.146	51604.38
520.348	51489.69
520.55	52087.7
520.752	53058.43
520.954	53875.57
521.155	53705.59
521.357	54502.25
521.559	55157.6
521.761	56044.37
521.963	56136.53
522.164	56652.62
522.366	57215.81
522.568	57725.75
522.77	58047.28
522.971	59077.41
523.173	58913.58
523.375	58813.23
523.576	59173.67
523.778	59423.52
523.98	59892.5
524.181	60119.83
524.383	59912.98
524.584	60459.79
524.786	60754.7
524.988	60283.67
525.189	60812.04
525.391	61047.56
525.592	61358.85
525.794	61082.37
525.995	60930.82
526.197	60863.24
526.398	60537.61
526.6	60848.91
526.801	60635.92
527.003	60668.68
527.204	59894.55
527.406	60812.04
527.607	59783.96
527.808	59671.32
528.01	58680.11
528.211	58895.14
528.412	59829.02
528.614	58573.61
528.815	58395.44
529.016	58358.58
529.218	57414.46
529.419	56859.46
529.62	56673.1
529.822	55944.02
530.023	55794.52
530.224	55354.21
530.425	54319.98
530.626	53711.74
530.828	53418.88
531.029	54010.74
531.23	52243.34
531.431	51917.71
531.632	51737.49
531.833	50932.64
532.035	50258.86
532.236	49847.22
532.437	48939.97
532.638	48450.5
532.839	48206.8
533.04	47485.91
533.241	46406.63
533.442	47201.24
533.643	45657.07
533.844	45014.01
534.045	44715.01
534.246	43506.71
534.447	43789.33
534.648	42863.64
534.849	42234.92
535.05	41387.06
535.251	41131.06
535.451	40789.05
535.652	40418.37
535.853	39386.19
536.054	39388.24
536.255	38698.08
536.456	37903.46
536.657	38059.11
536.857	37117.04
537.058	36764.79
537.259	36361.34
537.46	35918.98
537.66	34999.44
537.861	34698.39
538.062	34393.25
538.263	33809.57
538.463	33150.13
538.664	32963.76
538.865	32615.61
539.065	32210.11
539.266	31888.58
539.466	31427.79
539.667	31073.49
539.868	31069.39
540.068	30551.26
540.269	30057.7
540.469	29766.88
540.67	29267.18
540.87	29293.8
541.071	28273.92
541.271	28308.73
541.472	28452.09
541.672	27626.76
541.873	27206.92
542.073	26815.76
542.274	27071.76
542.474	26711.32
542.675	25992.48
542.875	26045.73
543.075	25550.12
543.276	25025.84
543.476	25175.34
543.676	24798.51
543.877	24425.78
544.077	24212.79
544.277	23891.26
544.478	23817.54
544.678	23475.52
544.878	22957.39
545.078	22775.12
545.279	22359.38
545.479	22320.47
545.679	22187.35
545.879	21957.98
546.079	21697.89
546.28	21525.86
546.48	21095.78
546.68	21194.09
546.88	20870.51
547.08	20286.84
547.28	20501.87
547.48	19766.65
547.68	19756.41
547.88	19361.16
548.081	19412.35
548.281	19201.41
548.481	18630.03
548.681	18552.21
548.881	18449.81
549.081	17931.67
549.28	17427.87
549.48	17730.97
549.68	17311.14
549.88	17284.51
550.08	16723.37
550.28	16588.21
550.48	16580.01
550.68	16354.74
550.88	15826.36
551.08	15547.84
551.279	15793.59
551.479	15297.99
551.679	15021.51
551.879	14740.94
552.079	14769.61
552.278	14454.22
552.478	14380.5
552.678	14245.33
552.878	14067.16
553.077	13698.52
553.277	13389.28
553.477	13430.24
553.676	13153.76
553.876	12912.1
554.076	12594.67
554.275	12314.09
554.475	12275.18
554.674	12232.18
554.874	11896.31
555.074	11830.77
555.273	11861.49
555.473	11566.59
555.672	11220.48
555.872	10837.51
556.071	10901
556.271	10921.48
556.47	10595.85
556.67	10208.78
556.869	10169.87
557.068	9958.93
557.268	9717.27
557.467	9594.39
557.667	9545.24
557.866	9336.35
558.065	9025.06
558.265	9115.17
558.464	8816.16
558.663	8748.58
558.863	8738.34
559.062	8756.77
559.261	8242.73
559.461	8439.34
559.66	8287.79
559.859	7925.3
560.058	7800.37
560.258	7765.56
560.457	7513.66
560.656	7667.25
560.855	7454.26
561.054	7517.75
561.253	7136.83
561.453	7038.53
561.652	6993.47
561.851	7018.05
562.05	6669.89
562.249	6475.34
562.448	6669.89
562.647	6485.58
562.846	6295.11
563.045	6362.7
563.244	6129.23
563.443	6211.15
563.642	5910.1
563.841	5975.63
564.04	5977.68
564.239	5949.01
564.438	5666.39
564.637	5394.01
564.836	5471.83
565.035	5385.82
565.234	5316.19
565.432	5336.67
565.631	5242.46
565.83	5131.87
566.029	5140.06
566.228	4963.93
566.427	5109.34
566.625	4638.31
566.824	4650.6
567.023	4765.28
567.222	4472.42
567.42	4580.96
567.619	4591.2
567.818	4429.42
568.016	4732.51
568.215	4376.17
568.414	4453.99
568.612	4288.11
568.811	4144.75
569.01	4030.06
569.208	3982.96
569.407	3874.42
569.605	4038.25
569.804	3782.26
570.002	3903.09
570.201	3690.1
570.4	3815.02
570.598	3655.28
570.797	3591.8
570.995	3571.32
571.193	3513.97
571.392	3516.02
571.59	3354.23
571.789	3321.46
571.987	3489.4
572.186	3335.8
572.384	3114.62
572.582	2987.65
572.781	3128.95
572.979	2766.46
573.177	3044.99
573.376	3083.9
573.574	2944.64
573.772	2930.3
573.971	2741.89
574.169	2754.18
574.367	2723.46
574.565	2717.31
574.763	2694.79
574.962	2612.87
575.16	2606.72
575.358	2543.24
575.556	2586.24
575.754	2526.85
575.952	2440.84
576.151	2477.7
576.349	2444.93
576.547	2289.29
576.745	2258.57
576.943	2299.53
577.141	2233.99
577.339	2147.98
577.537	2236.04
577.735	2213.51
577.933	2225.8
578.131	2049.68
578.329	2100.87
578.527	1945.23
578.725	2039.44
578.923	1801.87
579.121	2000.52
579.319	1717.9
579.516	1775.25
579.714	1922.7
579.912	1883.79
580.11	1746.58
580.308	1717.9
580.506	1691.28
580.704	1578.64
580.901	1633.94
581.099	1826.45
581.297	1607.31
581.495	1576.59
581.692	1537.68
581.89	1678.99
582.088	1490.58
582.285	1584.79
582.483	1439.38
582.681	1451.67
582.878	1343.13
583.076	1433.24
583.274	1455.76
583.471	1482.39
583.669	1400.47
583.866	1263.26
584.064	1322.65
584.262	1076.89
584.459	1281.69
584.657	1351.32
584.854	1357.46
585.052	1255.06
585.249	1298.07
585.447	1177.24
585.644	1035.93
585.841	1222.3
586.039	1203.86
586.236	1175.19
586.434	1078.94
586.631	1035.93
586.828	1025.69
587.026	1109.66
587.223	956.06
587.42	1005.21
587.618	1064.6
587.815	1105.56
588.012	974.49
588.21	976.54
588.407	906.91
588.604	1011.36
588.801	958.11
588.999	943.77
589.196	1050.27
589.393	956.06
589.59	863.9
589.787	1015.45
589.984	968.35
590.182	917.15
590.379	804.51
590.576	906.91
590.773	892.57
590.97	859.81
591.167	947.87
591.364	872.09
591.561	773.79
591.758	984.73
591.955	861.85
592.152	831.13
592.349	804.51
592.546	843.42
592.743	851.61
592.94	913.05
593.137	779.93
593.334	931.48
593.531	886.43
593.727	878.24
593.924	898.72
594.121	919.2
594.318	851.61
594.515	935.58
594.712	1027.74
594.908	1080.99
595.105	890.53
595.302	988.83
595.499	882.33
595.696	999.07
595.892	851.61
596.089	1033.88
596.286	935.58
596.482	1060.51
596.679	1015.45
596.876	1042.07
597.072	1132.19
597.269	1072.79
597.466	1119.9
597.662	1187.48
597.859	1107.61
598.055	1279.64
598.252	1283.74
598.448	1394.33
598.645	1408.66
598.841	1371.8
599.038	1572.5
599.234	1619.6
599.431	1582.74
599.627	1623.7
599.824	1664.66
600.02	1595.03
600.217	1779.34
600.413	1836.69
600.609	1998.48
600.806	2156.17
601.002	1963.66
601.198	2096.78
601.395	2264.71
601.591	2379.4
601.787	2430.6
601.984	2496.13
602.18	2535.04
602.376	2606.72
602.572	2768.51
602.769	2930.3
602.965	3032.7
603.161	3161.72
603.357	3139.19
603.553	3352.18
603.75	3421.81
603.946	3548.79
604.142	3616.37
604.338	4023.92
604.534	3718.77
604.73	3944.05
604.926	4124.27
605.122	4288.11
605.318	4365.93
605.514	4603.49
605.71	4613.73
605.906	4902.5
606.102	4875.87
606.298	5097.05
606.494	5420.63
606.69	5520.98
606.886	5697.11
607.082	5797.46
607.278	5883.47
607.474	5959.25
607.67	6299.21
607.866	6196.81
608.062	6604.36
608.257	6630.98
608.453	7005.76
608.649	7081.53
608.845	7466.55
609.041	7372.35
609.236	7700.02
609.432	8033.84
609.628	8128.05
609.824	8345.13
610.019	8539.69
610.215	8631.85
610.411	9125.41
610.606	9213.47
610.802	9606.68
610.998	9881.11
611.193	10196.5
611.389	10253.84
611.584	10454.54
611.78	10749.45
611.976	11001.35
612.171	11292.16
612.367	11707.9
612.562	12125.68
612.758	12103.15
612.953	12400.11
613.149	12991.97
613.344	13215.2
613.539	13620.7
613.735	13944.28
613.93	14437.84
614.126	14396.88
614.321	15447.49
614.517	15238.59
614.712	15875.51
614.907	16039.35
615.103	16788.91
615.298	16958.89
615.493	17382.82
615.688	17812.89
615.884	18742.67
616.079	18742.67
616.274	19490.18
616.47	19604.86
616.665	20106.62
616.86	20800.88
617.055	21069.16
617.25	21511.52
617.445	22369.62
617.641	22801.74
617.836	23168.33
618.031	23575.87
618.226	24638.77
618.421	24798.51
618.616	25926.94
618.811	25996.57
619.006	27206.92
619.201	27294.99
619.396	28206.33
619.591	28230.91
619.786	29490.41
619.981	29760.74
620.176	30579.93
620.371	30950.61
620.566	31392.97
620.761	32277.69
620.956	33027.25
621.151	33500.33
621.346	34487.45
621.541	34481.31
621.735	35880.07
621.93	35695.75
622.125	36852.86
622.32	37352.56
622.515	38098.02
622.709	38884.44
622.904	39543.89
623.099	39951.43
623.294	40821.82
623.488	41262.13
623.683	41940.01
623.878	42245.16
624.072	43195.42
624.267	44473.35
624.462	44887.04
624.656	45429.75
624.851	46392.29
625.046	46828.51
625.24	47440.85
625.435	48194.51
625.629	48473.03
625.824	49208.25
626.018	49986.48
626.213	49748.92
626.407	50994.08
626.602	50850.72
626.796	52044.69
626.991	52280.2
627.185	52487.05
627.38	52898.69
627.574	53201.79
627.768	53574.52
627.963	53525.37
628.157	53642.1
628.352	54496.11
628.546	53635.96
628.74	54647.66
628.935	54537.07
629.129	53930.87
629.323	53508.99
629.517	53490.55
629.712	53736.31
629.906	53052.29
630.1	52026.26
630.294	52540.3
630.489	51809.17
630.683	51618.71
630.877	49961.9
631.071	49388.47
631.265	48806.85
631.459	48036.81
631.653	46842.85
631.848	45851.63
632.042	44655.62
632.236	44604.42
632.43	42748.96
632.624	41944.11
632.818	40453.19
633.012	39191.64
633.206	38233.19
633.4	36861.05
633.594	35409.04
633.788	34835.61
633.982	33676.46
634.176	32113.86
634.369	31503.56
634.563	30010.59
634.757	28802.29
634.951	27981.06
635.145	26735.89
635.339	25918.75
635.533	24636.72
635.726	23858.49
635.92	22340.95
636.114	21939.55
636.308	21263.72
636.501	20227.45
636.695	19725.69
636.889	18668.94
637.083	17665.44
637.276	16989.61
637.47	16491.95
637.664	15834.55
637.857	15173.06
638.051	14730.7
638.244	13880.79
638.438	13301.22
638.632	12928.49
638.825	12236.27
639.019	11877.88
639.212	11310.59
639.406	11296.25
639.599	10470.92
639.793	10046.99
639.986	9629.21
640.18	9334.3
640.373	9104.93
640.567	8656.42
640.76	8410.67
640.954	8037.94
641.147	7681.59
641.34	7370.3
641.534	7224.89
641.727	6964.8
641.92	6667.84
642.114	6401.61
642.307	6116.94
642.5	5817.94
642.694	5602.9
642.887	5252.7
643.08	5336.67
643.273	5189.21
643.467	4736.61
643.66	4523.62
643.853	4497
644.046	4406.89
644.239	4204.14
644.432	3972.72
644.626	3855.98
644.819	3780.21
645.012	3581.56
645.205	3475.06
645.398	3360.38
645.591	3088
645.784	2967.17
645.977	2911.87
646.17	2799.23
646.363	2811.52
646.556	2463.37
646.749	2465.41
646.942	2350.73
647.135	2315.91
647.328	2162.31
647.521	2250.38
647.714	2074.25
647.907	2125.45
648.099	1857.17
648.292	2004.62
648.485	1740.43
648.678	1732.24
648.871	1640.08
649.064	1644.18
649.256	1488.53
649.449	1502.87
649.642	1369.75
649.835	1234.58
650.027	1259.16
650.22	1461.91
650.413	1156.76
650.605	1175.19
650.798	1097.37
650.991	1087.13
651.183	1056.41
651.376	1103.51
651.568	1099.42
651.761	988.83
651.954	949.92
652.146	915.1
652.339	949.92
652.531	994.97
652.724	765.6
652.916	736.93
653.109	646.82
653.301	796.32
653.494	765.6
653.686	734.88
653.879	812.7
654.071	677.54
654.263	536.23
654.456	636.58
654.648	741.02
654.84	560.8
655.033	542.37
655.225	691.87
655.417	532.13
655.61	669.34
655.802	593.57
655.994	618.15
656.186	482.98
656.379	636.58
656.571	409.25
656.763	472.74
656.955	456.36
657.148	433.83
657.34	505.51
657.532	370.34
657.724	429.73
657.916	425.64
658.108	427.68
658.3	407.2
658.492	411.3
658.684	284.33
658.876	444.07
659.068	269.99
659.26	237.22
659.452	280.23
659.644	353.96
659.836	517.79
660.028	282.28
660.22	251.56
660.412	339.62
660.604	286.37
660.796	257.7
660.988	366.25
661.18	231.08
661.372	269.99
661.563	333.48
661.755	267.94
661.947	274.09
662.139	177.83
662.331	300.71
662.522	237.22
662.714	267.94
662.906	192.17
663.097	188.07
663.289	194.22
663.481	112.3
663.673	194.22
663.864	220.84
664.056	292.52
664.247	169.64
664.439	298.66
664.631	206.5
664.822	261.8
665.014	218.79
665.205	163.5
665.397	145.06
665.588	310.95
665.78	130.73
665.971	206.5
666.163	208.55
666.354	163.5
666.546	65.19
666.737	122.54
666.929	163.5
667.12	161.45
667.311	224.94
667.503	130.73
667.694	147.11
667.885	216.74
668.077	206.5
668.268	79.53
668.459	177.83
668.651	251.56
668.842	237.22
669.033	140.97
669.224	38.57
669.416	358.05
669.607	71.34
669.798	3.75
669.989	263.85
670.18	97.96
670.371	220.84
670.563	145.06
670.754	188.07
670.945	212.65
671.136	239.27
671.327	128.68
671.518	280.23
671.709	235.18
671.9	171.69
672.091	272.04
672.282	97.96
672.473	147.11
672.664	161.45
672.855	149.16
673.046	167.59
673.237	290.47
673.428	143.02
673.619	218.79
673.809	108.2
674	224.94
674.191	253.61
674.382	161.45
674.573	196.26
674.764	153.26
674.954	259.75
675.145	57
675.336	106.15
675.527	110.25
675.717	151.21
675.908	138.92
676.099	102.06
676.289	81.58
676.48	108.2
676.671	249.51
676.861	83.63
677.052	159.4
677.243	167.59
677.433	163.5
677.624	255.65
677.814	255.65
678.005	161.45
678.195	329.38
678.386	120.49
678.576	134.82
678.767	124.58
678.957	198.31
679.148	229.03
679.338	212.65
679.529	220.84
679.719	149.16
679.909	222.89
680.1	288.42
680.29	220.84
680.481	110.25
680.671	263.85
680.861	206.5
681.052	143.02
681.242	220.84
681.432	272.04
681.622	239.27
681.813	140.97
682.003	269.99
682.193	149.16
682.383	175.78
682.573	128.68
682.764	97.96
682.954	143.02
683.144	296.61
683.334	208.55
683.524	161.45
683.714	218.79
683.904	210.6
684.094	163.5
684.284	216.74
684.474	253.61
684.664	298.66
684.854	265.89
685.044	222.89
685.234	177.83
685.424	253.61
685.614	136.87
685.804	341.67
685.994	253.61
686.184	251.56
686.374	313
686.564	308.9
686.753	194.22
686.943	153.26
687.133	167.59
687.323	272.04
687.513	243.37
687.702	280.23
687.892	241.32
688.082	231.08
688.272	263.85
688.461	183.98
688.651	317.09
688.841	286.37
689.03	196.26
689.22	226.98
689.41	171.69
689.599	196.26
689.789	124.58
689.979	335.53
690.168	190.12
690.358	239.27
690.547	216.74
690.737	210.6
690.926	226.98
691.116	171.69
691.305	265.89
691.495	272.04
691.684	106.15
691.874	206.5
692.063	143.02
692.252	247.46
692.442	300.71
692.631	97.96
692.82	204.46
693.01	218.79
693.199	202.41
693.388	190.12
693.578	214.7
693.767	226.98
693.956	190.12
694.146	102.06
694.335	186.02
694.524	224.94
694.713	280.23
694.902	143.02
695.092	112.3
695.281	276.13
695.47	226.98
695.659	165.54
695.848	188.07
696.037	183.98
696.226	300.71
696.415	245.41
696.604	269.99
696.793	294.57
696.982	120.49
697.171	304.81
697.36	110.25
697.549	140.97
697.738	116.39
697.927	151.21
698.116	118.44
698.305	231.08
698.494	220.84
698.683	157.35
698.872	360.1
699.061	188.07
699.25	212.65
699.438	165.54
699.627	198.31
699.816	296.61
700.005	132.78
700.193	149.16
700.382	179.88
700.571	229.03
700.76	220.84
700.948	280.23
701.137	286.37
701.326	261.8
701.514	153.26
701.703	196.26
701.892	120.49
702.08	390.82
702.269	243.37
702.457	89.77
702.646	181.93
702.834	265.89
703.023	272.04
703.212	243.37
703.4	220.84
703.589	145.06
703.777	218.79
703.965	83.63
704.154	181.93
704.342	77.48
704.531	198.31
704.719	145.06
704.907	202.41
705.096	65.19
705.284	97.96
705.472	151.21
705.661	214.7
705.849	310.95
706.037	259.75
706.226	210.6
706.414	200.36
706.602	163.5
706.79	194.22
706.979	120.49
707.167	212.65
707.355	108.2
707.543	231.08
707.731	155.3
707.919	202.41
708.107	239.27
708.296	91.82
708.484	108.2
708.672	106.15
708.86	190.12
709.048	204.46
709.236	124.58
709.424	204.46
709.612	226.98
709.8	91.82
709.988	222.89
710.176	247.46
710.364	339.62
710.551	206.5
710.739	181.93
710.927	188.07
711.115	243.37
711.303	216.74
711.491	280.23
711.679	229.03
711.866	212.65
712.054	200.36
712.242	241.32
712.43	224.94
712.617	32.43
712.805	259.75
712.993	169.64
713.181	93.87
713.368	222.89
713.556	210.6
713.744	122.54
713.931	351.91
714.119	233.13
714.306	118.44
714.494	181.93
714.682	245.41
714.869	222.89
715.057	126.63
715.244	77.48
715.432	153.26
715.619	116.39
715.807	231.08
715.994	188.07
716.182	210.6
716.369	288.42
716.556	259.75
716.744	136.87
716.931	104.11
717.119	226.98
717.306	204.46
717.493	263.85
717.681	235.18
717.868	204.46
718.055	229.03
718.242	204.46
718.43	237.22
718.617	192.17
718.804	165.54
718.991	269.99
719.179	235.18
719.366	298.66
719.553	226.98
719.74	216.74
719.927	194.22
720.114	237.22
720.301	134.82
720.488	143.02
720.676	108.2
720.863	298.66
721.05	399.01
721.237	237.22
721.424	235.18
721.611	237.22
721.798	241.32
721.985	136.87
722.172	132.78
722.358	181.93
722.545	222.89
722.732	243.37
722.919	282.28
723.106	280.23
723.293	165.54
723.48	272.04
723.667	210.6
723.853	274.09
724.04	378.53
724.227	231.08
724.414	169.64
724.6	339.62
724.787	310.95
724.974	337.57
725.161	304.81
725.347	198.31
725.534	308.9
725.72	274.09
725.907	276.13
726.094	231.08
726.28	165.54
726.467	272.04
726.653	206.5
726.84	341.67
727.027	362.15
727.213	214.7
727.4	265.89
727.586	257.7
727.773	253.61
727.959	278.18
728.145	231.08
728.332	198.31
728.518	120.49
728.705	272.04
728.891	323.24
729.077	247.46
729.264	186.02
729.45	247.46
729.636	310.95
729.823	204.46
730.009	251.56
730.195	267.94
730.382	306.85
730.568	202.41
730.754	280.23
730.94	296.61
731.126	159.4
731.313	288.42
731.499	284.33
731.685	235.18
731.871	239.27
732.057	255.65
732.243	284.33
732.429	243.37
732.615	413.35
732.801	272.04
732.987	229.03
733.173	276.13
733.359	263.85
733.545	313
733.731	335.53
733.917	333.48
734.103	315.05
734.289	329.38
734.475	173.74
734.661	358.05
734.847	362.15
735.033	249.51
735.219	290.47
735.404	263.85
735.59	247.46
735.776	220.84
735.962	284.33
736.148	280.23
736.333	358.05
736.519	263.85
736.705	233.13
736.89	263.85
737.076	255.65
737.262	208.55
737.447	212.65
737.633	196.26
737.819	372.39
738.004	265.89
738.19	290.47
738.375	208.55
738.561	356.01
738.747	274.09
738.932	237.22
739.118	378.53
739.303	341.67
739.489	304.81
739.674	243.37
739.859	149.16
740.045	247.46
740.23	306.85
740.416	143.02
740.601	259.75
740.786	259.75
740.972	202.41
741.157	181.93
741.342	194.22
741.528	200.36
741.713	294.57
741.898	310.95
742.084	265.89
742.269	229.03
742.454	304.81
742.639	280.23
742.824	310.95
743.01	425.64
743.195	386.72
743.38	218.79
743.565	241.32
743.75	323.24
743.935	257.7
744.12	315.05
744.305	212.65
744.49	161.45
744.675	278.18
744.86	239.27
745.045	272.04
745.23	229.03
745.415	239.27
745.6	298.66
745.785	253.61
745.97	292.52
746.155	339.62
746.34	296.61
746.525	282.28
746.71	349.86
746.895	75.43
747.079	220.84
747.264	145.06
747.449	263.85
747.634	308.9
747.819	335.53
748.003	235.18
748.188	149.16
748.373	294.57
748.557	177.83
748.742	239.27
748.927	310.95
749.111	218.79
749.296	200.36
749.481	265.89
749.665	220.84
749.85	175.78
750.034	278.18
750.219	210.6
750.404	147.11
750.588	226.98
750.773	183.98
750.957	257.7
751.141	229.03
751.326	239.27
751.51	132.78
751.695	177.83
751.879	192.17
752.064	319.14
752.248	224.94
752.432	269.99
752.617	257.7
752.801	274.09
752.985	149.16
753.17	282.28
753.354	212.65
753.538	212.65
753.722	81.58
753.907	179.88
754.091	104.11
754.275	278.18
754.459	85.67
754.643	91.82
754.828	274.09
755.012	226.98
755.196	114.34
755.38	186.02
755.564	71.34
755.748	171.69
755.932	243.37
756.116	186.02
756.3	163.5
756.484	114.34
756.668	214.7
756.852	-10.58
757.036	79.53
757.22	171.69
757.404	95.91
757.588	57
757.772	204.46
757.956	194.22
758.14	304.81
758.323	147.11
758.507	167.59
758.691	73.39
758.875	177.83
759.059	265.89
759.242	79.53
759.426	122.54
759.61	108.2
759.794	73.39
759.977	194.22
760.161	267.94
760.345	192.17
760.528	124.58
760.712	263.85
760.895	157.35
761.079	214.7
761.263	116.39
761.446	112.3
761.63	65.19
761.813	157.35
761.997	63.15
762.18	140.97
762.364	171.69
762.547	9.9
762.731	48.81
762.914	38.57
763.098	132.78
763.281	143.02
763.464	134.82
763.648	114.34
763.831	149.16
764.015	108.2
764.198	118.44
764.381	120.49
764.564	145.06
764.748	179.88
764.931	95.91
765.114	128.68
765.297	251.56
765.481	44.71
765.664	132.78
765.847	161.45
766.03	122.54
766.213	13.99
766.397	149.16
766.58	30.38
766.763	143.02
766.946	181.93
767.129	114.34
767.312	44.71
767.495	157.35
767.678	79.53
767.861	102.06
768.044	108.2
768.227	81.58
768.41	36.52
768.593	91.82
768.776	145.06
768.959	112.3
769.142	157.35
769.324	106.15
769.507	87.72
769.69	130.73
769.873	18.09
770.056	245.41
770.239	65.19
770.421	175.78
770.604	110.25
770.787	89.77
770.97	54.95
771.152	-16.73
771.335	122.54
771.518	-10.58
771.7	110.25
771.883	183.98
772.066	40.62
772.248	89.77
772.431	198.31
772.613	163.5
772.796	67.24
772.978	75.43
773.161	226.98
773.343	63.15
773.526	102.06
773.708	7.85
773.891	-59.73
774.073	91.82
774.256	-35.16
774.438	255.65
774.621	48.81
774.803	32.43
774.985	13.99
775.168	81.58
775.35	77.48
775.532	140.97
775.715	-8.53
775.897	130.73
776.079	77.48
776.261	61.1
776.444	79.53
776.626	11.95
776.808	34.47
776.99	18.09
777.173	102.06
777.355	-16.73
777.537	73.39
777.719	147.11
777.901	30.38
778.083	63.15
778.265	-33.11
778.447	83.63
778.629	3.75
778.811	116.39
778.993	63.15
779.175	73.39
779.357	95.91
779.539	-14.68
779.721	102.06
779.903	153.26
780.085	-4.44
780.267	95.91
780.449	67.24
780.631	134.82
780.812	128.68
780.994	126.63
781.176	1.71
781.358	13.99
781.54	-0.34
781.721	97.96
781.903	26.28
782.085	79.53
782.267	151.21
782.448	48.81
782.63	-45.4
782.812	13.99
782.993	77.48
783.175	57
783.357	52.91
783.538	73.39
783.72	5.8
783.901	1.71
784.083	102.06
784.264	20.14
784.446	-39.25
784.627	7.85
784.809	128.68
784.99	-29.01
785.172	34.47
785.353	71.34
785.535	13.99
785.716	-45.4
785.897	16.04
786.079	59.05
786.26	13.99
786.441	36.52
786.623	-45.4
786.804	-69.97
786.985	11.95
787.167	24.23
787.348	54.95
787.529	-4.44
787.71	128.68
787.891	83.63
788.073	-24.92
788.254	-121.17
788.435	214.7
788.616	32.43
788.797	7.85
788.978	22.19
789.159	-49.49
789.34	-22.87
789.522	83.63
789.703	24.23
789.884	65.19
790.065	38.57
790.246	132.78
790.427	11.95
790.607	97.96
790.788	87.72
790.969	-78.16
791.15	-0.34
791.331	-18.77
791.512	16.04
791.693	-14.68
791.874	48.81
792.054	167.59
792.235	69.29
792.416	24.23
792.597	-35.16
792.778	69.29
792.958	126.63
793.139	89.77
793.32	-65.88
793.5	-35.16
793.681	104.11
793.862	102.06
794.042	50.86
794.223	-20.82
794.404	-41.3
794.584	-8.53
794.765	50.86
794.945	-59.73
795.126	63.15
795.306	126.63
795.487	36.52
795.667	-84.31
795.848	24.23
796.028	-72.02
796.209	34.47
796.389	114.34
796.57	1.71
796.75	-69.97
796.93	83.63
797.111	-67.92
797.291	-20.82
797.471	89.77
797.652	-39.25
797.832	-65.88
798.012	95.91
798.192	-4.44
798.373	-100.69
798.553	11.95
798.733	91.82
798.913	-74.07
799.093	-61.78
799.274	63.15
799.454	89.77
799.634	116.39
799.814	87.72
799.994	34.47
800.174	85.67
800.354	20.14
800.534	-67.92
800.714	79.53
800.894	1.71
801.074	-37.2
801.254	-4.44
801.434	155.3
801.614	-8.53
801.794	-53.59
801.974	1857.17
802.154	-26.96
802.334	26.28
802.514	-43.35
802.693	44.71
802.873	34.47
803.053	120.49
803.233	63.15
803.413	-10.58
803.592	-24.92
803.772	-94.55
803.952	71.34
804.131	-8.53
804.311	59.05
804.491	28.33
804.67	-94.55
804.85	-102.74
805.03	16.04
805.209	93.87
805.389	40.62
805.568	18.09
805.748	-74.07
805.928	-55.64
806.107	57
806.287	24.23
806.466	59.05
806.646	13.99
806.825	-37.2
807.004	5.8
807.184	-12.63
807.363	48.81
807.543	11.95
807.722	-20.82
807.901	128.68
808.081	126.63
808.26	-205.14
808.439	32.43
808.619	18.09
808.798	48.81
808.977	30.38
809.156	122.54
809.336	-31.06
809.515	93.87
809.694	-39.25
809.873	-94.55
810.052	52.91
810.231	59.05
810.411	40.62
810.59	46.76
810.769	9.9
810.948	73.39
811.127	-106.84
811.306	-88.4
811.485	24.23
811.664	52.91
811.843	-37.2
812.022	-59.73
812.201	-20.82
812.38	20.14
812.559	-39.25
812.737	-0.34
812.916	-104.79
813.095	-61.78
813.274	32.43
813.453	-4.44
813.632	52.91
813.811	36.52
813.989	-59.73
814.168	36.52
814.347	-72.02
814.526	-4.44
814.704	157.35
814.883	85.67
815.062	-123.22
815.24	42.67
815.419	-31.06
815.598	-57.68
815.776	-102.74
815.955	7.85
816.133	-29.01
816.312	40.62
816.49	16.04
816.669	9.9
816.847	-29.01
817.026	-55.64
817.204	-20.82
817.383	40.62
817.561	-137.56
817.74	-8.53
817.918	22.19
818.097	-37.2
818.275	-0.34
818.453	61.1
818.632	87.72
818.81	-16.73
818.988	-33.11
819.167	-24.92
819.345	11.95
819.523	-59.73
819.701	-2.39
819.879	108.2
820.058	61.1
820.236	89.77
820.414	-6.49
820.592	-61.78
820.77	30.38
820.948	-22.87
821.127	-57.68
821.305	36.52
821.483	-8.53
821.661	-29.01
821.839	-0.34
822.017	-90.45
822.195	-39.25
822.373	77.48
822.551	-31.06
822.729	-0.34
822.907	-53.59
823.085	44.71
823.262	-10.58
823.44	-51.54
823.618	-31.06
823.796	73.39
823.974	-98.64
824.152	-69.97
824.329	24.23
824.507	54.95
824.685	100.01
824.863	-47.44
825.04	32.43
825.218	7.85
825.396	-57.68
825.574	46.76
825.751	-26.96
825.929	-8.53
826.107	-6.49
826.284	-49.49
826.462	-10.58
826.639	-80.21
826.817	-110.93
826.994	-0.34
827.172	-53.59
827.349	114.34
827.527	38.57
827.704	24.23
827.882	57
828.059	16.04
828.237	-39.25
828.414	83.63
828.591	-180.56
828.769	20.14
828.946	-29.01
829.124	63.15
829.301	100.01
829.478	1.71
829.655	-12.63
829.833	-53.59
830.01	-112.98
830.187	57
830.364	34.47
830.542	9.9
830.719	42.67
830.896	-20.82
831.073	-24.92
831.25	24.23
831.427	22.19
831.604	-18.77
831.782	-45.4
831.959	48.81
832.136	42.67
832.313	-10.58
832.49	-22.87
832.667	61.1
832.844	-47.44
833.021	97.96
833.198	18.09
833.374	-10.58
833.551	-8.53
833.728	11.95
833.905	63.15
834.082	-102.74
834.259	-37.2
834.436	18.09
834.612	-119.12
834.789	130.73
834.966	-14.68
835.143	32.43
835.319	-59.73
835.496	132.78
835.673	59.05
835.85	110.25
836.026	95.91
836.203	-14.68
836.38	-12.63
836.556	-29.01
836.733	-57.68
836.909	126.63
837.086	-8.53
837.262	-39.25
837.439	-53.59
837.616	-29.01
837.792	-139.6
837.968	-10.58
838.145	-139.6
838.321	-76.12
838.498	1.71
838.674	22.19
838.851	-22.87
839.027	-26.96
839.203	67.24
839.38	1.71
839.556	-67.92
839.732	67.24
839.909	1.71
840.085	3.75
840.261	-86.36
840.437	-22.87
840.614	-104.79
840.79	34.47
840.966	32.43
841.142	5.8
841.318	13.99
841.494	50.86
841.671	34.47
841.847	-80.21
842.023	-74.07
842.199	20.14
842.375	122.54
842.551	-112.98
842.727	-96.6
842.903	159.4
843.079	-94.55
843.255	102.06
843.431	44.71
843.607	-14.68
843.783	-184.66
843.959	93.87
844.134	-112.98
844.31	20.14
844.486	-29.01
844.662	-72.02
844.838	24.23
845.013	59.05
845.189	69.29
845.365	36.52
845.541	-16.73
845.716	28.33
845.892	67.24
846.068	7.85
846.244	11.95
846.419	46.76
846.595	-145.75
846.77	-26.96
846.946	-14.68
847.122	1.71
847.297	-90.45
847.473	65.19
847.648	-151.89
847.824	-24.92
847.999	-102.74
848.175	5.8
848.35	132.78
848.526	73.39
848.701	5.8
848.876	61.1
849.052	110.25
849.227	-92.5
849.403	-0.34
849.578	-45.4
849.753	126.63
849.929	77.48
850.104	-104.79
850.279	-47.44
850.454	-41.3
850.63	1.71
850.805	16.04
850.98	50.86
851.155	20.14
851.33	26.28
851.505	-123.22
851.681	100.01
851.856	-45.4
852.031	30.38
852.206	3.75
852.381	-108.88
852.556	1.71
852.731	-24.92
852.906	3.75
853.081	22.19
853.256	93.87
853.431	18.09
853.606	-57.68
853.781	-20.82
853.956	-153.94
854.131	-59.73
854.305	-51.54
854.48	-72.02
854.655	-16.73
854.83	-100.69
855.005	-69.97
855.18	-22.87
855.354	-33.11
855.529	-2.39
855.704	-51.54
855.879	9.9
856.053	-35.16
856.228	48.81
856.403	-100.69
856.577	112.3
856.752	-151.89
856.926	-24.92
857.101	28.33
857.276	-55.64
857.45	-41.3
857.625	77.48
857.799	-45.4
857.974	-51.54
858.148	-115.03
858.323	-10.58
858.497	-67.92
858.672	-41.3
858.846	-43.35
859.02	38.57
859.195	7.85
859.369	-76.12
859.543	18.09
859.718	11.95
859.892	28.33
860.066	22.19
860.241	-41.3
860.415	-43.35
860.589	-22.87
860.763	16.04
860.938	-74.07
861.112	-37.2
861.286	-45.4
861.46	-8.53
861.634	-37.2
861.808	104.11
861.982	-51.54
862.157	-131.41
862.331	-6.49
862.505	-139.6
862.679	-137.56
862.853	-131.41
863.027	24.23
863.201	112.3
863.375	-53.59
863.549	-29.01
863.722	36.52
863.896	97.96
864.07	-33.11
864.244	-24.92
864.418	11.95
864.592	-65.88
864.766	30.38
864.939	11.95
865.113	-80.21
865.287	147.11
865.461	-76.12
865.634	-106.84
865.808	-33.11
865.982	-53.59
866.156	-14.68
866.329	-31.06
866.503	42.67
866.676	26.28
866.85	77.48
867.024	-16.73
867.197	7.85
867.371	42.67
867.544	-33.11
867.718	9.9
867.891	18.09
868.065	-18.77
868.238	-49.49
868.412	110.25
868.585	-24.92
868.759	-92.5
868.932	-33.11
869.105	-63.83
869.279	-39.25
869.452	22.19
869.625	-18.77
869.799	-74.07
869.972	-61.78
870.145	-43.35
870.319	63.15
870.492	-59.73
870.665	26.28
870.838	-96.6
871.011	-196.95
871.185	-4.44
871.358	-33.11
871.531	48.81
871.704	1.71
871.877	-12.63
872.05	3.75
872.223	-100.69
872.396	-31.06
872.569	-20.82
872.742	-92.5
872.915	22.19
873.088	-0.34
873.261	-80.21
873.434	-39.25
873.607	-69.97
873.78	61.1
873.953	-121.17
874.126	7.85
874.299	-49.49
874.471	-112.98
874.644	-55.64
874.817	7.85
874.99	71.34
875.163	-35.16
875.335	85.67
875.508	-80.21
875.681	114.34
875.853	-80.21
876.026	42.67
876.199	22.19
876.371	-69.97
876.544	-16.73
876.717	-16.73
876.889	-69.97
877.062	9.9
877.234	-133.46
877.407	-115.03
877.579	-47.44
877.752	18.09
877.924	46.76
878.097	16.04
878.269	-39.25
878.442	38.57
878.614	9.9
878.786	-22.87
878.959	-61.78
879.131	-8.53
879.303	-178.51
879.476	-22.87
879.648	81.58
879.82	-26.96
879.993	-53.59
880.165	-51.54
880.337	-78.16
880.509	-24.92
880.681	-121.17
880.854	-82.26
881.026	52.91
881.198	128.68
881.37	24.23
881.542	-47.44
881.714	3.75
881.886	-84.31
882.058	-8.53
882.23	52.91
882.402	-63.83
882.574	-31.06
882.746	93.87
882.918	75.43
883.09	16.04
883.262	-24.92
883.434	-24.92
883.606	-100.69
883.778	-57.68
883.95	120.49
884.122	-41.3
884.293	30.38
884.465	-57.68
884.637	69.29
884.809	-90.45
884.98	3.75
885.152	22.19
885.324	61.1
885.496	-86.36
885.667	-10.58
885.839	5.8
886.011	116.39
886.182	3.75
886.354	42.67
886.525	28.33
886.697	-31.06
886.869	-69.97
887.04	-12.63
887.212	52.91
887.383	112.3
887.555	16.04
887.726	24.23
887.897	-125.27
888.069	13.99
888.24	3.75
888.412	-51.54
888.583	-22.87
888.754	-2.39
888.926	-153.94
889.097	-12.63
889.268	-115.03
889.44	5.8
889.611	-45.4
889.782	-84.31
889.953	-10.58
890.125	81.58
890.296	-72.02
890.467	-78.16
890.638	-47.44
890.809	20.14
890.98	-39.25
891.151	-33.11
891.323	52.91
891.494	-18.77
891.665	38.57
891.836	34.47
892.007	3.75
892.178	42.67
892.349	-39.25
892.52	-41.3
892.691	24.23
892.862	-26.96
893.032	-133.46
893.203	-10.58
893.374	7.85
893.545	87.72
893.716	-39.25
893.887	50.86
894.057	-39.25
894.228	-31.06
894.399	-45.4
894.57	50.86
894.74	54.95
894.911	48.81
895.082	-123.22
895.253	-92.5
895.423	-47.44
895.594	-35.16
895.764	46.76
895.935	-94.55
896.106	-2.39
896.276	-47.44
896.447	38.57
896.617	-24.92
896.788	-86.36
896.958	-47.44
897.129	-59.73
897.299	-67.92
897.47	11.95
897.64	28.33
897.81	-47.44
897.981	-88.4
898.151	-18.77
898.322	-14.68
898.492	20.14
898.662	-98.64
898.832	-29.01
899.003	-20.82
899.173	9.9
899.343	-10.58
899.513	-49.49
