Data from USB4F104151__284__11-21-00-615.txt Node

Date: Wed Feb 26 11:21:00 EST 2025
User: louis
Spectrometer: USB4F10415
Trigger mode: 4
Integration Time (sec): 1.000000E-1
Scans to average: 1
Electric dark correction enabled: true
Nonlinearity correction enabled: false
Boxcar width: 0
XAxis mode: Wavelengths
Number of Pixels in Spectrum: 3648
>>>>>Begin Spectral Data<<<<<
178.204	-359.76
178.424	-359.76
178.644	-359.76
178.864	-394.58
179.084	-413.01
179.304	-60.76
179.524	12.97
179.744	92.84
179.964	-11.61
180.184	37.55
180.404	43.69
180.624	-73.04
180.844	-54.61
181.064	-54.61
181.283	43.69
181.503	-15.7
181.723	39.59
181.943	-40.28
182.163	201.38
182.383	-30.04
182.602	107.18
182.822	92.84
183.042	35.5
183.262	-19.8
183.482	-46.42
183.701	86.7
183.921	82.6
184.141	-77.14
184.361	90.79
184.58	8.87
184.8	68.27
185.02	8.87
185.239	6.83
185.459	103.08
185.679	96.94
185.898	-179.54
186.118	4.78
186.338	60.07
186.557	135.85
186.777	-3.41
186.997	-25.94
187.216	107.18
187.436	252.58
187.655	74.41
187.875	129.7
188.095	139.94
188.314	117.42
188.534	49.83
188.753	-27.99
188.973	86.7
189.192	252.58
189.412	72.36
189.631	53.93
189.851	-3.41
190.07	203.43
190.29	-52.56
190.509	-91.48
190.729	21.16
190.948	168.62
191.168	279.21
191.387	101.03
191.607	-9.56
191.826	74.41
192.045	39.59
192.265	-3.41
192.484	19.11
192.704	-13.65
192.923	-17.75
193.142	139.94
193.362	70.31
193.581	109.23
193.8	84.65
194.02	70.31
194.239	45.74
194.458	107.18
194.678	-46.42
194.897	-19.8
195.116	35.5
195.335	53.93
195.555	-38.23
195.774	43.69
195.993	90.79
196.212	0.68
196.432	55.98
196.651	-13.65
196.87	92.84
197.089	305.83
197.308	90.79
197.528	-5.46
197.747	-23.89
197.966	68.27
198.185	160.42
198.404	-15.7
198.623	115.37
198.842	68.27
199.062	78.51
199.281	164.52
199.5	23.21
199.719	35.5
199.938	-11.61
200.157	45.74
200.376	129.7
200.595	86.7
200.814	70.31
201.033	-42.32
201.252	107.18
201.471	23.21
201.69	96.94
201.909	31.4
202.128	78.51
202.347	111.27
202.566	25.26
202.785	-111.96
203.004	-120.15
203.223	307.88
203.442	90.79
203.661	-7.51
203.879	72.36
204.098	127.66
204.317	-5.46
204.536	53.93
204.755	8.87
204.974	164.52
205.193	-30.04
205.411	139.94
205.63	66.22
205.849	84.65
206.068	82.6
206.287	0.68
206.505	123.56
206.724	43.69
206.943	-52.56
207.162	-9.56
207.381	15.02
207.599	39.59
207.818	51.88
208.037	-73.04
208.255	10.92
208.474	64.17
208.693	55.98
208.911	-52.56
209.13	123.56
209.349	88.75
209.567	129.7
209.786	148.14
210.005	154.28
210.223	31.4
210.442	-116.05
210.661	19.11
210.879	191.14
211.098	-58.71
211.316	119.46
211.535	117.42
211.753	-11.61
211.972	47.79
212.191	21.16
212.409	31.4
212.628	178.86
212.846	4.78
213.065	82.6
213.283	119.46
213.502	45.74
213.72	4.78
213.938	60.07
214.157	-36.18
214.375	78.51
214.594	41.64
214.812	154.28
215.031	-64.85
215.249	35.5
215.467	19.11
215.686	27.31
215.904	101.03
216.122	78.51
216.341	170.66
216.559	-21.84
216.778	58.03
216.996	123.56
217.214	86.7
217.432	12.97
217.651	-9.56
217.869	49.83
218.087	4.78
218.306	25.26
218.524	146.09
218.742	12.97
218.96	45.74
219.179	53.93
219.397	53.93
219.615	193.19
219.833	113.32
220.051	-60.76
220.27	64.17
220.488	170.66
220.706	148.14
220.924	-73.04
221.142	-79.19
221.36	113.32
221.578	12.97
221.796	60.07
222.015	119.46
222.233	90.79
222.451	152.23
222.669	-27.99
222.887	70.31
223.105	-21.84
223.323	37.55
223.541	6.83
223.759	101.03
223.977	10.92
224.195	232.1
224.413	64.17
224.631	55.98
224.849	23.21
225.067	189.1
225.285	-27.99
225.503	45.74
225.721	-23.89
225.939	33.45
226.157	21.16
226.375	230.06
226.592	8.87
226.81	-21.84
227.028	191.14
227.246	84.65
227.464	82.6
227.682	55.98
227.9	98.99
228.117	6.83
228.335	37.55
228.553	45.74
228.771	10.92
228.989	78.51
229.206	96.94
229.424	41.64
229.642	78.51
229.86	-60.76
230.077	121.51
230.295	60.07
230.513	180.9
230.731	35.5
230.948	213.67
231.166	156.33
231.384	82.6
231.601	-32.08
231.819	162.47
232.037	-3.41
232.254	-21.84
232.472	41.64
232.689	-30.04
232.907	125.61
233.125	-5.46
233.342	4.78
233.56	-11.61
233.777	2.73
233.995	115.37
234.213	135.85
234.43	135.85
234.648	-9.56
234.865	17.07
235.083	55.98
235.3	15.02
235.518	76.46
235.735	176.81
235.953	119.46
236.17	6.83
236.388	76.46
236.605	17.07
236.822	162.47
237.04	119.46
237.257	76.46
237.475	-64.85
237.692	117.42
237.909	88.75
238.127	-48.47
238.344	51.88
238.562	45.74
238.779	6.83
238.996	-44.37
239.214	49.83
239.431	105.13
239.648	62.12
239.865	101.03
240.083	-1.37
240.3	23.21
240.517	45.74
240.735	-3.41
240.952	164.52
241.169	84.65
241.386	58.03
241.603	17.07
241.821	-75.09
242.038	74.41
242.255	125.61
242.472	-11.61
242.689	88.75
242.907	27.31
243.124	101.03
243.341	-7.51
243.558	-23.89
243.775	-3.41
243.992	-25.94
244.209	90.79
244.426	199.34
244.643	49.83
244.86	-13.65
245.078	78.51
245.295	55.98
245.512	25.26
245.729	8.87
245.946	41.64
246.163	80.55
246.38	51.88
246.597	64.17
246.814	-7.51
247.031	-27.99
247.248	29.35
247.464	25.26
247.681	-34.13
247.898	60.07
248.115	84.65
248.332	25.26
248.549	107.18
248.766	109.23
248.983	78.51
249.2	160.42
249.417	125.61
249.633	37.55
249.85	58.03
250.067	62.12
250.284	45.74
250.501	82.6
250.717	51.88
250.934	-44.37
251.151	12.97
251.368	27.31
251.585	-21.84
251.801	35.5
252.018	-25.94
252.235	78.51
252.451	-27.99
252.668	-3.41
252.885	115.37
253.102	76.46
253.318	21.16
253.535	62.12
253.752	-30.04
253.968	45.74
254.185	-87.38
254.401	10.92
254.618	121.51
254.835	53.93
255.051	76.46
255.268	90.79
255.484	105.13
255.701	27.31
255.917	37.55
256.134	-15.7
256.351	74.41
256.567	-46.42
256.784	-17.75
257	-46.42
257.217	92.84
257.433	117.42
257.65	17.07
257.866	139.94
258.082	31.4
258.299	-75.09
258.515	2.73
258.732	-15.7
258.948	-23.89
259.165	62.12
259.381	-93.52
259.597	117.42
259.814	33.45
260.03	-48.47
260.246	-13.65
260.463	144.04
260.679	82.6
260.895	96.94
261.112	62.12
261.328	-91.48
261.544	-3.41
261.761	176.81
261.977	-85.33
262.193	10.92
262.409	72.36
262.626	92.84
262.842	-13.65
263.058	62.12
263.274	131.75
263.49	12.97
263.707	193.19
263.923	94.89
264.139	-50.52
264.355	74.41
264.571	119.46
264.787	58.03
265.004	92.84
265.22	2.73
265.436	-5.46
265.652	-1.37
265.868	113.32
266.084	-13.65
266.3	60.07
266.516	-19.8
266.732	-21.84
266.948	43.69
267.164	23.21
267.38	45.74
267.596	92.84
267.812	133.8
268.028	82.6
268.244	-50.52
268.46	-15.7
268.676	-3.41
268.892	103.08
269.108	-42.32
269.324	-13.65
269.54	-50.52
269.756	86.7
269.972	-54.61
270.188	25.26
270.403	-36.18
270.619	37.55
270.835	82.6
271.051	19.11
271.267	55.98
271.483	-15.7
271.698	129.7
271.914	-1.37
272.13	70.31
272.346	37.55
272.562	86.7
272.777	109.23
272.993	51.88
273.209	2.73
273.425	62.12
273.64	-56.66
273.856	103.08
274.072	68.27
274.287	-19.8
274.503	82.6
274.719	121.51
274.934	53.93
275.15	-105.81
275.366	53.93
275.581	21.16
275.797	55.98
276.012	113.32
276.228	27.31
276.444	119.46
276.659	84.65
276.875	-40.28
277.09	-1.37
277.306	64.17
277.521	137.9
277.737	15.02
277.952	115.37
278.168	96.94
278.383	-5.46
278.599	144.04
278.814	29.35
279.03	-25.94
279.245	113.32
279.461	60.07
279.676	66.22
279.892	-9.56
280.107	-85.33
280.322	-15.7
280.538	64.17
280.753	-30.04
280.969	37.55
281.184	49.83
281.399	150.18
281.615	88.75
281.83	12.97
282.045	-73.04
282.26	-44.37
282.476	23.21
282.691	90.79
282.906	55.98
283.122	80.55
283.337	47.79
283.552	88.75
283.767	45.74
283.983	148.14
284.198	113.32
284.413	64.17
284.628	-136.53
284.843	17.07
285.058	148.14
285.274	62.12
285.489	-44.37
285.704	88.75
285.919	0.68
286.134	6.83
286.349	45.74
286.564	-85.33
286.779	139.94
286.995	84.65
287.21	-89.43
287.425	70.31
287.64	21.16
287.855	33.45
288.07	-97.62
288.285	148.14
288.5	164.52
288.715	51.88
288.93	39.59
289.145	-3.41
289.36	94.89
289.575	-5.46
289.79	187.05
290.004	55.98
290.219	117.42
290.434	-5.46
290.649	74.41
290.864	0.68
291.079	70.31
291.294	129.7
291.509	156.33
291.724	49.83
291.938	37.55
292.153	58.03
292.368	-3.41
292.583	66.22
292.798	160.42
293.012	74.41
293.227	84.65
293.442	10.92
293.657	88.75
293.871	144.04
294.086	115.37
294.301	172.71
294.516	113.32
294.73	-21.84
294.945	-17.75
295.16	35.5
295.374	141.99
295.589	107.18
295.804	15.02
296.018	2.73
296.233	117.42
296.447	23.21
296.662	0.68
296.877	148.14
297.091	84.65
297.306	70.31
297.52	98.99
297.735	29.35
297.949	-17.75
298.164	76.46
298.378	12.97
298.593	33.45
298.807	12.97
299.022	-5.46
299.236	199.34
299.451	-11.61
299.665	51.88
299.88	17.07
300.094	90.79
300.309	74.41
300.523	-44.37
300.737	-21.84
300.952	82.6
301.166	123.56
301.381	-21.84
301.595	21.16
301.809	47.79
302.024	-38.23
302.238	-21.84
302.452	178.86
302.667	35.5
302.881	80.55
303.095	88.75
303.309	-42.32
303.524	4.78
303.738	119.46
303.952	2.73
304.166	2.73
304.381	-83.28
304.595	178.86
304.809	-13.65
305.023	12.97
305.237	45.74
305.452	29.35
305.666	19.11
305.88	55.98
306.094	72.36
306.308	80.55
306.522	58.03
306.736	21.16
306.95	125.61
307.164	-71
307.379	62.12
307.593	162.47
307.807	199.34
308.021	146.09
308.235	84.65
308.449	-109.91
308.663	35.5
308.877	185
309.091	-1.37
309.305	43.69
309.519	-85.33
309.733	88.75
309.947	-71
310.161	125.61
310.374	119.46
310.588	66.22
310.802	2.73
311.016	8.87
311.23	123.56
311.444	19.11
311.658	-9.56
311.872	82.6
312.085	107.18
312.299	141.99
312.513	74.41
312.727	-3.41
312.941	-25.94
313.154	58.03
313.368	37.55
313.582	60.07
313.796	92.84
314.009	-25.94
314.223	121.51
314.437	107.18
314.651	92.84
314.864	72.36
315.078	43.69
315.292	43.69
315.505	-9.56
315.719	25.26
315.933	101.03
316.146	135.85
316.36	-73.04
316.573	127.66
316.787	90.79
317.001	55.98
317.214	-38.23
317.428	156.33
317.641	-56.66
317.855	43.69
318.068	58.03
318.282	58.03
318.495	168.62
318.709	82.6
318.922	35.5
319.136	156.33
319.349	92.84
319.563	-5.46
319.776	70.31
319.99	-13.65
320.203	72.36
320.417	62.12
320.63	88.75
320.843	283.3
321.057	64.17
321.27	-13.65
321.483	64.17
321.697	156.33
321.91	55.98
322.124	60.07
322.337	51.88
322.55	58.03
322.763	6.83
322.977	19.11
323.19	-103.76
323.403	0.68
323.617	68.27
323.83	96.94
324.043	53.93
324.256	90.79
324.469	-7.51
324.683	45.74
324.896	41.64
325.109	10.92
325.322	-34.13
325.535	43.69
325.748	111.27
325.962	47.79
326.175	-1.37
326.388	-30.04
326.601	135.85
326.814	-91.48
327.027	55.98
327.24	166.57
327.453	-60.76
327.666	98.99
327.879	146.09
328.092	45.74
328.305	98.99
328.518	10.92
328.731	10.92
328.944	29.35
329.157	82.6
329.37	-27.99
329.583	127.66
329.796	101.03
330.009	-73.04
330.222	60.07
330.435	105.13
330.648	39.59
330.861	58.03
331.073	152.23
331.286	74.41
331.499	92.84
331.712	-30.04
331.925	12.97
332.138	41.64
332.35	119.46
332.563	-38.23
332.776	137.9
332.989	2.73
333.202	-44.37
333.414	6.83
333.627	33.45
333.84	62.12
334.053	49.83
334.265	-19.8
334.478	23.21
334.691	35.5
334.903	62.12
335.116	-1.37
335.329	49.83
335.541	88.75
335.754	117.42
335.966	60.07
336.179	60.07
336.392	15.02
336.604	76.46
336.817	154.28
337.029	60.07
337.242	31.4
337.454	82.6
337.667	88.75
337.88	111.27
338.092	-3.41
338.305	121.51
338.517	-1.37
338.729	156.33
338.942	170.66
339.154	-19.8
339.367	-30.04
339.579	109.23
339.792	-62.8
340.004	62.12
340.217	25.26
340.429	58.03
340.641	-7.51
340.854	-3.41
341.066	76.46
341.278	109.23
341.491	133.8
341.703	109.23
341.915	-9.56
342.128	107.18
342.34	39.59
342.552	47.79
342.764	21.16
342.977	90.79
343.189	98.99
343.401	39.59
343.613	-50.52
343.826	33.45
344.038	-21.84
344.25	21.16
344.462	-1.37
344.674	60.07
344.886	-34.13
345.099	113.32
345.311	103.08
345.523	15.02
345.735	8.87
345.947	41.64
346.159	74.41
346.371	-27.99
346.583	23.21
346.795	166.57
347.007	94.89
347.219	135.85
347.431	70.31
347.643	162.47
347.855	15.02
348.067	117.42
348.279	-38.23
348.491	39.59
348.703	90.79
348.915	70.31
349.127	-48.47
349.339	62.12
349.551	-23.89
349.763	94.89
349.975	-17.75
350.187	90.79
350.399	189.1
350.61	115.37
350.822	25.26
351.034	-13.65
351.246	82.6
351.458	111.27
351.669	109.23
351.881	68.27
352.093	139.94
352.305	174.76
352.517	70.31
352.728	117.42
352.94	47.79
353.152	51.88
353.363	27.31
353.575	49.83
353.787	197.29
353.999	92.84
354.21	170.66
354.422	-1.37
354.633	49.83
354.845	39.59
355.057	-9.56
355.268	21.16
355.48	135.85
355.692	-81.24
355.903	74.41
356.115	37.55
356.326	-79.19
356.538	115.37
356.749	72.36
356.961	58.03
357.172	6.83
357.384	-21.84
357.595	271.01
357.807	-48.47
358.018	-7.51
358.23	-17.75
358.441	131.75
358.653	21.16
358.864	-15.7
359.075	-38.23
359.287	107.18
359.498	113.32
359.709	23.21
359.921	35.5
360.132	107.18
360.344	80.55
360.555	-32.08
360.766	82.6
360.977	10.92
361.189	105.13
361.4	12.97
361.611	125.61
361.823	84.65
362.034	33.45
362.245	-97.62
362.456	37.55
362.667	86.7
362.879	-50.52
363.09	111.27
363.301	29.35
363.512	-23.89
363.723	23.21
363.935	27.31
364.146	96.94
364.357	17.07
364.568	80.55
364.779	-77.14
364.99	154.28
365.201	-99.67
365.412	72.36
365.623	-73.04
365.834	29.35
366.045	72.36
366.256	62.12
366.467	119.46
366.678	21.16
366.889	86.7
367.1	49.83
367.311	105.13
367.522	45.74
367.733	78.51
367.944	53.93
368.155	66.22
368.366	43.69
368.577	103.08
368.788	119.46
368.999	-5.46
369.209	72.36
369.42	260.77
369.631	203.43
369.842	96.94
370.053	-1.37
370.264	139.94
370.474	-21.84
370.685	10.92
370.896	84.65
371.107	113.32
371.317	53.93
371.528	58.03
371.739	185
371.95	19.11
372.16	39.59
372.371	33.45
372.582	-23.89
372.792	-11.61
373.003	47.79
373.214	115.37
373.424	115.37
373.635	-15.7
373.846	68.27
374.056	47.79
374.267	51.88
374.477	139.94
374.688	19.11
374.898	164.52
375.109	82.6
375.319	53.93
375.53	121.51
375.74	64.17
375.951	39.59
376.161	12.97
376.372	96.94
376.582	-42.32
376.793	117.42
377.003	-73.04
377.214	15.02
377.424	103.08
377.635	76.46
377.845	-38.23
378.055	96.94
378.266	-60.76
378.476	66.22
378.686	41.64
378.897	-7.51
379.107	98.99
379.317	8.87
379.528	-50.52
379.738	125.61
379.948	10.92
380.158	127.66
380.369	82.6
380.579	37.55
380.789	23.21
380.999	82.6
381.21	109.23
381.42	219.82
381.63	4.78
381.84	76.46
382.05	-11.61
382.261	55.98
382.471	109.23
382.681	-3.41
382.891	148.14
383.101	78.51
383.311	-66.9
383.521	-23.89
383.731	111.27
383.941	51.88
384.151	49.83
384.361	92.84
384.571	17.07
384.781	131.75
384.991	195.24
385.201	254.63
385.411	154.28
385.621	62.12
385.831	31.4
386.041	141.99
386.251	6.83
386.461	70.31
386.671	78.51
386.881	45.74
387.091	41.64
387.301	84.65
387.511	45.74
387.72	84.65
387.93	148.14
388.14	-19.8
388.35	98.99
388.56	66.22
388.769	58.03
388.979	23.21
389.189	37.55
389.399	53.93
389.609	109.23
389.818	156.33
390.028	43.69
390.238	107.18
390.447	37.55
390.657	90.79
390.867	21.16
391.076	-36.18
391.286	76.46
391.496	74.41
391.705	74.41
391.915	182.95
392.125	123.56
392.334	68.27
392.544	160.42
392.753	90.79
392.963	2.73
393.172	25.26
393.382	51.88
393.591	215.72
393.801	41.64
394.01	119.46
394.22	123.56
394.429	12.97
394.639	51.88
394.848	29.35
395.058	115.37
395.267	15.02
395.477	115.37
395.686	60.07
395.895	199.34
396.105	211.62
396.314	88.75
396.524	12.97
396.733	-42.32
396.942	80.55
397.152	51.88
397.361	127.66
397.57	86.7
397.78	10.92
397.989	43.69
398.198	185
398.407	78.51
398.617	119.46
398.826	35.5
399.035	-9.56
399.244	121.51
399.453	41.64
399.663	33.45
399.872	84.65
400.081	4.78
400.29	150.18
400.499	-36.18
400.708	117.42
400.917	88.75
401.127	47.79
401.336	-50.52
401.545	277.16
401.754	129.7
401.963	90.79
402.172	-21.84
402.381	-15.7
402.59	29.35
402.799	19.11
403.008	27.31
403.217	78.51
403.426	68.27
403.635	10.92
403.844	58.03
404.053	98.99
404.262	8.87
404.471	230.06
404.68	109.23
404.888	27.31
405.097	86.7
405.306	35.5
405.515	17.07
405.724	49.83
405.933	109.23
406.142	88.75
406.35	164.52
406.559	41.64
406.768	88.75
406.977	144.04
407.185	115.37
407.394	113.32
407.603	17.07
407.812	31.4
408.02	180.9
408.229	60.07
408.438	111.27
408.646	39.59
408.855	58.03
409.064	105.13
409.272	-50.52
409.481	88.75
409.69	33.45
409.898	15.02
410.107	123.56
410.315	109.23
410.524	-42.32
410.733	96.94
410.941	45.74
411.15	174.76
411.358	41.64
411.567	74.41
411.775	47.79
411.984	129.7
412.192	55.98
412.401	58.03
412.609	154.28
412.818	137.9
413.026	66.22
413.234	86.7
413.443	53.93
413.651	-11.61
413.86	35.5
414.068	170.66
414.276	115.37
414.485	35.5
414.693	187.05
414.901	205.48
415.11	33.45
415.318	66.22
415.526	68.27
415.734	70.31
415.943	92.84
416.151	86.7
416.359	70.31
416.567	35.5
416.776	119.46
416.984	66.22
417.192	107.18
417.4	37.55
417.608	62.12
417.817	-11.61
418.025	96.94
418.233	90.79
418.441	37.55
418.649	-27.99
418.857	74.41
419.065	144.04
419.273	19.11
419.481	70.31
419.689	82.6
419.897	-17.75
420.105	41.64
420.313	156.33
420.521	154.28
420.729	236.2
420.937	21.16
421.145	-7.51
421.353	84.65
421.561	281.25
421.769	82.6
421.977	55.98
422.185	96.94
422.393	70.31
422.601	131.75
422.809	101.03
423.017	133.8
423.224	45.74
423.432	84.65
423.64	131.75
423.848	92.84
424.056	-13.65
424.263	111.27
424.471	74.41
424.679	217.77
424.887	39.59
425.094	193.19
425.302	127.66
425.51	29.35
425.718	98.99
425.925	111.27
426.133	49.83
426.341	299.69
426.548	70.31
426.756	41.64
426.964	53.93
427.171	15.02
427.379	60.07
427.586	141.99
427.794	139.94
428.001	111.27
428.209	111.27
428.417	144.04
428.624	86.7
428.832	105.13
429.039	209.58
429.247	66.22
429.454	115.37
429.662	230.06
429.869	166.57
430.076	80.55
430.284	135.85
430.491	219.82
430.699	197.29
430.906	174.76
431.114	228.01
431.321	105.13
431.528	150.18
431.736	225.96
431.943	160.42
432.15	209.58
432.358	225.96
432.565	289.45
432.772	86.7
432.979	234.15
433.187	111.27
433.394	225.96
433.601	109.23
433.808	293.54
434.016	228.01
434.223	250.53
434.43	250.53
434.637	346.79
434.844	324.26
435.052	154.28
435.259	297.64
435.466	389.8
435.673	365.22
435.88	314.02
436.087	381.6
436.294	395.94
436.501	397.99
436.708	281.25
436.915	365.22
437.122	406.18
437.329	330.41
437.537	336.55
437.743	404.13
437.95	471.72
438.157	498.34
438.364	512.67
438.571	443.04
438.778	467.62
438.985	518.82
439.192	492.2
439.399	465.57
439.606	539.3
439.813	617.12
440.02	649.89
440.227	813.73
440.433	639.65
440.64	623.27
440.847	594.59
441.054	621.22
441.261	860.83
441.467	795.29
441.674	737.95
441.881	801.44
442.088	819.87
442.294	864.93
442.501	1006.24
442.708	991.9
442.914	961.18
443.121	1000.09
443.328	1018.52
443.534	1079.96
443.741	1096.35
443.948	959.13
444.154	1127.07
444.361	1329.81
444.568	1104.54
444.774	1278.62
444.981	1274.52
445.187	1344.15
445.394	1372.82
445.6	1376.92
445.807	1573.52
446.013	1452.69
446.22	1520.28
446.426	1659.54
446.633	1759.89
446.839	2017.93
447.046	1735.31
447.252	1989.26
447.459	1966.73
447.665	2083.47
447.871	2118.28
448.078	2312.84
448.284	2245.26
448.491	2318.98
448.697	2534.02
448.903	2603.65
449.11	2650.75
449.316	2550.4
449.522	2851.46
449.728	2785.92
449.935	3046.01
450.141	3093.12
450.347	3134.07
450.553	3105.4
450.76	3254.9
450.966	3510.9
451.172	3658.35
451.378	3850.86
451.584	3711.6
451.791	3955.31
451.997	4121.2
452.203	4418.15
452.409	4528.74
452.615	4719.2
452.821	4358.76
453.027	4581.99
453.233	5233.24
453.44	5106.27
453.646	5196.38
453.852	5683.8
454.058	5739.09
454.264	5921.36
454.47	6275.66
454.676	6287.95
454.882	6857.28
455.088	6683.2
455.294	7125.57
455.5	7270.97
455.705	8012.34
455.911	7905.84
456.117	7854.64
456.323	8346.16
456.529	8354.35
456.735	9140.77
456.941	9302.56
457.147	9587.22
457.352	10041.87
457.558	10324.49
457.764	10881.54
457.97	11149.82
458.176	11573.75
458.381	12173.81
458.587	12354.03
458.793	13019.62
458.999	12761.58
459.204	14584.27
459.41	14928.33
459.616	14911.94
459.821	15774.14
460.027	16419.25
460.233	17129.89
460.438	17330.59
460.644	18530.7
460.85	18223.51
461.055	19022.22
461.261	19984.76
461.466	19579.26
461.672	19739.01
461.878	22452.56
462.083	22286.68
462.289	22743.38
462.494	23570.76
462.7	23826.75
462.905	24248.63
463.111	26155.29
463.316	27101.45
463.522	27537.67
463.727	28553.46
463.932	29892.83
464.138	30673.11
464.343	31742.15
464.549	32301.25
464.754	34101.41
464.959	35268.75
465.165	35907.72
465.37	35719.31
465.575	35369.1
465.781	37759.08
465.986	39346.26
466.191	38465.63
466.397	38830.17
466.602	37972.07
466.807	40155.21
467.012	40714.3
467.218	41334.84
467.423	41646.13
467.628	42813.47
467.833	45031.42
468.038	44046.35
468.244	43491.35
468.449	45477.88
468.654	44449.8
468.859	44533.76
469.064	44804.1
469.269	43927.56
469.474	43946
469.679	45066.24
469.885	44038.15
470.09	45121.53
470.295	44201.99
470.5	43624.46
470.705	44349.45
470.91	42676.26
471.115	42057.77
471.32	43087.9
471.525	42649.63
471.73	41715.76
471.935	41685.04
472.139	39997.51
472.344	40187.97
472.549	39856.2
472.754	39151.7
472.959	38482.02
473.164	36845.69
473.369	36520.06
473.574	37634.16
473.778	36882.55
473.983	36198.53
474.188	35586.19
474.393	33913
474.598	33822.89
474.802	32870.58
475.007	32837.81
475.212	32135.36
475.417	31117.52
475.621	30435.55
475.826	30109.92
476.031	29653.22
476.235	29106.41
476.44	29448.43
476.645	28739.83
476.849	28094.72
477.054	27691.27
477.259	26917.14
477.463	26937.62
477.668	26022.17
477.872	26282.27
478.077	25389.35
478.282	24639.79
478.486	25004.33
478.691	24531.25
478.895	24019.26
479.1	23877.95
479.304	24152.38
479.509	23101.77
479.713	23490.88
479.918	22772.05
480.122	22489.43
480.326	22667.6
480.531	22565.2
480.735	22180.18
480.94	21477.73
481.144	22618.45
481.348	21305.7
481.553	21367.14
481.757	21008.75
481.961	20986.22
482.166	21043.56
482.37	20978.03
482.574	20519.28
482.778	20377.97
482.983	20605.3
483.187	20081.02
483.391	20146.55
483.595	20062.58
483.8	19382.66
484.004	19806.59
484.208	19421.57
484.412	19286.4
484.616	19022.22
484.821	18876.81
485.025	18200.98
485.229	18475.41
485.433	18133.4
485.637	18121.11
485.841	17887.64
486.045	17373.6
486.249	17451.42
486.453	17021.35
486.657	16896.42
486.861	16669.1
487.065	16257.46
487.269	16251.31
487.473	15626.68
487.677	16054.71
487.881	15477.18
488.085	15194.56
488.289	15129.03
488.493	14578.12
488.697	14518.73
488.901	14428.62
489.105	14033.36
489.309	13437.41
489.512	13642.2
489.716	13369.82
489.92	12884.45
490.124	12653.03
490.328	13021.67
490.531	12235.25
490.735	12470.76
490.939	12065.27
491.143	11883
491.346	11581.95
491.55	11430.4
491.754	11264.51
491.958	11086.34
492.161	10904.07
492.365	10838.53
492.569	10371.6
492.772	10447.37
492.976	10375.69
493.18	10039.83
493.383	10045.97
493.587	9925.14
493.79	9904.66
493.994	9433.63
494.197	9775.64
494.401	9712.15
494.605	9495.07
494.808	9349.66
495.012	9370.14
495.215	9433.63
495.419	9214.49
495.622	8962.59
495.825	8958.5
496.029	8765.99
496.232	9093.66
496.436	8868.39
496.639	9126.43
496.843	8940.07
497.046	8854.05
497.249	8964.64
497.453	8915.49
497.656	8854.05
497.859	8727.08
498.063	9075.23
498.266	8997.41
498.469	8854.05
498.673	8782.37
498.876	8800.8
499.079	8956.45
499.282	8905.25
499.485	9290.27
499.689	9103.9
499.892	9359.9
500.095	9005.6
500.298	9294.36
500.501	9054.75
500.705	9501.21
500.908	9486.87
501.111	9533.98
501.314	9574.94
501.517	9984.53
501.72	9916.95
501.923	9822.74
502.126	10043.92
502.329	10123.79
502.532	10351.12
502.735	10375.69
502.938	10414.6
503.141	10506.76
503.344	10435.08
503.547	10830.34
503.75	11026.95
503.953	11080.19
504.156	11151.87
504.359	11110.91
504.562	11473.4
504.765	11950.58
504.968	11872.76
505.17	11977.2
505.373	12182
505.576	12284.4
505.779	12560.88
505.982	12679.66
506.185	13205.99
506.387	13171.17
506.59	13355.49
506.793	13763.03
506.996	13890.01
507.198	14408.14
507.401	14410.19
507.604	14682.57
507.807	15067.59
508.009	15100.36
508.212	15399.36
508.415	15880.63
508.617	16155.06
508.82	16388.53
509.022	16538.03
509.225	17346.98
509.428	17584.54
509.63	17648.03
509.833	17865.11
510.035	18655.63
510.238	18885
510.44	19190.15
510.643	19888.51
510.845	20418.93
511.048	20318.58
511.25	20982.12
511.453	21248.36
511.655	22245.72
511.858	22137.18
512.06	22802.77
512.262	23335.24
512.465	23757.12
512.667	24611.12
512.87	24527.16
513.072	25383.21
513.274	25917.73
513.477	26364.18
513.679	27302.15
513.881	27707.65
514.084	28457.21
514.286	28874.99
514.488	29169.9
514.69	30632.15
514.893	30507.23
515.095	31094.99
515.297	31938.76
515.499	32258.24
515.701	33423.53
515.904	34062.5
516.106	34441.37
516.308	35578
516.51	35817.61
516.712	36294.78
516.914	37359.73
517.116	38109.29
517.318	38430.82
517.52	39506
517.722	39528.53
517.925	40706.11
518.127	41154.61
518.329	42031.15
518.531	42051.62
518.733	43157.53
518.935	44068.87
519.136	44310.53
519.338	45275.13
519.54	45998.06
519.742	46761.95
519.944	47323.1
520.146	48043.98
520.348	48474.06
520.55	48678.85
520.752	49338.3
520.954	50511.78
521.155	50464.68
521.357	51382.17
521.559	51849.11
521.761	52631.43
521.963	52645.77
522.164	53196.67
522.366	53757.81
522.568	54380.4
522.77	54669.16
522.971	55172.96
523.173	54894.44
523.375	55261.02
523.576	55732.06
523.778	55400.29
523.98	56362.83
524.181	56393.55
524.383	56725.32
524.584	56764.23
524.786	57143.11
524.988	56907.59
525.189	57538.36
525.391	57640.76
525.592	57114.44
525.794	57544.51
525.995	57126.72
526.197	56833.86
526.398	56809.29
526.6	56885.06
526.801	57112.39
527.003	57038.66
527.204	57046.85
527.406	56551.24
527.607	55988.05
527.808	56543.05
528.01	55312.22
528.211	55355.23
528.412	56067.92
528.614	55390.05
528.815	54902.63
529.016	55189.34
529.218	53956.47
529.419	53503.87
529.62	52750.21
529.822	52602.76
530.023	52223.89
530.224	51668.89
530.425	51390.36
530.626	50304.94
530.828	50098.09
531.029	50218.92
531.23	48922.56
531.431	48467.91
531.632	48498.63
531.833	47853.52
532.035	46921.69
532.236	46467.05
532.437	46352.36
532.638	45658.1
532.839	45012.99
533.04	44705.79
533.241	43677.71
533.442	44005.39
533.643	42706.97
533.844	41916.46
534.045	41664.56
534.246	40699.97
534.447	40544.32
534.648	39856.2
534.849	39952.46
535.05	38623.33
535.251	38602.85
535.451	37982.31
535.652	37378.16
535.853	36696.19
536.054	36821.11
536.255	36163.71
536.456	35264.66
536.657	35369.1
536.857	34637.98
537.058	33839.27
537.259	33958.05
537.46	33398.96
537.66	32977.08
537.861	32645.3
538.062	31733.96
538.263	31664.33
538.463	31062.22
538.664	30877.91
538.865	30820.56
539.065	29919.46
539.266	29716.71
539.466	29282.54
539.667	28614.9
539.868	28811.51
540.068	28211.45
540.269	27992.32
540.469	27461.9
540.67	27195.66
540.87	27019.53
541.071	26462.49
541.271	26380.57
541.472	25970.97
541.672	25608.48
541.873	25360.68
542.073	24672.56
542.274	25151.79
542.474	24725.81
542.675	24205.63
542.875	24248.63
543.075	23687.49
543.276	23234.89
543.476	23486.79
543.676	22710.61
543.877	22620.5
544.077	22315.35
544.277	22462.8
544.478	21877.08
544.678	21813.6
544.878	21768.54
545.078	21342.56
545.279	20818.28
545.479	20582.77
545.679	20420.98
545.879	20515.19
546.079	20099.45
546.28	19908.99
546.48	19552.64
546.68	19648.89
546.88	19220.87
547.08	19341.7
547.28	18762.12
547.48	18344.34
547.68	18723.21
547.88	17807.77
548.081	17930.65
548.281	17553.82
548.481	17275.3
548.681	17246.63
548.881	17121.7
549.081	17013.16
549.28	16611.76
549.48	16470.45
549.68	16259.51
549.88	16067
550.08	15544.77
550.28	15659.45
550.48	15208.9
550.68	14870.98
550.88	14733.77
551.08	14733.77
551.279	14827.98
551.479	13922.77
551.679	14045.65
551.879	13904.34
552.079	13472.22
552.278	13310.43
552.478	13445.6
552.678	13027.81
552.878	13203.94
553.077	12583.4
553.277	12579.31
553.477	12509.68
553.676	12087.79
553.876	11973.11
554.076	11733.5
554.275	11610.62
554.475	11192.83
554.674	11137.54
554.874	11158.02
555.074	10918.4
555.273	10738.18
555.473	10568.2
555.672	10246.67
555.872	10162.7
556.071	10197.52
556.271	10117.65
556.47	9574.94
556.67	9470.49
556.869	9216.54
557.068	9261.6
557.268	9048.61
557.467	9001.51
557.667	8847.91
557.866	8737.32
558.065	8614.44
558.265	8368.68
558.464	8094.26
558.663	8294.96
558.863	7823.92
559.062	7977.52
559.261	7739.96
559.461	7866.93
559.66	7629.37
559.859	7510.58
560.058	7187.01
560.258	7043.65
560.457	6976.06
560.656	6933.06
560.855	6789.7
561.054	6705.73
561.253	6597.19
561.453	6556.23
561.652	6556.23
561.851	6484.55
562.05	6240.84
562.249	5999.18
562.448	6289.99
562.647	5810.77
562.846	6027.85
563.045	5931.6
563.244	5681.75
563.443	5722.71
563.642	5499.48
563.841	5554.77
564.04	5311.07
564.239	5272.15
564.438	5317.21
564.637	5182.04
564.836	4964.96
565.035	5108.32
565.234	5036.64
565.432	4784.74
565.631	4766.31
565.83	4942.43
566.029	4665.96
566.228	4678.24
566.427	4520.55
566.625	4452.97
566.824	4446.82
567.023	4371.05
567.222	4321.9
567.42	4229.74
567.619	4147.82
567.818	4127.34
568.016	4207.21
568.215	3943.02
568.414	4012.65
568.612	3828.34
568.811	3783.28
569.01	3721.84
569.208	3754.61
569.407	3777.14
569.605	3678.83
569.804	3615.35
570.002	3498.61
570.201	3314.3
570.4	3465.85
570.598	3310.2
570.797	3363.45
570.995	3291.77
571.193	3142.27
571.392	3213.95
571.59	3125.88
571.789	3322.49
571.987	3295.86
572.186	3066.49
572.384	2921.09
572.582	2953.85
572.781	3097.21
572.979	2763.39
573.177	2753.15
573.376	2761.34
573.574	2771.58
573.772	2620.03
573.971	2665.09
574.169	2499.2
574.367	2474.63
574.565	2441.86
574.763	2517.64
574.962	2454.15
575.16	2380.42
575.358	2329.22
575.556	2402.95
575.754	2312.84
575.952	2218.63
576.151	2232.97
576.349	2239.11
576.547	2060.94
576.745	2220.68
576.943	2181.77
577.141	1919.63
577.339	1899.15
577.537	2009.74
577.735	2003.6
577.933	2028.17
578.131	1893.01
578.329	1950.35
578.527	1686.16
578.725	1909.39
578.923	1657.49
579.121	1876.62
579.319	1667.73
579.516	1694.35
579.714	1886.86
579.912	1657.49
580.11	1596.05
580.308	1575.57
580.506	1581.71
580.704	1440.4
580.901	1491.6
581.099	1530.52
581.297	1481.36
581.495	1544.85
581.692	1448.6
581.89	1528.47
582.088	1428.12
582.285	1452.69
582.483	1421.97
582.681	1385.11
582.878	1245.85
583.076	1421.97
583.274	1301.14
583.471	1307.29
583.669	1292.95
583.866	1198.74
584.064	1233.56
584.262	1198.74
584.459	1165.98
584.657	1116.83
584.854	1206.94
585.052	1106.59
585.249	1170.07
585.447	1176.22
585.644	948.89
585.841	1206.94
586.039	1112.73
586.236	1163.93
586.434	963.23
586.631	971.42
586.828	1084.06
587.026	1075.87
587.223	993.95
587.42	1043.1
587.618	944.8
587.815	1071.77
588.012	918.17
588.21	885.41
588.407	979.61
588.604	916.12
588.801	840.35
588.999	895.64
589.196	957.08
589.393	735.9
589.59	864.93
589.787	916.12
589.984	848.54
590.182	838.3
590.379	758.43
590.576	805.53
590.773	709.28
590.97	805.53
591.167	797.34
591.364	807.58
591.561	907.93
591.758	967.32
591.955	873.12
592.152	815.77
592.349	774.81
592.546	758.43
592.743	754.34
592.94	754.34
593.137	850.59
593.334	866.97
593.531	815.77
593.727	807.58
593.924	856.73
594.121	789.15
594.318	719.52
594.515	881.31
594.712	944.8
594.908	942.75
595.105	811.68
595.302	826.01
595.499	944.8
595.696	1030.81
595.892	783.01
596.089	866.97
596.286	864.93
596.482	1012.38
596.679	864.93
596.876	932.51
597.072	1075.87
597.269	993.95
597.466	1088.15
597.662	1010.33
597.859	1047.19
598.055	1116.83
598.252	1262.23
598.448	1247.9
598.645	1467.03
598.841	1243.8
599.038	1448.6
599.234	1507.99
599.431	1368.73
599.627	1528.47
599.824	1618.58
600.02	1647.25
600.217	1634.96
600.413	1811.09
600.609	1733.26
600.806	2151.05
601.002	1884.81
601.198	2022.03
601.395	2187.91
601.591	2216.58
601.787	2171.53
601.984	2380.42
602.18	2509.44
602.376	2472.58
602.572	2562.69
602.769	2740.86
602.965	2824.83
603.161	2765.44
603.357	2976.38
603.553	3080.83
603.75	3033.72
603.946	3281.53
604.142	3453.56
604.338	3517.05
604.534	3551.86
604.73	3781.23
604.926	3811.95
605.122	4098.67
605.318	4078.19
605.514	4282.99
605.71	4168.3
605.906	4455.01
606.102	4514.41
606.298	4715.11
606.494	4876.9
606.69	5151.32
606.886	5372.5
607.082	5159.52
607.278	5253.72
607.474	5706.32
607.67	5845.59
607.866	5743.19
608.062	6244.94
608.257	6298.19
608.453	6386.25
608.649	6785.6
608.845	6601.29
609.041	6808.13
609.236	7238.2
609.432	7252.54
609.628	7793.2
609.824	7830.07
610.019	7701.05
610.215	8018.48
610.411	8489.51
610.606	8491.56
610.802	8825.38
610.998	8929.83
611.193	9384.48
611.389	9325.08
611.584	9798.17
611.78	9896.47
611.976	10338.83
612.171	10721.8
612.367	10707.46
612.562	11102.72
612.758	11219.46
612.953	11575.8
613.149	11844.09
613.344	12098.03
613.539	12521.96
613.735	12816.87
613.93	13027.81
614.126	13433.31
614.321	14010.84
614.517	14410.19
614.712	14463.44
614.907	14946.76
615.103	15280.58
615.298	15573.44
615.493	16105.91
615.688	16452.02
615.884	17158.56
616.079	17189.28
616.274	17854.87
616.47	18198.93
616.665	18764.17
616.86	19067.27
617.055	20011.39
617.25	19890.56
617.445	20769.13
617.641	20914.54
617.836	21746.01
618.031	21789.02
618.226	22679.89
618.421	23042.38
618.616	23902.53
618.811	24086.84
619.006	24879.41
619.201	25329.96
619.396	25889.06
619.591	25950.49
619.786	27341.07
619.981	27392.26
620.176	28133.63
620.371	28698.87
620.566	29079.79
620.761	29958.37
620.956	30638.3
621.151	30632.15
621.346	31731.91
621.541	31903.94
621.735	33024.18
621.93	33091.76
622.125	33853.61
622.32	34117.79
622.515	34947.22
622.709	35592.33
622.904	36323.46
623.099	36870.26
623.294	37818.47
623.488	38164.58
623.683	38912.09
623.878	38881.37
624.072	39946.31
624.267	40779.84
624.462	41265.21
624.656	41291.83
624.851	42788.89
625.046	42758.17
625.24	43401.24
625.435	44075.02
625.629	44888.06
625.824	45209.59
626.018	45942.77
626.213	46045.16
626.407	46954.46
626.602	46876.64
626.796	47679.44
626.991	48216.01
627.185	48441.29
627.38	48744.39
627.574	48728
627.768	49143.74
627.963	49780.66
628.157	49323.96
628.352	50192.3
628.546	49471.42
628.74	50399.15
628.935	49338.3
629.129	49913.78
629.323	49055.68
629.517	49469.37
629.712	48859.07
629.906	49160.12
630.1	47925.2
630.294	48007.12
630.489	47575
630.683	47323.1
630.877	46073.84
631.071	45367.29
631.265	44511.24
631.459	43745.3
631.653	42833.95
631.848	42450.98
632.042	40970.3
632.236	40437.83
632.43	38695
632.624	38561.89
632.818	37009.53
633.012	36294.78
633.206	35031.19
633.4	34171.04
633.594	32233.66
633.788	31336.65
633.982	30494.94
634.176	29595.88
634.369	27998.46
634.563	26954
634.757	26052.89
634.951	25534.76
635.145	24279.35
635.339	23413.06
635.533	22460.76
635.726	21725.54
635.92	20629.87
636.114	19736.96
636.308	18885
636.501	18475.41
636.695	17363.36
636.889	16552.37
637.083	16120.24
637.276	15671.74
637.47	14692.81
637.664	14240.21
637.857	13806.04
638.051	13380.06
638.244	12601.83
638.438	12147.19
638.632	11792.89
638.825	11102.72
639.019	10930.69
639.212	10244.62
639.406	9882.13
639.599	9466.39
639.793	9253.41
639.986	8653.35
640.18	8426.03
640.373	7948.85
640.567	7785.01
640.76	7285.31
640.954	7004.74
641.147	6853.19
641.34	6701.64
641.534	6435.4
641.727	6158.92
641.92	6003.28
642.114	5702.23
642.307	5354.07
642.5	5255.77
642.694	5069.41
642.887	4950.62
643.08	4862.56
643.273	4616.8
643.467	4371.05
643.66	4151.92
643.853	3928.69
644.046	3969.65
644.239	3732.08
644.432	3519.09
644.626	3418.74
644.819	3205.75
645.012	3224.19
645.205	3146.36
645.398	3029.63
645.591	2839.17
645.784	2663.04
645.977	2534.02
646.17	2386.57
646.363	2441.86
646.556	2189.96
646.749	2046.6
646.942	2093.71
647.135	2126.47
647.328	2028.17
647.521	1901.2
647.714	1809.04
647.907	1737.36
648.099	1702.54
648.292	1684.11
648.485	1727.12
648.678	1569.43
648.871	1481.36
649.064	1532.56
649.256	1331.86
649.449	1182.36
649.642	1170.07
649.835	1241.75
650.027	1208.98
650.22	1227.42
650.413	1071.77
650.605	985.76
650.798	920.22
650.991	1028.76
651.183	932.51
651.376	1008.28
651.568	909.98
651.761	811.68
651.954	889.5
652.146	758.43
652.339	856.73
652.531	862.88
652.724	772.77
652.916	707.23
653.109	549.54
653.301	740
653.494	658.08
653.686	670.37
653.879	680.61
654.071	684.7
654.263	494.24
654.456	623.27
654.648	645.79
654.84	617.12
655.033	543.39
655.225	590.5
655.417	377.51
655.61	639.65
655.802	535.2
655.994	570.02
656.186	447.14
656.379	531.11
656.571	363.17
656.763	334.5
656.955	385.7
657.148	344.74
657.34	524.96
657.532	357.03
657.724	330.41
657.916	332.45
658.108	406.18
658.3	463.52
658.492	453.28
658.684	305.83
658.876	410.28
659.068	234.15
659.26	279.21
659.452	271.01
659.644	326.31
659.836	436.9
660.028	320.17
660.22	271.01
660.412	318.12
660.604	275.11
660.796	252.58
660.988	336.55
661.18	299.69
661.372	367.27
661.563	225.96
661.755	262.82
661.947	197.29
662.139	156.33
662.331	348.84
662.522	180.9
662.714	137.9
662.906	133.8
663.097	232.1
663.289	166.57
663.481	86.7
663.673	215.72
663.864	264.87
664.056	316.07
664.247	137.9
664.439	201.38
664.631	232.1
664.822	256.68
665.014	197.29
665.205	129.7
665.397	103.08
665.588	211.62
665.78	115.37
665.971	230.06
666.163	162.47
666.354	180.9
666.546	127.66
666.737	201.38
666.929	193.19
667.12	197.29
667.311	295.59
667.503	209.58
667.694	256.68
667.885	266.92
668.077	232.1
668.268	146.09
668.459	230.06
668.651	223.91
668.842	228.01
669.033	242.34
669.224	88.75
669.416	352.93
669.607	225.96
669.798	144.04
669.989	254.63
670.18	166.57
670.371	234.15
670.563	103.08
670.754	232.1
670.945	182.95
671.136	238.25
671.327	168.62
671.518	150.18
671.709	340.65
671.9	248.49
672.091	377.51
672.282	223.91
672.473	279.21
672.664	189.1
672.855	225.96
673.046	209.58
673.237	246.44
673.428	236.2
673.619	281.25
673.809	213.67
674	314.02
674.191	291.49
674.382	213.67
674.573	271.01
674.764	246.44
674.954	346.79
675.145	141.99
675.336	133.8
675.527	135.85
675.717	156.33
675.908	209.58
676.099	246.44
676.289	197.29
676.48	133.8
676.671	158.38
676.861	160.42
677.052	266.92
677.243	199.34
677.433	213.67
677.624	309.93
677.814	242.34
678.005	236.2
678.195	361.13
678.386	185
678.576	256.68
678.767	148.14
678.957	346.79
679.148	322.21
679.338	318.12
679.529	338.6
679.719	275.11
679.909	381.6
680.1	314.02
680.29	285.35
680.481	230.06
680.671	402.08
680.861	248.49
681.052	352.93
681.242	287.4
681.432	397.99
681.622	305.83
681.813	238.25
682.003	271.01
682.193	305.83
682.383	275.11
682.573	322.21
682.764	240.3
682.954	199.34
683.144	395.94
683.334	293.54
683.524	318.12
683.714	322.21
683.904	369.32
684.094	303.78
684.284	320.17
684.474	397.99
684.664	365.22
684.854	305.83
685.044	301.73
685.234	354.98
685.424	330.41
685.614	236.2
685.804	494.24
685.994	387.75
686.184	354.98
686.374	326.31
686.564	346.79
686.753	303.78
686.943	230.06
687.133	340.65
687.323	264.87
687.513	342.69
687.702	316.07
687.892	375.46
688.082	387.75
688.272	354.98
688.461	275.11
688.651	481.96
688.841	373.41
689.03	260.77
689.22	213.67
689.41	367.27
689.599	381.6
689.789	336.55
689.979	383.65
690.168	307.88
690.358	428.71
690.547	314.02
690.737	275.11
690.926	367.27
691.116	348.84
691.305	414.37
691.495	271.01
691.684	232.1
691.874	379.56
692.063	342.69
692.252	342.69
692.442	340.65
692.631	225.96
692.82	266.92
693.01	334.5
693.199	266.92
693.388	307.88
693.578	326.31
693.767	309.93
693.956	393.89
694.146	334.5
694.335	397.99
694.524	309.93
694.713	367.27
694.902	273.06
695.092	240.3
695.281	293.54
695.47	279.21
695.659	193.19
695.848	340.65
696.037	248.49
696.226	385.7
696.415	291.49
696.604	340.65
696.793	354.98
696.982	225.96
697.171	422.56
697.36	240.3
697.549	285.35
697.738	240.3
697.927	322.21
698.116	275.11
698.305	256.68
698.494	238.25
698.683	242.34
698.872	486.05
699.061	230.06
699.25	277.16
699.438	275.11
699.627	281.25
699.816	428.71
700.005	215.72
700.193	162.47
700.382	307.88
700.571	248.49
700.76	328.36
700.948	387.75
701.137	285.35
701.326	311.97
701.514	164.52
701.703	250.53
701.892	244.39
702.08	404.13
702.269	334.5
702.457	119.46
702.646	301.73
702.834	258.73
703.023	379.56
703.212	318.12
703.4	236.2
703.589	205.48
703.777	205.48
703.965	246.44
704.154	264.87
704.342	115.37
704.531	258.73
704.719	350.89
704.907	371.37
705.096	191.14
705.284	189.1
705.472	328.36
705.661	273.06
705.849	340.65
706.037	295.59
706.226	314.02
706.414	262.82
706.602	168.62
706.79	336.55
706.979	176.81
707.167	299.69
707.355	152.23
707.543	266.92
707.731	273.06
707.919	279.21
708.107	271.01
708.296	193.19
708.484	252.58
708.672	275.11
708.86	295.59
709.048	316.07
709.236	139.94
709.424	314.02
709.612	334.5
709.8	72.36
709.988	260.77
710.176	346.79
710.364	275.11
710.551	199.34
710.739	258.73
710.927	207.53
711.115	234.15
711.303	258.73
711.491	328.36
711.679	166.57
711.866	367.27
712.054	205.48
712.242	285.35
712.43	402.08
712.617	311.97
712.805	381.6
712.993	279.21
713.181	107.18
713.368	301.73
713.556	223.91
713.744	271.01
713.931	455.33
714.119	297.64
714.306	283.3
714.494	266.92
714.682	318.12
714.869	258.73
715.057	314.02
715.244	146.09
715.432	307.88
715.619	225.96
715.807	285.35
715.994	195.24
716.182	277.16
716.369	420.52
716.556	375.46
716.744	164.52
716.931	209.58
717.119	295.59
717.306	266.92
717.493	393.89
717.681	164.52
717.868	225.96
718.055	338.6
718.242	303.78
718.43	303.78
718.617	330.41
718.804	336.55
718.991	311.97
719.179	330.41
719.366	303.78
719.553	301.73
719.74	293.54
719.927	322.21
720.114	281.25
720.301	248.49
720.488	258.73
720.676	189.1
720.863	416.42
721.05	369.32
721.237	389.8
721.424	373.41
721.611	322.21
721.798	205.48
721.985	252.58
722.172	258.73
722.358	297.64
722.545	377.51
722.732	311.97
722.919	406.18
723.106	361.13
723.293	299.69
723.48	225.96
723.667	283.3
723.853	363.17
724.04	324.26
724.227	373.41
724.414	289.45
724.6	404.13
724.787	426.66
724.974	502.43
725.161	361.13
725.347	189.1
725.534	279.21
725.72	369.32
725.907	342.69
726.094	354.98
726.28	391.84
726.467	320.17
726.653	248.49
726.84	418.47
727.027	473.76
727.213	295.59
727.4	404.13
727.586	369.32
727.773	424.61
727.959	354.98
728.145	309.93
728.332	340.65
728.518	303.78
728.705	371.37
728.891	397.99
729.077	340.65
729.264	334.5
729.45	348.84
729.636	395.94
729.823	328.36
730.009	420.52
730.195	400.04
730.382	389.8
730.568	277.16
730.754	316.07
730.94	365.22
731.126	402.08
731.313	428.71
731.499	303.78
731.685	434.85
731.871	342.69
732.057	365.22
732.243	453.28
732.429	352.93
732.615	391.84
732.801	338.6
732.987	369.32
733.173	367.27
733.359	416.42
733.545	424.61
733.731	410.28
733.917	449.19
734.103	422.56
734.289	481.96
734.475	283.3
734.661	500.39
734.847	508.58
735.033	363.17
735.219	445.09
735.404	383.65
735.59	416.42
735.776	330.41
735.962	451.24
736.148	455.33
736.333	455.33
736.519	371.37
736.705	379.56
736.89	381.6
737.076	400.04
737.262	285.35
737.447	334.5
737.633	373.41
737.819	393.89
738.004	441
738.19	361.13
738.375	404.13
738.561	395.94
738.747	352.93
738.932	344.74
739.118	441
739.303	422.56
739.489	330.41
739.674	303.78
739.859	365.22
740.045	400.04
740.23	397.99
740.416	187.05
740.601	334.5
740.786	273.06
740.972	266.92
741.157	205.48
741.342	344.74
741.528	348.84
741.713	455.33
741.898	316.07
742.084	359.08
742.269	416.42
742.454	404.13
742.639	402.08
742.824	305.83
743.01	492.2
743.195	504.48
743.38	328.36
743.565	342.69
743.75	330.41
743.935	461.48
744.12	430.76
744.305	281.25
744.49	369.32
744.675	336.55
744.86	354.98
745.045	332.45
745.23	363.17
745.415	357.03
745.6	484
745.785	430.76
745.97	418.47
746.155	395.94
746.34	385.7
746.525	332.45
746.71	443.04
746.895	264.87
747.079	273.06
747.264	291.49
747.449	422.56
747.634	363.17
747.819	412.32
748.003	314.02
748.188	293.54
748.373	348.84
748.557	305.83
748.742	295.59
748.927	297.64
749.111	217.77
749.296	283.3
749.481	367.27
749.665	363.17
749.85	215.72
750.034	328.36
750.219	293.54
750.404	316.07
750.588	246.44
750.773	246.44
750.957	238.25
751.141	260.77
751.326	359.08
751.51	180.9
751.695	334.5
751.879	162.47
752.064	311.97
752.248	193.19
752.432	369.32
752.617	185
752.801	346.79
752.985	301.73
753.17	330.41
753.354	223.91
753.538	283.3
753.722	314.02
753.907	260.77
754.091	275.11
754.275	279.21
754.459	148.14
754.643	252.58
754.828	289.45
755.012	217.77
755.196	141.99
755.38	219.82
755.564	137.9
755.748	197.29
755.932	285.35
756.116	271.01
756.3	287.4
756.484	168.62
756.668	262.82
756.852	201.38
757.036	225.96
757.22	111.27
757.404	236.2
757.588	240.3
757.772	250.53
757.956	172.71
758.14	336.55
758.323	156.33
758.507	242.34
758.691	238.25
758.875	291.49
759.059	344.74
759.242	129.7
759.426	217.77
759.61	180.9
759.794	127.66
759.977	195.24
760.161	393.89
760.345	318.12
760.528	316.07
760.712	174.76
760.895	223.91
761.079	189.1
761.263	101.03
761.446	117.42
761.63	172.71
761.813	318.12
761.997	78.51
762.18	141.99
762.364	266.92
762.547	141.99
762.731	225.96
762.914	211.62
763.098	109.23
763.281	158.38
763.464	127.66
763.648	234.15
763.831	78.51
764.015	170.66
764.198	289.45
764.381	121.51
764.564	150.18
764.748	152.23
764.931	166.57
765.114	207.53
765.297	232.1
765.481	105.13
765.664	101.03
765.847	78.51
766.03	295.59
766.213	101.03
766.397	162.47
766.58	58.03
766.763	160.42
766.946	152.23
767.129	117.42
767.312	176.81
767.495	162.47
767.678	107.18
767.861	80.55
768.044	178.86
768.227	133.8
768.41	103.08
768.593	115.37
768.776	121.51
768.959	84.65
769.142	225.96
769.324	127.66
769.507	137.9
769.69	92.84
769.873	178.86
770.056	350.89
770.239	88.75
770.421	166.57
770.604	144.04
770.787	174.76
770.97	137.9
771.152	53.93
771.335	156.33
771.518	51.88
771.7	135.85
771.883	154.28
772.066	141.99
772.248	152.23
772.431	283.3
772.613	101.03
772.796	148.14
772.978	109.23
773.161	197.29
773.343	35.5
773.526	37.55
773.708	45.74
773.891	37.55
774.073	41.64
774.256	29.35
774.438	246.44
774.621	90.79
774.803	109.23
774.985	176.81
775.168	137.9
775.35	84.65
775.532	139.94
775.715	166.57
775.897	131.75
776.079	86.7
776.261	39.59
776.444	80.55
776.626	105.13
776.808	78.51
776.99	-17.75
777.173	37.55
777.355	119.46
777.537	109.23
777.719	158.38
777.901	80.55
778.083	35.5
778.265	-7.51
778.447	111.27
778.629	82.6
778.811	86.7
778.993	166.57
779.175	107.18
779.357	84.65
779.539	-17.75
779.721	82.6
779.903	125.61
780.085	113.32
780.267	62.12
780.449	178.86
780.631	107.18
780.812	156.33
780.994	45.74
781.176	107.18
781.358	10.92
781.54	27.31
781.721	101.03
781.903	96.94
782.085	49.83
782.267	154.28
782.448	0.68
782.63	47.79
782.812	101.03
782.993	103.08
783.175	107.18
783.357	39.59
783.538	92.84
783.72	39.59
783.901	76.46
784.083	154.28
784.264	86.7
784.446	-95.57
784.627	25.26
784.809	74.41
784.99	39.59
785.172	133.8
785.353	19.11
785.535	96.94
785.716	25.26
785.897	-25.94
786.079	-11.61
786.26	105.13
786.441	172.71
786.623	-79.19
786.804	-40.28
786.985	78.51
787.167	53.93
787.348	21.16
787.529	58.03
787.71	205.48
787.891	115.37
788.073	-11.61
788.254	2.73
788.435	187.05
788.616	84.65
788.797	-81.24
788.978	-34.13
789.159	66.22
789.34	27.31
789.522	88.75
789.703	58.03
789.884	141.99
790.065	68.27
790.246	176.81
790.427	39.59
790.607	139.94
790.788	113.32
790.969	37.55
791.15	41.64
791.331	-66.9
791.512	-34.13
791.693	-56.66
791.874	15.02
792.054	240.3
792.235	70.31
792.416	-60.76
792.597	-13.65
792.778	88.75
792.958	121.51
793.139	74.41
793.32	8.87
793.5	-38.23
793.681	172.71
793.862	103.08
794.042	58.03
794.223	-107.86
794.404	-25.94
794.584	-124.24
794.765	51.88
794.945	10.92
795.126	45.74
795.306	68.27
795.487	53.93
795.667	62.12
795.848	12.97
796.028	-7.51
796.209	86.7
796.389	29.35
796.57	72.36
796.75	-54.61
796.93	53.93
797.111	15.02
797.291	41.64
797.471	111.27
797.652	19.11
797.832	43.69
798.012	129.7
798.192	-42.32
798.373	-44.37
798.553	10.92
798.733	139.94
798.913	-42.32
799.093	-52.56
799.274	45.74
799.454	21.16
799.634	86.7
799.814	101.03
799.994	121.51
800.174	-15.7
800.354	-19.8
800.534	-97.62
800.714	119.46
800.894	-44.37
801.074	-60.76
801.254	0.68
801.434	109.23
801.614	33.45
801.794	23.21
801.974	1895.05
802.154	-79.19
802.334	62.12
802.514	29.35
802.693	80.55
802.873	-87.38
803.053	109.23
803.233	72.36
803.413	66.22
803.592	23.21
803.772	-68.95
803.952	51.88
804.131	-79.19
804.311	8.87
804.491	55.98
804.67	-23.89
804.85	-36.18
805.03	92.84
805.209	58.03
805.389	-42.32
805.568	6.83
805.748	21.16
805.928	-5.46
806.107	115.37
806.287	55.98
806.466	51.88
806.646	-21.84
806.825	-60.76
807.004	-101.72
807.184	88.75
807.363	115.37
807.543	8.87
807.722	-136.53
807.901	115.37
808.081	53.93
808.26	-146.77
808.439	-1.37
808.619	0.68
808.798	-36.18
808.977	113.32
809.156	70.31
809.336	-54.61
809.515	41.64
809.694	-56.66
809.873	-15.7
810.052	55.98
810.231	133.8
810.411	137.9
810.59	117.42
810.769	12.97
810.948	123.56
811.127	-58.71
811.306	-13.65
811.485	19.11
811.664	185
811.843	10.92
812.022	62.12
812.201	27.31
812.38	58.03
812.559	-83.28
812.737	19.11
812.916	-50.52
813.095	-54.61
813.274	62.12
813.453	15.02
813.632	-23.89
813.811	76.46
813.989	-7.51
814.168	-1.37
814.347	-42.32
814.526	-36.18
814.704	189.1
814.883	129.7
815.062	-73.04
815.24	68.27
815.419	-89.43
815.598	17.07
815.776	-93.52
815.955	27.31
816.133	-87.38
816.312	82.6
816.49	-87.38
816.669	29.35
816.847	-85.33
817.026	45.74
817.204	17.07
817.383	51.88
817.561	-81.24
817.74	25.26
817.918	33.45
818.097	41.64
818.275	-66.9
818.453	60.07
818.632	49.83
818.81	2.73
818.988	-42.32
819.167	-11.61
819.345	33.45
819.523	-56.66
819.701	41.64
819.879	51.88
820.058	6.83
820.236	58.03
820.414	51.88
820.592	80.55
820.77	17.07
820.948	6.83
821.127	-32.08
821.305	29.35
821.483	-15.7
821.661	31.4
821.839	-75.09
822.017	55.98
822.195	-71
822.373	107.18
822.551	-17.75
822.729	41.64
822.907	-15.7
823.085	43.69
823.262	35.5
823.44	-44.37
823.618	-38.23
823.796	-46.42
823.974	60.07
824.152	-52.56
824.329	19.11
824.507	-1.37
824.685	33.45
824.863	-17.75
825.04	74.41
825.218	96.94
825.396	66.22
825.574	101.03
825.751	45.74
825.929	51.88
826.107	12.97
826.284	25.26
826.462	47.79
826.639	-95.57
826.817	2.73
826.994	-50.52
827.172	15.02
827.349	156.33
827.527	62.12
827.704	25.26
827.882	19.11
828.059	-97.62
828.237	-25.94
828.414	27.31
828.591	-68.95
828.769	17.07
828.946	31.4
829.124	156.33
829.301	60.07
829.478	-7.51
829.655	43.69
829.833	12.97
830.01	-159.06
830.187	49.83
830.364	-64.85
830.542	17.07
830.719	92.84
830.896	29.35
831.073	-30.04
831.25	15.02
831.427	66.22
831.604	88.75
831.782	-11.61
831.959	10.92
832.136	-17.75
832.313	47.79
832.49	-44.37
832.667	6.83
832.844	-36.18
833.021	74.41
833.198	-48.47
833.374	27.31
833.551	10.92
833.728	-52.56
833.905	115.37
834.082	-62.8
834.259	-36.18
834.436	156.33
834.612	-7.51
834.789	74.41
834.966	15.02
835.143	53.93
835.319	-77.14
835.496	64.17
835.673	4.78
835.85	94.89
836.026	98.99
836.203	154.28
836.38	-34.13
836.556	-56.66
836.733	-19.8
836.909	107.18
837.086	-11.61
837.262	-66.9
837.439	-48.47
837.616	-27.99
837.792	-38.23
837.968	-68.95
838.145	-95.57
838.321	33.45
838.498	17.07
838.674	115.37
838.851	4.78
839.027	53.93
839.203	58.03
839.38	4.78
839.556	-89.43
839.732	12.97
839.909	80.55
840.085	6.83
840.261	-58.71
840.437	21.16
840.614	-32.08
840.79	70.31
840.966	12.97
841.142	51.88
841.318	-21.84
841.494	76.46
841.671	148.14
841.847	-60.76
842.023	-89.43
842.199	41.64
842.375	111.27
842.551	-91.48
842.727	-9.56
842.903	90.79
843.079	-34.13
843.255	21.16
843.431	-27.99
843.607	8.87
843.783	-167.25
843.959	37.55
844.134	-15.7
844.31	53.93
844.486	-99.67
844.662	-116.05
844.838	-27.99
845.013	41.64
845.189	60.07
845.365	-5.46
845.541	-25.94
845.716	-13.65
845.892	45.74
846.068	45.74
846.244	2.73
846.419	12.97
846.595	-48.47
846.77	-77.14
846.946	-15.7
847.122	-25.94
847.297	-1.37
847.473	117.42
847.648	-101.72
847.824	60.07
847.999	-79.19
848.175	78.51
848.35	72.36
848.526	119.46
848.701	78.51
848.876	0.68
849.052	94.89
849.227	55.98
849.403	51.88
849.578	-32.08
849.753	29.35
849.929	-38.23
850.104	-138.58
850.279	-40.28
850.454	45.74
850.63	19.11
850.805	15.02
850.98	17.07
851.155	-54.61
851.33	-19.8
851.505	-83.28
851.681	107.18
851.856	-95.57
852.031	-11.61
852.206	-25.94
852.381	-83.28
852.556	21.16
852.731	15.02
852.906	60.07
853.081	19.11
853.256	82.6
853.431	-17.75
853.606	-7.51
853.781	-68.95
853.956	-83.28
854.131	-9.56
854.305	-13.65
854.48	-52.56
854.655	-93.52
854.83	-36.18
855.005	27.31
855.18	-25.94
855.354	43.69
855.529	6.83
855.704	-56.66
855.879	19.11
856.053	-77.14
856.228	-5.46
856.403	-9.56
856.577	55.98
856.752	-116.05
856.926	-34.13
857.101	2.73
857.276	-42.32
857.45	12.97
857.625	53.93
857.799	-36.18
857.974	-5.46
858.148	-85.33
858.323	-27.99
858.497	-32.08
858.672	23.21
858.846	-30.04
859.02	70.31
859.195	-144.72
859.369	-32.08
859.543	8.87
859.718	21.16
859.892	74.41
860.066	-42.32
860.241	-7.51
860.415	-50.52
860.589	45.74
860.763	-27.99
860.938	-19.8
861.112	64.17
861.286	-27.99
861.46	-13.65
861.634	-7.51
861.808	45.74
861.982	-50.52
862.157	-101.72
862.331	-17.75
862.505	-64.85
862.679	-75.09
862.853	-40.28
863.027	-36.18
863.201	170.66
863.375	-89.43
863.549	74.41
863.722	-36.18
863.896	86.7
864.07	43.69
864.244	25.26
864.418	66.22
864.592	-54.61
864.766	43.69
864.939	70.31
865.113	-71
865.287	47.79
865.461	-105.81
865.634	31.4
865.808	-27.99
865.982	-52.56
866.156	-27.99
866.329	-21.84
866.503	6.83
866.676	49.83
866.85	2.73
867.024	17.07
867.197	-27.99
867.371	113.32
867.544	-5.46
867.718	-46.42
867.891	107.18
868.065	-142.68
868.238	-116.05
868.412	55.98
868.585	103.08
868.759	-34.13
868.932	-38.23
869.105	-64.85
869.279	53.93
869.452	-101.72
869.625	27.31
869.799	-68.95
869.972	-116.05
870.145	-25.94
870.319	-1.37
870.492	-85.33
870.665	-9.56
870.838	-97.62
871.011	-169.3
871.185	-46.42
871.358	-60.76
871.531	49.83
871.704	-68.95
871.877	-1.37
872.05	-27.99
872.223	-116.05
872.396	74.41
872.569	35.5
872.742	-85.33
872.915	25.26
873.088	8.87
873.261	-103.76
873.434	41.64
873.607	17.07
873.78	123.56
873.953	-116.05
874.126	-89.43
874.299	49.83
874.471	-85.33
874.644	-126.29
874.817	47.79
874.99	82.6
875.163	-79.19
875.335	35.5
875.508	-19.8
875.681	113.32
875.853	8.87
876.026	23.21
876.199	64.17
876.371	-60.76
876.544	-27.99
876.717	-5.46
876.889	-34.13
877.062	45.74
877.234	-130.39
877.407	6.83
877.579	8.87
877.752	-60.76
877.924	62.12
878.097	19.11
878.269	0.68
878.442	33.45
878.614	17.07
878.786	8.87
878.959	2.73
879.131	-77.14
879.303	-179.54
879.476	0.68
879.648	6.83
879.82	-27.99
879.993	-58.71
880.165	4.78
880.337	-62.8
880.509	21.16
880.681	-126.29
880.854	-23.89
881.026	2.73
881.198	111.27
881.37	-48.47
881.542	2.73
881.714	49.83
881.886	-62.8
882.058	68.27
882.23	-21.84
882.402	45.74
882.574	-17.75
882.746	111.27
882.918	86.7
883.09	19.11
883.262	-15.7
883.434	25.26
883.606	-120.15
883.778	-62.8
883.95	84.65
884.122	-62.8
884.293	80.55
884.465	-21.84
884.637	86.7
884.809	-11.61
884.98	51.88
885.152	74.41
885.324	111.27
885.496	-34.13
885.667	-25.94
885.839	-81.24
886.011	-3.41
886.182	31.4
886.354	82.6
886.525	-1.37
886.697	-40.28
886.869	-23.89
887.04	-54.61
887.212	80.55
887.383	127.66
887.555	-122.2
887.726	-5.46
887.897	43.69
888.069	-44.37
888.24	8.87
888.412	-32.08
888.583	-3.41
888.754	-62.8
888.926	-38.23
889.097	-25.94
889.268	-17.75
889.44	90.79
889.611	-122.2
889.782	-105.81
889.953	-101.72
890.125	76.46
890.296	-85.33
890.467	35.5
890.638	-93.52
890.809	4.78
890.98	-50.52
891.151	10.92
891.323	80.55
891.494	-34.13
891.665	39.59
891.836	-21.84
892.007	41.64
892.178	4.78
892.349	-9.56
892.52	-99.67
892.691	-27.99
892.862	-7.51
893.032	-87.38
893.203	-17.75
893.374	-34.13
893.545	49.83
893.716	-19.8
893.887	15.02
894.057	-71
894.228	-15.7
894.399	-21.84
894.57	123.56
894.74	-15.7
894.911	10.92
895.082	-34.13
895.253	-118.1
895.423	-48.47
895.594	47.79
895.764	21.16
895.935	-101.72
896.106	51.88
896.276	-54.61
896.447	-3.41
896.617	-111.96
896.788	-68.95
896.958	-3.41
897.129	-5.46
897.299	-50.52
897.47	127.66
897.64	2.73
897.81	-68.95
897.981	25.26
898.151	-60.76
898.322	60.07
898.492	25.26
898.662	-60.76
898.832	-54.61
899.003	-54.61
899.173	8.87
899.343	-25.94
899.513	-83.28
