Data from USB4F104151__34__10-42-32-982.txt Node

Date: Wed Feb 26 10:42:32 EST 2025
User: louis
Spectrometer: USB4F10415
Trigger mode: 4
Integration Time (sec): 1.000000E-1
Scans to average: 1
Electric dark correction enabled: true
Nonlinearity correction enabled: false
Boxcar width: 0
XAxis mode: Wavelengths
Number of Pixels in Spectrum: 3648
>>>>>Begin Spectral Data<<<<<
178.204	-397.82
178.424	-397.82
178.644	-397.82
178.864	-442.87
179.084	-332.28
179.304	-12.8
179.524	62.98
179.744	38.4
179.964	-6.66
180.184	-4.61
180.404	13.82
180.624	1.54
180.844	30.21
181.064	-78.33
181.283	-20.99
181.503	-80.38
181.723	56.83
181.943	-96.77
182.163	140.8
182.383	3.58
182.602	116.22
182.822	157.18
183.042	99.84
183.262	5.63
183.482	73.21
183.701	26.11
183.921	73.21
184.141	-0.51
184.361	124.41
184.58	83.45
184.8	67.07
185.02	-39.42
185.239	114.17
185.459	73.21
185.679	153.09
185.898	-14.85
186.118	128.51
186.338	132.61
186.557	112.13
186.777	58.88
186.997	-10.75
187.216	9.73
187.436	210.43
187.655	114.17
187.875	136.7
188.095	15.87
188.314	103.93
188.534	114.17
188.753	9.73
188.973	136.7
189.192	155.13
189.412	65.02
189.631	79.36
189.851	85.5
190.07	124.41
190.29	-4.61
190.509	7.68
190.729	-0.51
190.948	151.04
191.168	253.44
191.387	91.65
191.607	77.31
191.826	54.78
192.045	-20.99
192.265	60.93
192.484	24.06
192.704	81.41
192.923	-2.56
193.142	230.91
193.362	97.79
193.581	130.56
193.8	28.16
194.02	165.37
194.239	38.4
194.458	17.92
194.678	110.08
194.897	36.35
195.116	58.88
195.335	42.5
195.555	79.36
195.774	5.63
195.993	62.98
196.212	-45.57
196.432	-8.7
196.651	24.06
196.87	-4.61
197.089	220.67
197.308	136.7
197.528	99.84
197.747	-70.14
197.966	1.54
198.185	146.94
198.404	-18.94
198.623	79.36
198.842	50.69
199.062	73.21
199.281	95.74
199.5	-4.61
199.719	95.74
199.938	7.68
200.157	124.41
200.376	-8.7
200.595	89.6
200.814	103.93
201.033	-51.71
201.252	146.94
201.471	42.5
201.69	124.41
201.909	38.4
202.128	148.99
202.347	69.12
202.566	69.12
202.785	-76.29
203.004	19.97
203.223	284.16
203.442	-4.61
203.661	7.68
203.879	52.74
204.098	144.89
204.317	-55.81
204.536	44.54
204.755	112.13
204.974	108.03
205.193	75.26
205.411	153.09
205.63	132.61
205.849	85.5
206.068	-29.18
206.287	-47.62
206.505	58.88
206.724	15.87
206.943	42.5
207.162	-49.66
207.381	79.36
207.599	30.21
207.818	3.58
208.037	-10.75
208.255	54.78
208.474	97.79
208.693	69.12
208.911	22.02
209.13	97.79
209.349	48.64
209.567	130.56
209.786	60.93
210.005	140.8
210.223	26.11
210.442	-49.66
210.661	22.02
210.879	93.69
211.098	97.79
211.316	13.82
211.535	132.61
211.753	62.98
211.972	77.31
212.191	-16.9
212.409	-35.33
212.628	42.5
212.846	-16.9
213.065	-39.42
213.283	122.37
213.502	79.36
213.72	58.88
213.938	75.26
214.157	112.13
214.375	112.13
214.594	58.88
214.812	50.69
215.031	54.78
215.249	13.82
215.467	71.17
215.686	60.93
215.904	138.75
216.122	-12.8
216.341	200.19
216.559	144.89
216.778	54.78
216.996	204.28
217.214	22.02
217.432	-14.85
217.651	-41.47
217.869	-23.04
218.087	56.83
218.306	32.26
218.524	97.79
218.742	13.82
218.96	146.94
219.179	22.02
219.397	85.5
219.615	155.13
219.833	91.65
220.051	-10.75
220.27	128.51
220.488	148.99
220.706	7.68
220.924	30.21
221.142	30.21
221.36	36.35
221.578	87.55
221.796	22.02
222.015	26.11
222.233	103.93
222.451	155.13
222.669	9.73
222.887	132.61
223.105	-2.56
223.323	58.88
223.541	-68.09
223.759	-2.56
223.977	56.83
224.195	220.67
224.413	110.08
224.631	77.31
224.849	77.31
225.067	255.48
225.285	73.21
225.503	34.3
225.721	-31.23
225.939	58.88
226.157	-0.51
226.375	226.81
226.592	44.54
226.81	3.58
227.028	157.18
227.246	177.66
227.464	77.31
227.682	81.41
227.9	85.5
228.117	136.7
228.335	75.26
228.553	36.35
228.771	7.68
228.989	38.4
229.206	42.5
229.424	24.06
229.642	-45.57
229.86	9.73
230.077	177.66
230.295	40.45
230.513	73.21
230.731	110.08
230.948	116.22
231.166	142.85
231.384	34.3
231.601	-8.7
231.819	99.84
232.037	-49.66
232.254	-23.04
232.472	13.82
232.689	40.45
232.907	114.17
233.125	36.35
233.342	5.63
233.56	46.59
233.777	42.5
233.995	34.3
234.213	62.98
234.43	128.51
234.648	56.83
234.865	7.68
235.083	83.45
235.3	81.41
235.518	157.18
235.735	153.09
235.953	136.7
236.17	60.93
236.388	54.78
236.605	17.92
236.822	105.98
237.04	173.57
237.257	13.82
237.475	-0.51
237.692	-6.66
237.909	58.88
238.127	24.06
238.344	50.69
238.562	79.36
238.779	-100.86
238.996	-2.56
239.214	38.4
239.431	120.32
239.648	24.06
239.865	36.35
240.083	93.69
240.3	50.69
240.517	93.69
240.735	1.54
240.952	108.03
241.169	79.36
241.386	161.28
241.603	-0.51
241.821	-66.05
242.038	169.47
242.255	71.17
242.472	44.54
242.689	103.93
242.907	73.21
243.124	19.97
243.341	28.16
243.558	-45.57
243.775	17.92
243.992	-12.8
244.209	38.4
244.426	118.27
244.643	103.93
244.86	1.54
245.078	73.21
245.295	93.69
245.512	-8.7
245.729	-16.9
245.946	56.83
246.163	24.06
246.38	-8.7
246.597	97.79
246.814	58.88
247.031	56.83
247.248	13.82
247.464	79.36
247.681	73.21
247.898	46.59
248.115	3.58
248.332	-23.04
248.549	124.41
248.766	216.57
248.983	108.03
249.2	120.32
249.417	183.81
249.633	32.26
249.85	60.93
250.067	1.54
250.284	-8.7
250.501	136.7
250.717	75.26
250.934	-29.18
251.151	-25.09
251.368	69.12
251.585	85.5
251.801	101.89
252.018	-16.9
252.235	148.99
252.451	-33.28
252.668	-2.56
252.885	226.81
253.102	77.31
253.318	22.02
253.535	38.4
253.752	60.93
253.968	-27.14
254.185	-23.04
254.401	77.31
254.618	189.95
254.835	32.26
255.051	183.81
255.268	60.93
255.484	112.13
255.701	77.31
255.917	67.07
256.134	-74.24
256.351	24.06
256.567	-16.9
256.784	75.26
257	3.58
257.217	91.65
257.433	110.08
257.65	126.46
257.866	130.56
258.082	-20.99
258.299	-0.51
258.515	69.12
258.732	-31.23
258.948	22.02
259.165	81.41
259.381	73.21
259.597	101.89
259.814	48.64
260.03	77.31
260.246	9.73
260.463	130.56
260.679	157.18
260.895	11.78
261.112	112.13
261.328	-14.85
261.544	52.74
261.761	144.89
261.977	73.21
262.193	24.06
262.409	75.26
262.626	24.06
262.842	89.6
263.058	-25.09
263.274	114.17
263.49	105.98
263.707	91.65
263.923	148.99
264.139	-27.14
264.355	65.02
264.571	116.22
264.787	32.26
265.004	134.65
265.22	87.55
265.436	-0.51
265.652	19.97
265.868	26.11
266.084	-72.19
266.3	36.35
266.516	-25.09
266.732	97.79
266.948	62.98
267.164	54.78
267.38	151.04
267.596	-0.51
267.812	175.61
268.028	71.17
268.244	56.83
268.46	62.98
268.676	-0.51
268.892	73.21
269.108	9.73
269.324	-33.28
269.54	1.54
269.756	118.27
269.972	-39.42
270.188	95.74
270.403	-12.8
270.619	9.73
270.835	138.75
271.051	93.69
271.267	56.83
271.483	1.54
271.698	81.41
271.914	32.26
272.13	13.82
272.346	-2.56
272.562	83.45
272.777	116.22
272.993	65.02
273.209	38.4
273.425	122.37
273.64	-25.09
273.856	134.65
274.072	-4.61
274.287	5.63
274.503	85.5
274.719	138.75
274.934	71.17
275.15	-39.42
275.366	65.02
275.581	-25.09
275.797	30.21
276.012	48.64
276.228	3.58
276.444	110.08
276.659	85.5
276.875	13.82
277.09	48.64
277.306	-27.14
277.521	48.64
277.737	48.64
277.952	40.45
278.168	73.21
278.383	67.07
278.599	32.26
278.814	103.93
279.03	71.17
279.245	161.28
279.461	-18.94
279.676	134.65
279.892	-49.66
280.107	-41.47
280.322	-18.94
280.538	-23.04
280.753	-23.04
280.969	42.5
281.184	17.92
281.399	79.36
281.615	42.5
281.83	52.74
282.045	-33.28
282.26	-2.56
282.476	79.36
282.691	134.65
282.906	30.21
283.122	138.75
283.337	-10.75
283.552	81.41
283.767	13.82
283.983	124.41
284.198	48.64
284.413	99.84
284.628	-29.18
284.843	-12.8
285.058	120.32
285.274	1.54
285.489	30.21
285.704	155.13
285.919	-43.52
286.134	46.59
286.349	24.06
286.564	17.92
286.779	120.32
286.995	28.16
287.21	-109.05
287.425	67.07
287.64	19.97
287.855	9.73
288.07	-72.19
288.285	97.79
288.5	93.69
288.715	118.27
288.93	1.54
289.145	-72.19
289.36	146.94
289.575	54.78
289.79	65.02
290.004	-16.9
290.219	93.69
290.434	9.73
290.649	-88.57
290.864	91.65
291.079	38.4
291.294	132.61
291.509	89.6
291.724	44.54
291.938	30.21
292.153	77.31
292.368	77.31
292.583	67.07
292.798	73.21
293.012	42.5
293.227	58.88
293.442	52.74
293.657	85.5
293.871	122.37
294.086	97.79
294.301	116.22
294.516	114.17
294.73	140.8
294.945	-27.14
295.16	48.64
295.374	155.13
295.589	140.8
295.804	-0.51
296.018	81.41
296.233	148.99
296.447	105.98
296.662	-37.38
296.877	138.75
297.091	38.4
297.306	60.93
297.52	-4.61
297.735	165.37
297.949	15.87
298.164	69.12
298.378	85.5
298.593	-27.14
298.807	-27.14
299.022	65.02
299.236	189.95
299.451	-4.61
299.665	22.02
299.88	24.06
300.094	114.17
300.309	24.06
300.523	11.78
300.737	26.11
300.952	132.61
301.166	56.83
301.381	9.73
301.595	75.26
301.809	52.74
302.024	15.87
302.238	-14.85
302.452	73.21
302.667	101.89
302.881	169.47
303.095	134.65
303.309	22.02
303.524	-2.56
303.738	38.4
303.952	-16.9
304.166	130.56
304.381	-74.24
304.595	181.76
304.809	-27.14
305.023	46.59
305.237	62.98
305.452	28.16
305.666	73.21
305.88	85.5
306.094	36.35
306.308	132.61
306.522	108.03
306.736	34.3
306.95	140.8
307.164	118.27
307.379	32.26
307.593	157.18
307.807	65.02
308.021	58.88
308.235	173.57
308.449	-64
308.663	81.41
308.877	237.05
309.091	-4.61
309.305	179.71
309.519	-39.42
309.733	105.98
309.947	-80.38
310.161	91.65
310.374	138.75
310.588	120.32
310.802	26.11
311.016	-20.99
311.23	69.12
311.444	-39.42
311.658	75.26
311.872	60.93
312.085	7.68
312.299	118.27
312.513	91.65
312.727	97.79
312.941	-37.38
313.154	91.65
313.368	81.41
313.582	7.68
313.796	22.02
314.009	32.26
314.223	108.03
314.437	87.55
314.651	99.84
314.864	-8.7
315.078	3.58
315.292	5.63
315.505	15.87
315.719	13.82
315.933	124.41
316.146	-41.47
316.36	-39.42
316.573	124.41
316.787	48.64
317.001	73.21
317.214	-23.04
317.428	95.74
317.641	-27.14
317.855	40.45
318.068	3.58
318.282	60.93
318.495	214.52
318.709	65.02
318.922	73.21
319.136	155.13
319.349	151.04
319.563	5.63
319.776	89.6
319.99	-12.8
320.203	36.35
320.417	101.89
320.63	138.75
320.843	165.37
321.057	85.5
321.27	7.68
321.483	77.31
321.697	169.47
321.91	83.45
322.124	-8.7
322.337	62.98
322.55	-23.04
322.763	34.3
322.977	32.26
323.19	-2.56
323.403	40.45
323.617	71.17
323.83	54.78
324.043	46.59
324.256	130.56
324.469	-51.71
324.683	179.71
324.896	56.83
325.109	65.02
325.322	38.4
325.535	110.08
325.748	148.99
325.962	58.88
326.175	85.5
326.388	93.69
326.601	112.13
326.814	11.78
327.027	52.74
327.24	93.69
327.453	-47.62
327.666	134.65
327.879	136.7
328.092	58.88
328.305	26.11
328.518	1.54
328.731	-8.7
328.944	44.54
329.157	52.74
329.37	69.12
329.583	222.72
329.796	183.81
330.009	-18.94
330.222	77.31
330.435	204.28
330.648	48.64
330.861	48.64
331.073	73.21
331.286	118.27
331.499	24.06
331.712	46.59
331.925	77.31
332.138	136.7
332.35	83.45
332.563	3.58
332.776	161.28
332.989	-12.8
333.202	-12.8
333.414	28.16
333.627	81.41
333.84	73.21
334.053	58.88
334.265	77.31
334.478	7.68
334.691	32.26
334.903	132.61
335.116	15.87
335.329	-20.99
335.541	42.5
335.754	222.72
335.966	-12.8
336.179	69.12
336.392	60.93
336.604	-0.51
336.817	165.37
337.029	153.09
337.242	9.73
337.454	65.02
337.667	75.26
337.88	189.95
338.092	140.8
338.305	77.31
338.517	54.78
338.729	140.8
338.942	118.27
339.154	30.21
339.367	9.73
339.579	15.87
339.792	-37.38
340.004	103.93
340.217	140.8
340.429	101.89
340.641	42.5
340.854	11.78
341.066	85.5
341.278	173.57
341.491	173.57
341.703	30.21
341.915	-2.56
342.128	108.03
342.34	34.3
342.552	101.89
342.764	93.69
342.977	11.78
343.189	192
343.401	22.02
343.613	-43.52
343.826	75.26
344.038	9.73
344.25	81.41
344.462	-6.66
344.674	42.5
344.886	34.3
345.099	99.84
345.311	54.78
345.523	32.26
345.735	-76.29
345.947	89.6
346.159	46.59
346.371	-10.75
346.583	32.26
346.795	198.14
347.007	56.83
347.219	79.36
347.431	58.88
347.643	128.51
347.855	54.78
348.067	132.61
348.279	50.69
348.491	32.26
348.703	124.41
348.915	73.21
349.127	40.45
349.339	42.5
349.551	5.63
349.763	136.7
349.975	65.02
350.187	173.57
350.399	130.56
350.61	95.74
350.822	-4.61
351.034	85.5
351.246	3.58
351.458	130.56
351.669	114.17
351.881	105.98
352.093	222.72
352.305	44.54
352.517	140.8
352.728	110.08
352.94	73.21
353.152	177.66
353.363	-51.71
353.575	32.26
353.787	128.51
353.999	128.51
354.21	204.28
354.422	-59.9
354.633	-20.99
354.845	75.26
355.057	71.17
355.268	89.6
355.48	67.07
355.692	-25.09
355.903	65.02
356.115	-33.28
356.326	-84.48
356.538	187.9
356.749	134.65
356.961	116.22
357.172	9.73
357.384	-14.85
357.595	194.05
357.807	38.4
358.018	36.35
358.23	73.21
358.441	247.29
358.653	163.33
358.864	48.64
359.075	-35.33
359.287	97.79
359.498	118.27
359.709	142.85
359.921	1.54
360.132	130.56
360.344	-35.33
360.555	118.27
360.766	56.83
360.977	-14.85
361.189	134.65
361.4	24.06
361.611	87.55
361.823	187.9
362.034	50.69
362.245	-4.61
362.456	-39.42
362.667	165.37
362.879	-80.38
363.09	81.41
363.301	103.93
363.512	103.93
363.723	17.92
363.935	26.11
364.146	134.65
364.357	73.21
364.568	91.65
364.779	11.78
364.99	163.33
365.201	-27.14
365.412	65.02
365.623	-86.53
365.834	110.08
366.045	77.31
366.256	163.33
366.467	11.78
366.678	1.54
366.889	62.98
367.1	-10.75
367.311	116.22
367.522	-25.09
367.733	116.22
367.944	114.17
368.155	-27.14
368.366	73.21
368.577	126.46
368.788	52.74
368.999	32.26
369.209	48.64
369.42	216.57
369.631	263.68
369.842	110.08
370.053	32.26
370.264	157.18
370.474	-37.38
370.685	126.46
370.896	-20.99
371.107	99.84
371.317	118.27
371.528	38.4
371.739	140.8
371.95	71.17
372.16	48.64
372.371	42.5
372.582	26.11
372.792	87.55
373.003	48.64
373.214	93.69
373.424	108.03
373.635	-37.38
373.846	210.43
374.056	56.83
374.267	48.64
374.477	-8.7
374.688	15.87
374.898	56.83
375.109	58.88
375.319	130.56
375.53	114.17
375.74	132.61
375.951	122.37
376.161	50.69
376.372	148.99
376.582	-33.28
376.793	54.78
377.003	28.16
377.214	30.21
377.424	81.41
377.635	101.89
377.845	-18.94
378.055	212.48
378.266	-64
378.476	50.69
378.686	65.02
378.897	167.42
379.107	157.18
379.317	105.98
379.528	-16.9
379.738	95.74
379.948	-4.61
380.158	148.99
380.369	65.02
380.579	99.84
380.789	40.45
380.999	93.69
381.21	87.55
381.42	237.05
381.63	56.83
381.84	105.98
382.05	128.51
382.261	196.09
382.471	177.66
382.681	52.74
382.891	85.5
383.101	122.37
383.311	40.45
383.521	17.92
383.731	146.94
383.941	151.04
384.151	99.84
384.361	5.63
384.571	134.65
384.781	69.12
384.991	194.05
385.201	204.28
385.411	62.98
385.621	93.69
385.831	44.54
386.041	46.59
386.251	-55.81
386.461	161.28
386.671	114.17
386.881	136.7
387.091	93.69
387.301	103.93
387.511	46.59
387.72	138.75
387.93	142.85
388.14	-14.85
388.35	126.46
388.56	194.05
388.769	128.51
388.979	120.32
389.189	-27.14
389.399	116.22
389.609	171.52
389.818	32.26
390.028	77.31
390.238	103.93
390.447	46.59
390.657	130.56
390.867	65.02
391.076	-76.29
391.286	87.55
391.496	89.6
391.705	52.74
391.915	116.22
392.125	134.65
392.334	36.35
392.544	99.84
392.753	58.88
392.963	-10.75
393.172	52.74
393.382	60.93
393.591	255.48
393.801	-8.7
394.01	202.24
394.22	132.61
394.429	71.17
394.639	32.26
394.848	116.22
395.058	108.03
395.267	91.65
395.477	65.02
395.686	97.79
395.895	165.37
396.105	228.86
396.314	15.87
396.524	87.55
396.733	48.64
396.942	130.56
397.152	132.61
397.361	67.07
397.57	99.84
397.78	81.41
397.989	75.26
398.198	179.71
398.407	54.78
398.617	85.5
398.826	85.5
399.035	87.55
399.244	52.74
399.453	89.6
399.663	48.64
399.872	71.17
400.081	-12.8
400.29	165.37
400.499	-16.9
400.708	69.12
400.917	134.65
401.127	15.87
401.336	13.82
401.545	146.94
401.754	28.16
401.963	93.69
402.172	48.64
402.381	13.82
402.59	81.41
402.799	91.65
403.008	110.08
403.217	44.54
403.426	67.07
403.635	-51.71
403.844	73.21
404.053	40.45
404.262	71.17
404.471	132.61
404.68	151.04
404.888	7.68
405.097	24.06
405.306	13.82
405.515	89.6
405.724	73.21
405.933	50.69
406.142	132.61
406.35	146.94
406.559	19.97
406.768	136.7
406.977	62.98
407.185	62.98
407.394	153.09
407.603	9.73
407.812	56.83
408.02	185.85
408.229	93.69
408.438	81.41
408.646	11.78
408.855	75.26
409.064	130.56
409.272	34.3
409.481	132.61
409.69	-2.56
409.898	-16.9
410.107	105.98
410.315	151.04
410.524	91.65
410.733	112.13
410.941	-4.61
411.15	159.23
411.358	159.23
411.567	175.61
411.775	101.89
411.984	112.13
412.192	46.59
412.401	46.59
412.609	181.76
412.818	13.82
413.026	58.88
413.234	24.06
413.443	11.78
413.651	-14.85
413.86	79.36
414.068	110.08
414.276	192
414.485	56.83
414.693	148.99
414.901	218.62
415.11	52.74
415.318	97.79
415.526	-6.66
415.734	73.21
415.943	110.08
416.151	237.05
416.359	48.64
416.567	97.79
416.776	175.61
416.984	81.41
417.192	124.41
417.4	17.92
417.608	116.22
417.817	-31.23
418.025	103.93
418.233	216.57
418.441	19.97
418.649	-6.66
418.857	44.54
419.065	99.84
419.273	105.98
419.481	132.61
419.689	103.93
419.897	19.97
420.105	1.54
420.313	144.89
420.521	198.14
420.729	202.24
420.937	60.93
421.145	89.6
421.353	134.65
421.561	126.46
421.769	112.13
421.977	9.73
422.185	91.65
422.393	91.65
422.601	91.65
422.809	91.65
423.017	50.69
423.224	77.31
423.432	171.52
423.64	67.07
423.848	97.79
424.056	52.74
424.263	155.13
424.471	97.79
424.679	212.48
424.887	91.65
425.094	153.09
425.302	118.27
425.51	17.92
425.718	126.46
425.925	134.65
426.133	52.74
426.341	265.72
426.548	83.45
426.756	81.41
426.964	142.85
427.171	48.64
427.379	130.56
427.586	124.41
427.794	87.55
428.001	138.75
428.209	146.94
428.417	224.76
428.624	171.52
428.832	167.42
429.039	157.18
429.247	65.02
429.454	118.27
429.662	224.76
429.869	134.65
430.076	157.18
430.284	214.52
430.491	171.52
430.699	189.95
430.906	286.2
431.114	161.28
431.321	187.9
431.528	202.24
431.736	187.9
431.943	151.04
432.15	169.47
432.358	138.75
432.565	316.92
432.772	140.8
432.979	290.3
433.187	183.81
433.394	232.96
433.601	169.47
433.808	341.5
434.016	275.96
434.223	286.2
434.43	226.81
434.637	278.01
434.844	368.12
435.052	290.3
435.259	366.07
435.466	312.83
435.673	298.49
435.88	376.31
436.087	495.1
436.294	404.99
436.501	433.66
436.708	382.46
436.915	402.94
437.122	468.47
437.329	382.46
437.537	503.29
437.743	441.85
437.95	587.26
438.157	505.34
438.364	454.14
438.571	482.81
438.778	554.49
438.985	509.43
439.192	675.32
439.399	458.23
439.606	615.93
439.813	654.84
440.02	601.59
440.227	792.05
440.433	747
440.64	654.84
440.847	548.34
441.054	738.8
441.261	845.3
441.467	820.72
441.674	695.8
441.881	1005.04
442.088	847.35
442.294	925.17
442.501	986.61
442.708	1048.05
442.914	988.66
443.121	1113.58
443.328	1121.77
443.534	1281.52
443.741	1203.69
443.948	1121.77
444.154	1244.65
444.361	1476.07
444.568	1371.63
444.774	1271.28
444.981	1320.43
445.187	1463.79
445.394	1533.42
445.6	1365.48
445.807	1768.93
446.013	1564.14
446.22	1560.04
446.426	1742.31
446.633	2010.59
446.839	2059.74
447.046	1785.32
447.252	2117.09
447.459	2074.08
447.665	2145.76
447.871	2295.26
448.078	2612.7
448.284	2426.33
448.491	2569.69
448.697	2641.37
448.903	2725.33
449.11	2891.22
449.316	2754.01
449.522	3020.24
449.728	3231.18
449.935	3204.56
450.141	3136.98
450.347	3511.75
450.553	3560.91
450.76	3495.37
450.966	3876.29
451.172	3710.41
451.378	4044.23
451.584	4103.62
451.791	4335.04
451.997	4558.27
452.203	4588.99
452.409	4830.65
452.615	4861.37
452.821	4939.19
453.027	5031.35
453.233	5701.03
453.44	5561.77
453.646	5770.66
453.852	6069.67
454.058	6280.61
454.264	6462.88
454.47	6776.22
454.676	6940.05
454.882	7347.6
455.088	7163.28
455.294	7722.38
455.5	8199.55
455.705	8357.25
455.911	8430.98
456.117	8787.32
456.323	8856.95
456.529	9143.67
456.735	9971.05
456.941	10014.06
457.147	10519.9
457.352	10706.27
457.558	11044.18
457.764	11939.15
457.97	12037.45
458.176	12729.66
458.381	13178.17
458.587	13360.44
458.793	14122.28
458.999	14136.62
459.204	15916.3
459.41	16334.09
459.616	16194.82
459.821	17044.73
460.027	18019.57
460.233	18502.89
460.438	18588.9
460.644	19817.68
460.85	19920.08
461.055	20645.06
461.261	21791.92
461.466	21423.29
461.672	21640.37
461.878	24663.18
462.083	23915.67
462.289	24730.76
462.494	25660.54
462.7	25613.43
462.905	26301.55
463.111	28339.28
463.316	29594.68
463.522	29967.41
463.727	31200.29
463.932	32502.8
464.138	33051.66
464.343	34372.6
464.549	34638.83
464.754	37379.01
464.959	38308.79
465.165	39068.59
465.37	38695.86
465.575	38663.09
465.781	41018.25
465.986	42251.13
466.191	41995.14
466.397	42519.42
466.602	41485.19
466.807	43631.46
467.012	44583.77
467.218	44931.92
467.423	45146.96
467.628	46641.98
467.833	48915.22
468.038	47842.09
468.244	46979.89
468.449	49505.04
468.654	48290.59
468.859	48141.09
469.064	48456.48
469.269	47340.33
469.474	47153.97
469.679	48921.37
469.885	47889.19
470.09	48323.36
470.295	48239.39
470.5	47577.9
470.705	47915.81
470.91	46697.27
471.115	45849.41
471.32	46459.71
471.525	46396.22
471.73	45216.59
471.935	44956.5
472.139	43344.75
472.344	43475.82
472.549	43232.11
472.754	42505.08
472.959	41585.54
473.164	40186.78
473.369	39463.85
473.574	40686.48
473.778	39965.6
473.983	39039.92
474.188	38505.4
474.393	36645.84
474.598	36205.53
474.802	36045.79
475.007	35640.29
475.212	34917.36
475.417	33864.7
475.621	33225.73
475.826	33016.84
476.031	31857.69
476.235	31142.95
476.44	31448.1
476.645	30686.25
476.849	30540.85
477.054	29715.51
477.259	29267.01
477.463	29178.95
477.668	28224.59
477.872	28529.74
478.077	27530.33
478.282	26807.4
478.486	26461.29
478.691	26313.84
478.895	25891.96
479.1	25863.29
479.304	25945.2
479.509	25037.95
479.713	25099.39
479.918	24689.8
480.122	23921.81
480.326	24315.02
480.531	24243.34
480.735	23762.07
480.94	23467.16
481.144	24435.85
481.348	22817.96
481.553	23329.95
481.757	22412.46
481.961	22742.18
482.166	22957.22
482.37	22537.38
482.574	22135.98
482.778	22197.42
482.983	22330.54
483.187	21845.17
483.391	22072.5
483.595	21339.32
483.8	21312.7
484.004	21417.15
484.208	20819.14
484.412	20671.68
484.616	20448.46
484.821	20384.97
485.025	19930.32
485.229	20024.53
485.433	19461.34
485.637	19479.77
485.841	19141.85
486.045	18652.39
486.249	18572.52
486.453	18334.95
486.657	18078.96
486.861	18324.71
487.065	17380.6
487.269	17360.12
487.473	16674.05
487.677	16850.17
487.881	16811.26
488.085	16473.35
488.289	16268.55
488.493	15701.26
488.697	15672.59
488.901	15009.05
489.105	14986.52
489.309	14464.29
489.512	14466.34
489.716	14083.37
489.92	14036.27
490.124	13602.1
490.328	13430.07
490.531	13100.34
490.735	13086.01
490.939	13012.28
491.143	12569.92
491.346	12410.18
491.55	12164.42
491.754	12064.07
491.958	11832.65
492.161	11476.3
492.365	11345.23
492.569	11122.01
492.772	10929.5
492.976	10872.15
493.18	10751.32
493.383	10610.01
493.587	10661.21
493.79	10638.69
493.994	10098.02
494.197	10057.06
494.401	10052.97
494.605	9962.86
494.808	9991.53
495.012	9690.48
495.215	9657.71
495.419	9727.34
495.622	9672.04
495.825	9420.14
496.029	9330.03
496.232	9637.23
496.436	9377.14
496.639	9399.66
496.843	9264.5
497.046	9432.43
497.249	9428.34
497.453	9297.27
497.656	9327.99
497.859	9385.33
498.063	9416.05
498.266	9497.97
498.469	9158
498.673	9246.07
498.876	9360.75
499.079	9450.86
499.282	9526.64
499.485	9770.35
499.689	9575.79
499.892	9680.24
500.095	9733.48
500.298	9684.33
500.501	9598.32
500.705	9733.48
500.908	9919.85
501.111	9960.81
501.314	10388.83
501.517	10222.95
501.72	10200.42
501.923	10229.09
502.126	10575.2
502.329	10732.89
502.532	10825.05
502.735	10884.44
502.938	11214.16
503.141	11079
503.344	11160.92
503.547	11314.52
503.75	11418.96
503.953	11644.24
504.156	11916.62
504.359	11851.08
504.562	11978.06
504.765	12436.8
504.968	12598.59
505.17	12744
505.373	12940.6
505.576	13059.38
505.779	13460.79
505.982	13286.71
506.185	13522.23
506.387	13757.74
506.59	14374.18
506.793	14167.34
506.996	14445.86
507.198	14761.25
507.401	15013.15
507.604	15375.64
507.807	15594.77
508.009	16213.26
508.212	16272.65
508.415	16403.72
508.617	16831.74
508.82	17136.89
509.022	17300.73
509.225	18085.1
509.428	18199.79
509.63	18623.72
509.833	18685.15
510.035	19262.68
510.238	19670.23
510.44	20120.78
510.643	20532.42
510.845	21077.18
511.048	21531.83
511.25	22052.02
511.453	22193.33
511.655	23409.82
511.858	23454.87
512.06	24034.45
512.262	24030.35
512.465	24272.01
512.667	25300.09
512.87	26045.55
513.072	26555.5
513.274	27225.18
513.477	27718.75
513.679	28619.85
513.881	28914.76
514.084	29676.6
514.286	29953.08
514.488	30645.29
514.69	31982.62
514.893	32154.65
515.095	32369.68
515.297	33596.42
515.499	34081.78
515.701	34554.86
515.904	35828.7
516.106	36213.72
516.308	37034.95
516.51	37743.55
516.712	38069.18
516.914	38925.23
517.116	39902.11
517.318	40440.73
517.52	41184.14
517.722	41919.36
517.925	42699.64
518.127	43723.62
518.329	44176.22
518.531	44467.03
518.733	45587.27
518.935	46478.14
519.136	46773.05
519.338	47647.53
519.54	47825.7
519.742	49158.93
519.944	49310.48
520.146	50338.56
520.348	51124.98
520.55	51557.1
520.752	51829.48
520.954	52660.96
521.155	52867.8
521.357	53891.79
521.559	54526.66
521.761	55245.49
521.963	55046.84
522.164	55706.29
522.366	56230.57
522.568	56922.78
522.77	57064.09
522.971	58278.53
523.173	57252.5
523.375	58630.79
523.576	58122.89
523.778	58540.67
523.98	59234.94
524.181	59363.96
524.383	59013.76
524.584	60201.58
524.786	59843.18
524.988	60113.51
525.189	60240.49
525.391	60398.18
525.592	60533.35
525.794	60189.29
525.995	60318.31
526.197	60103.27
526.398	60035.69
526.6	59976.3
526.801	60150.38
527.003	59931.25
527.204	59716.21
527.406	59599.47
527.607	59081.34
527.808	59675.25
528.01	58374.79
528.211	58004.11
528.412	58575.49
528.614	57946.76
528.815	57688.72
529.016	57660.05
529.218	56642.21
529.419	56128.17
529.62	56126.12
529.822	55247.54
530.023	54352.58
530.224	54151.88
530.425	53859.02
530.626	52888.28
530.828	52548.32
531.029	52871.9
531.23	51210.99
531.431	50920.18
531.632	51178.23
531.833	50541.31
532.035	49634.06
532.236	49476.37
532.437	48859.93
532.638	47948.58
532.839	47657.77
533.04	47217.46
533.241	46070.59
533.442	45982.53
533.643	45357.9
533.844	44598.1
534.045	44329.82
534.246	43436.91
534.447	42818.42
534.648	41999.23
534.849	41876.35
535.05	41110.41
535.251	40567.7
535.451	40076.19
535.652	39611.3
535.853	38912.94
536.054	38480.82
536.255	37880.77
536.456	37022.67
536.657	37495.75
536.857	36766.67
537.058	36023.26
537.259	35759.07
537.46	35392.48
537.66	34518
537.861	34546.67
538.062	34094.07
538.263	33305.6
538.463	33033.22
538.664	32527.38
538.865	32330.77
539.065	32076.82
539.266	31169.57
539.466	31077.41
539.667	30471.22
539.868	30706.73
540.068	30026.81
540.269	29713.47
540.469	29226.05
540.67	28896.33
540.87	28677.19
541.071	27962.45
541.271	28075.09
541.472	27726.94
541.672	27180.13
541.873	26948.71
542.073	26254.45
542.274	26342.51
542.474	26449
542.675	25611.39
542.875	25838.71
543.075	25328.77
543.276	24687.75
543.476	24913.03
543.676	24444.04
543.877	24073.36
544.077	24200.33
544.277	23669.91
544.478	23297.18
544.678	23311.52
544.878	22924.45
545.078	22582.44
545.279	22207.66
545.479	22308.01
545.679	21841.07
545.879	21388.47
546.079	21337.27
546.28	20917.44
546.48	20739.27
546.68	20866.24
546.88	20247.76
547.08	20055.25
547.28	20061.39
547.48	19315.93
547.68	19434.71
547.88	18922.72
548.081	19010.78
548.281	18662.63
548.481	18588.9
548.681	18353.38
548.881	17956.08
549.081	17868.02
549.28	17509.62
549.48	17308.92
549.68	17218.81
549.88	17179.9
550.08	16370.95
550.28	16571.65
550.48	16446.73
550.68	16049.42
550.88	15674.64
551.08	15752.46
551.279	15482.13
551.479	14978.33
551.679	15060.25
551.879	14716.19
552.079	14429.48
552.278	14290.21
552.478	14159.14
552.678	14013.74
552.878	13847.85
553.077	13436.21
553.277	13006.14
553.477	13198.65
553.676	12850.49
553.876	12647.74
554.076	12453.19
554.275	12209.48
554.475	12004.68
554.674	12072.26
554.874	11763.02
555.074	11433.3
555.273	11244.88
555.473	11265.36
555.672	10794.33
555.872	10913.11
556.071	10696.03
556.271	10761.56
556.47	10268
556.67	9905.51
556.869	9954.66
557.068	9919.85
557.268	9835.88
557.467	9407.86
557.667	9436.53
557.866	9162.1
558.065	8836.47
558.265	8859
558.464	8533.37
558.663	8666.49
558.863	8469.89
559.062	8566.14
559.261	8129.92
559.461	8023.43
559.66	7794.06
559.859	7955.85
560.058	7650.7
560.258	7304.59
560.457	7429.52
560.656	7398.8
560.855	7128.47
561.054	7212.43
561.253	6993.3
561.453	7021.97
561.652	6768.02
561.851	6804.89
562.05	6624.67
562.249	6473.12
562.448	6407.58
562.647	6282.66
562.846	6204.83
563.045	5983.65
563.244	5934.5
563.443	6094.24
563.642	5842.34
563.841	5694.89
564.04	5668.27
564.239	5703.08
564.438	5447.08
564.637	5473.71
564.836	5408.17
565.035	5107.12
565.234	5166.51
565.432	5152.18
565.631	5158.32
565.83	5021.11
566.029	4832.69
566.228	4756.92
566.427	4726.2
566.625	4650.43
566.824	4488.64
567.023	4591.03
567.222	4367.81
567.42	4500.92
567.619	4390.33
567.818	4310.46
568.016	4414.91
568.215	4322.75
568.414	4275.65
568.612	4103.62
568.811	4115.91
569.01	3913.16
569.208	3982.79
569.407	3933.64
569.605	3913.16
569.804	3829.19
570.002	3722.7
570.201	3483.08
570.4	3667.4
570.598	3599.82
570.797	3499.47
570.995	3429.84
571.193	3409.36
571.392	3319.25
571.59	3237.33
571.789	3345.87
571.987	3321.29
572.186	3276.24
572.384	3165.65
572.582	3040.72
572.781	3141.07
572.979	2913.75
573.177	2913.75
573.376	2915.8
573.574	2956.75
573.772	2917.84
573.971	2659.8
574.169	2569.69
574.367	2635.22
574.565	2543.07
574.763	2575.83
574.962	2731.48
575.16	2393.56
575.358	2352.6
575.556	2389.47
575.754	2373.08
575.952	2325.98
576.151	2295.26
576.349	2350.56
576.547	2129.38
576.745	2178.53
576.943	2315.74
577.141	2176.48
577.339	2020.83
577.537	2110.94
577.735	2069.98
577.933	2053.6
578.131	1830.37
578.329	2072.03
578.527	1938.91
578.725	2055.65
578.923	1838.56
579.121	1877.48
579.319	1658.34
579.516	1711.59
579.714	1977.83
579.912	1820.13
580.11	1680.87
580.308	1639.91
580.506	1613.29
580.704	1539.56
580.901	1476.07
581.099	1641.96
581.297	1570.28
581.495	1650.15
581.692	1469.93
581.89	1574.38
582.088	1566.18
582.285	1527.27
582.483	1412.59
582.681	1404.39
582.878	1400.3
583.076	1416.68
583.274	1375.72
583.471	1455.59
583.669	1383.91
583.866	1168.88
584.064	1347.05
584.262	1213.93
584.459	1254.89
584.657	1246.7
584.854	1230.32
585.052	1183.21
585.249	1185.26
585.447	1213.93
585.644	974.32
585.841	1179.12
586.039	1150.45
586.236	1271.28
586.434	972.27
586.631	1027.57
586.828	980.47
587.026	1105.39
587.223	953.84
587.42	966.13
587.618	1070.58
587.815	1089.01
588.012	947.7
588.21	957.94
588.407	1031.66
588.604	1011.18
588.801	806.39
588.999	986.61
589.196	984.56
589.393	900.59
589.59	894.45
589.787	962.03
589.984	943.6
590.182	951.79
590.379	802.29
590.576	851.44
590.773	802.29
590.97	779.76
591.167	839.16
591.364	757.24
591.561	861.68
591.758	992.75
591.955	962.03
592.152	769.52
592.349	828.92
592.546	787.96
592.743	824.82
592.94	876.02
593.137	855.54
593.334	908.79
593.531	900.59
593.727	886.26
593.924	910.83
594.121	900.59
594.318	765.43
594.515	908.79
594.712	964.08
594.908	900.59
595.105	830.96
595.302	884.21
595.499	896.5
595.696	986.61
595.892	923.12
596.089	1002.99
596.286	933.36
596.482	1193.45
596.679	1035.76
596.876	929.27
597.072	1136.11
597.269	1062.38
597.466	1156.59
597.662	1150.45
597.859	1117.68
598.055	1156.59
598.252	1115.63
598.448	1351.15
598.645	1435.11
598.841	1414.63
599.038	1455.59
599.234	1615.34
599.431	1564.14
599.627	1660.39
599.824	1666.53
600.02	1705.45
600.217	1652.2
600.413	1861.09
600.609	1943.01
600.806	2092.51
601.002	2043.36
601.198	2012.64
601.395	2297.31
601.591	2176.48
601.787	2432.47
601.984	2541.02
602.18	2584.02
602.376	2522.59
602.572	2794.97
602.769	2977.23
602.965	2907.6
603.161	3028.43
603.357	3212.75
603.553	3306.96
603.75	3255.76
603.946	3431.88
604.142	3628.49
604.338	3608.01
604.534	3747.27
604.73	3974.6
604.926	4124.1
605.122	4177.34
605.318	4371.9
605.514	4601.27
605.71	4513.21
605.906	4660.66
606.102	4902.33
606.298	5060.02
606.494	5158.32
606.69	5506.48
606.886	5440.94
607.082	5545.39
607.278	5670.31
607.474	6108.58
607.67	5969.32
607.866	6311.33
608.062	6663.58
608.257	6657.43
608.453	6851.99
608.649	7179.67
608.845	7079.32
609.041	7298.45
609.236	7501.2
609.432	7712.14
609.628	8230.27
609.824	8168.84
610.019	8482.17
610.215	8596.86
610.411	8895.86
610.606	9123.19
610.802	9442.67
610.998	9641.32
611.193	9934.18
611.389	9960.81
611.584	10362.21
611.78	10818.91
611.976	11119.96
612.171	11488.59
612.367	11556.18
612.562	11814.22
612.758	12182.85
612.953	12217.67
613.149	12569.92
613.344	13133.11
613.539	13794.61
613.735	13974.83
613.93	14251.3
614.126	14611.75
614.321	15039.77
614.517	15582.48
614.712	15828.24
614.907	15994.12
615.103	16616.71
615.298	16874.75
615.493	17456.37
615.688	17581.3
615.884	18711.78
616.079	18588.9
616.274	19301.59
616.47	19735.76
616.665	20206.8
616.86	20831.43
617.055	21261.5
617.25	21572.79
617.445	22402.22
617.641	22838.44
617.836	23438.49
618.031	23805.08
618.226	24726.66
618.421	25197.7
618.616	25824.37
618.811	25963.64
619.006	26950.76
619.201	27151.46
619.396	28296.27
619.591	28228.69
619.786	29529.15
619.981	29776.95
620.176	30817.32
620.371	30731.31
620.566	31869.98
620.761	32390.16
620.956	33606.66
621.151	33117.19
621.346	34583.54
621.541	34436.08
621.735	35832.8
621.93	36201.43
622.125	36750.29
622.32	37186.5
622.515	37923.77
622.709	38902.7
622.904	39633.83
623.099	40149.92
623.294	41446.28
623.488	41419.66
623.683	42290.04
623.878	42570.61
624.072	43883.36
624.267	44444.51
624.462	45075.28
624.656	45497.16
624.851	46592.83
625.046	46963.51
625.24	47526.7
625.435	48212.77
625.629	48745.24
625.824	49709.83
626.018	50019.08
626.213	50322.18
626.407	51012.34
626.602	51204.85
626.796	52124.39
626.991	52658.91
627.185	52536.03
627.38	53402.32
627.574	53897.93
627.768	53701.32
627.963	54121.16
628.157	54002.38
628.352	54672.06
628.546	53830.35
628.74	55149.24
628.935	53799.63
629.129	54672.06
629.323	53940.94
629.517	54194.89
629.712	53746.38
629.906	53834.44
630.1	52636.38
630.294	52458.21
630.489	51667.69
630.683	51548.91
630.877	50019.08
631.071	49361.68
631.265	49505.04
631.459	48298.78
631.653	47207.22
631.848	46377.79
632.042	44913.49
632.236	44532.57
632.43	42513.27
632.624	41886.59
632.818	40520.6
633.012	38994.86
633.206	38077.37
633.4	37581.76
633.594	35503.07
633.788	34814.96
633.982	33342.47
634.176	32490.51
634.369	31183.91
634.563	29748.28
634.757	28769.35
634.951	27804.76
635.145	27143.27
635.339	25977.97
635.533	24575.11
635.726	24112.27
635.92	22736.04
636.114	21527.74
636.308	21247.16
636.501	20274.38
636.695	19453.14
636.889	18310.38
637.083	17851.63
637.276	16848.13
637.47	16516.36
637.664	15797.52
637.857	15136.03
638.051	14689.57
638.244	13993.26
638.438	13647.15
638.632	13079.86
638.825	12338.5
639.019	12068.17
639.212	11390.29
639.406	11017.56
639.599	10470.75
639.793	10265.96
639.986	9805.16
640.18	9461.1
640.373	9051.51
640.567	8701.31
640.76	8500.61
640.954	8031.62
641.147	7699.85
641.34	7513.49
641.534	7210.39
641.727	6964.63
641.92	6722.97
642.114	6532.51
642.307	6163.87
642.5	6172.07
642.694	5647.79
642.887	5432.75
643.08	5344.69
643.273	5098.93
643.467	4853.17
643.66	4552.12
643.853	4625.85
644.046	4144.58
644.239	4281.79
644.432	3952.07
644.626	3757.51
644.819	3796.42
645.012	3552.71
645.205	3462.6
645.398	3409.36
645.591	3266
645.784	3061.2
645.977	2813.4
646.17	2977.23
646.363	2706.9
646.556	2573.78
646.749	2532.83
646.942	2477.53
647.135	2276.83
647.328	2297.31
647.521	2184.67
647.714	2022.88
647.907	2004.45
648.099	1920.48
648.292	1889.76
648.485	1895.91
648.678	1768.93
648.871	1676.77
649.064	1646.05
649.256	1443.31
649.449	1396.2
649.642	1377.77
649.835	1461.74
650.027	1353.2
650.22	1359.34
650.413	1203.69
650.605	1402.35
650.798	1172.97
650.991	1097.2
651.183	1086.96
651.376	1154.54
651.568	1066.48
651.761	957.94
651.954	1080.82
652.146	933.36
652.339	1031.66
652.531	982.51
652.724	818.68
652.916	790
653.109	632.31
653.301	810.48
653.494	775.67
653.686	781.81
653.879	835.06
654.071	695.8
654.263	650.74
654.456	695.8
654.648	757.24
654.84	669.17
655.033	466.42
655.225	740.85
655.417	478.71
655.61	634.36
655.802	626.17
655.994	693.75
656.186	394.75
656.379	560.63
656.571	458.23
656.763	417.27
656.955	484.86
657.148	513.53
657.34	550.39
657.532	413.18
657.724	407.03
657.916	384.51
658.108	439.8
658.3	454.14
658.492	339.45
658.684	300.54
658.876	474.62
659.068	316.92
659.26	316.92
659.452	380.41
659.644	364.03
659.836	517.62
660.028	374.27
660.22	312.83
660.412	273.92
660.604	343.55
660.796	333.31
660.988	312.83
661.18	273.92
661.372	331.26
661.563	302.59
661.755	331.26
661.947	155.13
662.139	230.91
662.331	235
662.522	329.21
662.714	278.01
662.906	198.14
663.097	290.3
663.289	298.49
663.481	110.08
663.673	265.72
663.864	251.39
664.056	300.54
664.247	202.24
664.439	220.67
664.631	265.72
664.822	304.64
665.014	173.57
665.205	136.7
665.397	142.85
665.588	179.71
665.78	218.62
665.971	306.68
666.163	146.94
666.354	173.57
666.546	103.93
666.737	232.96
666.929	173.57
667.12	175.61
667.311	273.92
667.503	175.61
667.694	273.92
667.885	247.29
668.077	179.71
668.268	103.93
668.459	120.32
668.651	192
668.842	146.94
669.033	130.56
669.224	122.37
669.416	359.93
669.607	81.41
669.798	105.98
669.989	200.19
670.18	138.75
670.371	265.72
670.563	79.36
670.754	261.63
670.945	206.33
671.136	327.16
671.327	73.21
671.518	343.55
671.709	259.58
671.9	271.87
672.091	232.96
672.282	206.33
672.473	128.51
672.664	112.13
672.855	134.65
673.046	175.61
673.237	294.4
673.428	112.13
673.619	194.05
673.809	179.71
674	329.21
674.191	278.01
674.382	175.61
674.573	185.85
674.764	282.11
674.954	341.5
675.145	138.75
675.336	118.27
675.527	142.85
675.717	155.13
675.908	153.09
676.099	101.89
676.289	175.61
676.48	87.55
676.671	202.24
676.861	146.94
677.052	157.18
677.243	204.28
677.433	142.85
677.624	200.19
677.814	263.68
678.005	169.47
678.195	273.92
678.386	169.47
678.576	230.91
678.767	62.98
678.957	163.33
679.148	284.16
679.338	259.58
679.529	241.15
679.719	157.18
679.909	273.92
680.1	321.02
680.29	300.54
680.481	105.98
680.671	230.91
680.861	292.35
681.052	243.2
681.242	93.69
681.432	181.76
681.622	204.28
681.813	95.74
682.003	261.63
682.193	140.8
682.383	230.91
682.573	185.85
682.764	214.52
682.954	251.39
683.144	380.41
683.334	202.24
683.524	163.33
683.714	357.88
683.904	222.72
684.094	232.96
684.284	308.73
684.474	361.98
684.664	331.26
684.854	261.63
685.044	243.2
685.234	292.35
685.424	314.88
685.614	103.93
685.804	361.98
685.994	226.81
686.184	282.11
686.374	273.92
686.564	259.58
686.753	284.16
686.943	161.28
687.133	185.85
687.323	204.28
687.513	275.96
687.702	218.62
687.892	208.38
688.082	314.88
688.272	241.15
688.461	257.53
688.651	388.6
688.841	351.74
689.03	257.53
689.22	290.3
689.41	251.39
689.599	173.57
689.789	216.57
689.979	439.8
690.168	259.58
690.358	376.31
690.547	312.83
690.737	300.54
690.926	239.1
691.116	286.2
691.305	323.07
691.495	335.35
691.684	153.09
691.874	163.33
692.063	269.82
692.252	321.02
692.442	286.2
692.631	241.15
692.82	187.9
693.01	316.92
693.199	204.28
693.388	378.36
693.578	232.96
693.767	157.18
693.956	232.96
694.146	214.52
694.335	232.96
694.524	194.05
694.713	278.01
694.902	202.24
695.092	210.43
695.281	253.44
695.47	173.57
695.659	269.82
695.848	278.01
696.037	245.24
696.226	183.81
696.415	245.24
696.604	333.31
696.793	404.99
696.982	228.86
697.171	290.3
697.36	175.61
697.549	273.92
697.738	122.37
697.927	265.72
698.116	210.43
698.305	290.3
698.494	251.39
698.683	169.47
698.872	318.97
699.061	280.06
699.25	292.35
699.438	163.33
699.627	163.33
699.816	316.92
700.005	153.09
700.193	146.94
700.382	208.38
700.571	245.24
700.76	222.72
700.948	343.55
701.137	241.15
701.326	239.1
701.514	114.17
701.703	196.09
701.892	249.34
702.08	402.94
702.269	214.52
702.457	187.9
702.646	290.3
702.834	175.61
703.023	312.83
703.212	275.96
703.4	177.66
703.589	278.01
703.777	278.01
703.965	198.14
704.154	200.19
704.342	128.51
704.531	140.8
704.719	273.92
704.907	282.11
705.096	118.27
705.284	105.98
705.472	212.48
705.661	284.16
705.849	353.79
706.037	294.4
706.226	308.73
706.414	196.09
706.602	175.61
706.79	288.25
706.979	210.43
707.167	255.48
707.355	42.5
707.543	220.67
707.731	306.68
707.919	192
708.107	196.09
708.296	134.65
708.484	140.8
708.672	220.67
708.86	220.67
709.048	314.88
709.236	206.33
709.424	290.3
709.612	216.57
709.8	81.41
709.988	294.4
710.176	239.1
710.364	300.54
710.551	130.56
710.739	228.86
710.927	257.53
711.115	212.48
711.303	323.07
711.491	278.01
711.679	155.13
711.866	275.96
712.054	161.28
712.242	183.81
712.43	294.4
712.617	257.53
712.805	243.2
712.993	235
713.181	165.37
713.368	318.97
713.556	292.35
713.744	140.8
713.931	427.51
714.119	292.35
714.306	142.85
714.494	208.38
714.682	226.81
714.869	185.85
715.057	148.99
715.244	132.61
715.432	284.16
715.619	239.1
715.807	165.37
715.994	183.81
716.182	241.15
716.369	280.06
716.556	235
716.744	148.99
716.931	194.05
717.119	265.72
717.306	206.33
717.493	245.24
717.681	220.67
717.868	220.67
718.055	288.25
718.242	232.96
718.43	214.52
718.617	183.81
718.804	151.04
718.991	255.48
719.179	249.34
719.366	331.26
719.553	304.64
719.74	224.76
719.927	243.2
720.114	259.58
720.301	189.95
720.488	214.52
720.676	265.72
720.863	288.25
721.05	404.99
721.237	359.93
721.424	327.16
721.611	335.35
721.798	224.76
721.985	155.13
722.172	212.48
722.358	206.33
722.545	353.79
722.732	271.87
722.919	333.31
723.106	271.87
723.293	247.29
723.48	331.26
723.667	230.91
723.853	339.45
724.04	339.45
724.227	357.88
724.414	220.67
724.6	286.2
724.787	388.6
724.974	372.22
725.161	284.16
725.347	226.81
725.534	267.77
725.72	333.31
725.907	308.73
726.094	368.12
726.28	165.37
726.467	292.35
726.653	228.86
726.84	357.88
727.027	323.07
727.213	210.43
727.4	251.39
727.586	269.82
727.773	370.17
727.959	169.47
728.145	370.17
728.332	247.29
728.518	230.91
728.705	337.4
728.891	273.92
729.077	302.59
729.264	198.14
729.45	243.2
729.636	333.31
729.823	275.96
730.009	321.02
730.195	265.72
730.382	364.03
730.568	247.29
730.754	280.06
730.94	173.57
731.126	226.81
731.313	368.12
731.499	271.87
731.685	361.98
731.871	286.2
732.057	368.12
732.243	341.5
732.429	302.59
732.615	466.42
732.801	380.41
732.987	284.16
733.173	333.31
733.359	278.01
733.545	259.58
733.731	306.68
733.917	327.16
734.103	321.02
734.289	347.64
734.475	171.52
734.661	433.66
734.847	318.97
735.033	261.63
735.219	386.55
735.404	208.38
735.59	247.29
735.776	226.81
735.962	294.4
736.148	302.59
736.333	370.17
736.519	302.59
736.705	235
736.89	212.48
737.076	220.67
737.262	224.76
737.447	232.96
737.633	302.59
737.819	384.51
738.004	292.35
738.19	296.44
738.375	394.75
738.561	302.59
738.747	308.73
738.932	200.19
739.118	411.13
739.303	269.82
739.489	374.27
739.674	361.98
739.859	220.67
740.045	390.65
740.23	318.97
740.416	187.9
740.601	312.83
740.786	273.92
740.972	130.56
741.157	321.02
741.342	269.82
741.528	253.44
741.713	402.94
741.898	341.5
742.084	278.01
742.269	339.45
742.454	361.98
742.639	314.88
742.824	298.49
743.01	353.79
743.195	486.9
743.38	335.35
743.565	261.63
743.75	364.03
743.935	255.48
744.12	400.89
744.305	200.19
744.49	230.91
744.675	337.4
744.86	243.2
745.045	323.07
745.23	353.79
745.415	294.4
745.6	388.6
745.785	288.25
745.97	384.51
746.155	314.88
746.34	374.27
746.525	292.35
746.71	372.22
746.895	230.91
747.079	173.57
747.264	239.1
747.449	282.11
747.634	306.68
747.819	237.05
748.003	224.76
748.188	144.89
748.373	267.77
748.557	245.24
748.742	243.2
748.927	300.54
749.111	235
749.296	194.05
749.481	376.31
749.665	163.33
749.85	185.85
750.034	316.92
750.219	273.92
750.404	232.96
750.588	216.57
750.773	126.46
750.957	290.3
751.141	202.24
751.326	392.7
751.51	153.09
751.695	232.96
751.879	140.8
752.064	390.65
752.248	245.24
752.432	304.64
752.617	271.87
752.801	222.72
752.985	151.04
753.17	261.63
753.354	259.58
753.538	261.63
753.722	114.17
753.907	155.13
754.091	183.81
754.275	286.2
754.459	130.56
754.643	146.94
754.828	169.47
755.012	148.99
755.196	95.74
755.38	196.09
755.564	126.46
755.748	148.99
755.932	230.91
756.116	185.85
756.3	265.72
756.484	71.17
756.668	210.43
756.852	71.17
757.036	142.85
757.22	130.56
757.404	177.66
757.588	177.66
757.772	278.01
757.956	91.65
758.14	337.4
758.323	148.99
758.507	165.37
758.691	95.74
758.875	263.68
759.059	206.33
759.242	132.61
759.426	167.42
759.61	175.61
759.794	146.94
759.977	175.61
760.161	337.4
760.345	271.87
760.528	237.05
760.712	134.65
760.895	235
761.079	175.61
761.263	77.31
761.446	198.14
761.63	124.41
761.813	239.1
761.997	171.52
762.18	237.05
762.364	245.24
762.547	101.89
762.731	110.08
762.914	138.75
763.098	138.75
763.281	183.81
763.464	73.21
763.648	159.23
763.831	142.85
764.015	69.12
764.198	251.39
764.381	54.78
764.564	159.23
764.748	134.65
764.931	126.46
765.114	89.6
765.297	255.48
765.481	46.59
765.664	112.13
765.847	-8.7
766.03	212.48
766.213	32.26
766.397	161.28
766.58	38.4
766.763	163.33
766.946	87.55
767.129	134.65
767.312	56.83
767.495	112.13
767.678	87.55
767.861	212.48
768.044	89.6
768.227	140.8
768.41	62.98
768.593	153.09
768.776	132.61
768.959	46.59
769.142	210.43
769.324	87.55
769.507	19.97
769.69	17.92
769.873	163.33
770.056	321.02
770.239	151.04
770.421	161.28
770.604	148.99
770.787	58.88
770.97	126.46
771.152	17.92
771.335	128.51
771.518	11.78
771.7	159.23
771.883	261.63
772.066	54.78
772.248	89.6
772.431	189.95
772.613	128.51
772.796	105.98
772.978	124.41
773.161	142.85
773.343	32.26
773.526	85.5
773.708	50.69
773.891	-25.09
774.073	52.74
774.256	48.64
774.438	181.76
774.621	50.69
774.803	132.61
774.985	42.5
775.168	48.64
775.35	17.92
775.532	161.28
775.715	75.26
775.897	97.79
776.079	54.78
776.261	171.52
776.444	75.26
776.626	-14.85
776.808	42.5
776.99	13.82
777.173	163.33
777.355	83.45
777.537	110.08
777.719	40.45
777.901	85.5
778.083	89.6
778.265	3.58
778.447	202.24
778.629	36.35
778.811	28.16
778.993	153.09
779.175	73.21
779.357	60.93
779.539	-0.51
779.721	83.45
779.903	122.37
780.085	50.69
780.267	71.17
780.449	114.17
780.631	97.79
780.812	173.57
780.994	62.98
781.176	65.02
781.358	28.16
781.54	81.41
781.721	169.47
781.903	187.9
782.085	22.02
782.267	181.76
782.448	7.68
782.63	85.5
782.812	118.27
782.993	130.56
783.175	85.5
783.357	81.41
783.538	30.21
783.72	-6.66
783.901	77.31
784.083	48.64
784.264	120.32
784.446	-0.51
784.627	-27.14
784.809	54.78
784.99	38.4
785.172	81.41
785.353	30.21
785.535	62.98
785.716	36.35
785.897	3.58
786.079	11.78
786.26	99.84
786.441	128.51
786.623	-0.51
786.804	15.87
786.985	118.27
787.167	58.88
787.348	36.35
787.529	89.6
787.71	89.6
787.891	144.89
788.073	-41.47
788.254	-31.23
788.435	179.71
788.616	32.26
788.797	-55.81
788.978	19.97
789.159	44.54
789.34	77.31
789.522	48.64
789.703	40.45
789.884	19.97
790.065	79.36
790.246	83.45
790.427	-10.75
790.607	124.41
790.788	91.65
790.969	-66.05
791.15	73.21
791.331	-4.61
791.512	101.89
791.693	13.82
791.874	-0.51
792.054	167.42
792.235	159.23
792.416	5.63
792.597	-35.33
792.778	77.31
792.958	128.51
793.139	62.98
793.32	44.54
793.5	-12.8
793.681	112.13
793.862	52.74
794.042	9.73
794.223	7.68
794.404	-20.99
794.584	-100.86
794.765	75.26
794.945	38.4
795.126	83.45
795.306	93.69
795.487	-8.7
795.667	22.02
795.848	97.79
796.028	-18.94
796.209	19.97
796.389	122.37
796.57	13.82
796.75	15.87
796.93	65.02
797.111	-8.7
797.291	-45.57
797.471	24.06
797.652	-25.09
797.832	30.21
798.012	52.74
798.192	62.98
798.373	-14.85
798.553	3.58
798.733	40.45
798.913	-16.9
799.093	-8.7
799.274	93.69
799.454	40.45
799.634	-12.8
799.814	89.6
799.994	44.54
800.174	58.88
800.354	54.78
800.534	26.11
800.714	42.5
800.894	-94.72
801.074	-111.1
801.254	-16.9
801.434	-0.51
801.614	7.68
801.794	-64
801.974	1789.41
802.154	-16.9
802.334	97.79
802.514	-74.24
802.693	46.59
802.873	44.54
803.053	157.18
803.233	97.79
803.413	13.82
803.592	-29.18
803.772	-16.9
803.952	-33.28
804.131	-53.76
804.311	71.17
804.491	83.45
804.67	22.02
804.85	-33.28
805.03	105.98
805.209	114.17
805.389	42.5
805.568	30.21
805.748	5.63
805.928	-12.8
806.107	-20.99
806.287	28.16
806.466	19.97
806.646	-49.66
806.825	-8.7
807.004	-25.09
807.184	60.93
807.363	118.27
807.543	28.16
807.722	-86.53
807.901	120.32
808.081	54.78
808.26	-72.19
808.439	24.06
808.619	-61.95
808.798	52.74
808.977	52.74
809.156	155.13
809.336	73.21
809.515	114.17
809.694	-139.77
809.873	-88.57
810.052	79.36
810.231	112.13
810.411	-33.28
810.59	48.64
810.769	-33.28
810.948	62.98
811.127	-78.33
811.306	44.54
811.485	-37.38
811.664	120.32
811.843	97.79
812.022	30.21
812.201	-43.52
812.38	-37.38
812.559	-66.05
812.737	50.69
812.916	-78.33
813.095	-14.85
813.274	15.87
813.453	24.06
813.632	67.07
813.811	108.03
813.989	-43.52
814.168	79.36
814.347	28.16
814.526	32.26
814.704	112.13
814.883	114.17
815.062	-16.9
815.24	62.98
815.419	-102.91
815.598	40.45
815.776	-70.14
815.955	56.83
816.133	-147.97
816.312	52.74
816.49	-8.7
816.669	-16.9
816.847	22.02
817.026	11.78
817.204	7.68
817.383	-16.9
817.561	-43.52
817.74	46.59
817.918	-12.8
818.097	-12.8
818.275	-47.62
818.453	69.12
818.632	38.4
818.81	-59.9
818.988	-12.8
819.167	-64
819.345	58.88
819.523	-68.09
819.701	99.84
819.879	50.69
820.058	30.21
820.236	36.35
820.414	-33.28
820.592	-23.04
820.77	-74.24
820.948	-10.75
821.127	-119.29
821.305	15.87
821.483	-43.52
821.661	79.36
821.839	52.74
822.017	-41.47
822.195	32.26
822.373	60.93
822.551	3.58
822.729	62.98
822.907	-51.71
823.085	52.74
823.262	-6.66
823.44	-16.9
823.618	15.87
823.796	11.78
823.974	-31.23
824.152	5.63
824.329	38.4
824.507	-0.51
824.685	110.08
824.863	-20.99
825.04	50.69
825.218	77.31
825.396	1.54
825.574	30.21
825.751	3.58
825.929	71.17
826.107	-51.71
826.284	65.02
826.462	58.88
826.639	22.02
826.817	-90.62
826.994	-12.8
827.172	-104.96
827.349	103.93
827.527	-23.04
827.704	99.84
827.882	110.08
828.059	36.35
828.237	40.45
828.414	112.13
828.591	-129.53
828.769	7.68
828.946	-131.58
829.124	110.08
829.301	163.33
829.478	-23.04
829.655	77.31
829.833	-39.42
830.01	-74.24
830.187	87.55
830.364	3.58
830.542	-10.75
830.719	89.6
830.896	32.26
831.073	11.78
831.25	58.88
831.427	1.54
831.604	-33.28
831.782	36.35
831.959	9.73
832.136	83.45
832.313	15.87
832.49	-72.19
832.667	26.11
832.844	-47.62
833.021	101.89
833.198	58.88
833.374	13.82
833.551	58.88
833.728	-23.04
833.905	62.98
834.082	-51.71
834.259	-8.7
834.436	93.69
834.612	-78.33
834.789	132.61
834.966	52.74
835.143	54.78
835.319	-82.43
835.496	-23.04
835.673	-8.7
835.85	81.41
836.026	46.59
836.203	116.22
836.38	-23.04
836.556	-14.85
836.733	-23.04
836.909	157.18
837.086	28.16
837.262	-64
837.439	-2.56
837.616	-82.43
837.792	-14.85
837.968	13.82
838.145	-102.91
838.321	15.87
838.498	9.73
838.674	54.78
838.851	77.31
839.027	-43.52
839.203	3.58
839.38	46.59
839.556	-51.71
839.732	13.82
839.909	30.21
840.085	97.79
840.261	-0.51
840.437	7.68
840.614	-12.8
840.79	120.32
840.966	7.68
841.142	13.82
841.318	3.58
841.494	-8.7
841.671	26.11
841.847	-61.95
842.023	-72.19
842.199	50.69
842.375	142.85
842.551	-109.05
842.727	-92.67
842.903	144.89
843.079	3.58
843.255	40.45
843.431	-25.09
843.607	52.74
843.783	-147.97
843.959	30.21
844.134	7.68
844.31	110.08
844.486	-6.66
844.662	-47.62
844.838	42.5
845.013	24.06
845.189	136.7
845.365	65.02
845.541	48.64
845.716	5.63
845.892	5.63
846.068	62.98
846.244	22.02
846.419	22.02
846.595	-20.99
846.77	-47.62
846.946	124.41
847.122	-61.95
847.297	-66.05
847.473	48.64
847.648	-107.01
847.824	15.87
847.999	-145.92
848.175	67.07
848.35	40.45
848.526	65.02
848.701	9.73
848.876	42.5
849.052	132.61
849.227	36.35
849.403	48.64
849.578	-12.8
849.753	22.02
849.929	-14.85
850.104	-41.47
850.279	-2.56
850.454	26.11
850.63	44.54
850.805	1.54
850.98	-6.66
851.155	13.82
851.33	-39.42
851.505	-86.53
851.681	62.98
851.856	-37.38
852.031	22.02
852.206	40.45
852.381	-68.09
852.556	-8.7
852.731	11.78
852.906	99.84
853.081	38.4
853.256	112.13
853.431	44.54
853.606	-51.71
853.781	-68.09
853.956	-78.33
854.131	36.35
854.305	24.06
854.48	-31.23
854.655	-74.24
854.83	-51.71
855.005	-16.9
855.18	13.82
855.354	-66.05
855.529	89.6
855.704	42.5
855.879	91.65
856.053	-8.7
856.228	-74.24
856.403	-102.91
856.577	97.79
856.752	-117.25
856.926	15.87
857.101	28.16
857.276	-111.1
857.45	77.31
857.625	-2.56
857.799	50.69
857.974	13.82
858.148	-107.01
858.323	108.03
858.497	-27.14
858.672	-41.47
858.846	3.58
859.02	-6.66
859.195	-41.47
859.369	15.87
859.543	42.5
859.718	11.78
859.892	22.02
860.066	52.74
860.241	-98.81
860.415	17.92
860.589	48.64
860.763	-47.62
860.938	-78.33
861.112	28.16
861.286	-47.62
861.46	3.58
861.634	13.82
861.808	67.07
861.982	26.11
862.157	-64
862.331	-53.76
862.505	-78.33
862.679	-66.05
862.853	17.92
863.027	-72.19
863.201	110.08
863.375	7.68
863.549	5.63
863.722	50.69
863.896	124.41
864.07	-8.7
864.244	-25.09
864.418	67.07
864.592	48.64
864.766	40.45
864.939	22.02
865.113	-41.47
865.287	89.6
865.461	-47.62
865.634	105.98
865.808	38.4
865.982	-8.7
866.156	-33.28
866.329	-117.25
866.503	77.31
866.676	71.17
866.85	42.5
867.024	-76.29
867.197	91.65
867.371	-0.51
867.544	58.88
867.718	-166.4
867.891	110.08
868.065	-82.43
868.238	-6.66
868.412	126.46
868.585	62.98
868.759	-37.38
868.932	-100.86
869.105	-61.95
869.279	-2.56
869.452	-55.81
869.625	19.97
869.799	1.54
869.972	-27.14
870.145	-20.99
870.319	103.93
870.492	-25.09
870.665	-8.7
870.838	15.87
871.011	-164.35
871.185	-41.47
871.358	-47.62
871.531	40.45
871.704	-25.09
871.877	40.45
872.05	-8.7
872.223	-74.24
872.396	93.69
872.569	81.41
872.742	-115.2
872.915	-61.95
873.088	-4.61
873.261	-94.72
873.434	56.83
873.607	-27.14
873.78	118.27
873.953	-59.9
874.126	36.35
874.299	7.68
874.471	-20.99
874.644	19.97
874.817	58.88
874.99	155.13
875.163	1.54
875.335	32.26
875.508	-8.7
875.681	38.4
875.853	-31.23
876.026	56.83
876.199	24.06
876.371	60.93
876.544	-0.51
876.717	22.02
876.889	9.73
877.062	19.97
877.234	-72.19
877.407	-68.09
877.579	9.73
877.752	-20.99
877.924	75.26
878.097	52.74
878.269	-18.94
878.442	13.82
878.614	15.87
878.786	71.17
878.959	87.55
879.131	28.16
879.303	-98.81
879.476	-41.47
879.648	95.74
879.82	-37.38
879.993	-25.09
880.165	3.58
880.337	-113.15
880.509	3.58
880.681	-150.01
880.854	19.97
881.026	-29.18
881.198	165.37
881.37	32.26
881.542	-55.81
881.714	34.3
881.886	54.78
882.058	-51.71
882.23	-25.09
882.402	-31.23
882.574	40.45
882.746	77.31
882.918	71.17
883.09	79.36
883.262	5.63
883.434	15.87
883.606	-123.39
883.778	-53.76
883.95	132.61
884.122	-68.09
884.293	22.02
884.465	36.35
884.637	93.69
884.809	13.82
884.98	22.02
885.152	5.63
885.324	71.17
885.496	-88.57
885.667	9.73
885.839	101.89
886.011	146.94
886.182	87.55
886.354	24.06
886.525	32.26
886.697	48.64
886.869	1.54
887.04	17.92
887.212	146.94
887.383	194.05
887.555	-25.09
887.726	-12.8
887.897	-8.7
888.069	19.97
888.24	69.12
888.412	-0.51
888.583	11.78
888.754	9.73
888.926	-37.38
889.097	-16.9
889.268	-70.14
889.44	24.06
889.611	-96.77
889.782	-78.33
889.953	40.45
890.125	110.08
890.296	-86.53
890.467	-35.33
890.638	-6.66
890.809	-47.62
890.98	-14.85
891.151	36.35
891.323	122.37
891.494	15.87
891.665	22.02
891.836	58.88
892.007	-29.18
892.178	46.59
892.349	7.68
892.52	13.82
892.691	-18.94
892.862	-18.94
893.032	-72.19
893.203	13.82
893.374	-23.04
893.545	44.54
893.716	24.06
893.887	50.69
894.057	1.54
894.228	19.97
894.399	-76.29
894.57	17.92
894.74	19.97
894.911	87.55
895.082	-8.7
895.253	-41.47
895.423	28.16
895.594	148.99
895.764	17.92
895.935	-152.06
896.106	9.73
896.276	-66.05
896.447	24.06
896.617	-90.62
896.788	-23.04
896.958	-43.52
897.129	7.68
897.299	-49.66
897.47	81.41
897.64	69.12
897.81	-82.43
897.981	15.87
898.151	-18.94
898.322	118.27
898.492	40.45
898.662	-82.43
898.832	-14.85
899.003	65.02
899.173	-10.75
899.343	-49.66
899.513	-82.43
