Data from USB4F104151__84__10-44-25-969.txt Node

Date: Wed Feb 26 10:44:25 EST 2025
User: louis
Spectrometer: USB4F10415
Trigger mode: 4
Integration Time (sec): 1.000000E-1
Scans to average: 1
Electric dark correction enabled: true
Nonlinearity correction enabled: false
Boxcar width: 0
XAxis mode: Wavelengths
Number of Pixels in Spectrum: 3648
>>>>>Begin Spectral Data<<<<<
178.204	-373.92
178.424	-373.92
178.644	-373.92
178.864	-400.55
179.084	-408.74
179.304	-36.01
179.524	-7.34
179.744	-1.19
179.964	54.1
180.184	107.35
180.404	11.09
180.624	-60.59
180.844	72.53
181.064	-40.11
181.283	0.85
181.503	-126.12
181.723	25.43
181.943	-58.54
182.163	191.31
182.383	-40.11
182.602	129.88
182.822	150.36
183.042	31.57
183.262	31.57
183.482	64.34
183.701	41.81
183.921	97.11
184.141	39.76
184.361	117.59
184.58	15.19
184.8	9.05
185.02	-52.39
185.239	76.63
185.459	2.9
185.679	183.12
185.898	-23.72
186.118	74.58
186.338	97.11
186.557	82.77
186.777	9.05
186.997	82.77
187.216	82.77
187.436	195.41
187.655	52.05
187.875	60.24
188.095	66.39
188.314	144.21
188.534	213.84
188.753	47.96
188.973	144.21
189.192	265.04
189.412	-9.39
189.631	9.05
189.851	95.06
190.07	201.55
190.29	47.96
190.509	15.19
190.729	68.44
190.948	191.31
191.168	211.79
191.387	160.59
191.607	68.44
191.826	88.92
192.045	-17.58
192.265	33.62
192.484	136.02
192.704	50
192.923	41.81
193.142	172.88
193.362	136.02
193.581	129.88
193.8	31.57
194.02	19.29
194.239	105.3
194.458	60.24
194.678	47.96
194.897	66.39
195.116	181.07
195.335	76.63
195.555	138.07
195.774	2.9
195.993	133.97
196.212	23.38
196.432	62.29
196.651	-3.24
196.87	17.24
197.089	256.85
197.308	93.01
197.528	86.87
197.747	27.48
197.966	-1.19
198.185	123.73
198.404	-17.58
198.623	150.36
198.842	127.83
199.062	119.64
199.281	99.16
199.5	15.19
199.719	58.2
199.938	164.69
200.157	136.02
200.376	95.06
200.595	136.02
200.814	105.3
201.033	72.53
201.252	176.98
201.471	93.01
201.69	93.01
201.909	101.2
202.128	142.16
202.347	140.12
202.566	17.24
202.785	-5.29
203.004	27.48
203.223	287.57
203.442	52.05
203.661	-42.15
203.879	105.3
204.098	156.5
204.317	-40.11
204.536	109.4
204.755	68.44
204.974	189.27
205.193	17.24
205.411	156.5
205.63	129.88
205.849	133.97
206.068	15.19
206.287	-9.39
206.505	119.64
206.724	33.62
206.943	-1.19
207.162	33.62
207.381	125.78
207.599	35.67
207.818	74.58
208.037	-27.82
208.255	90.96
208.474	45.91
208.693	76.63
208.911	84.82
209.13	205.65
209.349	56.15
209.567	99.16
209.786	131.92
210.005	68.44
210.223	47.96
210.442	-11.43
210.661	66.39
210.879	172.88
211.098	86.87
211.316	162.64
211.535	78.68
211.753	68.44
211.972	74.58
212.191	31.57
212.409	29.52
212.628	160.59
212.846	60.24
213.065	103.25
213.283	152.4
213.502	99.16
213.72	60.24
213.938	39.76
214.157	68.44
214.375	170.83
214.594	86.87
214.812	93.01
215.031	23.38
215.249	64.34
215.467	50
215.686	95.06
215.904	129.88
216.122	136.02
216.341	99.16
216.559	103.25
216.778	166.74
216.996	121.68
217.214	27.48
217.432	160.59
217.651	45.91
217.869	50
218.087	93.01
218.306	125.78
218.524	109.4
218.742	35.67
218.96	97.11
219.179	76.63
219.397	58.2
219.615	211.79
219.833	115.54
220.051	43.86
220.27	123.73
220.488	129.88
220.706	35.67
220.924	47.96
221.142	101.2
221.36	62.29
221.578	133.97
221.796	2.9
222.015	41.81
222.233	9.05
222.451	306
222.669	-13.48
222.887	29.52
223.105	43.86
223.323	-11.43
223.541	103.25
223.759	64.34
223.977	111.44
224.195	142.16
224.413	119.64
224.631	93.01
224.849	93.01
225.067	297.81
225.285	78.68
225.503	19.29
225.721	-29.87
225.939	60.24
226.157	148.31
226.375	240.47
226.592	56.15
226.81	74.58
227.028	160.59
227.246	191.31
227.464	50
227.682	138.07
227.9	123.73
228.117	74.58
228.335	113.49
228.553	109.4
228.771	105.3
228.989	56.15
229.206	203.6
229.424	64.34
229.642	76.63
229.86	17.24
230.077	168.79
230.295	131.92
230.513	95.06
230.731	82.77
230.948	303.95
231.166	93.01
231.384	76.63
231.601	37.72
231.819	219.99
232.037	33.62
232.254	35.67
232.472	66.39
232.689	56.15
232.907	115.54
233.125	25.43
233.342	90.96
233.56	99.16
233.777	-50.35
233.995	50
234.213	129.88
234.43	82.77
234.648	88.92
234.865	60.24
235.083	66.39
235.3	117.59
235.518	107.35
235.735	174.93
235.953	29.52
236.17	-5.29
236.388	50
236.605	80.72
236.822	162.64
237.04	113.49
237.257	60.24
237.475	23.38
237.692	138.07
237.909	93.01
238.127	-5.29
238.344	76.63
238.562	97.11
238.779	17.24
238.996	-76.97
239.214	62.29
239.431	133.97
239.648	-7.34
239.865	181.07
240.083	74.58
240.3	150.36
240.517	17.24
240.735	27.48
240.952	179.03
241.169	76.63
241.386	129.88
241.603	64.34
241.821	2.9
242.038	64.34
242.255	93.01
242.472	-7.34
242.689	101.2
242.907	195.41
243.124	117.59
243.341	27.48
243.558	21.33
243.775	19.29
243.992	-31.91
244.209	95.06
244.426	123.73
244.643	121.68
244.86	80.72
245.078	80.72
245.295	84.82
245.512	33.62
245.729	-15.53
245.946	97.11
246.163	90.96
246.38	72.53
246.597	119.64
246.814	84.82
247.031	62.29
247.248	62.29
247.464	66.39
247.681	90.96
247.898	78.68
248.115	127.83
248.332	-74.92
248.549	205.65
248.766	170.83
248.983	119.64
249.2	93.01
249.417	162.64
249.633	17.24
249.85	105.3
250.067	66.39
250.284	111.44
250.501	146.26
250.717	60.24
250.934	-48.3
251.151	58.2
251.368	95.06
251.585	146.26
251.801	23.38
252.018	-3.24
252.235	170.83
252.451	-76.97
252.668	80.72
252.885	111.44
253.102	140.12
253.318	70.48
253.535	121.68
253.752	-1.19
253.968	113.49
254.185	-33.96
254.401	93.01
254.618	123.73
254.835	103.25
255.051	154.45
255.268	78.68
255.484	70.48
255.701	31.57
255.917	93.01
256.134	7
256.351	25.43
256.567	47.96
256.784	68.44
257	-85.16
257.217	224.08
257.433	185.17
257.65	60.24
257.866	152.4
258.082	2.9
258.299	47.96
258.515	193.36
258.732	25.43
258.948	54.1
259.165	54.1
259.381	-15.53
259.597	131.92
259.814	56.15
260.03	64.34
260.246	93.01
260.463	211.79
260.679	191.31
260.895	121.68
261.112	99.16
261.328	52.05
261.544	-66.73
261.761	224.08
261.977	-9.39
262.193	-44.2
262.409	162.64
262.626	45.91
262.842	131.92
263.058	90.96
263.274	197.46
263.49	197.46
263.707	131.92
263.923	172.88
264.139	-42.15
264.355	25.43
264.571	119.64
264.787	187.22
265.004	187.22
265.22	127.83
265.436	0.85
265.652	7
265.868	121.68
266.084	56.15
266.3	68.44
266.516	-46.25
266.732	64.34
266.948	-21.67
267.164	68.44
267.38	111.44
267.596	113.49
267.812	211.79
268.028	47.96
268.244	45.91
268.46	64.34
268.676	103.25
268.892	35.67
269.108	-52.39
269.324	70.48
269.54	-91.31
269.756	185.17
269.972	-83.11
270.188	76.63
270.403	-3.24
270.619	9.05
270.835	-5.29
271.051	27.48
271.267	-1.19
271.483	-31.91
271.698	64.34
271.914	97.11
272.13	101.2
272.346	11.09
272.562	115.54
272.777	129.88
272.993	62.29
273.209	56.15
273.425	80.72
273.64	-9.39
273.856	52.05
274.072	19.29
274.287	13.14
274.503	146.26
274.719	0.85
274.934	113.49
275.15	-5.29
275.366	33.62
275.581	-70.83
275.797	97.11
276.012	113.49
276.228	56.15
276.444	29.52
276.659	172.88
276.875	33.62
277.09	105.3
277.306	45.91
277.521	58.2
277.737	2.9
277.952	127.83
278.168	27.48
278.383	31.57
278.599	111.44
278.814	131.92
279.03	0.85
279.245	156.5
279.461	105.3
279.676	129.88
279.892	-38.06
280.107	-19.63
280.322	7
280.538	29.52
280.753	47.96
280.969	74.58
281.184	25.43
281.399	166.74
281.615	82.77
281.83	101.2
282.045	13.14
282.26	54.1
282.476	97.11
282.691	150.36
282.906	17.24
283.122	84.82
283.337	19.29
283.552	43.86
283.767	2.9
283.983	41.81
284.198	60.24
284.413	35.67
284.628	-42.15
284.843	88.92
285.058	105.3
285.274	-11.43
285.489	-3.24
285.704	86.87
285.919	21.33
286.134	99.16
286.349	17.24
286.564	76.63
286.779	127.83
286.995	9.05
287.21	11.09
287.425	56.15
287.64	52.05
287.855	47.96
288.07	23.38
288.285	133.97
288.5	97.11
288.715	99.16
288.93	123.73
289.145	52.05
289.36	82.77
289.575	-7.34
289.79	152.4
290.004	2.9
290.219	133.97
290.434	21.33
290.649	97.11
290.864	27.48
291.079	72.53
291.294	-13.48
291.509	27.48
291.724	56.15
291.938	4.95
292.153	41.81
292.368	15.19
292.583	125.78
292.798	101.2
293.012	99.16
293.227	82.77
293.442	60.24
293.657	119.64
293.871	160.59
294.086	107.35
294.301	197.46
294.516	191.31
294.73	72.53
294.945	105.3
295.16	-33.96
295.374	150.36
295.589	131.92
295.804	0.85
296.018	25.43
296.233	109.4
296.447	-33.96
296.662	35.67
296.877	84.82
297.091	129.88
297.306	45.91
297.52	107.35
297.735	107.35
297.949	70.48
298.164	109.4
298.378	90.96
298.593	-19.63
298.807	52.05
299.022	41.81
299.236	166.74
299.451	56.15
299.665	2.9
299.88	56.15
300.094	160.59
300.309	66.39
300.523	144.21
300.737	21.33
300.952	181.07
301.166	197.46
301.381	-3.24
301.595	11.09
301.809	54.1
302.024	60.24
302.238	27.48
302.452	156.5
302.667	15.19
302.881	195.41
303.095	99.16
303.309	23.38
303.524	70.48
303.738	60.24
303.952	-25.77
304.166	150.36
304.381	29.52
304.595	226.13
304.809	70.48
305.023	80.72
305.237	-3.24
305.452	25.43
305.666	68.44
305.88	95.06
306.094	80.72
306.308	176.98
306.522	70.48
306.736	121.68
306.95	109.4
307.164	-33.96
307.379	41.81
307.593	136.02
307.807	244.56
308.021	80.72
308.235	129.88
308.449	-36.01
308.663	50
308.877	301.9
309.091	19.29
309.305	113.49
309.519	-31.91
309.733	84.82
309.947	-29.87
310.161	115.54
310.374	97.11
310.588	240.47
310.802	13.14
311.016	-5.29
311.23	107.35
311.444	13.14
311.658	62.29
311.872	156.5
312.085	50
312.299	144.21
312.513	181.07
312.727	56.15
312.941	43.86
313.154	76.63
313.368	29.52
313.582	133.97
313.796	37.72
314.009	93.01
314.223	82.77
314.437	68.44
314.651	78.68
314.864	-48.3
315.078	84.82
315.292	15.19
315.505	58.2
315.719	193.36
315.933	115.54
316.146	45.91
316.36	74.58
316.573	174.93
316.787	101.2
317.001	138.07
317.214	60.24
317.428	-31.91
317.641	-7.34
317.855	60.24
318.068	58.2
318.282	125.78
318.495	205.65
318.709	170.83
318.922	78.68
319.136	224.08
319.349	164.69
319.563	64.34
319.776	140.12
319.99	-60.59
320.203	150.36
320.417	7
320.63	158.55
320.843	215.89
321.057	150.36
321.27	15.19
321.483	109.4
321.697	160.59
321.91	9.05
322.124	215.89
322.337	109.4
322.55	-9.39
322.763	111.44
322.977	25.43
323.19	-31.91
323.403	70.48
323.617	90.96
323.83	131.92
324.043	-7.34
324.256	47.96
324.469	23.38
324.683	160.59
324.896	11.09
325.109	119.64
325.322	-46.25
325.535	150.36
325.748	238.42
325.962	33.62
326.175	11.09
326.388	123.73
326.601	179.03
326.814	9.05
327.027	109.4
327.24	197.46
327.453	-79.02
327.666	131.92
327.879	158.55
328.092	68.44
328.305	136.02
328.518	-27.82
328.731	-15.53
328.944	11.09
329.157	140.12
329.37	88.92
329.583	179.03
329.796	201.55
330.009	31.57
330.222	64.34
330.435	58.2
330.648	70.48
330.861	101.2
331.073	68.44
331.286	127.83
331.499	52.05
331.712	-60.59
331.925	56.15
332.138	47.96
332.35	160.59
332.563	-11.43
332.776	158.55
332.989	13.14
333.202	7
333.414	33.62
333.627	64.34
333.84	113.49
334.053	95.06
334.265	-31.91
334.478	23.38
334.691	68.44
334.903	15.19
335.116	-25.77
335.329	84.82
335.541	123.73
335.754	166.74
335.966	11.09
336.179	-25.77
336.392	131.92
336.604	80.72
336.817	160.59
337.029	80.72
337.242	45.91
337.454	144.21
337.667	-1.19
337.88	80.72
338.092	74.58
338.305	62.29
338.517	43.86
338.729	136.02
338.942	127.83
339.154	11.09
339.367	-27.82
339.579	103.25
339.792	113.49
340.004	125.78
340.217	39.76
340.429	111.44
340.641	45.91
340.854	-3.24
341.066	31.57
341.278	86.87
341.491	158.55
341.703	60.24
341.915	-74.92
342.128	121.68
342.34	37.72
342.552	35.67
342.764	54.1
342.977	41.81
343.189	144.21
343.401	60.24
343.613	9.05
343.826	58.2
344.038	29.52
344.25	72.53
344.462	19.29
344.674	129.88
344.886	93.01
345.099	142.16
345.311	144.21
345.523	15.19
345.735	-64.68
345.947	115.54
346.159	99.16
346.371	62.29
346.583	68.44
346.795	228.18
347.007	72.53
347.219	88.92
347.431	56.15
347.643	121.68
347.855	29.52
348.067	181.07
348.279	-74.92
348.491	23.38
348.703	150.36
348.915	13.14
349.127	-9.39
349.339	37.72
349.551	76.63
349.763	33.62
349.975	58.2
350.187	187.22
350.399	136.02
350.61	209.75
350.822	86.87
351.034	113.49
351.246	115.54
351.458	90.96
351.669	111.44
351.881	131.92
352.093	97.11
352.305	193.36
352.517	142.16
352.728	84.82
352.94	84.82
353.152	82.77
353.363	-21.67
353.575	131.92
353.787	191.31
353.999	88.92
354.21	150.36
354.422	7
354.633	56.15
354.845	86.87
355.057	95.06
355.268	54.1
355.48	133.97
355.692	-36.01
355.903	133.97
356.115	21.33
356.326	-15.53
356.538	154.45
356.749	138.07
356.961	113.49
357.172	93.01
357.384	80.72
357.595	262.99
357.807	82.77
358.018	15.19
358.23	72.53
358.441	211.79
358.653	95.06
358.864	109.4
359.075	29.52
359.287	86.87
359.498	43.86
359.709	115.54
359.921	33.62
360.132	215.89
360.344	41.81
360.555	-1.19
360.766	90.96
360.977	97.11
361.189	199.51
361.4	0.85
361.611	115.54
361.823	109.4
362.034	68.44
362.245	-31.91
362.456	45.91
362.667	109.4
362.879	-1.19
363.09	80.72
363.301	37.72
363.512	68.44
363.723	23.38
363.935	19.29
364.146	105.3
364.357	95.06
364.568	45.91
364.779	-23.72
364.99	232.27
365.201	-17.58
365.412	160.59
365.623	35.67
365.834	150.36
366.045	54.1
366.256	146.26
366.467	52.05
366.678	109.4
366.889	93.01
367.1	70.48
367.311	99.16
367.522	54.1
367.733	119.64
367.944	72.53
368.155	-17.58
368.366	172.88
368.577	138.07
368.788	93.01
368.999	4.95
369.209	60.24
369.42	301.9
369.631	209.75
369.842	93.01
370.053	31.57
370.264	95.06
370.474	-54.44
370.685	142.16
370.896	70.48
371.107	211.79
371.317	105.3
371.528	103.25
371.739	166.74
371.95	197.46
372.16	205.65
372.371	9.05
372.582	35.67
372.792	68.44
373.003	84.82
373.214	136.02
373.424	99.16
373.635	-38.06
373.846	176.98
374.056	72.53
374.267	95.06
374.477	58.2
374.688	56.15
374.898	170.83
375.109	121.68
375.319	66.39
375.53	95.06
375.74	88.92
375.951	123.73
376.161	66.39
376.372	117.59
376.582	7
376.793	78.68
377.003	-9.39
377.214	-40.11
377.424	97.11
377.635	58.2
377.845	15.19
378.055	248.66
378.266	-62.63
378.476	84.82
378.686	146.26
378.897	9.05
379.107	129.88
379.317	70.48
379.528	84.82
379.738	164.69
379.948	-11.43
380.158	121.68
380.369	107.35
380.579	117.59
380.789	43.86
380.999	136.02
381.21	68.44
381.42	217.94
381.63	-36.01
381.84	95.06
382.05	164.69
382.261	174.93
382.471	191.31
382.681	-3.24
382.891	183.12
383.101	47.96
383.311	4.95
383.521	76.63
383.731	56.15
383.941	76.63
384.151	123.73
384.361	45.91
384.571	43.86
384.781	86.87
384.991	95.06
385.201	123.73
385.411	111.44
385.621	121.68
385.831	170.83
386.041	43.86
386.251	107.35
386.461	191.31
386.671	47.96
386.881	66.39
387.091	23.38
387.301	115.54
387.511	101.2
387.72	140.12
387.93	131.92
388.14	31.57
388.35	103.25
388.56	47.96
388.769	111.44
388.979	23.38
389.189	-25.77
389.399	101.2
389.609	80.72
389.818	176.98
390.028	107.35
390.238	125.78
390.447	47.96
390.657	150.36
390.867	66.39
391.076	21.33
391.286	119.64
391.496	19.29
391.705	109.4
391.915	267.09
392.125	146.26
392.334	62.29
392.544	211.79
392.753	131.92
392.963	21.33
393.172	93.01
393.382	39.76
393.591	211.79
393.801	117.59
394.01	119.64
394.22	107.35
394.429	31.57
394.639	25.43
394.848	166.74
395.058	93.01
395.267	23.38
395.477	95.06
395.686	148.31
395.895	154.45
396.105	181.07
396.314	64.34
396.524	105.3
396.733	56.15
396.942	133.97
397.152	144.21
397.361	154.45
397.57	90.96
397.78	127.83
397.989	144.21
398.198	181.07
398.407	19.29
398.617	60.24
398.826	125.78
399.035	50
399.244	170.83
399.453	99.16
399.663	11.09
399.872	41.81
400.081	11.09
400.29	144.21
400.499	-33.96
400.708	78.68
400.917	129.88
401.127	78.68
401.336	109.4
401.545	176.98
401.754	111.44
401.963	123.73
402.172	27.48
402.381	54.1
402.59	-9.39
402.799	41.81
403.008	125.78
403.217	107.35
403.426	131.92
403.635	-36.01
403.844	33.62
404.053	11.09
404.262	39.76
404.471	256.85
404.68	125.78
404.888	66.39
405.097	33.62
405.306	172.88
405.515	117.59
405.724	84.82
405.933	119.64
406.142	115.54
406.35	140.12
406.559	82.77
406.768	64.34
406.977	197.46
407.185	127.83
407.394	76.63
407.603	43.86
407.812	111.44
408.02	142.16
408.229	-21.67
408.438	123.73
408.646	-27.82
408.855	74.58
409.064	160.59
409.272	103.25
409.481	54.1
409.69	0.85
409.898	58.2
410.107	160.59
410.315	195.41
410.524	111.44
410.733	31.57
410.941	103.25
411.15	136.02
411.358	176.98
411.567	193.36
411.775	80.72
411.984	23.38
412.192	115.54
412.401	86.87
412.609	189.27
412.818	131.92
413.026	99.16
413.234	41.81
413.443	95.06
413.651	4.95
413.86	76.63
414.068	215.89
414.276	189.27
414.485	41.81
414.693	193.36
414.901	205.65
415.11	183.12
415.318	88.92
415.526	60.24
415.734	142.16
415.943	107.35
416.151	131.92
416.359	39.76
416.567	45.91
416.776	140.12
416.984	103.25
417.192	226.13
417.4	-7.34
417.608	47.96
417.817	-1.19
418.025	138.07
418.233	236.37
418.441	39.76
418.649	82.77
418.857	90.96
419.065	125.78
419.273	56.15
419.481	66.39
419.689	45.91
419.897	41.81
420.105	-17.58
420.313	207.7
420.521	152.4
420.729	193.36
420.937	62.29
421.145	13.14
421.353	195.41
421.561	201.55
421.769	129.88
421.977	-23.72
422.185	95.06
422.393	70.48
422.601	105.3
422.809	103.25
423.017	101.2
423.224	136.02
423.432	164.69
423.64	93.01
423.848	140.12
424.056	2.9
424.263	191.31
424.471	45.91
424.679	217.94
424.887	-13.48
425.094	103.25
425.302	146.26
425.51	88.92
425.718	152.4
425.925	68.44
426.133	-17.58
426.341	277.33
426.548	78.68
426.756	117.59
426.964	146.26
427.171	93.01
427.379	168.79
427.586	70.48
427.794	82.77
428.001	187.22
428.209	88.92
428.417	197.46
428.624	160.59
428.832	119.64
429.039	117.59
429.247	103.25
429.454	222.03
429.662	207.7
429.869	179.03
430.076	107.35
430.284	170.83
430.491	154.45
430.699	142.16
430.906	279.38
431.114	136.02
431.321	236.37
431.528	148.31
431.736	127.83
431.943	158.55
432.15	228.18
432.358	174.93
432.565	256.85
432.772	-9.39
432.979	258.9
433.187	144.21
433.394	222.03
433.601	158.55
433.808	275.28
434.016	310.1
434.223	213.84
434.43	240.47
434.637	342.86
434.844	310.1
435.052	262.99
435.259	258.9
435.466	297.81
435.673	273.23
435.88	254.8
436.087	330.58
436.294	359.25
436.501	369.49
436.708	359.25
436.915	363.34
437.122	432.97
437.329	324.43
437.537	303.95
437.743	389.97
437.95	490.32
438.157	371.54
438.364	342.86
438.571	396.11
438.778	547.66
438.985	461.65
439.192	514.89
439.399	447.31
439.606	465.74
439.813	516.94
440.02	656.2
440.227	717.64
440.433	543.57
440.64	525.13
440.847	580.43
441.054	549.71
441.261	762.7
441.467	592.72
441.674	549.71
441.881	721.74
442.088	596.81
442.294	709.45
442.501	740.17
442.708	809.8
442.914	865.1
443.121	879.43
443.328	854.86
443.534	998.21
443.741	994.12
443.948	865.1
444.154	987.97
444.361	1123.14
444.568	1004.36
444.774	1047.37
444.981	1002.31
445.187	1174.34
445.394	1096.52
445.6	1121.09
445.807	1362.75
446.013	1223.49
446.22	1278.79
446.426	1401.66
446.633	1461.06
446.839	1637.18
447.046	1327.94
447.252	1616.7
447.459	1698.62
447.665	1674.04
447.871	1788.73
448.078	1782.59
448.284	1870.65
448.491	1987.38
448.697	2106.17
448.903	2116.41
449.11	2061.11
449.316	2259.76
449.522	2265.91
449.728	2458.42
449.935	2411.31
450.141	2442.03
450.347	2702.12
450.553	2661.16
450.76	2796.33
450.966	2755.37
451.172	3124.01
451.378	3070.76
451.584	3259.17
451.791	3404.58
451.997	3486.5
452.203	3498.78
452.409	3848.99
452.615	3668.77
452.821	3574.56
453.027	3709.72
453.233	4158.23
453.44	4113.17
453.646	4467.47
453.852	4471.57
454.058	4705.04
454.264	4694.8
454.47	5206.79
454.676	5174.02
454.882	5812.99
455.088	5417.73
455.294	5634.82
455.5	5888.76
455.705	6470.39
455.911	6427.38
456.117	6521.59
456.323	6853.36
456.529	6755.05
456.735	7564
456.941	7578.34
457.147	7781.09
457.352	7959.26
457.558	8481.49
457.764	8723.15
457.97	9124.55
458.176	9419.46
458.381	9908.93
458.587	10156.73
458.793	10525.36
458.999	10535.6
459.204	12102.3
459.41	12323.48
459.616	12229.27
459.821	12606.1
460.027	13449.86
460.233	14140.03
460.438	14201.47
460.644	14789.24
460.85	15018.61
461.055	15690.34
461.261	16157.28
461.466	16167.52
461.672	16312.92
461.878	18346.56
462.083	18334.27
462.289	18750.01
462.494	19335.73
462.7	19401.26
462.905	19505.71
463.111	21105.17
463.316	22198.79
463.522	22925.82
463.727	23476.72
463.932	24277.47
464.138	25092.57
464.343	26358.21
464.549	26216.9
464.754	28465.57
464.959	28969.37
465.165	29440.4
465.37	29192.6
465.575	29047.19
465.781	30998.91
465.986	32108.91
466.191	31785.33
466.397	31969.65
466.602	31275.38
466.807	33141.08
467.012	33507.67
467.218	33708.37
467.423	34199.88
467.628	35346.75
467.833	37081.38
468.038	36079.92
468.244	35971.38
468.449	37364
468.654	36522.28
468.859	36700.45
469.064	36667.69
469.269	35778.87
469.474	36012.34
469.679	36948.26
469.885	35905.84
470.09	36841.76
470.295	37169.44
470.5	36106.54
470.705	36286.76
470.91	34867.52
471.115	34820.42
471.32	35615.03
471.525	35049.79
471.73	34414.92
471.935	34144.59
472.139	32856.42
472.344	33255.77
472.549	32768.35
472.754	31768.94
472.959	31480.18
473.164	30208.39
473.369	29897.1
473.574	30650.75
473.778	30079.37
473.983	29403.54
474.188	29096.35
474.393	27740.59
474.598	27916.72
474.802	26829.24
475.007	26806.72
475.212	26493.38
475.417	25330.13
475.621	25182.68
475.826	25059.8
476.031	24259.04
476.235	23785.96
476.44	23810.54
476.645	23157.24
476.849	22659.58
477.054	22671.87
477.259	21983.75
477.463	21705.23
477.668	21316.11
477.872	21527.05
478.077	20869.65
478.282	20169.25
478.486	19946.02
478.691	20048.42
478.895	19712.55
479.1	19720.74
479.304	19327.53
479.509	18870.84
479.713	18854.45
479.918	18481.72
480.122	18000.45
480.326	18387.52
480.531	18047.55
480.735	17830.47
480.94	17834.57
481.144	18408
481.348	17177.17
481.553	17465.93
481.757	17048.15
481.961	17107.54
482.166	17361.48
482.37	17013.33
482.574	16642.65
482.778	16757.33
482.983	16792.15
483.187	16306.78
483.391	16478.81
483.595	16126.56
483.8	15997.54
484.004	15987.3
484.208	16058.98
484.412	15645.29
484.616	15653.48
484.821	15307.37
485.025	14615.16
485.229	14912.11
485.433	14674.55
485.637	14680.69
485.841	14514.81
486.045	14144.13
486.249	14035.58
486.453	13830.79
486.657	13644.42
486.861	13392.52
487.065	12970.64
487.269	13144.72
487.473	12696.21
487.677	12671.64
487.881	12706.45
488.085	12147.36
488.289	12006.05
488.493	11965.09
488.697	11936.42
488.901	11793.06
489.105	11291.31
489.309	11176.62
489.512	10986.16
489.716	10859.18
489.92	10683.06
490.124	10431.16
490.328	10379.96
490.531	10171.07
490.735	9880.25
490.939	9661.12
491.143	9448.13
491.346	9425.61
491.55	9286.34
491.754	9067.21
491.958	9001.68
492.161	8755.92
492.365	8618.71
492.569	8346.33
492.772	8288.98
492.976	8305.37
493.18	8166.1
493.383	8217.3
493.587	8104.67
493.79	7873.25
493.994	7885.53
494.197	7713.5
494.401	7602.91
494.605	7451.36
494.808	7508.71
495.012	7308.01
495.215	7426.79
495.419	7445.22
495.622	7183.08
495.825	7224.04
496.029	6986.47
496.232	7285.48
496.436	6951.66
496.639	7230.18
496.843	6943.47
497.046	7029.48
497.249	7164.65
497.453	7135.98
497.656	7027.43
497.859	7033.58
498.063	7113.45
498.266	7303.91
498.469	7135.98
498.673	7023.34
498.876	7076.59
499.079	7146.22
499.282	7072.49
499.485	7246.57
499.689	7275.24
499.892	7359.21
500.095	7027.43
500.298	7293.67
500.501	7428.84
500.705	7492.32
500.908	7557.86
501.111	7537.38
501.314	7566.05
501.517	7660.26
501.72	7914.2
501.923	7781.09
502.126	7860.96
502.329	8139.48
502.532	8051.42
502.735	8157.91
502.938	8295.13
503.141	8422.1
503.344	8342.23
503.547	8432.34
503.75	8733.39
503.953	8667.86
504.156	8796.88
504.359	9065.16
504.562	9122.51
504.765	9398.98
504.968	9458.37
505.17	9503.43
505.373	9530.05
505.576	9788.1
505.779	10197.69
505.982	9898.69
506.185	10078.91
506.387	10048.19
506.59	10449.59
506.793	11037.36
506.996	10906.29
507.198	11309.74
507.401	11319.98
507.604	11594.4
507.807	11848.35
508.009	11797.15
508.212	12225.18
508.415	12376.73
508.617	12835.47
508.82	12726.93
509.022	12898.96
509.225	13351.56
509.428	13779.59
509.63	14000.77
509.833	13939.33
510.035	14875.25
510.238	14834.29
510.44	14946.93
510.643	15680.1
510.845	15995.49
511.048	16194.14
511.25	16642.65
511.453	16894.55
511.655	17476.17
511.858	17697.35
512.06	17812.04
512.262	18432.57
512.465	18924.08
512.667	19243.57
512.87	19552.81
513.072	19905.06
513.274	20449.82
513.477	21121.56
513.679	21391.89
513.881	22049.28
514.084	22766.07
514.286	22780.41
514.488	23366.13
514.69	24238.56
514.893	24089.06
515.095	24906.2
515.297	25125.33
515.499	25913.8
515.701	26284.48
515.904	27339.19
516.106	27693.49
516.308	28215.72
516.51	29077.91
516.712	29108.63
516.914	29671.82
517.116	30484.87
517.318	30615.94
517.52	31758.7
517.722	31785.33
517.925	32526.69
518.127	33589.59
518.329	33429.85
518.531	34005.33
518.733	34926.91
518.935	35604.79
519.136	36045.1
519.338	36428.07
519.54	37062.94
519.742	37593.37
519.944	38289.68
520.146	39014.66
520.348	39368.96
520.55	40175.86
520.752	40288.49
520.954	41185.5
521.155	40980.71
521.357	41844.95
521.559	42457.29
521.761	43249.86
521.963	43239.62
522.164	43378.88
522.366	44073.14
522.568	44392.62
522.77	44734.63
522.971	45463.71
523.173	44998.82
523.375	46041.24
523.576	45713.56
523.778	45924.5
523.98	46567.57
524.181	46819.47
524.383	46682.25
524.584	47292.55
524.786	47153.29
524.988	46485.65
525.189	47095.94
525.391	47646.85
525.592	47296.64
525.794	47114.37
525.995	47235.2
526.197	47235.2
526.398	47423.62
526.6	47394.95
526.801	47188.1
527.003	46946.44
527.204	47333.51
527.406	47509.63
527.607	46626.96
527.808	46782.6
528.01	45686.94
528.211	45744.28
528.412	46248.08
528.614	45580.45
528.815	45426.85
529.016	45494.43
529.218	44462.25
529.419	44388.53
529.62	44146.87
529.822	43991.22
530.023	43319.49
530.224	43094.21
530.425	42436.81
530.626	42016.98
530.828	41967.83
531.029	41615.58
531.23	41011.43
531.431	40507.63
531.632	40147.18
531.833	39696.63
532.035	39282.94
532.236	38299.92
532.437	38498.57
532.638	37732.63
532.839	37339.42
533.04	37247.26
533.241	36266.28
533.442	36114.73
533.643	35885.36
533.844	35062.08
534.045	34900.29
534.246	33724.75
534.447	33778
534.648	33476.95
534.849	32977.25
535.05	32633.19
535.251	31740.27
535.451	31502.71
535.652	31570.29
535.853	30697.86
536.054	30474.63
536.255	30179.72
536.456	29249.94
536.657	29680.02
536.857	28684.7
537.058	28455.33
537.259	28326.31
537.46	27652.53
537.66	27603.38
537.861	27005.37
538.062	26628.54
538.263	26419.65
538.463	25854.41
538.664	25659.85
538.865	25176.53
539.065	25170.39
539.266	24639.97
539.466	24898.01
539.667	24183.27
539.868	24050.15
540.068	23462.38
540.269	23527.92
540.469	23163.38
540.67	22852.09
540.87	22333.95
541.071	22049.28
541.271	22057.48
541.472	21815.82
541.672	21385.74
541.873	21406.22
542.073	20621.85
542.274	20757.02
542.474	20558.36
542.675	20220.45
542.875	20228.64
543.075	19890.73
543.276	19694.12
543.476	19245.62
543.676	19378.73
543.877	19063.35
544.077	18942.52
544.277	18610.75
544.478	18348.61
544.678	18195.01
544.878	18092.61
545.078	17844.81
545.279	17705.54
545.479	17121.87
545.679	17238.61
545.879	16996.95
546.079	16738.9
546.28	16677.46
546.48	16325.21
546.68	16261.73
546.88	16126.56
547.08	16130.66
547.28	15538.79
547.48	15385.19
547.68	15540.84
547.88	15098.48
548.081	14920.31
548.281	14557.82
548.481	14588.53
548.681	14490.23
548.881	13986.43
549.081	13986.43
549.28	13599.37
549.48	13935.23
549.68	13640.33
549.88	13410.95
550.08	13066.89
550.28	13030.03
550.48	12929.68
550.68	12673.68
550.88	12507.8
551.08	11967.13
551.279	12106.4
551.479	11836.06
551.679	11729.57
551.879	11594.4
552.079	11332.26
552.278	11276.97
552.478	11123.37
552.678	10900.14
552.878	10891.95
553.077	10683.06
553.277	10431.16
553.477	10549.94
553.676	10273.46
553.876	10216.12
554.076	9689.79
554.275	9665.22
554.475	9290.44
554.674	9421.51
554.874	9274.06
555.074	8950.48
555.273	9020.11
555.473	8882.89
555.672	8524.5
555.872	8630.99
556.071	8366.81
556.271	8407.77
556.47	7996.12
556.67	8061.66
556.869	7860.96
557.068	7772.89
557.268	7582.43
557.467	7437.03
557.667	7437.03
557.866	7279.33
558.065	7185.13
558.265	6988.52
558.464	6963.95
558.663	6726.38
558.863	6695.66
559.062	6738.67
559.261	6390.52
559.461	6454
559.66	6230.77
559.859	6206.2
560.058	6064.89
560.258	6017.79
560.457	5829.37
560.656	6036.22
560.855	5585.66
561.054	5815.04
561.253	5550.85
561.453	5427.97
561.652	5366.53
561.851	5448.45
562.05	5085.96
562.249	5053.19
562.448	5063.43
562.647	4846.35
562.846	4952.84
563.045	4973.32
563.244	4852.49
563.443	4866.83
563.642	4506.38
563.841	4684.56
564.04	4533.01
564.239	4399.89
564.438	4236.05
564.637	4055.83
564.836	4274.96
565.035	4240.15
565.234	4068.12
565.432	4066.07
565.631	4070.17
565.83	3982.1
566.029	3904.28
566.228	3842.84
566.427	3898.14
566.625	3644.19
566.824	3613.47
567.023	3734.3
567.222	3568.41
567.42	3357.47
567.619	3515.17
567.818	3566.37
568.016	3429.15
568.215	3408.67
568.414	3427.11
568.612	3291.94
568.811	3238.69
569.01	3150.63
569.208	3158.82
569.407	3035.94
569.605	3074.85
569.804	2986.79
570.002	2943.78
570.201	2937.64
570.4	2917.16
570.598	2722.6
570.797	2784.04
570.995	2652.97
571.193	2755.37
571.392	2716.46
571.59	2587.44
571.789	2634.54
571.987	2532.14
572.186	2497.33
572.384	2489.14
572.582	2388.78
572.781	2448.18
572.979	2245.43
573.177	2399.02
573.376	2337.59
573.574	2310.96
573.772	2235.19
573.971	2167.6
574.169	2067.25
574.367	2075.45
574.565	2161.46
574.763	2050.87
574.962	2063.16
575.16	1993.53
575.358	1989.43
575.556	1995.57
575.754	1860.41
575.952	1848.12
576.151	1977.14
576.349	1844.03
576.547	1692.48
576.745	1805.11
576.943	1803.07
577.141	1755.96
577.339	1637.18
577.537	1725.24
577.735	1776.44
577.933	1626.94
578.131	1444.67
578.329	1674.04
578.527	1583.93
578.725	1583.93
578.923	1368.9
579.121	1594.17
579.319	1250.11
579.516	1297.22
579.714	1672
579.912	1461.06
580.11	1200.96
580.308	1319.75
580.506	1311.55
580.704	1133.38
580.901	1157.96
581.099	1321.79
581.297	1243.97
581.495	1248.07
581.692	1268.55
581.89	1307.46
582.088	1104.71
582.285	1168.2
582.483	1106.76
582.681	1063.75
582.878	1198.92
583.076	1073.99
583.274	1096.52
583.471	1082.18
583.669	990.02
583.866	930.63
584.064	977.73
584.262	922.44
584.459	906.06
584.657	967.49
584.854	1094.47
585.052	987.97
585.249	1000.26
585.447	947.01
585.644	899.91
585.841	1131.33
586.039	926.54
586.236	953.16
586.434	869.19
586.631	721.74
586.828	762.7
587.026	826.18
587.223	768.84
587.42	717.64
587.618	785.23
587.815	922.44
588.012	789.32
588.21	713.55
588.407	815.94
588.604	758.6
588.801	740.17
588.999	729.93
589.196	803.66
589.393	543.57
589.59	744.27
589.787	686.92
589.984	719.69
590.182	762.7
590.379	691.02
590.576	729.93
590.773	670.54
590.97	729.93
591.167	725.83
591.364	774.99
591.561	668.49
591.758	846.66
591.955	703.31
592.152	627.53
592.349	611.15
592.546	650.06
592.743	633.68
592.94	662.35
593.137	664.4
593.334	822.09
593.531	686.92
593.727	639.82
593.924	648.01
594.121	781.13
594.318	670.54
594.515	598.86
594.712	863.05
594.908	817.99
595.105	566.09
595.302	793.42
595.499	729.93
595.696	846.66
595.892	615.24
596.089	822.09
596.286	762.7
596.482	947.01
596.679	746.31
596.876	738.12
597.072	906.06
597.269	815.94
597.466	858.95
597.662	985.93
597.859	879.43
598.055	897.86
598.252	1012.55
598.448	1086.28
598.645	1047.37
598.841	1147.72
599.038	1246.02
599.234	1137.48
599.431	1286.98
599.627	1248.07
599.824	1323.84
600.02	1313.6
600.217	1311.55
600.413	1463.1
600.609	1520.45
600.806	1758.01
601.002	1649.47
601.198	1657.66
601.395	1831.74
601.591	1690.43
601.787	1973.05
601.984	1915.7
602.18	2100.02
602.376	1946.42
602.572	2194.23
602.769	2317.11
602.965	2267.95
603.161	2327.35
603.357	2569.01
603.553	2591.53
603.75	2392.88
603.946	2706.22
604.142	2855.72
604.338	3046.18
604.534	2917.16
604.73	3160.87
604.926	3042.09
605.122	3347.23
605.318	3371.81
605.514	3466.02
605.71	3347.23
605.906	3703.58
606.102	3801.88
606.298	4088.6
606.494	4070.17
606.69	4109.08
606.886	4094.74
607.082	4336.4
607.278	4422.42
607.474	4514.58
607.67	4864.78
607.866	4868.88
608.062	4911.88
608.257	5186.31
608.453	5243.65
608.649	5520.13
608.845	5446.4
609.041	5477.12
609.236	5931.77
609.432	6050.55
609.628	6374.13
609.824	6296.31
610.019	6466.29
610.215	6802.16
610.411	6914.8
610.606	7144.17
610.802	7299.81
610.998	7324.39
611.193	7713.5
611.389	7736.03
611.584	8170.2
611.78	8069.85
611.976	8422.1
612.171	8757.97
612.367	8958.67
612.562	8872.65
612.758	9331.4
612.953	9302.73
613.149	9872.06
613.344	9880.25
613.539	10465.97
613.735	10578.61
613.93	10834.61
614.126	11031.21
614.321	11276.97
614.517	11641.51
614.712	11975.33
614.907	12194.46
615.103	12677.78
615.298	12782.23
615.493	13374.09
615.688	13427.34
615.884	14013.06
616.079	14209.66
616.274	14662.26
616.47	14871.15
616.665	15069.81
616.86	15749.73
617.055	16040.54
617.25	16239.2
617.445	16861.78
617.641	17156.69
617.836	17945.16
618.031	17898.05
618.226	18739.77
618.421	18942.52
618.616	19773.99
618.811	19817
619.006	20580.89
619.201	20619.8
619.396	21203.47
619.591	21455.37
619.786	21971.46
619.981	22292.99
620.176	23355.89
620.371	23241.2
620.566	24025.57
620.761	24549.85
620.956	25004.5
621.151	25354.71
621.346	26157.51
621.541	26143.17
621.735	27013.56
621.93	27298.23
622.125	27705.77
622.32	27877.8
622.515	28821.92
622.709	29292.95
622.904	30085.51
623.099	30245.26
623.294	30982.52
623.488	31345.02
623.683	32182.63
623.878	32201.07
624.072	32952.67
624.267	33399.13
624.462	33827.15
624.656	34308.43
624.851	35117.37
625.046	35344.7
625.24	35793.2
625.435	36401.45
625.629	36596.01
625.824	37267.74
626.018	38027.54
626.213	37572.89
626.407	38738.18
626.602	38295.82
626.796	39741.69
626.991	39643.38
627.185	40128.75
627.38	40341.74
627.574	40800.49
627.768	40577.26
627.963	40878.31
628.157	40841.45
628.352	41564.38
628.546	40761.58
628.74	41855.19
628.935	41373.92
629.129	41812.18
629.323	40534.25
629.517	40632.55
629.712	40677.61
629.906	40542.44
630.1	39592.19
630.294	39674.1
630.489	39209.22
630.683	38955.27
630.877	38031.63
631.071	37390.62
631.265	37042.46
631.459	36520.23
631.653	35623.22
631.848	34447.69
632.042	34212.17
632.236	33542.49
632.43	32387.43
632.624	31773.04
632.818	31046.01
633.012	29585.81
633.206	28856.73
633.4	28123.56
633.594	27050.42
633.788	25969.1
633.982	25428.43
634.176	24400.35
634.369	23333.36
634.563	22637.05
634.757	21762.57
634.951	21037.59
635.145	20068.9
635.339	19438.12
635.533	18616.89
635.726	17865.28
635.92	17130.06
636.114	16417.37
636.308	15743.59
636.501	15116.91
636.695	14555.77
636.889	13736.58
637.083	13439.62
637.276	13042.32
637.47	12341.91
637.664	11930.27
637.857	11305.64
638.051	10990.25
638.244	10515.12
638.438	10070.72
638.632	9886.4
638.825	8925.9
639.019	9001.68
639.212	8563.41
639.406	8297.17
639.599	7975.64
639.793	7619.3
639.986	7166.7
640.18	7273.19
640.373	6712.05
640.567	6537.97
640.76	6380.28
640.954	6261.49
641.147	5823.23
641.34	5724.93
641.534	5243.65
641.727	5253.89
641.92	4911.88
642.114	4725.52
642.307	4602.64
642.5	4573.97
642.694	4205.33
642.887	4170.52
643.08	4123.41
643.273	3691.29
643.467	3640.09
643.66	3468.06
643.853	3382.05
644.046	3310.37
644.239	3230.5
644.432	2886.44
644.626	2732.84
644.819	2833.19
645.012	2661.16
645.205	2607.92
645.398	2573.1
645.591	2454.32
645.784	2345.78
645.977	2233.14
646.17	2118.45
646.363	2132.79
646.556	1862.46
646.749	1882.94
646.942	1882.94
647.135	1887.03
647.328	1739.58
647.521	1643.32
647.714	1571.65
647.907	1547.07
648.099	1366.85
648.292	1461.06
648.485	1442.62
648.678	1344.32
648.871	1248.07
649.064	1147.72
649.256	1129.28
649.449	1137.48
649.642	1033.03
649.835	1057.61
650.027	994.12
650.22	1014.6
650.413	1004.36
650.605	981.83
650.798	815.94
650.991	832.33
651.183	756.55
651.376	764.75
651.568	822.09
651.761	799.56
651.954	826.18
652.146	744.27
652.339	744.27
652.531	834.38
652.724	594.76
652.916	578.38
653.109	432.97
653.301	674.64
653.494	691.02
653.686	559.95
653.879	729.93
654.071	590.67
654.263	549.71
654.456	494.41
654.648	615.24
654.84	607.05
655.033	508.75
655.225	607.05
655.417	363.34
655.61	598.86
655.802	498.51
655.994	576.33
656.186	328.53
656.379	498.51
656.571	334.67
656.763	408.4
656.955	375.63
657.148	387.92
657.34	394.06
657.532	310.1
657.724	398.16
657.916	387.92
658.108	435.02
658.3	334.67
658.492	361.3
658.684	232.27
658.876	330.58
659.068	213.84
659.26	203.6
659.452	211.79
659.644	295.76
659.836	375.63
660.028	398.16
660.22	310.1
660.412	244.56
660.604	176.98
660.796	258.9
660.988	328.53
661.18	287.57
661.372	326.48
661.563	277.33
661.755	219.99
661.947	109.4
662.139	162.64
662.331	189.27
662.522	269.14
662.714	144.21
662.906	78.68
663.097	222.03
663.289	150.36
663.481	140.12
663.673	248.66
663.864	228.18
664.056	271.19
664.247	154.45
664.439	281.43
664.631	265.04
664.822	232.27
665.014	222.03
665.205	148.31
665.397	158.55
665.588	230.23
665.78	109.4
665.971	260.95
666.163	174.93
666.354	215.89
666.546	185.17
666.737	111.44
666.929	170.83
667.12	142.16
667.311	217.94
667.503	234.32
667.694	195.41
667.885	156.5
668.077	197.46
668.268	125.78
668.459	224.08
668.651	254.8
668.842	197.46
669.033	72.53
669.224	144.21
669.416	303.95
669.607	154.45
669.798	111.44
669.989	342.86
670.18	158.55
670.371	256.85
670.563	123.73
670.754	230.23
670.945	207.7
671.136	287.57
671.327	156.5
671.518	344.91
671.709	244.56
671.9	226.13
672.091	312.14
672.282	170.83
672.473	232.27
672.664	156.5
672.855	209.75
673.046	203.6
673.237	234.32
673.428	166.74
673.619	230.23
673.809	217.94
674	320.34
674.191	234.32
674.382	113.49
674.573	146.26
674.764	174.93
674.954	275.28
675.145	152.4
675.336	117.59
675.527	172.88
675.717	70.48
675.908	82.77
676.099	136.02
676.289	174.93
676.48	123.73
676.671	199.51
676.861	166.74
677.052	228.18
677.243	162.64
677.433	176.98
677.624	244.56
677.814	312.14
678.005	119.64
678.195	250.71
678.386	97.11
678.576	93.01
678.767	150.36
678.957	195.41
679.148	199.51
679.338	254.8
679.529	328.53
679.719	176.98
679.909	248.66
680.1	269.14
680.29	301.9
680.481	187.22
680.671	336.72
680.861	236.37
681.052	244.56
681.242	138.07
681.432	295.76
681.622	295.76
681.813	179.03
682.003	254.8
682.193	193.36
682.383	285.52
682.573	260.95
682.764	224.08
682.954	299.86
683.144	295.76
683.334	213.84
683.524	265.04
683.714	273.23
683.904	287.57
684.094	328.53
684.284	238.42
684.474	389.97
684.664	297.81
684.854	265.04
685.044	277.33
685.234	260.95
685.424	301.9
685.614	213.84
685.804	396.11
685.994	320.34
686.184	199.51
686.374	285.52
686.564	174.93
686.753	310.1
686.943	189.27
687.133	248.66
687.323	203.6
687.513	273.23
687.702	230.23
687.892	219.99
688.082	312.14
688.272	303.95
688.461	222.03
688.651	385.87
688.841	346.96
689.03	219.99
689.22	238.42
689.41	285.52
689.599	285.52
689.789	187.22
689.979	355.15
690.168	211.79
690.358	250.71
690.547	318.29
690.737	262.99
690.926	289.62
691.116	314.19
691.305	258.9
691.495	334.67
691.684	236.37
691.874	224.08
692.063	222.03
692.252	443.21
692.442	312.14
692.631	207.7
692.82	250.71
693.01	203.6
693.199	142.16
693.388	236.37
693.578	242.51
693.767	275.28
693.956	254.8
694.146	176.98
694.335	324.43
694.524	246.61
694.713	240.47
694.902	250.71
695.092	252.75
695.281	281.43
695.47	269.14
695.659	213.84
695.848	125.78
696.037	140.12
696.226	289.62
696.415	183.12
696.604	314.19
696.793	265.04
696.982	215.89
697.171	326.48
697.36	238.42
697.549	199.51
697.738	211.79
697.927	219.99
698.116	172.88
698.305	283.47
698.494	242.51
698.683	215.89
698.872	318.29
699.061	191.31
699.25	203.6
699.438	201.55
699.627	269.14
699.816	404.3
700.005	43.86
700.193	158.55
700.382	254.8
700.571	240.47
700.76	265.04
700.948	230.23
701.137	324.43
701.326	265.04
701.514	121.68
701.703	205.65
701.892	297.81
702.08	369.49
702.269	191.31
702.457	219.99
702.646	258.9
702.834	213.84
703.023	236.37
703.212	297.81
703.4	215.89
703.589	279.38
703.777	201.55
703.965	205.65
704.154	133.97
704.342	109.4
704.531	226.13
704.719	287.57
704.907	316.24
705.096	123.73
705.284	109.4
705.472	215.89
705.661	222.03
705.849	355.15
706.037	277.33
706.226	295.76
706.414	252.75
706.602	174.93
706.79	308.05
706.979	193.36
707.167	240.47
707.355	113.49
707.543	295.76
707.731	228.18
707.919	267.09
708.107	154.45
708.296	154.45
708.484	181.07
708.672	185.17
708.86	213.84
709.048	265.04
709.236	156.5
709.424	248.66
709.612	207.7
709.8	80.72
709.988	179.03
710.176	248.66
710.364	299.86
710.551	205.65
710.739	156.5
710.927	197.46
711.115	174.93
711.303	273.23
711.491	293.71
711.679	189.27
711.866	338.77
712.054	131.92
712.242	226.13
712.43	383.82
712.617	205.65
712.805	281.43
712.993	129.88
713.181	148.31
713.368	269.14
713.556	211.79
713.744	160.59
713.931	394.06
714.119	293.71
714.306	197.46
714.494	133.97
714.682	242.51
714.869	162.64
715.057	228.18
715.244	179.03
715.432	258.9
715.619	246.61
715.807	326.48
715.994	174.93
716.182	228.18
716.369	236.37
716.556	273.23
716.744	138.07
716.931	207.7
717.119	277.33
717.306	201.55
717.493	262.99
717.681	248.66
717.868	258.9
718.055	230.23
718.242	191.31
718.43	277.33
718.617	273.23
718.804	129.88
718.991	279.38
719.179	306
719.366	269.14
719.553	265.04
719.74	222.03
719.927	271.19
720.114	238.42
720.301	160.59
720.488	136.02
720.676	201.55
720.863	207.7
721.05	318.29
721.237	314.19
721.424	338.77
721.611	330.58
721.798	166.74
721.985	213.84
722.172	174.93
722.358	314.19
722.545	310.1
722.732	244.56
722.919	232.27
723.106	244.56
723.293	217.94
723.48	183.12
723.667	207.7
723.853	310.1
724.04	205.65
724.227	281.43
724.414	166.74
724.6	324.43
724.787	338.77
724.974	400.21
725.161	303.95
725.347	183.12
725.534	242.51
725.72	349.01
725.907	279.38
726.094	303.95
726.28	248.66
726.467	281.43
726.653	224.08
726.84	385.87
727.027	355.15
727.213	240.47
727.4	299.86
727.586	222.03
727.773	240.47
727.959	308.05
728.145	273.23
728.332	244.56
728.518	252.75
728.705	308.05
728.891	213.84
729.077	283.47
729.264	238.42
729.45	217.94
729.636	351.06
729.823	277.33
730.009	299.86
730.195	281.43
730.382	349.01
730.568	125.78
730.754	283.47
730.94	256.85
731.126	277.33
731.313	306
731.499	301.9
731.685	310.1
731.871	359.25
732.057	234.32
732.243	383.82
732.429	242.51
732.615	355.15
732.801	252.75
732.987	203.6
733.173	234.32
733.359	246.61
733.545	346.96
733.731	193.36
733.917	369.49
734.103	326.48
734.289	228.18
734.475	265.04
734.661	377.68
734.847	260.95
735.033	234.32
735.219	328.53
735.404	224.08
735.59	193.36
735.776	211.79
735.962	293.71
736.148	373.58
736.333	435.02
736.519	252.75
736.705	332.62
736.89	269.14
737.076	170.83
737.262	201.55
737.447	222.03
737.633	240.47
737.819	344.91
738.004	346.96
738.19	314.19
738.375	271.19
738.561	312.14
738.747	199.51
738.932	236.37
739.118	398.16
739.303	293.71
739.489	387.92
739.674	260.95
739.859	228.18
740.045	244.56
740.23	287.57
740.416	123.73
740.601	281.43
740.786	260.95
740.972	234.32
741.157	195.41
741.342	260.95
741.528	195.41
741.713	328.53
741.898	234.32
742.084	289.62
742.269	281.43
742.454	318.29
742.639	195.41
742.824	176.98
743.01	277.33
743.195	353.1
743.38	240.47
743.565	138.07
743.75	285.52
743.935	301.9
744.12	351.06
744.305	219.99
744.49	336.72
744.675	217.94
744.86	246.61
745.045	267.09
745.23	262.99
745.415	279.38
745.6	326.48
745.785	273.23
745.97	367.44
746.155	342.86
746.34	326.48
746.525	293.71
746.71	287.57
746.895	185.17
747.079	127.83
747.264	254.8
747.449	277.33
747.634	283.47
747.819	250.71
748.003	191.31
748.188	176.98
748.373	279.38
748.557	248.66
748.742	238.42
748.927	226.13
749.111	224.08
749.296	205.65
749.481	289.62
749.665	285.52
749.85	158.55
750.034	318.29
750.219	215.89
750.404	179.03
750.588	248.66
750.773	152.4
750.957	248.66
751.141	228.18
751.326	228.18
751.51	62.29
751.695	162.64
751.879	119.64
752.064	320.34
752.248	191.31
752.432	287.57
752.617	297.81
752.801	209.75
752.985	123.73
753.17	299.86
753.354	222.03
753.538	273.23
753.722	138.07
753.907	189.27
754.091	176.98
754.275	355.15
754.459	119.64
754.643	68.44
754.828	250.71
755.012	168.79
755.196	142.16
755.38	240.47
755.564	152.4
755.748	123.73
755.932	197.46
756.116	215.89
756.3	222.03
756.484	158.55
756.668	271.19
756.852	68.44
757.036	166.74
757.22	191.31
757.404	183.12
757.588	39.76
757.772	240.47
757.956	136.02
758.14	349.01
758.323	84.82
758.507	258.9
758.691	174.93
758.875	146.26
759.059	277.33
759.242	164.69
759.426	176.98
759.61	66.39
759.794	88.92
759.977	217.94
760.161	383.82
760.345	215.89
760.528	185.17
760.712	168.79
760.895	142.16
761.079	119.64
761.263	90.96
761.446	109.4
761.63	170.83
761.813	246.61
761.997	84.82
762.18	88.92
762.364	138.07
762.547	17.24
762.731	131.92
762.914	82.77
763.098	164.69
763.281	54.1
763.464	86.87
763.648	152.4
763.831	66.39
764.015	37.72
764.198	295.76
764.381	150.36
764.564	181.07
764.748	121.68
764.931	156.5
765.114	58.2
765.297	222.03
765.481	31.57
765.664	105.3
765.847	121.68
766.03	234.32
766.213	76.63
766.397	142.16
766.58	43.86
766.763	162.64
766.946	66.39
767.129	68.44
767.312	74.58
767.495	162.64
767.678	54.1
767.861	148.31
768.044	97.11
768.227	187.22
768.41	129.88
768.593	95.06
768.776	101.2
768.959	56.15
769.142	160.59
769.324	133.97
769.507	138.07
769.69	-9.39
769.873	39.76
770.056	262.99
770.239	86.87
770.421	207.7
770.604	156.5
770.787	76.63
770.97	129.88
771.152	33.62
771.335	146.26
771.518	90.96
771.7	138.07
771.883	215.89
772.066	54.1
772.248	103.25
772.431	168.79
772.613	95.06
772.796	93.01
772.978	115.54
773.161	291.66
773.343	43.86
773.526	68.44
773.708	-64.68
773.891	-1.19
774.073	47.96
774.256	107.35
774.438	191.31
774.621	64.34
774.803	90.96
774.985	86.87
775.168	160.59
775.35	84.82
775.532	150.36
775.715	31.57
775.897	166.74
776.079	109.4
776.261	88.92
776.444	109.4
776.626	117.59
776.808	-7.34
776.99	52.05
777.173	76.63
777.355	84.82
777.537	133.97
777.719	121.68
777.901	72.53
778.083	70.48
778.265	82.77
778.447	105.3
778.629	80.72
778.811	64.34
778.993	168.79
779.175	170.83
779.357	90.96
779.539	-42.15
779.721	-9.39
779.903	101.2
780.085	119.64
780.267	70.48
780.449	99.16
780.631	154.45
780.812	115.54
780.994	86.87
781.176	47.96
781.358	25.43
781.54	-11.43
781.721	74.58
781.903	187.22
782.085	-21.67
782.267	291.66
782.448	-13.48
782.63	56.15
782.812	64.34
782.993	121.68
783.175	119.64
783.357	54.1
783.538	93.01
783.72	56.15
783.901	31.57
784.083	90.96
784.264	113.49
784.446	4.95
784.627	29.52
784.809	88.92
784.99	9.05
785.172	11.09
785.353	27.48
785.535	72.53
785.716	60.24
785.897	84.82
786.079	-38.06
786.26	131.92
786.441	-3.24
786.623	-25.77
786.804	54.1
786.985	64.34
787.167	115.54
787.348	29.52
787.529	60.24
787.71	166.74
787.891	80.72
788.073	-89.26
788.254	97.11
788.435	168.79
788.616	25.43
788.797	-9.39
788.978	72.53
789.159	-5.29
789.34	39.76
789.522	-31.91
789.703	-31.91
789.884	66.39
790.065	56.15
790.246	187.22
790.427	111.44
790.607	234.32
790.788	172.88
790.969	47.96
791.15	37.72
791.331	76.63
791.512	29.52
791.693	56.15
791.874	84.82
792.054	260.95
792.235	117.59
792.416	-62.63
792.597	56.15
792.778	60.24
792.958	68.44
793.139	117.59
793.32	37.72
793.5	-25.77
793.681	115.54
793.862	70.48
794.042	78.68
794.223	-11.43
794.404	21.33
794.584	-70.83
794.765	13.14
794.945	23.38
795.126	72.53
795.306	181.07
795.487	58.2
795.667	35.67
795.848	113.49
796.028	25.43
796.209	21.33
796.389	72.53
796.57	133.97
796.75	-31.91
796.93	19.29
797.111	70.48
797.291	41.81
797.471	138.07
797.652	-31.91
797.832	2.9
798.012	97.11
798.192	54.1
798.373	-11.43
798.553	80.72
798.733	74.58
798.913	-40.11
799.093	11.09
799.274	56.15
799.454	146.26
799.634	101.2
799.814	95.06
799.994	72.53
800.174	103.25
800.354	54.1
800.534	4.95
800.714	125.78
800.894	-23.72
801.074	29.52
801.254	7
801.434	64.34
801.614	-25.77
801.794	-44.2
801.974	1475.39
802.154	62.29
802.334	107.35
802.514	-66.73
802.693	90.96
802.873	78.68
803.053	125.78
803.233	103.25
803.413	13.14
803.592	25.43
803.772	-15.53
803.952	78.68
804.131	-83.11
804.311	76.63
804.491	97.11
804.67	-11.43
804.85	-1.19
805.03	123.73
805.209	119.64
805.389	19.29
805.568	25.43
805.748	-9.39
805.928	62.29
806.107	148.31
806.287	56.15
806.466	131.92
806.646	29.52
806.825	52.05
807.004	66.39
807.184	99.16
807.363	66.39
807.543	93.01
807.722	-23.72
807.901	133.97
808.081	64.34
808.26	-109.74
808.439	45.91
808.619	60.24
808.798	-31.91
808.977	76.63
809.156	193.36
809.336	58.2
809.515	50
809.694	-58.54
809.873	-91.31
810.052	140.12
810.231	95.06
810.411	191.31
810.59	117.59
810.769	-13.48
810.948	113.49
811.127	-38.06
811.306	-48.3
811.485	-9.39
811.664	111.44
811.843	27.48
812.022	4.95
812.201	45.91
812.38	29.52
812.559	29.52
812.737	33.62
812.916	-1.19
813.095	35.67
813.274	31.57
813.453	47.96
813.632	-7.34
813.811	117.59
813.989	-40.11
814.168	58.2
814.347	7
814.526	19.29
814.704	179.03
814.883	76.63
815.062	-46.25
815.24	97.11
815.419	-7.34
815.598	15.19
815.776	-21.67
815.955	90.96
816.133	-25.77
816.312	-15.53
816.49	15.19
816.669	142.16
816.847	50
817.026	9.05
817.204	9.05
817.383	56.15
817.561	4.95
817.74	82.77
817.918	68.44
818.097	-31.91
818.275	-19.63
818.453	58.2
818.632	103.25
818.81	43.86
818.988	-3.24
819.167	-23.72
819.345	-38.06
819.523	-5.29
819.701	-38.06
819.879	86.87
820.058	35.67
820.236	64.34
820.414	54.1
820.592	15.19
820.77	52.05
820.948	-27.82
821.127	-44.2
821.305	58.2
821.483	7
821.661	95.06
821.839	15.19
822.017	27.48
822.195	72.53
822.373	62.29
822.551	21.33
822.729	99.16
822.907	39.76
823.085	152.4
823.262	86.87
823.44	33.62
823.618	13.14
823.796	23.38
823.974	-1.19
824.152	43.86
824.329	-15.53
824.507	0.85
824.685	107.35
824.863	7
825.04	115.54
825.218	93.01
825.396	4.95
825.574	-66.73
825.751	113.49
825.929	117.59
826.107	-66.73
826.284	-44.2
826.462	156.5
826.639	7
826.817	-62.63
826.994	-33.96
827.172	27.48
827.349	207.7
827.527	72.53
827.704	80.72
827.882	113.49
828.059	4.95
828.237	37.72
828.414	111.44
828.591	-109.74
828.769	52.05
828.946	19.29
829.124	70.48
829.301	154.45
829.478	60.24
829.655	115.54
829.833	13.14
830.01	-95.4
830.187	-3.24
830.364	54.1
830.542	58.2
830.719	117.59
830.896	84.82
831.073	70.48
831.25	-29.87
831.427	113.49
831.604	60.24
831.782	-23.72
831.959	74.58
832.136	29.52
832.313	41.81
832.49	-25.77
832.667	-15.53
832.844	-9.39
833.021	88.92
833.198	84.82
833.374	19.29
833.551	15.19
833.728	-25.77
833.905	58.2
834.082	-132.26
834.259	60.24
834.436	103.25
834.612	-60.59
834.789	138.07
834.966	23.38
835.143	25.43
835.319	-52.39
835.496	127.83
835.673	33.62
835.85	50
836.026	84.82
836.203	45.91
836.38	-15.53
836.556	-76.97
836.733	-9.39
836.909	113.49
837.086	72.53
837.262	-54.44
837.439	35.67
837.616	19.29
837.792	-44.2
837.968	45.91
838.145	-103.59
838.321	109.4
838.498	19.29
838.674	90.96
838.851	97.11
839.027	56.15
839.203	56.15
839.38	64.34
839.556	9.05
839.732	133.97
839.909	31.57
840.085	45.91
840.261	-93.35
840.437	31.57
840.614	45.91
840.79	109.4
840.966	74.58
841.142	60.24
841.318	-7.34
841.494	13.14
841.671	93.01
841.847	-19.63
842.023	-103.59
842.199	54.1
842.375	117.59
842.551	-50.35
842.727	-99.5
842.903	76.63
843.079	29.52
843.255	58.2
843.431	25.43
843.607	76.63
843.783	-158.89
843.959	101.2
844.134	-13.48
844.31	111.44
844.486	21.33
844.662	-113.83
844.838	19.29
845.013	99.16
845.189	117.59
845.365	105.3
845.541	41.81
845.716	95.06
845.892	181.07
846.068	31.57
846.244	-38.06
846.419	52.05
846.595	-11.43
846.77	7
846.946	78.68
847.122	15.19
847.297	56.15
847.473	197.46
847.648	-58.54
847.824	131.92
847.999	-54.44
848.175	-1.19
848.35	76.63
848.526	90.96
848.701	150.36
848.876	72.53
849.052	88.92
849.227	7
849.403	2.9
849.578	58.2
849.753	19.29
849.929	25.43
850.104	-64.68
850.279	2.9
850.454	115.54
850.63	72.53
850.805	117.59
850.98	90.96
851.155	29.52
851.33	43.86
851.505	-9.39
851.681	203.6
851.856	-9.39
852.031	136.02
852.206	17.24
852.381	-11.43
852.556	0.85
852.731	41.81
852.906	21.33
853.081	54.1
853.256	80.72
853.431	13.14
853.606	-56.49
853.781	23.38
853.956	-103.59
854.131	76.63
854.305	2.9
854.48	54.1
854.655	64.34
854.83	19.29
855.005	31.57
855.18	45.91
855.354	45.91
855.529	52.05
855.704	31.57
855.879	39.76
856.053	-48.3
856.228	64.34
856.403	-91.31
856.577	56.15
856.752	-33.96
856.926	64.34
857.101	62.29
857.276	39.76
857.45	90.96
857.625	93.01
857.799	31.57
857.974	62.29
858.148	-50.35
858.323	66.39
858.497	-5.29
858.672	-23.72
858.846	-17.58
859.02	101.2
859.195	-23.72
859.369	19.29
859.543	105.3
859.718	50
859.892	-56.49
860.066	62.29
860.241	-50.35
860.415	-19.63
860.589	11.09
860.763	37.72
860.938	-7.34
861.112	-9.39
861.286	-1.19
861.46	15.19
861.634	-66.73
861.808	95.06
861.982	-74.92
862.157	-56.49
862.331	123.73
862.505	-85.16
862.679	-13.48
862.853	-17.58
863.027	13.14
863.201	86.87
863.375	29.52
863.549	54.1
863.722	82.77
863.896	154.45
864.07	21.33
864.244	27.48
864.418	54.1
864.592	-5.29
864.766	-11.43
864.939	17.24
865.113	-36.01
865.287	86.87
865.461	-44.2
865.634	78.68
865.808	-44.2
865.982	13.14
866.156	-54.44
866.329	13.14
866.503	0.85
866.676	78.68
866.85	29.52
867.024	-70.83
867.197	133.97
867.371	45.91
867.544	15.19
867.718	-72.87
867.891	109.4
868.065	-109.74
868.238	58.2
868.412	86.87
868.585	93.01
868.759	-76.97
868.932	-17.58
869.105	-36.01
869.279	29.52
869.452	-62.63
869.625	123.73
869.799	47.96
869.972	-72.87
870.145	-9.39
870.319	99.16
870.492	-1.19
870.665	50
870.838	7
871.011	-119.98
871.185	-19.63
871.358	-62.63
871.531	4.95
871.704	-50.35
871.877	25.43
872.05	66.39
872.223	-97.45
872.396	119.64
872.569	115.54
872.742	-93.35
872.915	78.68
873.088	-38.06
873.261	-21.67
873.434	99.16
873.607	-31.91
873.78	101.2
873.953	-46.25
874.126	74.58
874.299	88.92
874.471	23.38
874.644	56.15
874.817	2.9
874.99	62.29
875.163	-68.78
875.335	136.02
875.508	-31.91
875.681	103.25
875.853	-68.78
876.026	21.33
876.199	136.02
876.371	45.91
876.544	47.96
876.717	37.72
876.889	-21.67
877.062	-7.34
877.234	-33.96
877.407	-25.77
877.579	-27.82
877.752	-13.48
877.924	31.57
878.097	84.82
878.269	9.05
878.442	21.33
878.614	60.24
878.786	52.05
878.959	-60.59
879.131	25.43
879.303	-113.83
879.476	-1.19
879.648	127.83
879.82	43.86
879.993	-31.91
880.165	-3.24
880.337	-60.59
880.509	78.68
880.681	-1.19
880.854	-113.83
881.026	52.05
881.198	179.03
881.37	15.19
881.542	101.2
881.714	43.86
881.886	39.76
882.058	2.9
882.23	13.14
882.402	35.67
882.574	-31.91
882.746	72.53
882.918	39.76
883.09	0.85
883.262	-15.53
883.434	41.81
883.606	-50.35
883.778	52.05
883.95	146.26
884.122	-23.72
884.293	103.25
884.465	66.39
884.637	56.15
884.809	7
884.98	74.58
885.152	15.19
885.324	27.48
885.496	7
885.667	-3.24
885.839	0.85
886.011	121.68
886.182	33.62
886.354	162.64
886.525	-33.96
886.697	43.86
886.869	-17.58
887.04	-31.91
887.212	156.5
887.383	123.73
887.555	-58.54
887.726	-54.44
887.897	-46.25
888.069	33.62
888.24	45.91
888.412	-1.19
888.583	23.38
888.754	19.29
888.926	-122.02
889.097	-31.91
889.268	-31.91
889.44	-29.87
889.611	-85.16
889.782	-89.26
889.953	-3.24
890.125	156.5
890.296	-66.73
890.467	-31.91
890.638	4.95
890.809	29.52
890.98	-107.69
891.151	72.53
891.323	150.36
891.494	-19.63
891.665	-1.19
891.836	105.3
892.007	97.11
892.178	58.2
892.349	2.9
892.52	-48.3
892.691	25.43
892.862	-9.39
893.032	-58.54
893.203	-40.11
893.374	-54.44
893.545	70.48
893.716	-89.26
893.887	86.87
894.057	-68.78
894.228	52.05
894.399	-83.11
894.57	82.77
894.74	-36.01
894.911	84.82
895.082	-117.93
895.253	50
895.423	7
895.594	148.31
895.764	33.62
895.935	-79.02
896.106	107.35
896.276	-36.01
896.447	-54.44
896.617	-89.26
896.788	-76.97
896.958	-36.01
897.129	-7.34
897.299	-23.72
897.47	144.21
897.64	66.39
897.81	-5.29
897.981	50
898.151	-42.15
898.322	50
898.492	56.15
898.662	47.96
898.832	23.38
899.003	27.48
899.173	17.24
899.343	-33.96
899.513	-70.83
