Data from USB4F104151__116__10-46-03-759.txt Node

Date: Wed Feb 26 10:46:03 EST 2025
User: louis
Spectrometer: USB4F10415
Trigger mode: 4
Integration Time (sec): 1.000000E-1
Scans to average: 1
Electric dark correction enabled: true
Nonlinearity correction enabled: false
Boxcar width: 0
XAxis mode: Wavelengths
Number of Pixels in Spectrum: 3648
>>>>>Begin Spectral Data<<<<<
178.204	-369.66
178.424	-369.66
178.644	-369.66
178.864	-396.28
179.084	-461.82
179.304	-29.7
179.524	-84.99
179.744	-13.31
179.964	37.89
180.184	33.79
180.404	58.37
180.624	15.36
180.844	-5.12
181.064	-113.66
181.283	58.37
181.503	-35.84
181.723	78.85
181.943	-107.52
182.163	193.53
182.383	-7.17
182.602	119.81
182.822	87.04
183.042	46.08
183.262	-74.75
183.482	31.74
183.701	54.27
183.921	76.8
184.141	52.22
184.361	115.71
184.58	54.27
184.8	-21.5
185.02	35.84
185.239	171.01
185.459	46.08
185.679	168.96
185.898	-97.28
186.118	41.98
186.338	-74.75
186.557	121.85
186.777	-15.36
186.997	50.18
187.216	-1.02
187.436	117.76
187.655	103.42
187.875	162.81
188.095	-44.03
188.314	54.27
188.534	82.94
188.753	21.5
188.973	123.9
189.192	144.38
189.412	7.17
189.631	87.04
189.851	121.85
190.07	197.63
190.29	-80.89
190.509	33.79
190.729	19.46
190.948	171.01
191.168	297.98
191.387	115.71
191.607	-33.79
191.826	1.02
192.045	17.41
192.265	-37.89
192.484	64.51
192.704	80.89
192.923	-164.86
193.142	154.62
193.362	52.22
193.581	70.65
193.8	84.99
194.02	89.09
194.239	82.94
194.458	95.23
194.678	1.02
194.897	-62.46
195.116	19.46
195.335	62.46
195.555	48.13
195.774	44.03
195.993	154.62
196.212	-23.55
196.432	-17.41
196.651	-58.37
196.87	11.26
197.089	211.96
197.308	76.8
197.528	37.89
197.747	7.17
197.966	17.41
198.185	160.77
198.404	3.07
198.623	132.09
198.842	166.91
199.062	70.65
199.281	132.09
199.5	44.03
199.719	95.23
199.938	78.85
200.157	48.13
200.376	103.42
200.595	130.05
200.814	105.47
201.033	-27.65
201.252	130.05
201.471	74.75
201.69	107.52
201.909	46.08
202.128	130.05
202.347	89.09
202.566	68.61
202.785	-62.46
203.004	-25.6
203.223	234.49
203.442	46.08
203.661	-23.55
203.879	78.85
204.098	152.57
204.317	19.46
204.536	125.95
204.755	93.18
204.974	138.24
205.193	5.12
205.411	142.33
205.63	41.98
205.849	109.57
206.068	1.02
206.287	19.46
206.505	179.2
206.724	91.13
206.943	-46.08
207.162	41.98
207.381	66.56
207.599	15.36
207.818	41.98
208.037	-84.99
208.255	-48.13
208.474	39.94
208.693	41.98
208.911	-9.22
209.13	105.47
209.349	54.27
209.567	56.32
209.786	56.32
210.005	3.07
210.223	13.31
210.442	-181.25
210.661	-56.32
210.879	99.33
211.098	17.41
211.316	58.37
211.535	35.84
211.753	82.94
211.972	93.18
212.191	39.94
212.409	46.08
212.628	82.94
212.846	-1.02
213.065	27.65
213.283	72.7
213.502	58.37
213.72	29.7
213.938	-7.17
214.157	39.94
214.375	80.89
214.594	-13.31
214.812	105.47
215.031	-44.03
215.249	7.17
215.467	91.13
215.686	21.5
215.904	144.38
216.122	95.23
216.341	76.8
216.559	72.7
216.778	187.39
216.996	101.37
217.214	1.02
217.432	-9.22
217.651	-9.22
217.869	80.89
218.087	7.17
218.306	72.7
218.524	52.22
218.742	-31.74
218.96	123.9
219.179	84.99
219.397	111.61
219.615	234.49
219.833	193.53
220.051	11.26
220.27	50.18
220.488	101.37
220.706	84.99
220.924	3.07
221.142	39.94
221.36	93.18
221.578	121.85
221.796	-19.46
222.015	70.65
222.233	70.65
222.451	177.15
222.669	11.26
222.887	134.14
223.105	-21.5
223.323	27.65
223.541	33.79
223.759	50.18
223.977	23.55
224.195	177.15
224.413	54.27
224.631	21.5
224.849	41.98
225.067	263.16
225.285	21.5
225.503	-31.74
225.721	-31.74
225.939	-27.65
226.157	50.18
226.375	171.01
226.592	-29.7
226.81	-21.5
227.028	109.57
227.246	154.62
227.464	21.5
227.682	74.75
227.9	70.65
228.117	84.99
228.335	95.23
228.553	15.36
228.771	-13.31
228.989	52.22
229.206	117.76
229.424	23.55
229.642	74.75
229.86	-33.79
230.077	189.44
230.295	39.94
230.513	146.43
230.731	82.94
230.948	164.86
231.166	158.72
231.384	-52.22
231.601	5.12
231.819	222.2
232.037	-78.85
232.254	-46.08
232.472	60.42
232.689	19.46
232.907	101.37
233.125	9.22
233.342	-9.22
233.56	58.37
233.777	11.26
233.995	15.36
234.213	109.57
234.43	142.33
234.648	44.03
234.865	39.94
235.083	31.74
235.3	7.17
235.518	80.89
235.735	160.77
235.953	115.71
236.17	-25.6
236.388	-50.18
236.605	154.62
236.822	64.51
237.04	150.53
237.257	29.7
237.475	21.5
237.692	64.51
237.909	15.36
238.127	-50.18
238.344	54.27
238.562	17.41
238.779	-60.42
238.996	-39.94
239.214	105.47
239.431	119.81
239.648	-15.36
239.865	128
240.083	70.65
240.3	35.84
240.517	48.13
240.735	54.27
240.952	113.66
241.169	21.5
241.386	76.8
241.603	39.94
241.821	-15.36
242.038	66.56
242.255	89.09
242.472	-58.37
242.689	46.08
242.907	-13.31
243.124	117.76
243.341	56.32
243.558	-76.8
243.775	-66.56
243.992	-9.22
244.209	84.99
244.426	158.72
244.643	27.65
244.86	-5.12
245.078	87.04
245.295	29.7
245.512	119.81
245.729	19.46
245.946	17.41
246.163	33.79
246.38	19.46
246.597	80.89
246.814	72.7
247.031	44.03
247.248	-5.12
247.464	78.85
247.681	23.55
247.898	97.28
248.115	41.98
248.332	27.65
248.549	74.75
248.766	181.25
248.983	33.79
249.2	152.57
249.417	76.8
249.633	-25.6
249.85	60.42
250.067	78.85
250.284	105.47
250.501	76.8
250.717	-23.55
250.934	25.6
251.151	15.36
251.368	60.42
251.585	130.05
251.801	56.32
252.018	-48.13
252.235	99.33
252.451	5.12
252.668	-46.08
252.885	105.47
253.102	72.7
253.318	87.04
253.535	-72.7
253.752	80.89
253.968	3.07
254.185	-41.98
254.401	23.55
254.618	80.89
254.835	-19.46
255.051	101.37
255.268	46.08
255.484	17.41
255.701	13.31
255.917	33.79
256.134	9.22
256.351	50.18
256.567	-1.02
256.784	87.04
257	-29.7
257.217	119.81
257.433	105.47
257.65	101.37
257.866	205.82
258.082	-21.5
258.299	-74.75
258.515	80.89
258.732	-13.31
258.948	17.41
259.165	89.09
259.381	-39.94
259.597	56.32
259.814	33.79
260.03	17.41
260.246	64.51
260.463	72.7
260.679	119.81
260.895	80.89
261.112	68.61
261.328	1.02
261.544	-27.65
261.761	175.1
261.977	9.22
262.193	-78.85
262.409	111.61
262.626	-31.74
262.842	-1.02
263.058	-29.7
263.274	132.09
263.49	46.08
263.707	46.08
263.923	76.8
264.139	31.74
264.355	64.51
264.571	154.62
264.787	146.43
265.004	113.66
265.22	-19.46
265.436	29.7
265.652	-29.7
265.868	84.99
266.084	-91.13
266.3	5.12
266.516	-9.22
266.732	9.22
266.948	101.37
267.164	33.79
267.38	117.76
267.596	115.71
267.812	140.29
268.028	25.6
268.244	23.55
268.46	58.37
268.676	-29.7
268.892	76.8
269.108	33.79
269.324	97.28
269.54	-62.46
269.756	138.24
269.972	-31.74
270.188	15.36
270.403	-48.13
270.619	72.7
270.835	142.33
271.051	60.42
271.267	-46.08
271.483	-15.36
271.698	58.37
271.914	97.28
272.13	60.42
272.346	5.12
272.562	62.46
272.777	99.33
272.993	44.03
273.209	48.13
273.425	99.33
273.64	-62.46
273.856	113.66
274.072	-60.42
274.287	-41.98
274.503	50.18
274.719	27.65
274.934	1.02
275.15	3.07
275.366	29.7
275.581	-68.61
275.797	13.31
276.012	5.12
276.228	-48.13
276.444	72.7
276.659	44.03
276.875	7.17
277.09	162.81
277.306	54.27
277.521	62.46
277.737	91.13
277.952	103.42
278.168	-7.17
278.383	82.94
278.599	17.41
278.814	21.5
279.03	-56.32
279.245	197.63
279.461	-7.17
279.676	19.46
279.892	-58.37
280.107	37.89
280.322	60.42
280.538	29.7
280.753	-9.22
280.969	136.19
281.184	70.65
281.399	128
281.615	70.65
281.83	33.79
282.045	-13.31
282.26	-7.17
282.476	84.99
282.691	89.09
282.906	52.22
283.122	11.26
283.337	-130.05
283.552	52.22
283.767	-19.46
283.983	70.65
284.198	-46.08
284.413	64.51
284.628	-44.03
284.843	52.22
285.058	48.13
285.274	23.55
285.489	-33.79
285.704	84.99
285.919	9.22
286.134	64.51
286.349	37.89
286.564	5.12
286.779	95.23
286.995	62.46
287.21	-74.75
287.425	87.04
287.64	-31.74
287.855	74.75
288.07	-37.89
288.285	97.28
288.5	91.13
288.715	130.05
288.93	46.08
289.145	-15.36
289.36	-3.07
289.575	29.7
289.79	119.81
290.004	-33.79
290.219	123.9
290.434	23.55
290.649	-44.03
290.864	37.89
291.079	-35.84
291.294	33.79
291.509	46.08
291.724	15.36
291.938	-29.7
292.153	27.65
292.368	31.74
292.583	23.55
292.798	-3.07
293.012	177.15
293.227	99.33
293.442	37.89
293.657	41.98
293.871	70.65
294.086	23.55
294.301	203.77
294.516	93.18
294.73	66.56
294.945	-62.46
295.16	52.22
295.374	162.81
295.589	140.29
295.804	-7.17
296.018	17.41
296.233	93.18
296.447	76.8
296.662	101.37
296.877	121.85
297.091	113.66
297.306	48.13
297.52	41.98
297.735	11.26
297.949	56.32
298.164	56.32
298.378	70.65
298.593	23.55
298.807	33.79
299.022	-44.03
299.236	297.98
299.451	-19.46
299.665	62.46
299.88	15.36
300.094	72.7
300.309	54.27
300.523	52.22
300.737	33.79
300.952	93.18
301.166	99.33
301.381	-7.17
301.595	13.31
301.809	19.46
302.024	-3.07
302.238	58.37
302.452	168.96
302.667	150.53
302.881	181.25
303.095	89.09
303.309	31.74
303.524	-11.26
303.738	5.12
303.952	62.46
304.166	97.28
304.381	-168.96
304.595	150.53
304.809	15.36
305.023	54.27
305.237	1.02
305.452	23.55
305.666	91.13
305.88	48.13
306.094	140.29
306.308	27.65
306.522	-7.17
306.736	72.7
306.95	105.47
307.164	39.94
307.379	17.41
307.593	95.23
307.807	66.56
308.021	132.09
308.235	91.13
308.449	-97.28
308.663	41.98
308.877	119.81
309.091	93.18
309.305	89.09
309.519	-78.85
309.733	78.85
309.947	-72.7
310.161	138.24
310.374	117.76
310.588	109.57
310.802	-82.94
311.016	23.55
311.23	78.85
311.444	19.46
311.658	37.89
311.872	123.9
312.085	148.48
312.299	166.91
312.513	164.86
312.727	-27.65
312.941	-44.03
313.154	44.03
313.368	48.13
313.582	62.46
313.796	29.7
314.009	3.07
314.223	103.42
314.437	15.36
314.651	82.94
314.864	-9.22
315.078	-3.07
315.292	-66.56
315.505	-3.07
315.719	66.56
315.933	54.27
316.146	35.84
316.36	-5.12
316.573	99.33
316.787	121.85
317.001	39.94
317.214	13.31
317.428	7.17
317.641	39.94
317.855	27.65
318.068	33.79
318.282	64.51
318.495	95.23
318.709	35.84
318.922	95.23
319.136	117.76
319.349	113.66
319.563	39.94
319.776	-62.46
319.99	5.12
320.203	142.33
320.417	3.07
320.63	144.38
320.843	160.77
321.057	76.8
321.27	87.04
321.483	132.09
321.697	107.52
321.91	56.32
322.124	37.89
322.337	125.95
322.55	-17.41
322.763	93.18
322.977	-15.36
323.19	41.98
323.403	31.74
323.617	123.9
323.83	66.56
324.043	56.32
324.256	66.56
324.469	-78.85
324.683	101.37
324.896	80.89
325.109	52.22
325.322	-46.08
325.535	84.99
325.748	144.38
325.962	91.13
326.175	105.47
326.388	56.32
326.601	121.85
326.814	13.31
327.027	37.89
327.24	97.28
327.453	-66.56
327.666	78.85
327.879	136.19
328.092	91.13
328.305	7.17
328.518	-37.89
328.731	11.26
328.944	-7.17
329.157	27.65
329.37	60.42
329.583	224.25
329.796	101.37
330.009	-46.08
330.222	189.44
330.435	95.23
330.648	46.08
330.861	3.07
331.073	39.94
331.286	111.61
331.499	-21.5
331.712	-31.74
331.925	97.28
332.138	62.46
332.35	95.23
332.563	74.75
332.776	82.94
332.989	-35.84
333.202	-41.98
333.414	17.41
333.627	-52.22
333.84	7.17
334.053	113.66
334.265	46.08
334.478	25.6
334.691	3.07
334.903	48.13
335.116	-35.84
335.329	37.89
335.541	41.98
335.754	109.57
335.966	-52.22
336.179	-62.46
336.392	23.55
336.604	-3.07
336.817	25.6
337.029	50.18
337.242	76.8
337.454	89.09
337.667	76.8
337.88	70.65
338.092	29.7
338.305	33.79
338.517	-29.7
338.729	39.94
338.942	93.18
339.154	-62.46
339.367	-62.46
339.579	76.8
339.792	-107.52
340.004	23.55
340.217	44.03
340.429	52.22
340.641	-23.55
340.854	19.46
341.066	-1.02
341.278	136.19
341.491	140.29
341.703	39.94
341.915	19.46
342.128	158.72
342.34	56.32
342.552	-13.31
342.764	21.5
342.977	5.12
343.189	50.18
343.401	23.55
343.613	-37.89
343.826	117.76
344.038	37.89
344.25	54.27
344.462	3.07
344.674	117.76
344.886	17.41
345.099	19.46
345.311	89.09
345.523	-33.79
345.735	-89.09
345.947	87.04
346.159	58.37
346.371	27.65
346.583	7.17
346.795	242.68
347.007	39.94
347.219	54.27
347.431	-62.46
347.643	162.81
347.855	-21.5
348.067	187.39
348.279	-3.07
348.491	7.17
348.703	84.99
348.915	1.02
349.127	5.12
349.339	95.23
349.551	-17.41
349.763	99.33
349.975	56.32
350.187	158.72
350.399	162.81
350.61	58.37
350.822	-56.32
351.034	23.55
351.246	82.94
351.458	-60.42
351.669	121.85
351.881	97.28
352.093	152.57
352.305	117.76
352.517	50.18
352.728	140.29
352.94	134.14
353.152	25.6
353.363	3.07
353.575	123.9
353.787	121.85
353.999	97.28
354.21	130.05
354.422	27.65
354.633	-1.02
354.845	21.5
355.057	60.42
355.268	41.98
355.48	132.09
355.692	-82.94
355.903	-17.41
356.115	-84.99
356.326	-97.28
356.538	111.61
356.749	41.98
356.961	138.24
357.172	3.07
357.384	19.46
357.595	160.77
357.807	39.94
358.018	19.46
358.23	31.74
358.441	205.82
358.653	70.65
358.864	33.79
359.075	44.03
359.287	103.42
359.498	17.41
359.709	89.09
359.921	70.65
360.132	-5.12
360.344	50.18
360.555	-25.6
360.766	48.13
360.977	48.13
361.189	84.99
361.4	13.31
361.611	89.09
361.823	62.46
362.034	54.27
362.245	-101.37
362.456	-17.41
362.667	39.94
362.879	-82.94
363.09	115.71
363.301	58.37
363.512	23.55
363.723	21.5
363.935	19.46
364.146	109.57
364.357	48.13
364.568	23.55
364.779	-17.41
364.99	115.71
365.201	-11.26
365.412	80.89
365.623	-52.22
365.834	70.65
366.045	17.41
366.256	113.66
366.467	101.37
366.678	76.8
366.889	23.55
367.1	-17.41
367.311	50.18
367.522	44.03
367.733	78.85
367.944	136.19
368.155	31.74
368.366	105.47
368.577	66.56
368.788	39.94
368.999	-3.07
369.209	-15.36
369.42	193.53
369.631	259.07
369.842	82.94
370.053	35.84
370.264	193.53
370.474	-27.65
370.685	50.18
370.896	3.07
371.107	99.33
371.317	99.33
371.528	-37.89
371.739	154.62
371.95	68.61
372.16	82.94
372.371	-37.89
372.582	19.46
372.792	56.32
373.003	-44.03
373.214	-19.46
373.424	125.95
373.635	-9.22
373.846	166.91
374.056	68.61
374.267	60.42
374.477	52.22
374.688	-5.12
374.898	27.65
375.109	50.18
375.319	107.52
375.53	121.85
375.74	37.89
375.951	-74.75
376.161	39.94
376.372	95.23
376.582	-17.41
376.793	109.57
377.003	-3.07
377.214	-3.07
377.424	58.37
377.635	-17.41
377.845	7.17
378.055	70.65
378.266	-82.94
378.476	107.52
378.686	111.61
378.897	41.98
379.107	105.47
379.317	52.22
379.528	-39.94
379.738	179.2
379.948	-66.56
380.158	107.52
380.369	62.46
380.579	66.56
380.789	60.42
380.999	121.85
381.21	144.38
381.42	166.91
381.63	-56.32
381.84	119.81
382.05	125.95
382.261	115.71
382.471	144.38
382.681	-1.02
382.891	134.14
383.101	89.09
383.311	17.41
383.521	-48.13
383.731	144.38
383.941	185.34
384.151	58.37
384.361	29.7
384.571	7.17
384.781	23.55
384.991	166.91
385.201	109.57
385.411	76.8
385.621	117.76
385.831	89.09
386.041	-15.36
386.251	35.84
386.461	142.33
386.671	87.04
386.881	136.19
387.091	70.65
387.301	144.38
387.511	66.56
387.72	138.24
387.93	101.37
388.14	-33.79
388.35	35.84
388.56	144.38
388.769	46.08
388.979	54.27
389.189	13.31
389.399	56.32
389.609	68.61
389.818	76.8
390.028	84.99
390.238	41.98
390.447	-33.79
390.657	-23.55
390.867	56.32
391.076	-21.5
391.286	64.51
391.496	27.65
391.705	27.65
391.915	144.38
392.125	109.57
392.334	72.7
392.544	189.44
392.753	23.55
392.963	-60.42
393.172	-19.46
393.382	64.51
393.591	199.68
393.801	70.65
394.01	177.15
394.22	99.33
394.429	-15.36
394.639	1.02
394.848	123.9
395.058	60.42
395.267	48.13
395.477	44.03
395.686	9.22
395.895	207.87
396.105	209.92
396.314	89.09
396.524	48.13
396.733	46.08
396.942	132.09
397.152	82.94
397.361	80.89
397.57	72.7
397.78	3.07
397.989	68.61
398.198	228.35
398.407	54.27
398.617	91.13
398.826	54.27
399.035	37.89
399.244	205.82
399.453	23.55
399.663	-17.41
399.872	7.17
400.081	-52.22
400.29	74.75
400.499	11.26
400.708	82.94
400.917	-21.5
401.127	64.51
401.336	44.03
401.545	128
401.754	130.05
401.963	31.74
402.172	-25.6
402.381	-21.5
402.59	52.22
402.799	89.09
403.008	109.57
403.217	82.94
403.426	82.94
403.635	-15.36
403.844	80.89
404.053	21.5
404.262	3.07
404.471	228.35
404.68	91.13
404.888	68.61
405.097	52.22
405.306	50.18
405.515	80.89
405.724	52.22
405.933	158.72
406.142	68.61
406.35	78.85
406.559	-27.65
406.768	64.51
406.977	218.11
407.185	44.03
407.394	162.81
407.603	25.6
407.812	62.46
408.02	224.25
408.229	52.22
408.438	7.17
408.646	9.22
408.855	-33.79
409.064	29.7
409.272	39.94
409.481	84.99
409.69	-50.18
409.898	-3.07
410.107	44.03
410.315	222.2
410.524	50.18
410.733	80.89
410.941	66.56
411.15	136.19
411.358	74.75
411.567	140.29
411.775	39.94
411.984	37.89
412.192	66.56
412.401	89.09
412.609	191.49
412.818	130.05
413.026	97.28
413.234	-25.6
413.443	35.84
413.651	56.32
413.86	84.99
414.068	103.42
414.276	177.15
414.485	76.8
414.693	246.78
414.901	238.59
415.11	11.26
415.318	54.27
415.526	60.42
415.734	144.38
415.943	136.19
416.151	156.67
416.359	82.94
416.567	99.33
416.776	134.14
416.984	89.09
417.192	207.87
417.4	21.5
417.608	25.6
417.817	21.5
418.025	119.81
418.233	175.1
418.441	3.07
418.649	13.31
418.857	29.7
419.065	183.29
419.273	66.56
419.481	56.32
419.689	105.47
419.897	31.74
420.105	39.94
420.313	117.76
420.521	117.76
420.729	52.22
420.937	33.79
421.145	-31.74
421.353	162.81
421.561	214.01
421.769	60.42
421.977	66.56
422.185	103.42
422.393	111.61
422.601	128
422.809	74.75
423.017	144.38
423.224	115.71
423.432	150.53
423.64	93.18
423.848	130.05
424.056	19.46
424.263	259.07
424.471	33.79
424.679	187.39
424.887	7.17
425.094	218.11
425.302	140.29
425.51	-35.84
425.718	76.8
425.925	93.18
426.133	23.55
426.341	291.84
426.548	138.24
426.756	35.84
426.964	160.77
427.171	-39.94
427.379	97.28
427.586	87.04
427.794	171.01
428.001	152.57
428.209	119.81
428.417	203.77
428.624	130.05
428.832	156.67
429.039	142.33
429.247	175.1
429.454	142.33
429.662	177.15
429.869	164.86
430.076	140.29
430.284	150.53
430.491	244.73
430.699	134.14
430.906	209.92
431.114	109.57
431.321	281.6
431.528	193.53
431.736	119.81
431.943	171.01
432.15	312.32
432.358	275.45
432.565	254.97
432.772	-3.07
432.979	224.25
433.187	158.72
433.394	326.65
433.601	236.54
433.808	254.97
434.016	293.88
434.223	246.78
434.43	267.26
434.637	365.56
434.844	334.84
435.052	269.31
435.259	330.75
435.466	312.32
435.673	297.98
435.88	371.71
436.087	418.81
436.294	363.51
436.501	359.42
436.708	306.17
436.915	396.28
437.122	486.39
437.329	347.13
437.537	351.23
437.743	513.02
437.95	527.35
438.157	433.15
438.364	443.39
438.571	498.68
438.778	478.2
438.985	529.4
439.192	646.13
439.399	627.7
439.606	646.13
439.813	717.81
440.02	689.14
440.227	855.03
440.433	762.87
440.64	625.65
440.847	699.38
441.054	814.07
441.261	924.66
441.467	838.64
441.674	754.68
441.881	1006.58
442.088	848.88
442.294	982
442.501	965.62
442.708	1141.74
442.914	971.76
443.121	1072.11
443.328	1111.02
443.534	1098.74
443.741	1078.26
443.948	1094.64
444.154	1352.68
444.361	1459.18
444.568	1330.16
444.774	1346.54
444.981	1283.05
445.187	1682.41
445.394	1514.47
445.6	1547.24
445.807	1690.6
446.013	1641.45
446.22	1706.98
446.426	1801.19
446.633	1973.22
446.839	2149.34
447.046	1967.07
447.252	2085.86
447.459	2243.55
447.665	2010.08
447.871	2360.28
448.078	2507.74
448.284	2397.15
448.491	2554.84
448.697	2669.53
448.903	2765.78
449.11	2747.35
449.316	2802.65
449.522	3169.23
449.728	3167.18
449.935	3341.26
450.141	3304.4
450.347	3601.35
450.553	3617.74
450.76	3607.5
450.966	3742.66
451.172	3904.45
451.378	4268.99
451.584	4201.41
451.791	4422.59
451.997	4467.64
452.203	4715.45
452.409	4873.14
452.615	5053.36
452.821	4893.62
453.027	5122.99
453.233	5718.95
453.44	5409.71
453.646	5786.54
453.852	5960.61
454.058	6095.78
454.264	6476.7
454.47	6962.07
454.676	6790.04
454.882	7457.68
455.088	7185.3
455.294	7500.69
455.5	8039.3
455.705	8438.66
455.911	8516.48
456.117	8854.39
456.323	9145.2
456.529	9046.9
456.735	9958.25
456.941	10249.06
457.147	10677.09
457.352	10935.13
457.558	11182.93
457.764	12045.13
457.97	12018.5
458.176	12708.67
458.381	13120.31
458.587	13271.86
458.793	14381.86
458.999	14093.1
459.204	16155.4
459.41	16540.42
459.616	16395.01
459.821	17300.22
460.027	17910.51
460.233	18793.19
460.438	18731.75
460.644	20032.21
460.85	20232.91
461.055	21004.99
461.261	21803.7
461.466	21363.39
461.672	21838.51
461.878	24509.07
462.083	23747.22
462.289	24697.48
462.494	25494.14
462.7	26002.04
462.905	26397.29
463.111	28385.87
463.316	29192.77
463.522	30333.49
463.727	31195.68
463.932	32440.85
464.138	33530.37
464.343	34636.27
464.549	34566.64
464.754	37589.44
464.959	38140.35
465.165	38814.13
465.37	38691.25
465.575	38703.54
465.781	41062.8
465.986	42639.73
466.191	41877.89
466.397	42527.1
466.602	41310.6
466.807	43512.17
467.012	44499.29
467.218	45142.35
467.423	45506.89
467.628	46319.93
467.833	48685.34
468.038	47444.27
468.244	47104.31
468.449	49371.41
468.654	48722.2
468.859	48085.28
469.064	48513.31
469.269	47585.58
469.474	47814.95
469.679	48814.36
469.885	47550.76
470.09	48007.46
470.295	48738.58
470.5	47120.69
470.705	48185.63
470.91	46702.9
471.115	45793.61
471.32	46508.35
471.525	46745.91
471.73	45019.47
471.935	44763.48
472.139	43340.14
472.344	43350.38
472.549	43045.23
472.754	42201.47
472.959	41429.38
473.164	39989.66
473.369	39375.27
473.574	40595.86
473.778	40073.63
473.983	38748.59
474.188	38515.12
474.393	36393.43
474.598	36430.29
474.802	35516.9
475.007	35430.88
475.212	34793.97
475.417	33423.87
475.621	33591.81
475.826	32817.68
476.031	31765.02
476.235	31662.62
476.44	31078.95
476.645	30478.89
476.849	30485.04
477.054	29846.07
477.259	29166.15
477.463	29155.91
477.668	27970.13
477.872	28469.84
478.077	27490.91
478.282	26440.3
478.486	26681.96
478.691	26108.53
478.895	25916.02
479.1	25825.91
479.304	25713.27
479.509	24826.5
479.713	25154.18
479.918	24392.33
480.122	23956.11
480.326	24294.03
480.531	24081.04
480.735	23495.32
480.94	23009.95
481.144	23968.4
481.348	22846.12
481.553	22948.51
481.757	22532.78
481.961	22930.08
482.166	22655.65
482.37	22422.19
482.574	21963.44
482.778	21844.66
482.983	22131.37
483.187	21693.11
483.391	21695.16
483.595	21373.63
483.8	20904.64
484.004	20857.54
484.208	21099.2
484.412	20486.86
484.616	20564.68
484.821	20417.22
485.025	19634.9
485.229	19935.95
485.433	19378.9
485.637	19196.64
485.841	18944.73
486.045	18596.58
486.249	18479.85
486.453	18227.95
486.657	17855.22
486.861	17658.61
487.065	17181.43
487.269	17111.8
487.473	16753.41
487.677	16737.02
487.881	16702.21
488.085	16044.81
488.289	15952.65
488.493	15295.25
488.697	15639.31
488.901	15315.73
489.105	14881.56
489.309	14525.22
489.512	14557.99
489.716	14160.68
489.92	13706.03
490.124	13384.5
490.328	13656.88
490.531	13050.68
490.735	13151.03
490.939	12802.88
491.143	12485.44
491.346	12028.74
491.55	12073.8
491.754	11938.63
491.958	11557.71
492.161	11457.36
492.365	11438.93
492.569	11043.67
492.772	11096.92
492.976	10941.27
493.18	10662.75
493.383	10548.06
493.587	10668.89
493.79	10261.35
493.994	10036.07
494.197	10242.92
494.401	9952.1
494.605	9855.85
494.808	9923.43
495.012	9933.67
495.215	9575.28
495.419	9710.44
495.622	9472.88
495.825	9468.78
496.029	9397.1
496.232	9491.31
496.436	9266.03
496.639	9290.61
496.843	9134.96
497.046	9317.23
497.249	9350
497.453	9296.75
497.656	9397.1
497.859	9249.65
498.063	9143.16
498.266	9601.9
498.469	9442.16
498.673	9446.26
498.876	9501.55
499.079	9452.4
499.282	9460.59
499.485	9692.01
499.689	9667.44
499.892	9771.88
500.095	9610.09
500.298	9907.05
500.501	9589.61
500.705	9937.77
500.908	9954.15
501.111	10183.52
501.314	10115.94
501.517	10369.89
501.72	10349.41
501.923	10480.48
502.126	10552.16
502.329	10941.27
502.532	10906.46
502.735	10842.97
502.938	11230.04
503.141	11144.02
503.344	11041.62
503.547	11481.94
503.75	11428.69
503.953	11778.89
504.156	11950.92
504.359	12129.09
504.562	12116.81
504.765	12366.66
504.968	12475.2
505.17	12841.79
505.373	13103.93
505.576	13103.93
505.779	13038.39
505.982	13458.23
506.185	13728.56
506.387	14080.81
506.59	14187.3
506.793	14566.18
506.996	14533.41
507.198	15246.1
507.401	15110.94
507.604	15463.19
507.807	15885.07
508.009	16042.76
508.212	16530.18
508.415	16913.15
508.617	17089.28
508.82	17627.89
509.022	17459.96
509.225	18133.74
509.428	18578.15
509.63	18924.26
509.833	19094.24
510.035	19759.83
510.238	20060.88
510.44	20452.04
510.643	20933.31
510.845	21529.27
511.048	21588.66
511.25	21842.61
511.453	22639.27
511.655	23868.05
511.858	23761.56
512.06	24248.97
512.262	24707.72
512.465	25186.94
512.667	25961.08
512.87	26569.32
513.072	27204.19
513.274	27861.59
513.477	28064.34
513.679	28967.49
513.881	29829.69
514.084	30306.87
514.286	30478.89
514.488	31457.82
514.69	32569.87
514.893	32899.59
515.095	33387.01
515.297	34306.55
515.499	34914.8
515.701	35965.4
515.904	36624.85
516.106	37294.53
516.308	38001.08
516.51	38877.61
516.712	39043.5
516.914	39885.22
517.116	41154.96
517.318	41283.98
517.52	42340.73
517.722	42627.45
517.925	43770.21
518.127	44495.19
518.329	45242.7
518.531	45449.55
518.733	46899.51
518.935	47477.04
519.136	47923.49
519.338	49019.16
519.54	49371.41
519.742	50608.38
519.944	51024.12
520.146	51859.69
520.348	52130.02
520.55	53289.17
520.752	53336.27
520.954	54427.84
521.155	54128.84
521.357	55443.63
521.559	56000.68
521.761	56852.64
521.963	56934.56
522.164	57389.2
522.366	57772.17
522.568	58601.6
522.77	58714.24
522.971	59723.89
523.173	59414.65
523.375	59975.79
523.576	60172.39
523.778	60338.28
523.98	61145.18
524.181	60917.85
524.383	60919.9
524.584	61935.69
524.786	61276.25
524.988	61306.97
525.189	62126.16
525.391	61825.1
525.592	62120.01
525.794	62021.71
525.995	61952.08
526.197	61792.34
526.398	62038.09
526.6	61562.96
526.801	62021.71
527.003	61591.64
527.204	61053.02
527.406	61612.12
527.607	60883.04
527.808	61472.85
528.01	60061.8
528.211	59840.62
528.412	60647.52
528.614	59535.48
528.815	58906.75
529.016	59121.79
529.218	58405
529.419	58081.42
529.62	57362.58
529.822	56791.2
530.023	56438.95
530.224	56189.09
530.425	55423.15
530.626	54732.99
530.828	54100.17
531.029	54839.48
531.23	53326.03
531.431	52613.34
531.632	52441.31
531.833	52091.11
532.035	51181.81
532.236	50864.38
532.437	50116.87
532.638	49318.16
532.839	48836.89
533.04	48537.88
533.241	47700.26
533.442	48048.42
533.643	46459.2
533.844	46256.45
534.045	45687.11
534.246	45097.3
534.447	44396.89
534.648	43557.22
534.849	43235.69
535.05	42389.88
535.251	42076.54
535.451	41066.89
535.652	40823.19
535.853	40358.3
536.054	39776.67
536.255	39367.08
536.456	38793.65
536.657	38515.12
536.857	37751.23
537.058	37089.74
537.259	36905.42
537.46	36485.59
537.66	35764.7
537.861	35453.41
538.062	34943.47
538.263	34593.26
538.463	33712.64
538.664	33624.57
538.865	32961.03
539.065	32842.25
539.266	32350.74
539.466	32219.67
539.667	31482.4
539.868	31408.67
540.068	30818.86
540.269	30452.27
540.469	30364.21
540.67	29778.49
540.87	29467.2
541.071	29022.79
541.271	28944.97
541.472	28617.29
541.672	28426.83
541.873	27826.78
542.073	27333.21
542.274	27282.02
542.474	26587.75
542.675	26602.09
542.875	26272.37
543.075	25836.15
543.276	25205.38
543.476	25703.03
543.676	24994.43
543.877	25027.2
544.077	24799.88
544.277	24285.84
544.478	24021.65
544.678	23870.1
544.878	23431.83
545.078	23564.95
545.279	22971.04
545.479	22397.61
545.679	22321.84
545.879	22028.98
546.079	22000.3
546.28	21433.02
546.48	21297.85
546.68	21246.65
546.88	20843.2
547.08	20816.58
547.28	20603.59
547.48	19880.66
547.68	20036.3
547.88	19735.25
548.081	19534.55
548.281	19403.48
548.481	18907.87
548.681	19073.76
548.881	18549.48
549.081	18176.75
549.28	17994.48
549.48	17844.98
549.68	17603.32
549.88	17599.22
550.08	16913.15
550.28	17013.5
550.48	16696.07
550.68	16511.75
550.88	16083.72
551.08	15868.69
551.279	15631.12
551.479	15479.57
551.679	15438.61
551.879	15194.9
552.079	14742.3
552.278	14594.85
552.478	14723.87
552.678	14258.98
552.878	14002.99
553.077	13689.65
553.277	13482.8
553.477	13511.47
553.676	13005.63
553.876	12874.56
554.076	12763.97
554.275	12444.48
554.475	12247.88
554.674	12389.19
554.874	12135.24
555.074	11565.9
555.273	11590.48
555.473	11453.27
555.672	11115.35
555.872	10883.93
556.071	11039.58
556.271	10842.97
556.47	10462.05
556.67	10292.07
556.869	10191.72
557.068	10025.83
557.268	9872.23
557.467	9597.81
557.667	9624.43
557.866	9495.41
558.065	9182.07
558.265	8967.03
558.464	8842.11
558.663	9055.09
558.863	8448.9
559.062	8631.16
559.261	8215.43
559.461	8287.11
559.66	7994.25
559.859	8104.84
560.058	7838.6
560.258	7527.31
560.457	7596.94
560.656	7637.9
560.855	7244.69
561.054	7414.67
561.253	7080.85
561.453	7031.7
561.652	6894.49
561.851	6929.3
562.05	6734.75
562.249	6552.48
562.448	6433.69
562.647	6261.66
562.846	6251.42
563.045	6415.26
563.244	6212.51
563.443	6261.66
563.642	5876.65
563.841	5903.27
564.04	5866.41
564.239	5686.19
564.438	5651.37
564.637	5508.01
564.836	5415.85
565.035	5444.52
565.234	5325.74
565.432	5327.79
565.631	5223.34
565.83	5069.75
566.029	5077.94
566.228	4756.41
566.427	4983.73
566.625	4721.59
566.824	4783.03
567.023	4621.24
567.222	4580.28
567.42	4547.51
567.619	4715.45
567.818	4510.65
568.016	4379.58
568.215	4316.09
568.414	4230.08
568.612	4285.37
568.811	4096.96
569.01	4123.59
569.208	4002.75
569.407	3949.51
569.605	4033.47
569.804	3953.6
570.002	3763.14
570.201	3789.77
570.4	3658.7
570.598	3560.39
570.797	3419.08
570.995	3367.88
571.193	3449.8
571.392	3462.09
571.59	3249.1
571.789	3400.65
571.987	3406.8
572.186	3224.53
572.384	3062.74
572.582	3032.02
572.781	3109.84
572.979	3007.44
573.177	2964.43
573.376	2909.14
573.574	2900.95
573.772	2862.04
573.971	2694.1
574.169	2622.42
574.367	2796.5
574.565	2626.52
574.763	2526.17
574.962	2614.23
575.16	2589.66
575.358	2472.92
575.556	2425.82
575.754	2423.77
575.952	2460.63
576.151	2350.04
576.349	2341.85
576.547	2274.27
576.745	2298.84
576.943	2370.52
577.141	2139.1
577.339	2069.47
577.537	2089.95
577.735	2143.2
577.933	2038.75
578.131	1956.83
578.329	2028.51
578.527	1997.79
578.725	2001.89
578.923	1754.09
579.121	1995.75
579.319	1823.72
579.516	1879.01
579.714	1987.55
579.912	1754.09
580.11	1592.3
580.308	1694.69
580.506	1698.79
580.704	1434.6
580.901	1543.14
581.099	1749.99
581.297	1692.65
581.495	1627.11
581.692	1573.86
581.89	1672.17
582.088	1481.71
582.285	1461.23
582.483	1428.46
582.681	1414.12
582.878	1360.88
583.076	1479.66
583.274	1352.68
583.471	1465.32
583.669	1293.29
583.866	1301.48
584.064	1207.28
584.262	1266.67
584.459	1162.22
584.657	1276.91
584.854	1297.39
585.052	1133.55
585.249	1172.46
585.447	1266.67
585.644	1045.49
585.841	1164.27
586.039	1182.7
586.236	1172.46
586.434	1010.67
586.631	1002.48
586.828	1027.06
587.026	1090.54
587.223	945.14
587.42	947.19
587.618	998.38
587.815	1037.3
588.012	965.62
588.21	891.89
588.407	1041.39
588.604	957.43
588.801	904.18
588.999	904.18
589.196	1014.77
589.393	840.69
589.59	984.05
589.787	908.27
589.984	990.19
590.182	932.85
590.379	857.07
590.576	871.41
590.773	928.75
590.97	855.03
591.167	930.8
591.364	871.41
591.561	834.55
591.758	953.33
591.955	902.13
592.152	873.46
592.349	828.4
592.546	846.84
592.743	783.35
592.94	859.12
593.137	871.41
593.334	840.69
593.531	887.79
593.727	855.03
593.924	920.56
594.121	859.12
594.318	740.34
594.515	893.94
594.712	1004.53
594.908	941.04
595.105	875.51
595.302	912.37
595.499	793.59
595.696	938.99
595.892	785.4
596.089	908.27
596.286	781.3
596.482	1031.15
596.679	1014.77
596.876	877.55
597.072	1037.3
597.269	1006.58
597.466	1102.83
597.662	994.29
597.859	1129.45
598.055	1082.35
598.252	1201.13
598.448	1283.05
598.645	1272.81
598.841	1321.96
599.038	1508.33
599.234	1469.42
599.431	1518.57
599.627	1539.05
599.824	1629.16
600.02	1633.26
600.217	1698.79
600.413	1680.36
600.609	1788.9
600.806	2126.82
601.002	1981.41
601.198	1971.17
601.395	2141.15
601.591	2143.2
601.787	2257.89
601.984	2386.91
602.18	2438.11
602.376	2528.22
602.572	2657.24
602.769	2722.77
602.965	2710.49
603.161	2841.56
603.357	3070.93
603.553	3179.47
603.75	3107.79
603.946	3187.66
604.142	3458
604.338	3550.15
604.534	3582.92
604.73	3709.9
604.926	3877.83
605.122	3916.74
605.318	3918.79
605.514	4260.8
605.71	4355.01
605.906	4402.11
606.102	4404.16
606.298	4776.89
606.494	4940.72
606.69	5145.52
606.886	5258.16
607.082	5170.1
607.278	5417.9
607.474	5630.89
607.67	5807.02
607.866	5798.82
608.062	5974.95
608.257	6353.82
608.453	6345.63
608.649	6480.8
608.845	6556.57
609.041	6816.66
609.236	7013.27
609.432	7222.16
609.628	7527.31
609.824	7816.07
610.019	7793.55
610.215	8031.11
610.411	8457.09
610.606	8614.78
610.802	8739.71
610.998	8901.5
611.193	9210.74
611.389	9300.85
611.584	9606
611.78	9655.15
611.976	10189.67
612.171	10787.68
612.367	10822.49
612.562	10931.03
612.758	11303.76
612.953	11494.22
613.149	11809.61
613.344	11965.26
613.539	12446.53
613.735	12753.73
613.93	12979
614.126	13355.83
614.321	13837.1
614.517	14279.46
614.712	14291.75
614.907	14910.24
615.103	15377.17
615.298	15534.87
615.493	15887.12
615.688	16286.47
615.884	16970.49
616.079	16980.73
616.274	17677.04
616.47	17926.89
616.665	18438.89
616.86	18895.58
617.055	19595.99
617.25	19782.35
617.445	20329.16
617.641	20525.77
617.836	21557.94
618.031	21781.17
618.226	22432.43
618.421	22860.45
618.616	23360.16
618.811	23685.78
619.006	24504.97
619.201	25014.91
619.396	25662.07
619.591	25852.53
619.786	26856.04
619.981	26946.15
620.176	27789.91
620.371	27773.53
620.566	28977.73
620.761	29119.04
620.956	29991.48
621.151	30632.49
621.346	31517.22
621.541	31302.18
621.735	32795.15
621.93	32510.48
622.125	33460.74
622.32	33765.88
622.515	34697.71
622.709	35369.44
622.904	35912.16
623.099	36256.21
623.294	36884.94
623.488	37747.14
623.683	38689.2
623.878	39088.56
624.072	39727.52
624.267	40251.8
624.462	40681.88
624.656	41298.31
624.851	42103.17
625.046	42336.63
625.24	43356.52
625.435	43293.04
625.629	44052.83
625.824	44654.93
626.018	45166.93
626.213	45308.24
626.407	46420.28
626.602	46510.39
626.796	47216.94
626.991	47540.52
627.185	47796.52
627.38	48294.18
627.574	48566.55
627.768	48445.72
627.963	48757.02
628.157	49047.83
628.352	49842.44
628.546	49068.31
628.74	49889.54
628.935	49119.51
629.129	49713.42
629.323	48695.58
629.517	49074.45
629.712	48732.44
629.906	48032.04
630.1	47268.14
630.294	47608.11
630.489	46977.33
630.683	46772.53
630.877	45455.69
631.071	44519.77
631.265	44720.47
631.459	43411.82
631.653	42258.81
631.848	41613.7
632.042	40325.53
632.236	39958.94
632.43	38492.6
632.624	37921.21
632.818	36547.03
633.012	35340.77
633.206	34642.42
633.4	33634.81
633.594	31910.43
633.788	31253.03
633.982	30235.19
634.176	29045.32
634.369	27865.69
634.563	26997.35
634.757	25696.89
634.951	24910.47
635.145	24179.34
635.339	23118.5
635.533	22164.14
635.726	21684.92
635.92	20155.08
636.114	19577.56
636.308	18918.11
636.501	18127.6
636.695	17523.44
636.889	16286.47
637.083	16016.14
637.276	15182.62
637.47	14666.53
637.664	13998.89
637.857	13665.07
638.051	13042.49
638.244	12516.16
638.438	11875.15
638.632	11688.78
638.825	10804.06
639.019	10722.14
639.212	10257.25
639.406	9747.31
639.599	9331.57
639.793	9130.87
639.986	8602.49
640.18	8518.53
640.373	7961.48
640.567	7670.67
640.76	7437.2
640.954	7179.15
641.147	6960.02
641.34	6513.56
641.534	6474.65
641.727	6198.18
641.92	5878.69
642.114	5804.97
642.307	5356.46
642.5	5403.57
642.694	4889.53
642.887	4823.99
643.08	4772.79
643.273	4451.26
643.467	4264.89
643.66	4152.26
643.853	4039.62
644.046	3857.35
644.239	3754.95
644.432	3492.81
644.626	3392.46
644.819	3234.77
645.012	3148.75
645.205	3050.45
645.398	3042.26
645.591	2773.97
645.784	2634.71
645.977	2603.99
646.17	2481.11
646.363	2438.11
646.556	2272.22
646.749	2169.82
646.942	2087.9
647.135	2022.37
647.328	2018.27
647.521	1940.45
647.714	1821.67
647.907	1770.47
648.099	1635.3
648.292	1715.17
648.485	1565.67
648.678	1500.14
648.871	1467.37
649.064	1444.84
649.256	1340.4
649.449	1238
649.642	1104.88
649.835	1106.93
650.027	1051.63
650.22	1246.19
650.413	1063.92
650.605	1080.3
650.798	1008.62
650.991	1072.11
651.183	943.09
651.376	959.47
651.568	912.37
651.761	791.54
651.954	900.08
652.146	840.69
652.339	826.36
652.531	936.95
652.724	683
652.916	758.77
653.109	576.5
653.301	660.47
653.494	680.95
653.686	670.71
653.879	732.15
654.071	596.98
654.263	447.48
654.456	617.46
654.648	670.71
654.84	572.41
655.033	472.06
655.225	646.13
655.417	398.33
655.61	656.37
655.802	599.03
655.994	558.07
656.186	246.78
656.379	527.35
656.571	445.43
656.763	420.86
656.955	414.71
657.148	406.52
657.34	490.49
657.532	345.08
657.724	396.28
657.916	369.66
658.108	365.56
658.3	422.91
658.492	439.29
658.684	293.88
658.876	394.23
659.068	224.25
659.26	267.26
659.452	207.87
659.644	326.65
659.836	355.32
660.028	304.12
660.22	234.49
660.412	300.03
660.604	238.59
660.796	222.2
660.988	340.99
661.18	214.01
661.372	220.16
661.563	257.02
661.755	238.59
661.947	191.49
662.139	173.05
662.331	220.16
662.522	232.44
662.714	216.06
662.906	154.62
663.097	189.44
663.289	207.87
663.481	95.23
663.673	240.64
663.864	306.17
664.056	271.36
664.247	136.19
664.439	203.77
664.631	279.55
664.822	224.25
665.014	179.2
665.205	199.68
665.397	119.81
665.588	240.64
665.78	146.43
665.971	146.43
666.163	164.86
666.354	252.92
666.546	107.52
666.737	154.62
666.929	113.66
667.12	158.72
667.311	236.54
667.503	121.85
667.694	152.57
667.885	140.29
668.077	171.01
668.268	-3.07
668.459	76.8
668.651	154.62
668.842	156.67
669.033	70.65
669.224	13.31
669.416	357.37
669.607	101.37
669.798	87.04
669.989	261.12
670.18	181.25
670.371	205.82
670.563	50.18
670.754	216.06
670.945	144.38
671.136	144.38
671.327	7.17
671.518	109.57
671.709	277.5
671.9	183.29
672.091	302.08
672.282	142.33
672.473	128
672.664	132.09
672.855	142.33
673.046	160.77
673.237	189.44
673.428	44.03
673.619	152.57
673.809	107.52
674	222.2
674.191	148.48
674.382	103.42
674.573	97.28
674.764	140.29
674.954	160.77
675.145	156.67
675.336	70.65
675.527	89.09
675.717	46.08
675.908	134.14
676.099	171.01
676.289	173.05
676.48	74.75
676.671	109.57
676.861	138.24
677.052	89.09
677.243	121.85
677.433	70.65
677.624	173.05
677.814	183.29
678.005	109.57
678.195	230.4
678.386	185.34
678.576	240.64
678.767	50.18
678.957	191.49
679.148	171.01
679.338	181.25
679.529	171.01
679.719	111.61
679.909	295.93
680.1	279.55
680.29	211.96
680.481	138.24
680.671	154.62
680.861	171.01
681.052	183.29
681.242	35.84
681.432	201.72
681.622	193.53
681.813	19.46
682.003	185.34
682.193	50.18
682.383	168.96
682.573	125.95
682.764	150.53
682.954	97.28
683.144	236.54
683.334	160.77
683.524	103.42
683.714	156.67
683.904	199.68
684.094	248.83
684.284	220.16
684.474	289.79
684.664	355.32
684.854	242.68
685.044	207.87
685.234	246.78
685.424	199.68
685.614	41.98
685.804	269.31
685.994	211.96
686.184	179.2
686.374	238.59
686.564	277.5
686.753	132.09
686.943	138.24
687.133	222.2
687.323	201.72
687.513	148.48
687.702	181.25
687.892	197.63
688.082	254.97
688.272	195.58
688.461	222.2
688.651	398.33
688.841	254.97
689.03	267.26
689.22	277.5
689.41	164.86
689.599	283.64
689.789	164.86
689.979	252.92
690.168	199.68
690.358	273.4
690.547	203.77
690.737	207.87
690.926	189.44
691.116	164.86
691.305	279.55
691.495	216.06
691.684	70.65
691.874	111.61
692.063	211.96
692.252	207.87
692.442	289.79
692.631	72.7
692.82	201.72
693.01	230.4
693.199	181.25
693.388	238.59
693.578	177.15
693.767	275.45
693.956	244.73
694.146	113.66
694.335	166.91
694.524	158.72
694.713	277.5
694.902	99.33
695.092	248.83
695.281	318.46
695.47	228.35
695.659	148.48
695.848	134.14
696.037	115.71
696.226	218.11
696.415	150.53
696.604	283.64
696.793	177.15
696.982	199.68
697.171	297.98
697.36	230.4
697.549	146.43
697.738	95.23
697.927	128
698.116	54.27
698.305	232.44
698.494	181.25
698.683	220.16
698.872	314.36
699.061	185.34
699.25	152.57
699.438	207.87
699.627	82.94
699.816	269.31
700.005	109.57
700.193	152.57
700.382	267.26
700.571	197.63
700.76	238.59
700.948	265.21
701.137	207.87
701.326	201.72
701.514	37.89
701.703	142.33
701.892	191.49
702.08	230.4
702.269	232.44
702.457	220.16
702.646	66.56
702.834	168.96
703.023	252.92
703.212	228.35
703.4	148.48
703.589	146.43
703.777	130.05
703.965	80.89
704.154	132.09
704.342	95.23
704.531	72.7
704.719	185.34
704.907	211.96
705.096	74.75
705.284	121.85
705.472	130.05
705.661	160.77
705.849	205.82
706.037	207.87
706.226	166.91
706.414	142.33
706.602	46.08
706.79	191.49
706.979	125.95
707.167	154.62
707.355	60.42
707.543	224.25
707.731	240.64
707.919	211.96
708.107	113.66
708.296	74.75
708.484	80.89
708.672	191.49
708.86	238.59
709.048	60.42
709.236	87.04
709.424	125.95
709.612	252.92
709.8	66.56
709.988	263.16
710.176	240.64
710.364	257.02
710.551	218.11
710.739	187.39
710.927	175.1
711.115	203.77
711.303	152.57
711.491	254.97
711.679	105.47
711.866	195.58
712.054	154.62
712.242	228.35
712.43	187.39
712.617	138.24
712.805	195.58
712.993	164.86
713.181	84.99
713.368	220.16
713.556	187.39
713.744	248.83
713.931	375.8
714.119	189.44
714.306	146.43
714.494	76.8
714.682	199.68
714.869	91.13
715.057	193.53
715.244	58.37
715.432	216.06
715.619	146.43
715.807	134.14
715.994	160.77
716.182	158.72
716.369	218.11
716.556	214.01
716.744	136.19
716.931	89.09
717.119	234.49
717.306	177.15
717.493	107.52
717.681	123.9
717.868	109.57
718.055	214.01
718.242	209.92
718.43	132.09
718.617	232.44
718.804	119.81
718.991	230.4
719.179	175.1
719.366	226.3
719.553	207.87
719.74	160.77
719.927	119.81
720.114	252.92
720.301	97.28
720.488	166.91
720.676	164.86
720.863	203.77
721.05	273.4
721.237	252.92
721.424	316.41
721.611	156.67
721.798	74.75
721.985	220.16
722.172	146.43
722.358	181.25
722.545	252.92
722.732	248.83
722.919	248.83
723.106	214.01
723.293	164.86
723.48	230.4
723.667	150.53
723.853	271.36
724.04	240.64
724.227	250.88
724.414	254.97
724.6	173.05
724.787	271.36
724.974	273.4
725.161	173.05
725.347	179.2
725.534	125.95
725.72	332.79
725.907	310.27
726.094	259.07
726.28	195.58
726.467	214.01
726.653	48.13
726.84	287.74
727.027	377.85
727.213	199.68
727.4	181.25
727.586	201.72
727.773	214.01
727.959	203.77
728.145	246.78
728.332	310.27
728.518	261.12
728.705	267.26
728.891	211.96
729.077	252.92
729.264	183.29
729.45	130.05
729.636	226.3
729.823	244.73
730.009	314.36
730.195	259.07
730.382	232.44
730.568	197.63
730.754	189.44
730.94	201.72
731.126	246.78
731.313	297.98
731.499	203.77
731.685	308.22
731.871	244.73
732.057	275.45
732.243	306.17
732.429	209.92
732.615	340.99
732.801	257.02
732.987	218.11
733.173	228.35
733.359	183.29
733.545	205.82
733.731	179.2
733.917	308.22
734.103	310.27
734.289	304.12
734.475	269.31
734.661	330.75
734.847	201.72
735.033	242.68
735.219	334.84
735.404	158.72
735.59	168.96
735.776	154.62
735.962	279.55
736.148	306.17
736.333	312.32
736.519	242.68
736.705	181.25
736.89	211.96
737.076	244.73
737.262	171.01
737.447	152.57
737.633	201.72
737.819	312.32
738.004	175.1
738.19	295.93
738.375	207.87
738.561	285.69
738.747	203.77
738.932	150.53
739.118	357.37
739.303	248.83
739.489	209.92
739.674	185.34
739.859	228.35
740.045	261.12
740.23	195.58
740.416	125.95
740.601	254.97
740.786	236.54
740.972	216.06
741.157	97.28
741.342	109.57
741.528	193.53
741.713	312.32
741.898	181.25
742.084	211.96
742.269	193.53
742.454	259.07
742.639	318.46
742.824	257.02
743.01	336.89
743.195	265.21
743.38	201.72
743.565	195.58
743.75	226.3
743.935	259.07
744.12	201.72
744.305	132.09
744.49	201.72
744.675	60.42
744.86	240.64
745.045	252.92
745.23	242.68
745.415	214.01
745.6	287.74
745.785	125.95
745.97	316.41
746.155	226.3
746.34	254.97
746.525	281.6
746.71	340.99
746.895	54.27
747.079	101.37
747.264	109.57
747.449	291.84
747.634	283.64
747.819	216.06
748.003	156.67
748.188	95.23
748.373	240.64
748.557	248.83
748.742	205.82
748.927	201.72
749.111	66.56
749.296	224.25
749.481	197.63
749.665	183.29
749.85	128
750.034	240.64
750.219	179.2
750.404	109.57
750.588	197.63
750.773	87.04
750.957	189.44
751.141	148.48
751.326	199.68
751.51	197.63
751.695	220.16
751.879	224.25
752.064	220.16
752.248	82.94
752.432	308.22
752.617	197.63
752.801	289.79
752.985	113.66
753.17	228.35
753.354	162.81
753.538	187.39
753.722	109.57
753.907	87.04
754.091	148.48
754.275	214.01
754.459	128
754.643	150.53
754.828	183.29
755.012	214.01
755.196	52.22
755.38	72.7
755.564	164.86
755.748	107.52
755.932	203.77
756.116	214.01
756.3	164.86
756.484	91.13
756.668	175.1
756.852	46.08
757.036	246.78
757.22	70.65
757.404	101.37
757.588	101.37
757.772	138.24
757.956	179.2
758.14	269.31
758.323	89.09
758.507	177.15
758.691	64.51
758.875	226.3
759.059	185.34
759.242	58.37
759.426	121.85
759.61	23.55
759.794	50.18
759.977	211.96
760.161	336.89
760.345	187.39
760.528	119.81
760.712	95.23
760.895	209.92
761.079	125.95
761.263	41.98
761.446	99.33
761.63	72.7
761.813	293.88
761.997	-29.7
762.18	125.95
762.364	209.92
762.547	1.02
762.731	25.6
762.914	44.03
763.098	21.5
763.281	95.23
763.464	41.98
763.648	97.28
763.831	111.61
764.015	50.18
764.198	144.38
764.381	62.46
764.564	99.33
764.748	105.47
764.931	193.53
765.114	105.47
765.297	115.71
765.481	37.89
765.664	82.94
765.847	48.13
766.03	201.72
766.213	-13.31
766.397	62.46
766.58	52.22
766.763	144.38
766.946	5.12
767.129	-19.46
767.312	44.03
767.495	101.37
767.678	54.27
767.861	19.46
768.044	95.23
768.227	29.7
768.41	121.85
768.593	39.94
768.776	-17.41
768.959	56.32
769.142	41.98
769.324	66.56
769.507	19.46
769.69	23.55
769.873	74.75
770.056	281.6
770.239	138.24
770.421	175.1
770.604	89.09
770.787	121.85
770.97	158.72
771.152	25.6
771.335	37.89
771.518	-1.02
771.7	171.01
771.883	203.77
772.066	13.31
772.248	72.7
772.431	195.58
772.613	78.85
772.796	105.47
772.978	68.61
773.161	168.96
773.343	39.94
773.526	25.6
773.708	3.07
773.891	3.07
774.073	89.09
774.256	50.18
774.438	191.49
774.621	56.32
774.803	93.18
774.985	23.55
775.168	111.61
775.35	-13.31
775.532	119.81
775.715	1.02
775.897	117.76
776.079	-44.03
776.261	78.85
776.444	66.56
776.626	105.47
776.808	91.13
776.99	-35.84
777.173	97.28
777.355	56.32
777.537	115.71
777.719	74.75
777.901	33.79
778.083	35.84
778.265	-58.37
778.447	56.32
778.629	54.27
778.811	27.65
778.993	111.61
779.175	66.56
779.357	27.65
779.539	-11.26
779.721	27.65
779.903	46.08
780.085	-35.84
780.267	78.85
780.449	11.26
780.631	74.75
780.812	99.33
780.994	66.56
781.176	-25.6
781.358	48.13
781.54	80.89
781.721	50.18
781.903	82.94
782.085	9.22
782.267	113.66
782.448	27.65
782.63	37.89
782.812	58.37
782.993	19.46
783.175	72.7
783.357	52.22
783.538	175.1
783.72	15.36
783.901	23.55
784.083	99.33
784.264	-11.26
784.446	-11.26
784.627	-11.26
784.809	89.09
784.99	39.94
785.172	50.18
785.353	130.05
785.535	11.26
785.716	46.08
785.897	-3.07
786.079	58.37
786.26	-15.36
786.441	82.94
786.623	-25.6
786.804	-33.79
786.985	5.12
787.167	70.65
787.348	31.74
787.529	-39.94
787.71	13.31
787.891	70.65
788.073	13.31
788.254	-72.7
788.435	117.76
788.616	-5.12
788.797	-82.94
788.978	52.22
789.159	11.26
789.34	72.7
789.522	60.42
789.703	-31.74
789.884	19.46
790.065	-5.12
790.246	187.39
790.427	-21.5
790.607	136.19
790.788	60.42
790.969	-64.51
791.15	93.18
791.331	80.89
791.512	-52.22
791.693	3.07
791.874	-9.22
792.054	113.66
792.235	21.5
792.416	-33.79
792.597	-101.37
792.778	29.7
792.958	11.26
793.139	31.74
793.32	-58.37
793.5	-46.08
793.681	91.13
793.862	46.08
794.042	-3.07
794.223	-33.79
794.404	25.6
794.584	-66.56
794.765	15.36
794.945	48.13
795.126	27.65
795.306	70.65
795.487	44.03
795.667	41.98
795.848	-17.41
796.028	-52.22
796.209	62.46
796.389	84.99
796.57	-7.17
796.75	-15.36
796.93	-21.5
797.111	23.55
797.291	1.02
797.471	60.42
797.652	5.12
797.832	-76.8
798.012	142.33
798.192	-37.89
798.373	-31.74
798.553	-21.5
798.733	74.75
798.913	-41.98
799.093	7.17
799.274	50.18
799.454	48.13
799.634	121.85
799.814	111.61
799.994	74.75
800.174	-1.02
800.354	23.55
800.534	-54.27
800.714	23.55
800.894	-68.61
801.074	-130.05
801.254	-82.94
801.434	56.32
801.614	-19.46
801.794	62.46
801.974	1620.97
802.154	-41.98
802.334	52.22
802.514	-31.74
802.693	-54.27
802.873	-15.36
803.053	134.14
803.233	146.43
803.413	15.36
803.592	-64.51
803.772	-64.51
803.952	-3.07
804.131	1.02
804.311	52.22
804.491	101.37
804.67	-60.42
804.85	-74.75
805.03	33.79
805.209	113.66
805.389	-27.65
805.568	-39.94
805.748	-62.46
805.928	-3.07
806.107	56.32
806.287	58.37
806.466	68.61
806.646	5.12
806.825	-11.26
807.004	13.31
807.184	66.56
807.363	17.41
807.543	56.32
807.722	-60.42
807.901	115.71
808.081	91.13
808.26	-140.29
808.439	-11.26
808.619	-31.74
808.798	-37.89
808.977	5.12
809.156	95.23
809.336	46.08
809.515	78.85
809.694	-72.7
809.873	46.08
810.052	123.9
810.231	70.65
810.411	11.26
810.59	91.13
810.769	-68.61
810.948	87.04
811.127	-146.43
811.306	-60.42
811.485	-56.32
811.664	199.68
811.843	-27.65
812.022	78.85
812.201	13.31
812.38	-1.02
812.559	-29.7
812.737	5.12
812.916	-58.37
813.095	-44.03
813.274	37.89
813.453	-1.02
813.632	52.22
813.811	121.85
813.989	-111.61
814.168	125.95
814.347	-37.89
814.526	-11.26
814.704	142.33
814.883	185.34
815.062	-41.98
815.24	50.18
815.419	-41.98
815.598	80.89
815.776	-97.28
815.955	-23.55
816.133	-99.33
816.312	15.36
816.49	-80.89
816.669	17.41
816.847	44.03
817.026	-7.17
817.204	27.65
817.383	-13.31
817.561	-39.94
817.74	54.27
817.918	33.79
818.097	-29.7
818.275	-66.56
818.453	66.56
818.632	1.02
818.81	-37.89
818.988	-31.74
819.167	-3.07
819.345	-13.31
819.523	-156.67
819.701	-21.5
819.879	-13.31
820.058	111.61
820.236	-60.42
820.414	-1.02
820.592	-62.46
820.77	52.22
820.948	-17.41
821.127	-50.18
821.305	-50.18
821.483	-19.46
821.661	136.19
821.839	-17.41
822.017	-25.6
822.195	23.55
822.373	113.66
822.551	-29.7
822.729	46.08
822.907	-19.46
823.085	52.22
823.262	64.51
823.44	-17.41
823.618	-15.36
823.796	23.55
823.974	-17.41
824.152	-58.37
824.329	13.31
824.507	-37.89
824.685	101.37
824.863	-9.22
825.04	-13.31
825.218	31.74
825.396	70.65
825.574	41.98
825.751	-41.98
825.929	62.46
826.107	-39.94
826.284	5.12
826.462	33.79
826.639	-78.85
826.817	-70.65
826.994	27.65
827.172	-70.65
827.349	89.09
827.527	-3.07
827.704	-37.89
827.882	138.24
828.059	19.46
828.237	-121.85
828.414	144.38
828.591	-123.9
828.769	-50.18
828.946	-29.7
829.124	91.13
829.301	121.85
829.478	-27.65
829.655	29.7
829.833	44.03
830.01	-156.67
830.187	82.94
830.364	-15.36
830.542	21.5
830.719	113.66
830.896	52.22
831.073	52.22
831.25	78.85
831.427	23.55
831.604	1.02
831.782	-17.41
831.959	62.46
832.136	-7.17
832.313	46.08
832.49	1.02
832.667	76.8
832.844	-101.37
833.021	156.67
833.198	25.6
833.374	13.31
833.551	-13.31
833.728	-13.31
833.905	166.91
834.082	-76.8
834.259	44.03
834.436	95.23
834.612	-78.85
834.789	-11.26
834.966	72.7
835.143	39.94
835.319	-54.27
835.496	35.84
835.673	-1.02
835.85	103.42
836.026	-7.17
836.203	95.23
836.38	15.36
836.556	78.85
836.733	-97.28
836.909	117.76
837.086	15.36
837.262	-52.22
837.439	-93.18
837.616	-48.13
837.792	17.41
837.968	39.94
838.145	-107.52
838.321	-29.7
838.498	29.7
838.674	103.42
838.851	-39.94
839.027	-9.22
839.203	-66.56
839.38	-17.41
839.556	-87.04
839.732	101.37
839.909	9.22
840.085	19.46
840.261	-68.61
840.437	-33.79
840.614	46.08
840.79	15.36
840.966	70.65
841.142	-15.36
841.318	-46.08
841.494	111.61
841.671	17.41
841.847	-15.36
842.023	-37.89
842.199	31.74
842.375	125.95
842.551	-74.75
842.727	-46.08
842.903	140.29
843.079	-33.79
843.255	113.66
843.431	-80.89
843.607	158.72
843.783	-95.23
843.959	23.55
844.134	-17.41
844.31	128
844.486	-70.65
844.662	-1.02
844.838	-82.94
845.013	46.08
845.189	109.57
845.365	-44.03
845.541	29.7
845.716	56.32
845.892	35.84
846.068	11.26
846.244	-89.09
846.419	-3.07
846.595	-23.55
846.77	-5.12
846.946	50.18
847.122	-44.03
847.297	-78.85
847.473	136.19
847.648	-123.9
847.824	1.02
847.999	-168.96
848.175	-35.84
848.35	44.03
848.526	62.46
848.701	48.13
848.876	87.04
849.052	117.76
849.227	-3.07
849.403	-50.18
849.578	-13.31
849.753	17.41
849.929	5.12
850.104	-125.95
850.279	-15.36
850.454	33.79
850.63	37.89
850.805	35.84
850.98	-15.36
851.155	3.07
851.33	35.84
851.505	-80.89
851.681	93.18
851.856	-113.66
852.031	5.12
852.206	23.55
852.381	-177.15
852.556	-25.6
852.731	-7.17
852.906	82.94
853.081	25.6
853.256	107.52
853.431	-62.46
853.606	-31.74
853.781	-7.17
853.956	-154.62
854.131	5.12
854.305	-91.13
854.48	-5.12
854.655	3.07
854.83	19.46
855.005	-3.07
855.18	-60.42
855.354	46.08
855.529	66.56
855.704	99.33
855.879	-13.31
856.053	21.5
856.228	52.22
856.403	-13.31
856.577	62.46
856.752	-70.65
856.926	-50.18
857.101	-58.37
857.276	-72.7
857.45	-25.6
857.625	76.8
857.799	-17.41
857.974	-7.17
858.148	-130.05
858.323	64.51
858.497	-54.27
858.672	-41.98
858.846	-37.89
859.02	-1.02
859.195	-52.22
859.369	56.32
859.543	-31.74
859.718	41.98
859.892	113.66
860.066	19.46
860.241	-80.89
860.415	-84.99
860.589	-13.31
860.763	-15.36
860.938	-50.18
861.112	68.61
861.286	-27.65
861.46	76.8
861.634	52.22
861.808	93.18
861.982	-7.17
862.157	-93.18
862.331	-97.28
862.505	-138.24
862.679	-136.19
862.853	-103.42
863.027	1.02
863.201	89.09
863.375	-146.43
863.549	27.65
863.722	84.99
863.896	166.91
864.07	-25.6
864.244	74.75
864.418	-3.07
864.592	62.46
864.766	-35.84
864.939	-39.94
865.113	-103.42
865.287	128
865.461	-91.13
865.634	-15.36
865.808	13.31
865.982	-52.22
866.156	-58.37
866.329	-117.76
866.503	-74.75
866.676	62.46
866.85	103.42
867.024	-48.13
867.197	39.94
867.371	15.36
867.544	50.18
867.718	-21.5
867.891	11.26
868.065	-39.94
868.238	-25.6
868.412	144.38
868.585	17.41
868.759	-44.03
868.932	-46.08
869.105	-39.94
869.279	3.07
869.452	-66.56
869.625	105.47
869.799	-17.41
869.972	-46.08
870.145	13.31
870.319	15.36
870.492	-41.98
870.665	-70.65
870.838	-68.61
871.011	-93.18
871.185	-50.18
871.358	-82.94
871.531	44.03
871.704	11.26
871.877	-50.18
872.05	-78.85
872.223	-62.46
872.396	-5.12
872.569	64.51
872.742	-93.18
872.915	-19.46
873.088	-95.23
873.261	-23.55
873.434	78.85
873.607	-70.65
873.78	107.52
873.953	-148.48
874.126	19.46
874.299	48.13
874.471	-31.74
874.644	17.41
874.817	31.74
874.99	132.09
875.163	-35.84
875.335	7.17
875.508	-33.79
875.681	89.09
875.853	-31.74
876.026	-41.98
876.199	35.84
876.371	9.22
876.544	-44.03
876.717	-37.89
876.889	-11.26
877.062	-31.74
877.234	-62.46
877.407	-7.17
877.579	5.12
877.752	-15.36
877.924	166.91
878.097	46.08
878.269	66.56
878.442	1.02
878.614	3.07
878.786	52.22
878.959	97.28
879.131	15.36
879.303	-140.29
879.476	56.32
879.648	33.79
879.82	-31.74
879.993	7.17
880.165	-74.75
880.337	-39.94
880.509	-64.51
880.681	-181.25
880.854	-27.65
881.026	9.22
881.198	199.68
881.37	-44.03
881.542	-48.13
881.714	-68.61
881.886	-82.94
882.058	-48.13
882.23	-23.55
882.402	37.89
882.574	-62.46
882.746	29.7
882.918	117.76
883.09	-70.65
883.262	66.56
883.434	-25.6
883.606	-68.61
883.778	-9.22
883.95	156.67
884.122	-46.08
884.293	87.04
884.465	-27.65
884.637	19.46
884.809	-78.85
884.98	7.17
885.152	64.51
885.324	52.22
885.496	-78.85
885.667	-84.99
885.839	-70.65
886.011	142.33
886.182	72.7
886.354	19.46
886.525	52.22
886.697	-7.17
886.869	-17.41
887.04	31.74
887.212	54.27
887.383	101.37
887.555	-52.22
887.726	-56.32
887.897	1.02
888.069	-48.13
888.24	60.42
888.412	11.26
888.583	-17.41
888.754	-3.07
888.926	-58.37
889.097	-60.42
889.268	-66.56
889.44	15.36
889.611	-117.76
889.782	-17.41
889.953	-66.56
890.125	93.18
890.296	-33.79
890.467	27.65
890.638	-60.42
890.809	-78.85
890.98	-105.47
891.151	60.42
891.323	62.46
891.494	-89.09
891.665	111.61
891.836	-44.03
892.007	11.26
892.178	23.55
892.349	7.17
892.52	25.6
892.691	91.13
892.862	-84.99
893.032	-27.65
893.203	-46.08
893.374	-60.42
893.545	58.37
893.716	9.22
893.887	89.09
894.057	-93.18
894.228	-7.17
894.399	-5.12
894.57	39.94
894.74	41.98
894.911	-7.17
895.082	-31.74
895.253	-37.89
895.423	-84.99
895.594	3.07
895.764	44.03
895.935	-101.37
896.106	-72.7
896.276	-48.13
896.447	-1.02
896.617	-62.46
896.788	-68.61
896.958	-21.5
897.129	-33.79
897.299	-46.08
897.47	109.57
897.64	84.99
897.81	-52.22
897.981	7.17
898.151	-39.94
898.322	27.65
898.492	-3.07
898.662	-84.99
898.832	-58.37
899.003	-19.46
899.173	17.41
899.343	41.98
899.513	-91.13
