Data from USB4F104151__19__10-41-55-586.txt Node

Date: Wed Feb 26 10:41:55 EST 2025
User: louis
Spectrometer: USB4F10415
Trigger mode: 4
Integration Time (sec): 1.000000E-1
Scans to average: 1
Electric dark correction enabled: true
Nonlinearity correction enabled: false
Boxcar width: 0
XAxis mode: Wavelengths
Number of Pixels in Spectrum: 3648
>>>>>Begin Spectral Data<<<<<
178.204	-379.22
178.424	-379.22
178.644	-379.22
178.864	-434.51
179.084	-434.51
179.304	81.58
179.524	-74.07
179.744	-31.06
179.964	30.38
180.184	3.75
180.404	3.75
180.624	1.71
180.844	30.38
181.064	-37.2
181.283	-18.77
181.503	-26.96
181.723	36.52
181.943	-59.73
182.163	153.26
182.383	24.23
182.602	93.87
182.822	155.3
183.042	-20.82
183.262	-31.06
183.482	93.87
183.701	61.1
183.921	97.96
184.141	-121.17
184.361	46.76
184.58	134.82
184.8	-4.44
185.02	-29.01
185.239	54.95
185.459	-14.68
185.679	147.11
185.898	-67.92
186.118	-16.73
186.338	87.72
186.557	91.82
186.777	-35.16
186.997	-6.49
187.216	42.67
187.436	140.97
187.655	110.25
187.875	-24.92
188.095	32.43
188.314	110.25
188.534	143.02
188.753	7.85
188.973	134.82
189.192	183.98
189.412	83.63
189.631	38.57
189.851	57
190.07	224.94
190.29	-16.73
190.509	7.85
190.729	28.33
190.948	110.25
191.168	261.8
191.387	100.01
191.607	1.71
191.826	81.58
192.045	-12.63
192.265	-35.16
192.484	63.15
192.704	-4.44
192.923	-55.64
193.142	183.98
193.362	163.5
193.581	284.33
193.8	140.97
194.02	85.67
194.239	100.01
194.458	120.49
194.678	-4.44
194.897	5.8
195.116	106.15
195.335	-14.68
195.555	36.52
195.774	-22.87
195.993	106.15
196.212	22.19
196.432	24.23
196.651	-8.53
196.87	116.39
197.089	224.94
197.308	108.2
197.528	32.43
197.747	52.91
197.966	73.39
198.185	128.68
198.404	-76.12
198.623	104.11
198.842	138.92
199.062	-22.87
199.281	83.63
199.5	44.71
199.719	89.77
199.938	-0.34
200.157	79.53
200.376	26.28
200.595	134.82
200.814	36.52
201.033	18.09
201.252	159.4
201.471	71.34
201.69	36.52
201.909	46.76
202.128	132.78
202.347	67.24
202.566	128.68
202.785	-84.31
203.004	-55.64
203.223	210.6
203.442	13.99
203.661	-33.11
203.879	67.24
204.098	155.3
204.317	-39.25
204.536	-6.49
204.755	38.57
204.974	128.68
205.193	-16.73
205.411	149.16
205.63	149.16
205.849	11.95
206.068	-4.44
206.287	-26.96
206.505	104.11
206.724	91.82
206.943	83.63
207.162	-43.35
207.381	106.15
207.599	13.99
207.818	-6.49
208.037	-14.68
208.255	54.95
208.474	46.76
208.693	32.43
208.911	34.47
209.13	44.71
209.349	108.2
209.567	143.02
209.786	52.91
210.005	5.8
210.223	69.29
210.442	-153.94
210.661	-20.82
210.879	89.77
211.098	65.19
211.316	73.39
211.535	13.99
211.753	32.43
211.972	108.2
212.191	-43.35
212.409	18.09
212.628	67.24
212.846	-12.63
213.065	106.15
213.283	163.5
213.502	26.28
213.72	65.19
213.938	7.85
214.157	-65.88
214.375	124.58
214.594	44.71
214.812	93.87
215.031	-2.39
215.249	54.95
215.467	100.01
215.686	-18.77
215.904	44.71
216.122	110.25
216.341	226.98
216.559	38.57
216.778	151.21
216.996	73.39
217.214	42.67
217.432	24.23
217.651	42.67
217.869	89.77
218.087	134.82
218.306	-22.87
218.524	73.39
218.742	44.71
218.96	75.43
219.179	-0.34
219.397	81.58
219.615	212.65
219.833	3.75
220.051	-117.08
220.27	57
220.488	112.3
220.706	75.43
220.924	16.04
221.142	7.85
221.36	110.25
221.578	81.58
221.796	30.38
222.015	134.82
222.233	63.15
222.451	188.07
222.669	-63.83
222.887	69.29
223.105	-2.39
223.323	22.19
223.541	-94.55
223.759	97.96
223.977	24.23
224.195	65.19
224.413	93.87
224.631	102.06
224.849	42.67
225.067	183.98
225.285	9.9
225.503	-16.73
225.721	-72.02
225.939	24.23
226.157	145.06
226.375	294.57
226.592	36.52
226.81	128.68
227.028	171.69
227.246	143.02
227.464	3.75
227.682	89.77
227.9	69.29
228.117	46.76
228.335	104.11
228.553	85.67
228.771	20.14
228.989	30.38
229.206	50.86
229.424	1.71
229.642	-18.77
229.86	-24.92
230.077	126.63
230.295	30.38
230.513	85.67
230.731	52.91
230.948	145.06
231.166	140.97
231.384	-18.77
231.601	-26.96
231.819	136.87
232.037	22.19
232.254	-8.53
232.472	16.04
232.689	54.95
232.907	145.06
233.125	73.39
233.342	-20.82
233.56	42.67
233.777	42.67
233.995	138.92
234.213	77.48
234.43	63.15
234.648	42.67
234.865	5.8
235.083	63.15
235.3	63.15
235.518	69.29
235.735	104.11
235.953	87.72
236.17	97.96
236.388	79.53
236.605	73.39
236.822	114.34
237.04	175.78
237.257	46.76
237.475	-76.12
237.692	61.1
237.909	61.1
238.127	-0.34
238.344	75.43
238.562	20.14
238.779	-110.93
238.996	-35.16
239.214	18.09
239.431	81.58
239.648	-43.35
239.865	32.43
240.083	61.1
240.3	-6.49
240.517	-12.63
240.735	9.9
240.952	159.4
241.169	44.71
241.386	50.86
241.603	69.29
241.821	-45.4
242.038	122.54
242.255	71.34
242.472	26.28
242.689	16.04
242.907	-26.96
243.124	38.57
243.341	75.43
243.558	-20.82
243.775	-26.96
243.992	-29.01
244.209	128.68
244.426	200.36
244.643	83.63
244.86	5.8
245.078	108.2
245.295	106.15
245.512	38.57
245.729	-6.49
245.946	75.43
246.163	145.06
246.38	52.91
246.597	59.05
246.814	83.63
247.031	1.71
247.248	52.91
247.464	30.38
247.681	50.86
247.898	36.52
248.115	85.67
248.332	20.14
248.549	159.4
248.766	175.78
248.983	85.67
249.2	16.04
249.417	40.62
249.633	28.33
249.85	81.58
250.067	-33.11
250.284	-47.44
250.501	36.52
250.717	3.75
250.934	22.19
251.151	-24.92
251.368	13.99
251.585	36.52
251.801	81.58
252.018	-10.58
252.235	159.4
252.451	-41.3
252.668	-12.63
252.885	67.24
253.102	87.72
253.318	30.38
253.535	-47.44
253.752	-45.4
253.968	87.72
254.185	-43.35
254.401	75.43
254.618	50.86
254.835	24.23
255.051	229.03
255.268	-24.92
255.484	97.96
255.701	11.95
255.917	67.24
256.134	69.29
256.351	-8.53
256.567	16.04
256.784	46.76
257	-33.11
257.217	110.25
257.433	145.06
257.65	59.05
257.866	114.34
258.082	54.95
258.299	-35.16
258.515	-2.39
258.732	24.23
258.948	-39.25
259.165	42.67
259.381	-55.64
259.597	95.91
259.814	102.06
260.03	26.28
260.246	46.76
260.463	93.87
260.679	130.73
260.895	63.15
261.112	85.67
261.328	-10.58
261.544	-2.39
261.761	147.11
261.977	1.71
262.193	38.57
262.409	50.86
262.626	40.62
262.842	32.43
263.058	34.47
263.274	100.01
263.49	26.28
263.707	116.39
263.923	75.43
264.139	-65.88
264.355	22.19
264.571	186.02
264.787	75.43
265.004	122.54
265.22	-29.01
265.436	24.23
265.652	71.34
265.868	132.78
266.084	5.8
266.3	-14.68
266.516	-160.08
266.732	87.72
266.948	26.28
267.164	36.52
267.38	134.82
267.596	5.8
267.812	116.39
268.028	38.57
268.244	38.57
268.46	-2.39
268.676	95.91
268.892	61.1
269.108	-18.77
269.324	-76.12
269.54	5.8
269.756	145.06
269.972	-12.63
270.188	38.57
270.403	-112.98
270.619	104.11
270.835	104.11
271.051	18.09
271.267	24.23
271.483	61.1
271.698	85.67
271.914	40.62
272.13	52.91
272.346	30.38
272.562	79.53
272.777	130.73
272.993	-67.92
273.209	54.95
273.425	87.72
273.64	-33.11
273.856	65.19
274.072	-26.96
274.287	-6.49
274.503	89.77
274.719	36.52
274.934	-37.2
275.15	-14.68
275.366	-10.58
275.581	9.9
275.797	28.33
276.012	30.38
276.228	44.71
276.444	50.86
276.659	93.87
276.875	-6.49
277.09	122.54
277.306	26.28
277.521	48.81
277.737	30.38
277.952	83.63
278.168	-8.53
278.383	44.71
278.599	48.81
278.814	128.68
279.03	36.52
279.245	110.25
279.461	81.58
279.676	85.67
279.892	-49.49
280.107	-49.49
280.322	-33.11
280.538	75.43
280.753	5.8
280.969	149.16
281.184	48.81
281.399	79.53
281.615	71.34
281.83	77.48
282.045	-18.77
282.26	-51.54
282.476	54.95
282.691	104.11
282.906	44.71
283.122	102.06
283.337	-6.49
283.552	112.3
283.767	-45.4
283.983	122.54
284.198	34.47
284.413	32.43
284.628	-29.01
284.843	24.23
285.058	120.49
285.274	42.67
285.489	11.95
285.704	71.34
285.919	-18.77
286.134	22.19
286.349	11.95
286.564	28.33
286.779	122.54
286.995	9.9
287.21	-55.64
287.425	165.54
287.64	-35.16
287.855	52.91
288.07	1.71
288.285	153.26
288.5	155.3
288.715	155.3
288.93	87.72
289.145	22.19
289.36	48.81
289.575	-0.34
289.79	126.63
290.004	30.38
290.219	79.53
290.434	-24.92
290.649	1.71
290.864	24.23
291.079	40.62
291.294	61.1
291.509	79.53
291.724	63.15
291.938	7.85
292.153	24.23
292.368	-2.39
292.583	116.39
292.798	100.01
293.012	126.63
293.227	36.52
293.442	-0.34
293.657	42.67
293.871	81.58
294.086	67.24
294.301	173.74
294.516	149.16
294.73	104.11
294.945	-76.12
295.16	-45.4
295.374	128.68
295.589	83.63
295.804	1.71
296.018	13.99
296.233	153.26
296.447	71.34
296.662	59.05
296.877	95.91
297.091	102.06
297.306	-2.39
297.52	75.43
297.735	52.91
297.949	61.1
298.164	75.43
298.378	59.05
298.593	-49.49
298.807	-0.34
299.022	9.9
299.236	173.74
299.451	-35.16
299.665	28.33
299.88	3.75
300.094	67.24
300.309	95.91
300.523	24.23
300.737	30.38
300.952	61.1
301.166	93.87
301.381	-31.06
301.595	-112.98
301.809	9.9
302.024	26.28
302.238	-39.25
302.452	132.78
302.667	34.47
302.881	128.68
303.095	67.24
303.309	20.14
303.524	-45.4
303.738	38.57
303.952	18.09
304.166	67.24
304.381	-14.68
304.595	136.87
304.809	36.52
305.023	59.05
305.237	-43.35
305.452	-24.92
305.666	118.44
305.88	11.95
306.094	114.34
306.308	-41.3
306.522	87.72
306.736	79.53
306.95	63.15
307.164	46.76
307.379	16.04
307.593	175.78
307.807	171.69
308.021	91.82
308.235	140.97
308.449	-88.4
308.663	36.52
308.877	212.65
309.091	116.39
309.305	40.62
309.519	-72.02
309.733	97.96
309.947	-20.82
310.161	110.25
310.374	81.58
310.588	87.72
310.802	-115.03
311.016	57
311.23	32.43
311.444	-14.68
311.658	26.28
311.872	130.73
312.085	130.73
312.299	122.54
312.513	147.11
312.727	38.57
312.941	18.09
313.154	40.62
313.368	26.28
313.582	16.04
313.796	32.43
314.009	30.38
314.223	106.15
314.437	102.06
314.651	83.63
314.864	-4.44
315.078	-22.87
315.292	36.52
315.505	59.05
315.719	87.72
315.933	-0.34
316.146	-24.92
316.36	13.99
316.573	73.39
316.787	93.87
317.001	36.52
317.214	-18.77
317.428	104.11
317.641	-8.53
317.855	-20.82
318.068	40.62
318.282	71.34
318.495	163.5
318.709	52.91
318.922	71.34
319.136	175.78
319.349	165.54
319.563	-10.58
319.776	61.1
319.99	-90.45
320.203	69.29
320.417	-10.58
320.63	59.05
320.843	183.98
321.057	-22.87
321.27	26.28
321.483	5.8
321.697	61.1
321.91	7.85
322.124	-22.87
322.337	128.68
322.55	-2.39
322.763	77.48
322.977	22.19
323.19	40.62
323.403	38.57
323.617	7.85
323.83	134.82
324.043	85.67
324.256	42.67
324.469	-0.34
324.683	140.97
324.896	87.72
325.109	-59.73
325.322	-31.06
325.535	147.11
325.748	165.54
325.962	-61.78
326.175	59.05
326.388	69.29
326.601	69.29
326.814	11.95
327.027	65.19
327.24	61.1
327.453	-0.34
327.666	100.01
327.879	151.21
328.092	85.67
328.305	79.53
328.518	30.38
328.731	65.19
328.944	22.19
329.157	120.49
329.37	-12.63
329.583	214.7
329.796	71.34
330.009	-104.79
330.222	48.81
330.435	116.39
330.648	44.71
330.861	71.34
331.073	110.25
331.286	124.58
331.499	22.19
331.712	50.86
331.925	38.57
332.138	-10.58
332.35	-24.92
332.563	-37.2
332.776	140.97
332.989	-92.5
333.202	28.33
333.414	-22.87
333.627	52.91
333.84	32.43
334.053	52.91
334.265	79.53
334.478	30.38
334.691	93.87
334.903	87.72
335.116	-43.35
335.329	73.39
335.541	100.01
335.754	161.45
335.966	-2.39
336.179	67.24
336.392	-0.34
336.604	-2.39
336.817	155.3
337.029	102.06
337.242	63.15
337.454	61.1
337.667	-0.34
337.88	42.67
338.092	81.58
338.305	63.15
338.517	1.71
338.729	130.73
338.942	108.2
339.154	-29.01
339.367	-22.87
339.579	20.14
339.792	16.04
340.004	52.91
340.217	114.34
340.429	61.1
340.641	-86.36
340.854	77.48
341.066	26.28
341.278	61.1
341.491	157.35
341.703	83.63
341.915	-18.77
342.128	79.53
342.34	85.67
342.552	5.8
342.764	102.06
342.977	48.81
343.189	3.75
343.401	71.34
343.613	-51.54
343.826	-14.68
344.038	-26.96
344.25	3.75
344.462	30.38
344.674	93.87
344.886	-92.5
345.099	77.48
345.311	65.19
345.523	16.04
345.735	-125.27
345.947	57
346.159	48.81
346.371	50.86
346.583	73.39
346.795	161.45
347.007	-4.44
347.219	63.15
347.431	24.23
347.643	126.63
347.855	-47.44
348.067	216.74
348.279	-65.88
348.491	20.14
348.703	42.67
348.915	-24.92
349.127	-22.87
349.339	97.96
349.551	16.04
349.763	110.25
349.975	1.71
350.187	149.16
350.399	81.58
350.61	18.09
350.822	1.71
351.034	104.11
351.246	100.01
351.458	3.75
351.669	155.3
351.881	112.3
352.093	85.67
352.305	155.3
352.517	38.57
352.728	140.97
352.94	79.53
353.152	67.24
353.363	-67.92
353.575	116.39
353.787	159.4
353.999	87.72
354.21	157.35
354.422	-51.54
354.633	-16.73
354.845	69.29
355.057	24.23
355.268	112.3
355.48	61.1
355.692	-31.06
355.903	69.29
356.115	-74.07
356.326	-80.21
356.538	132.78
356.749	102.06
356.961	143.02
357.172	46.76
357.384	-26.96
357.595	204.46
357.807	52.91
358.018	-4.44
358.23	104.11
358.441	183.98
358.653	100.01
358.864	50.86
359.075	9.9
359.287	69.29
359.498	65.19
359.709	36.52
359.921	28.33
360.132	46.76
360.344	13.99
360.555	7.85
360.766	28.33
360.977	42.67
361.189	161.45
361.4	138.92
361.611	116.39
361.823	126.63
362.034	81.58
362.245	-14.68
362.456	46.76
362.667	46.76
362.879	-4.44
363.09	151.21
363.301	38.57
363.512	104.11
363.723	50.86
363.935	-37.2
364.146	140.97
364.357	20.14
364.568	-49.49
364.779	-37.2
364.99	120.49
365.201	9.9
365.412	200.36
365.623	-125.27
365.834	-12.63
366.045	22.19
366.256	89.77
366.467	67.24
366.678	-26.96
366.889	32.43
367.1	-41.3
367.311	122.54
367.522	61.1
367.733	63.15
367.944	50.86
368.155	22.19
368.366	5.8
368.577	71.34
368.788	202.41
368.999	3.75
369.209	9.9
369.42	192.17
369.631	259.75
369.842	73.39
370.053	32.43
370.264	118.44
370.474	-2.39
370.685	95.91
370.896	69.29
371.107	196.26
371.317	54.95
371.528	36.52
371.739	114.34
371.95	75.43
372.16	77.48
372.371	13.99
372.582	50.86
372.792	79.53
373.003	151.21
373.214	52.91
373.424	132.78
373.635	-47.44
373.846	159.4
374.056	100.01
374.267	54.95
374.477	110.25
374.688	-2.39
374.898	46.76
375.109	130.73
375.319	-12.63
375.53	157.35
375.74	89.77
375.951	28.33
376.161	116.39
376.372	206.5
376.582	22.19
376.793	106.15
377.003	-18.77
377.214	-2.39
377.424	75.43
377.635	63.15
377.845	-45.4
378.055	126.63
378.266	30.38
378.476	36.52
378.686	28.33
378.897	22.19
379.107	130.73
379.317	5.8
379.528	11.95
379.738	67.24
379.948	18.09
380.158	50.86
380.369	52.91
380.579	143.02
380.789	77.48
380.999	73.39
381.21	77.48
381.42	192.17
381.63	65.19
381.84	59.05
382.05	-16.73
382.261	87.72
382.471	118.44
382.681	7.85
382.891	220.84
383.101	1.71
383.311	-22.87
383.521	-4.44
383.731	93.87
383.941	143.02
384.151	28.33
384.361	59.05
384.571	46.76
384.781	151.21
384.991	192.17
385.201	132.78
385.411	108.2
385.621	91.82
385.831	52.91
386.041	81.58
386.251	61.1
386.461	118.44
386.671	-12.63
386.881	52.91
387.091	22.19
387.301	128.68
387.511	83.63
387.72	140.97
387.93	7.85
388.14	40.62
388.35	5.8
388.56	116.39
388.769	143.02
388.979	3.75
389.189	36.52
389.399	67.24
389.609	183.98
389.818	57
390.028	67.24
390.238	106.15
390.447	-14.68
390.657	3.75
390.867	50.86
391.076	-14.68
391.286	38.57
391.496	38.57
391.705	44.71
391.915	177.83
392.125	63.15
392.334	9.9
392.544	71.34
392.753	85.67
392.963	-18.77
393.172	118.44
393.382	75.43
393.591	276.13
393.801	50.86
394.01	196.26
394.22	24.23
394.429	-29.01
394.639	-0.34
394.848	87.72
395.058	87.72
395.267	102.06
395.477	89.77
395.686	95.91
395.895	235.18
396.105	161.45
396.314	26.28
396.524	67.24
396.733	34.47
396.942	48.81
397.152	16.04
397.361	181.93
397.57	122.54
397.78	38.57
397.989	97.96
398.198	259.75
398.407	36.52
398.617	73.39
398.826	65.19
399.035	40.62
399.244	114.34
399.453	44.71
399.663	87.72
399.872	9.9
400.081	13.99
400.29	161.45
400.499	5.8
400.708	73.39
400.917	-45.4
401.127	7.85
401.336	30.38
401.545	186.02
401.754	140.97
401.963	34.47
402.172	-37.2
402.381	-69.97
402.59	124.58
402.799	-6.49
403.008	167.59
403.217	106.15
403.426	61.1
403.635	-2.39
403.844	16.04
404.053	67.24
404.262	-24.92
404.471	194.22
404.68	83.63
404.888	44.71
405.097	-14.68
405.306	36.52
405.515	140.97
405.724	-6.49
405.933	87.72
406.142	9.9
406.35	91.82
406.559	198.31
406.768	24.23
406.977	165.54
407.185	83.63
407.394	48.81
407.603	42.67
407.812	75.43
408.02	145.06
408.229	71.34
408.438	9.9
408.646	-37.2
408.855	61.1
409.064	83.63
409.272	-41.3
409.481	112.3
409.69	-12.63
409.898	-31.06
410.107	34.47
410.315	147.11
410.524	-33.11
410.733	93.87
410.941	143.02
411.15	151.21
411.358	97.96
411.567	104.11
411.775	1.71
411.984	79.53
412.192	42.67
412.401	40.62
412.609	126.63
412.818	171.69
413.026	73.39
413.234	28.33
413.443	126.63
413.651	-2.39
413.86	81.58
414.068	196.26
414.276	108.2
414.485	40.62
414.693	210.6
414.901	165.54
415.11	73.39
415.318	89.77
415.526	32.43
415.734	85.67
415.943	83.63
416.151	102.06
416.359	81.58
416.567	93.87
416.776	50.86
416.984	97.96
417.192	159.4
417.4	5.8
417.608	-59.73
417.817	20.14
418.025	81.58
418.233	134.82
418.441	-26.96
418.649	36.52
418.857	65.19
419.065	124.58
419.273	73.39
419.481	22.19
419.689	-8.53
419.897	50.86
420.105	-74.07
420.313	79.53
420.521	204.46
420.729	128.68
420.937	-26.96
421.145	-22.87
421.353	110.25
421.561	181.93
421.769	93.87
421.977	34.47
422.185	181.93
422.393	-0.34
422.601	132.78
422.809	63.15
423.017	110.25
423.224	128.68
423.432	147.11
423.64	69.29
423.848	163.5
424.056	-10.58
424.263	122.54
424.471	93.87
424.679	100.01
424.887	-20.82
425.094	120.49
425.302	79.53
425.51	83.63
425.718	116.39
425.925	122.54
426.133	44.71
426.341	157.35
426.548	75.43
426.756	69.29
426.964	75.43
427.171	38.57
427.379	173.74
427.586	9.9
427.794	194.22
428.001	202.41
428.209	108.2
428.417	192.17
428.624	212.65
428.832	163.5
429.039	145.06
429.247	42.67
429.454	153.26
429.662	204.46
429.869	165.54
430.076	87.72
430.284	165.54
430.491	222.89
430.699	165.54
430.906	206.5
431.114	153.26
431.321	106.15
431.528	130.73
431.736	261.8
431.943	231.08
432.15	171.69
432.358	192.17
432.565	204.46
432.772	18.09
432.979	284.33
433.187	210.6
433.394	231.08
433.601	130.73
433.808	143.02
434.016	235.18
434.223	267.94
434.43	177.83
434.637	325.29
434.844	360.1
435.052	315.05
435.259	241.32
435.466	345.77
435.673	251.56
435.88	356.01
436.087	405.16
436.294	296.61
436.501	407.2
436.708	239.27
436.915	374.44
437.122	372.39
437.329	212.65
437.537	296.61
437.743	415.4
437.95	571.04
438.157	372.39
438.364	427.68
438.571	491.17
438.778	480.93
438.985	538.27
439.192	532.13
439.399	439.97
439.606	612
439.813	605.86
440.02	607.91
440.227	650.91
440.433	624.29
440.64	589.47
440.847	618.15
441.054	689.82
441.261	738.98
441.467	671.39
441.674	704.16
441.881	816.8
442.088	667.3
442.294	874.14
442.501	933.53
442.708	906.91
442.914	896.67
443.121	896.67
443.328	1031.83
443.534	1062.55
443.741	994.97
443.948	1080.99
444.154	1115.8
444.361	1224.34
444.568	1183.38
444.774	1138.33
444.981	1167
445.187	1447.57
445.394	1392.28
445.6	1304.21
445.807	1509.01
446.013	1400.47
446.22	1517.2
446.426	1711.76
446.633	1779.34
446.839	1912.46
447.046	1541.78
447.252	1982.09
447.459	1947.28
447.665	1822.35
447.871	2129.55
448.078	2252.42
448.284	2162.31
448.491	2412.17
448.697	2367.11
448.903	2533
449.11	2565.76
449.316	2500.23
449.522	2690.69
449.728	2952.83
449.935	2993.79
450.141	2889.34
450.347	3174.01
450.553	3077.76
450.76	3253.88
450.966	3438.2
451.172	3542.64
451.378	3620.47
451.584	3796.59
451.791	3950.19
451.997	3958.38
452.203	4238.95
452.409	4318.82
452.615	4607.59
452.821	4357.74
453.027	4505.19
453.233	5224.03
453.44	4830.82
453.646	4970.08
453.852	5377.62
454.058	5590.61
454.264	5725.78
454.47	6067.79
454.676	5979.73
454.882	6549.06
455.088	6377.03
455.294	6735.43
455.5	6954.56
455.705	7614.01
455.911	7513.66
456.117	7775.8
456.323	8156.72
456.529	8029.74
456.735	8584.74
456.941	9117.22
457.147	9477.66
457.352	9561.62
457.558	9897.49
457.764	10483.21
457.97	10935.81
458.176	11163.14
458.381	11818.49
458.587	11886.07
458.793	12518.89
458.999	12529.13
459.204	14237.14
459.41	14593.48
459.616	14446.03
459.821	15373.76
460.027	15879.61
460.233	16676.27
460.438	16764.33
460.644	17620.38
460.85	17802.65
461.055	18482.58
461.261	19430.79
461.466	18984.33
461.672	19383.68
461.878	21648.74
462.083	21214.57
462.289	22021.47
462.494	22744.4
462.7	23104.84
462.905	23041.36
463.111	25343.27
463.316	26078.49
463.522	26535.19
463.727	27630.85
463.932	28605.69
464.138	29418.73
464.343	30821.59
464.549	30889.17
464.754	33127.6
464.959	34143.39
465.165	34591.9
465.37	34233.5
465.575	34442.4
465.781	36351.1
465.986	37719.15
466.191	36998.26
466.397	37424.24
466.602	36404.35
466.807	38591.58
467.012	39537.74
467.218	39933
467.423	39808.08
467.628	41376.82
467.833	43693.07
468.038	42167.34
468.244	41800.75
468.449	44035.08
468.654	43023.39
468.859	43062.3
469.064	43041.82
469.269	42177.58
469.474	42445.86
469.679	43705.36
469.885	42142.76
470.09	42882.08
470.295	43011.1
470.5	42109.99
470.705	42277.93
470.91	41129.02
471.115	40508.48
471.32	41686.06
471.525	40932.41
471.73	40229.96
471.935	39496.78
472.139	38190.18
472.344	38102.12
472.549	38270.05
472.754	37760.11
472.959	36805.75
473.164	35361.94
473.369	34884.76
473.574	35898.5
473.778	34866.33
473.983	34270.37
474.188	33942.69
474.393	32224.45
474.598	32193.73
474.802	31845.57
475.007	31266
475.212	30647.51
475.417	29304.04
475.621	29332.72
475.826	28847.35
476.031	28380.41
476.235	27880.71
476.44	27716.87
476.645	26981.65
476.849	26754.32
477.054	26152.22
477.259	25697.57
477.463	25716
477.668	25048.36
477.872	25226.54
478.077	24147.26
478.282	23545.16
478.486	23098.7
478.691	23278.92
478.895	22836.56
479.1	22555.99
479.304	22705.49
479.509	21699.94
479.713	22201.69
479.918	21542.24
480.122	21386.6
480.326	21624.16
480.531	21452.13
480.735	20987.24
480.94	20364.66
481.144	21523.81
481.348	20237.69
481.553	20583.79
481.757	19635.58
481.961	20161.91
482.166	20198.77
482.37	19709.31
482.574	19481.99
482.778	19182.98
482.983	19789.18
483.187	19185.03
483.391	19225.99
483.595	18824.59
483.8	18443.67
484.004	18861.45
484.208	18496.91
484.412	18181.53
484.616	18249.11
484.821	17907.1
485.025	17556.89
485.229	17558.94
485.433	17386.91
485.637	17253.8
485.841	16862.63
486.045	16711.08
486.249	16377.26
486.453	16090.55
486.657	16156.08
486.861	15850.94
487.065	15175.11
487.269	15322.56
487.473	15037.89
487.677	14904.78
487.881	14929.35
488.085	14417.36
488.289	14298.58
488.493	13620.7
488.697	13700.57
488.901	13497.82
489.105	13008.36
489.309	13106.66
489.512	12797.42
489.716	12686.83
489.92	12475.88
490.124	12068.34
490.328	12133.87
490.531	11501.05
490.735	11613.69
490.939	11376.13
491.143	11056.64
491.346	10759.69
491.55	10802.69
491.754	10544.65
491.958	10511.88
492.161	10241.55
492.365	10042.9
492.569	9905.68
492.772	9643.54
492.976	9668.12
493.18	9420.31
493.383	9410.08
493.587	9442.84
493.79	9383.45
493.994	8889.89
494.197	8965.67
494.401	9145.89
494.605	8953.38
494.808	8721.96
495.012	8758.82
495.215	8711.72
495.419	8744.49
495.622	8285.74
495.825	8244.78
496.029	8433.19
496.232	8404.52
496.436	8226.35
496.639	8578.6
496.843	8244.78
497.046	8422.95
497.249	8439.34
497.453	8332.84
497.656	8242.73
497.859	8355.37
498.063	8486.44
498.266	8244.78
498.469	8201.77
498.673	8269.36
498.876	8474.15
499.079	8551.98
499.282	8283.69
499.485	8717.86
499.689	8580.65
499.892	8635.94
500.095	8476.2
500.298	8906.27
500.501	8619.56
500.705	8875.56
500.908	8816.16
501.111	8943.14
501.314	9158.17
501.517	9178.65
501.72	9285.15
501.923	9109.02
502.126	9473.56
502.329	9690.65
502.532	9645.59
502.735	9702.93
502.938	9803.29
503.141	9913.88
503.344	9989.65
503.547	10284.56
503.75	10268.17
503.953	10466.83
504.156	10645
504.359	10579.47
504.562	10794.5
504.765	11230.72
504.968	11146.75
505.17	11355.65
505.373	11587.07
505.576	11711.99
505.779	11679.22
505.982	12041.71
506.185	12203.5
506.387	12367.34
506.59	12629.48
506.793	12865
506.996	13057.51
507.198	13518.3
507.401	13604.32
507.604	13727.19
507.807	14116.31
508.009	14448.08
508.212	14509.52
508.415	14777.8
508.617	15183.3
508.82	15390.14
509.022	15467.97
509.225	16266.67
509.428	16463.28
509.63	16537.01
509.833	16899.5
510.035	17696.16
510.238	17778.08
510.44	18150.81
510.643	18417.04
510.845	19191.17
511.048	19238.28
511.25	19807.61
511.453	20116.86
511.655	21171.56
511.858	21155.18
512.06	21628.26
512.262	21951.84
512.465	22148.44
512.667	22949.2
512.87	23354.69
513.072	23784.77
513.274	24710.45
513.477	24919.34
513.679	25599.27
513.881	26154.27
514.084	27030.8
514.286	26998.03
514.488	27634.95
514.69	28904.69
514.893	29195.5
515.095	29418.73
515.297	30379.23
515.499	30815.44
515.701	31784.13
515.904	32283.84
516.106	33227.95
516.308	33543.34
516.51	34380.96
516.712	34655.39
516.914	35060.88
517.116	35662.99
517.318	36752.51
517.52	37284.98
517.722	37481.58
517.925	38927.45
518.127	39613.52
518.329	40012.87
518.531	40307.78
518.733	41163.83
518.935	41706.54
519.136	42425.38
519.338	43144.22
519.54	43600.91
519.742	44524.55
519.944	44694.53
520.146	46003.18
520.348	46494.69
520.55	46795.74
520.752	47098.84
520.954	48423.88
521.155	47979.47
521.357	49101.76
521.559	49920.94
521.761	50670.5
521.963	50502.57
522.164	50994.08
522.366	51305.37
522.568	51981.2
522.77	52462.47
522.971	53463.93
523.173	52560.78
523.375	53513.08
523.576	53457.79
523.778	53369.72
523.98	53975.92
524.181	54233.97
524.383	54143.86
524.584	54778.73
524.786	54500.2
524.988	54444.91
525.189	55085.92
525.391	54885.22
525.592	55712.6
525.794	55216.99
525.995	55157.6
526.197	54823.78
526.398	55069.54
526.6	55196.51
526.801	55014.24
527.003	54446.96
527.204	54483.82
527.406	54928.23
527.607	54453.1
527.808	54104.95
528.01	52816.77
528.211	53189.5
528.412	53898.1
528.614	53209.98
528.815	52327.31
529.016	52538.25
529.218	51497.88
529.419	51182.49
529.62	50703.27
529.822	50205.61
530.023	50146.22
530.224	49660.85
530.425	48841.67
530.626	48417.74
530.828	48171.98
531.029	48573.38
531.23	46894.05
531.431	46498.79
531.632	46351.34
531.833	45745.14
532.035	45190.14
532.236	44833.79
532.437	44323.85
532.638	43254.81
532.839	43211.8
533.04	43127.83
533.241	41178.17
533.442	41960.49
533.643	41169.97
533.844	40393.79
534.045	40057.93
534.246	39228.5
534.447	39042.13
534.648	38272.1
534.849	37905.51
535.05	37184.63
535.251	36734.07
535.451	36424.83
535.652	35873.93
535.853	35546.25
536.054	35257.49
536.255	34729.11
536.456	33680.55
536.657	33901.73
536.857	33199.28
537.058	32566.46
537.259	32224.45
537.46	31962.31
537.66	31212.75
537.861	30977.23
538.062	30586.07
538.263	30102.75
538.463	29568.23
538.664	29256.94
538.865	29009.14
539.065	28839.15
539.266	28415.23
539.466	28153.09
539.667	27417.86
539.868	27925.76
540.068	26909.97
540.269	26668.31
540.469	26504.47
540.67	25984.29
540.87	25869.6
541.071	25576.74
541.271	25627.94
541.472	25027.88
541.672	24769.84
541.873	24444.21
542.073	23715.14
542.274	24251.7
542.474	23606.59
542.675	23356.74
542.875	23110.99
543.075	22627.67
543.276	22113.63
543.476	22725.97
543.676	22236.5
543.877	21837.15
544.077	21572.96
544.277	21392.74
544.478	20923.76
544.678	20960.62
544.878	20497.78
545.078	20379
545.279	19971.45
545.479	19830.14
545.679	19561.86
545.879	19252.61
546.079	19074.44
546.28	19049.86
546.48	18591.12
546.68	18779.53
546.88	18359.7
547.08	18288.02
547.28	18091.41
547.48	17452.45
547.68	17466.78
547.88	17255.84
548.081	17094.05
548.281	16936.36
548.481	16385.46
548.681	16346.55
548.881	16395.7
549.081	16047.54
549.28	15863.22
549.48	15699.39
549.68	15531.45
549.88	15195.59
550.08	14998.98
550.28	14636.49
550.48	14458.32
550.68	14566.86
550.88	14089.68
551.08	13882.84
551.279	13815.26
551.479	13372.89
551.679	13524.44
551.879	13094.37
552.079	13207.01
552.278	12627.43
552.478	12758.5
552.678	12627.43
552.878	12410.35
553.077	12144.11
553.277	11818.49
553.477	12002.8
553.676	11611.64
553.876	11347.45
554.076	11185.66
554.275	11105.79
554.475	10778.12
554.674	10702.34
554.874	10507.79
555.074	10139.15
555.273	10087.95
555.473	10186.26
555.672	9737.75
555.872	9573.91
556.071	9463.32
556.271	9494.04
556.47	8996.39
556.67	9020.96
556.869	8902.18
557.068	8828.45
557.268	8521.26
557.467	8490.54
557.667	8470.06
557.866	8435.24
558.065	8111.66
558.265	7945.78
558.464	7732.79
558.663	7857.71
558.863	7640.63
559.062	7321.15
559.261	7165.5
559.461	7194.17
559.66	6999.62
559.859	6796.87
560.058	6704.71
560.258	6620.74
560.457	6678.08
560.656	6729.28
560.855	6401.61
561.054	6481.48
561.253	6409.8
561.453	6248.01
561.652	6100.56
561.851	6219.34
562.05	5967.44
562.249	5725.78
562.448	5961.3
562.647	5658.2
562.846	5494.36
563.045	5551.7
563.244	5271.13
563.443	5447.26
563.642	5070.43
563.841	5226.07
564.04	5031.52
564.239	5006.94
564.438	4748.9
564.637	4675.17
564.836	4722.27
565.035	4638.31
565.234	4441.7
565.432	4619.88
565.631	4615.78
565.83	4490.85
566.029	4468.33
566.228	4449.89
566.427	4351.59
566.625	3982.96
566.824	4159.08
567.023	4214.38
567.222	3968.62
567.42	4015.73
567.619	3835.5
567.818	3853.94
568.016	4105.84
568.215	3735.15
568.414	3645.04
568.612	3475.06
568.811	3694.19
569.01	3556.98
569.208	3489.4
569.407	3380.86
569.605	3485.3
569.804	3317.37
570.002	3272.31
570.201	3225.21
570.4	3214.97
570.598	3010.17
570.797	3174.01
570.995	3004.03
571.193	2997.88
571.392	2913.92
571.59	2838.14
571.789	3044.99
571.987	2723.46
572.186	2948.73
572.384	2801.28
572.582	2698.88
572.781	2725.51
572.979	2539.14
573.177	2584.2
573.376	2645.63
573.574	2578.05
573.772	2420.36
573.971	2438.79
574.169	2358.92
574.367	2401.93
574.565	2379.4
574.763	2274.95
574.962	2281.1
575.16	2172.55
575.358	2190.99
575.556	2123.4
575.754	2188.94
575.952	2117.26
576.151	2064.01
576.349	2098.83
576.547	1957.52
576.745	2004.62
576.943	1894.03
577.141	1846.93
577.339	1728.14
577.537	1842.83
577.735	1832.59
577.933	1779.34
578.131	1750.67
578.329	1871.5
578.527	1699.47
578.725	1777.3
578.923	1582.74
579.121	1724.05
579.319	1509.01
579.516	1496.72
579.714	1703.57
579.912	1484.44
580.11	1398.42
580.308	1429.14
580.506	1447.57
580.704	1287.83
580.901	1369.75
581.099	1406.61
581.297	1408.66
581.495	1384.09
581.692	1320.6
581.89	1351.32
582.088	1234.58
582.285	1210.01
582.483	1265.3
582.681	1177.24
582.878	1097.37
583.076	1199.77
583.274	1234.58
583.471	1429.14
583.669	1207.96
583.866	1009.31
584.064	1091.23
584.262	997.02
584.459	1040.03
584.657	1089.18
584.854	1058.46
585.052	988.83
585.249	1103.51
585.447	1007.26
585.644	994.97
585.841	976.54
586.039	1001.12
586.236	1048.22
586.434	882.33
586.631	894.62
586.828	874.14
587.026	839.33
587.223	806.56
587.42	872.09
587.618	882.33
587.815	1054.36
588.012	849.57
588.21	853.66
588.407	868
588.604	833.18
588.801	693.92
588.999	812.7
589.196	872.09
589.393	722.59
589.59	773.79
589.787	843.42
589.984	874.14
590.182	747.17
590.379	761.5
590.576	755.36
590.773	771.74
590.97	716.45
591.167	853.66
591.364	714.4
591.561	698.02
591.758	886.43
591.955	794.27
592.152	726.69
592.349	630.43
592.546	663.2
592.743	720.54
592.94	749.22
593.137	710.3
593.334	747.17
593.531	765.6
593.727	726.69
593.924	685.73
594.121	741.02
594.318	687.78
594.515	710.3
594.712	804.51
594.908	788.13
595.105	710.3
595.302	843.42
595.499	827.04
595.696	972.44
595.892	812.7
596.089	831.13
596.286	827.04
596.482	974.49
596.679	921.24
596.876	980.64
597.072	956.06
597.269	1003.16
597.466	917.15
597.662	1029.79
597.859	1085.08
598.055	1064.6
598.252	1181.34
598.448	1205.91
598.645	1228.44
598.841	1296.02
599.038	1248.92
599.234	1406.61
599.431	1310.36
599.627	1359.51
599.824	1435.28
600.02	1425.04
600.217	1492.63
600.413	1699.47
600.609	1660.56
600.806	1887.89
601.002	1785.49
601.198	1765.01
601.395	1941.13
601.591	1955.47
601.787	2053.77
601.984	2143.88
602.18	2360.97
602.376	2260.62
602.572	2385.54
602.769	2528.9
602.965	2461.32
603.161	2659.97
603.357	2651.78
603.553	2885.25
603.75	2864.77
603.946	2901.63
604.142	3112.57
604.338	3346.04
604.534	3335.8
604.73	3382.9
604.926	3530.36
605.122	3812.98
605.318	3788.4
605.514	3882.61
605.71	3858.03
605.906	4261.48
606.102	4251.24
606.298	4413.03
606.494	4527.72
606.69	4779.62
606.886	4791.91
607.082	4900.45
607.278	5103.2
607.474	5310.04
607.67	5367.38
607.866	5078.62
608.062	5822.03
608.257	5635.67
608.453	5871.19
608.649	6159.95
608.845	6227.53
609.041	6348.36
609.236	6616.65
609.432	6850.11
609.628	7024.19
609.824	7177.79
610.019	7319.1
610.215	7501.37
610.411	7902.77
610.606	7847.47
610.802	7994.93
610.998	8306.22
611.193	8541.74
611.389	8654.37
611.584	9113.12
611.78	9350.68
611.976	9274.91
612.171	9909.78
612.367	9799.19
612.562	10262.03
612.758	10585.61
612.953	10622.47
613.149	10874.37
613.344	11236.86
613.539	11906.55
613.735	11980.28
613.93	12297.71
614.126	12471.79
614.321	13262.3
614.517	13479.39
614.712	13671.9
614.907	13655.51
615.103	14374.35
615.298	14599.63
615.493	15252.93
615.688	15209.92
615.884	16317.87
616.079	15857.08
616.274	16518.57
616.47	16842.15
616.665	17218.98
616.86	17859.99
617.055	18390.42
617.25	18736.52
617.445	19545.47
617.641	19697.02
617.836	20280.69
618.031	20460.91
618.226	21599.59
618.421	21517.67
618.616	22400.34
618.811	22437.2
619.006	23201.1
619.201	23350.6
619.396	24263.99
619.591	24278.33
619.786	25408.81
619.981	25541.92
620.176	26383.64
620.371	26594.58
620.566	27307.27
620.761	28003.58
620.956	28689.65
621.151	28695.8
621.346	29646.05
621.541	30008.54
621.735	30842.07
621.93	30772.44
622.125	31702.21
622.32	32025.79
622.515	32971.96
622.709	33416.36
622.904	33897.64
623.099	34636.95
623.294	35280.02
623.488	35347.6
623.683	36293.76
623.878	36275.33
624.072	37776.49
624.267	38300.77
624.462	38550.62
624.656	38992.98
624.851	39767.12
625.046	40438.85
625.24	40700.99
625.435	41296.95
625.629	41948.2
625.824	42644.51
626.018	42992.67
626.213	42687.52
626.407	43756.56
626.602	43850.77
626.796	45011.96
626.991	45208.57
627.185	45556.72
627.38	45724.66
627.574	45755.38
627.768	46062.57
627.963	46384.1
628.157	46306.28
628.352	46851.04
628.546	46353.38
628.74	47045.6
628.935	46093.29
629.129	46588.9
629.323	46087.15
629.517	46138.35
629.712	45603.83
629.906	45667.31
630.1	44950.52
630.294	44653.57
630.489	44168.2
630.683	43738.13
630.877	42513.44
631.071	41942.06
631.265	41270.32
631.459	41411.63
631.653	39939.15
631.848	39210.07
632.042	38141.03
632.236	37325.94
632.43	36361.34
632.624	35740.81
632.818	34499.74
633.012	33191.09
633.206	32238.78
633.4	31243.47
633.594	29873.38
633.788	29375.72
633.982	28577.01
634.176	27452.68
634.369	26205.47
634.563	25302.31
634.757	24137.02
634.951	23381.32
635.145	22680.91
635.339	21624.16
635.533	20577.65
635.726	20032.89
635.92	18828.68
636.114	18218.39
636.308	17661.34
636.501	17169.83
636.695	16440.75
636.889	15467.97
637.083	14863.82
637.276	14214.61
637.47	13612.51
637.664	13104.61
637.857	12479.98
638.051	12084.72
638.244	11580.92
638.438	10907.14
638.632	10884.61
638.825	10300.94
639.019	10102.29
639.212	9365.02
639.406	9248.29
639.599	8754.73
639.793	8443.43
639.986	7874.1
640.18	7951.92
640.373	7415.35
640.567	7251.52
640.76	6956.61
640.954	6594.12
641.147	6278.73
641.34	6172.24
641.534	6049.36
641.727	5901.9
641.92	5590.61
642.114	5371.48
642.307	5039.71
642.5	4902.5
642.694	4744.8
642.887	4390.5
643.08	4494.95
643.273	4230.76
643.467	3923.57
643.66	3976.81
643.853	3643
644.046	3675.76
644.239	3520.12
644.432	3174.01
644.626	3094.14
644.819	3061.37
645.012	2973.31
645.205	2928.25
645.398	2924.16
645.591	2569.86
645.784	2504.32
645.977	2432.65
646.17	2449.03
646.363	2221.7
646.556	2170.51
646.749	2053.77
646.942	2004.62
647.135	1990.28
647.328	1762.96
647.521	1930.89
647.714	1666.71
647.907	1638.03
648.099	1607.31
648.292	1711.76
648.485	1504.92
648.678	1423
648.871	1382.04
649.064	1330.84
649.256	1140.38
649.449	1244.82
649.642	1103.51
649.835	1246.87
650.027	970.4
650.22	1099.42
650.413	1099.42
650.605	937.63
650.798	929.44
650.991	1013.4
651.183	935.58
651.376	908.96
651.568	804.51
651.761	794.27
651.954	865.95
652.146	775.84
652.339	888.48
652.531	769.69
652.724	632.48
652.916	597.67
653.109	489.12
653.301	700.06
653.494	659.1
653.686	663.2
653.879	693.92
654.071	601.76
654.263	558.75
654.456	530.08
654.648	626.34
654.84	622.24
655.033	476.84
655.225	620.19
655.417	306.85
655.61	501.41
655.802	552.61
655.994	595.62
656.186	413.35
656.379	450.21
656.571	415.4
656.763	347.81
656.955	329.38
657.148	384.68
657.34	521.89
657.532	394.92
657.724	358.05
657.916	308.9
658.108	423.59
658.3	329.38
658.492	333.48
658.684	319.14
658.876	327.33
659.068	263.85
659.26	173.74
659.452	247.46
659.644	294.57
659.836	491.17
660.028	347.81
660.22	237.22
660.412	263.85
660.604	267.94
660.796	241.32
660.988	382.63
661.18	255.65
661.372	304.81
661.563	231.08
661.755	300.71
661.947	214.7
662.139	204.46
662.331	241.32
662.522	251.56
662.714	204.46
662.906	165.54
663.097	267.94
663.289	226.98
663.481	114.34
663.673	186.02
663.864	222.89
664.056	280.23
664.247	157.35
664.439	360.1
664.631	249.51
664.822	351.91
665.014	239.27
665.205	132.78
665.397	151.21
665.588	204.46
665.78	198.31
665.971	192.17
666.163	233.13
666.354	220.84
666.546	83.63
666.737	110.25
666.929	130.73
667.12	249.51
667.311	253.61
667.503	132.78
667.694	188.07
667.885	192.17
668.077	241.32
668.268	65.19
668.459	153.26
668.651	200.36
668.842	208.55
669.033	59.05
669.224	89.77
669.416	286.37
669.607	130.73
669.798	97.96
669.989	229.03
670.18	282.28
670.371	151.21
670.563	132.78
670.754	192.17
670.945	360.1
671.136	175.78
671.327	75.43
671.518	247.46
671.709	343.72
671.9	372.39
672.091	290.47
672.282	218.79
672.473	239.27
672.664	130.73
672.855	218.79
673.046	257.7
673.237	249.51
673.428	198.31
673.619	226.98
673.809	165.54
674	294.57
674.191	245.41
674.382	188.07
674.573	214.7
674.764	272.04
674.954	296.61
675.145	159.4
675.336	136.87
675.527	263.85
675.717	237.22
675.908	288.42
676.099	136.87
676.289	337.57
676.48	192.17
676.671	210.6
676.861	202.41
677.052	306.85
677.243	253.61
677.433	235.18
677.624	372.39
677.814	175.78
678.005	218.79
678.195	403.11
678.386	233.13
678.576	255.65
678.767	161.45
678.957	286.37
679.148	394.92
679.338	282.28
679.529	405.16
679.719	226.98
679.909	282.28
680.1	329.38
680.29	259.75
680.481	147.11
680.671	343.72
680.861	349.86
681.052	431.78
681.242	210.6
681.432	333.48
681.622	345.77
681.813	329.38
682.003	284.33
682.193	267.94
682.383	388.77
682.573	261.8
682.764	339.62
682.954	296.61
683.144	392.87
683.334	261.8
683.524	298.66
683.714	370.34
683.904	399.01
684.094	315.05
684.284	382.63
684.474	450.21
684.664	429.73
684.854	345.77
685.044	278.18
685.234	267.94
685.424	288.42
685.614	356.01
685.804	452.26
685.994	317.09
686.184	317.09
686.374	388.77
686.564	335.53
686.753	390.82
686.943	272.04
687.133	347.81
687.323	337.57
687.513	464.55
687.702	249.51
687.892	425.64
688.082	427.68
688.272	372.39
688.461	290.47
688.651	476.84
688.841	360.1
689.03	351.91
689.22	296.61
689.41	319.14
689.599	380.58
689.789	280.23
689.979	423.59
690.168	360.1
690.358	372.39
690.547	269.99
690.737	390.82
690.926	333.48
691.116	360.1
691.305	425.64
691.495	388.77
691.684	282.28
691.874	251.56
692.063	325.29
692.252	333.48
692.442	374.44
692.631	247.46
692.82	319.14
693.01	323.24
693.199	392.87
693.388	218.79
693.578	276.13
693.767	353.96
693.956	308.9
694.146	329.38
694.335	304.81
694.524	356.01
694.713	356.01
694.902	265.89
695.092	212.65
695.281	317.09
695.47	327.33
695.659	237.22
695.848	255.65
696.037	255.65
696.226	419.49
696.415	253.61
696.604	341.67
696.793	263.85
696.982	300.71
697.171	421.54
697.36	286.37
697.549	304.81
697.738	91.82
697.927	177.83
698.116	208.55
698.305	329.38
698.494	331.43
698.683	284.33
698.872	433.83
699.061	224.94
699.25	226.98
699.438	319.14
699.627	325.29
699.816	304.81
700.005	218.79
700.193	200.36
700.382	358.05
700.571	351.91
700.76	376.48
700.948	313
701.137	341.67
701.326	401.06
701.514	200.36
701.703	257.7
701.892	317.09
702.08	487.08
702.269	269.99
702.457	235.18
702.646	337.57
702.834	353.96
703.023	302.76
703.212	327.33
703.4	261.8
703.589	204.46
703.777	222.89
703.965	231.08
704.154	239.27
704.342	143.02
704.531	204.46
704.719	274.09
704.907	337.57
705.096	261.8
705.284	212.65
705.472	319.14
705.661	261.8
705.849	374.44
706.037	263.85
706.226	319.14
706.414	274.09
706.602	306.85
706.79	317.09
706.979	202.41
707.167	300.71
707.355	247.46
707.543	282.28
707.731	280.23
707.919	226.98
708.107	222.89
708.296	245.41
708.484	231.08
708.672	394.92
708.86	347.81
709.048	308.9
709.236	253.61
709.424	235.18
709.612	298.66
709.8	159.4
709.988	261.8
710.176	349.86
710.364	347.81
710.551	331.43
710.739	202.41
710.927	210.6
711.115	337.57
711.303	298.66
711.491	386.72
711.679	267.94
711.866	366.25
712.054	251.56
712.242	313
712.43	409.25
712.617	231.08
712.805	327.33
712.993	308.9
713.181	218.79
713.368	353.96
713.556	263.85
713.744	224.94
713.931	493.22
714.119	331.43
714.306	259.75
714.494	308.9
714.682	235.18
714.869	251.56
715.057	292.52
715.244	237.22
715.432	329.38
715.619	349.86
715.807	253.61
715.994	306.85
716.182	321.19
716.369	358.05
716.556	321.19
716.744	231.08
716.931	255.65
717.119	366.25
717.306	259.75
717.493	319.14
717.681	302.76
717.868	263.85
718.055	319.14
718.242	276.13
718.43	317.09
718.617	296.61
718.804	300.71
718.991	319.14
719.179	407.2
719.366	349.86
719.553	329.38
719.74	401.06
719.927	251.56
720.114	370.34
720.301	247.46
720.488	220.84
720.676	261.8
720.863	405.16
721.05	485.03
721.237	319.14
721.424	349.86
721.611	405.16
721.798	247.46
721.985	272.04
722.172	370.34
722.358	257.7
722.545	321.19
722.732	339.62
722.919	403.11
723.106	370.34
723.293	321.19
723.48	292.52
723.667	392.87
723.853	366.25
724.04	382.63
724.227	386.72
724.414	333.48
724.6	405.16
724.787	482.98
724.974	470.69
725.161	349.86
725.347	255.65
725.534	247.46
725.72	313
725.907	386.72
726.094	431.78
726.28	284.33
726.467	376.48
726.653	327.33
726.84	478.88
727.027	394.92
727.213	360.1
727.4	427.68
727.586	388.77
727.773	396.96
727.959	331.43
728.145	380.58
728.332	378.53
728.518	347.81
728.705	405.16
728.891	308.9
729.077	284.33
729.264	196.26
729.45	278.18
729.636	382.63
729.823	343.72
730.009	501.41
730.195	323.24
730.382	392.87
730.568	337.57
730.754	386.72
730.94	337.57
731.126	337.57
731.313	433.83
731.499	388.77
731.685	409.25
731.871	394.92
732.057	390.82
732.243	415.4
732.429	376.48
732.615	442.02
732.801	368.29
732.987	374.44
733.173	382.63
733.359	304.81
733.545	433.83
733.731	294.57
733.917	515.75
734.103	444.07
734.289	399.01
734.475	394.92
734.661	435.88
734.847	386.72
735.033	269.99
735.219	376.48
735.404	321.19
735.59	321.19
735.776	358.05
735.962	333.48
736.148	458.4
736.333	501.41
736.519	321.19
736.705	423.59
736.89	399.01
737.076	421.54
737.262	296.61
737.447	319.14
737.633	339.62
737.819	444.07
738.004	386.72
738.19	356.01
738.375	466.6
738.561	450.21
738.747	380.58
738.932	284.33
739.118	554.66
739.303	347.81
739.489	417.44
739.674	353.96
739.859	339.62
740.045	433.83
740.23	384.68
740.416	278.18
740.601	380.58
740.786	331.43
740.972	274.09
741.157	396.96
741.342	306.85
741.528	403.11
741.713	480.93
741.898	353.96
742.084	435.88
742.269	331.43
742.454	415.4
742.639	382.63
742.824	399.01
743.01	433.83
743.195	495.27
743.38	317.09
743.565	339.62
743.75	386.72
743.935	448.16
744.12	358.05
744.305	347.81
744.49	310.95
744.675	362.15
744.86	331.43
745.045	442.02
745.23	317.09
745.415	288.42
745.6	419.49
745.785	278.18
745.97	468.64
746.155	362.15
746.34	431.78
746.525	329.38
746.71	419.49
746.895	282.28
747.079	290.47
747.264	263.85
747.449	390.82
747.634	392.87
747.819	302.76
748.003	278.18
748.188	272.04
748.373	351.91
748.557	366.25
748.742	278.18
748.927	269.99
749.111	343.72
749.296	308.9
749.481	345.77
749.665	358.05
749.85	220.84
750.034	319.14
750.219	319.14
750.404	280.23
750.588	308.9
750.773	177.83
750.957	290.47
751.141	261.8
751.326	388.77
751.51	241.32
751.695	251.56
751.879	302.76
752.064	313
752.248	241.32
752.432	321.19
752.617	321.19
752.801	286.37
752.985	212.65
753.17	382.63
753.354	294.57
753.538	274.09
753.722	253.61
753.907	192.17
754.091	237.22
754.275	325.29
754.459	210.6
754.643	214.7
754.828	255.65
755.012	190.12
755.196	186.02
755.38	302.76
755.564	222.89
755.748	208.55
755.932	310.95
756.116	267.94
756.3	274.09
756.484	265.89
756.668	288.42
756.852	95.91
757.036	194.22
757.22	339.62
757.404	153.26
757.588	147.11
757.772	263.85
757.956	317.09
758.14	372.39
758.323	149.16
758.507	292.52
758.691	194.22
758.875	206.5
759.059	247.46
759.242	149.16
759.426	210.6
759.61	188.07
759.794	130.73
759.977	267.94
760.161	382.63
760.345	360.1
760.528	241.32
760.712	241.32
760.895	229.03
761.079	177.83
761.263	114.34
761.446	134.82
761.63	218.79
761.813	243.37
761.997	26.28
762.18	173.74
762.364	179.88
762.547	30.38
762.731	128.68
762.914	218.79
763.098	93.87
763.281	173.74
763.464	140.97
763.648	169.64
763.831	233.13
764.015	122.54
764.198	255.65
764.381	206.5
764.564	183.98
764.748	210.6
764.931	134.82
765.114	106.15
765.297	233.13
765.481	77.48
765.664	216.74
765.847	57
766.03	188.07
766.213	112.3
766.397	175.78
766.58	69.29
766.763	175.78
766.946	95.91
767.129	91.82
767.312	104.11
767.495	136.87
767.678	50.86
767.861	145.06
768.044	196.26
768.227	73.39
768.41	143.02
768.593	157.35
768.776	167.59
768.959	71.34
769.142	192.17
769.324	77.48
769.507	116.39
769.69	134.82
769.873	169.64
770.056	231.08
770.239	167.59
770.421	181.93
770.604	179.88
770.787	128.68
770.97	149.16
771.152	97.96
771.335	200.36
771.518	85.67
771.7	249.51
771.883	173.74
772.066	73.39
772.248	106.15
772.431	179.88
772.613	140.97
772.796	118.44
772.978	138.92
773.161	204.46
773.343	130.73
773.526	108.2
773.708	46.76
773.891	-33.11
774.073	81.58
774.256	79.53
774.438	132.78
774.621	118.44
774.803	186.02
774.985	114.34
775.168	116.39
775.35	7.85
775.532	126.63
775.715	73.39
775.897	167.59
776.079	126.63
776.261	171.69
776.444	77.48
776.626	100.01
776.808	83.63
776.99	-4.44
777.173	30.38
777.355	183.98
777.537	110.25
777.719	5.8
777.901	124.58
778.083	18.09
778.265	-29.01
778.447	93.87
778.629	67.24
778.811	48.81
778.993	57
779.175	128.68
779.357	143.02
779.539	-22.87
779.721	120.49
779.903	63.15
780.085	69.29
780.267	79.53
780.449	36.52
780.631	104.11
780.812	122.54
780.994	77.48
781.176	34.47
781.358	48.81
781.54	102.06
781.721	167.59
781.903	112.3
782.085	112.3
782.267	79.53
782.448	1.71
782.63	59.05
782.812	151.21
782.993	95.91
783.175	52.91
783.357	18.09
783.538	130.73
783.72	65.19
783.901	81.58
784.083	93.87
784.264	108.2
784.446	9.9
784.627	-12.63
784.809	147.11
784.99	11.95
785.172	54.95
785.353	42.67
785.535	132.78
785.716	1.71
785.897	-4.44
786.079	48.81
786.26	50.86
786.441	126.63
786.623	-63.83
786.804	5.8
786.985	61.1
787.167	100.01
787.348	18.09
787.529	-26.96
787.71	177.83
787.891	143.02
788.073	97.96
788.254	-69.97
788.435	188.07
788.616	118.44
788.797	5.8
788.978	26.28
789.159	9.9
789.34	48.81
789.522	46.76
789.703	-0.34
789.884	136.87
790.065	65.19
790.246	157.35
790.427	-47.44
790.607	157.35
790.788	100.01
790.969	-35.16
791.15	93.87
791.331	54.95
791.512	-47.44
791.693	-43.35
791.874	32.43
792.054	173.74
792.235	48.81
792.416	24.23
792.597	-24.92
792.778	54.95
792.958	77.48
793.139	97.96
793.32	34.47
793.5	57
793.681	145.06
793.862	38.57
794.042	44.71
794.223	-72.02
794.404	11.95
794.584	-57.68
794.765	20.14
794.945	42.67
795.126	77.48
795.306	36.52
795.487	3.75
795.667	61.1
795.848	100.01
796.028	61.1
796.209	-43.35
796.389	112.3
796.57	20.14
796.75	-20.82
796.93	11.95
797.111	-0.34
797.291	75.43
797.471	83.63
797.652	18.09
797.832	-29.01
798.012	-6.49
798.192	5.8
798.373	-4.44
798.553	3.75
798.733	61.1
798.913	-31.06
799.093	108.2
799.274	-10.58
799.454	42.67
799.634	63.15
799.814	110.25
799.994	83.63
800.174	104.11
800.354	89.77
800.534	-125.27
800.714	65.19
800.894	30.38
801.074	-51.54
801.254	-43.35
801.434	147.11
801.614	-43.35
801.794	-0.34
801.974	1910.41
802.154	-8.53
802.334	67.24
802.514	-47.44
802.693	118.44
802.873	-33.11
803.053	93.87
803.233	32.43
803.413	93.87
803.592	-47.44
803.772	-18.77
803.952	-10.58
804.131	-47.44
804.311	-16.73
804.491	140.97
804.67	-10.58
804.85	-24.92
805.03	104.11
805.209	71.34
805.389	-2.39
805.568	-72.02
805.748	-20.82
805.928	9.9
806.107	16.04
806.287	-14.68
806.466	42.67
806.646	97.96
806.825	-8.53
807.004	77.48
807.184	32.43
807.363	30.38
807.543	75.43
807.722	-0.34
807.901	91.82
808.081	61.1
808.26	-145.75
808.439	83.63
808.619	59.05
808.798	1.71
808.977	-26.96
809.156	95.91
809.336	5.8
809.515	79.53
809.694	-47.44
809.873	-2.39
810.052	46.76
810.231	20.14
810.411	95.91
810.59	153.26
810.769	-6.49
810.948	30.38
811.127	-94.55
811.306	-41.3
811.485	-20.82
811.664	136.87
811.843	20.14
812.022	-26.96
812.201	-24.92
812.38	5.8
812.559	-22.87
812.737	26.28
812.916	20.14
813.095	3.75
813.274	-0.34
813.453	11.95
813.632	57
813.811	69.29
813.989	34.47
814.168	9.9
814.347	-6.49
814.526	-51.54
814.704	149.16
814.883	100.01
815.062	-0.34
815.24	11.95
815.419	-24.92
815.598	104.11
815.776	-125.27
815.955	16.04
816.133	-63.83
816.312	24.23
816.49	-10.58
816.669	59.05
816.847	1.71
817.026	54.95
817.204	-22.87
817.383	-31.06
817.561	-45.4
817.74	3.75
817.918	26.28
818.097	-88.4
818.275	-8.53
818.453	-2.39
818.632	52.91
818.81	9.9
818.988	-29.01
819.167	-6.49
819.345	1.71
819.523	-35.16
819.701	-2.39
819.879	71.34
820.058	77.48
820.236	38.57
820.414	11.95
820.592	-49.49
820.77	-6.49
820.948	-59.73
821.127	81.58
821.305	61.1
821.483	-29.01
821.661	77.48
821.839	42.67
822.017	-31.06
822.195	-26.96
822.373	54.95
822.551	7.85
822.729	63.15
822.907	-0.34
823.085	61.1
823.262	22.19
823.44	20.14
823.618	22.19
823.796	-43.35
823.974	-39.25
824.152	9.9
824.329	32.43
824.507	36.52
824.685	57
824.863	7.85
825.04	-55.64
825.218	28.33
825.396	20.14
825.574	9.9
825.751	52.91
825.929	81.58
826.107	-82.26
826.284	-16.73
826.462	38.57
826.639	-59.73
826.817	-115.03
826.994	-22.87
827.172	-47.44
827.349	153.26
827.527	28.33
827.704	5.8
827.882	93.87
828.059	-26.96
828.237	36.52
828.414	11.95
828.591	-51.54
828.769	44.71
828.946	-82.26
829.124	36.52
829.301	57
829.478	44.71
829.655	30.38
829.833	-41.3
830.01	-53.59
830.187	63.15
830.364	-14.68
830.542	-4.44
830.719	128.68
830.896	57
831.073	-41.3
831.25	32.43
831.427	65.19
831.604	18.09
831.782	24.23
831.959	83.63
832.136	16.04
832.313	18.09
832.49	-33.11
832.667	1.71
832.844	-102.74
833.021	69.29
833.198	81.58
833.374	-4.44
833.551	-10.58
833.728	-22.87
833.905	57
834.082	-26.96
834.259	-6.49
834.436	48.81
834.612	-53.59
834.789	63.15
834.966	-29.01
835.143	34.47
835.319	-82.26
835.496	122.54
835.673	69.29
835.85	91.82
836.026	11.95
836.203	44.71
836.38	-20.82
836.556	-47.44
836.733	-76.12
836.909	167.59
837.086	-6.49
837.262	-49.49
837.439	-12.63
837.616	-47.44
837.792	16.04
837.968	18.09
838.145	-153.94
838.321	-22.87
838.498	-26.96
838.674	38.57
838.851	71.34
839.027	-12.63
839.203	-43.35
839.38	26.28
839.556	-59.73
839.732	128.68
839.909	22.19
840.085	-33.11
840.261	34.47
840.437	1.71
840.614	-92.5
840.79	24.23
840.966	28.33
841.142	-18.77
841.318	-14.68
841.494	-2.39
841.671	116.39
841.847	-67.92
842.023	-0.34
842.199	59.05
842.375	155.3
842.551	-100.69
842.727	-57.68
842.903	122.54
843.079	-133.46
843.255	7.85
843.431	-41.3
843.607	40.62
843.783	-155.99
843.959	75.43
844.134	-92.5
844.31	79.53
844.486	-59.73
844.662	-20.82
844.838	-0.34
845.013	52.91
845.189	128.68
845.365	-4.44
845.541	81.58
845.716	-14.68
845.892	89.77
846.068	-65.88
846.244	-0.34
846.419	-55.64
846.595	-63.83
846.77	-10.58
846.946	65.19
847.122	-37.2
847.297	-43.35
847.473	93.87
847.648	-125.27
847.824	54.95
847.999	-133.46
848.175	3.75
848.35	13.99
848.526	100.01
848.701	77.48
848.876	42.67
849.052	32.43
849.227	-96.6
849.403	38.57
849.578	63.15
849.753	108.2
849.929	22.19
850.104	-127.32
850.279	9.9
850.454	26.28
850.63	54.95
850.805	13.99
850.98	42.67
851.155	18.09
851.33	-10.58
851.505	-14.68
851.681	48.81
851.856	-35.16
852.031	-12.63
852.206	-76.12
852.381	-47.44
852.556	-33.11
852.731	-61.78
852.906	48.81
853.081	40.62
853.256	110.25
853.431	-4.44
853.606	-4.44
853.781	-8.53
853.956	-115.03
854.131	16.04
854.305	-63.83
854.48	7.85
854.655	-61.78
854.83	18.09
855.005	-10.58
855.18	1.71
855.354	11.95
855.529	9.9
855.704	-16.73
855.879	79.53
856.053	-94.55
856.228	-31.06
856.403	-100.69
856.577	13.99
856.752	-59.73
856.926	-24.92
857.101	61.1
857.276	-8.53
857.45	-63.83
857.625	106.15
857.799	9.9
857.974	30.38
858.148	-102.74
858.323	87.72
858.497	18.09
858.672	-78.16
858.846	-98.64
859.02	26.28
859.195	-92.5
859.369	-57.68
859.543	18.09
859.718	11.95
859.892	-35.16
860.066	44.71
860.241	-35.16
860.415	-31.06
860.589	22.19
860.763	34.47
860.938	-59.73
861.112	5.8
861.286	-8.53
861.46	11.95
861.634	13.99
861.808	130.73
861.982	-57.68
862.157	-69.97
862.331	-14.68
862.505	-45.4
862.679	-86.36
862.853	-29.01
863.027	-43.35
863.201	114.34
863.375	-33.11
863.549	-31.06
863.722	-8.53
863.896	40.62
864.07	-61.78
864.244	-35.16
864.418	18.09
864.592	5.8
864.766	-67.92
864.939	5.8
865.113	5.8
865.287	87.72
865.461	-39.25
865.634	26.28
865.808	-4.44
865.982	-37.2
866.156	-43.35
866.329	-78.16
866.503	71.34
866.676	106.15
866.85	59.05
867.024	-131.41
867.197	124.58
867.371	13.99
867.544	-47.44
867.718	-131.41
867.891	32.43
868.065	-123.22
868.238	69.29
868.412	106.15
868.585	71.34
868.759	-8.53
868.932	-14.68
869.105	-35.16
869.279	-29.01
869.452	-37.2
869.625	40.62
869.799	-76.12
869.972	-119.12
870.145	-2.39
870.319	36.52
870.492	34.47
870.665	32.43
870.838	-110.93
871.011	-127.32
871.185	-29.01
871.358	13.99
871.531	54.95
871.704	-74.07
871.877	24.23
872.05	-80.21
872.223	-76.12
872.396	91.82
872.569	59.05
872.742	-110.93
872.915	50.86
873.088	-24.92
873.261	-110.93
873.434	-35.16
873.607	-18.77
873.78	77.48
873.953	-86.36
874.126	-29.01
874.299	83.63
874.471	-51.54
874.644	28.33
874.817	38.57
874.99	151.21
875.163	-16.73
875.335	-0.34
875.508	-12.63
875.681	63.15
875.853	-86.36
876.026	-41.3
876.199	63.15
876.371	20.14
876.544	-72.02
876.717	-8.53
876.889	-108.88
877.062	-6.49
877.234	-92.5
877.407	-12.63
877.579	-0.34
877.752	40.62
877.924	81.58
878.097	24.23
878.269	30.38
878.442	57
878.614	-67.92
878.786	32.43
878.959	11.95
879.131	-31.06
879.303	-139.6
879.476	11.95
879.648	89.77
879.82	-24.92
879.993	-35.16
880.165	-57.68
880.337	-127.32
880.509	28.33
880.681	-98.64
880.854	1.71
881.026	54.95
881.198	108.2
881.37	-61.78
881.542	28.33
881.714	1.71
881.886	-26.96
882.058	-82.26
882.23	-12.63
882.402	-96.6
882.574	54.95
882.746	46.76
882.918	46.76
883.09	-24.92
883.262	-20.82
883.434	-39.25
883.606	-57.68
883.778	-2.39
883.95	91.82
884.122	-29.01
884.293	-18.77
884.465	18.09
884.637	44.71
884.809	-10.58
884.98	5.8
885.152	40.62
885.324	-4.44
885.496	-2.39
885.667	-39.25
885.839	-67.92
886.011	67.24
886.182	18.09
886.354	59.05
886.525	26.28
886.697	46.76
886.869	-90.45
887.04	-69.97
887.212	57
887.383	114.34
887.555	40.62
887.726	-29.01
887.897	-74.07
888.069	16.04
888.24	108.2
888.412	46.76
888.583	-47.44
888.754	32.43
888.926	-67.92
889.097	-33.11
889.268	-121.17
889.44	57
889.611	5.8
889.782	-90.45
889.953	-90.45
890.125	93.87
890.296	-127.32
890.467	-37.2
890.638	-78.16
890.809	3.75
890.98	-51.54
891.151	87.72
891.323	79.53
891.494	-43.35
891.665	95.91
891.836	63.15
892.007	18.09
892.178	-6.49
892.349	-61.78
892.52	-82.26
892.691	13.99
892.862	-69.97
893.032	-90.45
893.203	-47.44
893.374	-41.3
893.545	71.34
893.716	-22.87
893.887	36.52
894.057	-16.73
894.228	-29.01
894.399	-108.88
894.57	40.62
894.74	69.29
894.911	32.43
895.082	-12.63
895.253	-151.89
895.423	-6.49
895.594	13.99
895.764	-31.06
895.935	-98.64
896.106	42.67
896.276	-24.92
896.447	7.85
896.617	-86.36
896.788	-76.12
896.958	-82.26
897.129	-22.87
897.299	-61.78
897.47	85.67
897.64	9.9
897.81	-78.16
897.981	-4.44
898.151	-47.44
898.322	44.71
898.492	11.95
898.662	-76.12
898.832	-37.2
899.003	-76.12
899.173	16.04
899.343	9.9
899.513	-65.88
