Data from USB4F104151__78__10-44-17-470.txt Node

Date: Wed Feb 26 10:44:17 EST 2025
User: louis
Spectrometer: USB4F10415
Trigger mode: 4
Integration Time (sec): 1.000000E-1
Scans to average: 1
Electric dark correction enabled: true
Nonlinearity correction enabled: false
Boxcar width: 0
XAxis mode: Wavelengths
Number of Pixels in Spectrum: 3648
>>>>>Begin Spectral Data<<<<<
178.204	-476.49
178.424	-476.49
178.644	-476.49
178.864	-392.53
179.084	-351.57
179.304	76.46
179.524	-38.23
179.744	-93.52
179.964	76.46
180.184	31.4
180.404	94.89
180.624	-68.95
180.844	92.84
181.064	-152.92
181.283	-34.13
181.503	-42.32
181.723	58.03
181.943	-60.76
182.163	115.37
182.383	-34.13
182.602	21.16
182.822	193.19
183.042	31.4
183.262	23.21
183.482	2.73
183.701	-5.46
183.921	45.74
184.141	-40.28
184.361	17.07
184.58	103.08
184.8	-9.56
185.02	4.78
185.239	90.79
185.459	-46.42
185.679	66.22
185.898	-116.05
186.118	64.17
186.338	23.21
186.557	107.18
186.777	-46.42
186.997	37.55
187.216	84.65
187.436	72.36
187.655	78.51
187.875	4.78
188.095	-23.89
188.314	72.36
188.534	37.55
188.753	39.59
188.973	162.47
189.192	146.09
189.412	10.92
189.631	-15.7
189.851	70.31
190.07	113.32
190.29	-32.08
190.509	-9.56
190.729	-9.56
190.948	98.99
191.168	279.21
191.387	15.02
191.607	66.22
191.826	37.55
192.045	27.31
192.265	-42.32
192.484	72.36
192.704	4.78
192.923	-34.13
193.142	193.19
193.362	82.6
193.581	107.18
193.8	84.65
194.02	55.98
194.239	31.4
194.458	156.33
194.678	-11.61
194.897	47.79
195.116	47.79
195.335	33.45
195.555	125.61
195.774	21.16
195.993	62.12
196.212	45.74
196.432	-5.46
196.651	-36.18
196.87	23.21
197.089	209.58
197.308	47.79
197.528	12.97
197.747	-11.61
197.966	35.5
198.185	105.13
198.404	-34.13
198.623	60.07
198.842	55.98
199.062	119.46
199.281	193.19
199.5	-7.51
199.719	94.89
199.938	12.97
200.157	29.35
200.376	94.89
200.595	66.22
200.814	29.35
201.033	19.11
201.252	62.12
201.471	123.56
201.69	205.48
201.909	47.79
202.128	88.75
202.347	43.69
202.566	-1.37
202.785	6.83
203.004	-34.13
203.223	240.29
203.442	62.12
203.661	-50.52
203.879	103.08
204.098	76.46
204.317	-11.61
204.536	51.88
204.755	144.04
204.974	74.41
205.193	21.16
205.411	90.79
205.63	43.69
205.849	-9.56
206.068	-1.37
206.287	12.97
206.505	109.22
206.724	21.16
206.943	10.92
207.162	-9.56
207.381	41.64
207.599	10.92
207.818	23.21
208.037	2.73
208.255	19.11
208.474	66.22
208.693	-25.94
208.911	35.5
209.13	135.85
209.349	168.62
209.567	92.84
209.786	29.35
210.005	90.79
210.223	-23.89
210.442	-111.96
210.661	-32.08
210.879	66.22
211.098	119.46
211.316	55.98
211.535	96.94
211.753	74.41
211.972	55.98
212.191	-1.37
212.409	6.83
212.628	23.21
212.846	33.45
213.065	15.02
213.283	137.9
213.502	43.69
213.72	-1.37
213.938	8.87
214.157	37.55
214.375	35.5
214.594	33.45
214.812	47.79
215.031	98.99
215.249	92.84
215.467	74.41
215.686	70.31
215.904	86.7
216.122	4.78
216.341	90.79
216.559	-48.47
216.778	154.28
216.996	144.04
217.214	-36.18
217.432	15.02
217.651	-54.61
217.869	23.21
218.087	55.98
218.306	15.02
218.524	8.87
218.742	8.87
218.96	58.03
219.179	-44.37
219.397	-44.37
219.615	283.3
219.833	80.55
220.051	-17.75
220.27	45.74
220.488	80.55
220.706	31.4
220.924	-9.56
221.142	-11.61
221.36	60.07
221.578	92.84
221.796	53.93
222.015	-9.56
222.233	62.12
222.451	162.47
222.669	8.87
222.887	64.17
223.105	-23.89
223.323	-9.56
223.541	-30.04
223.759	78.51
223.977	25.26
224.195	113.32
224.413	17.07
224.631	78.51
224.849	92.84
225.067	215.72
225.285	90.79
225.503	-9.56
225.721	-64.85
225.939	-3.41
226.157	45.74
226.375	170.66
226.592	-17.75
226.81	-17.75
227.028	58.03
227.246	47.79
227.464	15.02
227.682	68.27
227.9	121.51
228.117	-48.47
228.335	49.83
228.553	47.79
228.771	15.02
228.989	33.45
229.206	35.5
229.424	60.07
229.642	80.55
229.86	19.11
230.077	23.21
230.295	41.64
230.513	133.8
230.731	92.84
230.948	174.76
231.166	187.05
231.384	-64.85
231.601	-1.37
231.819	103.08
232.037	-5.46
232.254	15.02
232.472	45.74
232.689	-71
232.907	92.84
233.125	25.26
233.342	92.84
233.56	-34.13
233.777	33.45
233.995	43.69
234.213	103.08
234.43	96.94
234.648	72.36
234.865	2.73
235.083	60.07
235.3	64.17
235.518	86.7
235.735	111.27
235.953	141.99
236.17	15.02
236.388	45.74
236.605	-21.85
236.822	88.75
237.04	80.55
237.257	19.11
237.475	-34.13
237.692	80.55
237.909	10.92
238.127	-32.08
238.344	53.93
238.562	66.22
238.779	-71
238.996	-93.52
239.214	21.16
239.431	125.61
239.648	-38.23
239.865	58.03
240.083	19.11
240.3	-38.23
240.517	6.83
240.735	-13.65
240.952	109.22
241.169	21.16
241.386	12.97
241.603	45.74
241.821	-71
242.038	62.12
242.255	84.65
242.472	-111.96
242.689	107.18
242.907	53.93
243.124	146.09
243.341	-1.37
243.558	-75.09
243.775	-19.8
243.992	-85.33
244.209	86.7
244.426	223.91
244.643	58.03
244.86	49.83
245.078	76.46
245.295	10.92
245.512	-11.61
245.729	4.78
245.946	37.55
246.163	35.5
246.38	55.98
246.597	33.45
246.814	-60.76
247.031	-66.9
247.248	45.74
247.464	74.41
247.681	-3.41
247.898	101.03
248.115	90.79
248.332	31.4
248.549	94.89
248.766	156.33
248.983	53.93
249.2	98.99
249.417	74.41
249.633	70.31
249.85	51.88
250.067	-1.37
250.284	8.87
250.501	55.98
250.717	-3.41
250.934	-71
251.151	-13.65
251.368	47.79
251.585	72.36
251.801	17.07
252.018	-62.8
252.235	148.14
252.451	-46.42
252.668	17.07
252.885	101.03
253.102	62.12
253.318	-11.61
253.535	-5.46
253.752	-66.9
253.968	-7.51
254.185	-105.81
254.401	55.98
254.618	55.98
254.835	23.21
255.051	158.38
255.268	86.7
255.484	39.59
255.701	17.07
255.917	-23.89
256.134	0.68
256.351	117.42
256.567	-9.56
256.784	49.83
257	-21.85
257.217	125.61
257.433	51.88
257.65	62.12
257.866	133.8
258.082	-73.04
258.299	-5.46
258.515	37.55
258.732	2.73
258.948	-5.46
259.165	47.79
259.381	-44.37
259.597	146.09
259.814	64.17
260.03	-3.41
260.246	43.69
260.463	172.71
260.679	82.6
260.895	90.79
261.112	62.12
261.328	4.78
261.544	-83.28
261.761	53.93
261.977	10.92
262.193	-64.85
262.409	125.61
262.626	53.93
262.842	4.78
263.058	37.55
263.274	121.51
263.49	103.08
263.707	31.4
263.923	86.7
264.139	-50.52
264.355	58.03
264.571	152.23
264.787	98.99
265.004	121.51
265.22	125.61
265.436	-34.13
265.652	25.26
265.868	21.16
266.084	-101.72
266.3	39.59
266.516	19.11
266.732	29.35
266.948	68.27
267.164	-3.41
267.38	55.98
267.596	4.78
267.812	209.58
268.028	55.98
268.244	-1.37
268.46	17.07
268.676	43.69
268.892	64.17
269.108	-19.8
269.324	-21.85
269.54	-15.7
269.756	35.5
269.972	-73.04
270.188	33.45
270.403	-64.85
270.619	47.79
270.835	2.73
271.051	-30.04
271.267	-54.61
271.483	0.68
271.698	88.75
271.914	92.84
272.13	90.79
272.346	21.16
272.562	25.26
272.777	113.32
272.993	-13.65
273.209	8.87
273.425	53.93
273.64	10.92
273.856	201.38
274.072	-52.56
274.287	-34.13
274.503	51.88
274.719	60.07
274.934	2.73
275.15	-34.13
275.366	-23.89
275.581	-34.13
275.797	29.35
276.012	31.4
276.228	6.83
276.444	-34.13
276.659	219.82
276.875	-62.8
277.09	17.07
277.306	25.26
277.521	76.46
277.737	37.55
277.952	78.51
278.168	17.07
278.383	101.03
278.599	35.5
278.814	86.7
279.03	43.69
279.245	109.22
279.461	47.79
279.676	72.36
279.892	-81.24
280.107	-44.37
280.322	-71
280.538	-52.56
280.753	-34.13
280.969	53.93
281.184	19.11
281.399	160.42
281.615	72.36
281.83	27.31
282.045	-48.47
282.26	-36.18
282.476	43.69
282.691	117.42
282.906	117.42
283.122	8.87
283.337	-95.57
283.552	88.75
283.767	68.27
283.983	62.12
284.198	10.92
284.413	31.4
284.628	-73.04
284.843	31.4
285.058	86.7
285.274	2.73
285.489	-11.61
285.704	129.7
285.919	27.31
286.134	-50.52
286.349	66.22
286.564	-36.18
286.779	101.03
286.995	-25.94
287.21	-75.09
287.425	21.16
287.64	-25.94
287.855	10.92
288.07	-73.04
288.285	152.23
288.5	137.9
288.715	80.55
288.93	47.79
289.145	-71
289.36	135.85
289.575	-58.71
289.79	156.33
290.004	-17.75
290.219	66.22
290.434	8.87
290.649	-62.8
290.864	-54.61
291.079	21.16
291.294	109.22
291.509	35.5
291.724	70.31
291.938	-42.32
292.153	27.31
292.368	62.12
292.583	-21.85
292.798	180.9
293.012	92.84
293.227	39.59
293.442	-27.99
293.657	82.6
293.871	94.89
294.086	98.99
294.301	201.38
294.516	141.99
294.73	43.69
294.945	-30.04
295.16	68.27
295.374	123.56
295.589	51.88
295.804	21.16
296.018	88.75
296.233	90.79
296.447	49.83
296.662	-7.51
296.877	76.46
297.091	39.59
297.306	-42.32
297.52	21.16
297.735	-38.23
297.949	6.83
298.164	96.94
298.378	35.5
298.593	-27.99
298.807	-46.42
299.022	10.92
299.236	55.98
299.451	17.07
299.665	10.92
299.88	39.59
300.094	15.02
300.309	60.07
300.523	-3.41
300.737	-32.08
300.952	55.98
301.166	21.16
301.381	-83.28
301.595	58.03
301.809	4.78
302.024	19.11
302.238	-95.57
302.452	111.27
302.667	62.12
302.881	84.65
303.095	129.7
303.309	53.93
303.524	-30.04
303.738	74.41
303.952	-7.51
304.166	66.22
304.381	-95.57
304.595	137.9
304.809	2.73
305.023	62.12
305.237	0.68
305.452	39.59
305.666	51.88
305.88	23.21
306.094	76.46
306.308	148.14
306.522	74.41
306.736	68.27
306.95	111.27
307.164	27.31
307.379	37.55
307.593	86.7
307.807	127.66
308.021	117.42
308.235	-1.37
308.449	-79.19
308.663	35.5
308.877	170.66
309.091	37.55
309.305	19.11
309.519	-73.04
309.733	80.55
309.947	-83.28
310.161	62.12
310.374	55.98
310.588	121.51
310.802	-52.56
311.016	43.69
311.23	2.73
311.444	-50.52
311.658	47.79
311.872	121.51
312.085	217.77
312.299	123.56
312.513	103.08
312.727	78.51
312.941	-21.85
313.154	-3.41
313.368	27.31
313.582	12.97
313.796	101.03
314.009	74.41
314.223	37.55
314.437	39.59
314.651	125.61
314.864	6.83
315.078	-68.95
315.292	-64.85
315.505	23.21
315.719	10.92
315.933	55.98
316.146	-7.51
316.36	-52.56
316.573	158.38
316.787	66.22
317.001	-7.51
317.214	-38.23
317.428	29.35
317.641	-40.28
317.855	-52.56
318.068	-7.51
318.282	84.65
318.495	252.58
318.709	55.98
318.922	-9.56
319.136	107.18
319.349	98.99
319.563	70.31
319.776	123.56
319.99	-81.24
320.203	64.17
320.417	-64.85
320.63	90.79
320.843	168.62
321.057	94.89
321.27	53.93
321.483	88.75
321.697	141.99
321.91	6.83
322.124	129.7
322.337	49.83
322.55	15.02
322.763	8.87
322.977	39.59
323.19	39.59
323.403	-40.28
323.617	80.55
323.83	107.18
324.043	-1.37
324.256	37.55
324.469	2.73
324.683	105.13
324.896	6.83
325.109	45.74
325.322	-34.13
325.535	53.93
325.748	111.27
325.962	-56.66
326.175	82.6
326.388	25.26
326.601	148.14
326.814	49.83
327.027	-23.89
327.24	135.85
327.453	-52.56
327.666	51.88
327.879	141.99
328.092	178.86
328.305	-13.65
328.518	-19.8
328.731	-11.61
328.944	19.11
329.157	64.17
329.37	-42.32
329.583	178.86
329.796	137.9
330.009	-9.56
330.222	0.68
330.435	51.88
330.648	23.21
330.861	68.27
331.073	25.26
331.286	129.7
331.499	51.88
331.712	-32.08
331.925	17.07
332.138	12.97
332.35	111.27
332.563	19.11
332.776	86.7
332.989	-17.75
333.202	-58.71
333.414	-44.37
333.627	43.69
333.84	27.31
334.053	-5.46
334.265	29.35
334.478	-15.7
334.691	55.98
334.903	70.31
335.116	-58.71
335.329	33.45
335.541	113.32
335.754	185
335.966	2.73
336.179	23.21
336.392	-11.61
336.604	53.93
336.817	37.55
337.029	-30.04
337.242	47.79
337.454	66.22
337.667	27.31
337.88	76.46
338.092	33.45
338.305	107.18
338.517	-21.85
338.729	103.08
338.942	98.99
339.154	31.4
339.367	-89.43
339.579	53.93
339.792	-91.48
340.004	-5.46
340.217	4.78
340.429	66.22
340.641	-34.13
340.854	-42.32
341.066	78.51
341.278	105.13
341.491	96.94
341.703	47.79
341.915	-62.8
342.128	84.65
342.34	-25.94
342.552	-42.32
342.764	58.03
342.977	88.75
343.189	66.22
343.401	37.55
343.613	2.73
343.826	53.93
344.038	-17.75
344.25	-23.89
344.462	15.02
344.674	84.65
344.886	10.92
345.099	27.31
345.311	109.22
345.523	-21.85
345.735	-93.52
345.947	10.92
346.159	53.93
346.371	45.74
346.583	-3.41
346.795	221.86
347.007	-27.99
347.219	76.46
347.431	39.59
347.643	176.81
347.855	33.45
348.067	180.9
348.279	-3.41
348.491	64.17
348.703	135.85
348.915	-27.99
349.127	6.83
349.339	31.4
349.551	-54.61
349.763	-7.51
349.975	33.45
350.187	47.79
350.399	107.18
350.61	76.46
350.822	70.31
351.034	60.07
351.246	-11.61
351.458	31.4
351.669	62.12
351.881	43.69
352.093	148.14
352.305	150.18
352.517	29.35
352.728	129.7
352.94	109.22
353.152	53.93
353.363	-11.61
353.575	64.17
353.787	182.95
353.999	-17.75
354.21	148.14
354.422	-1.37
354.633	17.07
354.845	74.41
355.057	43.69
355.268	-19.8
355.48	55.98
355.692	-136.53
355.903	55.98
356.115	-21.85
356.326	-103.76
356.538	125.61
356.749	84.65
356.961	195.24
357.172	78.51
357.384	-30.04
357.595	164.52
357.807	10.92
358.018	33.45
358.23	-32.08
358.441	189.1
358.653	101.03
358.864	39.59
359.075	-54.61
359.287	31.4
359.498	45.74
359.709	-15.7
359.921	17.07
360.132	47.79
360.344	72.36
360.555	19.11
360.766	35.5
360.977	29.35
361.189	164.52
361.4	21.16
361.611	113.32
361.823	86.7
362.034	21.16
362.245	-73.04
362.456	12.97
362.667	82.6
362.879	-15.7
363.09	125.61
363.301	60.07
363.512	37.55
363.723	-7.51
363.935	-32.08
364.146	2.73
364.357	27.31
364.568	133.8
364.779	-103.76
364.99	96.94
365.201	-60.76
365.412	141.99
365.623	-60.76
365.834	21.16
366.045	17.07
366.256	78.51
366.467	133.8
366.678	53.93
366.889	6.83
367.1	0.68
367.311	105.13
367.522	45.74
367.733	148.14
367.944	47.79
368.155	49.83
368.366	53.93
368.577	55.98
368.788	131.75
368.999	-21.85
369.209	45.74
369.42	252.58
369.631	182.95
369.842	53.93
370.053	2.73
370.264	82.6
370.474	-34.13
370.685	10.92
370.896	-3.41
371.107	123.56
371.317	76.46
371.528	-42.32
371.739	90.79
371.95	64.17
372.16	31.4
372.371	-32.08
372.582	6.83
372.792	60.07
373.003	8.87
373.214	60.07
373.424	72.36
373.635	-19.8
373.846	127.66
374.056	17.07
374.267	-1.37
374.477	55.98
374.688	-71
374.898	92.84
375.109	-1.37
375.319	6.83
375.53	96.94
375.74	82.6
375.951	6.83
376.161	25.26
376.372	109.22
376.582	10.92
376.793	27.31
377.003	94.89
377.214	29.35
377.424	4.78
377.635	0.68
377.845	-13.65
378.055	133.8
378.266	33.45
378.476	10.92
378.686	31.4
378.897	51.88
379.107	141.99
379.317	35.5
379.528	-38.23
379.738	160.42
379.948	-52.56
380.158	33.45
380.369	43.69
380.579	72.36
380.789	113.32
380.999	51.88
381.21	96.94
381.42	156.33
381.63	-11.61
381.84	80.55
382.05	76.46
382.261	86.7
382.471	58.03
382.681	-71
382.891	139.94
383.101	80.55
383.311	-11.61
383.521	-68.95
383.731	45.74
383.941	94.89
384.151	101.03
384.361	2.73
384.571	53.93
384.781	2.73
384.991	232.1
385.201	170.66
385.411	43.69
385.621	33.45
385.831	62.12
386.041	37.55
386.251	62.12
386.461	74.41
386.671	117.42
386.881	0.68
387.091	15.02
387.301	70.31
387.511	25.26
387.72	103.08
387.93	76.46
388.14	-89.43
388.35	25.26
388.56	117.42
388.769	123.56
388.979	45.74
389.189	86.7
389.399	19.11
389.609	66.22
389.818	103.08
390.028	-48.47
390.238	53.93
390.447	-21.85
390.657	0.68
390.867	27.31
391.076	-87.38
391.286	60.07
391.496	23.21
391.705	2.73
391.915	135.85
392.125	117.42
392.334	4.78
392.544	131.75
392.753	8.87
392.963	17.07
393.172	27.31
393.382	-19.8
393.591	178.86
393.801	-9.56
394.01	125.61
394.22	150.18
394.429	27.31
394.639	49.83
394.848	101.03
395.058	29.35
395.267	-5.46
395.477	80.55
395.686	88.75
395.895	135.85
396.105	162.47
396.314	68.27
396.524	74.41
396.733	0.68
396.942	88.75
397.152	51.88
397.361	123.56
397.57	105.13
397.78	-5.46
397.989	0.68
398.198	187.05
398.407	-50.52
398.617	12.97
398.826	17.07
399.035	17.07
399.244	139.94
399.453	-1.37
399.663	25.26
399.872	49.83
400.081	12.97
400.29	82.6
400.499	-9.56
400.708	72.36
400.917	-7.51
401.127	58.03
401.336	10.92
401.545	144.04
401.754	191.14
401.963	60.07
402.172	-1.37
402.381	-32.08
402.59	15.02
402.799	37.55
403.008	76.46
403.217	51.88
403.426	6.83
403.635	-30.04
403.844	4.78
404.053	53.93
404.262	-38.23
404.471	176.81
404.68	49.83
404.888	-27.99
405.097	23.21
405.306	51.88
405.515	39.59
405.724	53.93
405.933	72.36
406.142	101.03
406.35	174.76
406.559	15.02
406.768	-7.51
406.977	219.82
407.185	74.41
407.394	43.69
407.603	-73.04
407.812	88.75
408.02	178.86
408.229	82.6
408.438	74.41
408.646	-42.32
408.855	10.92
409.064	74.41
409.272	-71
409.481	111.27
409.69	-66.9
409.898	8.87
410.107	17.07
410.315	96.94
410.524	15.02
410.733	-27.99
410.941	-9.56
411.15	66.22
411.358	90.79
411.567	137.9
411.775	2.73
411.984	-7.51
412.192	76.46
412.401	27.31
412.609	141.99
412.818	88.75
413.026	86.7
413.234	45.74
413.443	45.74
413.651	10.92
413.86	49.83
414.068	78.51
414.276	158.38
414.485	-68.95
414.693	131.75
414.901	139.94
415.11	94.89
415.318	78.51
415.526	80.55
415.734	135.85
415.943	49.83
416.151	103.08
416.359	111.27
416.567	68.27
416.776	103.08
416.984	39.59
417.192	113.32
417.4	47.79
417.608	-5.46
417.817	-52.56
418.025	172.71
418.233	164.52
418.441	-9.56
418.649	-136.53
418.857	39.59
419.065	60.07
419.273	6.83
419.481	10.92
419.689	29.35
419.897	35.5
420.105	-50.52
420.313	86.7
420.521	168.62
420.729	45.74
420.937	64.17
421.145	96.94
421.353	78.51
421.561	121.51
421.769	27.31
421.977	-64.85
422.185	86.7
422.393	-3.41
422.601	90.79
422.809	133.8
423.017	31.4
423.224	90.79
423.432	101.03
423.64	45.74
423.848	109.22
424.056	-25.94
424.263	92.84
424.471	76.46
424.679	182.95
424.887	-15.7
425.094	150.18
425.302	76.46
425.51	39.59
425.718	74.41
425.925	131.75
426.133	-50.52
426.341	172.71
426.548	-1.37
426.756	-15.7
426.964	78.51
427.171	53.93
427.379	55.98
427.586	72.36
427.794	94.89
428.001	123.56
428.209	80.55
428.417	176.81
428.624	174.76
428.832	125.61
429.039	121.51
429.247	12.97
429.454	123.56
429.662	254.63
429.869	82.6
430.076	88.75
430.284	66.22
430.491	209.58
430.699	152.23
430.906	205.48
431.114	127.66
431.321	164.52
431.528	86.7
431.736	150.18
431.943	172.71
432.15	105.13
432.358	187.05
432.565	287.4
432.772	31.4
432.979	187.05
433.187	62.12
433.394	137.9
433.601	123.56
433.808	164.52
434.016	285.35
434.223	164.52
434.43	164.52
434.637	246.44
434.844	301.73
435.052	185
435.259	250.53
435.466	221.86
435.673	279.21
435.88	250.53
436.087	277.16
436.294	283.3
436.501	234.15
436.708	219.82
436.915	277.16
437.122	252.58
437.329	178.86
437.537	287.4
437.743	299.69
437.95	365.22
438.157	402.08
438.364	371.36
438.571	336.55
438.778	402.08
438.985	340.65
439.192	412.32
439.399	324.26
439.606	426.66
439.813	445.09
440.02	518.82
440.227	608.93
440.433	496.29
440.64	453.28
440.847	418.47
441.054	580.26
441.261	549.54
441.467	545.44
441.674	518.82
441.881	701.09
442.088	563.87
442.294	662.18
442.501	754.34
442.708	770.72
442.914	670.37
443.121	914.08
443.328	864.93
443.534	871.07
443.741	764.57
443.948	805.53
444.154	924.32
444.361	961.18
444.568	778.91
444.774	932.51
444.981	899.74
445.187	1059.48
445.394	1077.91
445.6	1057.43
445.807	1155.74
446.013	1114.78
446.22	1131.16
446.426	1374.87
446.633	1290.9
446.839	1495.7
447.046	1235.61
447.252	1493.65
447.459	1491.6
447.665	1358.49
447.871	1614.48
448.078	1749.65
448.284	1671.83
448.491	1837.71
448.697	1950.35
448.903	1993.36
449.11	2073.23
449.316	1921.68
449.522	2222.73
449.728	2220.68
449.935	2329.22
450.141	2445.96
450.347	2550.4
450.553	2382.47
450.76	2624.13
450.966	2669.19
451.172	2781.82
451.378	2814.59
451.584	2972.29
451.791	3177.08
451.997	3228.28
452.203	3234.43
452.409	3451.51
452.615	3680.88
452.821	3467.89
453.027	3625.59
453.233	4037.23
453.44	3828.34
453.646	3955.31
453.852	4137.58
454.058	4344.42
454.264	4596.32
454.47	4854.37
454.676	4766.31
454.882	5362.26
455.088	5028.45
455.294	5454.42
455.5	5663.32
455.705	6120.01
455.911	5913.17
456.117	6148.68
456.323	6345.29
456.529	6507.08
456.735	7078.46
456.941	7088.7
457.147	7436.86
457.352	7617.08
457.558	7625.27
457.764	8450.6
457.97	8598.06
458.176	8847.91
458.381	9337.37
458.587	9607.7
458.793	10228.24
458.999	9857.56
459.204	11356.67
459.41	11581.95
459.616	11256.32
459.821	12130.8
460.027	12542.44
460.233	13253.09
460.438	13046.24
460.644	14000.6
460.85	14350.8
461.055	14651.85
461.261	15239.62
461.466	14948.81
461.672	15395.26
461.878	17263.01
462.083	16703.92
462.289	17611.17
462.494	18155.93
462.7	18051.48
462.905	18260.37
463.111	19978.62
463.316	20973.93
463.522	21393.76
463.727	21823.84
463.932	22958.41
464.138	23343.43
464.343	24246.58
464.549	24760.62
464.754	26339.61
464.959	27076.88
465.165	27484.42
465.37	27267.34
465.575	27459.85
465.781	29196.53
465.986	30093.54
466.191	29573.35
466.397	29837.54
466.602	29198.57
466.807	30714.07
467.012	31348.94
467.218	32032.96
467.423	31731.91
467.628	32899.25
467.833	34652.31
468.038	33999.01
468.244	33386.67
468.449	35211.41
468.654	34173.09
468.859	34222.24
469.064	34410.65
469.269	33728.68
469.474	33988.77
469.679	35141.78
469.885	33790.12
470.09	34537.63
470.295	34648.22
470.5	33530.03
470.705	34023.59
470.91	33206.45
471.115	33022.13
471.32	33441.96
471.525	33476.78
471.73	32248
471.935	31936.71
472.139	30925.01
472.344	31181.01
472.549	30759.13
472.754	30269.66
472.959	29749.48
473.164	28496.12
473.369	28184.83
473.574	28846.32
473.778	28510.46
473.983	27824.39
474.188	27617.54
474.393	26288.41
474.598	25930.01
474.802	25446.69
475.007	25116.97
475.212	24813.87
475.417	24207.67
475.621	23966.01
475.826	23417.16
476.031	22909.26
476.235	22337.88
476.44	22575.44
476.645	21737.82
476.849	21674.34
477.054	21096.81
477.259	20922.73
477.463	20881.77
477.668	20253.05
477.872	20222.33
478.077	19767.68
478.282	19061.13
478.486	18989.45
478.691	18735.5
478.895	18497.94
479.1	18397.59
479.304	18260.37
479.509	17791.39
479.713	17871.26
479.918	17330.59
480.122	17109.41
480.326	17461.66
480.531	17158.56
480.735	16875.95
480.94	16581.04
481.144	17273.25
481.348	16425.39
481.553	16519.6
481.757	15851.96
481.961	16073.14
482.166	16388.53
482.37	16036.28
482.574	15733.18
482.778	15792.57
482.983	15829.43
483.187	15417.79
483.391	15579.58
483.595	15079.88
483.8	15065.54
484.004	15165.89
484.208	15227.33
484.412	14793.16
484.616	14645.71
484.821	14473.68
485.025	14227.92
485.229	14328.27
485.433	13949.4
485.637	13933.01
485.841	13613.53
486.045	13412.83
486.249	13261.28
486.453	12818.92
486.657	12892.65
486.861	12603.88
487.065	12521.96
487.269	12388.85
487.473	11977.2
487.677	12202.48
487.881	12001.78
488.085	11786.74
488.289	11356.67
488.493	11207.17
488.697	11239.94
488.901	10953.22
489.105	10639.88
489.309	10484.23
489.512	10478.09
489.716	10271.25
489.92	10134.03
490.124	9689.62
490.328	9820.69
490.531	9347.61
490.735	9452.06
490.939	9118.24
491.143	9103.9
491.346	8575.53
491.55	8698.41
491.754	8632.87
491.958	8428.07
492.161	8354.35
492.365	8213.04
492.569	8049.2
492.772	7905.84
492.976	7926.32
493.18	7785.01
493.383	7811.64
493.587	7533.11
493.79	7500.34
493.994	7256.64
494.197	7297.6
494.401	7359.03
494.605	7064.13
494.808	7127.61
495.012	6908.48
495.215	7021.12
495.419	7060.03
495.622	6744.64
495.825	6828.61
496.029	6634.05
496.232	6709.83
496.436	6726.21
496.639	6892.1
496.843	6660.68
497.046	6748.74
497.249	6816.32
497.453	6896.19
497.656	6609.48
497.859	6568.52
498.063	6672.96
498.266	6851.14
498.469	6595.14
498.673	6640.2
498.876	6697.54
499.079	6705.73
499.282	6584.9
499.485	7037.5
499.689	6867.52
499.892	6885.95
500.095	6820.42
500.298	7027.26
500.501	7014.98
500.705	7006.78
500.908	7129.66
501.111	6916.67
501.314	7248.44
501.517	7240.25
501.72	7440.95
501.923	7584.31
502.126	7510.58
502.329	7797.3
502.532	7625.27
502.735	7557.69
502.938	7828.02
503.141	7918.13
503.344	7944.75
503.547	8047.15
503.75	8135.21
503.953	8245.8
504.156	8387.11
504.359	8364.59
504.562	8565.29
504.765	8772.13
504.968	8938.02
505.17	8991.27
505.373	9091.62
505.576	9177.63
505.779	9327.13
505.982	9216.54
506.185	9648.66
506.387	9921.04
506.59	9937.43
506.793	10093.07
506.996	10224.14
507.198	10670.6
507.401	10754.57
507.604	10881.54
507.807	11080.19
508.009	11454.97
508.212	11553.27
508.415	11844.09
508.617	11905.52
508.82	12126.71
509.022	12304.88
509.225	12732.9
509.428	12868.07
509.63	13040.1
509.833	13408.73
510.035	13904.34
510.238	13853.14
510.44	14143.95
510.643	14578.12
510.845	15141.32
511.048	15038.92
511.25	15368.64
511.453	15757.75
511.655	16404.91
511.858	16724.4
512.06	16699.82
512.262	17459.62
512.465	17934.74
512.667	18215.32
512.87	18522.51
513.072	18835.85
513.274	19517.82
513.477	19679.61
513.679	20212.09
513.881	20742.51
514.084	20838.76
514.286	21557.6
514.488	21760.35
514.69	22679.89
514.893	22884.69
515.095	23296.33
515.297	23689.54
515.499	24340.79
515.701	24631.6
515.904	25493.8
516.106	26016.03
516.308	26261.79
516.51	26755.35
516.712	27189.52
516.914	27934.98
517.116	28750.07
517.318	28956.91
517.52	29128.94
517.722	29692.13
517.925	30544.09
518.127	31140.05
518.329	31842.5
518.531	31715.53
518.733	32596.15
518.935	33294.51
519.136	33687.72
519.338	34287.78
519.54	34787.48
519.742	35584.14
519.944	35442.83
520.146	36630.65
520.348	36677.75
520.55	37177.46
520.752	37738.6
520.954	38522.97
521.155	38090.85
521.357	39204.95
521.559	39563.34
521.761	40450.11
521.963	40290.37
522.164	40607.81
522.366	41054.26
522.568	41467.95
522.77	41719.85
522.971	42483.75
523.173	41885.74
523.375	42321.96
523.576	42328.1
523.778	42522.66
523.98	42870.81
524.181	43593.75
524.383	43356.18
524.584	43690
524.786	43816.97
524.988	43808.78
525.189	44503.04
525.391	43821.07
525.592	44040.2
525.794	44406.79
525.995	43888.65
526.197	44271.62
526.398	43954.19
526.6	44134.41
526.801	43771.92
527.003	44113.93
527.204	43868.17
527.406	44118.03
527.607	43126.81
527.808	43767.82
528.01	42795.04
528.211	43010.07
528.412	43335.7
528.614	42772.51
528.815	42151.98
529.016	42651.68
529.218	41506.87
529.419	41613.36
529.62	40656.96
529.822	40706.11
530.023	40284.23
530.224	39585.87
530.425	39524.43
530.626	39096.41
530.828	38195.3
531.029	38758.49
531.23	37673.07
531.431	37202.03
531.632	37570.67
531.833	36776.06
532.035	36358.27
532.236	35823.75
532.437	35809.42
532.638	34668.7
532.839	34517.15
533.04	34302.11
533.241	33587.37
533.442	33693.86
533.643	32854.2
533.844	32446.65
534.045	32327.87
534.246	31690.95
534.447	31422.67
534.648	30822.61
534.849	30662.87
535.05	29980.9
535.251	29679.85
535.451	29122.8
535.652	28942.58
535.853	28127.49
536.054	28178.68
536.255	27887.87
536.456	27048.21
536.657	27087.12
536.857	26523.93
537.058	26276.12
537.259	26163.48
537.46	25776.42
537.66	25053.48
537.861	25086.25
538.062	24531.25
538.263	24367.41
538.463	23734.59
538.664	23736.64
538.865	23503.17
539.065	23247.18
539.266	22626.64
539.466	22821.2
539.667	21971.29
539.868	22294.87
540.068	21512.55
540.269	21526.88
540.469	21303.65
540.67	20855.15
540.87	20806
541.071	20232.57
541.271	20060.54
541.472	20019.58
541.672	19638.65
541.873	19407.23
542.073	18907.53
542.274	19325.32
542.474	18948.49
542.675	18446.74
542.875	18758.03
543.075	18469.26
543.276	17840.54
543.476	18106.77
543.676	17699.23
543.877	17619.36
544.077	17279.39
544.277	17291.68
544.478	16941.48
544.678	16873.9
544.878	16443.82
545.078	16460.21
545.279	16122.29
545.479	15954.36
545.679	15894.97
545.879	15585.72
546.079	15577.53
546.28	15061.44
546.48	14909.9
546.68	15032.77
546.88	14758.35
547.08	14365.14
547.28	14371.28
547.48	13771.22
547.68	14002.65
547.88	13828.57
548.081	13711.83
548.281	13519.32
548.481	13171.17
548.681	13171.17
548.881	13036
549.081	12857.83
549.28	12624.36
549.48	12544.49
549.68	12186.1
549.88	12282.35
550.08	11883
550.28	11821.56
550.48	11676.15
550.68	11592.19
550.88	11342.33
551.08	11481.6
551.279	11127.3
551.479	10832.39
551.679	10805.77
551.879	10494.47
552.079	10478.09
552.278	10404.36
552.478	10492.43
552.678	10123.79
552.878	9943.57
553.077	9683.48
553.277	9607.7
553.477	9533.98
553.676	9478.68
553.876	9271.84
554.076	9001.51
554.275	9034.27
554.475	8704.55
554.674	8538.66
554.874	8563.24
555.074	8210.99
555.273	8127.02
555.473	7873.07
555.672	7762.48
555.872	7649.85
556.071	7707.19
556.271	7735.86
556.47	7547.45
556.67	7164.48
556.869	7125.57
557.068	6986.3
557.268	6980.16
557.467	6906.43
557.667	6951.49
557.866	6720.07
558.065	6523.46
558.265	6429.26
558.464	6242.89
558.663	6302.28
558.863	6238.8
559.062	6085.2
559.261	5896.78
559.461	6017.61
559.66	5638.74
559.859	5481.05
560.058	5505.62
560.258	5515.86
560.457	5302.87
560.656	5345.88
560.855	5229.15
561.054	5315.16
561.253	5032.54
561.453	4981.34
561.652	5012.06
561.851	4893.28
562.05	4754.02
562.249	4598.37
562.448	4579.94
562.647	4514.41
562.846	4340.33
563.045	4430.44
563.244	4459.11
563.443	4237.93
563.642	4196.97
563.841	4213.35
564.04	3990.13
564.239	4178.54
564.438	3930.73
564.637	3900.02
564.836	3936.88
565.035	3797.62
565.234	3725.94
565.432	3623.54
565.631	3594.87
565.83	3713.65
566.029	3603.06
566.228	3369.59
566.427	3558
566.625	3326.58
566.824	3359.35
567.023	3293.82
567.222	3156.6
567.42	3082.88
567.619	3291.77
567.818	3089.02
568.016	3228.28
568.215	2914.94
568.414	2998.91
568.612	2962.05
568.811	2939.52
569.01	2861.69
569.208	2792.06
569.407	2826.88
569.605	2689.67
569.804	2699.91
570.002	2683.52
570.201	2454.15
570.4	2663.04
570.598	2423.43
570.797	2583.17
570.995	2374.28
571.193	2482.82
571.392	2462.34
571.59	2325.13
571.789	2476.68
571.987	2300.55
572.186	2351.75
572.384	2108.04
572.582	2155.15
572.781	2351.75
572.979	2065.04
573.177	2069.13
573.376	2132.62
573.574	2151.05
573.772	2060.94
573.971	1882.77
574.169	1938.06
574.367	1913.49
574.565	1825.42
574.763	1858.19
574.962	1901.2
575.16	1704.59
575.358	1688.21
575.556	1712.78
575.754	1706.64
575.952	1634.96
576.151	1628.82
576.349	1649.3
576.547	1538.71
576.745	1626.77
576.943	1540.76
577.141	1499.8
577.339	1565.33
577.537	1458.84
577.735	1462.93
577.933	1448.6
578.131	1411.73
578.329	1505.94
578.527	1278.62
578.725	1329.81
578.923	1270.42
579.121	1428.12
579.319	1247.9
579.516	1305.24
579.714	1526.42
579.912	1288.85
580.11	1145.5
580.308	1272.47
580.506	1139.35
580.704	1125.02
580.901	1024.67
581.099	1163.93
581.297	1110.68
581.495	1135.26
581.692	1063.58
581.89	1188.5
582.088	1049.24
582.285	1069.72
582.483	1016.48
582.681	1002.14
582.878	856.73
583.076	1012.38
583.274	936.6
583.471	1153.69
583.669	971.42
583.866	881.31
584.064	866.97
584.262	813.73
584.459	840.35
584.657	905.88
584.854	883.36
585.052	850.59
585.249	901.79
585.447	881.31
585.644	686.75
585.841	811.68
586.039	823.97
586.236	875.17
586.434	815.77
586.631	834.21
586.828	656.03
587.026	795.29
587.223	533.15
587.42	656.03
587.618	684.7
587.815	768.67
588.012	703.14
588.21	725.66
588.407	766.62
588.604	742.05
588.801	639.65
588.999	774.81
589.196	651.94
589.393	688.8
589.59	625.31
589.787	684.7
589.984	623.27
590.182	651.94
590.379	582.31
590.576	653.98
590.773	623.27
590.97	588.45
591.167	664.22
591.364	666.27
591.561	559.78
591.758	694.94
591.955	617.12
592.152	621.22
592.349	531.11
592.546	549.54
592.743	518.82
592.94	533.15
593.137	647.84
593.334	604.83
593.531	629.41
593.727	617.12
593.924	537.25
594.121	567.97
594.318	615.07
594.515	623.27
594.712	680.61
594.908	762.53
595.105	588.45
595.302	631.46
595.499	584.35
595.696	776.86
595.892	596.64
596.089	651.94
596.286	627.36
596.482	817.82
596.679	717.47
596.876	703.14
597.072	789.15
597.269	737.95
597.466	789.15
597.662	754.34
597.859	772.77
598.055	832.16
598.252	885.41
598.448	991.9
598.645	985.76
598.841	993.95
599.038	998.04
599.234	1082.01
599.431	1139.35
599.627	1071.77
599.824	1227.42
600.02	1184.41
600.217	1159.83
600.413	1358.49
600.609	1340.05
600.806	1622.67
601.002	1385.11
601.198	1485.46
601.395	1544.85
601.591	1643.15
601.787	1673.87
601.984	1755.79
602.18	1782.42
602.376	1804.94
602.572	2032.27
602.769	2163.34
602.965	2040.46
603.161	2216.58
603.357	2210.44
603.553	2402.95
603.75	2370.18
603.946	2415.24
604.142	2544.26
604.338	2634.37
604.534	2626.18
604.73	2773.63
604.926	2916.99
605.122	3148.41
605.318	3111.55
605.514	3246.71
605.71	3054.2
605.906	3496.57
606.102	3367.54
606.298	3676.79
606.494	3734.13
606.69	3895.92
606.886	3947.12
607.082	4119.15
607.278	4086.38
607.474	4207.21
607.67	4350.57
607.866	4473.45
608.062	4565.6
608.257	4784.74
608.453	4684.39
608.649	5108.32
608.845	5177.95
609.041	5102.17
609.236	5438.04
609.432	5515.86
609.628	5698.13
609.824	5866.07
610.019	5890.64
610.215	6144.59
610.411	6259.28
610.606	6533.7
610.802	6564.42
610.998	6672.96
611.193	7141.95
611.389	7033.41
611.584	7361.08
611.78	7180.86
611.976	7653.94
612.171	8004.14
612.367	8190.51
612.562	8251.95
612.758	8571.43
612.953	8614.44
613.149	9044.51
613.344	9220.64
613.539	9611.8
613.735	9896.47
613.93	10033.68
614.126	10134.03
614.321	10578.44
614.517	10709.51
614.712	11301.37
614.907	11407.87
615.103	11551.23
615.298	12022.26
615.493	12206.58
615.688	12491.24
615.884	12886.5
616.079	12929.51
616.274	13212.13
616.47	13754.84
616.665	14131.67
616.86	14582.22
617.055	14813.64
617.25	15184.32
617.445	15815.1
617.641	15692.22
617.836	16517.55
618.031	16495.02
618.226	17220
618.421	17531.3
618.616	17922.46
618.811	18076.05
619.006	19067.27
619.201	19300.74
619.396	19896.7
619.591	19884.41
619.786	20466.03
619.981	20730.22
620.176	21328.23
620.371	21856.61
620.566	22049.11
620.761	22716.75
620.956	23456.07
621.151	23474.5
621.346	24224.06
621.541	24117.56
621.735	25227.56
621.93	25254.19
622.125	25930.01
622.32	25917.73
622.515	26650.9
622.709	26974.48
622.904	28084.48
623.099	28319.99
623.294	28958.96
623.488	29202.67
623.683	30021.86
623.878	29931.75
624.072	30589.14
624.267	31201.49
624.462	31662.28
624.656	32258.24
624.851	32286.91
625.046	32678.07
625.24	33224.88
625.435	34013.35
625.629	34316.45
625.824	34902.17
626.018	35502.22
626.213	35207.31
626.407	36126.85
626.602	36681.85
626.796	36841.59
626.991	37132.4
627.185	37273.71
627.38	37507.18
627.574	38039.65
627.768	37832.81
627.963	38068.33
628.157	37972.07
628.352	38543.45
628.546	38017.13
628.74	39178.32
628.935	37965.93
629.129	38781.02
629.323	38170.72
629.517	38056.04
629.712	37879.91
629.906	37593.2
630.1	37308.53
630.294	37214.32
630.489	36755.58
630.683	36438.14
630.877	35451.02
631.071	34797.72
631.265	34584.73
631.459	34146.47
631.653	33030.32
631.848	32714.94
632.042	31723.72
632.236	31260.88
632.43	30109.92
632.624	29610.21
632.818	28854.51
633.012	27744.52
633.206	27013.39
633.4	26290.46
633.594	24977.71
633.788	24250.68
633.982	23451.97
634.176	22770
634.369	21778.78
634.563	20906.35
634.757	20148.6
634.951	19724.67
635.145	18899.34
635.339	17916.31
635.533	17107.37
635.726	16531.89
635.92	15868.34
636.114	15272.39
636.308	14791.11
636.501	14160.34
636.695	13627.87
636.889	12831.21
637.083	12376.56
637.276	12120.56
637.47	11348.48
637.664	11010.56
637.857	10727.94
638.051	10019.35
638.244	9806.36
638.438	9333.28
638.632	8991.27
638.825	8507.94
639.019	8249.9
639.212	7897.65
639.406	7653.94
639.599	7195.2
639.793	7232.06
639.986	6765.12
640.18	6517.32
640.373	6283.85
640.567	6054.48
640.76	5780.05
640.954	5761.62
641.147	5323.35
641.34	5157.47
641.534	4950.62
641.727	4975.2
641.92	4661.86
642.114	4471.4
642.307	4262.51
642.5	4186.73
642.694	3795.57
642.887	3727.99
643.08	3844.72
643.273	3418.74
643.467	3353.21
643.66	3205.75
643.853	3068.54
644.046	3003
644.239	2896.51
644.432	2912.89
644.626	2538.12
644.819	2587.27
645.012	2517.64
645.205	2267.78
645.398	2384.52
645.591	2118.28
645.784	2048.65
645.977	1940.11
646.17	1948.3
646.363	1878.67
646.556	1794.7
646.749	1575.57
646.942	1729.17
647.135	1573.52
647.328	1516.18
647.521	1456.79
647.714	1436.31
647.907	1354.39
648.099	1233.56
648.292	1333.91
648.485	1290.9
648.678	1344.15
648.871	1170.07
649.064	1178.26
649.256	1049.24
649.449	991.9
649.642	967.32
649.835	836.25
650.027	871.07
650.22	975.52
650.413	889.5
650.605	828.06
650.798	885.41
650.991	676.51
651.183	713.38
651.376	740
651.568	764.57
651.761	598.69
651.954	699.04
652.146	647.84
652.339	656.03
652.531	666.27
652.724	527.01
652.916	506.53
653.109	443.04
653.301	602.79
653.494	565.92
653.686	506.53
653.879	567.97
654.071	590.5
654.263	432.8
654.456	445.09
654.648	494.24
654.84	586.4
655.033	334.5
655.225	449.19
655.417	307.88
655.61	473.76
655.802	397.99
655.994	461.48
656.186	201.38
656.379	438.95
656.571	311.97
656.763	281.25
656.955	387.75
657.148	244.39
657.34	361.13
657.532	240.29
657.724	318.12
657.916	293.54
658.108	348.84
658.3	307.88
658.492	305.83
658.684	215.72
658.876	352.93
659.068	176.81
659.26	131.75
659.452	172.71
659.644	273.06
659.836	350.89
660.028	228.01
660.22	185
660.412	225.96
660.604	228.01
660.796	189.1
660.988	285.35
661.18	219.82
661.372	207.53
661.563	209.58
661.755	240.29
661.947	191.14
662.139	185
662.331	178.86
662.522	125.61
662.714	64.17
662.906	107.18
663.097	201.38
663.289	109.22
663.481	109.22
663.673	248.49
663.864	158.38
664.056	170.66
664.247	107.18
664.439	152.23
664.631	187.05
664.822	277.16
665.014	135.85
665.205	49.83
665.397	78.51
665.588	133.8
665.78	174.76
665.971	225.96
666.163	25.26
666.354	62.12
666.546	88.75
666.737	148.14
666.929	107.18
667.12	119.46
667.311	195.24
667.503	154.28
667.694	162.47
667.885	189.1
668.077	170.66
668.268	53.93
668.459	119.46
668.651	170.66
668.842	182.95
669.033	88.75
669.224	92.84
669.416	324.26
669.607	127.66
669.798	80.55
669.989	168.62
670.18	141.99
670.371	121.51
670.563	10.92
670.754	217.77
670.945	133.8
671.136	141.99
671.327	98.99
671.518	295.59
671.709	211.62
671.9	193.19
672.091	152.23
672.282	131.75
672.473	115.37
672.664	-15.7
672.855	137.9
673.046	141.99
673.237	213.67
673.428	158.38
673.619	129.7
673.809	51.88
674	238.25
674.191	185
674.382	111.27
674.573	70.31
674.764	103.08
674.954	201.38
675.145	51.88
675.336	25.26
675.527	121.51
675.717	80.55
675.908	37.55
676.099	109.22
676.289	150.18
676.48	33.45
676.671	101.03
676.861	113.32
677.052	148.14
677.243	131.75
677.433	84.65
677.624	154.28
677.814	164.52
678.005	117.42
678.195	217.77
678.386	62.12
678.576	125.61
678.767	43.69
678.957	86.7
679.148	223.91
679.338	232.1
679.529	152.23
679.719	172.71
679.909	176.81
680.1	248.49
680.29	297.64
680.481	152.23
680.671	150.18
680.861	187.05
681.052	207.53
681.242	115.37
681.432	268.97
681.622	170.66
681.813	23.21
682.003	199.34
682.193	107.18
682.383	180.9
682.573	154.28
682.764	164.52
682.954	193.19
683.144	191.14
683.334	92.84
683.524	156.33
683.714	211.62
683.904	189.1
684.094	197.29
684.284	197.29
684.474	262.82
684.664	295.59
684.854	289.45
685.044	148.14
685.234	191.14
685.424	160.42
685.614	146.09
685.804	234.15
685.994	228.01
686.184	207.53
686.374	176.81
686.564	185
686.753	199.34
686.943	62.12
687.133	121.51
687.323	137.9
687.513	213.67
687.702	182.95
687.892	127.66
688.082	285.35
688.272	271.01
688.461	162.47
688.651	279.21
688.841	260.77
689.03	217.77
689.22	146.09
689.41	234.15
689.599	197.29
689.789	80.55
689.979	236.2
690.168	170.66
690.358	215.72
690.547	209.58
690.737	164.52
690.926	223.91
691.116	268.97
691.305	262.82
691.495	166.57
691.684	84.65
691.874	193.19
692.063	176.81
692.252	205.48
692.442	158.38
692.631	105.13
692.82	98.99
693.01	219.82
693.199	150.18
693.388	185
693.578	180.9
693.767	242.34
693.956	225.96
694.146	154.28
694.335	201.38
694.524	148.14
694.713	160.42
694.902	187.05
695.092	117.42
695.281	187.05
695.47	211.62
695.659	86.7
695.848	189.1
696.037	107.18
696.226	289.45
696.415	168.62
696.604	314.02
696.793	246.44
696.982	195.24
697.171	369.32
697.36	117.42
697.549	236.2
697.738	72.36
697.927	191.14
698.116	101.03
698.305	164.52
698.494	166.57
698.683	92.84
698.872	309.93
699.061	160.42
699.25	17.07
699.438	162.47
699.627	82.6
699.816	277.16
700.005	55.98
700.193	103.08
700.382	254.63
700.571	156.33
700.76	246.44
700.948	250.53
701.137	162.47
701.326	266.92
701.514	101.03
701.703	209.58
701.892	191.14
702.08	311.97
702.269	127.66
702.457	129.7
702.646	256.68
702.834	92.84
703.023	182.95
703.212	164.52
703.4	215.72
703.589	82.6
703.777	144.04
703.965	182.95
704.154	60.07
704.342	80.55
704.531	162.47
704.719	172.71
704.907	203.43
705.096	39.59
705.284	125.61
705.472	141.99
705.661	156.33
705.849	223.91
706.037	230.06
706.226	182.95
706.414	146.09
706.602	64.17
706.79	223.91
706.979	156.33
707.167	113.32
707.355	-9.56
707.543	266.92
707.731	240.29
707.919	129.7
708.107	221.86
708.296	109.22
708.484	96.94
708.672	129.7
708.86	164.52
709.048	158.38
709.236	131.75
709.424	209.58
709.612	238.25
709.8	103.08
709.988	172.71
710.176	230.06
710.364	248.49
710.551	197.29
710.739	94.89
710.927	117.42
711.115	133.8
711.303	189.1
711.491	295.59
711.679	133.8
711.866	197.29
712.054	121.51
712.242	228.01
712.43	195.24
712.617	148.14
712.805	217.77
712.993	144.04
713.181	82.6
713.368	201.38
713.556	201.38
713.744	219.82
713.931	414.37
714.119	215.72
714.306	101.03
714.494	55.98
714.682	205.48
714.869	68.27
715.057	236.2
715.244	166.57
715.432	152.23
715.619	150.18
715.807	94.89
715.994	164.52
716.182	191.14
716.369	172.71
716.556	236.2
716.744	74.41
716.931	84.65
717.119	182.95
717.306	158.38
717.493	279.21
717.681	176.81
717.868	76.46
718.055	189.1
718.242	88.75
718.43	193.19
718.617	354.98
718.804	96.94
718.991	141.99
719.179	320.17
719.366	236.2
719.553	244.39
719.74	144.04
719.927	199.34
720.114	131.75
720.301	101.03
720.488	193.19
720.676	170.66
720.863	354.98
721.05	299.69
721.237	271.01
721.424	322.21
721.611	223.91
721.798	92.84
721.985	117.42
722.172	139.94
722.358	150.18
722.545	258.73
722.732	246.44
722.919	268.97
723.106	264.87
723.293	146.09
723.48	264.87
723.667	182.95
723.853	273.06
724.04	162.47
724.227	258.73
724.414	197.29
724.6	242.34
724.787	289.45
724.974	314.02
725.161	88.75
725.347	109.22
725.534	162.47
725.72	182.95
725.907	318.12
726.094	166.57
726.28	174.76
726.467	191.14
726.653	164.52
726.84	303.78
727.027	291.49
727.213	141.99
727.4	266.92
727.586	209.58
727.773	154.28
727.959	258.73
728.145	262.82
728.332	129.7
728.518	154.28
728.705	293.54
728.891	166.57
729.077	119.46
729.264	180.9
729.45	219.82
729.636	299.69
729.823	162.47
730.009	219.82
730.195	287.4
730.382	273.06
730.568	213.67
730.754	156.33
730.94	201.38
731.126	221.86
731.313	209.58
731.499	217.77
731.685	289.45
731.871	203.43
732.057	248.49
732.243	271.01
732.429	254.63
732.615	326.31
732.801	279.21
732.987	213.67
733.173	217.77
733.359	197.29
733.545	189.1
733.731	187.05
733.917	346.79
734.103	203.43
734.289	213.67
734.475	156.33
734.661	342.69
734.847	217.77
735.033	234.15
735.219	242.34
735.404	240.29
735.59	199.34
735.776	211.62
735.962	258.73
736.148	256.68
736.333	252.58
736.519	187.05
736.705	215.72
736.89	293.54
737.076	187.05
737.262	170.66
737.447	201.38
737.633	158.38
737.819	279.21
738.004	299.69
738.19	293.54
738.375	273.06
738.561	348.84
738.747	182.95
738.932	135.85
739.118	348.84
739.303	266.92
739.489	238.25
739.674	187.05
739.859	174.76
740.045	254.63
740.23	211.62
740.416	92.84
740.601	266.92
740.786	168.62
740.972	178.86
741.157	230.06
741.342	129.7
741.528	156.33
741.713	266.92
741.898	193.19
742.084	178.86
742.269	201.38
742.454	271.01
742.639	266.92
742.824	158.38
743.01	342.69
743.195	326.31
743.38	250.53
743.565	207.53
743.75	225.96
743.935	244.39
744.12	291.49
744.305	137.9
744.49	287.4
744.675	240.29
744.86	223.91
745.045	182.95
745.23	146.09
745.415	228.01
745.6	322.21
745.785	199.34
745.97	266.92
746.155	277.16
746.34	305.83
746.525	223.91
746.71	254.63
746.895	117.42
747.079	121.51
747.264	189.1
747.449	240.29
747.634	334.5
747.819	238.25
748.003	228.01
748.188	125.61
748.373	209.58
748.557	225.96
748.742	201.38
748.927	189.1
749.111	189.1
749.296	234.15
749.481	301.73
749.665	141.99
749.85	90.79
750.034	219.82
750.219	201.38
750.404	94.89
750.588	185
750.773	152.23
750.957	156.33
751.141	195.24
751.326	207.53
751.51	168.62
751.695	287.4
751.879	125.61
752.064	244.39
752.248	131.75
752.432	283.3
752.617	174.76
752.801	260.77
752.985	144.04
753.17	246.44
753.354	164.52
753.538	252.58
753.722	64.17
753.907	137.9
754.091	62.12
754.275	207.53
754.459	21.16
754.643	60.07
754.828	203.43
755.012	141.99
755.196	109.22
755.38	152.23
755.564	141.99
755.748	94.89
755.932	129.7
756.116	166.57
756.3	203.43
756.484	41.64
756.668	217.77
756.852	39.59
757.036	123.56
757.22	146.09
757.404	146.09
757.588	101.03
757.772	150.18
757.956	86.7
758.14	209.58
758.323	66.22
758.507	185
758.691	92.84
758.875	230.06
759.059	207.53
759.242	62.12
759.426	148.14
759.61	137.9
759.794	31.4
759.977	166.57
760.161	281.25
760.345	166.57
760.528	182.95
760.712	215.72
760.895	156.33
761.079	127.66
761.263	4.78
761.446	39.59
761.63	156.33
761.813	182.95
761.997	10.92
762.18	45.74
762.364	101.03
762.547	-32.08
762.731	82.6
762.914	105.13
763.098	70.31
763.281	98.99
763.464	58.03
763.648	109.22
763.831	123.56
764.015	41.64
764.198	121.51
764.381	105.13
764.564	33.45
764.748	115.37
764.931	176.81
765.114	76.46
765.297	199.34
765.481	35.5
765.664	78.51
765.847	68.27
766.03	223.91
766.213	31.4
766.397	70.31
766.58	70.31
766.763	144.04
766.946	141.99
767.129	64.17
767.312	27.31
767.495	84.65
767.678	10.92
767.861	78.51
768.044	113.32
768.227	107.18
768.41	-7.51
768.593	66.22
768.776	113.32
768.959	80.55
769.142	144.04
769.324	170.66
769.507	8.87
769.69	19.11
769.873	82.6
770.056	281.25
770.239	53.93
770.421	232.1
770.604	131.75
770.787	55.98
770.97	80.55
771.152	4.78
771.335	129.7
771.518	29.35
771.7	162.47
771.883	82.6
772.066	80.55
772.248	199.34
772.431	185
772.613	107.18
772.796	103.08
772.978	101.03
773.161	191.14
773.343	-9.56
773.526	-5.46
773.708	-62.8
773.891	-54.61
774.073	19.11
774.256	4.78
774.438	84.65
774.621	15.02
774.803	82.6
774.985	15.02
775.168	58.03
775.35	64.17
775.532	133.8
775.715	68.27
775.897	88.75
776.079	119.46
776.261	170.66
776.444	70.31
776.626	-17.75
776.808	-32.08
776.99	-36.18
777.173	80.55
777.355	29.35
777.537	88.75
777.719	-3.41
777.901	62.12
778.083	-11.61
778.265	-48.47
778.447	92.84
778.629	-27.99
778.811	10.92
778.993	35.5
779.175	109.22
779.357	-40.28
779.539	-75.09
779.721	86.7
779.903	49.83
780.085	39.59
780.267	78.51
780.449	19.11
780.631	105.13
780.812	113.32
780.994	39.59
781.176	55.98
781.358	17.07
781.54	21.16
781.721	123.56
781.903	74.41
782.085	-54.61
782.267	105.13
782.448	-83.28
782.63	-50.52
782.812	53.93
782.993	105.13
783.175	64.17
783.357	-3.41
783.538	51.88
783.72	-48.47
783.901	-3.41
784.083	25.26
784.264	92.84
784.446	-7.51
784.627	-9.56
784.809	131.75
784.99	-9.56
785.172	55.98
785.353	-9.56
785.535	-9.56
785.716	-11.61
785.897	-21.85
786.079	39.59
786.26	39.59
786.441	115.37
786.623	-50.52
786.804	-13.65
786.985	53.93
787.167	58.03
787.348	33.45
787.529	33.45
787.71	72.36
787.891	21.16
788.073	31.4
788.254	-36.18
788.435	154.28
788.616	58.03
788.797	-54.61
788.978	41.64
789.159	10.92
789.34	113.32
789.522	31.4
789.703	-97.62
789.884	84.65
790.065	17.07
790.246	105.13
790.427	-25.94
790.607	150.18
790.788	131.75
790.969	-71
791.15	8.87
791.331	4.78
791.512	8.87
791.693	-60.76
791.874	35.5
792.054	203.43
792.235	121.51
792.416	12.97
792.597	4.78
792.778	113.32
792.958	47.79
793.139	58.03
793.32	60.07
793.5	-97.62
793.681	68.27
793.862	43.69
794.042	17.07
794.223	33.45
794.404	66.22
794.584	-130.39
794.765	27.31
794.945	6.83
795.126	76.46
795.306	123.56
795.487	-19.8
795.667	35.5
795.848	-9.56
796.028	-9.56
796.209	53.93
796.389	33.45
796.57	43.69
796.75	-99.67
796.93	-3.41
797.111	-105.81
797.291	31.4
797.471	33.45
797.652	-30.04
797.832	-68.95
798.012	53.93
798.192	-52.56
798.373	-64.85
798.553	62.12
798.733	-15.7
798.913	-32.08
799.093	-32.08
799.274	6.83
799.454	107.18
799.634	58.03
799.814	101.03
799.994	146.09
800.174	-7.51
800.354	-38.23
800.534	-138.58
800.714	-17.75
800.894	-134.48
801.074	-85.33
801.254	-54.61
801.434	74.41
801.614	-32.08
801.794	-19.8
801.974	1618.58
802.154	27.31
802.334	70.31
802.514	2.73
802.693	45.74
802.873	2.73
803.053	144.04
803.233	70.31
803.413	-46.42
803.592	31.4
803.772	-1.37
803.952	27.31
804.131	-93.52
804.311	119.46
804.491	84.65
804.67	12.97
804.85	-54.61
805.03	-44.37
805.209	123.56
805.389	53.93
805.568	2.73
805.748	-3.41
805.928	33.45
806.107	49.83
806.287	21.16
806.466	64.17
806.646	23.21
806.825	15.02
807.004	-44.37
807.184	33.45
807.363	84.65
807.543	70.31
807.722	-118.1
807.901	137.9
808.081	19.11
808.26	-93.52
808.439	41.64
808.619	-1.37
808.798	-25.94
808.977	86.7
809.156	66.22
809.336	58.03
809.515	150.18
809.694	-81.24
809.873	-21.85
810.052	23.21
810.231	123.56
810.411	-48.47
810.59	53.93
810.769	-46.42
810.948	12.97
811.127	-169.3
811.306	-27.99
811.485	45.74
811.664	150.18
811.843	51.88
812.022	23.21
812.201	8.87
812.38	-109.91
812.559	41.64
812.737	-19.8
812.916	-46.42
813.095	27.31
813.274	-13.65
813.453	-56.66
813.632	-15.7
813.811	74.41
813.989	-54.61
814.168	64.17
814.347	-34.13
814.526	23.21
814.704	129.7
814.883	105.13
815.062	-23.89
815.24	17.07
815.419	-23.89
815.598	29.35
815.776	-103.76
815.955	21.16
816.133	-105.81
816.312	-23.89
816.49	-40.28
816.669	-17.75
816.847	-1.37
817.026	21.16
817.204	-34.13
817.383	-9.56
817.561	-52.56
817.74	23.21
817.918	-46.42
818.097	-40.28
818.275	-87.38
818.453	35.5
818.632	-1.37
818.81	-27.99
818.988	-75.09
819.167	-126.29
819.345	-25.94
819.523	-81.24
819.701	-32.08
819.879	98.99
820.058	17.07
820.236	31.4
820.414	-62.8
820.592	-9.56
820.77	0.68
820.948	-54.61
821.127	35.5
821.305	31.4
821.483	-68.95
821.661	107.18
821.839	25.26
822.017	-13.65
822.195	37.55
822.373	125.61
822.551	-9.56
822.729	-3.41
822.907	-134.48
823.085	55.98
823.262	-13.65
823.44	-19.8
823.618	-40.28
823.796	-42.32
823.974	-34.13
824.152	-3.41
824.329	-19.8
824.507	51.88
824.685	10.92
824.863	49.83
825.04	6.83
825.218	15.02
825.396	-21.85
825.574	37.55
825.751	25.26
825.929	47.79
826.107	-148.82
826.284	58.03
826.462	27.31
826.639	-25.94
826.817	-54.61
826.994	-17.75
827.172	-126.29
827.349	105.13
827.527	121.51
827.704	-17.75
827.882	137.9
828.059	10.92
828.237	-68.95
828.414	92.84
828.591	-23.89
828.769	15.02
828.946	-19.8
829.124	66.22
829.301	88.75
829.478	-62.8
829.655	15.02
829.833	4.78
830.01	-64.85
830.187	-11.61
830.364	-101.72
830.542	-23.89
830.719	113.32
830.896	78.51
831.073	39.59
831.25	62.12
831.427	10.92
831.604	10.92
831.782	4.78
831.959	33.45
832.136	10.92
832.313	25.26
832.49	41.64
832.667	27.31
832.844	-77.14
833.021	72.36
833.198	66.22
833.374	-23.89
833.551	37.55
833.728	-7.51
833.905	-7.51
834.082	-103.76
834.259	-34.13
834.436	96.94
834.612	-81.24
834.789	88.75
834.966	-58.71
835.143	-27.99
835.319	-138.58
835.496	10.92
835.673	-32.08
835.85	103.08
836.026	19.11
836.203	60.07
836.38	-34.13
836.556	-42.32
836.733	-36.18
836.909	127.66
837.086	-34.13
837.262	-66.9
837.439	-9.56
837.616	-68.95
837.792	-36.18
837.968	55.98
838.145	-159.06
838.321	-3.41
838.498	17.07
838.674	27.31
838.851	29.35
839.027	-34.13
839.203	-42.32
839.38	12.97
839.556	-1.37
839.732	29.35
839.909	-48.47
840.085	51.88
840.261	-71
840.437	-23.89
840.614	72.36
840.79	31.4
840.966	37.55
841.142	35.5
841.318	-93.52
841.494	113.32
841.671	23.21
841.847	0.68
842.023	-114
842.199	6.83
842.375	53.93
842.551	-169.3
842.727	-81.24
842.903	90.79
843.079	-66.9
843.255	109.22
843.431	-52.56
843.607	-5.46
843.783	-157.01
843.959	6.83
844.134	-44.37
844.31	105.13
844.486	-23.89
844.662	-60.76
844.838	-21.85
845.013	33.45
845.189	2.73
845.365	0.68
845.541	8.87
845.716	12.97
845.892	58.03
846.068	-73.04
846.244	-79.19
846.419	33.45
846.595	-85.33
846.77	-120.15
846.946	-42.32
847.122	35.5
847.297	-81.24
847.473	121.51
847.648	-73.04
847.824	0.68
847.999	-134.48
848.175	-3.41
848.35	-7.51
848.526	135.85
848.701	43.69
848.876	80.55
849.052	60.07
849.227	17.07
849.403	-13.65
849.578	-38.23
849.753	41.64
849.929	47.79
850.104	-138.58
850.279	39.59
850.454	-52.56
850.63	29.35
850.805	-27.99
850.98	31.4
851.155	-23.89
851.33	43.69
851.505	-42.32
851.681	109.22
851.856	-44.37
852.031	8.87
852.206	41.64
852.381	-105.81
852.556	-13.65
852.731	-38.23
852.906	-30.04
853.081	41.64
853.256	117.42
853.431	-52.56
853.606	-56.66
853.781	-62.8
853.956	-154.96
854.131	-56.66
854.305	-68.95
854.48	-134.48
854.655	-44.37
854.83	-93.52
855.005	6.83
855.18	-3.41
855.354	-13.65
855.529	29.35
855.704	25.26
855.879	12.97
856.053	-124.24
856.228	-34.13
856.403	-40.28
856.577	19.11
856.752	-161.11
856.926	-11.61
857.101	29.35
857.276	-71
857.45	-50.52
857.625	109.22
857.799	-23.89
857.974	4.78
858.148	-85.33
858.323	8.87
858.497	-27.99
858.672	-58.71
858.846	-91.48
859.02	19.11
859.195	-17.75
859.369	-13.65
859.543	72.36
859.718	29.35
859.892	25.26
860.066	58.03
860.241	-19.8
860.415	6.83
860.589	-77.14
860.763	-13.65
860.938	-48.47
861.112	-34.13
861.286	-19.8
861.46	-126.29
861.634	-15.7
861.808	96.94
861.982	-30.04
862.157	-116.05
862.331	-73.04
862.505	-132.44
862.679	-48.47
862.853	-77.14
863.027	-40.28
863.201	84.65
863.375	-13.65
863.549	64.17
863.722	-23.89
863.896	187.05
864.07	-27.99
864.244	51.88
864.418	-11.61
864.592	15.02
864.766	19.11
864.939	17.07
865.113	10.92
865.287	141.99
865.461	-56.66
865.634	4.78
865.808	-79.19
865.982	-66.9
866.156	-130.39
866.329	-87.38
866.503	-62.8
866.676	125.61
866.85	-23.89
867.024	-111.96
867.197	43.69
867.371	68.27
867.544	-11.61
867.718	-95.57
867.891	80.55
868.065	-32.08
868.238	-52.56
868.412	76.46
868.585	2.73
868.759	-17.75
868.932	-30.04
869.105	-87.38
869.279	-17.75
869.452	-116.05
869.625	-5.46
869.799	-62.8
869.972	-85.33
870.145	-93.52
870.319	19.11
870.492	23.21
870.665	-50.52
870.838	-99.67
871.011	-105.81
871.185	-1.37
871.358	-50.52
871.531	23.21
871.704	-30.04
871.877	-5.46
872.05	-101.72
872.223	-75.09
872.396	88.75
872.569	6.83
872.742	-66.9
872.915	12.97
873.088	-91.48
873.261	-73.04
873.434	74.41
873.607	55.98
873.78	80.55
873.953	-111.96
874.126	-19.8
874.299	43.69
874.471	-13.65
874.644	-52.56
874.817	6.83
874.99	141.99
875.163	-122.2
875.335	19.11
875.508	-75.09
875.681	123.56
875.853	-1.37
876.026	27.31
876.199	72.36
876.371	-21.85
876.544	-15.7
876.717	-66.9
876.889	-17.75
877.062	41.64
877.234	-97.62
877.407	-130.39
877.579	-5.46
877.752	-3.41
877.924	29.35
878.097	-52.56
878.269	-36.18
878.442	88.75
878.614	10.92
878.786	23.21
878.959	-81.24
879.131	-81.24
879.303	-32.08
879.476	-32.08
879.648	80.55
879.82	-58.71
879.993	-58.71
880.165	-32.08
880.337	-89.43
880.509	-34.13
880.681	-50.52
880.854	-163.15
881.026	37.55
881.198	127.66
881.37	-23.89
881.542	-40.28
881.714	-17.75
881.886	51.88
882.058	-9.56
882.23	-1.37
882.402	12.97
882.574	23.21
882.746	70.31
882.918	6.83
883.09	-38.23
883.262	2.73
883.434	6.83
883.606	-132.44
883.778	-13.65
883.95	109.22
884.122	-54.61
884.293	74.41
884.465	53.93
884.637	-30.04
884.809	4.78
884.98	62.12
885.152	-13.65
885.324	-5.46
885.496	-27.99
885.667	-105.81
885.839	-21.85
886.011	92.84
886.182	62.12
886.354	-60.76
886.525	6.83
886.697	-62.8
886.869	-23.89
887.04	-52.56
887.212	105.13
887.383	131.75
887.555	4.78
887.726	-50.52
887.897	-54.61
888.069	-36.18
888.24	8.87
888.412	-7.51
888.583	-124.24
888.754	-3.41
888.926	-44.37
889.097	94.89
889.268	-118.1
889.44	21.16
889.611	-185.68
889.782	-105.81
889.953	-56.66
890.125	72.36
890.296	-40.28
890.467	-81.24
890.638	-77.14
890.809	12.97
890.98	-9.56
891.151	-42.32
891.323	88.75
891.494	-9.56
891.665	37.55
891.836	-3.41
892.007	41.64
892.178	-19.8
892.349	-54.61
892.52	-40.28
892.691	-21.85
892.862	-91.48
893.032	-128.34
893.203	-40.28
893.374	45.74
893.545	90.79
893.716	-99.67
893.887	139.94
894.057	-75.09
894.228	-19.8
894.399	-124.24
894.57	96.94
894.74	21.16
894.911	-27.99
895.082	-138.58
895.253	-66.9
895.423	-3.41
895.594	111.27
895.764	0.68
895.935	-73.04
896.106	-17.75
896.276	-68.95
896.447	12.97
896.617	-68.95
896.788	-34.13
896.958	-60.76
897.129	-56.66
897.299	-44.37
897.47	78.51
897.64	47.79
897.81	37.55
897.981	12.97
898.151	-105.81
898.322	37.55
898.492	-89.43
898.662	-38.23
898.832	-128.34
899.003	-58.71
899.173	-34.13
899.343	-21.85
899.513	-157.01
