Data from USB4F104151__190__11-05-19-532.txt Node

Date: Wed Feb 26 11:05:19 EST 2025
User: louis
Spectrometer: USB4F10415
Trigger mode: 4
Integration Time (sec): 1.000000E-1
Scans to average: 1
Electric dark correction enabled: true
Nonlinearity correction enabled: false
Boxcar width: 0
XAxis mode: Wavelengths
Number of Pixels in Spectrum: 3648
>>>>>Begin Spectral Data<<<<<
178.204	-374.44
178.424	-374.44
178.644	-374.44
178.864	-394.92
179.084	-466.6
179.304	37.2
179.524	-38.57
179.744	-18.09
179.964	-30.38
180.184	33.11
180.404	33.11
180.624	-57
180.844	-59.05
181.064	-50.86
181.283	61.78
181.503	-1.71
181.723	90.45
181.943	-28.33
182.163	239.95
182.383	12.63
182.602	74.07
182.822	160.08
183.042	123.22
183.262	4.44
183.482	47.44
183.701	90.45
183.921	14.68
184.141	-63.15
184.361	41.3
184.58	61.78
184.8	45.4
185.02	-30.38
185.239	26.96
185.459	39.25
185.679	86.36
185.898	-138.92
186.118	80.21
186.338	-7.85
186.557	108.88
186.777	0.34
186.997	10.58
187.216	-13.99
187.436	164.18
187.655	35.16
187.875	45.4
188.095	33.11
188.314	172.37
188.534	102.74
188.753	61.78
188.973	184.66
189.192	153.94
189.412	-28.33
189.631	-36.52
189.851	104.79
190.07	180.56
190.29	-104.11
190.509	-3.75
190.729	41.3
190.948	49.49
191.168	280.91
191.387	96.6
191.607	8.53
191.826	43.35
192.045	14.68
192.265	45.4
192.484	194.9
192.704	49.49
192.923	-65.19
193.142	201.04
193.362	112.98
193.581	90.45
193.8	84.31
194.02	145.75
194.239	59.73
194.458	112.98
194.678	-13.99
194.897	-5.8
195.116	61.78
195.335	131.41
195.555	65.88
195.774	-7.85
195.993	53.59
196.212	8.53
196.432	112.98
196.651	43.35
196.87	51.54
197.089	221.52
197.308	63.83
197.528	45.4
197.747	-32.43
197.966	92.5
198.185	102.74
198.404	20.82
198.623	145.75
198.842	135.51
199.062	94.55
199.281	69.97
199.5	0.34
199.719	135.51
199.938	57.68
200.157	94.55
200.376	47.44
200.595	147.8
200.814	31.06
201.033	-24.23
201.252	110.93
201.471	49.49
201.69	61.78
201.909	76.12
202.128	104.79
202.347	129.36
202.566	10.58
202.785	-24.23
203.004	22.87
203.223	317.78
203.442	0.34
203.661	-67.24
203.879	131.41
204.098	57.68
204.317	-73.39
204.536	96.6
204.755	133.46
204.974	86.36
205.193	-30.38
205.411	155.99
205.63	123.22
205.849	14.68
206.068	76.12
206.287	14.68
206.505	100.69
206.724	65.88
206.943	37.2
207.162	-69.29
207.381	98.64
207.599	86.36
207.818	-11.95
208.037	14.68
208.255	14.68
208.474	69.97
208.693	6.49
208.911	-42.67
209.13	76.12
209.349	153.94
209.567	76.12
209.786	63.83
210.005	145.75
210.223	33.11
210.442	-130.73
210.661	14.68
210.879	37.2
211.098	18.77
211.316	8.53
211.535	76.12
211.753	100.69
211.972	74.07
212.191	-13.99
212.409	-1.71
212.628	80.21
212.846	18.77
213.065	123.22
213.283	69.97
213.502	29.01
213.72	14.68
213.938	33.11
214.157	10.58
214.375	153.94
214.594	14.68
214.812	123.22
215.031	24.92
215.249	78.16
215.467	104.79
215.686	12.63
215.904	155.99
216.122	67.92
216.341	145.75
216.559	125.27
216.778	104.79
216.996	166.23
217.214	24.92
217.432	-26.28
217.651	-28.33
217.869	94.55
218.087	8.53
218.306	51.54
218.524	20.82
218.742	-28.33
218.96	121.17
219.179	-13.99
219.397	18.77
219.615	213.33
219.833	53.59
220.051	-42.67
220.27	96.6
220.488	92.5
220.706	155.99
220.924	-97.96
221.142	-93.87
221.36	143.7
221.578	82.26
221.796	-3.75
222.015	-40.62
222.233	31.06
222.451	153.94
222.669	4.44
222.887	88.4
223.105	18.77
223.323	74.07
223.541	-73.39
223.759	14.68
223.977	18.77
224.195	164.18
224.413	141.65
224.631	78.16
224.849	35.16
225.067	182.61
225.285	-34.47
225.503	0.34
225.721	-89.77
225.939	74.07
226.157	96.6
226.375	250.19
226.592	-7.85
226.81	72.02
227.028	102.74
227.246	178.51
227.464	55.64
227.682	194.9
227.9	67.92
228.117	45.4
228.335	84.31
228.553	35.16
228.771	8.53
228.989	158.03
229.206	125.27
229.424	45.4
229.642	51.54
229.86	-26.28
230.077	18.77
230.295	69.97
230.513	47.44
230.731	69.97
230.948	151.89
231.166	145.75
231.384	63.83
231.601	-26.28
231.819	176.47
232.037	22.87
232.254	-9.9
232.472	49.49
232.689	78.16
232.907	96.6
233.125	-1.71
233.342	-46.76
233.56	22.87
233.777	39.25
233.995	59.73
234.213	84.31
234.43	129.36
234.648	55.64
234.865	-9.9
235.083	162.13
235.3	90.45
235.518	211.28
235.735	145.75
235.953	47.44
236.17	59.73
236.388	10.58
236.605	0.34
236.822	110.93
237.04	117.08
237.257	6.49
237.475	-24.23
237.692	78.16
237.909	57.68
238.127	90.45
238.344	31.06
238.562	125.27
238.779	-16.04
238.996	22.87
239.214	123.22
239.431	57.68
239.648	-48.81
239.865	76.12
240.083	43.35
240.3	12.63
240.517	74.07
240.735	59.73
240.952	127.32
241.169	104.79
241.386	18.77
241.603	43.35
241.821	-13.99
242.038	72.02
242.255	119.12
242.472	-48.81
242.689	115.03
242.907	61.78
243.124	47.44
243.341	43.35
243.558	20.82
243.775	53.59
243.992	-40.62
244.209	90.45
244.426	160.08
244.643	26.96
244.86	37.2
245.078	110.93
245.295	20.82
245.512	74.07
245.729	2.39
245.946	176.47
246.163	37.2
246.38	20.82
246.597	55.64
246.814	53.59
247.031	-5.8
247.248	24.92
247.464	127.32
247.681	82.26
247.898	96.6
248.115	14.68
248.332	14.68
248.549	108.88
248.766	207.19
248.983	137.56
249.2	98.64
249.417	135.51
249.633	12.63
249.85	61.78
250.067	35.16
250.284	41.3
250.501	63.83
250.717	92.5
250.934	-20.14
251.151	26.96
251.368	29.01
251.585	57.68
251.801	47.44
252.018	-34.47
252.235	102.74
252.451	-46.76
252.668	-22.19
252.885	108.88
253.102	57.68
253.318	-24.23
253.535	-54.95
253.752	4.44
253.968	59.73
254.185	-52.91
254.401	-11.95
254.618	106.84
254.835	-34.47
255.051	117.08
255.268	100.69
255.484	84.31
255.701	33.11
255.917	76.12
256.134	63.83
256.351	69.97
256.567	-67.24
256.784	2.39
257	-20.14
257.217	110.93
257.433	147.8
257.65	86.36
257.866	125.27
258.082	-38.57
258.299	-24.23
258.515	59.73
258.732	-13.99
258.948	4.44
259.165	65.88
259.381	-5.8
259.597	119.12
259.814	45.4
260.03	18.77
260.246	-32.43
260.463	76.12
260.679	104.79
260.895	74.07
261.112	57.68
261.328	90.45
261.544	-71.34
261.761	190.8
261.977	-50.86
262.193	24.92
262.409	127.32
262.626	72.02
262.842	18.77
263.058	43.35
263.274	65.88
263.49	39.25
263.707	78.16
263.923	63.83
264.139	-97.96
264.355	49.49
264.571	6.49
264.787	55.64
265.004	121.17
265.22	72.02
265.436	-44.71
265.652	82.26
265.868	69.97
266.084	-61.1
266.3	-54.95
266.516	14.68
266.732	31.06
266.948	55.64
267.164	-3.75
267.38	61.78
267.596	47.44
267.812	137.56
268.028	26.96
268.244	51.54
268.46	63.83
268.676	-3.75
268.892	74.07
269.108	-16.04
269.324	-34.47
269.54	-71.34
269.756	78.16
269.972	-11.95
270.188	51.54
270.403	112.98
270.619	-38.57
270.835	24.92
271.051	65.88
271.267	-16.04
271.483	-7.85
271.698	84.31
271.914	86.36
272.13	18.77
272.346	-7.85
272.562	-16.04
272.777	149.84
272.993	20.82
273.209	-9.9
273.425	100.69
273.64	-59.05
273.856	129.36
274.072	-52.91
274.287	16.73
274.503	112.98
274.719	61.78
274.934	-42.67
275.15	51.54
275.366	10.58
275.581	37.2
275.797	-38.57
276.012	57.68
276.228	26.96
276.444	55.64
276.659	74.07
276.875	-11.95
277.09	61.78
277.306	35.16
277.521	121.17
277.737	31.06
277.952	55.64
278.168	-18.09
278.383	53.59
278.599	76.12
278.814	51.54
279.03	63.83
279.245	102.74
279.461	115.03
279.676	129.36
279.892	-28.33
280.107	-30.38
280.322	61.78
280.538	106.84
280.753	-44.71
280.969	41.3
281.184	49.49
281.399	86.36
281.615	53.59
281.83	86.36
282.045	-87.72
282.26	-38.57
282.476	61.78
282.691	74.07
282.906	29.01
283.122	135.51
283.337	45.4
283.552	80.21
283.767	10.58
283.983	110.93
284.198	-50.86
284.413	24.92
284.628	8.53
284.843	24.92
285.058	47.44
285.274	24.92
285.489	-9.9
285.704	45.4
285.919	-46.76
286.134	24.92
286.349	53.59
286.564	33.11
286.779	108.88
286.995	26.96
287.21	-67.24
287.425	24.92
287.64	-44.71
287.855	123.22
288.07	-44.71
288.285	39.25
288.5	72.02
288.715	123.22
288.93	-9.9
289.145	8.53
289.36	133.46
289.575	-13.99
289.79	131.41
290.004	16.73
290.219	100.69
290.434	-59.05
290.649	-40.62
290.864	45.4
291.079	26.96
291.294	41.3
291.509	90.45
291.724	43.35
291.938	10.58
292.153	43.35
292.368	-5.8
292.583	121.17
292.798	76.12
293.012	61.78
293.227	29.01
293.442	82.26
293.657	137.56
293.871	37.2
294.086	10.58
294.301	123.22
294.516	151.89
294.73	22.87
294.945	-42.67
295.16	35.16
295.374	102.74
295.589	92.5
295.804	35.16
296.018	12.63
296.233	119.12
296.447	80.21
296.662	8.53
296.877	92.5
297.091	106.84
297.306	12.63
297.52	43.35
297.735	26.96
297.949	59.73
298.164	31.06
298.378	121.17
298.593	-24.23
298.807	39.25
299.022	86.36
299.236	137.56
299.451	37.2
299.665	37.2
299.88	65.88
300.094	86.36
300.309	-73.39
300.523	80.21
300.737	69.97
300.952	106.84
301.166	26.96
301.381	-11.95
301.595	6.49
301.809	90.45
302.024	33.11
302.238	-5.8
302.452	164.18
302.667	-11.95
302.881	166.23
303.095	72.02
303.309	139.6
303.524	4.44
303.738	2.39
303.952	57.68
304.166	82.26
304.381	-73.39
304.595	100.69
304.809	35.16
305.023	-13.99
305.237	-73.39
305.452	18.77
305.666	51.54
305.88	117.08
306.094	184.66
306.308	112.98
306.522	57.68
306.736	65.88
306.95	82.26
307.164	67.92
307.379	-24.23
307.593	135.51
307.807	143.7
308.021	98.64
308.235	121.17
308.449	-97.96
308.663	63.83
308.877	155.99
309.091	76.12
309.305	158.03
309.519	-65.19
309.733	131.41
309.947	-93.87
310.161	115.03
310.374	151.89
310.588	141.65
310.802	-71.34
311.016	33.11
311.23	55.64
311.444	53.59
311.658	33.11
311.872	145.75
312.085	143.7
312.299	100.69
312.513	172.37
312.727	123.22
312.941	-59.05
313.154	94.55
313.368	74.07
313.582	51.54
313.796	29.01
314.009	102.74
314.223	147.8
314.437	29.01
314.651	49.49
314.864	-11.95
315.078	-40.62
315.292	-106.15
315.505	-28.33
315.719	45.4
315.933	26.96
316.146	14.68
316.36	24.92
316.573	151.89
316.787	86.36
317.001	39.25
317.214	-18.09
317.428	55.64
317.641	0.34
317.855	78.16
318.068	88.4
318.282	37.2
318.495	211.28
318.709	76.12
318.922	76.12
319.136	65.88
319.349	207.19
319.563	100.69
319.776	176.47
319.99	-46.76
320.203	6.49
320.417	47.44
320.63	160.08
320.843	166.23
321.057	45.4
321.27	-34.47
321.483	78.16
321.697	127.32
321.91	6.49
322.124	96.6
322.337	12.63
322.55	-22.19
322.763	8.53
322.977	-11.95
323.19	-16.04
323.403	59.73
323.617	29.01
323.83	29.01
324.043	12.63
324.256	94.55
324.469	-57
324.683	106.84
324.896	45.4
325.109	-3.75
325.322	-67.24
325.535	178.51
325.748	84.31
325.962	39.25
326.175	18.77
326.388	65.88
326.601	119.12
326.814	63.83
327.027	41.3
327.24	100.69
327.453	-36.52
327.666	67.92
327.879	125.27
328.092	55.64
328.305	82.26
328.518	-11.95
328.731	-44.71
328.944	45.4
329.157	33.11
329.37	33.11
329.583	190.8
329.796	174.42
330.009	-93.87
330.222	106.84
330.435	145.75
330.648	20.82
330.861	10.58
331.073	-5.8
331.286	125.27
331.499	12.63
331.712	-7.85
331.925	121.17
332.138	10.58
332.35	94.55
332.563	-36.52
332.776	145.75
332.989	69.97
333.202	24.92
333.414	47.44
333.627	51.54
333.84	-20.14
334.053	51.54
334.265	-22.19
334.478	55.64
334.691	147.8
334.903	51.54
335.116	-3.75
335.329	47.44
335.541	86.36
335.754	149.84
335.966	47.44
336.179	14.68
336.392	16.73
336.604	74.07
336.817	121.17
337.029	67.92
337.242	121.17
337.454	53.59
337.667	4.44
337.88	102.74
338.092	160.08
338.305	63.83
338.517	41.3
338.729	-7.85
338.942	141.65
339.154	-63.15
339.367	-40.62
339.579	61.78
339.792	-5.8
340.004	121.17
340.217	72.02
340.429	37.2
340.641	-34.47
340.854	4.44
341.066	6.49
341.278	135.51
341.491	162.13
341.703	82.26
341.915	-5.8
342.128	110.93
342.34	12.63
342.552	12.63
342.764	108.88
342.977	47.44
343.189	63.83
343.401	33.11
343.613	-63.15
343.826	-1.71
344.038	-59.05
344.25	88.4
344.462	-40.62
344.674	139.6
344.886	14.68
345.099	133.46
345.311	53.59
345.523	-20.14
345.735	-40.62
345.947	139.6
346.159	84.31
346.371	43.35
346.583	10.58
346.795	172.37
347.007	57.68
347.219	78.16
347.431	-16.04
347.643	112.98
347.855	-16.04
348.067	162.13
348.279	57.68
348.491	-3.75
348.703	143.7
348.915	65.88
349.127	-57
349.339	33.11
349.551	-5.8
349.763	57.68
349.975	33.11
350.187	149.84
350.399	123.22
350.61	84.31
350.822	8.53
351.034	35.16
351.246	31.06
351.458	67.92
351.669	100.69
351.881	31.06
352.093	51.54
352.305	53.59
352.517	61.78
352.728	166.23
352.94	94.55
353.152	94.55
353.363	-34.47
353.575	53.59
353.787	145.75
353.999	37.2
354.21	63.83
354.422	4.44
354.633	69.97
354.845	22.87
355.057	26.96
355.268	67.92
355.48	90.45
355.692	-13.99
355.903	29.01
356.115	-22.19
356.326	-75.43
356.538	145.75
356.749	106.84
356.961	78.16
357.172	86.36
357.384	16.73
357.595	215.38
357.807	37.2
358.018	-26.28
358.23	78.16
358.441	115.03
358.653	115.03
358.864	49.49
359.075	-75.43
359.287	86.36
359.498	51.54
359.709	59.73
359.921	84.31
360.132	98.64
360.344	117.08
360.555	-24.23
360.766	29.01
360.977	-59.05
361.189	84.31
361.4	43.35
361.611	194.9
361.823	119.12
362.034	86.36
362.245	24.92
362.456	63.83
362.667	63.83
362.879	-63.15
363.09	35.16
363.301	16.73
363.512	63.83
363.723	-48.81
363.935	-5.8
364.146	94.55
364.357	18.77
364.568	78.16
364.779	-122.54
364.99	141.65
365.201	43.35
365.412	96.6
365.623	-100.01
365.834	37.2
366.045	43.35
366.256	61.78
366.467	84.31
366.678	31.06
366.889	16.73
367.1	33.11
367.311	166.23
367.522	74.07
367.733	86.36
367.944	115.03
368.155	-38.57
368.366	133.46
368.577	51.54
368.788	94.55
368.999	0.34
369.209	53.59
369.42	188.75
369.631	254.29
369.842	139.6
370.053	-61.1
370.264	61.78
370.474	0.34
370.685	31.06
370.896	61.78
371.107	117.08
371.317	80.21
371.528	51.54
371.739	178.51
371.95	112.98
372.16	133.46
372.371	-83.63
372.582	18.77
372.792	41.3
373.003	26.96
373.214	57.68
373.424	137.56
373.635	-18.09
373.846	104.79
374.056	45.4
374.267	45.4
374.477	53.59
374.688	-7.85
374.898	72.02
375.109	41.3
375.319	72.02
375.53	121.17
375.74	88.4
375.951	-9.9
376.161	33.11
376.372	164.18
376.582	29.01
376.793	-34.47
377.003	-42.67
377.214	39.25
377.424	125.27
377.635	20.82
377.845	76.12
378.055	139.6
378.266	-1.71
378.476	88.4
378.686	80.21
378.897	108.88
379.107	131.41
379.317	158.03
379.528	22.87
379.738	65.88
379.948	-69.29
380.158	84.31
380.369	90.45
380.579	72.02
380.789	43.35
380.999	84.31
381.21	88.4
381.42	125.27
381.63	10.58
381.84	104.79
382.05	102.74
382.261	143.7
382.471	94.55
382.681	18.77
382.891	184.66
383.101	94.55
383.311	-28.33
383.521	-32.43
383.731	121.17
383.941	12.63
384.151	39.25
384.361	57.68
384.571	106.84
384.781	57.68
384.991	254.29
385.201	201.04
385.411	106.84
385.621	26.96
385.831	117.08
386.041	10.58
386.251	-3.75
386.461	90.45
386.671	61.78
386.881	55.64
387.091	41.3
387.301	121.17
387.511	45.4
387.72	96.6
387.93	149.84
388.14	-69.29
388.35	119.12
388.56	55.64
388.769	63.83
388.979	37.2
389.189	-5.8
389.399	51.54
389.609	43.35
389.818	112.98
390.028	131.41
390.238	112.98
390.447	-69.29
390.657	78.16
390.867	-24.23
391.076	-28.33
391.286	72.02
391.496	-42.67
391.705	8.53
391.915	186.71
392.125	106.84
392.334	8.53
392.544	135.51
392.753	-9.9
392.963	69.97
393.172	31.06
393.382	-13.99
393.591	162.13
393.801	2.39
394.01	205.14
394.22	127.32
394.429	76.12
394.639	-11.95
394.848	45.4
395.058	133.46
395.267	31.06
395.477	69.97
395.686	43.35
395.895	172.37
396.105	162.13
396.314	112.98
396.524	-63.15
396.733	41.3
396.942	74.07
397.152	65.88
397.361	131.41
397.57	6.49
397.78	69.97
397.989	137.56
398.198	244.05
398.407	39.25
398.617	2.39
398.826	59.73
399.035	41.3
399.244	90.45
399.453	37.2
399.663	20.82
399.872	84.31
400.081	8.53
400.29	137.56
400.499	-5.8
400.708	123.22
400.917	74.07
401.127	72.02
401.336	47.44
401.545	178.51
401.754	106.84
401.963	96.6
402.172	20.82
402.381	-69.29
402.59	2.39
402.799	39.25
403.008	211.28
403.217	65.88
403.426	90.45
403.635	-30.38
403.844	0.34
404.053	-18.09
404.262	69.97
404.471	178.51
404.68	151.89
404.888	119.12
405.097	53.59
405.306	-13.99
405.515	172.37
405.724	8.53
405.933	125.27
406.142	49.49
406.35	108.88
406.559	49.49
406.768	61.78
406.977	188.75
407.185	92.5
407.394	96.6
407.603	-7.85
407.812	80.21
408.02	151.89
408.229	84.31
408.438	45.4
408.646	-79.53
408.855	8.53
409.064	57.68
409.272	18.77
409.481	94.55
409.69	14.68
409.898	-22.19
410.107	145.75
410.315	123.22
410.524	90.45
410.733	78.16
410.941	51.54
411.15	153.94
411.358	127.32
411.567	155.99
411.775	67.92
411.984	86.36
412.192	63.83
412.401	47.44
412.609	164.18
412.818	201.04
413.026	123.22
413.234	37.2
413.443	26.96
413.651	33.11
413.86	-26.28
414.068	182.61
414.276	235.86
414.485	53.59
414.693	98.64
414.901	227.67
415.11	35.16
415.318	55.64
415.526	29.01
415.734	90.45
415.943	72.02
416.151	127.32
416.359	63.83
416.567	67.92
416.776	145.75
416.984	108.88
417.192	174.42
417.4	63.83
417.608	33.11
417.817	26.96
418.025	67.92
418.233	209.23
418.441	8.53
418.649	14.68
418.857	67.92
419.065	160.08
419.273	37.2
419.481	125.27
419.689	65.88
419.897	59.73
420.105	29.01
420.313	110.93
420.521	88.4
420.729	133.46
420.937	100.69
421.145	-81.58
421.353	92.5
421.561	166.23
421.769	72.02
421.977	-13.99
422.185	115.03
422.393	-20.14
422.601	174.42
422.809	129.36
423.017	74.07
423.224	86.36
423.432	180.56
423.64	20.82
423.848	65.88
424.056	-1.71
424.263	190.8
424.471	24.92
424.679	225.62
424.887	-46.76
425.094	192.85
425.302	61.78
425.51	-3.75
425.718	143.7
425.925	49.49
426.133	61.78
426.341	221.52
426.548	-7.85
426.756	100.69
426.964	129.36
427.171	-34.47
427.379	57.68
427.586	22.87
427.794	162.13
428.001	94.55
428.209	102.74
428.417	231.76
428.624	155.99
428.832	123.22
429.039	119.12
429.247	158.03
429.454	131.41
429.662	287.06
429.869	176.47
430.076	112.98
430.284	205.14
430.491	178.51
430.699	196.95
430.906	274.77
431.114	174.42
431.321	147.8
431.528	166.23
431.736	223.57
431.943	270.67
432.15	190.8
432.358	221.52
432.565	303.44
432.772	57.68
432.979	151.89
433.187	164.18
433.394	282.96
433.601	176.47
433.808	317.78
434.016	295.25
434.223	252.24
434.43	221.52
434.637	311.63
434.844	342.35
435.052	237.91
435.259	366.93
435.466	274.77
435.673	307.54
435.88	301.39
436.087	358.74
436.294	420.17
436.501	389.46
436.708	278.87
436.915	321.87
437.122	416.08
437.329	305.49
437.537	416.08
437.743	397.65
437.95	514.38
438.157	450.89
438.364	414.03
438.571	420.17
438.778	473.42
438.985	547.15
439.192	504.14
439.399	485.71
439.606	489.81
439.813	551.24
440.02	663.88
440.227	780.62
440.433	637.26
440.64	631.12
440.847	676.17
441.054	643.4
441.261	799.05
441.467	710.99
441.674	706.89
441.881	905.54
442.088	809.29
442.294	905.54
442.501	926.02
442.708	962.89
442.914	870.73
443.121	981.32
443.328	960.84
443.534	1143.11
443.741	1077.57
443.948	1001.8
444.154	1141.06
444.361	1331.52
444.568	1345.86
444.774	1222.98
444.981	1165.64
445.187	1354.05
445.394	1419.58
445.6	1366.34
445.807	1601.85
446.013	1583.42
446.22	1571.13
446.426	1673.53
446.633	1739.07
446.839	1857.85
447.046	1700.16
447.252	1907
447.459	1995.06
447.665	2060.6
447.871	2101.56
448.078	2300.21
448.284	2267.44
448.491	2388.27
448.697	2529.58
448.903	2552.11
449.11	2660.65
449.316	2642.22
449.522	2865.45
449.728	2824.49
449.935	3035.43
450.141	3004.71
450.347	3252.52
450.553	3168.55
450.76	3285.28
450.966	3500.32
451.172	3655.97
451.378	3680.54
451.584	3727.64
451.791	4116.76
451.997	4200.73
452.203	4229.4
452.409	4411.67
452.615	4770.06
452.821	4499.73
453.027	4776.2
453.233	5257.48
453.44	5034.25
453.646	5251.33
453.852	5572.86
454.058	5568.77
454.264	6019.32
454.47	6308.09
454.676	6306.04
454.882	6729.97
455.088	6508.79
455.294	6940.91
455.5	7493.86
455.705	7891.16
455.911	7721.18
456.117	8141.02
456.323	8282.33
456.529	8206.55
456.735	9220.3
456.941	9230.54
457.147	9642.18
457.352	9969.85
457.558	10133.69
457.764	11012.27
457.97	11155.63
458.176	11622.56
458.381	12081.31
458.587	12353.69
458.793	13043.85
458.999	12832.91
459.204	14624.89
459.41	15138.93
459.616	14973.04
459.821	15822.95
460.027	16392.28
460.233	17043.54
460.438	17039.44
460.644	18481.21
460.85	18319.42
461.055	19085.36
461.261	19949.6
461.466	19466.28
461.672	20176.93
461.878	22484.99
462.083	22212.61
462.289	22648.83
462.494	23646.19
462.7	23590.89
462.905	23795.69
463.111	26058.7
463.316	27463.6
463.522	27830.19
463.727	28084.14
463.932	29613.97
464.138	30396.29
464.343	31795.06
464.549	31911.79
464.754	33914.7
464.959	35174.2
465.165	35794.74
465.37	35288.89
465.575	35241.79
465.781	37402.39
465.986	39053.06
466.191	38129.42
466.397	38500.11
466.602	37873.43
466.807	39425.79
467.012	40359.66
467.218	41109.22
467.423	41254.62
467.628	42583.76
467.833	44797.61
468.038	43708.09
468.244	43263.68
468.449	44983.97
468.654	44271.28
468.859	44502.7
469.064	44072.63
469.269	42757.83
469.474	43615.93
469.679	44775.08
469.885	43474.62
470.09	44222.13
470.295	44093.11
470.5	42981.06
470.705	43331.26
470.91	42168.02
471.115	42004.18
471.32	42272.46
471.525	41836.25
471.73	40791.78
471.935	40613.61
472.139	39208.7
472.344	39440.12
472.549	39345.92
472.754	38315.79
472.959	37433.11
473.164	36280.11
473.369	35563.32
473.574	36626.21
473.778	35905.33
473.983	35299.13
474.188	34617.16
474.393	32808.8
474.598	33038.17
474.802	32223.08
475.007	31709.04
475.212	31324.02
475.417	30013.32
475.621	29859.73
475.826	29474.71
476.031	28962.72
476.235	28026.79
476.44	28307.37
476.645	27195.32
476.849	27279.29
477.054	26771.39
477.259	26144.71
477.463	25972.68
477.668	25245.65
477.872	25538.51
478.077	24764.38
478.282	23889.9
478.486	23953.38
478.691	23654.38
478.895	23103.48
479.1	23064.57
479.304	23046.13
479.509	22218.75
479.713	22530.05
479.918	22030.34
480.122	21418
480.326	21870.6
480.531	22054.92
480.735	21340.18
480.94	20889.62
481.144	21684.23
481.348	20430.88
481.553	21047.32
481.757	20154.4
481.961	20131.87
482.166	20543.52
482.37	20312.1
482.574	19689.51
482.778	19585.07
482.983	20174.88
483.187	19605.55
483.391	19654.7
483.595	19050.55
483.8	18839.61
484.004	18976.82
484.208	18985.01
484.412	18475.07
484.616	18249.79
484.821	18163.78
485.025	17791.05
485.229	17901.64
485.433	17272.91
485.637	17526.86
485.841	17090.64
486.045	16877.65
486.249	16679
486.453	16410.71
486.657	16203.87
486.861	15812.71
487.065	15153.26
487.269	15519.85
487.473	14889.07
487.677	15157.36
487.881	15093.87
488.085	14270.59
488.289	14403.71
488.493	13740.16
488.697	14028.93
488.901	13467.78
489.105	13252.75
489.309	13140.11
489.512	12744.85
489.716	12722.32
489.92	12095.64
490.124	12101.79
490.328	12273.82
490.531	11948.19
490.735	11718.82
490.939	11219.11
491.143	11112.62
491.346	11020.46
491.55	10926.25
491.754	10590.39
491.958	10709.17
492.161	10287.29
492.365	10145.98
492.569	9826.5
492.772	9734.34
492.976	9744.58
493.18	9681.09
493.383	9486.53
493.587	9345.22
493.79	9326.79
493.994	8988.88
494.197	8906.96
494.401	8923.34
494.605	8902.86
494.808	8913.1
495.012	8583.38
495.215	8540.37
495.419	8741.07
495.622	8337.62
495.825	8241.37
496.029	8339.67
496.232	8462.55
496.436	8296.66
496.639	8403.16
496.843	8063.19
497.046	8222.94
497.249	8245.46
497.453	8181.98
497.656	7942.36
497.859	8071.39
498.063	8247.51
498.266	8388.82
498.469	8145.11
498.673	8198.36
498.876	8198.36
499.079	8292.57
499.282	8456.4
499.485	8579.28
499.689	8466.64
499.892	8736.98
500.095	8356.05
500.298	8550.61
500.501	8394.97
500.705	8784.08
500.908	8777.94
501.111	8812.75
501.314	8945.87
501.517	9146.57
501.72	9007.31
501.923	9072.84
502.126	9232.58
502.329	9447.62
502.532	9636.03
502.735	9406.66
502.938	9828.54
503.141	9724.1
503.344	9746.62
503.547	9875.65
503.75	10047.68
503.953	9969.85
504.156	10537.14
504.359	10381.49
504.562	10324.15
504.765	10862.77
504.968	10905.77
505.17	10893.49
505.373	11339.94
505.576	11456.68
505.779	11589.8
505.982	11741.35
506.185	11980.96
506.387	12052.64
506.59	12200.09
506.793	12408.98
506.996	12691.6
507.198	13113.49
507.401	13244.56
507.604	13457.54
507.807	14006.4
508.009	14067.84
508.212	14092.41
508.415	14444.66
508.617	14671.99
508.82	14841.97
509.022	15024.24
509.225	15874.15
509.428	15861.86
509.63	16248.93
509.833	16359.52
510.035	17213.52
510.238	17420.36
510.44	17774.66
510.643	18135.1
510.845	18522.17
511.048	18620.47
511.25	19253.3
511.453	19451.95
511.655	20613.15
511.858	20527.13
512.06	21045.27
512.262	21590.03
512.465	21856.26
512.667	22435.84
512.87	22964.21
513.072	23220.21
513.274	24051.69
513.477	24461.28
513.679	24987.61
513.881	25663.44
514.084	26040.26
514.286	26384.32
514.488	27062.2
514.69	28086.18
514.893	28250.02
515.095	28811.17
515.297	29589.39
515.499	30205.83
515.701	30912.38
515.904	31524.72
516.106	32092.01
516.308	32604
516.51	33509.21
516.712	33853.26
516.914	34572.1
517.116	35223.36
517.318	35821.36
517.52	36724.52
517.722	37271.32
517.925	37547.8
518.127	38754.05
518.329	39288.57
518.531	39137.02
518.733	40339.18
518.935	41025.25
519.136	41217.76
519.338	42307.28
519.54	42632.91
519.742	43470.53
519.944	43982.52
520.146	44695.21
520.348	45330.08
520.55	45813.4
520.752	45829.79
520.954	47038.09
521.155	47208.07
521.357	47679.1
521.559	48647.79
521.761	49778.27
521.963	49319.52
522.164	49997.4
522.366	50183.77
522.568	50878.03
522.77	50941.52
522.971	52115
523.173	51627.59
523.375	51983.93
523.576	52280.89
523.778	52213.3
523.98	52870.7
524.181	52780.59
524.383	53138.99
524.584	53521.96
524.786	53804.58
524.988	53024.3
525.189	54181.4
525.391	53870.11
525.592	54070.81
525.794	53714.47
525.995	53853.73
526.197	53679.65
526.398	53685.79
526.6	53804.58
526.801	53628.45
527.003	53345.83
527.204	52932.14
527.406	53265.96
527.607	52448.82
527.808	52874.8
528.01	51727.94
528.211	51811.9
528.412	52516.4
528.614	51707.46
528.815	51215.94
529.016	51234.38
529.218	50300.5
529.419	49927.77
529.62	49585.76
529.822	49225.32
530.023	48645.74
530.224	48653.93
530.425	47752.83
530.626	46857.87
530.828	46462.61
531.029	47003.27
531.23	45614.75
531.431	45633.18
531.632	44940.97
531.833	44789.42
532.035	43923.13
532.236	43486.91
532.437	43212.48
532.638	42151.63
532.839	41971.41
533.04	41541.34
533.241	40509.16
533.442	40697.58
533.643	39702.26
533.844	39366.4
534.045	38764.29
534.246	38141.71
534.447	37635.86
534.648	37238.56
534.849	37011.23
535.05	36063.02
535.251	35946.29
535.451	35319.61
535.652	34680.64
535.853	34424.65
536.054	33845.07
536.255	33331.03
536.456	32700.26
536.657	33193.82
536.857	32112.49
537.058	31899.5
537.259	31747.95
537.46	30912.38
537.66	30545.8
537.861	30187.4
538.062	29697.94
538.263	29134.74
538.463	28837.79
538.664	28499.87
538.865	27916.2
539.065	28202.92
539.266	27418.55
539.466	27490.23
539.667	26507.2
539.868	26820.54
540.068	25976.78
540.269	25896.91
540.469	25759.69
540.67	25194.45
540.87	24924.12
541.071	24774.62
541.271	24395.75
541.472	24180.71
541.672	24031.21
541.873	23433.2
542.073	22849.53
542.274	23236.59
542.474	22695.93
542.675	22458.37
542.875	22282.24
543.075	21798.92
543.276	21590.03
543.476	21743.63
543.676	21143.57
543.877	21428.24
544.077	20867.09
544.277	20439.07
544.478	20199.46
544.678	19904.55
544.878	19828.77
545.078	19642.41
545.279	19306.54
545.479	19028.02
545.679	18905.14
545.879	18729.02
546.079	18444.35
546.28	18133.06
546.48	17715.27
546.68	18001.99
546.88	17702.98
547.08	17416.27
547.28	17305.68
547.48	16791.64
547.68	16963.67
547.88	16693.33
548.081	16527.45
548.281	16148.57
548.481	15913.06
548.681	15900.77
548.881	15581.29
549.081	15403.11
549.28	15079.54
549.48	15087.73
549.68	14811.25
549.88	14760.05
550.08	14315.64
550.28	14284.92
550.48	14055.55
550.68	13856.9
550.88	13494.41
551.08	13387.91
551.279	13260.94
551.479	13174.92
551.679	13000.85
551.879	12482.71
552.079	12826.77
552.278	12273.82
552.478	12081.31
552.678	12142.75
552.878	11810.98
553.077	11669.67
553.277	11286.7
553.477	11217.07
553.676	11180.2
553.876	10748.08
554.076	10692.79
554.275	10602.68
554.475	10152.12
554.674	10260.66
554.874	10207.42
555.074	9896.13
555.273	9883.84
555.473	9609.41
555.672	9453.77
555.872	9357.51
556.071	9181.39
556.271	9138.38
556.47	8751.31
556.67	8634.58
556.869	8624.34
557.068	8458.45
557.268	8294.61
557.467	8159.45
557.667	8075.48
557.866	7876.83
558.065	7909.6
558.265	7485.67
558.464	7411.94
558.663	7497.95
558.863	7108.84
559.062	7119.08
559.261	6998.25
559.461	6994.15
559.66	6707.44
559.859	6668.53
560.058	6686.96
560.258	6551.79
560.457	6467.83
560.656	6342.9
560.855	6222.07
561.054	6295.8
561.253	5933.31
561.453	6058.23
561.652	5871.87
561.851	5822.72
562.05	5689.6
562.249	5374.21
562.448	5593.34
562.647	5359.88
562.846	5409.03
563.045	5310.72
563.244	5228.81
563.443	5060.87
563.642	4997.39
563.841	4935.95
564.04	4727.05
564.239	4827.4
564.438	4831.5
564.637	4450.58
564.836	4546.83
565.035	4372.75
565.234	4391.19
565.432	4292.88
565.631	4276.5
565.83	4286.74
566.029	4167.96
566.228	4040.98
566.427	4182.29
566.625	3893.53
566.824	3952.92
567.023	3858.71
567.222	3801.37
567.42	3903.77
567.619	3791.13
567.818	3686.69
568.016	3813.66
568.215	3596.57
568.414	3518.75
568.612	3430.69
568.811	3395.87
569.01	3469.6
569.208	3330.34
569.407	3432.74
569.605	3287.33
569.804	3313.95
570.002	3215.65
570.201	3047.72
570.4	3123.49
570.598	3062.05
570.797	2849.07
570.995	2814.25
571.193	2703.66
571.392	2881.83
571.59	2750.76
571.789	2822.44
571.987	2654.51
572.186	2722.09
572.384	2502.96
572.582	2531.63
572.781	2658.6
572.979	2425.14
573.177	2398.51
573.376	2490.67
573.574	2505.01
573.772	2380.08
573.971	2287.92
574.169	2294.07
574.367	2277.68
574.565	2234.68
574.763	2074.93
574.962	2199.86
575.16	2017.59
575.358	2089.27
575.556	2040.12
575.754	2048.31
575.952	1923.38
576.151	2025.78
576.349	2072.89
576.547	1829.18
576.745	1841.47
576.943	1900.86
577.141	1876.28
577.339	1761.59
577.537	1818.94
577.735	1866.04
577.933	1702.2
578.131	1593.66
578.329	1788.22
578.527	1702.2
578.725	1675.58
578.923	1489.21
579.121	1599.8
579.319	1392.96
579.516	1503.55
579.714	1708.35
579.912	1495.36
580.11	1304.9
580.308	1386.82
580.506	1386.82
580.704	1216.83
580.901	1304.9
581.099	1388.86
581.297	1337.66
581.495	1302.85
581.692	1278.27
581.89	1425.73
582.088	1282.37
582.285	1253.7
582.483	1136.96
582.681	1153.35
582.878	1227.07
583.076	1118.53
583.274	1130.82
583.471	1225.03
583.669	1038.66
583.866	1059.14
584.064	993.61
584.262	952.65
584.459	942.41
584.657	1018.18
584.854	1042.76
585.052	1009.99
585.249	1030.47
585.447	1003.85
585.644	897.35
585.841	1106.24
586.039	1073.48
586.236	983.37
586.434	936.26
586.631	815.43
586.828	794.95
587.026	868.68
587.223	715.08
587.42	721.23
587.618	837.96
587.815	907.59
588.012	805.19
588.21	797
588.407	797
588.604	747.85
588.801	770.38
588.999	807.24
589.196	876.87
589.393	686.41
589.59	753.99
589.787	727.37
589.984	799.05
590.182	776.52
590.379	688.46
590.576	741.71
590.773	690.51
590.97	780.62
591.167	676.17
591.364	690.51
591.561	713.03
591.758	803.15
591.955	682.31
592.152	739.66
592.349	633.16
592.546	676.17
592.743	710.99
592.94	674.12
593.137	741.71
593.334	833.86
593.531	801.1
593.727	684.36
593.924	713.03
594.121	678.22
594.318	633.16
594.515	805.19
594.712	874.82
594.908	885.06
595.105	688.46
595.302	811.34
595.499	762.19
595.696	950.6
595.892	758.09
596.089	854.34
596.286	823.62
596.482	917.83
596.679	794.95
596.876	772.43
597.072	973.13
597.269	854.34
597.466	936.26
597.662	874.82
597.859	948.55
598.055	948.55
598.252	1065.29
598.448	1204.55
598.645	1171.78
598.841	1214.79
599.038	1216.83
599.234	1253.7
599.431	1343.81
599.627	1374.53
599.824	1388.86
600.02	1603.9
600.217	1483.07
600.413	1679.68
600.609	1593.66
600.806	1907
601.002	1925.43
601.198	1700.16
601.395	1939.77
601.591	1872.18
601.787	2081.08
601.984	2093.37
602.18	2238.77
602.376	2208.05
602.572	2375.99
602.769	2494.77
602.965	2437.42
603.161	2576.69
603.357	2711.85
603.553	2918.7
603.75	2836.78
603.946	2834.73
604.142	3041.57
604.338	3201.32
604.534	3275.04
604.73	3363.11
604.926	3326.24
605.122	3666.21
605.318	3625.25
605.514	3754.27
605.71	4040.98
605.906	4086.04
606.102	4239.64
606.298	4294.93
606.494	4499.73
606.69	4456.72
606.886	4712.72
607.082	4753.68
607.278	4847.88
607.474	5067.02
607.67	5114.12
607.866	5327.11
608.062	5542.14
608.257	5681.41
608.453	5765.37
608.649	6093.05
608.845	6109.43
609.041	6234.36
609.236	6277.37
609.432	6660.34
609.628	6779.12
609.824	7018.73
610.019	7020.78
610.215	7407.84
610.411	7512.29
610.606	7807.2
610.802	7921.88
610.998	8171.74
611.193	8208.6
611.389	8435.92
611.584	8806.61
611.78	9113.8
611.976	9203.91
612.171	9611.46
612.367	9660.61
612.562	9943.23
612.758	10145.98
612.953	10342.58
613.149	10713.27
613.344	11008.17
613.539	11520.17
613.735	11720.87
613.93	11972.77
614.126	12179.61
614.321	12691.6
614.517	12935.31
614.712	13328.52
614.907	13441.16
615.103	13990.02
615.298	13955.2
615.493	14884.98
615.688	14798.96
615.884	15507.56
616.079	15589.48
616.274	16205.92
616.47	16498.78
616.665	16662.62
616.86	17250.38
617.055	17604.68
617.25	18298.94
617.445	18714.68
617.641	18925.62
617.836	19343.41
618.031	19687.46
618.226	20766.74
618.421	21090.32
618.616	21475.34
618.811	21665.8
619.006	22444.03
619.201	22654.97
619.396	23572.46
619.591	23535.6
619.786	24758.24
619.981	24795.1
620.176	25491.41
620.371	25444.31
620.566	26841.02
620.761	27287.48
620.956	27539.38
621.151	27834.28
621.346	28653.47
621.541	28536.74
621.735	30087.05
621.93	29908.88
622.125	30771.07
622.32	30984.06
622.515	31645.55
622.709	32282.47
622.904	33240.92
623.099	33431.38
623.294	34226
623.488	33939.28
623.683	34987.84
623.878	35065.66
624.072	36470.57
624.267	36448.04
624.462	37469.98
624.656	37682.97
624.851	38307.6
625.046	38657.8
625.24	39149.31
625.435	39628.54
625.629	40148.72
625.824	40730.34
626.018	41520.86
626.213	41486.04
626.407	42618.57
626.602	42383.05
626.796	43249.35
626.991	43413.18
627.185	43644.6
627.38	43632.32
627.574	43462.33
627.768	43998.9
627.963	44431.02
628.157	44412.59
628.352	44719.79
628.546	44289.71
628.74	44693.16
628.935	44426.93
629.129	44443.31
629.323	43853.5
629.517	44211.89
629.712	43423.42
629.906	43419.33
630.1	42974.92
630.294	42856.14
630.489	41840.34
630.683	41447.13
630.877	40462.06
631.071	39849.72
631.265	39245.57
631.459	38395.66
631.653	37437.21
631.848	36898.59
632.042	35880.75
632.236	35276.6
632.43	33795.92
632.624	33126.24
632.818	32173.93
633.012	31082.36
633.206	30162.83
633.4	29468.56
633.594	27776.94
633.788	27369.4
633.982	26427.33
634.176	25456.59
634.369	24166.37
634.563	23502.83
634.757	22452.22
634.951	21940.23
635.145	20996.12
635.339	20283.42
635.533	19347.5
635.726	18755.64
635.92	17541.19
636.114	16740.44
636.308	16119.9
636.501	16027.74
636.695	15286.38
636.889	14422.14
637.083	13736.07
637.276	13377.67
637.47	12525.72
637.664	12152.99
637.857	11694.24
638.051	11088.04
638.244	10754.23
638.438	10434.74
638.632	10029.24
638.825	9443.53
639.019	9087.18
639.212	8794.32
639.406	8589.52
639.599	8098.01
639.793	7694.56
639.986	7493.86
640.18	7432.42
640.373	6949.1
640.567	6602.99
640.76	6422.77
640.954	6088.95
641.147	5814.52
641.34	5585.15
641.534	5402.88
641.727	5298.44
641.92	5134.6
642.114	4770.06
642.307	4671.76
642.5	4495.63
642.694	4339.99
642.887	4223.25
643.08	4176.15
643.273	3959.06
643.467	3735.84
643.66	3447.07
643.853	3430.69
644.046	3242.28
644.239	3135.78
644.432	2930.98
644.626	2834.73
644.819	2695.47
645.012	2677.04
645.205	2683.18
645.398	2644.27
645.591	2529.58
645.784	2251.06
645.977	2279.73
646.17	2119.99
646.363	2023.73
646.556	1970.49
646.749	1855.8
646.942	1904.95
647.135	1806.65
647.328	1722.68
647.521	1620.28
647.714	1573.18
647.907	1552.7
648.099	1511.74
648.292	1452.35
648.485	1380.67
648.678	1194.31
648.871	1165.64
649.064	1218.88
649.256	1171.78
649.449	1026.37
649.642	1032.52
649.835	1046.85
650.027	901.45
650.22	1065.29
650.413	932.17
650.605	940.36
650.798	897.35
650.991	833.86
651.183	811.34
651.376	854.34
651.568	821.58
651.761	719.18
651.954	727.37
652.146	719.18
652.339	751.95
652.531	713.03
652.724	581.96
652.916	553.29
653.109	536.91
653.301	745.8
653.494	645.45
653.686	577.87
653.879	606.54
654.071	528.72
654.263	432.46
654.456	549.2
654.648	616.78
654.84	588.11
655.033	446.8
655.225	547.15
655.417	418.13
655.61	608.59
655.802	432.46
655.994	504.14
656.186	379.22
656.379	430.41
656.571	285.01
656.763	332.11
656.955	303.44
657.148	362.83
657.34	495.95
657.532	319.82
657.724	246.1
657.916	356.69
658.108	403.79
658.3	371.02
658.492	297.3
658.684	258.39
658.876	321.87
659.068	168.27
659.26	217.43
659.452	139.6
659.644	211.28
659.836	299.34
660.028	258.39
660.22	194.9
660.412	149.84
660.604	229.71
660.796	254.29
660.988	258.39
661.18	219.47
661.372	248.15
661.563	213.33
661.755	219.47
661.947	143.7
662.139	188.75
662.331	149.84
662.522	270.67
662.714	170.32
662.906	94.55
663.097	227.67
663.289	69.97
663.481	53.59
663.673	176.47
663.864	209.23
664.056	225.62
664.247	172.37
664.439	260.43
664.631	164.18
664.822	227.67
665.014	223.57
665.205	127.32
665.397	137.56
665.588	219.47
665.78	170.32
665.971	299.34
666.163	115.03
666.354	264.53
666.546	102.74
666.737	131.41
666.929	164.18
667.12	72.02
667.311	133.46
667.503	143.7
667.694	129.36
667.885	164.18
668.077	231.76
668.268	55.64
668.459	203.09
668.651	221.52
668.842	235.86
669.033	24.92
669.224	133.46
669.416	323.92
669.607	31.06
669.798	188.75
669.989	258.39
670.18	117.08
670.371	172.37
670.563	26.96
670.754	223.57
670.945	242
671.136	149.84
671.327	139.6
671.518	215.38
671.709	252.24
671.9	198.99
672.091	272.72
672.282	127.32
672.473	121.17
672.664	135.51
672.855	110.93
673.046	209.23
673.237	198.99
673.428	151.89
673.619	176.47
673.809	135.51
674	211.28
674.191	221.52
674.382	102.74
674.573	147.8
674.764	209.23
674.954	264.53
675.145	39.25
675.336	69.97
675.527	98.64
675.717	153.94
675.908	84.31
676.099	131.41
676.289	168.27
676.48	31.06
676.671	139.6
676.861	137.56
677.052	123.22
677.243	184.66
677.433	69.97
677.624	141.65
677.814	184.66
678.005	198.99
678.195	213.33
678.386	18.77
678.576	119.12
678.767	78.16
678.957	211.28
679.148	227.67
679.338	272.72
679.529	209.23
679.719	196.95
679.909	254.29
680.1	188.75
680.29	127.32
680.481	98.64
680.671	145.75
680.861	262.48
681.052	176.47
681.242	143.7
681.432	270.67
681.622	254.29
681.813	125.27
682.003	192.85
682.193	176.47
682.383	180.56
682.573	192.85
682.764	129.36
682.954	244.05
683.144	225.62
683.334	147.8
683.524	151.89
683.714	233.81
683.904	252.24
684.094	223.57
684.284	194.9
684.474	342.35
684.664	330.06
684.854	196.95
685.044	225.62
685.234	180.56
685.424	258.39
685.614	125.27
685.804	260.43
685.994	272.72
686.184	201.04
686.374	198.99
686.564	215.38
686.753	239.95
686.943	145.75
687.133	213.33
687.323	129.36
687.513	227.67
687.702	217.43
687.892	164.18
688.082	289.1
688.272	266.58
688.461	203.09
688.651	295.25
688.841	319.82
689.03	211.28
689.22	209.23
689.41	289.1
689.599	270.67
689.789	121.17
689.979	338.26
690.168	231.76
690.358	289.1
690.547	166.23
690.737	143.7
690.926	229.71
691.116	270.67
691.305	217.43
691.495	231.76
691.684	184.66
691.874	117.08
692.063	254.29
692.252	321.87
692.442	237.91
692.631	151.89
692.82	280.91
693.01	219.47
693.199	221.52
693.388	211.28
693.578	96.6
693.767	252.24
693.956	336.21
694.146	162.13
694.335	246.1
694.524	182.61
694.713	276.82
694.902	205.14
695.092	180.56
695.281	315.73
695.47	135.51
695.659	135.51
695.848	151.89
696.037	174.42
696.226	256.34
696.415	86.36
696.604	254.29
696.793	248.15
696.982	192.85
697.171	313.68
697.36	155.99
697.549	246.1
697.738	33.11
697.927	219.47
698.116	104.79
698.305	295.25
698.494	174.42
698.683	192.85
698.872	387.41
699.061	244.05
699.25	207.19
699.438	258.39
699.627	192.85
699.816	252.24
700.005	147.8
700.193	190.8
700.382	225.62
700.571	278.87
700.76	280.91
700.948	227.67
701.137	188.75
701.326	225.62
701.514	174.42
701.703	219.47
701.892	112.98
702.08	328.02
702.269	86.36
702.457	147.8
702.646	164.18
702.834	139.6
703.023	262.48
703.212	244.05
703.4	186.71
703.589	74.07
703.777	158.03
703.965	151.89
704.154	235.86
704.342	143.7
704.531	176.47
704.719	190.8
704.907	235.86
705.096	37.2
705.284	108.88
705.472	266.58
705.661	252.24
705.849	330.06
706.037	285.01
706.226	219.47
706.414	219.47
706.602	115.03
706.79	254.29
706.979	106.84
707.167	203.09
707.355	63.83
707.543	162.13
707.731	307.54
707.919	278.87
708.107	170.32
708.296	121.17
708.484	72.02
708.672	239.95
708.86	217.43
709.048	211.28
709.236	139.6
709.424	260.43
709.612	276.82
709.8	112.98
709.988	129.36
710.176	252.24
710.364	256.34
710.551	166.23
710.739	178.51
710.927	139.6
711.115	188.75
711.303	301.39
711.491	248.15
711.679	143.7
711.866	233.81
712.054	182.61
712.242	237.91
712.43	266.58
712.617	219.47
712.805	338.26
712.993	184.66
713.181	123.22
713.368	280.91
713.556	143.7
713.744	153.94
713.931	366.93
714.119	256.34
714.306	76.12
714.494	198.99
714.682	170.32
714.869	188.75
715.057	203.09
715.244	26.96
715.432	198.99
715.619	215.38
715.807	201.04
715.994	176.47
716.182	155.99
716.369	305.49
716.556	237.91
716.744	108.88
716.931	112.98
717.119	264.53
717.306	233.81
717.493	209.23
717.681	180.56
717.868	217.43
718.055	201.04
718.242	219.47
718.43	190.8
718.617	272.72
718.804	229.71
718.991	264.53
719.179	264.53
719.366	233.81
719.553	221.52
719.74	235.86
719.927	201.04
720.114	258.39
720.301	145.75
720.488	172.37
720.676	223.57
720.863	344.4
721.05	385.36
721.237	244.05
721.424	266.58
721.611	227.67
721.798	168.27
721.985	186.71
722.172	178.51
722.358	125.27
722.545	297.3
722.732	293.2
722.919	264.53
723.106	201.04
723.293	285.01
723.48	213.33
723.667	213.33
723.853	278.87
724.04	266.58
724.227	366.93
724.414	225.62
724.6	276.82
724.787	397.65
724.974	360.78
725.161	264.53
725.347	186.71
725.534	123.22
725.72	262.48
725.907	262.48
726.094	332.11
726.28	194.9
726.467	192.85
726.653	190.8
726.84	332.11
727.027	338.26
727.213	239.95
727.4	309.58
727.586	246.1
727.773	266.58
727.959	323.92
728.145	213.33
728.332	285.01
728.518	227.67
728.705	254.29
728.891	239.95
729.077	244.05
729.264	194.9
729.45	248.15
729.636	332.11
729.823	203.09
730.009	381.26
730.195	291.15
730.382	291.15
730.568	133.46
730.754	256.34
730.94	242
731.126	244.05
731.313	317.78
731.499	188.75
731.685	342.35
731.871	366.93
732.057	225.62
732.243	325.97
732.429	250.19
732.615	375.12
732.801	262.48
732.987	225.62
733.173	274.77
733.359	276.82
733.545	229.71
733.731	239.95
733.917	383.31
734.103	262.48
734.289	303.44
734.475	260.43
734.661	323.92
734.847	325.97
735.033	266.58
735.219	287.06
735.404	225.62
735.59	198.99
735.776	268.63
735.962	330.06
736.148	385.36
736.333	342.35
736.519	282.96
736.705	166.23
736.89	242
737.076	254.29
737.262	196.95
737.447	291.15
737.633	258.39
737.819	323.92
738.004	221.52
738.19	282.96
738.375	248.15
738.561	340.3
738.747	315.73
738.932	250.19
739.118	440.65
739.303	293.2
739.489	266.58
739.674	282.96
739.859	190.8
740.045	323.92
740.23	242
740.416	182.61
740.601	272.72
740.786	309.58
740.972	190.8
741.157	254.29
741.342	217.43
741.528	188.75
741.713	348.5
741.898	270.67
742.084	180.56
742.269	262.48
742.454	235.86
742.639	291.15
742.824	272.72
743.01	332.11
743.195	338.26
743.38	192.85
743.565	242
743.75	305.49
743.935	262.48
744.12	379.22
744.305	112.98
744.49	266.58
744.675	184.66
744.86	213.33
745.045	276.82
745.23	190.8
745.415	293.2
745.6	334.16
745.785	217.43
745.97	309.58
746.155	305.49
746.34	352.59
746.525	239.95
746.71	346.45
746.895	237.91
747.079	143.7
747.264	196.95
747.449	227.67
747.634	233.81
747.819	291.15
748.003	293.2
748.188	203.09
748.373	250.19
748.557	280.91
748.742	203.09
748.927	231.76
749.111	239.95
749.296	227.67
749.481	201.04
749.665	219.47
749.85	108.88
750.034	256.34
750.219	178.51
750.404	211.28
750.588	223.57
750.773	158.03
750.957	209.23
751.141	246.1
751.326	196.95
751.51	127.32
751.695	149.84
751.879	190.8
752.064	356.69
752.248	188.75
752.432	366.93
752.617	323.92
752.801	252.24
752.985	221.52
753.17	303.44
753.354	162.13
753.538	235.86
753.722	188.75
753.907	211.28
754.091	72.02
754.275	254.29
754.459	106.84
754.643	151.89
754.828	254.29
755.012	266.58
755.196	94.55
755.38	139.6
755.564	86.36
755.748	184.66
755.932	315.73
756.116	135.51
756.3	227.67
756.484	69.97
756.668	205.14
756.852	153.94
757.036	137.56
757.22	209.23
757.404	45.4
757.588	102.74
757.772	149.84
757.956	139.6
758.14	342.35
758.323	47.44
758.507	196.95
758.691	174.42
758.875	239.95
759.059	252.24
759.242	112.98
759.426	139.6
759.61	176.47
759.794	102.74
759.977	235.86
760.161	346.45
760.345	219.47
760.528	145.75
760.712	133.46
760.895	258.39
761.079	100.69
761.263	92.5
761.446	94.55
761.63	53.59
761.813	194.9
761.997	47.44
762.18	153.94
762.364	145.75
762.547	0.34
762.731	112.98
762.914	133.46
763.098	51.54
763.281	65.88
763.464	80.21
763.648	96.6
763.831	14.68
764.015	57.68
764.198	217.43
764.381	137.56
764.564	149.84
764.748	129.36
764.931	125.27
765.114	80.21
765.297	221.52
765.481	0.34
765.664	37.2
765.847	69.97
766.03	248.15
766.213	92.5
766.397	108.88
766.58	74.07
766.763	143.7
766.946	96.6
767.129	100.69
767.312	65.88
767.495	59.73
767.678	45.4
767.861	158.03
768.044	94.55
768.227	63.83
768.41	94.55
768.593	135.51
768.776	117.08
768.959	94.55
769.142	178.51
769.324	45.4
769.507	78.16
769.69	57.68
769.873	108.88
770.056	268.63
770.239	69.97
770.421	207.19
770.604	100.69
770.787	141.65
770.97	102.74
771.152	31.06
771.335	76.12
771.518	92.5
771.7	233.81
771.883	184.66
772.066	2.39
772.248	145.75
772.431	172.37
772.613	174.42
772.796	125.27
772.978	135.51
773.161	237.91
773.343	49.49
773.526	20.82
773.708	-38.57
773.891	-1.71
774.073	76.12
774.256	57.68
774.438	270.67
774.621	-7.85
774.803	125.27
774.985	8.53
775.168	162.13
775.35	69.97
775.532	153.94
775.715	18.77
775.897	104.79
776.079	92.5
776.261	131.41
776.444	94.55
776.626	18.77
776.808	26.96
776.99	2.39
777.173	80.21
777.355	-7.85
777.537	14.68
777.719	135.51
777.901	49.49
778.083	39.25
778.265	-20.14
778.447	137.56
778.629	33.11
778.811	22.87
778.993	129.36
779.175	127.32
779.357	88.4
779.539	-3.75
779.721	63.83
779.903	94.55
780.085	-16.04
780.267	53.59
780.449	143.7
780.631	176.47
780.812	125.27
780.994	51.54
781.176	78.16
781.358	29.01
781.54	92.5
781.721	67.92
781.903	168.27
782.085	0.34
782.267	164.18
782.448	-24.23
782.63	31.06
782.812	61.78
782.993	160.08
783.175	110.93
783.357	-18.09
783.538	88.4
783.72	-50.86
783.901	-3.75
784.083	78.16
784.264	80.21
784.446	-30.38
784.627	59.73
784.809	133.46
784.99	80.21
785.172	14.68
785.353	-7.85
785.535	88.4
785.716	-48.81
785.897	65.88
786.079	20.82
786.26	72.02
786.441	125.27
786.623	-42.67
786.804	26.96
786.985	47.44
787.167	102.74
787.348	35.16
787.529	16.73
787.71	94.55
787.891	69.97
788.073	-13.99
788.254	-87.72
788.435	174.42
788.616	37.2
788.797	-5.8
788.978	29.01
789.159	-16.04
789.34	8.53
789.522	18.77
789.703	10.58
789.884	117.08
790.065	53.59
790.246	168.27
790.427	0.34
790.607	106.84
790.788	74.07
790.969	-9.9
791.15	86.36
791.331	10.58
791.512	20.82
791.693	20.82
791.874	-48.81
792.054	168.27
792.235	63.83
792.416	-34.47
792.597	-20.14
792.778	55.64
792.958	80.21
793.139	31.06
793.32	61.78
793.5	-59.05
793.681	139.6
793.862	45.4
794.042	65.88
794.223	-30.38
794.404	55.64
794.584	33.11
794.765	65.88
794.945	39.25
795.126	16.73
795.306	63.83
795.487	-63.15
795.667	-3.75
795.848	82.26
796.028	-16.04
796.209	53.59
796.389	100.69
796.57	-5.8
796.75	16.73
796.93	53.59
797.111	0.34
797.291	-83.63
797.471	67.92
797.652	16.73
797.832	-36.52
798.012	100.69
798.192	-69.29
798.373	-108.2
798.553	18.77
798.733	47.44
798.913	-26.28
799.093	20.82
799.274	-18.09
799.454	-5.8
799.634	31.06
799.814	151.89
799.994	24.92
800.174	90.45
800.354	-5.8
800.534	-32.43
800.714	100.69
800.894	0.34
801.074	-50.86
801.254	10.58
801.434	45.4
801.614	8.53
801.794	-5.8
801.974	1898.81
802.154	33.11
802.334	123.22
802.514	-40.62
802.693	8.53
802.873	-3.75
803.053	94.55
803.233	82.26
803.413	45.4
803.592	-75.43
803.772	18.77
803.952	4.44
804.131	-110.25
804.311	12.63
804.491	18.77
804.67	-18.09
804.85	-26.28
805.03	26.96
805.209	90.45
805.389	24.92
805.568	-7.85
805.748	-63.15
805.928	-5.8
806.107	76.12
806.287	10.58
806.466	100.69
806.646	-32.43
806.825	35.16
807.004	20.82
807.184	63.83
807.363	74.07
807.543	6.49
807.722	12.63
807.901	147.8
808.081	137.56
808.26	-102.06
808.439	76.12
808.619	65.88
808.798	65.88
808.977	18.77
809.156	110.93
809.336	20.82
809.515	155.99
809.694	-77.48
809.873	-9.9
810.052	117.08
810.231	88.4
810.411	63.83
810.59	106.84
810.769	74.07
810.948	63.83
811.127	-73.39
811.306	29.01
811.485	-95.91
811.664	178.51
811.843	43.35
812.022	-7.85
812.201	-40.62
812.38	-5.8
812.559	-26.28
812.737	84.31
812.916	-100.01
813.095	55.64
813.274	-18.09
813.453	16.73
813.632	45.4
813.811	55.64
813.989	8.53
814.168	74.07
814.347	-87.72
814.526	43.35
814.704	149.84
814.883	141.65
815.062	-50.86
815.24	57.68
815.419	-108.2
815.598	-30.38
815.776	-138.92
815.955	67.92
816.133	-89.77
816.312	-22.19
816.49	-22.19
816.669	-20.14
816.847	26.96
817.026	20.82
817.204	31.06
817.383	-54.95
817.561	-30.38
817.74	100.69
817.918	8.53
818.097	-44.71
818.275	29.01
818.453	14.68
818.632	29.01
818.81	-57
818.988	-140.97
819.167	4.44
819.345	41.3
819.523	4.44
819.701	33.11
819.879	82.26
820.058	69.97
820.236	69.97
820.414	94.55
820.592	-3.75
820.77	-26.28
820.948	-20.14
821.127	-24.23
821.305	-57
821.483	-9.9
821.661	82.26
821.839	20.82
822.017	-81.58
822.195	6.49
822.373	61.78
822.551	-61.1
822.729	141.65
822.907	-63.15
823.085	92.5
823.262	2.39
823.44	26.96
823.618	-34.47
823.796	59.73
823.974	-7.85
824.152	-22.19
824.329	22.87
824.507	31.06
824.685	-9.9
824.863	-18.09
825.04	45.4
825.218	10.58
825.396	29.01
825.574	-9.9
825.751	22.87
825.929	121.17
826.107	-16.04
826.284	55.64
826.462	24.92
826.639	-28.33
826.817	-124.58
826.994	-34.47
827.172	-67.24
827.349	100.69
827.527	22.87
827.704	72.02
827.882	12.63
828.059	29.01
828.237	29.01
828.414	78.16
828.591	-126.63
828.769	-34.47
828.946	-67.24
829.124	78.16
829.301	98.64
829.478	22.87
829.655	98.64
829.833	6.49
830.01	-167.59
830.187	22.87
830.364	-3.75
830.542	31.06
830.719	121.17
830.896	76.12
831.073	43.35
831.25	-9.9
831.427	65.88
831.604	-28.33
831.782	-5.8
831.959	65.88
832.136	18.77
832.313	104.79
832.49	-22.19
832.667	-40.62
832.844	-24.23
833.021	115.03
833.198	82.26
833.374	-9.9
833.551	39.25
833.728	-24.23
833.905	115.03
834.082	-13.99
834.259	-38.57
834.436	69.97
834.612	-79.53
834.789	55.64
834.966	39.25
835.143	16.73
835.319	-57
835.496	45.4
835.673	2.39
835.85	151.89
836.026	16.73
836.203	14.68
836.38	-20.14
836.556	-9.9
836.733	-59.05
836.909	178.51
837.086	-30.38
837.262	-32.43
837.439	90.45
837.616	-7.85
837.792	63.83
837.968	0.34
838.145	-112.3
838.321	-59.05
838.498	0.34
838.674	43.35
838.851	43.35
839.027	-9.9
839.203	-7.85
839.38	-32.43
839.556	-38.57
839.732	8.53
839.909	67.92
840.085	106.84
840.261	-61.1
840.437	24.92
840.614	6.49
840.79	20.82
840.966	63.83
841.142	26.96
841.318	49.49
841.494	14.68
841.671	-18.09
841.847	-44.71
842.023	10.58
842.199	35.16
842.375	63.83
842.551	-34.47
842.727	-89.77
842.903	137.56
843.079	-36.52
843.255	82.26
843.431	-61.1
843.607	20.82
843.783	-155.3
843.959	35.16
844.134	-52.91
844.31	106.84
844.486	6.49
844.662	-24.23
844.838	-20.14
845.013	14.68
845.189	84.31
845.365	-3.75
845.541	47.44
845.716	8.53
845.892	96.6
846.068	12.63
846.244	-34.47
846.419	6.49
846.595	-67.24
846.77	-120.49
846.946	51.54
847.122	-36.52
847.297	-116.39
847.473	145.75
847.648	-87.72
847.824	-11.95
847.999	-97.96
848.175	0.34
848.35	29.01
848.526	184.66
848.701	51.54
848.876	53.59
849.052	80.21
849.227	2.39
849.403	2.39
849.578	-91.82
849.753	-11.95
849.929	22.87
850.104	-63.15
850.279	4.44
850.454	-50.86
850.63	69.97
850.805	22.87
850.98	-50.86
851.155	-73.39
851.33	-18.09
851.505	-77.48
851.681	112.98
851.856	-20.14
852.031	63.83
852.206	22.87
852.381	-54.95
852.556	20.82
852.731	26.96
852.906	72.02
853.081	61.78
853.256	39.25
853.431	-50.86
853.606	-114.34
853.781	-34.47
853.956	-93.87
854.131	35.16
854.305	-116.39
854.48	-59.05
854.655	-26.28
854.83	-22.19
855.005	-67.24
855.18	-5.8
855.354	-48.81
855.529	10.58
855.704	16.73
855.879	100.69
856.053	-11.95
856.228	49.49
856.403	-9.9
856.577	82.26
856.752	-73.39
856.926	29.01
857.101	57.68
857.276	-54.95
857.45	-3.75
857.625	10.58
857.799	-79.53
857.974	2.39
858.148	-93.87
858.323	-5.8
858.497	33.11
858.672	-83.63
858.846	37.2
859.02	45.4
859.195	-87.72
859.369	6.49
859.543	-26.28
859.718	-16.04
859.892	-42.67
860.066	31.06
860.241	-73.39
860.415	24.92
860.589	-50.86
860.763	-32.43
860.938	-9.9
861.112	33.11
861.286	22.87
861.46	51.54
861.634	-26.28
861.808	115.03
861.982	-63.15
862.157	-57
862.331	-40.62
862.505	-54.95
862.679	-93.87
862.853	-20.14
863.027	22.87
863.201	47.44
863.375	-50.86
863.549	-11.95
863.722	74.07
863.896	80.21
864.07	-3.75
864.244	-61.1
864.418	-32.43
864.592	55.64
864.766	-20.14
864.939	-28.33
865.113	-77.48
865.287	67.92
865.461	-71.34
865.634	41.3
865.808	-22.19
865.982	-59.05
866.156	-50.86
866.329	-59.05
866.503	-32.43
866.676	43.35
866.85	35.16
867.024	14.68
867.197	41.3
867.371	98.64
867.544	-52.91
867.718	-71.34
867.891	78.16
868.065	-61.1
868.238	-3.75
868.412	117.08
868.585	0.34
868.759	2.39
868.932	0.34
869.105	-77.48
869.279	-52.91
869.452	-89.77
869.625	-3.75
869.799	-11.95
869.972	-118.44
870.145	39.25
870.319	49.49
870.492	-97.96
870.665	-114.34
870.838	-112.3
871.011	-177.83
871.185	-48.81
871.358	-30.38
871.531	-16.04
871.704	-40.62
871.877	8.53
872.05	-32.43
872.223	-73.39
872.396	37.2
872.569	26.96
872.742	-79.53
872.915	-1.71
873.088	-63.15
873.261	-16.04
873.434	96.6
873.607	-77.48
873.78	137.56
873.953	-116.39
874.126	-36.52
874.299	2.39
874.471	39.25
874.644	-20.14
874.817	65.88
874.99	41.3
875.163	-32.43
875.335	74.07
875.508	-7.85
875.681	125.27
875.853	-59.05
876.026	-18.09
876.199	72.02
876.371	43.35
876.544	-97.96
876.717	18.77
876.889	20.82
877.062	59.73
877.234	-54.95
877.407	-24.23
877.579	-22.19
877.752	14.68
877.924	47.44
878.097	8.53
878.269	-38.57
878.442	31.06
878.614	16.73
878.786	-22.19
878.959	72.02
879.131	39.25
879.303	-32.43
879.476	2.39
879.648	22.87
879.82	14.68
879.993	-132.78
880.165	-24.23
880.337	-9.9
880.509	59.73
880.681	-110.25
880.854	-79.53
881.026	57.68
881.198	98.64
881.37	6.49
881.542	88.4
881.714	-30.38
881.886	-7.85
882.058	-36.52
882.23	43.35
882.402	-32.43
882.574	112.98
882.746	106.84
882.918	108.88
883.09	51.54
883.262	-44.71
883.434	41.3
883.606	-50.86
883.778	-7.85
883.95	74.07
884.122	-38.57
884.293	-5.8
884.465	90.45
884.637	115.03
884.809	-13.99
884.98	31.06
885.152	-22.19
885.324	16.73
885.496	-149.16
885.667	-46.76
885.839	31.06
886.011	94.55
886.182	-7.85
886.354	22.87
886.525	-16.04
886.697	53.59
886.869	10.58
887.04	0.34
887.212	115.03
887.383	24.92
887.555	0.34
887.726	39.25
887.897	-24.23
888.069	-97.96
888.24	8.53
888.412	-9.9
888.583	-7.85
888.754	2.39
888.926	-89.77
889.097	-34.47
889.268	-114.34
889.44	53.59
889.611	-59.05
889.782	-65.19
889.953	-46.76
890.125	74.07
890.296	-46.76
890.467	-81.58
890.638	-38.57
890.809	41.3
890.98	-11.95
891.151	14.68
891.323	151.89
891.494	-7.85
891.665	31.06
891.836	-7.85
892.007	-40.62
892.178	45.4
892.349	35.16
892.52	-77.48
892.691	-13.99
892.862	-42.67
893.032	-3.75
893.203	-20.14
893.374	20.82
893.545	41.3
893.716	-16.04
893.887	125.27
894.057	-30.38
894.228	-63.15
894.399	-42.67
894.57	45.4
894.74	0.34
894.911	51.54
895.082	-7.85
895.253	-30.38
895.423	31.06
895.594	121.17
895.764	39.25
895.935	-108.2
896.106	-48.81
896.276	-20.14
896.447	14.68
896.617	-65.19
896.788	-91.82
896.958	-24.23
897.129	-5.8
897.299	-93.87
897.47	65.88
897.64	-40.62
897.81	6.49
897.981	14.68
898.151	-16.04
898.322	41.3
898.492	0.34
898.662	-77.48
898.832	-112.3
899.003	-128.68
899.173	14.68
899.343	-42.67
899.513	-57
