Data from USB4F104151__267__11-20-33-632.txt Node

Date: Wed Feb 26 11:20:33 EST 2025
User: louis
Spectrometer: USB4F10415
Trigger mode: 4
Integration Time (sec): 1.000000E-1
Scans to average: 1
Electric dark correction enabled: true
Nonlinearity correction enabled: false
Boxcar width: 0
XAxis mode: Wavelengths
Number of Pixels in Spectrum: 3648
>>>>>Begin Spectral Data<<<<<
178.204	-384.51
178.424	-384.51
178.644	-384.51
178.864	-380.41
179.084	-421.37
179.304	-5.63
179.524	-40.45
179.744	25.09
179.964	47.62
180.184	-11.78
180.404	96.77
180.624	-122.37
180.844	-9.73
181.064	-116.22
181.283	29.18
181.503	31.23
181.723	76.29
181.943	-110.08
182.163	158.21
182.383	-81.41
182.602	119.29
182.822	158.21
183.042	147.97
183.262	33.28
183.482	8.7
183.701	-17.92
183.921	-30.21
184.141	61.95
184.361	127.49
184.58	64
184.8	51.71
185.02	-5.63
185.239	82.43
185.459	113.15
185.679	107.01
185.898	-83.45
186.118	123.39
186.338	80.38
186.557	20.99
186.777	-65.02
186.997	-5.63
187.216	-1.54
187.436	117.25
187.655	94.72
187.875	78.33
188.095	74.24
188.314	182.78
188.534	111.1
188.753	41.47
188.973	162.3
189.192	231.93
189.412	12.8
189.631	12.8
189.851	113.15
190.07	162.3
190.29	-81.41
190.509	55.81
190.729	6.66
190.948	129.53
191.168	182.78
191.387	94.72
191.607	27.14
191.826	29.18
192.045	6.66
192.265	29.18
192.484	90.62
192.704	39.42
192.923	-38.4
193.142	203.26
193.362	92.67
193.581	133.63
193.8	76.29
194.02	135.68
194.239	115.2
194.458	61.95
194.678	12.8
194.897	-50.69
195.116	49.66
195.335	94.72
195.555	82.43
195.774	45.57
195.993	74.24
196.212	45.57
196.432	4.61
196.651	31.23
196.87	-52.74
197.089	254.46
197.308	109.05
197.528	84.48
197.747	-50.69
197.966	23.04
198.185	137.73
198.404	35.33
198.623	104.96
198.842	70.14
199.062	96.77
199.281	166.4
199.5	76.29
199.719	104.96
199.938	45.57
200.157	119.29
200.376	84.48
200.595	111.1
200.814	76.29
201.033	-22.02
201.252	174.59
201.471	86.53
201.69	72.19
201.909	45.57
202.128	141.82
202.347	98.81
202.566	88.57
202.785	-46.59
203.004	-17.92
203.223	242.17
203.442	70.14
203.661	10.75
203.879	92.67
204.098	111.1
204.317	20.99
204.536	82.43
204.755	57.86
204.974	45.57
205.193	-17.92
205.411	131.58
205.63	158.21
205.849	49.66
206.068	-52.74
206.287	-5.63
206.505	164.35
206.724	102.91
206.943	16.9
207.162	4.61
207.381	164.35
207.599	94.72
207.818	33.28
208.037	72.19
208.255	35.33
208.474	107.01
208.693	88.57
208.911	-36.35
209.13	86.53
209.349	139.77
209.567	76.29
209.786	104.96
210.005	102.91
210.223	49.66
210.442	-81.41
210.661	8.7
210.879	18.94
211.098	-9.73
211.316	117.25
211.535	76.29
211.753	88.57
211.972	33.28
212.191	-24.06
212.409	102.91
212.628	86.53
212.846	18.94
213.065	135.68
213.283	68.09
213.502	43.52
213.72	25.09
213.938	-50.69
214.157	14.85
214.375	61.95
214.594	109.05
214.812	90.62
215.031	-46.59
215.249	23.04
215.467	82.43
215.686	35.33
215.904	152.06
216.122	25.09
216.341	92.67
216.559	45.57
216.778	86.53
216.996	156.16
217.214	-60.93
217.432	-48.64
217.651	-65.02
217.869	20.99
218.087	-5.63
218.306	12.8
218.524	27.14
218.742	2.56
218.96	104.96
219.179	16.9
219.397	53.76
219.615	186.88
219.833	139.77
220.051	27.14
220.27	35.33
220.488	72.19
220.706	33.28
220.924	-11.78
221.142	2.56
221.36	35.33
221.578	66.05
221.796	12.8
222.015	51.71
222.233	68.09
222.451	147.97
222.669	0.51
222.887	41.47
223.105	-110.08
223.323	57.86
223.541	8.7
223.759	61.95
223.977	121.34
224.195	152.06
224.413	119.29
224.631	37.38
224.849	90.62
225.067	207.36
225.285	-11.78
225.503	20.99
225.721	-136.7
225.939	74.24
226.157	23.04
226.375	231.93
226.592	-26.11
226.81	18.94
227.028	123.39
227.246	166.4
227.464	43.52
227.682	135.68
227.9	92.67
228.117	94.72
228.335	137.73
228.553	37.38
228.771	18.94
228.989	113.15
229.206	35.33
229.424	49.66
229.642	55.81
229.86	-75.26
230.077	160.25
230.295	-3.58
230.513	82.43
230.731	68.09
230.948	211.45
231.166	135.68
231.384	-46.59
231.601	-103.93
231.819	193.02
232.037	-40.45
232.254	-9.73
232.472	57.86
232.689	-28.16
232.907	107.01
233.125	51.71
233.342	23.04
233.56	-56.83
233.777	25.09
233.995	109.05
234.213	74.24
234.43	125.44
234.648	61.95
234.865	25.09
235.083	2.56
235.3	90.62
235.518	88.57
235.735	88.57
235.953	55.81
236.17	80.38
236.388	78.33
236.605	82.43
236.822	90.62
237.04	182.78
237.257	6.66
237.475	-7.68
237.692	115.2
237.909	51.71
238.127	8.7
238.344	53.76
238.562	94.72
238.779	-56.83
238.996	-9.73
239.214	10.75
239.431	4.61
239.648	-46.59
239.865	94.72
240.083	98.81
240.3	18.94
240.517	16.9
240.735	68.09
240.952	137.73
241.169	27.14
241.386	102.91
241.603	57.86
241.821	-32.26
242.038	96.77
242.255	102.91
242.472	55.81
242.689	117.25
242.907	33.28
243.124	35.33
243.341	25.09
243.558	8.7
243.775	-93.69
243.992	-58.88
244.209	156.16
244.426	184.83
244.643	45.57
244.86	18.94
245.078	115.2
245.295	4.61
245.512	-5.63
245.729	61.95
245.946	31.23
246.163	96.77
246.38	27.14
246.597	16.9
246.814	51.71
247.031	113.15
247.248	-19.97
247.464	45.57
247.681	25.09
247.898	107.01
248.115	29.18
248.332	20.99
248.549	119.29
248.766	107.01
248.983	8.7
249.2	107.01
249.417	100.86
249.633	49.66
249.85	82.43
250.067	25.09
250.284	-3.58
250.501	68.09
250.717	113.15
250.934	-75.26
251.151	-42.5
251.368	70.14
251.585	72.19
251.801	29.18
252.018	-48.64
252.235	86.53
252.451	-5.63
252.668	10.75
252.885	150.01
253.102	70.14
253.318	-50.69
253.535	25.09
253.752	41.47
253.968	-34.3
254.185	-56.83
254.401	2.56
254.618	43.52
254.835	35.33
255.051	129.53
255.268	72.19
255.484	90.62
255.701	61.95
255.917	90.62
256.134	4.61
256.351	8.7
256.567	-67.07
256.784	72.19
257	27.14
257.217	102.91
257.433	113.15
257.65	76.29
257.866	162.3
258.082	-5.63
258.299	-32.26
258.515	37.38
258.732	-13.82
258.948	-114.17
259.165	45.57
259.381	2.56
259.597	82.43
259.814	14.85
260.03	43.52
260.246	35.33
260.463	133.63
260.679	47.62
260.895	23.04
261.112	41.47
261.328	53.76
261.544	-87.55
261.761	158.21
261.977	57.86
262.193	-52.74
262.409	100.86
262.626	72.19
262.842	43.52
263.058	-65.02
263.274	78.33
263.49	127.49
263.707	92.67
263.923	57.86
264.139	-112.13
264.355	29.18
264.571	104.96
264.787	27.14
265.004	90.62
265.22	6.66
265.436	18.94
265.652	-34.3
265.868	25.09
266.084	-15.87
266.3	2.56
266.516	35.33
266.732	20.99
266.948	64
267.164	68.09
267.38	94.72
267.596	0.51
267.812	156.16
268.028	66.05
268.244	37.38
268.46	8.7
268.676	16.9
268.892	27.14
269.108	-26.11
269.324	-17.92
269.54	-73.21
269.756	125.44
269.972	14.85
270.188	-1.54
270.403	-81.41
270.619	-48.64
270.835	111.1
271.051	27.14
271.267	86.53
271.483	-5.63
271.698	123.39
271.914	84.48
272.13	0.51
272.346	-13.82
272.562	92.67
272.777	137.73
272.993	47.62
273.209	-44.54
273.425	59.9
273.64	20.99
273.856	178.69
274.072	51.71
274.287	-42.5
274.503	59.9
274.719	109.05
274.934	-50.69
275.15	-130.56
275.366	6.66
275.581	14.85
275.797	47.62
276.012	57.86
276.228	31.23
276.444	59.9
276.659	78.33
276.875	-22.02
277.09	25.09
277.306	37.38
277.521	55.81
277.737	29.18
277.952	147.97
278.168	76.29
278.383	66.05
278.599	29.18
278.814	117.25
279.03	14.85
279.245	147.97
279.461	8.7
279.676	78.33
279.892	-52.74
280.107	-56.83
280.322	37.38
280.538	78.33
280.753	-11.78
280.969	113.15
281.184	23.04
281.399	147.97
281.615	35.33
281.83	45.57
282.045	-58.88
282.26	2.56
282.476	-40.45
282.691	113.15
282.906	88.57
283.122	176.64
283.337	-22.02
283.552	78.33
283.767	27.14
283.983	92.67
284.198	8.7
284.413	98.81
284.628	-83.45
284.843	14.85
285.058	88.57
285.274	-9.73
285.489	-17.92
285.704	-3.58
285.919	31.23
286.134	88.57
286.349	66.05
286.564	8.7
286.779	250.36
286.995	49.66
287.21	-69.12
287.425	133.63
287.64	-22.02
287.855	12.8
288.07	-85.5
288.285	137.73
288.5	70.14
288.715	74.24
288.93	57.86
289.145	-36.35
289.36	141.82
289.575	43.52
289.79	154.11
290.004	12.8
290.219	113.15
290.434	33.28
290.649	104.96
290.864	-11.78
291.079	18.94
291.294	133.63
291.509	35.33
291.724	82.43
291.938	-28.16
292.153	14.85
292.368	47.62
292.583	72.19
292.798	74.24
293.012	100.86
293.227	8.7
293.442	-48.64
293.657	113.15
293.871	131.58
294.086	84.48
294.301	238.08
294.516	133.63
294.73	45.57
294.945	66.05
295.16	68.09
295.374	109.05
295.589	68.09
295.804	25.09
296.018	82.43
296.233	92.67
296.447	61.95
296.662	-60.93
296.877	172.54
297.091	74.24
297.306	33.28
297.52	64
297.735	2.56
297.949	82.43
298.164	82.43
298.378	51.71
298.593	-60.93
298.807	35.33
299.022	80.38
299.236	195.07
299.451	6.66
299.665	25.09
299.88	18.94
300.094	100.86
300.309	18.94
300.523	41.47
300.737	37.38
300.952	68.09
301.166	76.29
301.381	-36.35
301.595	-19.97
301.809	39.42
302.024	-3.58
302.238	-24.06
302.452	125.44
302.667	16.9
302.881	94.72
303.095	129.53
303.309	57.86
303.524	53.76
303.738	25.09
303.952	27.14
304.166	76.29
304.381	-40.45
304.595	145.92
304.809	-1.54
305.023	76.29
305.237	12.8
305.452	-11.78
305.666	84.48
305.88	80.38
306.094	123.39
306.308	96.77
306.522	4.61
306.736	102.91
306.95	166.4
307.164	51.71
307.379	6.66
307.593	137.73
307.807	176.64
308.021	84.48
308.235	158.21
308.449	-79.36
308.663	49.66
308.877	236.03
309.091	55.81
309.305	104.96
309.519	-99.84
309.733	166.4
309.947	-83.45
310.161	68.09
310.374	74.24
310.588	133.63
310.802	-15.87
311.016	0.51
311.23	66.05
311.444	39.42
311.658	23.04
311.872	127.49
312.085	61.95
312.299	174.59
312.513	176.64
312.727	121.34
312.941	-48.64
313.154	102.91
313.368	51.71
313.582	51.71
313.796	55.81
314.009	16.9
314.223	100.86
314.437	41.47
314.651	90.62
314.864	-46.59
315.078	12.8
315.292	-105.98
315.505	43.52
315.719	94.72
315.933	90.62
316.146	74.24
316.36	-19.97
316.573	162.3
316.787	35.33
317.001	49.66
317.214	-71.17
317.428	82.43
317.641	-62.98
317.855	-1.54
318.068	12.8
318.282	55.81
318.495	205.31
318.709	10.75
318.922	-32.26
319.136	131.58
319.349	72.19
319.563	-34.3
319.776	170.49
319.99	-48.64
320.203	115.2
320.417	12.8
320.63	90.62
320.843	180.73
321.057	8.7
321.27	0.51
321.483	47.62
321.697	109.05
321.91	113.15
322.124	-83.45
322.337	100.86
322.55	-9.73
322.763	78.33
322.977	12.8
323.19	76.29
323.403	31.23
323.617	82.43
323.83	145.92
324.043	49.66
324.256	49.66
324.469	-81.41
324.683	98.81
324.896	90.62
325.109	64
325.322	-42.5
325.535	33.28
325.748	115.2
325.962	-3.58
326.175	33.28
326.388	84.48
326.601	123.39
326.814	27.14
327.027	51.71
327.24	166.4
327.453	-67.07
327.666	125.44
327.879	70.14
328.092	80.38
328.305	100.86
328.518	23.04
328.731	39.42
328.944	-24.06
329.157	33.28
329.37	6.66
329.583	244.22
329.796	152.06
330.009	-42.5
330.222	82.43
330.435	137.73
330.648	96.77
330.861	90.62
331.073	90.62
331.286	145.92
331.499	74.24
331.712	-22.02
331.925	92.67
332.138	72.19
332.35	90.62
332.563	-3.58
332.776	72.19
332.989	18.94
333.202	-5.63
333.414	127.49
333.627	39.42
333.84	0.51
334.053	12.8
334.265	10.75
334.478	57.86
334.691	23.04
334.903	68.09
335.116	-3.58
335.329	29.18
335.541	127.49
335.754	139.77
335.966	31.23
336.179	66.05
336.392	-26.11
336.604	31.23
336.817	70.14
337.029	143.87
337.242	-40.45
337.454	111.1
337.667	119.29
337.88	107.01
338.092	186.88
338.305	88.57
338.517	-3.58
338.729	66.05
338.942	43.52
339.154	-54.78
339.367	4.61
339.579	164.35
339.792	-48.64
340.004	107.01
340.217	86.53
340.429	70.14
340.641	76.29
340.854	18.94
341.066	35.33
341.278	109.05
341.491	184.83
341.703	29.18
341.915	-36.35
342.128	129.53
342.34	135.68
342.552	-30.21
342.764	33.28
342.977	16.9
343.189	-17.92
343.401	55.81
343.613	23.04
343.826	23.04
344.038	-3.58
344.25	74.24
344.462	-24.06
344.674	117.25
344.886	-17.92
345.099	125.44
345.311	41.47
345.523	-9.73
345.735	-3.58
345.947	70.14
346.159	154.11
346.371	74.24
346.583	-34.3
346.795	115.2
347.007	64
347.219	78.33
347.431	-17.92
347.643	180.73
347.855	2.56
348.067	166.4
348.279	-40.45
348.491	-11.78
348.703	57.86
348.915	-69.12
349.127	18.94
349.339	94.72
349.551	12.8
349.763	137.73
349.975	68.09
350.187	152.06
350.399	172.54
350.61	45.57
350.822	35.33
351.034	70.14
351.246	70.14
351.458	129.53
351.669	29.18
351.881	59.9
352.093	133.63
352.305	174.59
352.517	90.62
352.728	154.11
352.94	-28.16
353.152	119.29
353.363	35.33
353.575	35.33
353.787	170.49
353.999	35.33
354.21	166.4
354.422	8.7
354.633	6.66
354.845	102.91
355.057	107.01
355.268	35.33
355.48	102.91
355.692	-22.02
355.903	70.14
356.115	0.51
356.326	-22.02
356.538	143.87
356.749	117.25
356.961	199.16
357.172	47.62
357.384	-85.5
357.595	205.31
357.807	27.14
358.018	31.23
358.23	8.7
358.441	139.77
358.653	78.33
358.864	25.09
359.075	0.51
359.287	39.42
359.498	139.77
359.709	96.77
359.921	88.57
360.132	111.1
360.344	92.67
360.555	-1.54
360.766	104.96
360.977	0.51
361.189	215.55
361.4	25.09
361.611	100.86
361.823	201.21
362.034	14.85
362.245	-48.64
362.456	49.66
362.667	104.96
362.879	45.57
363.09	66.05
363.301	70.14
363.512	23.04
363.723	-26.11
363.935	41.47
364.146	18.94
364.357	72.19
364.568	92.67
364.779	-30.21
364.99	104.96
365.201	18.94
365.412	172.54
365.623	-44.54
365.834	49.66
366.045	61.95
366.256	78.33
366.467	64
366.678	45.57
366.889	70.14
367.1	35.33
367.311	133.63
367.522	12.8
367.733	131.58
367.944	61.95
368.155	-1.54
368.366	172.54
368.577	74.24
368.788	64
368.999	33.28
369.209	94.72
369.42	139.77
369.631	307.71
369.842	80.38
370.053	64
370.264	123.39
370.474	-36.35
370.685	29.18
370.896	43.52
371.107	113.15
371.317	-5.63
371.528	68.09
371.739	96.77
371.95	135.68
372.16	55.81
372.371	2.56
372.582	64
372.792	47.62
373.003	59.9
373.214	76.29
373.424	117.25
373.635	53.76
373.846	113.15
374.056	41.47
374.267	119.29
374.477	57.86
374.688	-54.78
374.898	117.25
375.109	78.33
375.319	31.23
375.53	174.59
375.74	111.1
375.951	72.19
376.161	111.1
376.372	100.86
376.582	23.04
376.793	57.86
377.003	20.99
377.214	49.66
377.424	64
377.635	59.9
377.845	23.04
378.055	190.97
378.266	-48.64
378.476	-28.16
378.686	37.38
378.897	-7.68
379.107	117.25
379.317	70.14
379.528	-13.82
379.738	78.33
379.948	-3.58
380.158	166.4
380.369	78.33
380.579	92.67
380.789	-3.58
380.999	92.67
381.21	131.58
381.42	190.97
381.63	80.38
381.84	66.05
382.05	76.29
382.261	68.09
382.471	164.35
382.681	-73.21
382.891	174.59
383.101	41.47
383.311	8.7
383.521	-32.26
383.731	72.19
383.941	121.34
384.151	104.96
384.361	18.94
384.571	55.81
384.781	98.81
384.991	145.92
385.201	115.2
385.411	25.09
385.621	20.99
385.831	92.67
386.041	80.38
386.251	43.52
386.461	111.1
386.671	-19.97
386.881	23.04
387.091	-3.58
387.301	172.54
387.511	41.47
387.72	111.1
387.93	14.85
388.14	-85.5
388.35	-24.06
388.56	233.98
388.769	121.34
388.979	49.66
389.189	43.52
389.399	-11.78
389.609	125.44
389.818	145.92
390.028	41.47
390.238	84.48
390.447	39.42
390.657	113.15
390.867	-1.54
391.076	-50.69
391.286	47.62
391.496	41.47
391.705	39.42
391.915	131.58
392.125	41.47
392.334	12.8
392.544	88.57
392.753	47.62
392.963	-67.07
393.172	45.57
393.382	43.52
393.591	172.54
393.801	-34.3
394.01	94.72
394.22	47.62
394.429	6.66
394.639	64
394.848	107.01
395.058	121.34
395.267	35.33
395.477	127.49
395.686	84.48
395.895	172.54
396.105	231.93
396.314	107.01
396.524	16.9
396.733	92.67
396.942	147.97
397.152	199.16
397.361	154.11
397.57	33.28
397.78	111.1
397.989	45.57
398.198	240.12
398.407	170.49
398.617	29.18
398.826	145.92
399.035	12.8
399.244	141.82
399.453	2.56
399.663	80.38
399.872	59.9
400.081	25.09
400.29	129.53
400.499	-99.84
400.708	125.44
400.917	55.81
401.127	29.18
401.336	10.75
401.545	184.83
401.754	119.29
401.963	74.24
402.172	117.25
402.381	14.85
402.59	61.95
402.799	96.77
403.008	129.53
403.217	147.97
403.426	43.52
403.635	-58.88
403.844	35.33
404.053	0.51
404.262	10.75
404.471	246.27
404.68	86.53
404.888	45.57
405.097	80.38
405.306	-28.16
405.515	123.39
405.724	-26.11
405.933	70.14
406.142	104.96
406.35	61.95
406.559	39.42
406.768	49.66
406.977	154.11
407.185	68.09
407.394	55.81
407.603	-7.68
407.812	96.77
408.02	141.82
408.229	92.67
408.438	64
408.646	-30.21
408.855	0.51
409.064	-13.82
409.272	72.19
409.481	143.87
409.69	-28.16
409.898	-9.73
410.107	109.05
410.315	129.53
410.524	27.14
410.733	154.11
410.941	10.75
411.15	68.09
411.358	94.72
411.567	156.16
411.775	35.33
411.984	74.24
412.192	37.38
412.401	-24.06
412.609	76.29
412.818	125.44
413.026	66.05
413.234	92.67
413.443	57.86
413.651	-62.98
413.86	66.05
414.068	143.87
414.276	209.4
414.485	-46.59
414.693	123.39
414.901	186.88
415.11	131.58
415.318	49.66
415.526	8.7
415.734	113.15
415.943	68.09
416.151	104.96
416.359	12.8
416.567	66.05
416.776	119.29
416.984	102.91
417.192	219.64
417.4	39.42
417.608	72.19
417.817	64
418.025	55.81
418.233	252.41
418.441	76.29
418.649	-22.02
418.857	127.49
419.065	78.33
419.273	27.14
419.481	111.1
419.689	68.09
419.897	47.62
420.105	-17.92
420.313	88.57
420.521	127.49
420.729	119.29
420.937	-28.16
421.145	-36.35
421.353	131.58
421.561	188.93
421.769	117.25
421.977	45.57
422.185	80.38
422.393	39.42
422.601	154.11
422.809	145.92
423.017	98.81
423.224	102.91
423.432	162.3
423.64	68.09
423.848	82.43
424.056	-13.82
424.263	135.68
424.471	-13.82
424.679	129.53
424.887	25.09
425.094	176.64
425.302	49.66
425.51	-7.68
425.718	205.31
425.925	74.24
426.133	45.57
426.341	188.93
426.548	61.95
426.756	8.7
426.964	125.44
427.171	70.14
427.379	145.92
427.586	8.7
427.794	172.54
428.001	100.86
428.209	102.91
428.417	205.31
428.624	203.26
428.832	68.09
429.039	43.52
429.247	43.52
429.454	104.96
429.662	164.35
429.869	104.96
430.076	90.62
430.284	180.73
430.491	219.64
430.699	158.21
430.906	215.55
431.114	84.48
431.321	102.91
431.528	152.06
431.736	131.58
431.943	125.44
432.15	186.88
432.358	197.12
432.565	268.8
432.772	68.09
432.979	299.52
433.187	76.29
433.394	104.96
433.601	193.02
433.808	201.21
434.016	213.5
434.223	238.08
434.43	205.31
434.637	246.27
434.844	174.59
435.052	279.04
435.259	240.12
435.466	279.04
435.673	281.08
435.88	309.76
436.087	330.23
436.294	270.84
436.501	268.8
436.708	281.08
436.915	354.81
437.122	352.76
437.329	236.03
437.537	363
437.743	336.38
437.95	473.59
438.157	381.43
438.364	365.05
438.571	311.8
438.778	395.77
438.985	471.54
439.192	451.07
439.399	365.05
439.606	383.48
439.813	469.5
440.02	573.94
440.227	631.29
440.433	504.31
440.64	541.18
440.847	489.98
441.054	530.94
441.261	649.72
441.467	506.36
441.674	571.9
441.881	657.91
442.088	651.77
442.294	664.05
442.501	754.16
442.708	684.53
442.914	858.61
443.121	766.45
443.328	774.64
443.534	952.82
443.741	889.33
443.948	784.88
444.154	889.33
444.361	1055.22
444.568	1098.22
444.774	977.39
444.981	874.99
445.187	1176.05
445.394	1081.84
445.6	1077.74
445.807	1202.67
446.013	1206.77
446.22	1108.46
446.426	1346.03
446.633	1360.36
446.839	1470.95
447.046	1307.12
447.252	1606.12
447.459	1522.15
447.665	1599.98
447.871	1685.99
448.078	1896.93
448.284	1806.82
448.491	1978.85
448.697	1903.07
448.903	2077.15
449.11	2075.1
449.316	1941.99
449.522	2247.13
449.728	2284
449.935	2378.2
450.141	2339.29
450.347	2490.84
450.553	2449.88
450.76	2460.12
450.966	2705.88
451.172	2798.04
451.378	2902.48
451.584	2965.97
451.791	3328.46
451.997	3168.72
452.203	3359.18
452.409	3287.5
452.615	3641.8
452.821	3496.39
453.027	3621.32
453.233	4069.83
453.44	3910.08
453.646	3975.62
453.852	4209.09
454.058	4329.92
454.264	4561.34
454.47	4960.69
454.676	4950.45
454.882	5347.76
455.088	5228.98
455.294	5296.56
455.5	5915.05
455.705	5976.48
455.911	5960.1
456.117	6259.1
456.323	6291.87
456.529	6336.93
456.735	7035.28
456.941	7248.27
457.147	7418.25
457.352	7629.2
457.558	7616.91
457.764	8378.75
457.97	8567.17
458.176	8946.04
458.381	9134.45
458.587	9359.73
458.793	9720.17
458.999	9666.92
459.204	11245.91
459.41	11419.99
459.616	11432.27
459.821	12114.25
460.027	12446.02
460.233	13185.33
460.438	13015.35
460.644	13949.23
460.85	14041.39
461.055	14594.34
461.261	15247.64
461.466	14790.94
461.672	15511.83
461.878	17060.09
462.083	16883.97
462.289	17373.43
462.494	17801.46
462.7	17823.98
462.905	18391.27
463.111	19683.54
463.316	20859.07
463.522	20977.86
463.727	21694.64
463.932	22673.57
464.138	23242.91
464.343	24365.2
464.549	24350.86
464.754	26294.38
464.959	26429.55
465.165	27322.46
465.37	26923.11
465.575	27154.53
465.781	29087.81
465.986	29573.18
466.191	29253.7
466.397	29665.34
466.602	28895.3
466.807	30674.99
467.012	31277.09
467.218	31606.81
467.423	31561.76
467.628	32878.6
467.833	34195.45
468.038	33654.78
468.244	33087.5
468.449	34725.87
468.654	34209.78
468.859	34129.91
469.064	33974.27
469.269	33220.61
469.474	33480.71
469.679	34263.03
469.885	33652.73
470.09	33935.35
470.295	34170.87
470.5	33222.66
470.705	33509.38
470.91	32507.92
471.115	32319.51
471.32	32776.2
471.525	32802.83
471.73	31864.86
471.935	31531.04
472.139	30173.24
472.344	30478.38
472.549	30197.81
472.754	29538.37
472.959	29163.59
473.164	27863.13
473.369	27779.16
473.574	28604.49
473.778	28110.93
473.983	27064.42
474.188	27058.28
474.393	25954.42
474.598	25548.92
474.802	24823.94
475.007	24785.03
475.212	24516.75
475.417	23513.24
475.621	23128.22
475.826	22978.72
476.031	22165.68
476.235	21969.07
476.44	22061.23
476.645	21592.25
476.849	21317.82
477.054	21326.01
477.259	20457.67
477.463	20420.81
477.668	19482.84
477.872	19853.52
478.077	19335.38
478.282	18618.6
478.486	18516.2
478.691	18301.16
478.895	18190.57
479.1	17957.1
479.304	17963.25
479.509	17346.81
479.713	17561.84
479.918	17225.98
480.122	17017.08
480.326	16910.59
480.531	16933.12
480.735	16490.76
480.94	16386.31
481.144	16922.88
481.348	15892.75
481.553	16054.54
481.757	15761.68
481.961	15665.42
482.166	15612.18
482.37	15587.6
482.574	15253.78
482.778	15290.65
482.983	15593.75
483.187	15247.64
483.391	15284.5
483.595	14745.89
483.8	14684.45
484.004	14801.18
484.208	14594.34
484.412	14358.82
484.616	14250.28
484.821	14149.93
485.025	13420.85
485.229	13678.9
485.433	13400.37
485.637	13347.12
485.841	13084.98
486.045	13052.22
486.249	13054.26
486.453	12673.34
486.657	12587.33
486.861	12351.81
487.065	12030.28
487.269	12099.91
487.473	11628.88
487.677	11774.28
487.881	11755.85
488.085	11200.85
488.289	11069.78
488.493	10723.68
488.697	10809.69
488.901	10568.03
489.105	10242.4
489.309	10248.55
489.512	10113.38
489.716	9873.77
489.92	9810.28
490.124	9271.67
490.328	9359.73
490.531	9159.03
490.735	9011.57
490.939	8956.28
491.143	8735.1
491.346	8569.21
491.55	8532.35
491.754	8489.34
491.958	8305.03
492.161	8065.41
492.365	8016.26
492.569	7809.42
492.772	7778.7
492.976	7573.9
493.18	7469.45
493.383	7485.84
493.587	7369.1
493.79	7512.46
493.994	6988.18
494.197	7158.16
494.401	7031.19
494.605	6826.39
494.808	6943.13
495.012	6830.49
495.215	6818.2
495.419	6764.95
495.622	6680.99
495.825	6560.16
496.029	6654.36
496.232	6642.07
496.436	6568.35
496.639	6316.45
496.843	6513.05
497.046	6396.32
497.249	6640.03
497.453	6580.64
497.656	6488.48
497.859	6539.68
498.063	6635.93
498.266	6640.03
498.469	6437.28
498.673	6517.15
498.876	6537.63
499.079	6541.72
499.282	6689.18
499.485	7008.66
499.689	6588.83
499.892	6738.33
500.095	6701.47
500.298	6748.57
500.501	6826.39
500.705	6902.17
500.908	7016.85
501.111	7023
501.314	7094.68
501.517	7221.65
501.72	7324.05
501.923	7377.3
502.126	7338.38
502.329	7567.76
502.532	7565.71
502.735	7618.96
502.938	7659.92
503.141	7833.99
503.344	7917.96
503.547	8038.79
503.75	8061.32
503.953	8112.52
504.156	8184.2
504.359	8407.42
504.562	8358.27
504.765	8556.93
504.968	8909.18
505.17	9001.33
505.373	8970.62
505.576	9185.65
505.779	9064.82
505.982	9343.35
506.185	9652.59
506.387	9566.57
506.59	9976.17
506.793	10158.44
506.996	10254.69
507.198	10600.8
507.401	10682.72
507.604	10910.04
507.807	11110.74
508.009	11303.25
508.212	11534.67
508.415	11813.2
508.617	11759.95
508.82	12106.06
509.022	12325.19
509.225	12466.5
509.428	12937.53
509.63	13414.71
509.833	13410.61
510.035	14025
510.238	14160.17
510.44	14246.18
510.643	14758.17
510.845	15149.34
511.048	15188.25
511.25	15591.7
511.453	15902.99
511.655	16562.44
511.858	16685.31
512.06	17023.23
512.262	17389.81
512.465	17567.99
512.667	18041.07
512.87	18671.84
513.072	18841.82
513.274	19515.61
513.477	19749.07
513.679	20326.6
513.881	20664.52
514.084	21137.6
514.286	21674.17
514.488	21991.6
514.69	22929.57
514.893	22874.27
515.095	23376.03
515.297	24438.92
515.499	24637.58
515.701	25165.95
515.904	25706.62
516.106	26226.8
516.308	26808.42
516.51	27183.2
516.712	27748.44
516.914	28610.64
517.116	28960.84
517.318	29282.37
517.52	29677.63
517.722	30279.73
517.925	30732.33
518.127	31690.78
518.329	32174.1
518.531	32473.1
518.733	33470.47
518.935	33734.65
519.136	34000.89
519.338	34891.76
519.54	35350.5
519.742	36007.9
519.944	36335.57
520.146	37150.67
520.348	37472.2
520.55	38250.42
520.752	38053.82
520.954	39530.4
521.155	39372.71
521.357	40247.19
521.559	40095.64
521.761	41303.95
521.963	41353.1
522.164	41725.83
522.366	41559.94
522.568	42508.15
522.77	42970.99
522.971	43614.05
523.173	43186.03
523.375	43728.74
523.576	43818.85
523.778	43849.57
523.98	44494.68
524.181	44668.76
524.383	44511.06
524.584	44769.11
524.786	45272.91
524.988	44701.53
525.189	45586.25
525.391	45801.29
525.592	45469.51
525.794	45866.82
525.995	45637.45
526.197	45297.48
526.398	45432.65
526.6	45385.55
526.801	45412.17
527.003	45662.02
527.204	45365.07
527.406	45533
527.607	45012.82
527.808	45197.13
528.01	44040.03
528.211	44326.75
528.412	44623.7
528.614	43966.31
528.815	43872.1
529.016	43624.29
529.218	43009.9
529.419	42856.31
529.62	42217.34
529.822	41846.66
530.023	41779.07
530.224	41432.97
530.425	40943.5
530.626	39806.88
530.828	39878.56
531.029	39890.85
531.23	39167.91
531.431	38805.42
531.632	38694.83
531.833	38092.73
532.035	38053.82
532.236	36949.96
532.437	36982.73
532.638	36657.1
532.839	35987.42
533.04	35872.73
533.241	34842.6
533.442	35305.45
533.643	34406.39
533.844	33634.3
534.045	33605.63
534.246	32649.23
534.447	32552.98
534.648	32378.9
534.849	31768.6
535.05	31223.84
535.251	30672.94
535.451	29911.1
535.652	29614.14
535.853	29425.73
536.054	29503.55
536.255	28928.07
536.456	28242
536.657	28244.05
536.857	27414.62
537.058	27203.68
537.259	26929.25
537.46	26861.67
537.66	26028.15
537.861	26081.39
538.062	25657.46
538.263	25198.72
538.463	24731.78
538.664	24221.84
538.865	24627.34
539.065	24371.34
539.266	23603.35
539.466	23478.43
539.667	23160.99
539.868	22997.15
540.068	22466.73
540.269	22102.19
540.469	22059.18
540.67	21827.76
540.87	21543.1
541.071	21180.6
541.271	21024.96
541.472	20904.13
541.672	20611.27
541.873	20418.76
542.073	19777.75
542.274	20275.4
542.474	19595.48
542.675	19388.63
542.875	19161.31
543.075	18866.4
543.276	18585.83
543.476	18811.1
543.676	18186.47
543.877	17979.63
544.077	18016.49
544.277	17922.29
544.478	17463.54
544.678	17432.82
544.878	17217.79
545.078	17176.83
545.279	16769.28
545.479	16541.96
545.679	16345.35
545.879	16271.62
546.079	16167.18
546.28	15812.88
546.48	15632.66
546.68	15493.4
546.88	15212.82
547.08	15225.11
547.28	15114.52
547.48	14532.9
547.68	14481.7
547.88	14367.01
548.081	14283.05
548.281	13914.41
548.481	13730.09
548.681	13689.14
548.881	13592.88
549.081	13039.93
549.28	13257.01
549.48	13029.69
549.68	12777.79
549.88	12831.04
550.08	12499.27
550.28	12208.45
550.48	12300.61
550.68	12054.86
550.88	11753.8
551.08	11465.04
551.279	11657.55
551.479	11276.63
551.679	11360.59
551.879	10975.58
552.079	10756.44
552.278	10574.17
552.478	10461.54
552.678	10387.81
552.878	10393.95
553.077	10023.27
553.277	9746.8
553.477	9904.49
553.676	9607.53
553.876	9433.46
554.076	9363.83
554.275	9128.31
554.475	8839.55
554.674	8880.5
554.874	8847.74
555.074	8345.98
555.273	8493.44
555.473	8405.38
555.672	8176
555.872	7971.21
556.071	7854.47
556.271	8026.5
556.47	7760.27
556.67	7616.91
556.869	7446.93
557.068	7350.67
557.268	7231.89
557.467	6990.23
557.667	6934.93
557.866	6977.94
558.065	6781.34
558.265	6570.4
558.464	6476.19
558.663	6478.24
558.863	6295.97
559.062	6330.78
559.261	6166.95
559.461	6048.16
559.66	6025.64
559.859	5951.91
560.058	5583.27
560.258	5597.61
560.457	5542.32
560.656	5613.99
560.855	5210.54
561.054	5286.32
561.253	5353.9
561.453	5167.54
561.652	5065.14
561.851	5087.67
562.05	4843.96
562.249	4702.65
562.448	4737.46
562.647	4590.01
562.846	4473.28
563.045	4731.32
563.244	4536.76
563.443	4489.66
563.642	4270.53
563.841	4405.69
564.04	4278.72
564.239	4186.56
564.438	4045.25
564.637	3928.52
564.836	3910.08
565.035	3793.35
565.234	3998.15
565.432	3643.85
565.631	3797.45
565.83	3676.62
566.029	3660.23
566.228	3490.25
566.427	3621.32
566.625	3316.17
566.824	3408.33
567.023	3381.71
567.222	3226.06
567.42	3203.54
567.619	3281.36
567.818	3078.61
568.016	3246.54
568.215	3156.43
568.414	3109.33
568.612	2947.54
568.811	2896.34
569.01	2910.68
569.208	2957.78
569.407	2804.18
569.605	2937.3
569.804	2783.7
570.002	2746.84
570.201	2648.54
570.4	2740.69
570.598	2564.57
570.797	2552.28
570.995	2439.64
571.193	2419.16
571.392	2583
571.59	2380.25
571.789	2296.28
571.987	2490.84
572.186	2355.68
572.384	2261.47
572.582	2177.5
572.781	2320.86
572.979	2081.25
573.177	2122.21
573.376	2073.06
573.574	2050.53
573.772	2030.05
573.971	1993.19
574.169	1855.97
574.367	1911.27
574.565	1860.07
574.763	1878.5
574.962	1858.02
575.16	1704.42
575.358	1612.26
575.556	1722.85
575.754	1798.63
575.952	1649.13
576.151	1739.24
576.349	1847.78
576.547	1462.76
576.745	1595.88
576.943	1571.3
577.141	1554.92
577.339	1460.71
577.537	1573.35
577.735	1585.64
577.933	1511.91
578.131	1470.95
578.329	1534.44
578.527	1370.6
578.725	1419.75
578.923	1219.05
579.121	1378.79
579.319	1096.18
579.516	1303.02
579.714	1325.55
579.912	1264.11
580.11	1167.85
580.308	1176.05
580.506	1212.91
580.704	1116.65
580.901	1147.37
581.099	1268.2
581.297	1147.37
581.495	1083.89
581.692	1026.54
581.89	1184.24
582.088	1079.79
582.285	975.35
582.483	1094.13
582.681	1030.64
582.878	1061.36
583.076	965.11
583.274	1010.16
583.471	1122.8
583.669	874.99
583.866	872.95
584.064	870.9
584.262	803.32
584.459	813.56
584.657	932.34
584.854	950.77
585.052	924.15
585.249	924.15
585.447	811.51
585.644	711.16
585.841	850.42
586.039	870.9
586.236	924.15
586.434	752.12
586.631	575.99
586.828	743.92
587.026	721.4
587.223	700.92
587.42	788.98
587.618	793.08
587.815	756.21
588.012	815.6
588.21	700.92
588.407	705.01
588.604	795.12
588.801	569.85
588.999	702.97
589.196	700.92
589.393	588.28
589.59	612.85
589.787	657.91
589.984	578.04
590.182	666.1
590.379	616.95
590.576	606.71
590.773	586.23
590.97	633.33
591.167	670.2
591.364	659.96
591.561	612.85
591.758	723.44
591.955	676.34
592.152	582.14
592.349	453.11
592.546	487.93
592.743	578.04
592.94	567.8
593.137	571.9
593.334	645.62
593.531	641.53
593.727	500.22
593.924	588.28
594.121	598.52
594.318	612.85
594.515	619
594.712	772.6
594.908	647.67
595.105	526.84
595.302	641.53
595.499	590.33
595.696	674.29
595.892	528.89
596.089	772.6
596.286	729.59
596.482	735.73
596.679	739.83
596.876	647.67
597.072	786.93
597.269	772.6
597.466	731.64
597.662	776.69
597.859	750.07
598.055	739.83
598.252	850.42
598.448	899.57
598.645	920.05
598.841	987.63
599.038	1006.06
599.234	1196.53
599.431	1094.13
599.627	1063.41
599.824	1108.46
600.02	1194.48
600.217	1090.03
600.413	1370.6
600.609	1217.01
600.806	1638.89
601.002	1333.74
601.198	1352.17
601.395	1509.86
601.591	1403.37
601.787	1608.17
601.984	1667.56
602.18	1720.81
602.376	1815.01
602.572	1874.4
602.769	1939.94
602.965	1970.66
603.161	2124.26
603.357	2030.05
603.553	2238.94
603.75	2181.6
603.946	2376.16
604.142	2392.54
604.338	2480.6
604.534	2484.7
604.73	2529.75
604.926	2597.34
605.122	2906.58
605.318	2945.49
605.514	3039.7
605.71	3178.96
605.906	3144.14
606.102	3178.96
606.298	3226.06
606.494	3412.43
606.69	3660.23
606.886	3678.66
607.082	3713.48
607.278	3807.69
607.474	3805.64
607.67	4178.37
607.866	4145.6
608.062	4340.16
608.257	4495.8
608.453	4448.7
608.649	4821.43
608.845	4837.81
609.041	4749.75
609.236	5036.47
609.432	5081.52
609.628	5384.62
609.824	5263.79
610.019	5552.56
610.215	5720.49
610.411	5956.01
610.606	6082.98
610.802	6134.18
610.998	6291.87
611.193	6554.01
611.389	6594.97
611.584	6746.52
611.78	6945.17
611.976	7121.3
612.171	7424.4
612.367	7647.63
612.562	7559.56
612.758	7899.53
612.953	8046.98
613.149	8307.07
613.344	8640.89
613.539	8718.71
613.735	9091.45
613.93	9406.83
614.126	9343.35
614.321	9630.06
614.517	10101.09
614.712	10213.73
614.907	10199.4
615.103	10776.92
615.298	10934.62
615.493	11184.47
615.688	11462.99
615.884	11950.41
616.079	11997.51
616.274	12151.11
616.47	12624.19
616.665	12794.17
616.86	13101.37
617.055	13769.01
617.25	13762.86
617.445	14424.36
617.641	14434.6
617.836	14926.11
618.031	15157.53
618.226	15771.92
618.421	15718.67
618.616	16515.33
618.811	16564.48
619.006	17256.7
619.201	17510.64
619.396	17834.22
619.591	18082.03
619.786	18847.97
619.981	18987.23
620.176	19327.19
620.371	19800.27
620.566	20265.16
620.761	20570.31
620.956	21160.13
621.151	21139.65
621.346	21852.34
621.541	21924.02
621.735	22773.92
621.93	22972.58
622.125	23660.69
622.32	23437.47
622.515	24303.76
622.709	24782.98
622.904	25192.58
623.099	25487.48
623.294	26151.02
623.488	26263.66
623.683	26935.4
623.878	26972.26
624.072	27408.48
624.267	27846.74
624.462	28604.49
624.656	28930.12
624.851	29073.48
625.046	29534.27
625.24	29990.97
625.435	30355.5
625.629	31152.16
625.824	31625.25
626.018	31715.36
626.213	31719.45
626.407	32411.67
626.602	32540.69
626.796	33224.71
626.991	33490.94
627.185	33591.3
627.38	34154.49
627.574	33998.84
627.768	34080.76
627.963	34363.38
628.157	34551.79
628.352	34639.86
628.546	34314.23
628.74	35014.63
628.935	34303.99
629.129	34889.71
629.323	34373.62
629.517	34215.93
629.712	33992.7
629.906	33904.63
630.1	33323.01
630.294	33275.91
630.489	32956.43
630.683	32626.7
630.877	31694.88
631.071	31322.15
631.265	31320.1
631.459	30261.3
631.653	29831.22
631.848	29333.57
632.042	28641.35
632.236	27910.23
632.43	26964.07
632.624	26693.74
632.818	25806.97
633.012	24860.8
633.206	23797.91
633.4	23505.05
633.594	22091.95
633.788	21842.1
633.982	21348.54
634.176	20521.16
634.369	19581.14
634.563	18907.36
634.757	18108.65
634.951	17510.64
635.145	16937.21
635.339	16285.96
635.533	15552.79
635.726	14934.3
635.92	14227.75
636.114	13912.36
636.308	13211.96
636.501	12593.47
636.695	12075.34
636.889	11516.24
637.083	11215.19
637.276	10662.24
637.47	10246.5
637.664	10004.84
637.857	9314.67
638.051	9189.75
638.244	8776.06
638.438	8257.92
638.632	7924.1
638.825	7465.36
639.019	7473.55
639.212	7029.14
639.406	6853.02
639.599	6390.17
639.793	6347.17
639.986	5874.09
640.18	5910.95
640.373	5634.47
640.567	5441.96
640.76	5216.69
640.954	4858.29
641.147	4708.79
641.34	4387.26
641.534	4475.32
641.727	4389.31
641.92	4213.18
642.114	3783.11
642.307	3742.15
642.5	3701.19
642.694	3488.2
642.887	3402.19
643.08	3228.11
643.273	3287.5
643.467	2943.44
643.66	2845.14
643.853	2724.31
644.046	2642.39
644.239	2570.71
644.432	2525.66
644.626	2320.86
644.819	2337.24
645.012	2171.36
645.205	2189.79
645.398	2197.98
645.591	1800.68
645.784	1745.38
645.977	1651.17
646.17	1712.61
646.363	1698.28
646.556	1575.4
646.749	1466.86
646.942	1561.06
647.135	1460.71
647.328	1407.47
647.521	1350.12
647.714	1300.97
647.907	1251.82
648.099	1061.36
648.292	1190.38
648.485	1100.27
648.678	1036.78
648.871	1014.26
649.064	1067.5
649.256	938.48
649.449	887.28
649.642	885.23
649.835	868.85
650.027	795.12
650.22	874.99
650.413	659.96
650.605	684.53
650.798	688.63
650.991	627.19
651.183	670.2
651.376	625.14
651.568	743.92
651.761	594.42
651.954	592.37
652.146	510.46
652.339	635.38
652.531	588.28
652.724	489.98
652.916	434.68
653.109	449.02
653.301	506.36
653.494	539.13
653.686	510.46
653.879	532.98
654.071	426.49
654.263	342.52
654.456	373.24
654.648	520.7
654.84	461.3
655.033	285.18
655.225	553.46
655.417	203.26
655.61	430.59
655.802	340.47
655.994	463.35
656.186	309.76
656.379	410.11
656.571	336.38
656.763	303.61
656.955	256.51
657.148	340.47
657.34	352.76
657.532	274.94
657.724	215.55
657.916	244.22
658.108	328.19
658.3	299.52
658.492	281.08
658.684	236.03
658.876	248.32
659.068	143.87
659.26	190.97
659.452	137.73
659.644	291.32
659.836	354.81
660.028	147.97
660.22	190.97
660.412	156.16
660.604	168.45
660.796	244.22
660.988	297.47
661.18	147.97
661.372	324.09
661.563	236.03
661.755	256.51
661.947	154.11
662.139	113.15
662.331	266.75
662.522	178.69
662.714	107.01
662.906	76.29
663.097	205.31
663.289	102.91
663.481	16.9
663.673	166.4
663.864	158.21
664.056	211.45
664.247	104.96
664.439	250.36
664.631	133.63
664.822	166.4
665.014	96.77
665.205	66.05
665.397	49.66
665.588	162.3
665.78	141.82
665.971	193.02
666.163	94.72
666.354	229.88
666.546	100.86
666.737	109.05
666.929	88.57
667.12	74.24
667.311	154.11
667.503	104.96
667.694	205.31
667.885	154.11
668.077	223.74
668.268	14.85
668.459	121.34
668.651	154.11
668.842	137.73
669.033	18.94
669.224	16.9
669.416	305.66
669.607	168.45
669.798	57.86
669.989	190.97
670.18	76.29
670.371	150.01
670.563	16.9
670.754	188.93
670.945	188.93
671.136	233.98
671.327	113.15
671.518	215.55
671.709	270.84
671.9	133.63
672.091	203.26
672.282	164.35
672.473	141.82
672.664	115.2
672.855	102.91
673.046	213.5
673.237	227.84
673.428	64
673.619	139.77
673.809	107.01
674	203.26
674.191	88.57
674.382	107.01
674.573	145.92
674.764	94.72
674.954	170.49
675.145	82.43
675.336	84.48
675.527	70.14
675.717	143.87
675.908	64
676.099	129.53
676.289	231.93
676.48	12.8
676.671	111.1
676.861	137.73
677.052	102.91
677.243	127.49
677.433	96.77
677.624	242.17
677.814	182.78
678.005	104.96
678.195	180.73
678.386	45.57
678.576	168.45
678.767	94.72
678.957	150.01
679.148	221.69
679.338	240.12
679.529	180.73
679.719	150.01
679.909	248.32
680.1	256.51
680.29	225.79
680.481	61.95
680.671	162.3
680.861	190.97
681.052	160.25
681.242	107.01
681.432	205.31
681.622	225.79
681.813	96.77
682.003	215.55
682.193	133.63
682.383	225.79
682.573	158.21
682.764	180.73
682.954	113.15
683.144	160.25
683.334	160.25
683.524	193.02
683.714	240.12
683.904	172.54
684.094	170.49
684.284	121.34
684.474	346.62
684.664	162.3
684.854	279.04
685.044	150.01
685.234	150.01
685.424	145.92
685.614	197.12
685.804	322.04
685.994	162.3
686.184	170.49
686.374	250.36
686.564	258.56
686.753	152.06
686.943	86.53
687.133	182.78
687.323	270.84
687.513	203.26
687.702	211.45
687.892	186.88
688.082	303.61
688.272	287.23
688.461	248.32
688.651	309.76
688.841	293.37
689.03	109.05
689.22	147.97
689.41	268.8
689.599	252.41
689.789	113.15
689.979	231.93
690.168	174.59
690.358	238.08
690.547	150.01
690.737	178.69
690.926	276.99
691.116	264.7
691.305	258.56
691.495	264.7
691.684	111.1
691.874	164.35
692.063	135.68
692.252	250.36
692.442	219.64
692.631	186.88
692.82	129.53
693.01	252.41
693.199	182.78
693.388	229.88
693.578	225.79
693.767	238.08
693.956	178.69
694.146	188.93
694.335	242.17
694.524	201.21
694.713	387.58
694.902	244.22
695.092	164.35
695.281	252.41
695.47	162.3
695.659	201.21
695.848	211.45
696.037	147.97
696.226	266.75
696.415	178.69
696.604	322.04
696.793	246.27
696.982	219.64
697.171	303.61
697.36	178.69
697.549	176.64
697.738	96.77
697.927	104.96
698.116	176.64
698.305	252.41
698.494	217.6
698.683	109.05
698.872	293.37
699.061	248.32
699.25	111.1
699.438	203.26
699.627	98.81
699.816	293.37
700.005	119.29
700.193	135.68
700.382	186.88
700.571	184.83
700.76	121.34
700.948	233.98
701.137	178.69
701.326	256.51
701.514	78.33
701.703	213.5
701.892	231.93
702.08	256.51
702.269	193.02
702.457	131.58
702.646	264.7
702.834	113.15
703.023	244.22
703.212	317.95
703.4	209.4
703.589	131.58
703.777	178.69
703.965	84.48
704.154	72.19
704.342	92.67
704.531	223.74
704.719	242.17
704.907	227.84
705.096	61.95
705.284	84.48
705.472	201.21
705.661	223.74
705.849	246.27
706.037	240.12
706.226	168.45
706.414	268.8
706.602	147.97
706.79	205.31
706.979	154.11
707.167	238.08
707.355	59.9
707.543	158.21
707.731	205.31
707.919	207.36
708.107	285.18
708.296	98.81
708.484	102.91
708.672	180.73
708.86	176.64
709.048	186.88
709.236	174.59
709.424	283.13
709.612	223.74
709.8	104.96
709.988	252.41
710.176	256.51
710.364	293.37
710.551	268.8
710.739	193.02
710.927	135.68
711.115	229.88
711.303	303.61
711.491	172.54
711.679	170.49
711.866	197.12
712.054	154.11
712.242	225.79
712.43	301.56
712.617	225.79
712.805	291.32
712.993	170.49
713.181	121.34
713.368	207.36
713.556	162.3
713.744	123.39
713.931	371.19
714.119	211.45
714.306	154.11
714.494	215.55
714.682	219.64
714.869	59.9
715.057	195.07
715.244	39.42
715.432	158.21
715.619	190.97
715.807	170.49
715.994	199.16
716.182	252.41
716.369	324.09
716.556	252.41
716.744	147.97
716.931	156.16
717.119	236.03
717.306	129.53
717.493	178.69
717.681	117.25
717.868	147.97
718.055	225.79
718.242	188.93
718.43	170.49
718.617	205.31
718.804	168.45
718.991	279.04
719.179	244.22
719.366	223.74
719.553	211.45
719.74	270.84
719.927	203.26
720.114	193.02
720.301	150.01
720.488	182.78
720.676	111.1
720.863	287.23
721.05	334.33
721.237	199.16
721.424	188.93
721.611	233.98
721.798	147.97
721.985	88.57
722.172	254.46
722.358	133.63
722.545	227.84
722.732	213.5
722.919	256.51
723.106	250.36
723.293	98.81
723.48	223.74
723.667	182.78
723.853	291.32
724.04	221.69
724.227	188.93
724.414	217.6
724.6	293.37
724.787	287.23
724.974	270.84
725.161	238.08
725.347	190.97
725.534	223.74
725.72	180.73
725.907	338.43
726.094	201.21
726.28	160.25
726.467	231.93
726.653	127.49
726.84	307.71
727.027	375.29
727.213	131.58
727.4	211.45
727.586	193.02
727.773	207.36
727.959	274.94
728.145	240.12
728.332	233.98
728.518	203.26
728.705	244.22
728.891	256.51
729.077	137.73
729.264	182.78
729.45	219.64
729.636	309.76
729.823	246.27
730.009	326.14
730.195	309.76
730.382	338.43
730.568	180.73
730.754	285.18
730.94	293.37
731.126	203.26
731.313	276.99
731.499	104.96
731.685	283.13
731.871	385.53
732.057	287.23
732.243	309.76
732.429	313.85
732.615	360.95
732.801	320
732.987	266.75
733.173	244.22
733.359	260.6
733.545	260.6
733.731	287.23
733.917	344.57
734.103	332.28
734.289	262.65
734.475	209.4
734.661	426.49
734.847	213.5
735.033	213.5
735.219	340.47
735.404	279.04
735.59	240.12
735.776	231.93
735.962	221.69
736.148	371.19
736.333	377.34
736.519	268.8
736.705	231.93
736.89	256.51
737.076	266.75
737.262	174.59
737.447	186.88
737.633	242.17
737.819	332.28
738.004	283.13
738.19	240.12
738.375	279.04
738.561	279.04
738.747	387.58
738.932	135.68
739.118	375.29
739.303	309.76
739.489	338.43
739.674	211.45
739.859	238.08
740.045	328.19
740.23	272.89
740.416	141.82
740.601	254.46
740.786	256.51
740.972	223.74
741.157	244.22
741.342	172.54
741.528	168.45
741.713	311.8
741.898	254.46
742.084	242.17
742.269	244.22
742.454	334.33
742.639	346.62
742.824	240.12
743.01	377.34
743.195	379.39
743.38	227.84
743.565	262.65
743.75	188.93
743.935	313.85
744.12	381.43
744.305	190.97
744.49	272.89
744.675	162.3
744.86	174.59
745.045	233.98
745.23	246.27
745.415	178.69
745.6	256.51
745.785	207.36
745.97	305.66
746.155	248.32
746.34	272.89
746.525	231.93
746.71	358.91
746.895	74.24
747.079	223.74
747.264	199.16
747.449	287.23
747.634	344.57
747.819	266.75
748.003	211.45
748.188	127.49
748.373	248.32
748.557	279.04
748.742	238.08
748.927	164.35
749.111	172.54
749.296	170.49
749.481	272.89
749.665	207.36
749.85	156.16
750.034	209.4
750.219	219.64
750.404	150.01
750.588	293.37
750.773	197.12
750.957	248.32
751.141	131.58
751.326	254.46
751.51	125.44
751.695	233.98
751.879	125.44
752.064	313.85
752.248	154.11
752.432	102.91
752.617	266.75
752.801	133.63
752.985	145.92
753.17	272.89
753.354	207.36
753.538	168.45
753.722	90.62
753.907	197.12
754.091	111.1
754.275	299.52
754.459	96.77
754.643	51.71
754.828	156.16
755.012	170.49
755.196	98.81
755.38	150.01
755.564	123.39
755.748	150.01
755.932	258.56
756.116	197.12
756.3	217.6
756.484	154.11
756.668	207.36
756.852	66.05
757.036	117.25
757.22	158.21
757.404	29.18
757.588	82.43
757.772	213.5
757.956	150.01
758.14	297.47
758.323	131.58
758.507	211.45
758.691	190.97
758.875	242.17
759.059	258.56
759.242	90.62
759.426	131.58
759.61	164.35
759.794	92.67
759.977	178.69
760.161	303.61
760.345	281.08
760.528	193.02
760.712	190.97
760.895	41.47
761.079	66.05
761.263	57.86
761.446	133.63
761.63	109.05
761.813	274.94
761.997	-9.73
762.18	88.57
762.364	102.91
762.547	68.09
762.731	133.63
762.914	98.81
763.098	168.45
763.281	119.29
763.464	131.58
763.648	156.16
763.831	113.15
764.015	49.66
764.198	203.26
764.381	72.19
764.564	82.43
764.748	104.96
764.931	92.67
765.114	152.06
765.297	207.36
765.481	53.76
765.664	135.68
765.847	127.49
766.03	178.69
766.213	41.47
766.397	59.9
766.58	57.86
766.763	119.29
766.946	100.86
767.129	102.91
767.312	-1.54
767.495	133.63
767.678	51.71
767.861	156.16
768.044	125.44
768.227	125.44
768.41	129.53
768.593	111.1
768.776	92.67
768.959	92.67
769.142	133.63
769.324	39.42
769.507	47.62
769.69	6.66
769.873	109.05
770.056	213.5
770.239	51.71
770.421	209.4
770.604	27.14
770.787	66.05
770.97	115.2
771.152	35.33
771.335	129.53
771.518	-34.3
771.7	215.55
771.883	268.8
772.066	74.24
772.248	107.01
772.431	154.11
772.613	92.67
772.796	31.23
772.978	145.92
773.161	186.88
773.343	41.47
773.526	-28.16
773.708	-11.78
773.891	-24.06
774.073	66.05
774.256	45.57
774.438	88.57
774.621	39.42
774.803	188.93
774.985	35.33
775.168	125.44
775.35	104.96
775.532	68.09
775.715	-1.54
775.897	70.14
776.079	86.53
776.261	90.62
776.444	182.78
776.626	41.47
776.808	86.53
776.99	-3.58
777.173	66.05
777.355	45.57
777.537	-1.54
777.719	57.86
777.901	113.15
778.083	8.7
778.265	-9.73
778.447	107.01
778.629	92.67
778.811	201.21
778.993	113.15
779.175	45.57
779.357	68.09
779.539	-46.59
779.721	88.57
779.903	133.63
780.085	-38.4
780.267	72.19
780.449	111.1
780.631	92.67
780.812	188.93
780.994	-32.26
781.176	94.72
781.358	66.05
781.54	41.47
781.721	104.96
781.903	80.38
782.085	-17.92
782.267	109.05
782.448	-17.92
782.63	23.04
782.812	66.05
782.993	80.38
783.175	70.14
783.357	-19.97
783.538	119.29
783.72	-36.35
783.901	76.29
784.083	43.52
784.264	57.86
784.446	-42.5
784.627	-13.82
784.809	72.19
784.99	23.04
785.172	147.97
785.353	18.94
785.535	129.53
785.716	20.99
785.897	-1.54
786.079	45.57
786.26	49.66
786.441	59.9
786.623	-101.89
786.804	35.33
786.985	39.42
787.167	61.95
787.348	51.71
787.529	-65.02
787.71	68.09
787.891	53.76
788.073	61.95
788.254	-24.06
788.435	188.93
788.616	98.81
788.797	-26.11
788.978	-40.45
789.159	18.94
789.34	92.67
789.522	33.28
789.703	-44.54
789.884	47.62
790.065	74.24
790.246	174.59
790.427	2.56
790.607	70.14
790.788	113.15
790.969	16.9
791.15	125.44
791.331	6.66
791.512	41.47
791.693	-32.26
791.874	14.85
792.054	190.97
792.235	188.93
792.416	-62.98
792.597	-56.83
792.778	59.9
792.958	59.9
793.139	0.51
793.32	16.9
793.5	-93.69
793.681	115.2
793.862	18.94
794.042	104.96
794.223	-44.54
794.404	-1.54
794.584	-85.5
794.765	16.9
794.945	-3.58
795.126	82.43
795.306	43.52
795.487	-13.82
795.667	64
795.848	92.67
796.028	25.09
796.209	49.66
796.389	104.96
796.57	-17.92
796.75	12.8
796.93	27.14
797.111	-17.92
797.291	-5.63
797.471	137.73
797.652	37.38
797.832	-32.26
798.012	57.86
798.192	6.66
798.373	-7.68
798.553	35.33
798.733	141.82
798.913	20.99
799.093	0.51
799.274	-22.02
799.454	98.81
799.634	162.3
799.814	61.95
799.994	107.01
800.174	123.39
800.354	80.38
800.534	-132.61
800.714	66.05
800.894	-48.64
801.074	-114.17
801.254	14.85
801.434	59.9
801.614	23.04
801.794	-93.69
801.974	1798.63
802.154	-15.87
802.334	68.09
802.514	-30.21
802.693	-11.78
802.873	-17.92
803.053	115.2
803.233	113.15
803.413	-40.45
803.592	14.85
803.772	-99.84
803.952	-42.5
804.131	-69.12
804.311	111.1
804.491	129.53
804.67	-44.54
804.85	-24.06
805.03	31.23
805.209	133.63
805.389	10.75
805.568	10.75
805.748	-22.02
805.928	43.52
806.107	133.63
806.287	49.66
806.466	111.1
806.646	-46.59
806.825	8.7
807.004	10.75
807.184	37.38
807.363	102.91
807.543	70.14
807.722	-83.45
807.901	121.34
808.081	47.62
808.26	-32.26
808.439	76.29
808.619	49.66
808.798	-32.26
808.977	57.86
809.156	86.53
809.336	-15.87
809.515	102.91
809.694	-30.21
809.873	-30.21
810.052	18.94
810.231	68.09
810.411	51.71
810.59	70.14
810.769	-67.07
810.948	72.19
811.127	-75.26
811.306	-56.83
811.485	35.33
811.664	31.23
811.843	18.94
812.022	-38.4
812.201	4.61
812.38	-46.59
812.559	-60.93
812.737	113.15
812.916	-65.02
813.095	-32.26
813.274	6.66
813.453	-24.06
813.632	43.52
813.811	37.38
813.989	-13.82
814.168	37.38
814.347	-19.97
814.526	25.09
814.704	182.78
814.883	59.9
815.062	-60.93
815.24	68.09
815.419	-50.69
815.598	-3.58
815.776	-108.03
815.955	-9.73
816.133	-105.98
816.312	45.57
816.49	18.94
816.669	39.42
816.847	41.47
817.026	55.81
817.204	-83.45
817.383	-17.92
817.561	-5.63
817.74	102.91
817.918	18.94
818.097	-73.21
818.275	-54.78
818.453	45.57
818.632	20.99
818.81	4.61
818.988	8.7
819.167	-65.02
819.345	-24.06
819.523	-54.78
819.701	-19.97
819.879	86.53
820.058	37.38
820.236	-17.92
820.414	74.24
820.592	-48.64
820.77	20.99
820.948	-26.11
821.127	-24.06
821.305	29.18
821.483	-56.83
821.661	70.14
821.839	35.33
822.017	-99.84
822.195	-9.73
822.373	84.48
822.551	6.66
822.729	66.05
822.907	-50.69
823.085	27.14
823.262	33.28
823.44	-50.69
823.618	-36.35
823.796	41.47
823.974	-3.58
824.152	-44.54
824.329	53.76
824.507	23.04
824.685	57.86
824.863	18.94
825.04	-1.54
825.218	96.77
825.396	78.33
825.574	18.94
825.751	49.66
825.929	49.66
826.107	-65.02
826.284	-26.11
826.462	100.86
826.639	-13.82
826.817	-67.07
826.994	-24.06
827.172	-71.17
827.349	225.79
827.527	8.7
827.704	-48.64
827.882	45.57
828.059	4.61
828.237	-28.16
828.414	51.71
828.591	-134.65
828.769	102.91
828.946	-19.97
829.124	127.49
829.301	119.29
829.478	8.7
829.655	6.66
829.833	14.85
830.01	-52.74
830.187	45.57
830.364	-81.41
830.542	51.71
830.719	90.62
830.896	59.9
831.073	2.56
831.25	-3.58
831.427	78.33
831.604	10.75
831.782	-24.06
831.959	61.95
832.136	-30.21
832.313	39.42
832.49	-69.12
832.667	61.95
832.844	-56.83
833.021	137.73
833.198	92.67
833.374	12.8
833.551	-17.92
833.728	43.52
833.905	78.33
834.082	-151.04
834.259	-11.78
834.436	76.29
834.612	-132.61
834.789	59.9
834.966	25.09
835.143	47.62
835.319	-101.89
835.496	64
835.673	18.94
835.85	14.85
836.026	14.85
836.203	139.77
836.38	-48.64
836.556	12.8
836.733	-26.11
836.909	33.28
837.086	57.86
837.262	-65.02
837.439	41.47
837.616	-22.02
837.792	-15.87
837.968	47.62
838.145	-110.08
838.321	-11.78
838.498	43.52
838.674	92.67
838.851	14.85
839.027	-15.87
839.203	27.14
839.38	66.05
839.556	61.95
839.732	51.71
839.909	-67.07
840.085	115.2
840.261	-34.3
840.437	31.23
840.614	53.76
840.79	16.9
840.966	31.23
841.142	68.09
841.318	-69.12
841.494	39.42
841.671	164.35
841.847	-67.07
842.023	-46.59
842.199	55.81
842.375	74.24
842.551	-153.09
842.727	-52.74
842.903	96.77
843.079	-120.32
843.255	78.33
843.431	-44.54
843.607	86.53
843.783	-54.78
843.959	49.66
844.134	-28.16
844.31	66.05
844.486	-62.98
844.662	-19.97
844.838	6.66
845.013	72.19
845.189	111.1
845.365	10.75
845.541	-52.74
845.716	-32.26
845.892	96.77
846.068	-60.93
846.244	-52.74
846.419	-26.11
846.595	-5.63
846.77	-19.97
846.946	74.24
847.122	-11.78
847.297	-85.5
847.473	98.81
847.648	-36.35
847.824	16.9
847.999	-116.22
848.175	-42.5
848.35	6.66
848.526	100.86
848.701	100.86
848.876	104.96
849.052	-1.54
849.227	72.19
849.403	31.23
849.578	-118.27
849.753	82.43
849.929	2.56
850.104	-62.98
850.279	-28.16
850.454	82.43
850.63	70.14
850.805	27.14
850.98	-48.64
851.155	18.94
851.33	12.8
851.505	-44.54
851.681	190.97
851.856	-85.5
852.031	16.9
852.206	31.23
852.381	-73.21
852.556	29.18
852.731	68.09
852.906	68.09
853.081	27.14
853.256	123.39
853.431	-9.73
853.606	-36.35
853.781	-81.41
853.956	-122.37
854.131	64
854.305	-3.58
854.48	-13.82
854.655	-83.45
854.83	-40.45
855.005	-157.18
855.18	31.23
855.354	-28.16
855.529	51.71
855.704	-36.35
855.879	74.24
856.053	-85.5
856.228	31.23
856.403	-28.16
856.577	39.42
856.752	-11.78
856.926	-71.17
857.101	39.42
857.276	-71.17
857.45	37.38
857.625	25.09
857.799	-15.87
857.974	33.28
858.148	-56.83
858.323	45.57
858.497	-48.64
858.672	-36.35
858.846	49.66
859.02	33.28
859.195	-54.78
859.369	-50.69
859.543	8.7
859.718	37.38
859.892	-38.4
860.066	68.09
860.241	-34.3
860.415	-44.54
860.589	-99.84
860.763	78.33
860.938	-9.73
861.112	20.99
861.286	23.04
861.46	-5.63
861.634	35.33
861.808	49.66
861.982	-87.55
862.157	-116.22
862.331	2.56
862.505	-58.88
862.679	-69.12
862.853	41.47
863.027	-24.06
863.201	141.82
863.375	-24.06
863.549	-32.26
863.722	27.14
863.896	127.49
864.07	-79.36
864.244	0.51
864.418	-15.87
864.592	-36.35
864.766	16.9
864.939	143.87
865.113	0.51
865.287	100.86
865.461	-101.89
865.634	82.43
865.808	-22.02
865.982	-79.36
866.156	-13.82
866.329	-171.52
866.503	-95.74
866.676	45.57
866.85	23.04
867.024	-83.45
867.197	74.24
867.371	47.62
867.544	39.42
867.718	-38.4
867.891	90.62
868.065	-87.55
868.238	-1.54
868.412	10.75
868.585	-28.16
868.759	-79.36
868.932	-42.5
869.105	-103.93
869.279	43.52
869.452	-56.83
869.625	14.85
869.799	49.66
869.972	-38.4
870.145	-48.64
870.319	117.25
870.492	-62.98
870.665	16.9
870.838	-17.92
871.011	-167.42
871.185	-42.5
871.358	-73.21
871.531	37.38
871.704	31.23
871.877	-19.97
872.05	14.85
872.223	-75.26
872.396	61.95
872.569	29.18
872.742	-108.03
872.915	41.47
873.088	-1.54
873.261	-28.16
873.434	78.33
873.607	-3.58
873.78	78.33
873.953	-62.98
874.126	31.23
874.299	55.81
874.471	0.51
874.644	-13.82
874.817	92.67
874.99	102.91
875.163	12.8
875.335	-13.82
875.508	-11.78
875.681	111.1
875.853	-81.41
876.026	41.47
876.199	-7.68
876.371	-24.06
876.544	-28.16
876.717	27.14
876.889	-116.22
877.062	10.75
877.234	-9.73
877.407	-46.59
877.579	72.19
877.752	20.99
877.924	18.94
878.097	33.28
878.269	94.72
878.442	47.62
878.614	2.56
878.786	2.56
878.959	70.14
879.131	-13.82
879.303	-87.55
879.476	-79.36
879.648	84.48
879.82	-9.73
879.993	-11.78
880.165	-65.02
880.337	-159.23
880.509	-36.35
880.681	-34.3
880.854	-67.07
881.026	33.28
881.198	139.77
881.37	-1.54
881.542	29.18
881.714	-38.4
881.886	-50.69
882.058	-19.97
882.23	39.42
882.402	-26.11
882.574	2.56
882.746	109.05
882.918	139.77
883.09	61.95
883.262	4.61
883.434	41.47
883.606	-138.75
883.778	-50.69
883.95	94.72
884.122	-32.26
884.293	139.77
884.465	18.94
884.637	33.28
884.809	-9.73
884.98	47.62
885.152	6.66
885.324	23.04
885.496	-58.88
885.667	-13.82
885.839	-28.16
886.011	174.59
886.182	59.9
886.354	-3.58
886.525	4.61
886.697	-13.82
886.869	-67.07
887.04	39.42
887.212	86.53
887.383	141.82
887.555	23.04
887.726	-118.27
887.897	4.61
888.069	6.66
888.24	107.01
888.412	6.66
888.583	16.9
888.754	-5.63
888.926	-52.74
889.097	-19.97
889.268	-87.55
889.44	2.56
889.611	-101.89
889.782	-52.74
889.953	33.28
890.125	92.67
890.296	-44.54
890.467	-112.13
890.638	-110.08
890.809	12.8
890.98	-99.84
891.151	27.14
891.323	76.29
891.494	-85.5
891.665	45.57
891.836	64
892.007	41.47
892.178	61.95
892.349	-22.02
892.52	8.7
892.691	-1.54
892.862	20.99
893.032	-79.36
893.203	-50.69
893.374	53.76
893.545	80.38
893.716	-32.26
893.887	-1.54
894.057	-99.84
894.228	-42.5
894.399	-65.02
894.57	125.44
894.74	49.66
894.911	23.04
895.082	-77.31
895.253	-52.74
895.423	25.09
895.594	27.14
895.764	43.52
895.935	-56.83
896.106	-13.82
896.276	-42.5
896.447	-9.73
896.617	-28.16
896.788	-62.98
896.958	-75.26
897.129	-34.3
897.299	-30.21
897.47	125.44
897.64	37.38
897.81	-58.88
897.981	-85.5
898.151	-75.26
898.322	33.28
898.492	57.86
898.662	-101.89
898.832	-30.21
899.003	-19.97
899.173	2.56
899.343	-89.6
899.513	-112.13
