Data from USB4F104151__140__11-04-14-440.txt Node

Date: Wed Feb 26 11:04:14 EST 2025
User: louis
Spectrometer: USB4F10415
Trigger mode: 4
Integration Time (sec): 1.000000E-1
Scans to average: 1
Electric dark correction enabled: true
Nonlinearity correction enabled: false
Boxcar width: 0
XAxis mode: Wavelengths
Number of Pixels in Spectrum: 3648
>>>>>Begin Spectral Data<<<<<
178.204	-344.74
178.424	-344.74
178.644	-344.74
178.864	-408.23
179.084	-447.14
179.304	-39.59
179.524	11.61
179.744	25.94
179.964	32.08
180.184	64.85
180.404	38.23
180.624	13.65
180.844	-41.64
181.064	-111.27
181.283	15.7
181.503	-27.31
181.723	17.75
181.943	-127.66
182.163	191.83
182.383	-62.12
182.602	136.53
182.822	103.76
183.042	83.28
183.262	-27.31
183.482	-4.78
183.701	91.48
183.921	175.44
184.141	-84.65
184.361	73.04
184.58	-6.83
184.8	-2.73
185.02	-19.11
185.239	3.41
185.459	23.89
185.679	71
185.898	-96.94
186.118	77.14
186.338	60.76
186.557	103.76
186.777	-10.92
186.997	42.32
187.216	40.28
187.436	148.82
187.655	165.2
187.875	195.92
188.095	66.9
188.314	140.63
188.534	163.15
188.753	-15.02
188.973	185.68
189.192	114
189.412	50.52
189.631	-33.45
189.851	79.19
190.07	58.71
190.29	46.42
190.509	-60.07
190.729	-15.02
190.948	154.96
191.168	245.07
191.387	5.46
191.607	38.23
191.826	58.71
192.045	19.8
192.265	17.75
192.484	36.18
192.704	124.24
192.923	-43.69
193.142	185.68
193.362	44.37
193.581	114
193.8	150.87
194.02	25.94
194.239	81.24
194.458	107.86
194.678	52.56
194.897	-35.5
195.116	79.19
195.335	52.56
195.555	5.46
195.774	27.99
195.993	23.89
196.212	5.46
196.432	-23.21
196.651	-47.79
196.87	23.89
197.089	257.36
197.308	89.43
197.528	68.95
197.747	-23.21
197.966	116.05
198.185	157.01
198.404	-58.03
198.623	107.86
198.842	130.39
199.062	97.62
199.281	64.85
199.5	48.47
199.719	83.28
199.938	62.8
200.157	120.15
200.376	42.32
200.595	-6.83
200.814	83.28
201.033	-2.73
201.252	138.58
201.471	-15.02
201.69	79.19
201.909	23.89
202.128	46.42
202.347	52.56
202.566	42.32
202.785	-58.03
203.004	21.84
203.223	273.75
203.442	46.42
203.661	-12.97
203.879	95.57
204.098	44.37
204.317	-49.83
204.536	68.95
204.755	68.95
204.974	138.58
205.193	-12.97
205.411	85.33
205.63	122.2
205.849	105.81
206.068	38.23
206.287	-58.03
206.505	140.63
206.724	64.85
206.943	-70.31
207.162	-25.26
207.381	152.91
207.599	73.04
207.818	23.89
208.037	64.85
208.255	30.04
208.474	9.56
208.693	71
208.911	-15.02
209.13	68.95
209.349	17.75
209.567	103.76
209.786	140.63
210.005	118.1
210.223	44.37
210.442	-92.84
210.661	-17.07
210.879	13.65
211.098	9.56
211.316	23.89
211.535	48.47
211.753	130.39
211.972	97.62
212.191	25.94
212.409	1.37
212.628	81.24
212.846	25.94
213.065	-23.21
213.283	103.76
213.502	-27.31
213.72	64.85
213.938	11.61
214.157	27.99
214.375	25.94
214.594	68.95
214.812	83.28
215.031	34.13
215.249	62.8
215.467	103.76
215.686	66.9
215.904	87.38
216.122	-47.79
216.341	148.82
216.559	21.84
216.778	85.33
216.996	101.72
217.214	56.66
217.432	46.42
217.651	-55.98
217.869	27.99
218.087	-15.02
218.306	-37.55
218.524	3.41
218.742	40.28
218.96	62.8
219.179	13.65
219.397	3.41
219.615	243.03
219.833	89.43
220.051	-25.26
220.27	62.8
220.488	54.61
220.706	93.52
220.924	5.46
221.142	-33.45
221.36	44.37
221.578	111.96
221.796	-0.68
222.015	42.32
222.233	83.28
222.451	101.72
222.669	-27.31
222.887	109.91
223.105	-33.45
223.323	11.61
223.541	1.37
223.759	60.76
223.977	3.41
224.195	134.48
224.413	146.77
224.631	1.37
224.849	54.61
225.067	222.55
225.285	11.61
225.503	-41.64
225.721	-58.03
225.939	85.33
226.157	-23.21
226.375	197.97
226.592	77.14
226.81	62.8
227.028	23.89
227.246	97.62
227.464	134.48
227.682	85.33
227.9	173.39
228.117	48.47
228.335	91.48
228.553	95.57
228.771	-4.78
228.989	89.43
229.206	165.2
229.424	-25.26
229.642	40.28
229.86	30.04
230.077	150.87
230.295	17.75
230.513	146.77
230.731	91.48
230.948	120.15
231.166	93.52
231.384	5.46
231.601	-8.87
231.819	320.85
232.037	-72.36
232.254	-51.88
232.472	-4.78
232.689	13.65
232.907	87.38
233.125	32.08
233.342	-21.16
233.56	30.04
233.777	-15.02
233.995	42.32
234.213	111.96
234.43	85.33
234.648	-17.07
234.865	34.13
235.083	50.52
235.3	99.67
235.518	111.96
235.735	83.28
235.953	109.91
236.17	105.81
236.388	64.85
236.605	91.48
236.822	118.1
237.04	189.78
237.257	50.52
237.475	-27.31
237.692	23.89
237.909	87.38
238.127	-33.45
238.344	71
238.562	-39.59
238.779	-39.59
238.996	-41.64
239.214	85.33
239.431	93.52
239.648	27.99
239.865	87.38
240.083	81.24
240.3	-25.26
240.517	-78.51
240.735	-39.59
240.952	243.03
241.169	32.08
241.386	42.32
241.603	-10.92
241.821	-15.02
242.038	130.39
242.255	154.96
242.472	32.08
242.689	114
242.907	66.9
243.124	-23.21
243.341	23.89
243.558	-58.03
243.775	-66.22
243.992	44.37
244.209	107.86
244.426	204.11
244.643	-0.68
244.86	34.13
245.078	91.48
245.295	42.32
245.512	58.71
245.729	-8.87
245.946	136.53
246.163	58.71
246.38	64.85
246.597	48.47
246.814	30.04
247.031	27.99
247.248	9.56
247.464	161.11
247.681	13.65
247.898	62.8
248.115	83.28
248.332	1.37
248.549	124.24
248.766	224.59
248.983	58.71
249.2	52.56
249.417	105.81
249.633	-19.11
249.85	118.1
250.067	15.7
250.284	60.76
250.501	56.66
250.717	83.28
250.934	-37.55
251.151	95.57
251.368	75.09
251.585	79.19
251.801	91.48
252.018	23.89
252.235	109.91
252.451	-12.97
252.668	5.46
252.885	42.32
253.102	75.09
253.318	17.75
253.535	32.08
253.752	-23.21
253.968	48.47
254.185	27.99
254.401	1.37
254.618	163.15
254.835	-31.4
255.051	152.91
255.268	68.95
255.484	-0.68
255.701	-12.97
255.917	50.52
256.134	7.51
256.351	42.32
256.567	-55.98
256.784	81.24
257	-43.69
257.217	3.41
257.433	66.9
257.65	13.65
257.866	126.29
258.082	-117.42
258.299	-49.83
258.515	109.91
258.732	7.51
258.948	-62.12
259.165	15.7
259.381	7.51
259.597	62.8
259.814	9.56
260.03	62.8
260.246	27.99
260.463	101.72
260.679	111.96
260.895	-25.26
261.112	93.52
261.328	9.56
261.544	-25.26
261.761	157.01
261.977	7.51
262.193	19.8
262.409	42.32
262.626	-35.5
262.842	71
263.058	62.8
263.274	157.01
263.49	114
263.707	73.04
263.923	163.15
264.139	-125.61
264.355	103.76
264.571	130.39
264.787	105.81
265.004	109.91
265.22	42.32
265.436	11.61
265.652	-53.93
265.868	68.95
266.084	-47.79
266.3	34.13
266.516	-43.69
266.732	89.43
266.948	-17.07
267.164	-15.02
267.38	111.96
267.596	-6.83
267.812	191.83
268.028	-43.69
268.244	38.23
268.46	44.37
268.676	48.47
268.892	40.28
269.108	11.61
269.324	-37.55
269.54	-39.59
269.756	71
269.972	5.46
270.188	46.42
270.403	9.56
270.619	3.41
270.835	116.05
271.051	-29.35
271.267	9.56
271.483	-8.87
271.698	165.2
271.914	32.08
272.13	-45.74
272.346	-21.16
272.562	30.04
272.777	130.39
272.993	50.52
273.209	-19.11
273.425	-15.02
273.64	27.99
273.856	46.42
274.072	19.8
274.287	13.65
274.503	118.1
274.719	101.72
274.934	3.41
275.15	-94.89
275.366	-23.21
275.581	-62.12
275.797	93.52
276.012	13.65
276.228	15.7
276.444	46.42
276.659	169.3
276.875	-2.73
277.09	21.84
277.306	-2.73
277.521	30.04
277.737	91.48
277.952	91.48
278.168	56.66
278.383	81.24
278.599	62.8
278.814	124.24
279.03	-8.87
279.245	130.39
279.461	38.23
279.676	116.05
279.892	-84.65
280.107	-37.55
280.322	-4.78
280.538	144.72
280.753	-8.87
280.969	116.05
281.184	-10.92
281.399	142.68
281.615	-12.97
281.83	1.37
282.045	7.51
282.26	-82.6
282.476	-4.78
282.691	62.8
282.906	122.2
283.122	34.13
283.337	-10.92
283.552	23.89
283.767	-4.78
283.983	91.48
284.198	81.24
284.413	146.77
284.628	-0.68
284.843	42.32
285.058	103.76
285.274	54.61
285.489	-31.4
285.704	157.01
285.919	42.32
286.134	58.71
286.349	50.52
286.564	25.94
286.779	189.78
286.995	50.52
287.21	-76.46
287.425	101.72
287.64	48.47
287.855	42.32
288.07	-41.64
288.285	85.33
288.5	111.96
288.715	89.43
288.93	62.8
289.145	68.95
289.36	122.2
289.575	27.99
289.79	79.19
290.004	1.37
290.219	83.28
290.434	-15.02
290.649	66.9
290.864	34.13
291.079	27.99
291.294	23.89
291.509	111.96
291.724	-21.16
291.938	3.41
292.153	157.01
292.368	32.08
292.583	152.91
292.798	120.15
293.012	97.62
293.227	95.57
293.442	32.08
293.657	120.15
293.871	134.48
294.086	187.73
294.301	120.15
294.516	77.14
294.73	38.23
294.945	-6.83
295.16	11.61
295.374	105.81
295.589	181.59
295.804	-43.69
296.018	-21.16
296.233	208.21
296.447	83.28
296.662	3.41
296.877	97.62
297.091	87.38
297.306	42.32
297.52	50.52
297.735	54.61
297.949	62.8
298.164	83.28
298.378	52.56
298.593	-111.27
298.807	62.8
299.022	-15.02
299.236	140.63
299.451	15.7
299.665	-29.35
299.88	77.14
300.094	50.52
300.309	-51.88
300.523	25.94
300.737	-12.97
300.952	13.65
301.166	66.9
301.381	21.84
301.595	27.99
301.809	73.04
302.024	62.8
302.238	-19.11
302.452	124.24
302.667	44.37
302.881	114
303.095	161.11
303.309	-21.16
303.524	3.41
303.738	124.24
303.952	9.56
304.166	68.95
304.381	-113.32
304.595	144.72
304.809	-96.94
305.023	5.46
305.237	11.61
305.452	142.68
305.666	73.04
305.88	128.34
306.094	64.85
306.308	103.76
306.522	138.58
306.736	85.33
306.95	157.01
307.164	27.99
307.379	27.99
307.593	181.59
307.807	152.91
308.021	40.28
308.235	89.43
308.449	-117.42
308.663	87.38
308.877	175.44
309.091	146.77
309.305	71
309.519	-121.51
309.733	114
309.947	-74.41
310.161	1.37
310.374	75.09
310.588	116.05
310.802	-60.07
311.016	-0.68
311.23	68.95
311.444	-62.12
311.658	79.19
311.872	159.06
312.085	111.96
312.299	116.05
312.513	202.07
312.727	52.56
312.941	21.84
313.154	52.56
313.368	54.61
313.582	91.48
313.796	19.8
314.009	44.37
314.223	148.82
314.437	109.91
314.651	-19.11
314.864	27.99
315.078	44.37
315.292	5.46
315.505	-21.16
315.719	85.33
315.933	-25.26
316.146	17.75
316.36	-62.12
316.573	103.76
316.787	87.38
317.001	19.8
317.214	73.04
317.428	62.8
317.641	-15.02
317.855	15.7
318.068	107.86
318.282	21.84
318.495	185.68
318.709	79.19
318.922	46.42
319.136	157.01
319.349	118.1
319.563	-39.59
319.776	87.38
319.99	-39.59
320.203	79.19
320.417	-23.21
320.63	120.15
320.843	181.59
321.057	-12.97
321.27	-10.92
321.483	52.56
321.697	173.39
321.91	66.9
322.124	32.08
322.337	60.76
322.55	-27.31
322.763	38.23
322.977	71
323.19	-8.87
323.403	23.89
323.617	66.9
323.83	138.58
324.043	68.95
324.256	36.18
324.469	-51.88
324.683	103.76
324.896	19.8
325.109	44.37
325.322	-115.37
325.535	140.63
325.748	81.24
325.962	17.75
326.175	75.09
326.388	101.72
326.601	144.72
326.814	-6.83
327.027	71
327.24	116.05
327.453	-94.89
327.666	77.14
327.879	79.19
328.092	95.57
328.305	68.95
328.518	3.41
328.731	27.99
328.944	13.65
329.157	85.33
329.37	34.13
329.583	159.06
329.796	103.76
330.009	-62.12
330.222	64.85
330.435	114
330.648	83.28
330.861	42.32
331.073	122.2
331.286	122.2
331.499	34.13
331.712	66.9
331.925	-29.35
332.138	34.13
332.35	136.53
332.563	-21.16
332.776	122.2
332.989	-6.83
333.202	54.61
333.414	25.94
333.627	126.29
333.84	48.47
334.053	64.85
334.265	32.08
334.478	1.37
334.691	-31.4
334.903	62.8
335.116	-6.83
335.329	-4.78
335.541	40.28
335.754	189.78
335.966	71
336.179	91.48
336.392	15.7
336.604	15.7
336.817	75.09
337.029	56.66
337.242	60.76
337.454	25.94
337.667	77.14
337.88	93.52
338.092	97.62
338.305	83.28
338.517	-0.68
338.729	62.8
338.942	120.15
339.154	1.37
339.367	27.99
339.579	71
339.792	-0.68
340.004	79.19
340.217	62.8
340.429	66.9
340.641	-43.69
340.854	-2.73
341.066	-29.35
341.278	171.35
341.491	222.55
341.703	66.9
341.915	-6.83
342.128	13.65
342.34	34.13
342.552	-37.55
342.764	21.84
342.977	56.66
343.189	56.66
343.401	-10.92
343.613	-68.27
343.826	1.37
344.038	-10.92
344.25	23.89
344.462	19.8
344.674	15.7
344.886	-21.16
345.099	58.71
345.311	93.52
345.523	73.04
345.735	-98.99
345.947	60.76
346.159	17.75
346.371	19.8
346.583	56.66
346.795	163.15
347.007	17.75
347.219	52.56
347.431	44.37
347.643	159.06
347.855	36.18
348.067	109.91
348.279	13.65
348.491	81.24
348.703	42.32
348.915	60.76
349.127	-2.73
349.339	19.8
349.551	21.84
349.763	109.91
349.975	99.67
350.187	136.53
350.399	167.25
350.61	62.8
350.822	17.75
351.034	116.05
351.246	54.61
351.458	77.14
351.669	99.67
351.881	179.54
352.093	124.24
352.305	66.9
352.517	38.23
352.728	87.38
352.94	66.9
353.152	56.66
353.363	-98.99
353.575	50.52
353.787	95.57
353.999	32.08
354.21	195.92
354.422	11.61
354.633	-6.83
354.845	56.66
355.057	64.85
355.268	46.42
355.48	87.38
355.692	-8.87
355.903	-49.83
356.115	-6.83
356.326	-103.08
356.538	146.77
356.749	124.24
356.961	171.35
357.172	68.95
357.384	19.8
357.595	124.24
357.807	77.14
358.018	75.09
358.23	36.18
358.441	154.96
358.653	77.14
358.864	7.51
359.075	9.56
359.287	132.44
359.498	83.28
359.709	77.14
359.921	103.76
360.132	58.71
360.344	25.94
360.555	-2.73
360.766	11.61
360.977	23.89
361.189	122.2
361.4	-2.73
361.611	136.53
361.823	193.87
362.034	95.57
362.245	-101.03
362.456	91.48
362.667	132.44
362.879	32.08
363.09	62.8
363.301	73.04
363.512	11.61
363.723	-12.97
363.935	71
364.146	144.72
364.357	25.94
364.568	40.28
364.779	-80.55
364.99	181.59
365.201	-49.83
365.412	73.04
365.623	-27.31
365.834	68.95
366.045	40.28
366.256	77.14
366.467	114
366.678	87.38
366.889	25.94
367.1	-43.69
367.311	128.34
367.522	64.85
367.733	165.2
367.944	42.32
368.155	83.28
368.366	105.81
368.577	126.29
368.788	163.15
368.999	68.95
369.209	71
369.42	165.2
369.631	226.64
369.842	161.11
370.053	1.37
370.264	130.39
370.474	46.42
370.685	56.66
370.896	21.84
371.107	52.56
371.317	99.67
371.528	34.13
371.739	97.62
371.95	107.86
372.16	99.67
372.371	13.65
372.582	30.04
372.792	87.38
373.003	81.24
373.214	60.76
373.424	130.39
373.635	3.41
373.846	189.78
374.056	1.37
374.267	50.52
374.477	68.95
374.688	-10.92
374.898	85.33
375.109	60.76
375.319	52.56
375.53	83.28
375.74	183.63
375.951	-66.22
376.161	73.04
376.372	105.81
376.582	-35.5
376.793	132.44
377.003	-66.22
377.214	15.7
377.424	19.8
377.635	142.68
377.845	36.18
378.055	148.82
378.266	48.47
378.476	7.51
378.686	81.24
378.897	21.84
379.107	48.47
379.317	99.67
379.528	34.13
379.738	132.44
379.948	-70.31
380.158	7.51
380.369	-0.68
380.579	17.75
380.789	54.61
380.999	89.43
381.21	132.44
381.42	238.93
381.63	56.66
381.84	95.57
382.05	30.04
382.261	109.91
382.471	95.57
382.681	75.09
382.891	171.35
383.101	101.72
383.311	42.32
383.521	40.28
383.731	34.13
383.941	132.44
384.151	36.18
384.361	103.76
384.571	77.14
384.781	89.43
384.991	236.88
385.201	200.02
385.411	54.61
385.621	40.28
385.831	46.42
386.041	64.85
386.251	-4.78
386.461	132.44
386.671	44.37
386.881	99.67
387.091	3.41
387.301	150.87
387.511	40.28
387.72	54.61
387.93	75.09
388.14	-68.27
388.35	50.52
388.56	157.01
388.769	118.1
388.979	-49.83
389.189	-49.83
389.399	34.13
389.609	107.86
389.818	109.91
390.028	73.04
390.238	62.8
390.447	-25.26
390.657	34.13
390.867	-8.87
391.076	-33.45
391.286	87.38
391.496	52.56
391.705	-2.73
391.915	89.43
392.125	154.96
392.334	79.19
392.544	97.62
392.753	91.48
392.963	9.56
393.172	146.77
393.382	32.08
393.591	146.77
393.801	17.75
394.01	93.52
394.22	73.04
394.429	9.56
394.639	46.42
394.848	15.7
395.058	122.2
395.267	62.8
395.477	89.43
395.686	54.61
395.895	191.83
396.105	191.83
396.314	17.75
396.524	-15.02
396.733	13.65
396.942	175.44
397.152	71
397.361	136.53
397.57	81.24
397.78	91.48
397.989	126.29
398.198	126.29
398.407	66.9
398.617	-33.45
398.826	116.05
399.035	-39.59
399.244	132.44
399.453	44.37
399.663	36.18
399.872	64.85
400.081	-47.79
400.29	183.63
400.499	-78.51
400.708	140.63
400.917	58.71
401.127	-37.55
401.336	15.7
401.545	122.2
401.754	85.33
401.963	85.33
402.172	-0.68
402.381	-15.02
402.59	32.08
402.799	87.38
403.008	142.68
403.217	159.06
403.426	56.66
403.635	-64.17
403.844	73.04
404.053	66.9
404.262	114
404.471	183.63
404.68	136.53
404.888	77.14
405.097	120.15
405.306	111.96
405.515	128.34
405.724	9.56
405.933	66.9
406.142	54.61
406.35	124.24
406.559	66.9
406.768	17.75
406.977	152.91
407.185	103.76
407.394	154.96
407.603	-6.83
407.812	146.77
408.02	177.49
408.229	111.96
408.438	85.33
408.646	1.37
408.855	-43.69
409.064	9.56
409.272	83.28
409.481	58.71
409.69	48.47
409.898	62.8
410.107	71
410.315	169.3
410.524	56.66
410.733	89.43
410.941	42.32
411.15	191.83
411.358	40.28
411.567	58.71
411.775	27.99
411.984	56.66
412.192	165.2
412.401	9.56
412.609	132.44
412.818	171.35
413.026	138.58
413.234	-15.02
413.443	71
413.651	25.94
413.86	95.57
414.068	118.1
414.276	122.2
414.485	1.37
414.693	212.31
414.901	193.87
415.11	81.24
415.318	73.04
415.526	11.61
415.734	73.04
415.943	62.8
416.151	152.91
416.359	-2.73
416.567	25.94
416.776	54.61
416.984	130.39
417.192	240.98
417.4	-35.5
417.608	-45.74
417.817	-47.79
418.025	64.85
418.233	212.31
418.441	-35.5
418.649	46.42
418.857	87.38
419.065	114
419.273	-53.93
419.481	62.8
419.689	40.28
419.897	42.32
420.105	75.09
420.313	161.11
420.521	161.11
420.729	154.96
420.937	15.7
421.145	-45.74
421.353	36.18
421.561	165.2
421.769	36.18
421.977	60.76
422.185	68.95
422.393	105.81
422.601	161.11
422.809	144.72
423.017	103.76
423.224	32.08
423.432	169.3
423.64	75.09
423.848	85.33
424.056	25.94
424.263	107.86
424.471	-2.73
424.679	103.76
424.887	54.61
425.094	148.82
425.302	83.28
425.51	58.71
425.718	87.38
425.925	83.28
426.133	54.61
426.341	189.78
426.548	132.44
426.756	36.18
426.964	134.48
427.171	58.71
427.379	99.67
427.586	40.28
427.794	193.87
428.001	116.05
428.209	77.14
428.417	161.11
428.624	179.54
428.832	17.75
429.039	111.96
429.247	93.52
429.454	159.06
429.662	234.83
429.869	230.74
430.076	173.39
430.284	214.35
430.491	185.68
430.699	154.96
430.906	181.59
431.114	105.81
431.321	136.53
431.528	152.91
431.736	136.53
431.943	206.16
432.15	226.64
432.358	277.84
432.565	238.93
432.772	73.04
432.979	216.4
433.187	128.34
433.394	245.07
433.601	169.3
433.808	179.54
434.016	271.7
434.223	220.5
434.43	214.35
434.637	187.73
434.844	318.8
435.052	193.87
435.259	275.79
435.466	402.77
435.673	187.73
435.88	314.7
436.087	318.8
436.294	351.57
436.501	322.9
436.708	339.28
436.915	341.33
437.122	316.75
437.329	214.35
437.537	367.95
437.743	306.51
437.95	470.35
438.157	376.14
438.364	482.64
438.571	382.29
438.778	388.43
438.985	509.26
439.192	564.56
439.399	451.92
439.606	458.06
439.813	521.55
440.02	650.57
440.227	691.53
440.433	587.08
440.64	552.27
440.847	511.31
441.054	548.17
441.261	730.44
441.467	669
441.674	566.6
441.881	755.02
442.088	644.43
442.294	869.7
442.501	750.92
442.708	849.22
442.914	881.99
443.121	937.29
443.328	910.66
443.534	888.14
443.741	1027.4
443.948	914.76
444.154	1029.45
444.361	1205.57
444.568	1068.36
444.774	1062.21
444.981	992.58
445.187	1236.29
445.394	1242.43
445.6	1181
445.807	1414.46
446.013	1369.41
446.22	1342.78
446.426	1533.25
446.633	1611.07
446.839	1735.99
447.046	1432.9
447.252	1676.6
447.459	1623.36
447.665	1738.04
447.871	1895.74
448.078	1996.09
448.284	1932.6
448.491	2037.05
448.697	2157.88
448.903	2239.8
449.11	2311.47
449.316	2391.34
449.522	2432.3
449.728	2608.43
449.935	2667.82
450.141	2606.38
450.347	2856.23
450.553	2852.14
450.76	2827.56
450.966	3196.2
451.172	3220.77
451.378	3296.55
451.584	3253.54
451.791	3542.3
451.997	3755.29
452.203	3851.55
452.409	4007.19
452.615	4134.17
452.821	3994.9
453.027	4009.24
453.233	4543.76
453.44	4431.12
453.646	4814.09
453.852	5002.5
454.058	5094.66
454.264	5350.66
454.47	5577.98
454.676	5682.43
454.882	6180.09
455.088	5856.51
455.294	6202.61
455.5	6589.68
455.705	7097.58
455.911	6886.64
456.117	7032.04
456.323	7236.84
456.529	7263.46
456.735	7959.77
456.941	8156.38
457.147	8598.74
457.352	8830.16
457.558	9213.13
457.764	9704.64
457.97	9919.68
458.176	10329.27
458.381	10736.82
458.587	11175.08
458.793	11517.09
458.999	11590.82
459.204	13071.5
459.41	13364.36
459.616	13190.28
459.821	14095.49
460.027	14494.84
460.233	15408.23
460.438	15301.74
460.644	16247.9
460.85	16438.36
461.055	16976.98
461.261	17779.78
461.466	17460.3
461.672	17960
461.878	20053.03
462.083	19434.54
462.289	20341.79
462.494	20818.97
462.7	20984.85
462.905	21597.2
463.111	22803.45
463.316	24165.35
463.522	24564.7
463.727	25394.13
463.932	26348.48
464.138	27100.09
464.343	28167.08
464.549	28451.75
464.754	30485.38
464.959	31011.71
465.165	31857.52
465.37	31628.15
465.575	31769.46
465.781	33573.72
465.986	34849.6
466.191	33979.21
466.397	34458.44
466.602	33891.15
466.807	35502.9
467.012	35978.03
467.218	36909.86
467.423	36836.13
467.628	37729.05
467.833	39768.82
468.038	39168.77
468.244	38269.71
468.449	40575.72
468.654	39240.45
468.859	39568.12
469.064	39435
469.269	38421.26
469.474	38814.47
469.679	39770.87
469.885	38122.26
470.09	39254.78
470.295	39351.04
470.5	38605.58
470.705	39041.79
470.91	37196.57
471.115	37112.61
471.32	37485.34
471.525	37518.1
471.73	36373.29
471.935	35791.67
472.139	34798.4
472.344	34851.65
472.549	34925.38
472.754	33921.87
472.959	33368.92
473.164	32023.4
473.369	31742.83
473.574	32097.13
473.778	31861.62
473.983	31067
474.188	30724.99
474.393	29121.43
474.598	28810.14
474.802	28459.94
475.007	28087.21
475.212	27820.97
475.417	26348.48
475.621	26497.98
475.826	26270.66
476.031	25353.17
476.235	24800.22
476.44	24984.54
476.645	24067.05
476.849	24030.18
477.054	23700.46
477.259	23225.33
477.463	22836.22
477.668	22412.29
477.872	22248.45
478.077	21912.58
478.282	21273.62
478.486	20986.9
478.691	20909.08
478.895	20814.87
479.1	20360.22
479.304	20405.28
479.509	19670.06
479.713	19944.48
479.918	19543.08
480.122	19352.62
480.326	19463.21
480.531	18965.56
480.735	19229.74
480.94	18744.38
481.144	19135.54
481.348	18115.65
481.553	18453.56
481.757	17828.93
481.961	17976.39
482.166	18228.29
482.37	17890.37
482.574	17292.37
482.778	17376.33
482.983	17591.37
483.187	17335.37
483.391	17460.3
483.595	16784.47
483.8	16622.68
484.004	16745.56
484.208	16886.87
484.412	16467.03
484.616	16333.92
484.821	16194.65
485.025	15647.85
485.229	15766.63
485.433	15539.3
485.637	15514.73
485.841	14902.39
486.045	14820.47
486.249	15047.79
486.453	14548.09
486.657	14259.32
486.861	14298.24
487.065	13673.6
487.269	13679.75
487.473	13347.98
487.677	13515.91
487.881	13106.32
488.085	12733.59
488.289	12737.68
488.493	12278.94
488.697	12199.07
488.901	11928.74
489.105	11781.28
489.309	11738.27
489.512	11445.41
489.716	11267.24
489.92	10978.48
490.124	10880.18
490.328	10812.59
490.531	10407.09
490.735	10114.24
490.939	10218.68
491.143	9792.7
491.346	9938.11
491.55	9698.5
491.754	9385.16
491.958	9096.39
492.161	9301.19
492.365	9100.49
492.569	8809.68
492.772	8721.62
492.976	8721.62
493.18	8520.92
493.383	8320.21
493.587	8258.78
493.79	8262.87
493.994	7929.05
494.197	7980.25
494.401	8027.35
494.605	7849.18
494.808	7929.05
495.012	7634.14
495.215	7800.03
495.419	7740.64
495.622	7574.75
495.825	7484.64
496.029	7445.73
496.232	7632.1
496.436	7390.44
496.639	7599.33
496.843	7292.13
497.046	7281.89
497.249	7455.97
497.453	7496.93
497.656	7703.78
497.859	7437.54
498.063	7476.45
498.266	7529.7
498.469	7275.75
498.673	7435.49
498.876	7533.79
499.079	7658.72
499.282	7423.2
499.485	7857.37
499.689	7808.22
499.892	7732.45
500.095	7642.34
500.298	7765.21
500.501	7648.48
500.705	8094.94
500.908	8146.14
501.111	8070.36
501.314	8287.45
501.517	8314.07
501.72	8344.79
501.923	8238.3
502.126	8576.21
502.329	8684.75
502.532	8516.82
502.735	8627.41
502.938	8871.12
503.141	8879.31
503.344	8998.09
503.547	9239.75
503.75	9358.53
503.953	9587.91
504.156	9790.66
504.359	9725.12
504.562	9706.69
504.765	10142.91
504.968	10292.41
505.17	10222.78
505.373	10378.42
505.576	10710.19
505.779	10749.11
505.982	10886.32
506.185	11238.57
506.387	11193.51
506.59	11537.57
506.793	11685.03
506.996	11930.78
507.198	12244.12
507.401	12362.9
507.604	12913.81
507.807	13022.35
508.009	13165.71
508.212	13653.12
508.415	13812.87
508.617	13513.86
508.82	14021.76
509.022	14361.72
509.225	14883.95
509.428	15021.17
509.63	15447.15
509.833	15582.31
510.035	16198.75
510.238	16225.37
510.44	16561.24
510.643	17153.1
510.845	17292.37
511.048	17839.17
511.25	18023.49
511.453	18588.73
511.655	19149.87
511.858	19516.46
512.06	19999.78
512.262	20298.78
512.465	20507.68
512.667	21105.68
512.87	21818.38
513.072	22373.38
513.274	22854.65
513.477	22881.27
513.679	23737.32
513.881	24073.19
514.084	24622.05
514.286	25156.57
514.488	25672.65
514.69	26842.04
514.893	26889.15
515.095	27689.9
515.297	28367.78
515.499	28892.06
515.701	29514.64
515.904	29737.87
516.106	30374.79
516.308	31318.9
516.51	31988.59
516.712	32496.49
516.914	32869.22
517.116	34098
517.318	34114.38
517.52	35064.64
517.722	35038.01
517.925	36391.72
518.127	36684.58
518.329	37358.36
518.531	37411.61
518.733	39068.42
518.935	39002.88
519.136	39731.96
519.338	40440.56
519.54	41003.75
519.742	41118.43
519.944	42269.39
520.146	43297.47
520.348	43606.72
520.55	43952.82
520.752	43872.95
520.954	45189.8
521.155	45628.06
521.357	46535.31
521.559	46992.01
521.761	47372.93
521.963	47747.71
522.164	47934.07
522.366	48405.11
522.568	48929.39
522.77	49277.54
522.971	50100.82
523.173	49388.13
523.375	50041.43
523.576	50080.35
523.778	50326.1
523.98	51206.73
524.181	50883.15
524.383	51100.23
524.584	51657.28
524.786	51335.75
524.988	51003.98
525.189	51642.95
525.391	51987
525.592	52169.27
525.794	51980.86
525.995	51831.36
526.197	51677.76
526.398	52230.71
526.6	51642.95
526.801	51581.51
527.003	51472.96
527.204	51356.23
527.406	51378.76
527.607	50717.26
527.808	50934.35
528.01	49556.07
528.211	50104.92
528.412	50326.1
528.614	49797.73
528.815	49349.22
529.016	49744.48
529.218	48763.5
529.419	48159.35
529.62	47762.04
529.822	47446.66
530.023	46975.62
530.224	46545.55
530.425	46131.86
530.626	45431.46
530.828	45034.15
531.029	45247.14
531.23	44370.61
531.431	43829.94
531.632	43645.63
531.833	42820.3
532.035	42638.03
532.236	41929.43
532.437	41741.02
532.638	40368.88
532.839	40438.51
533.04	39897.84
533.241	39084.8
533.442	39451.39
533.643	38478.6
533.844	37849.88
534.045	37587.74
534.246	36418.35
534.447	36373.29
534.648	35545.91
534.849	35623.73
535.05	34741.06
535.251	34456.39
535.451	33719.12
535.652	33702.74
535.853	33020.77
536.054	32719.71
536.255	32588.64
536.456	31628.15
536.657	31820.66
536.857	30837.63
537.058	30415.75
537.259	30114.7
537.46	29914
537.66	29096.86
537.861	28683.17
538.062	28550.05
538.263	28167.08
538.463	27722.67
538.664	27655.09
538.865	26921.91
539.065	27018.17
539.266	26575.81
539.466	26475.46
539.667	25693.13
539.868	25691.09
540.068	24998.87
540.269	24912.86
540.469	24613.85
540.67	24124.39
540.87	24210.4
541.071	23923.69
541.271	23854.06
541.472	23272.43
541.672	22965.24
541.873	22520.83
542.073	22555.65
542.274	22504.45
542.474	22199.3
542.675	21419.02
542.875	21412.88
543.075	21036.05
543.276	20538.4
543.476	20755.48
543.676	20532.25
543.877	19981.35
544.077	20139.04
544.277	19721.26
544.478	19495.98
544.678	19581.99
544.878	19235.89
545.078	18838.58
545.279	18422.84
545.479	18406.46
545.679	18220.1
545.879	18218.05
546.079	17941.57
546.28	17593.42
546.48	17300.56
546.68	17157.2
546.88	16933.97
547.08	16843.86
547.28	16798.8
547.48	16219.23
547.68	16303.2
547.88	15926.37
548.081	15965.28
548.281	15402.09
548.481	15258.73
548.681	15473.77
548.881	15029.36
549.081	15043.7
549.28	14783.6
549.48	14587
549.68	14390.39
549.88	14093.44
550.08	13706.37
550.28	13581.45
550.48	13587.59
550.68	13157.52
550.88	13053.07
551.08	13003.92
551.279	13069.45
551.479	12491.93
551.679	12436.63
551.879	12078.24
552.079	12141.72
552.278	11785.38
552.478	11705.51
552.678	11609.25
552.878	11476.13
553.077	11209.9
553.277	10779.82
553.477	10906.8
553.676	10718.39
553.876	10366.14
554.076	10359.99
554.275	10138.81
554.475	9817.28
554.674	10120.38
554.874	9895.1
555.074	9426.12
555.273	9434.31
555.473	9282.76
555.672	9221.32
555.872	8858.83
556.071	8821.97
556.271	8887.5
556.47	8576.21
556.67	8322.26
556.869	8379.61
557.068	8105.18
557.268	8021.21
557.467	7912.67
557.667	7824.61
557.866	7859.42
558.065	7439.59
558.265	7402.72
558.464	7212.26
558.663	7251.17
558.863	7077.1
559.062	6964.46
559.261	6751.47
559.461	6841.58
559.66	6468.85
559.859	6341.88
560.058	6247.67
560.258	6192.37
560.457	6132.98
560.656	6339.83
560.855	5700.86
561.054	6081.78
561.253	5901.56
561.453	5731.58
561.652	5571.84
561.851	5647.62
562.05	5385.48
562.249	5403.91
562.448	5436.67
562.647	4965.64
562.846	5145.86
563.045	5039.37
563.244	4951.31
563.443	5020.94
563.642	4807.95
563.841	4832.52
564.04	4728.08
564.239	4607.25
564.438	4420.88
564.637	4412.69
564.836	4355.35
565.035	4343.06
565.234	4341.01
565.432	4216.08
565.631	4293.91
565.83	4162.84
566.029	3988.76
566.228	3964.18
566.427	3929.37
566.625	3794.2
566.824	3945.75
567.023	3761.44
567.222	3632.41
567.42	3575.07
567.619	3609.89
567.818	3650.85
568.016	3591.45
568.215	3730.72
568.414	3507.49
568.612	3278.12
568.811	3382.56
569.01	3290.4
569.208	3118.37
569.407	3097.89
569.605	3171.62
569.804	2950.44
570.002	3081.51
570.201	2864.43
570.4	3003.69
570.598	2999.59
570.797	2753.84
570.995	2737.45
571.193	2807.08
571.392	2817.32
571.59	2551.09
571.789	2641.2
571.987	2602.29
572.186	2749.74
572.384	2518.32
572.582	2430.26
572.781	2612.53
572.979	2389.3
573.177	2336.05
573.376	2387.25
573.574	2307.38
573.772	2331.95
573.971	2282.8
574.169	1985.85
574.367	2377.01
574.565	2061.62
574.763	2100.53
574.962	2018.61
575.16	2024.76
575.358	1987.89
575.556	1926.46
575.754	1932.6
575.952	1817.91
576.151	1873.21
576.349	1803.58
576.547	1754.43
576.745	1817.91
576.943	1779
577.141	1733.95
577.339	1688.89
577.537	1789.24
577.735	1629.5
577.933	1574.21
578.131	1590.59
578.329	1609.02
578.527	1496.38
578.725	1559.87
578.923	1443.14
579.121	1563.97
579.319	1377.6
579.516	1434.94
579.714	1594.68
579.912	1322.31
580.11	1228.1
580.308	1289.54
580.506	1318.21
580.704	1217.86
580.901	1193.28
581.099	1375.55
581.297	1213.76
581.495	1248.58
581.692	1224
581.89	1379.65
582.088	1230.15
582.285	1158.47
582.483	1105.22
582.681	1133.89
582.878	1140.04
583.076	1162.56
583.274	1037.64
583.471	1152.32
583.669	1066.31
583.866	957.77
584.064	1000.77
584.262	843.08
584.459	996.68
584.657	1029.45
584.854	1035.59
585.052	984.39
585.249	1031.49
585.447	961.86
585.644	808.26
585.841	894.28
586.039	941.38
586.236	982.34
586.434	812.36
586.631	812.36
586.828	806.22
587.026	851.27
587.223	718.15
587.42	752.97
587.618	810.31
587.815	910.66
588.012	693.58
588.21	736.59
588.407	777.55
588.604	769.35
588.801	683.34
588.999	714.06
589.196	781.64
589.393	632.14
589.59	701.77
589.787	656.72
589.984	771.4
590.182	795.98
590.379	615.76
590.576	722.25
590.773	724.3
590.97	740.68
591.167	683.34
591.364	685.39
591.561	669
591.758	820.55
591.955	814.41
592.152	662.86
592.349	519.5
592.546	585.04
592.743	585.04
592.94	662.86
593.137	728.39
593.334	689.48
593.531	765.26
593.727	648.52
593.924	787.79
594.121	691.53
594.318	691.53
594.515	664.91
594.712	738.63
594.908	806.22
595.105	574.8
595.302	783.69
595.499	646.48
595.696	873.8
595.892	660.81
596.089	806.22
596.286	662.86
596.482	904.52
596.679	798.03
596.876	740.68
597.072	851.27
597.269	836.94
597.466	904.52
597.662	982.34
597.859	892.23
598.055	933.19
598.252	1047.88
598.448	1078.6
598.645	1076.55
598.841	1090.88
599.038	1262.91
599.234	1269.06
599.431	1193.28
599.627	1271.11
599.824	1342.78
600.02	1326.4
600.217	1406.27
600.413	1506.62
600.609	1514.81
600.806	1793.34
601.002	1645.88
601.198	1568.06
601.395	1850.68
601.591	1822.01
601.787	1817.91
601.984	1903.93
602.18	1955.13
602.376	2061.62
602.572	2188.6
602.769	2358.58
602.965	2274.61
603.161	2495.79
603.357	2497.84
603.553	2630.96
603.75	2596.14
603.946	2727.21
604.142	2845.99
604.338	2968.87
604.534	3001.64
604.73	3136.81
604.926	3140.9
605.122	3503.39
605.318	3276.07
605.514	3589.41
605.71	3476.77
605.906	3671.33
606.102	3798.3
606.298	4017.43
606.494	4148.5
606.69	4310.29
606.886	4328.72
607.082	4390.16
607.278	4453.65
607.474	4541.71
607.67	4846.86
607.866	4812.04
608.062	4818.19
608.257	5293.32
608.453	5184.77
608.649	5516.55
608.845	5334.28
609.041	5754.11
609.236	5936.38
609.432	6008.06
609.628	6204.66
609.824	6362.36
610.019	6468.85
610.215	6610.16
610.411	6948.08
610.606	7003.37
610.802	7187.69
610.998	7304.42
611.193	7632.1
611.389	7761.12
611.584	7951.58
611.78	8025.31
611.976	8510.68
612.171	8811.73
612.367	8834.25
612.562	9057.48
612.758	9125.07
612.953	9524.42
613.149	9874.62
613.344	9860.29
613.539	10515.64
613.735	10505.4
613.93	10998.96
614.126	11160.75
614.321	11637.92
614.517	11742.37
614.712	11885.73
614.907	11994.27
615.103	12536.98
615.298	12659.86
615.493	13347.98
615.688	13255.82
615.884	14179.45
616.079	14142.59
616.274	14548.09
616.47	14998.64
616.665	15135.85
616.86	15942.75
617.055	16002.15
617.25	16776.28
617.445	16899.16
617.641	17200.21
617.836	17824.84
618.031	17744.97
618.226	18744.38
618.421	19022.9
618.616	19405.87
618.811	19598.38
619.006	20622.36
619.201	20413.47
619.396	21169.17
619.591	21490.7
619.786	21982.21
619.981	22281.22
620.176	23297.01
620.371	23292.91
620.566	24015.85
620.761	24470.5
620.956	24673.24
621.151	25299.92
621.346	25930.7
621.541	25979.85
621.735	27098.04
621.93	27063.22
622.125	27993
622.32	27976.62
622.515	28736.41
622.709	29291.41
622.904	30040.97
623.099	30251.91
623.294	30679.94
623.488	30923.65
623.683	32148.33
623.878	31908.72
624.072	33262.43
624.267	33356.63
624.462	33917.78
624.656	33913.68
624.851	35085.12
625.046	34908.99
625.24	35644.21
625.435	35724.08
625.629	36162.35
625.824	37073.7
626.018	37268.25
626.213	37010.21
626.407	38091.54
626.602	38195.98
626.796	38834.95
626.991	39230.21
627.185	39428.86
627.38	39305.98
627.574	39797.49
627.768	39854.84
627.963	39842.55
628.157	40358.64
628.352	40534.76
628.546	39863.03
628.74	40528.62
628.935	39717.62
629.129	39930.61
629.323	39439.1
629.517	39387.9
629.712	39054.08
629.906	38843.14
630.1	37888.79
630.294	37905.17
630.489	37538.58
630.683	37040.93
630.877	35908.4
631.071	35316.54
631.265	35099.45
631.459	34120.52
631.653	33225.56
631.848	32684.9
632.042	32117.61
632.236	30956.41
632.43	29801.36
632.624	29291.41
632.818	28455.84
633.012	27179.96
633.206	26590.14
633.4	25525.2
633.594	24689.63
633.788	23688.17
633.982	23092.21
634.176	22316.03
634.369	20964.37
634.563	20560.92
634.757	19782.7
634.951	19246.13
635.145	18017.35
635.339	17601.61
635.533	16893.01
635.726	16239.71
635.92	15375.47
636.114	14855.28
636.308	13876.35
636.501	13558.92
636.695	12813.46
636.889	12565.65
637.083	11916.45
637.276	11672.74
637.47	10982.57
637.664	10458.29
637.857	10265.78
638.051	9702.59
638.244	9452.74
638.438	9231.56
638.632	8709.33
638.825	8338.65
639.019	8051.93
639.212	7447.78
639.406	7408.87
639.599	7073
639.793	6857.96
639.986	6554.87
640.18	6362.36
640.373	5917.95
640.567	5764.35
640.76	5674.24
640.954	5504.26
641.147	5082.38
641.34	4943.11
641.534	4760.84
641.727	4738.32
641.92	4492.56
642.114	4263.19
642.307	4080.92
642.5	4025.62
642.694	3749.15
642.887	3593.5
643.08	3691.8
643.273	3499.3
643.467	3253.54
643.66	3005.74
643.853	2932.01
644.046	2852.14
644.239	2858.28
644.432	2561.33
644.626	2508.08
644.819	2518.32
645.012	2340.15
645.205	2323.76
645.398	2325.81
645.591	2223.41
645.784	1996.09
645.977	1822.01
646.17	1850.68
646.363	1733.95
646.556	1666.36
646.749	1647.93
646.942	1643.84
647.135	1594.68
647.328	1445.18
647.521	1490.24
647.714	1371.46
647.907	1416.51
648.099	1234.24
648.292	1334.59
648.485	1170.76
648.678	1213.76
648.871	1037.64
649.064	1049.93
649.256	902.47
649.449	978.25
649.642	896.33
649.835	851.27
650.027	881.99
650.22	957.77
650.413	881.99
650.605	843.08
650.798	677.19
650.991	750.92
651.183	795.98
651.376	791.88
651.568	765.26
651.761	605.52
651.954	693.58
652.146	537.93
652.339	714.06
652.531	669
652.724	574.8
652.916	515.41
653.109	460.11
653.301	554.32
653.494	458.06
653.686	527.69
653.879	570.7
654.071	554.32
654.263	501.07
654.456	402.77
654.648	474.45
654.84	439.63
655.033	277.84
655.225	509.26
655.417	298.32
655.61	521.55
655.802	396.62
655.994	513.36
656.186	367.95
656.379	388.43
656.571	318.8
656.763	365.9
656.955	302.42
657.148	304.46
657.34	464.21
657.532	200.02
657.724	251.22
657.916	398.67
658.108	335.18
658.3	384.34
658.492	378.19
658.684	214.35
658.876	269.65
659.068	230.74
659.26	163.15
659.452	177.49
659.644	259.41
659.836	304.46
660.028	228.69
660.22	140.63
660.412	222.55
660.604	263.51
660.796	157.01
660.988	312.66
661.18	210.26
661.372	302.42
661.563	124.24
661.755	159.06
661.947	118.1
662.139	148.82
662.331	132.44
662.522	265.55
662.714	107.86
662.906	175.44
663.097	179.54
663.289	68.95
663.481	75.09
663.673	179.54
663.864	189.78
664.056	163.15
664.247	73.04
664.439	236.88
664.631	195.92
664.822	236.88
665.014	68.95
665.205	107.86
665.397	103.76
665.588	136.53
665.78	161.11
665.971	257.36
666.163	128.34
666.354	187.73
666.546	64.85
666.737	103.76
666.929	89.43
667.12	120.15
667.311	140.63
667.503	40.28
667.694	126.29
667.885	140.63
668.077	152.91
668.268	64.85
668.459	93.52
668.651	146.77
668.842	56.66
669.033	-27.31
669.224	27.99
669.416	271.7
669.607	1.37
669.798	46.42
669.989	193.87
670.18	132.44
670.371	118.1
670.563	13.65
670.754	146.77
670.945	144.72
671.136	222.55
671.327	50.52
671.518	179.54
671.709	220.5
671.9	210.26
672.091	136.53
672.282	165.2
672.473	132.44
672.664	114
672.855	109.91
673.046	206.16
673.237	132.44
673.428	167.25
673.619	191.83
673.809	114
674	193.87
674.191	101.72
674.382	-0.68
674.573	120.15
674.764	171.35
674.954	191.83
675.145	83.28
675.336	66.9
675.527	140.63
675.717	95.57
675.908	46.42
676.099	87.38
676.289	142.68
676.48	85.33
676.671	105.81
676.861	-17.07
677.052	157.01
677.243	152.91
677.433	66.9
677.624	126.29
677.814	103.76
678.005	52.56
678.195	159.06
678.386	91.48
678.576	105.81
678.767	89.43
678.957	73.04
679.148	275.79
679.338	157.01
679.529	138.58
679.719	23.89
679.909	183.63
680.1	187.73
680.29	195.92
680.481	66.9
680.671	183.63
680.861	171.35
681.052	163.15
681.242	101.72
681.432	210.26
681.622	130.39
681.813	109.91
682.003	105.81
682.193	177.49
682.383	154.96
682.573	128.34
682.764	99.67
682.954	177.49
683.144	185.68
683.334	171.35
683.524	161.11
683.714	212.31
683.904	187.73
684.094	48.47
684.284	144.72
684.474	234.83
684.664	294.22
684.854	191.83
685.044	52.56
685.234	179.54
685.424	171.35
685.614	77.14
685.804	222.55
685.994	218.45
686.184	105.81
686.374	193.87
686.564	48.47
686.753	183.63
686.943	42.32
687.133	202.07
687.323	222.55
687.513	189.78
687.702	175.44
687.892	128.34
688.082	206.16
688.272	169.3
688.461	138.58
688.651	398.67
688.841	208.21
689.03	-19.11
689.22	202.07
689.41	238.93
689.599	175.44
689.789	148.82
689.979	331.09
690.168	204.11
690.358	204.11
690.547	183.63
690.737	159.06
690.926	185.68
691.116	253.27
691.305	226.64
691.495	150.87
691.684	71
691.874	193.87
692.063	130.39
692.252	238.93
692.442	230.74
692.631	132.44
692.82	114
693.01	249.17
693.199	142.68
693.388	171.35
693.578	120.15
693.767	251.22
693.956	114
694.146	157.01
694.335	126.29
694.524	183.63
694.713	259.41
694.902	187.73
695.092	116.05
695.281	116.05
695.47	42.32
695.659	111.96
695.848	171.35
696.037	75.09
696.226	175.44
696.415	208.21
696.604	255.31
696.793	255.31
696.982	169.3
697.171	314.7
697.36	138.58
697.549	165.2
697.738	71
697.927	120.15
698.116	120.15
698.305	263.51
698.494	122.2
698.683	150.87
698.872	286.03
699.061	101.72
699.25	75.09
699.438	214.35
699.627	152.91
699.816	240.98
700.005	52.56
700.193	68.95
700.382	228.69
700.571	222.55
700.76	189.78
700.948	255.31
701.137	161.11
701.326	220.5
701.514	75.09
701.703	191.83
701.892	140.63
702.08	245.07
702.269	222.55
702.457	38.23
702.646	173.39
702.834	222.55
703.023	197.97
703.212	214.35
703.4	206.16
703.589	32.08
703.777	103.76
703.965	68.95
704.154	105.81
704.342	77.14
704.531	134.48
704.719	181.59
704.907	255.31
705.096	52.56
705.284	126.29
705.472	144.72
705.661	169.3
705.849	208.21
706.037	228.69
706.226	202.07
706.414	111.96
706.602	83.28
706.79	208.21
706.979	87.38
707.167	200.02
707.355	71
707.543	91.48
707.731	134.48
707.919	109.91
708.107	169.3
708.296	89.43
708.484	101.72
708.672	200.02
708.86	195.92
709.048	185.68
709.236	87.38
709.424	210.26
709.612	189.78
709.8	17.75
709.988	181.59
710.176	222.55
710.364	222.55
710.551	132.44
710.739	228.69
710.927	183.63
711.115	200.02
711.303	157.01
711.491	189.78
711.679	148.82
711.866	296.27
712.054	97.62
712.242	152.91
712.43	267.6
712.617	154.96
712.805	341.33
712.993	122.2
713.181	103.76
713.368	286.03
713.556	247.12
713.744	89.43
713.931	286.03
714.119	236.88
714.306	138.58
714.494	89.43
714.682	107.86
714.869	95.57
715.057	87.38
715.244	75.09
715.432	200.02
715.619	152.91
715.807	142.68
715.994	122.2
716.182	197.97
716.369	212.31
716.556	195.92
716.744	64.85
716.931	142.68
717.119	157.01
717.306	185.68
717.493	202.07
717.681	66.9
717.868	132.44
718.055	224.59
718.242	124.24
718.43	161.11
718.617	222.55
718.804	189.78
718.991	243.03
719.179	150.87
719.366	187.73
719.553	222.55
719.74	179.54
719.927	154.96
720.114	169.3
720.301	120.15
720.488	83.28
720.676	73.04
720.863	261.46
721.05	316.75
721.237	122.2
721.424	232.79
721.611	247.12
721.798	148.82
721.985	185.68
722.172	202.07
722.358	259.41
722.545	251.22
722.732	161.11
722.919	283.98
723.106	253.27
723.293	165.2
723.48	130.39
723.667	159.06
723.853	228.69
724.04	197.97
724.227	265.55
724.414	118.1
724.6	304.46
724.787	290.13
724.974	320.85
725.161	210.26
725.347	73.04
725.534	218.45
725.72	171.35
725.907	310.61
726.094	232.79
726.28	157.01
726.467	177.49
726.653	128.34
726.84	329.04
727.027	314.7
727.213	124.24
727.4	202.07
727.586	234.83
727.773	197.97
727.959	214.35
728.145	193.87
728.332	169.3
728.518	218.45
728.705	333.14
728.891	240.98
729.077	261.46
729.264	50.52
729.45	128.34
729.636	329.04
729.823	320.85
730.009	271.7
730.195	228.69
730.382	232.79
730.568	144.72
730.754	322.9
730.94	165.2
731.126	230.74
731.313	253.27
731.499	132.44
731.685	187.73
731.871	243.03
732.057	238.93
732.243	269.65
732.429	220.5
732.615	298.32
732.801	306.51
732.987	261.46
733.173	216.4
733.359	144.72
733.545	191.83
733.731	177.49
733.917	329.04
734.103	181.59
734.289	214.35
734.475	161.11
734.661	324.94
734.847	226.64
735.033	292.18
735.219	265.55
735.404	195.92
735.59	257.36
735.776	150.87
735.962	161.11
736.148	243.03
736.333	288.08
736.519	259.41
736.705	224.59
736.89	224.59
737.076	245.07
737.262	132.44
737.447	122.2
737.633	140.63
737.819	220.5
738.004	173.39
738.19	240.98
738.375	259.41
738.561	243.03
738.747	310.61
738.932	167.25
739.118	355.66
739.303	193.87
739.489	302.42
739.674	243.03
739.859	163.15
740.045	222.55
740.23	298.32
740.416	101.72
740.601	290.13
740.786	257.36
740.972	243.03
741.157	179.54
741.342	130.39
741.528	179.54
741.713	335.18
741.898	154.96
742.084	200.02
742.269	181.59
742.454	243.03
742.639	300.37
742.824	187.73
743.01	253.27
743.195	263.51
743.38	216.4
743.565	202.07
743.75	146.77
743.935	335.18
744.12	304.46
744.305	81.24
744.49	314.7
744.675	177.49
744.86	171.35
745.045	249.17
745.23	240.98
745.415	243.03
745.6	367.95
745.785	144.72
745.97	300.37
746.155	222.55
746.34	265.55
746.525	259.41
746.71	238.93
746.895	177.49
747.079	165.2
747.264	216.4
747.449	238.93
747.634	331.09
747.819	263.51
748.003	232.79
748.188	128.34
748.373	232.79
748.557	263.51
748.742	187.73
748.927	197.97
749.111	171.35
749.296	177.49
749.481	206.16
749.665	200.02
749.85	99.67
750.034	206.16
750.219	157.01
750.404	130.39
750.588	171.35
750.773	124.24
750.957	148.82
751.141	148.82
751.326	144.72
751.51	85.33
751.695	134.48
751.879	173.39
752.064	333.14
752.248	185.68
752.432	251.22
752.617	245.07
752.801	240.98
752.985	101.72
753.17	288.08
753.354	206.16
753.538	171.35
753.722	146.77
753.907	101.72
754.091	130.39
754.275	214.35
754.459	85.33
754.643	150.87
754.828	140.63
755.012	101.72
755.196	161.11
755.38	140.63
755.564	95.57
755.748	152.91
755.932	200.02
756.116	206.16
756.3	150.87
756.484	179.54
756.668	200.02
756.852	68.95
757.036	116.05
757.22	40.28
757.404	13.65
757.588	109.91
757.772	226.64
757.956	148.82
758.14	238.93
758.323	130.39
758.507	161.11
758.691	124.24
758.875	189.78
759.059	271.7
759.242	103.76
759.426	64.85
759.61	159.06
759.794	27.99
759.977	150.87
760.161	290.13
760.345	210.26
760.528	150.87
760.712	165.2
760.895	175.44
761.079	105.81
761.263	23.89
761.446	71
761.63	73.04
761.813	243.03
761.997	109.91
762.18	114
762.364	140.63
762.547	-29.35
762.731	128.34
762.914	11.61
763.098	54.61
763.281	46.42
763.464	95.57
763.648	179.54
763.831	130.39
764.015	99.67
764.198	165.2
764.381	11.61
764.564	132.44
764.748	105.81
764.931	179.54
765.114	58.71
765.297	130.39
765.481	48.47
765.664	54.61
765.847	116.05
766.03	150.87
766.213	114
766.397	128.34
766.58	5.46
766.763	161.11
766.946	66.9
767.129	64.85
767.312	11.61
767.495	64.85
767.678	-8.87
767.861	193.87
768.044	185.68
768.227	46.42
768.41	21.84
768.593	64.85
768.776	134.48
768.959	124.24
769.142	154.96
769.324	91.48
769.507	60.76
769.69	146.77
769.873	36.18
770.056	220.5
770.239	91.48
770.421	130.39
770.604	77.14
770.787	58.71
770.97	77.14
771.152	32.08
771.335	157.01
771.518	58.71
771.7	144.72
771.883	138.58
772.066	89.43
772.248	148.82
772.431	138.58
772.613	120.15
772.796	7.51
772.978	140.63
773.161	202.07
773.343	50.52
773.526	56.66
773.708	-17.07
773.891	-31.4
774.073	89.43
774.256	-6.83
774.438	187.73
774.621	23.89
774.803	150.87
774.985	5.46
775.168	77.14
775.35	5.46
775.532	87.38
775.715	21.84
775.897	111.96
776.079	68.95
776.261	204.11
776.444	23.89
776.626	-12.97
776.808	40.28
776.99	-41.64
777.173	75.09
777.355	32.08
777.537	50.52
777.719	101.72
777.901	40.28
778.083	-15.02
778.265	-19.11
778.447	50.52
778.629	64.85
778.811	62.8
778.993	56.66
779.175	130.39
779.357	48.47
779.539	19.8
779.721	7.51
779.903	30.04
780.085	50.52
780.267	30.04
780.449	154.96
780.631	27.99
780.812	97.62
780.994	-2.73
781.176	42.32
781.358	44.37
781.54	54.61
781.721	71
781.903	136.53
782.085	111.96
782.267	142.68
782.448	-4.78
782.63	56.66
782.812	89.43
782.993	132.44
783.175	87.38
783.357	-17.07
783.538	7.51
783.72	25.94
783.901	46.42
784.083	114
784.264	1.37
784.446	-21.16
784.627	-17.07
784.809	58.71
784.99	-15.02
785.172	-0.68
785.353	30.04
785.535	1.37
785.716	-23.21
785.897	27.99
786.079	21.84
786.26	89.43
786.441	40.28
786.623	-98.99
786.804	-35.5
786.985	-78.51
787.167	54.61
787.348	17.75
787.529	75.09
787.71	148.82
787.891	58.71
788.073	-4.78
788.254	-98.99
788.435	134.48
788.616	38.23
788.797	-0.68
788.978	38.23
789.159	11.61
789.34	136.53
789.522	89.43
789.703	23.89
789.884	40.28
790.065	-19.11
790.246	189.78
790.427	-17.07
790.607	173.39
790.788	75.09
790.969	-92.84
791.15	21.84
791.331	30.04
791.512	-19.11
791.693	-8.87
791.874	54.61
792.054	169.3
792.235	126.29
792.416	7.51
792.597	-21.16
792.778	75.09
792.958	73.04
793.139	60.76
793.32	50.52
793.5	-58.03
793.681	79.19
793.862	77.14
794.042	54.61
794.223	-10.92
794.404	5.46
794.584	-47.79
794.765	1.37
794.945	-80.55
795.126	15.7
795.306	146.77
795.487	97.62
795.667	-68.27
795.848	62.8
796.028	-0.68
796.209	118.1
796.389	62.8
796.57	38.23
796.75	-10.92
796.93	30.04
797.111	13.65
797.291	-74.41
797.471	91.48
797.652	5.46
797.832	-49.83
798.012	157.01
798.192	-19.11
798.373	-27.31
798.553	81.24
798.733	107.86
798.913	-60.07
799.093	-47.79
799.274	62.8
799.454	32.08
799.634	27.99
799.814	60.76
799.994	25.94
800.174	-4.78
800.354	17.75
800.534	-60.07
800.714	150.87
800.894	-66.22
801.074	-105.13
801.254	-8.87
801.434	23.89
801.614	-8.87
801.794	25.94
801.974	1883.45
802.154	-23.21
802.334	60.76
802.514	-29.35
802.693	-8.87
802.873	-4.78
803.053	103.76
803.233	116.05
803.413	75.09
803.592	-23.21
803.772	5.46
803.952	1.37
804.131	-78.51
804.311	97.62
804.491	81.24
804.67	-19.11
804.85	-58.03
805.03	19.8
805.209	56.66
805.389	-39.59
805.568	34.13
805.748	-49.83
805.928	15.7
806.107	62.8
806.287	23.89
806.466	58.71
806.646	-64.17
806.825	107.86
807.004	11.61
807.184	56.66
807.363	128.34
807.543	-12.97
807.722	-60.07
807.901	85.33
808.081	44.37
808.26	-193.19
808.439	89.43
808.619	-4.78
808.798	-27.31
808.977	101.72
809.156	95.57
809.336	34.13
809.515	114
809.694	-135.85
809.873	-4.78
810.052	54.61
810.231	212.31
810.411	44.37
810.59	89.43
810.769	38.23
810.948	114
811.127	-70.31
811.306	-6.83
811.485	-35.5
811.664	122.2
811.843	-39.59
812.022	-2.73
812.201	13.65
812.38	-25.26
812.559	-4.78
812.737	68.95
812.916	-31.4
813.095	-105.13
813.274	27.99
813.453	40.28
813.632	3.41
813.811	56.66
813.989	-64.17
814.168	-29.35
814.347	-129.7
814.526	27.99
814.704	161.11
814.883	116.05
815.062	-64.17
815.24	60.76
815.419	-107.18
815.598	25.94
815.776	-37.55
815.955	-15.02
816.133	-76.46
816.312	-51.88
816.49	-19.11
816.669	-21.16
816.847	23.89
817.026	30.04
817.204	-6.83
817.383	-17.07
817.561	-55.98
817.74	42.32
817.918	64.85
818.097	-35.5
818.275	-58.03
818.453	-35.5
818.632	64.85
818.81	-35.5
818.988	-19.11
819.167	-37.55
819.345	-2.73
819.523	-131.75
819.701	52.56
819.879	42.32
820.058	77.14
820.236	68.95
820.414	44.37
820.592	-23.21
820.77	-21.16
820.948	-39.59
821.127	7.51
821.305	15.7
821.483	-64.17
821.661	85.33
821.839	13.65
822.017	-51.88
822.195	30.04
822.373	17.75
822.551	58.71
822.729	89.43
822.907	-17.07
823.085	85.33
823.262	7.51
823.44	-119.46
823.618	-0.68
823.796	1.37
823.974	27.99
824.152	50.52
824.329	-84.65
824.507	50.52
824.685	9.56
824.863	-47.79
825.04	-21.16
825.218	30.04
825.396	46.42
825.574	-66.22
825.751	-6.83
825.929	81.24
826.107	48.47
826.284	34.13
826.462	101.72
826.639	-70.31
826.817	-109.23
826.994	-17.07
827.172	-55.98
827.349	52.56
827.527	89.43
827.704	-4.78
827.882	116.05
828.059	-35.5
828.237	-66.22
828.414	3.41
828.591	-135.85
828.769	34.13
828.946	5.46
829.124	95.57
829.301	189.78
829.478	-51.88
829.655	44.37
829.833	-49.83
830.01	-129.7
830.187	11.61
830.364	-35.5
830.542	-37.55
830.719	73.04
830.896	32.08
831.073	15.7
831.25	-21.16
831.427	68.95
831.604	-17.07
831.782	-80.55
831.959	50.52
832.136	-17.07
832.313	11.61
832.49	-29.35
832.667	-6.83
832.844	-105.13
833.021	85.33
833.198	-17.07
833.374	-29.35
833.551	34.13
833.728	15.7
833.905	21.84
834.082	-113.32
834.259	40.28
834.436	27.99
834.612	-51.88
834.789	85.33
834.966	-19.11
835.143	23.89
835.319	-25.26
835.496	64.85
835.673	95.57
835.85	-68.27
836.026	103.76
836.203	19.8
836.38	-35.5
836.556	25.94
836.733	-15.02
836.909	95.57
837.086	-17.07
837.262	-98.99
837.439	15.7
837.616	-96.94
837.792	-27.31
837.968	-35.5
838.145	-195.24
838.321	1.37
838.498	48.47
838.674	124.24
838.851	40.28
839.027	-43.69
839.203	-39.59
839.38	-8.87
839.556	50.52
839.732	21.84
839.909	-39.59
840.085	1.37
840.261	-66.22
840.437	83.28
840.614	-115.37
840.79	107.86
840.966	87.38
841.142	7.51
841.318	-17.07
841.494	48.47
841.671	60.76
841.847	-47.79
842.023	-0.68
842.199	11.61
842.375	23.89
842.551	-109.23
842.727	-49.83
842.903	62.8
843.079	-31.4
843.255	93.52
843.431	-25.26
843.607	66.9
843.783	-158.38
843.959	34.13
844.134	-64.17
844.31	105.81
844.486	-66.22
844.662	15.7
844.838	54.61
845.013	-4.78
845.189	-19.11
845.365	-12.97
845.541	-0.68
845.716	34.13
845.892	40.28
846.068	-37.55
846.244	5.46
846.419	-19.11
846.595	-8.87
846.77	-109.23
846.946	56.66
847.122	5.46
847.297	-21.16
847.473	136.53
847.648	-113.32
847.824	38.23
847.999	-92.84
848.175	-80.55
848.35	77.14
848.526	19.8
848.701	81.24
848.876	54.61
849.052	114
849.227	-6.83
849.403	-31.4
849.578	-23.21
849.753	46.42
849.929	-21.16
850.104	-43.69
850.279	-15.02
850.454	38.23
850.63	-35.5
850.805	23.89
850.98	-6.83
851.155	-31.4
851.33	48.47
851.505	-33.45
851.681	44.37
851.856	-84.65
852.031	52.56
852.206	-41.64
852.381	-70.31
852.556	27.99
852.731	60.76
852.906	66.9
853.081	30.04
853.256	34.13
853.431	13.65
853.606	17.75
853.781	-49.83
853.956	-70.31
854.131	-43.69
854.305	-2.73
854.48	-6.83
854.655	21.84
854.83	-21.16
855.005	-4.78
855.18	68.95
855.354	-27.31
855.529	9.56
855.704	-53.93
855.879	40.28
856.053	-123.56
856.228	1.37
856.403	-103.08
856.577	5.46
856.752	-96.94
856.926	9.56
857.101	73.04
857.276	-60.07
857.45	83.28
857.625	40.28
857.799	34.13
857.974	-35.5
858.148	-148.14
858.323	5.46
858.497	-51.88
858.672	-66.22
858.846	-82.6
859.02	132.44
859.195	-45.74
859.369	-68.27
859.543	13.65
859.718	-37.55
859.892	-4.78
860.066	-45.74
860.241	-84.65
860.415	-41.64
860.589	-47.79
860.763	19.8
860.938	-60.07
861.112	23.89
861.286	-53.93
861.46	11.61
861.634	30.04
861.808	87.38
861.982	-72.36
862.157	-62.12
862.331	-41.64
862.505	-43.69
862.679	-55.98
862.853	7.51
863.027	-6.83
863.201	173.39
863.375	-6.83
863.549	3.41
863.722	32.08
863.896	42.32
864.07	-55.98
864.244	-17.07
864.418	48.47
864.592	3.41
864.766	3.41
864.939	17.75
865.113	15.7
865.287	93.52
865.461	-76.46
865.634	3.41
865.808	-90.79
865.982	-72.36
866.156	-33.45
866.329	-152.23
866.503	60.76
866.676	38.23
866.85	5.46
867.024	-72.36
867.197	52.56
867.371	60.76
867.544	-4.78
867.718	-43.69
867.891	79.19
868.065	-133.8
868.238	3.41
868.412	64.85
868.585	-80.55
868.759	-0.68
868.932	-10.92
869.105	-101.03
869.279	3.41
869.452	-15.02
869.625	64.85
869.799	56.66
869.972	-119.46
870.145	25.94
870.319	77.14
870.492	-23.21
870.665	-82.6
870.838	-123.56
871.011	-96.94
871.185	-64.17
871.358	-82.6
871.531	58.71
871.704	-39.59
871.877	-29.35
872.05	-101.03
872.223	-84.65
872.396	132.44
872.569	42.32
872.742	-86.7
872.915	68.95
873.088	-2.73
873.261	-39.59
873.434	-33.45
873.607	36.18
873.78	52.56
873.953	-119.46
874.126	54.61
874.299	60.76
874.471	-31.4
874.644	15.7
874.817	17.75
874.99	134.48
875.163	17.75
875.335	19.8
875.508	-39.59
875.681	44.37
875.853	-19.11
876.026	34.13
876.199	81.24
876.371	32.08
876.544	-60.07
876.717	-62.12
876.889	-58.03
877.062	46.42
877.234	-88.75
877.407	-0.68
877.579	27.99
877.752	-60.07
877.924	89.43
878.097	52.56
878.269	3.41
878.442	56.66
878.614	77.14
878.786	5.46
878.959	-12.97
879.131	5.46
879.303	-68.27
879.476	-60.07
879.648	34.13
879.82	7.51
879.993	-58.03
880.165	9.56
880.337	42.32
880.509	-55.98
880.681	-58.03
880.854	-88.75
881.026	79.19
881.198	99.67
881.37	52.56
881.542	-25.26
881.714	-8.87
881.886	5.46
882.058	-25.26
882.23	-12.97
882.402	38.23
882.574	15.7
882.746	122.2
882.918	136.53
883.09	52.56
883.262	-8.87
883.434	-31.4
883.606	-105.13
883.778	-4.78
883.95	122.2
884.122	34.13
884.293	136.53
884.465	7.51
884.637	52.56
884.809	-82.6
884.98	109.91
885.152	23.89
885.324	38.23
885.496	-154.28
885.667	-23.21
885.839	-37.55
886.011	75.09
886.182	36.18
886.354	32.08
886.525	34.13
886.697	1.37
886.869	-19.11
887.04	25.94
887.212	89.43
887.383	146.77
887.555	-17.07
887.726	-76.46
887.897	-0.68
888.069	-66.22
888.24	17.75
888.412	-12.97
888.583	15.7
888.754	-78.51
888.926	5.46
889.097	-49.83
889.268	-111.27
889.44	30.04
889.611	-60.07
889.782	-62.12
889.953	-84.65
890.125	85.33
890.296	-45.74
890.467	-35.5
890.638	-84.65
890.809	-17.07
890.98	-72.36
891.151	15.7
891.323	95.57
891.494	30.04
891.665	-23.21
891.836	-55.98
892.007	60.76
892.178	34.13
892.349	13.65
892.52	-90.79
892.691	23.89
892.862	-53.93
893.032	-74.41
893.203	-82.6
893.374	21.84
893.545	60.76
893.716	-45.74
893.887	34.13
894.057	-45.74
894.228	-43.69
894.399	-84.65
894.57	87.38
894.74	11.61
894.911	30.04
895.082	-19.11
895.253	-53.93
895.423	52.56
895.594	58.71
895.764	93.52
895.935	-68.27
896.106	-27.31
896.276	-21.16
896.447	-43.69
896.617	-74.41
896.788	-33.45
896.958	-47.79
897.129	-62.12
897.299	-66.22
897.47	140.63
897.64	17.75
897.81	-0.68
897.981	27.99
898.151	-45.74
898.322	7.51
898.492	34.13
898.662	-76.46
898.832	-17.07
899.003	-23.21
899.173	42.32
899.343	-49.83
899.513	-78.51
