Data from USB4F104151__48__10-43-20-977.txt Node

Date: Wed Feb 26 10:43:20 EST 2025
User: louis
Spectrometer: USB4F10415
Trigger mode: 4
Integration Time (sec): 1.000000E-1
Scans to average: 1
Electric dark correction enabled: true
Nonlinearity correction enabled: false
Boxcar width: 0
XAxis mode: Wavelengths
Number of Pixels in Spectrum: 3648
>>>>>Begin Spectral Data<<<<<
178.204	-372.73
178.424	-372.73
178.644	-372.73
178.864	-385.02
179.084	-364.54
179.304	-22.53
179.524	-6.14
179.744	-24.58
179.964	6.14
180.184	-40.96
180.404	-8.19
180.624	22.53
180.844	73.73
181.064	-6.14
181.283	-20.48
181.503	-40.96
181.723	67.58
181.943	-120.83
182.163	231.42
182.383	-2.05
182.602	139.26
182.822	137.21
183.042	141.31
183.262	-59.39
183.482	-22.53
183.701	40.96
183.921	20.48
184.141	-110.59
184.361	100.35
184.58	86.01
184.8	28.67
185.02	-28.67
185.239	98.3
185.459	65.53
185.679	96.25
185.898	-38.91
186.118	106.49
186.338	20.48
186.557	159.74
186.777	-57.34
186.997	55.3
187.216	24.58
187.436	212.99
187.655	63.49
187.875	202.75
188.095	12.29
188.314	131.07
188.534	147.45
188.753	55.3
188.973	110.59
189.192	198.65
189.412	47.1
189.631	16.38
189.851	108.54
190.07	188.41
190.29	55.3
190.509	12.29
190.729	10.24
190.948	120.83
191.168	210.94
191.387	96.25
191.607	83.97
191.826	69.63
192.045	79.87
192.265	4.1
192.484	90.11
192.704	114.69
192.923	51.2
193.142	208.89
193.362	88.06
193.581	98.3
193.8	53.25
194.02	67.58
194.239	-4.1
194.458	145.41
194.678	28.67
194.897	10.24
195.116	-8.19
195.335	77.82
195.555	67.58
195.774	-14.34
195.993	114.69
196.212	118.78
196.432	-14.34
196.651	-10.24
196.87	81.92
197.089	258.04
197.308	141.31
197.528	79.87
197.747	43.01
197.966	-59.39
198.185	155.65
198.404	47.1
198.623	122.88
198.842	47.1
199.062	77.82
199.281	141.31
199.5	40.96
199.719	36.86
199.938	92.16
200.157	120.83
200.376	182.27
200.595	120.83
200.814	57.34
201.033	30.72
201.252	204.8
201.471	106.49
201.69	96.25
201.909	6.14
202.128	104.45
202.347	88.06
202.566	12.29
202.785	-16.38
203.004	22.53
203.223	188.41
203.442	92.16
203.661	-20.48
203.879	63.49
204.098	81.92
204.317	-43.01
204.536	98.3
204.755	118.78
204.974	135.17
205.193	-36.86
205.411	174.08
205.63	61.44
205.849	79.87
206.068	4.1
206.287	-36.86
206.505	172.03
206.724	43.01
206.943	55.3
207.162	34.82
207.381	69.63
207.599	77.82
207.818	104.45
208.037	40.96
208.255	143.36
208.474	133.12
208.693	124.93
208.911	30.72
209.13	137.21
209.349	73.73
209.567	81.92
209.786	116.73
210.005	83.97
210.223	86.01
210.442	-65.54
210.661	40.96
210.879	36.86
211.098	-4.1
211.316	-4.1
211.535	133.12
211.753	124.93
211.972	108.54
212.191	-4.1
212.409	73.73
212.628	163.84
212.846	71.68
213.065	77.82
213.283	163.84
213.502	75.77
213.72	90.11
213.938	32.77
214.157	12.29
214.375	147.45
214.594	63.49
214.812	86.01
215.031	86.01
215.249	22.53
215.467	47.1
215.686	100.35
215.904	57.34
216.122	45.06
216.341	159.74
216.559	71.68
216.778	131.07
216.996	104.45
217.214	8.19
217.432	-14.34
217.651	28.67
217.869	135.17
218.087	102.4
218.306	34.82
218.524	94.21
218.742	36.86
218.96	106.49
219.179	12.29
219.397	2.05
219.615	239.61
219.833	71.68
220.051	22.53
220.27	139.26
220.488	116.73
220.706	114.69
220.924	-12.29
221.142	38.91
221.36	59.39
221.578	77.82
221.796	-8.19
222.015	-16.38
222.233	102.4
222.451	210.94
222.669	45.06
222.887	137.21
223.105	36.86
223.323	55.3
223.541	14.34
223.759	73.73
223.977	81.92
224.195	208.89
224.413	172.03
224.631	90.11
224.849	118.78
225.067	206.84
225.285	36.86
225.503	67.58
225.721	-47.1
225.939	16.38
226.157	55.3
226.375	243.71
226.592	-30.72
226.81	69.63
227.028	153.6
227.246	139.26
227.464	112.64
227.682	112.64
227.9	106.49
228.117	118.78
228.335	116.73
228.553	51.2
228.771	30.72
228.989	-2.05
229.206	190.46
229.424	22.53
229.642	73.73
229.86	-14.34
230.077	159.74
230.295	100.35
230.513	90.11
230.731	116.73
230.948	278.52
231.166	120.83
231.384	26.62
231.601	18.43
231.819	131.07
232.037	43.01
232.254	-2.05
232.472	53.25
232.689	28.67
232.907	172.03
233.125	-92.16
233.342	-61.44
233.56	20.48
233.777	-2.05
233.995	61.44
234.213	165.89
234.43	88.06
234.648	53.25
234.865	-2.05
235.083	106.49
235.3	63.49
235.518	90.11
235.735	112.64
235.953	124.93
236.17	12.29
236.388	28.67
236.605	45.06
236.822	143.36
237.04	63.49
237.257	32.77
237.475	43.01
237.692	55.3
237.909	145.41
238.127	-18.43
238.344	61.44
238.562	126.97
238.779	-34.82
238.996	26.62
239.214	16.38
239.431	88.06
239.648	-10.24
239.865	114.69
240.083	122.88
240.3	73.73
240.517	53.25
240.735	-18.43
240.952	122.88
241.169	129.02
241.386	112.64
241.603	32.77
241.821	43.01
242.038	133.12
242.255	118.78
242.472	-0
242.689	106.49
242.907	161.79
243.124	122.88
243.341	38.91
243.558	-63.49
243.775	-28.67
243.992	-0
244.209	81.92
244.426	190.46
244.643	118.78
244.86	94.21
245.078	141.31
245.295	43.01
245.512	61.44
245.729	-0
245.946	133.12
246.163	88.06
246.38	16.38
246.597	112.64
246.814	4.1
247.031	38.91
247.248	45.06
247.464	145.41
247.681	139.26
247.898	169.98
248.115	47.1
248.332	6.14
248.549	202.75
248.766	204.8
248.983	172.03
249.2	159.74
249.417	108.54
249.633	-12.29
249.85	67.58
250.067	83.97
250.284	71.68
250.501	100.35
250.717	124.93
250.934	34.82
251.151	38.91
251.368	51.2
251.585	102.4
251.801	-16.38
252.018	86.01
252.235	86.01
252.451	-34.82
252.668	28.67
252.885	133.12
253.102	67.58
253.318	-22.53
253.535	-14.34
253.752	10.24
253.968	86.01
254.185	-77.82
254.401	69.63
254.618	55.3
254.835	24.58
255.051	114.69
255.268	67.58
255.484	102.4
255.701	92.16
255.917	129.02
256.134	-14.34
256.351	86.01
256.567	-14.34
256.784	22.53
257	-34.82
257.217	26.62
257.433	67.58
257.65	79.87
257.866	198.65
258.082	-73.73
258.299	24.58
258.515	38.91
258.732	40.96
258.948	-94.21
259.165	6.14
259.381	-43.01
259.597	116.73
259.814	20.48
260.03	51.2
260.246	69.63
260.463	141.31
260.679	116.73
260.895	4.1
261.112	102.4
261.328	22.53
261.544	-26.62
261.761	167.93
261.977	-53.25
262.193	43.01
262.409	59.39
262.626	108.54
262.842	55.3
263.058	-32.77
263.274	165.89
263.49	75.77
263.707	73.73
263.923	94.21
264.139	-8.19
264.355	124.93
264.571	100.35
264.787	92.16
265.004	116.73
265.22	-0
265.436	-28.67
265.652	-45.06
265.868	92.16
266.084	40.96
266.3	18.43
266.516	90.11
266.732	65.53
266.948	61.44
267.164	28.67
267.38	65.53
267.596	57.34
267.812	208.89
268.028	34.82
268.244	49.15
268.46	55.3
268.676	-30.72
268.892	53.25
269.108	57.34
269.324	-30.72
269.54	-28.67
269.756	81.92
269.972	-79.87
270.188	-8.19
270.403	57.34
270.619	12.29
270.835	118.78
271.051	47.1
271.267	38.91
271.483	55.3
271.698	135.17
271.914	34.82
272.13	110.59
272.346	-0
272.562	114.69
272.777	151.55
272.993	59.39
273.209	57.34
273.425	14.34
273.64	45.06
273.856	149.5
274.072	69.63
274.287	-4.1
274.503	92.16
274.719	143.36
274.934	51.2
275.15	-98.3
275.366	114.69
275.581	22.53
275.797	81.92
276.012	110.59
276.228	-2.05
276.444	55.3
276.659	192.51
276.875	-0
277.09	102.4
277.306	-14.34
277.521	51.2
277.737	55.3
277.952	106.49
278.168	81.92
278.383	96.25
278.599	96.25
278.814	65.53
279.03	131.07
279.245	139.26
279.461	53.25
279.676	69.63
279.892	-71.68
280.107	-34.82
280.322	18.43
280.538	22.53
280.753	-34.82
280.969	57.34
281.184	90.11
281.399	118.78
281.615	88.06
281.83	124.93
282.045	-12.29
282.26	-90.11
282.476	-4.1
282.691	131.07
282.906	116.73
283.122	57.34
283.337	36.86
283.552	114.69
283.767	63.49
283.983	98.3
284.198	30.72
284.413	57.34
284.628	-2.05
284.843	102.4
285.058	145.41
285.274	43.01
285.489	-45.06
285.704	12.29
285.919	10.24
286.134	69.63
286.349	100.35
286.564	55.3
286.779	272.38
286.995	34.82
287.21	-40.96
287.425	94.21
287.64	-8.19
287.855	14.34
288.07	-43.01
288.285	155.65
288.5	139.26
288.715	114.69
288.93	30.72
289.145	51.2
289.36	145.41
289.575	-4.1
289.79	133.12
290.004	6.14
290.219	69.63
290.434	16.38
290.649	63.49
290.864	55.3
291.079	-10.24
291.294	81.92
291.509	139.26
291.724	47.1
291.938	133.12
292.153	26.62
292.368	104.45
292.583	86.01
292.798	98.3
293.012	116.73
293.227	47.1
293.442	18.43
293.657	110.59
293.871	141.31
294.086	63.49
294.301	157.69
294.516	174.08
294.73	24.58
294.945	-10.24
295.16	71.68
295.374	198.65
295.589	118.78
295.804	20.48
296.018	77.82
296.233	79.87
296.447	63.49
296.662	6.14
296.877	133.12
297.091	92.16
297.306	18.43
297.52	49.15
297.735	77.82
297.949	65.53
298.164	133.12
298.378	106.49
298.593	43.01
298.807	-18.43
299.022	88.06
299.236	190.46
299.451	34.82
299.665	106.49
299.88	88.06
300.094	-45.06
300.309	-2.05
300.523	104.45
300.737	14.34
300.952	86.01
301.166	86.01
301.381	-36.86
301.595	57.34
301.809	-12.29
302.024	22.53
302.238	-24.58
302.452	120.83
302.667	69.63
302.881	174.08
303.095	69.63
303.309	55.3
303.524	12.29
303.738	-51.2
303.952	22.53
304.166	45.06
304.381	-69.63
304.595	227.32
304.809	-18.43
305.023	83.97
305.237	43.01
305.452	57.34
305.666	73.73
305.88	63.49
306.094	122.88
306.308	143.36
306.522	55.3
306.736	100.35
306.95	47.1
307.164	22.53
307.379	83.97
307.593	172.03
307.807	104.45
308.021	61.44
308.235	61.44
308.449	-102.4
308.663	20.48
308.877	243.71
309.091	71.68
309.305	159.74
309.519	-67.58
309.733	178.17
309.947	-100.35
310.161	79.87
310.374	165.89
310.588	165.89
310.802	-8.19
311.016	8.19
311.23	153.6
311.444	-2.05
311.658	65.53
311.872	126.97
312.085	98.3
312.299	219.13
312.513	200.7
312.727	114.69
312.941	26.62
313.154	94.21
313.368	43.01
313.582	77.82
313.796	81.92
314.009	53.25
314.223	116.73
314.437	-10.24
314.651	118.78
314.864	-12.29
315.078	-22.53
315.292	45.06
315.505	-28.67
315.719	139.26
315.933	88.06
316.146	-10.24
316.36	28.67
316.573	131.07
316.787	98.3
317.001	100.35
317.214	4.1
317.428	-4.1
317.641	-73.73
317.855	71.68
318.068	59.39
318.282	120.83
318.495	239.61
318.709	114.69
318.922	79.87
319.136	155.65
319.349	69.63
319.563	20.48
319.776	108.54
319.99	-53.25
320.203	151.55
320.417	6.14
320.63	61.44
320.843	184.32
321.057	106.49
321.27	69.63
321.483	131.07
321.697	149.5
321.91	57.34
322.124	182.27
322.337	143.36
322.55	-65.54
322.763	47.1
322.977	32.77
323.19	8.19
323.403	-47.1
323.617	133.12
323.83	67.58
324.043	40.96
324.256	133.12
324.469	-12.29
324.683	57.34
324.896	-0
325.109	-12.29
325.322	-143.36
325.535	114.69
325.748	110.59
325.962	20.48
326.175	106.49
326.388	88.06
326.601	145.41
326.814	88.06
327.027	116.73
327.24	153.6
327.453	-79.87
327.666	88.06
327.879	147.45
328.092	81.92
328.305	110.59
328.518	16.38
328.731	-6.14
328.944	36.86
329.157	149.5
329.37	34.82
329.583	188.41
329.796	147.45
330.009	-28.67
330.222	143.36
330.435	147.45
330.648	20.48
330.861	8.19
331.073	124.93
331.286	151.55
331.499	65.53
331.712	14.34
331.925	47.1
332.138	18.43
332.35	122.88
332.563	-16.38
332.776	98.3
332.989	-45.06
333.202	40.96
333.414	10.24
333.627	36.86
333.84	36.86
334.053	81.92
334.265	-6.14
334.478	57.34
334.691	47.1
334.903	51.2
335.116	16.38
335.329	12.29
335.541	94.21
335.754	94.21
335.966	4.1
336.179	43.01
336.392	79.87
336.604	57.34
336.817	100.35
337.029	51.2
337.242	51.2
337.454	77.82
337.667	24.58
337.88	145.41
338.092	81.92
338.305	116.73
338.517	49.15
338.729	149.5
338.942	98.3
339.154	36.86
339.367	-28.67
339.579	73.73
339.792	-18.43
340.004	129.02
340.217	12.29
340.429	71.68
340.641	-26.62
340.854	77.82
341.066	45.06
341.278	110.59
341.491	198.65
341.703	163.84
341.915	65.53
342.128	90.11
342.34	40.96
342.552	20.48
342.764	88.06
342.977	-32.77
343.189	159.74
343.401	98.3
343.613	-36.86
343.826	94.21
344.038	32.77
344.25	-4.1
344.462	38.91
344.674	63.49
344.886	-8.19
345.099	73.73
345.311	126.97
345.523	96.25
345.735	-45.06
345.947	63.49
346.159	63.49
346.371	-2.05
346.583	36.86
346.795	194.56
347.007	57.34
347.219	114.69
347.431	65.53
347.643	63.49
347.855	2.05
348.067	163.84
348.279	-92.16
348.491	10.24
348.703	206.84
348.915	57.34
349.127	-16.38
349.339	43.01
349.551	40.96
349.763	169.98
349.975	77.82
350.187	122.88
350.399	204.8
350.61	73.73
350.822	26.62
351.034	145.41
351.246	75.77
351.458	108.54
351.669	143.36
351.881	143.36
352.093	180.22
352.305	102.4
352.517	94.21
352.728	145.41
352.94	83.97
353.152	59.39
353.363	38.91
353.575	116.73
353.787	159.74
353.999	51.2
354.21	227.32
354.422	22.53
354.633	110.59
354.845	-8.19
355.057	79.87
355.268	118.78
355.48	120.83
355.692	-57.34
355.903	34.82
356.115	38.91
356.326	-79.87
356.538	161.79
356.749	137.21
356.961	194.56
357.172	86.01
357.384	-57.34
357.595	256
357.807	8.19
358.018	-36.86
358.23	63.49
358.441	143.36
358.653	116.73
358.864	12.29
359.075	-2.05
359.287	94.21
359.498	143.36
359.709	75.77
359.921	38.91
360.132	77.82
360.344	131.07
360.555	30.72
360.766	32.77
360.977	4.1
361.189	139.26
361.4	51.2
361.611	104.45
361.823	110.59
362.034	131.07
362.245	-2.05
362.456	38.91
362.667	153.6
362.879	-55.3
363.09	57.34
363.301	51.2
363.512	28.67
363.723	34.82
363.935	69.63
364.146	104.45
364.357	57.34
364.568	75.77
364.779	-20.48
364.99	155.65
365.201	-4.1
365.412	145.41
365.623	40.96
365.834	71.68
366.045	88.06
366.256	108.54
366.467	129.02
366.678	94.21
366.889	122.88
367.1	71.68
367.311	137.21
367.522	43.01
367.733	131.07
367.944	8.19
368.155	36.86
368.366	141.31
368.577	141.31
368.788	206.84
368.999	-18.43
369.209	67.58
369.42	278.52
369.631	303.1
369.842	161.79
370.053	14.34
370.264	88.06
370.474	38.91
370.685	55.3
370.896	-8.19
371.107	118.78
371.317	53.25
371.528	38.91
371.739	104.45
371.95	43.01
372.16	145.41
372.371	-40.96
372.582	8.19
372.792	86.01
373.003	61.44
373.214	53.25
373.424	165.89
373.635	-45.06
373.846	124.93
374.056	14.34
374.267	102.4
374.477	34.82
374.688	36.86
374.898	83.97
375.109	118.78
375.319	8.19
375.53	71.68
375.74	151.55
375.951	100.35
376.161	143.36
376.372	233.47
376.582	14.34
376.793	36.86
377.003	40.96
377.214	18.43
377.424	114.69
377.635	47.1
377.845	2.05
378.055	215.04
378.266	-47.1
378.476	94.21
378.686	129.02
378.897	61.44
379.107	53.25
379.317	108.54
379.528	114.69
379.738	112.64
379.948	53.25
380.158	118.78
380.369	14.34
380.579	120.83
380.789	81.92
380.999	143.36
381.21	161.79
381.42	182.27
381.63	12.29
381.84	94.21
382.05	188.41
382.261	98.3
382.471	180.22
382.681	-38.91
382.891	239.61
383.101	102.4
383.311	24.58
383.521	75.77
383.731	28.67
383.941	129.02
384.151	26.62
384.361	6.14
384.571	126.97
384.781	94.21
384.991	169.98
385.201	180.22
385.411	163.84
385.621	75.77
385.831	77.82
386.041	81.92
386.251	43.01
386.461	114.69
386.671	34.82
386.881	59.39
387.091	2.05
387.301	124.93
387.511	67.58
387.72	79.87
387.93	151.55
388.14	-10.24
388.35	28.67
388.56	122.88
388.769	149.5
388.979	53.25
389.189	-47.1
389.399	69.63
389.609	88.06
389.818	102.4
390.028	81.92
390.238	112.64
390.447	-49.15
390.657	104.45
390.867	40.96
391.076	-118.78
391.286	63.49
391.496	75.77
391.705	38.91
391.915	198.65
392.125	208.89
392.334	20.48
392.544	225.28
392.753	4.1
392.963	8.19
393.172	112.64
393.382	47.1
393.591	161.79
393.801	36.86
394.01	147.45
394.22	73.73
394.429	34.82
394.639	38.91
394.848	77.82
395.058	100.35
395.267	34.82
395.477	71.68
395.686	96.25
395.895	217.08
396.105	149.5
396.314	-4.1
396.524	30.72
396.733	24.58
396.942	169.98
397.152	133.12
397.361	126.97
397.57	133.12
397.78	100.35
397.989	131.07
398.198	241.66
398.407	4.1
398.617	43.01
398.826	30.72
399.035	104.45
399.244	145.41
399.453	51.2
399.663	149.5
399.872	108.54
400.081	-2.05
400.29	174.08
400.499	57.34
400.708	180.22
400.917	63.49
401.127	57.34
401.336	20.48
401.545	229.37
401.754	151.55
401.963	145.41
402.172	81.92
402.381	-40.96
402.59	55.3
402.799	34.82
403.008	137.21
403.217	83.97
403.426	114.69
403.635	-10.24
403.844	63.49
404.053	43.01
404.262	22.53
404.471	133.12
404.68	83.97
404.888	53.25
405.097	53.25
405.306	59.39
405.515	143.36
405.724	-14.34
405.933	98.3
406.142	59.39
406.35	135.17
406.559	79.87
406.768	-32.77
406.977	169.98
407.185	75.77
407.394	6.14
407.603	38.91
407.812	141.31
408.02	210.94
408.229	114.69
408.438	83.97
408.646	-73.73
408.855	53.25
409.064	114.69
409.272	71.68
409.481	90.11
409.69	32.77
409.898	20.48
410.107	57.34
410.315	192.51
410.524	45.06
410.733	69.63
410.941	92.16
411.15	40.96
411.358	149.5
411.567	141.31
411.775	22.53
411.984	79.87
412.192	71.68
412.401	49.15
412.609	176.13
412.818	151.55
413.026	73.73
413.234	53.25
413.443	59.39
413.651	38.91
413.86	112.64
414.068	124.93
414.276	241.66
414.485	16.38
414.693	194.56
414.901	202.75
415.11	104.45
415.318	77.82
415.526	122.88
415.734	145.41
415.943	135.17
416.151	178.17
416.359	36.86
416.567	73.73
416.776	90.11
416.984	106.49
417.192	206.84
417.4	2.05
417.608	34.82
417.817	-8.19
418.025	174.08
418.233	221.18
418.441	49.15
418.649	-18.43
418.857	79.87
419.065	161.79
419.273	6.14
419.481	53.25
419.689	26.62
419.897	-40.96
420.105	-20.48
420.313	71.68
420.521	102.4
420.729	202.75
420.937	16.38
421.145	-18.43
421.353	143.36
421.561	239.61
421.769	149.5
421.977	92.16
422.185	116.73
422.393	86.01
422.601	198.65
422.809	182.27
423.017	116.73
423.224	59.39
423.432	133.12
423.64	55.3
423.848	126.97
424.056	18.43
424.263	118.78
424.471	153.6
424.679	141.31
424.887	-26.62
425.094	120.83
425.302	122.88
425.51	40.96
425.718	100.35
425.925	79.87
426.133	40.96
426.341	227.32
426.548	131.07
426.756	34.82
426.964	147.45
427.171	-45.06
427.379	24.58
427.586	159.74
427.794	137.21
428.001	188.41
428.209	53.25
428.417	215.04
428.624	83.97
428.832	186.37
429.039	77.82
429.247	112.64
429.454	114.69
429.662	258.04
429.869	108.54
430.076	215.04
430.284	215.04
430.491	200.7
430.699	163.84
430.906	204.8
431.114	131.07
431.321	169.98
431.528	157.69
431.736	106.49
431.943	221.18
432.15	155.65
432.358	212.99
432.565	282.62
432.772	137.21
432.979	194.56
433.187	172.03
433.394	280.57
433.601	208.89
433.808	260.09
434.016	399.35
434.223	215.04
434.43	286.72
434.637	358.39
434.844	282.62
435.052	221.18
435.259	296.96
435.466	372.73
435.673	233.47
435.88	393.21
436.087	440.31
436.294	428.03
436.501	321.53
436.708	305.15
436.915	288.76
437.122	446.46
437.329	286.72
437.537	401.4
437.743	425.98
437.95	546.81
438.157	419.83
438.364	481.27
438.571	491.51
438.778	528.38
438.985	509.94
439.192	485.37
439.399	524.28
439.606	538.62
439.813	649.21
440.02	671.73
440.227	720.88
440.433	696.31
440.64	622.58
440.847	661.49
441.054	710.65
441.261	821.24
441.467	765.94
441.674	739.32
441.881	774.13
442.088	714.74
442.294	919.54
442.501	913.39
442.708	954.35
442.914	929.78
443.121	968.69
443.328	1046.51
443.534	1085.42
443.741	940.02
443.948	1058.8
444.154	1257.45
444.361	1294.32
444.568	1187.82
444.774	1169.39
444.981	1181.68
445.187	1388.52
445.394	1337.32
445.6	1308.65
445.807	1495.02
446.013	1406.95
446.22	1402.86
446.426	1617.9
446.633	1683.43
446.839	1892.32
447.046	1644.52
447.252	1974.24
447.459	1837.03
447.665	1857.51
447.871	2023.39
448.078	2281.44
448.284	2166.75
448.491	2379.74
448.697	2328.54
448.903	2475.99
449.11	2500.57
449.316	2461.66
449.522	2844.63
449.728	2793.43
449.935	2813.91
450.141	3037.14
450.347	3303.37
450.553	3071.95
450.76	3297.23
450.966	3231.69
451.172	3395.53
451.378	3590.09
451.584	3811.27
451.791	4032.45
451.997	3923.91
452.203	4124.61
452.409	4296.64
452.615	4620.22
452.821	4337.6
453.027	4466.62
453.233	4935.6
453.44	4739
453.646	5083.06
453.852	5205.94
454.058	5472.17
454.264	5752.74
454.47	6217.63
454.676	6172.58
454.882	6539.16
455.088	6426.53
455.294	6657.95
455.5	7219.09
455.705	7655.31
455.911	7612.3
456.117	7692.17
456.323	7989.13
456.529	7972.74
456.735	8867.7
456.941	9047.93
457.147	9406.32
457.352	9504.62
457.558	9676.65
457.764	10477.41
457.97	10669.92
458.176	11198.29
458.381	11763.53
458.587	11945.8
458.793	12453.7
458.999	12713.79
459.204	14071.59
459.41	14438.18
459.616	14253.86
459.821	14931.74
460.027	15728.4
460.233	16684.8
460.438	16578.31
460.644	17544.95
460.85	17778.42
461.055	18343.66
461.261	19265.24
461.466	18751.2
461.672	19306.2
461.878	21610.17
462.083	21259.96
462.289	21831.35
462.494	22550.18
462.7	22941.35
462.905	23101.09
463.111	24911.49
463.316	26533.48
463.522	26699.37
463.727	27735.64
463.932	29009.48
464.138	29673.02
464.343	31053.35
464.549	30944.81
464.754	33324.55
464.959	34190.84
465.165	34405.88
465.37	34354.68
465.575	34432.5
465.781	36642.26
465.986	37762.5
466.191	37451.2
466.397	37154.25
466.602	36744.66
466.807	38845.87
467.012	39783.84
467.218	40408.47
467.423	40138.14
467.628	41502.09
467.833	43455.85
468.038	42644.85
468.244	42091.9
468.449	43984.22
468.654	42947.95
468.859	42954.1
469.064	43275.63
469.269	42231.16
469.474	42503.54
469.679	43652.45
469.885	42462.58
470.09	43175.28
470.295	42878.32
470.5	42282.36
470.705	42700.15
470.91	41305.48
471.115	41024.91
471.32	41678.21
471.525	41477.51
471.73	40230.3
471.935	40281.5
472.139	38374.84
472.344	38841.78
472.549	38133.18
472.754	37813.69
472.959	36935.12
473.164	35634.66
473.369	35286.5
473.574	36158.94
473.778	35843.55
473.983	35007.98
474.188	34123.26
474.393	32830.99
474.598	32529.94
474.802	32052.76
475.007	31063.59
475.212	31155.75
475.417	29754.94
475.621	29589.05
475.826	29306.43
476.031	28767.82
476.235	28104.28
476.44	28194.39
476.645	27536.99
476.849	26689.13
477.054	26803.81
477.259	25992.82
477.463	26105.46
477.668	25124.48
477.872	25411.2
478.077	24964.74
478.282	23832.21
478.486	23690.9
478.691	23209.63
478.895	23197.34
479.1	22894.24
479.304	23135.9
479.509	22286
479.713	22312.62
479.918	21962.42
480.122	21587.64
480.326	21470.9
480.531	21556.92
480.735	20963.01
480.94	21020.35
481.144	21319.35
481.348	20498.12
481.553	20590.28
481.757	19916.5
481.961	20229.84
482.166	20334.28
482.37	19992.27
482.574	19439.32
482.778	19875.54
482.983	19785.43
483.187	19582.68
483.391	19447.51
483.595	18994.91
483.8	18673.38
484.004	18812.64
484.208	18857.7
484.412	18595.56
484.616	18570.98
484.821	18028.27
485.025	17473.27
485.229	17735.41
485.433	17225.47
485.637	17415.93
485.841	16992
486.045	16662.27
486.249	16561.92
486.453	16197.38
486.657	16369.41
486.861	15894.29
487.065	15437.59
487.269	15513.36
487.473	14896.92
487.677	15021.85
487.881	15073.05
488.085	14423.84
488.289	14440.23
488.493	14124.84
488.697	13895.47
488.901	13496.11
489.105	13363
489.309	13076.28
489.512	13004.6
489.716	12713.79
489.92	12463.94
490.124	12414.79
490.328	12138.31
490.531	11667.28
490.735	11413.33
490.939	11259.73
491.143	11153.24
491.346	10868.57
491.55	11026.26
491.754	10753.88
491.958	10403.68
492.161	10340.19
492.365	10239.84
492.569	10182.5
492.772	9820.01
492.976	9865.07
493.18	9688.94
493.383	9568.11
493.587	9385.84
493.79	9434.99
493.994	9121.65
494.197	9138.04
494.401	8773.5
494.605	8822.65
494.808	8873.85
495.012	8695.68
495.215	8583.04
495.419	8693.63
495.622	8357.76
495.825	8490.88
496.029	8175.49
496.232	8548.22
496.436	8275.84
496.639	8439.68
496.843	8210.31
497.046	8263.55
497.249	8349.57
497.453	8275.84
497.656	8296.32
497.859	8216.45
498.063	8451.97
498.266	8337.28
498.469	8249.22
498.673	8292.23
498.876	8277.89
499.079	8415.1
499.282	8341.38
499.485	8574.85
499.689	8458.11
499.892	8640.38
500.095	8523.65
500.298	8736.63
500.501	8388.48
500.705	8753.02
500.908	8898.42
501.111	8908.66
501.314	9043.83
501.517	9101.17
501.72	9197.43
501.923	9023.35
502.126	9258.87
502.329	9391.98
502.532	9469.81
502.735	9514.86
502.938	9734
503.141	9908.07
503.344	9787.24
503.547	10033
503.75	10057.57
503.953	10264.42
504.156	10526.56
504.359	10397.54
504.562	10540.9
504.765	10719.07
504.968	11028.31
505.17	11085.65
505.373	11398.99
505.576	11509.58
505.779	11685.71
505.982	11732.81
506.185	12060.49
506.387	12115.78
506.59	12392.26
506.793	12693.31
506.996	12621.63
507.198	13135.67
507.401	13166.39
507.604	13686.58
507.807	13846.32
508.009	13977.39
508.212	14343.97
508.415	14579.49
508.617	14702.37
508.82	15021.85
509.022	15515.41
509.225	15687.44
509.428	16070.41
509.63	16320.26
509.833	16398.09
510.035	17344.25
510.238	17362.68
510.44	17678.07
510.643	18102
510.845	18667.24
511.048	18806.5
511.25	19234.52
511.453	19793.62
511.655	20584.13
511.858	20836.03
512.06	21581.49
512.262	21593.78
512.465	22025.9
512.667	22585
512.87	22775.46
513.072	23668.37
513.274	24196.75
513.477	24569.48
513.679	25433.72
513.881	25736.82
514.084	26537.58
514.286	26834.53
514.488	27012.71
514.69	28302.93
514.893	28438.09
515.095	29281.86
515.297	29920.82
515.499	30234.16
515.701	31043.11
515.904	31864.35
516.106	32327.19
516.308	32880.14
516.51	33623.55
516.712	34328.05
516.914	34827.76
517.116	35587.55
517.318	35884.51
517.52	36785.61
517.722	37529.03
517.925	37881.28
518.127	38538.68
518.329	39706.02
518.531	39552.42
518.733	40803.73
518.935	41848.19
519.136	41981.31
519.338	43169.13
519.54	43496.81
519.742	43744.61
519.944	44535.13
520.146	45540.68
520.348	45847.88
520.55	46396.73
520.752	46849.33
520.954	47271.21
521.155	47666.47
521.357	48678.17
521.559	49442.06
521.761	49906.95
521.963	50228.48
522.164	50541.82
522.366	50664.7
522.568	51791.08
522.77	51991.78
522.971	52790.49
523.173	52393.18
523.375	53093.59
523.576	52831.45
523.778	53302.48
523.98	53503.18
524.181	54240.45
524.383	54119.62
524.584	54443.2
524.786	54189.25
524.988	54312.13
525.189	54910.14
525.391	54670.53
525.592	55033.02
525.794	54971.58
525.995	54758.59
526.197	54451.39
526.398	54488.26
526.6	55018.68
526.801	54736.06
527.003	54740.16
527.204	54371.52
527.406	54531.26
527.607	54432.96
527.808	53984.46
528.01	52684
528.211	53259.48
528.412	53544.14
528.614	52557.02
528.815	52870.36
529.016	52989.14
529.218	51254.51
529.419	51397.87
529.62	50998.52
529.822	50283.78
530.023	50160.9
530.224	49796.36
530.425	49239.31
530.626	48117.03
530.828	47940.9
531.029	48436.51
531.23	47047.99
531.431	46640.44
531.632	46855.48
531.833	46075.2
532.035	45745.48
532.236	45061.46
532.437	44602.71
532.638	43617.64
532.839	43353.45
533.04	43232.62
533.241	41883.01
533.442	42411.38
533.643	41328.01
533.844	40949.14
534.045	40381.85
534.246	39597.48
534.447	39361.96
534.648	38426.04
534.849	37959.1
535.05	37193.16
535.251	37180.87
535.451	36400.6
535.652	36478.42
535.853	35626.46
536.054	35476.96
536.255	34833.9
536.456	34108.92
536.657	34184.69
536.857	33181.19
537.058	33162.76
537.259	32630.29
537.46	32140.82
537.66	31667.74
537.861	31436.32
538.062	30688.81
538.263	30348.85
538.463	29910.58
538.664	29546.05
538.865	29326.91
539.065	29292.1
539.266	28264.02
539.466	28739.15
539.667	27979.35
539.868	27694.68
540.068	27340.38
540.269	26742.38
540.469	26840.68
540.67	26136.18
540.87	25990.77
541.071	25921.14
541.271	25368.19
541.472	24985.22
541.672	24598.15
541.873	24391.31
542.073	23940.75
542.274	24067.73
542.474	23441.05
542.675	23299.74
542.875	23486.11
543.075	22853.28
543.276	22316.72
543.476	22374.06
543.676	22013.62
543.877	21743.28
544.077	21929.65
544.277	21731
544.478	21192.38
544.678	21061.31
544.878	20825.79
545.078	20518.6
545.279	20307.66
545.479	19891.92
545.679	19885.78
545.879	19498.71
546.079	19398.36
546.28	19228.38
546.48	18816.74
546.68	18964.19
546.88	18755.3
547.08	18290.41
547.28	18276.07
547.48	17655.54
547.68	17614.58
547.88	17247.99
548.081	17600.24
548.281	16770.82
548.481	16834.3
548.681	16537.35
548.881	16721.66
549.081	16224.01
549.28	15636.24
549.48	15884.05
549.68	15212.31
549.88	15435.54
550.08	14956.32
550.28	14806.81
550.48	14931.74
550.68	14509.86
550.88	14260.01
551.08	13983.53
551.279	13838.12
551.479	13381.43
551.679	13590.32
551.879	13483.83
552.079	13027.13
552.278	13020.99
552.478	12865.34
552.678	12496.71
552.878	12629.82
553.077	12343.11
553.277	11910.99
553.477	11773.77
553.676	11763.53
553.876	11372.37
554.076	11159.38
554.275	11157.33
554.475	10743.64
554.674	10940.25
554.874	10686.3
555.074	10364.77
555.273	10532.7
555.473	10112.87
555.672	10076.01
555.872	9811.82
556.071	9666.41
556.271	9770.86
556.47	9168.76
556.67	9131.89
556.869	9033.59
557.068	9092.98
557.268	8939.38
557.467	8726.39
557.667	8439.68
557.866	8363.9
558.065	8134.53
558.265	7987.08
558.464	7747.47
558.663	7958.41
558.863	7638.92
559.062	7712.65
559.261	7507.85
559.461	7526.29
559.66	7239.57
559.859	7026.58
560.058	6967.19
560.258	6948.76
560.457	6813.59
560.656	6838.17
560.855	6516.64
561.054	6561.69
561.253	6287.26
561.453	6307.74
561.652	6213.54
561.851	6317.98
562.05	5855.14
562.249	5726.12
562.448	5986.21
562.647	5795.75
562.846	5636.01
563.045	5713.83
563.244	5492.65
563.443	5554.09
563.642	5283.76
563.841	5463.98
564.04	5156.79
564.239	5230.51
564.438	4886.45
564.637	4827.06
564.836	4847.54
565.035	4829.11
565.234	4775.86
565.432	4630.46
565.631	4669.37
565.83	4554.68
566.029	4399.04
566.228	4388.8
566.427	4507.58
566.625	4177.86
566.824	4239.3
567.023	4333.5
567.222	4097.99
567.42	4063.17
567.619	4102.08
567.818	3844.04
568.016	4038.59
568.215	3893.19
568.414	3934.15
568.612	3827.65
568.811	3651.53
569.01	3618.76
569.208	3346.38
569.407	3590.09
569.605	3549.13
569.804	3467.21
570.002	3317.71
570.201	3151.82
570.4	3465.16
570.598	3198.93
570.797	3217.36
570.995	3028.95
571.193	2985.94
571.392	3061.71
571.59	2875.35
571.789	3010.51
571.987	2869.2
572.186	2936.79
572.384	2756.57
572.582	2861.01
572.781	2969.55
572.979	2543.58
573.177	2611.16
573.376	2609.11
573.574	2635.74
573.772	2471.9
573.971	2432.99
574.169	2326.49
574.367	2353.12
574.565	2457.56
574.763	2351.07
574.962	2338.78
575.16	2105.31
575.358	2240.48
575.556	2285.53
575.754	2174.94
575.952	2090.98
576.151	2097.12
576.349	2168.8
576.547	1976.29
576.745	2033.63
576.943	1912.8
577.141	1796.07
577.339	1892.32
577.537	1791.97
577.735	1974.24
577.933	1824.74
578.131	1712.1
578.329	1802.21
578.527	1677.29
578.725	1755.11
578.923	1646.57
579.121	1662.95
579.319	1482.73
579.516	1681.38
579.714	1804.26
579.912	1597.42
580.11	1554.41
580.308	1515.5
580.506	1587.18
580.704	1366
580.901	1441.77
581.099	1505.26
581.297	1368.04
581.495	1433.58
581.692	1286.12
581.89	1449.96
582.088	1368.04
582.285	1304.56
582.483	1241.07
582.681	1253.36
582.878	1241.07
583.076	1185.77
583.274	1247.21
583.471	1353.71
583.669	1206.25
583.866	1060.85
584.064	1130.48
584.262	1138.67
584.459	1011.7
584.657	1140.72
584.854	1284.08
585.052	1169.39
585.249	1060.85
585.447	1056.75
585.644	913.39
585.841	1114.09
586.039	1062.9
586.236	1038.32
586.434	909.3
586.631	972.79
586.828	866.29
587.026	911.35
587.223	894.96
587.42	792.56
587.618	946.16
587.815	960.5
588.012	856.05
588.21	843.76
588.407	839.67
588.604	786.42
588.801	761.84
588.999	815.09
589.196	931.83
589.393	843.76
589.59	819.19
589.787	790.52
589.984	851.95
590.182	819.19
590.379	681.97
590.576	786.42
590.773	733.17
590.97	747.51
591.167	753.65
591.364	774.13
591.561	776.18
591.758	878.58
591.955	817.14
592.152	694.26
592.349	659.45
592.546	720.88
592.743	694.26
592.94	659.45
593.137	823.28
593.334	808.95
593.531	755.7
593.727	901.11
593.924	776.18
594.121	778.23
594.318	722.93
594.515	663.54
594.712	845.81
594.908	888.82
595.105	692.21
595.302	741.36
595.499	864.24
595.696	993.26
595.892	776.18
596.089	978.93
596.286	837.62
596.482	919.54
596.679	874.48
596.876	966.64
597.072	993.26
597.269	1069.04
597.466	999.41
597.662	1007.6
597.859	1019.89
598.055	1034.22
598.252	1083.38
598.448	1114.09
598.645	1275.88
598.841	1366
599.038	1429.48
599.234	1337.32
599.431	1345.52
599.627	1345.52
599.824	1509.35
600.02	1554.41
600.217	1519.59
600.413	1712.1
600.609	1599.46
600.806	1951.71
601.002	1757.16
601.198	1839.08
601.395	2007.01
601.591	2025.44
601.787	2011.11
601.984	2187.23
602.18	2308.06
602.376	2326.49
602.572	2375.64
602.769	2506.71
602.965	2549.72
603.161	2715.61
603.357	2721.75
603.553	2992.08
603.75	3024.85
603.946	2994.13
604.142	3088.34
604.338	3186.64
604.534	3276.75
604.73	3465.16
604.926	3524.55
605.122	3803.08
605.318	3569.61
605.514	3887.04
605.71	4026.31
605.906	4372.41
606.102	4128.7
606.298	4331.45
606.494	4446.14
606.69	4652.98
606.886	4749.24
607.082	4808.63
607.278	5046.19
607.474	5113.78
607.67	5457.84
607.866	5283.76
608.062	5513.13
608.257	5719.98
608.453	5773.22
608.649	6137.76
608.845	6141.86
609.041	6244.26
609.236	6424.48
609.432	6862.74
609.628	6946.71
609.824	7042.96
610.019	7307.15
610.215	7397.26
610.411	7640.97
610.606	7939.97
610.802	8091.52
610.998	8306.56
611.193	8478.59
611.389	8822.65
611.584	8857.46
611.78	8980.34
611.976	9281.39
612.171	9848.68
612.367	9965.42
612.562	10119.01
612.758	10264.42
612.953	10530.66
613.149	10919.77
613.344	11183.96
613.539	11525.97
613.735	11818.83
613.93	12115.78
614.126	12236.61
614.321	12828.48
614.517	13139.77
614.712	13401.91
614.907	13707.05
615.103	14133.03
615.298	14427.94
615.493	14964.51
615.688	15081.24
615.884	15845.13
616.079	15722.26
616.274	16566.02
616.47	16731.9
616.665	16971.52
616.86	17389.3
617.055	17968.88
617.25	18050.8
617.445	18882.27
617.641	19052.25
617.836	19994.32
618.031	19963.6
618.226	20868.8
618.421	21259.96
618.616	21855.92
618.811	21923.51
619.006	22599.34
619.201	22855.33
619.396	23742.1
619.591	23721.62
619.786	24772.23
619.981	24888.96
620.176	25968.24
620.371	26070.64
620.566	26773.1
620.761	27500.12
620.956	28139.09
621.151	28448.33
621.346	29060.68
621.541	29040.2
621.735	30064.18
621.93	30199.35
622.125	31016.49
622.32	31409.7
622.515	32241.17
622.709	32794.12
622.904	33445.38
623.099	33601.02
623.294	34813.42
623.488	34885.1
623.683	35950.04
623.878	35917.28
624.072	36722.13
624.267	37121.48
624.462	37764.54
624.656	38401.46
624.851	38995.37
625.046	39749.03
625.24	40281.5
625.435	40617.36
625.629	41278.86
625.824	41389.45
626.018	42296.7
626.213	42374.52
626.407	42827.12
626.602	43220.33
626.796	43906.4
626.991	44655.96
627.185	44825.94
627.38	44877.14
627.574	45329.74
627.768	45045.07
627.963	45643.08
628.157	45839.68
628.352	46245.18
628.546	45485.39
628.74	46298.43
628.935	45989.19
629.129	46251.33
629.323	45538.63
629.517	45583.69
629.712	45229.39
629.906	45071.7
630.1	44612.95
630.294	44459.35
630.489	43875.68
630.683	43505
630.877	42380.67
631.071	41870.72
631.265	41555.33
631.459	40897.94
631.653	39804.32
631.848	39269.8
632.042	37832.13
632.236	37383.62
632.43	35821.02
632.624	35395.04
632.818	34096.63
633.012	33078.79
633.206	32185.88
633.4	31209
633.594	29691.45
633.788	29181.51
633.982	28143.19
634.176	27489.88
634.369	26216.05
634.563	25321.09
634.757	24473.23
634.951	23563.93
635.145	22695.59
635.339	22038.19
635.533	20821.7
635.726	20190.92
635.92	19052.25
636.114	18409.19
636.308	17516.28
636.501	16983.8
636.695	16291.59
636.889	15466.26
637.083	15038.23
637.276	14520.1
637.47	13862.7
637.664	13117.24
637.857	12904.25
638.051	12334.92
638.244	11743.05
638.438	11335.51
638.632	10966.87
638.825	10223.46
639.019	9922.41
639.212	9308.02
639.406	9129.84
639.599	8773.5
639.793	8388.48
639.986	8040.33
640.18	7907.21
640.373	7722.89
640.567	7319.44
640.76	7112.6
640.954	6659.99
641.147	6354.85
641.34	6168.48
641.534	6000.55
641.727	5871.53
641.92	5490.6
642.114	5351.34
642.307	5103.54
642.5	5003.19
642.694	4777.91
642.887	4491.2
643.08	4472.76
643.273	4267.97
643.467	3997.63
643.66	3876.8
643.853	3862.47
644.046	3733.45
644.239	3426.25
644.432	3297.23
644.626	3084.24
644.819	3065.81
645.012	3053.52
645.205	2951.12
645.398	2834.39
645.591	2668.5
645.784	2533.34
645.977	2316.25
646.17	2330.59
646.363	2334.68
646.556	2258.91
646.749	1996.77
646.942	2117.6
647.135	2121.7
647.328	1765.35
647.521	1845.22
647.714	1806.31
647.907	1802.21
648.099	1621.99
648.292	1556.46
648.485	1460.2
648.678	1370.09
648.871	1515.5
649.064	1363.95
649.256	1208.3
649.449	1146.86
649.642	1157.1
649.835	1183.73
650.027	1136.62
650.22	1206.25
650.413	1007.6
650.605	1077.23
650.798	933.87
650.991	1032.18
651.183	980.98
651.376	907.25
651.568	866.29
651.761	854
651.954	862.19
652.146	841.72
652.339	806.9
652.531	745.46
652.724	628.73
652.916	731.12
653.109	542.71
653.301	794.61
653.494	751.6
653.686	696.31
653.879	681.97
654.071	561.14
654.263	464.89
654.456	505.85
654.648	585.72
654.84	604.15
655.033	348.15
655.225	595.96
655.417	354.3
655.61	630.77
655.802	548.86
655.994	665.59
656.186	356.35
656.379	516.09
656.571	323.58
656.763	382.97
656.955	335.87
657.148	378.87
657.34	403.45
657.532	344.06
657.724	323.58
657.916	499.7
658.108	401.4
658.3	425.98
658.492	356.35
658.684	294.91
658.876	405.5
659.068	245.76
659.26	198.65
659.452	319.48
659.644	223.23
659.836	387.07
660.028	331.77
660.22	198.65
660.412	245.76
660.604	303.1
660.796	280.57
660.988	321.53
661.18	266.24
661.372	296.96
661.563	292.86
661.755	206.84
661.947	65.53
662.139	206.84
662.331	346.11
662.522	253.95
662.714	157.69
662.906	210.94
663.097	225.28
663.289	206.84
663.481	49.15
663.673	225.28
663.864	190.46
664.056	296.96
664.247	104.45
664.439	243.71
664.631	165.89
664.822	251.9
665.014	206.84
665.205	184.32
665.397	153.6
665.588	210.94
665.78	192.51
665.971	225.28
666.163	108.54
666.354	319.48
666.546	149.5
666.737	210.94
666.929	94.21
667.12	135.17
667.311	137.21
667.503	153.6
667.694	186.37
667.885	188.41
668.077	237.56
668.268	165.89
668.459	184.32
668.651	122.88
668.842	206.84
669.033	110.59
669.224	83.97
669.416	393.21
669.607	145.41
669.798	120.83
669.989	309.24
670.18	90.11
670.371	219.13
670.563	75.77
670.754	237.56
670.945	188.41
671.136	294.91
671.327	135.17
671.518	253.95
671.709	256
671.9	163.84
672.091	239.61
672.282	206.84
672.473	133.12
672.664	73.73
672.855	163.84
673.046	198.65
673.237	239.61
673.428	159.74
673.619	227.32
673.809	102.4
674	223.23
674.191	190.46
674.382	79.87
674.573	184.32
674.764	249.85
674.954	317.44
675.145	100.35
675.336	51.2
675.527	229.37
675.717	67.58
675.908	178.17
676.099	151.55
676.289	215.04
676.48	67.58
676.671	182.27
676.861	157.69
677.052	202.75
677.243	92.16
677.433	151.55
677.624	153.6
677.814	200.7
678.005	192.51
678.195	360.44
678.386	88.06
678.576	215.04
678.767	49.15
678.957	200.7
679.148	278.52
679.338	268.28
679.529	235.52
679.719	153.6
679.909	274.43
680.1	210.94
680.29	208.89
680.481	106.49
680.671	262.14
680.861	210.94
681.052	256
681.242	167.93
681.432	237.56
681.622	221.18
681.813	159.74
682.003	227.32
682.193	247.8
682.383	215.04
682.573	247.8
682.764	143.36
682.954	202.75
683.144	217.08
683.334	219.13
683.524	200.7
683.714	270.33
683.904	321.53
684.094	256
684.284	231.42
684.474	329.72
684.664	202.75
684.854	235.52
685.044	184.32
685.234	231.42
685.424	272.38
685.614	165.89
685.804	327.67
685.994	225.28
686.184	219.13
686.374	284.67
686.564	241.66
686.753	307.2
686.943	153.6
687.133	145.41
687.323	215.04
687.513	182.27
687.702	243.71
687.892	196.6
688.082	309.24
688.272	217.08
688.461	280.57
688.651	366.59
688.841	272.38
689.03	182.27
689.22	225.28
689.41	274.43
689.599	258.04
689.789	192.51
689.979	305.15
690.168	212.99
690.358	212.99
690.547	225.28
690.737	190.46
690.926	292.86
691.116	264.19
691.305	315.39
691.495	262.14
691.684	137.21
691.874	202.75
692.063	251.9
692.252	256
692.442	262.14
692.631	200.7
692.82	200.7
693.01	286.72
693.199	180.22
693.388	243.71
693.578	229.37
693.767	237.56
693.956	266.24
694.146	133.12
694.335	284.67
694.524	174.08
694.713	243.71
694.902	210.94
695.092	272.38
695.281	196.6
695.47	122.88
695.659	235.52
695.848	182.27
696.037	184.32
696.226	176.13
696.415	167.93
696.604	299
696.793	245.76
696.982	145.41
697.171	339.96
697.36	112.64
697.549	229.37
697.738	49.15
697.927	161.79
698.116	167.93
698.305	260.09
698.494	190.46
698.683	196.6
698.872	301.05
699.061	215.04
699.25	184.32
699.438	155.65
699.627	169.98
699.816	313.34
700.005	120.83
700.193	122.88
700.382	264.19
700.571	280.57
700.76	215.04
700.948	217.08
701.137	172.03
701.326	256
701.514	100.35
701.703	174.08
701.892	204.8
702.08	399.35
702.269	153.6
702.457	108.54
702.646	268.28
702.834	155.65
703.023	350.2
703.212	243.71
703.4	65.53
703.589	249.85
703.777	112.64
703.965	190.46
704.154	169.98
704.342	163.84
704.531	174.08
704.719	208.89
704.907	253.95
705.096	174.08
705.284	96.25
705.472	165.89
705.661	258.04
705.849	264.19
706.037	233.47
706.226	202.75
706.414	221.18
706.602	120.83
706.79	192.51
706.979	149.5
707.167	190.46
707.355	73.73
707.543	147.45
707.731	260.09
707.919	215.04
708.107	227.32
708.296	55.3
708.484	131.07
708.672	270.33
708.86	172.03
709.048	245.76
709.236	106.49
709.424	206.84
709.612	186.37
709.8	65.53
709.988	206.84
710.176	247.8
710.364	270.33
710.551	131.07
710.739	247.8
710.927	143.36
711.115	147.45
711.303	280.57
711.491	292.86
711.679	176.13
711.866	266.24
712.054	217.08
712.242	196.6
712.43	184.32
712.617	190.46
712.805	245.76
712.993	178.17
713.181	122.88
713.368	299
713.556	202.75
713.744	161.79
713.931	417.79
714.119	245.76
714.306	165.89
714.494	210.94
714.682	247.8
714.869	26.62
715.057	284.67
715.244	90.11
715.432	190.46
715.619	135.17
715.807	188.41
715.994	161.79
716.182	260.09
716.369	243.71
716.556	319.48
716.744	124.93
716.931	167.93
717.119	237.56
717.306	149.5
717.493	235.52
717.681	184.32
717.868	272.38
718.055	272.38
718.242	243.71
718.43	196.6
718.617	290.81
718.804	233.47
718.991	276.48
719.179	247.8
719.366	215.04
719.553	208.89
719.74	212.99
719.927	141.31
720.114	278.52
720.301	172.03
720.488	202.75
720.676	186.37
720.863	276.48
721.05	344.06
721.237	215.04
721.424	235.52
721.611	133.12
721.798	155.65
721.985	161.79
722.172	184.32
722.358	133.12
722.545	262.14
722.732	229.37
722.919	235.52
723.106	243.71
723.293	143.36
723.48	245.76
723.667	186.37
723.853	307.2
724.04	249.85
724.227	147.45
724.414	299
724.6	247.8
724.787	294.91
724.974	385.02
725.161	208.89
725.347	167.93
725.534	288.76
725.72	176.13
725.907	266.24
726.094	276.48
726.28	178.17
726.467	143.36
726.653	153.6
726.84	294.91
727.027	323.58
727.213	118.78
727.4	323.58
727.586	268.28
727.773	237.56
727.959	208.89
728.145	235.52
728.332	194.56
728.518	147.45
728.705	260.09
728.891	274.43
729.077	155.65
729.264	212.99
729.45	235.52
729.636	194.56
729.823	206.84
730.009	270.33
730.195	280.57
730.382	210.94
730.568	141.31
730.754	245.76
730.94	182.27
731.126	143.36
731.313	333.82
731.499	256
731.685	278.52
731.871	212.99
732.057	286.72
732.243	315.39
732.429	204.8
732.615	319.48
732.801	264.19
732.987	286.72
733.173	284.67
733.359	153.6
733.545	294.91
733.731	301.05
733.917	350.2
734.103	299
734.289	303.1
734.475	174.08
734.661	376.83
734.847	217.08
735.033	182.27
735.219	260.09
735.404	286.72
735.59	225.28
735.776	202.75
735.962	249.85
736.148	282.62
736.333	335.87
736.519	202.75
736.705	266.24
736.89	262.14
737.076	292.86
737.262	157.69
737.447	135.17
737.633	223.23
737.819	380.92
738.004	286.72
738.19	266.24
738.375	249.85
738.561	288.76
738.747	227.32
738.932	149.5
739.118	378.87
739.303	342.01
739.489	282.62
739.674	307.2
739.859	161.79
740.045	294.91
740.23	303.1
740.416	145.41
740.601	331.77
740.786	270.33
740.972	190.46
741.157	241.66
741.342	180.22
741.528	204.8
741.713	333.82
741.898	190.46
742.084	262.14
742.269	184.32
742.454	315.39
742.639	344.06
742.824	227.32
743.01	286.72
743.195	415.74
743.38	247.8
743.565	221.18
743.75	221.18
743.935	339.96
744.12	309.24
744.305	184.32
744.49	196.6
744.675	155.65
744.86	212.99
745.045	221.18
745.23	219.13
745.415	262.14
745.6	344.06
745.785	182.27
745.97	331.77
746.155	190.46
746.34	325.63
746.525	229.37
746.71	301.05
746.895	237.56
747.079	174.08
747.264	143.36
747.449	274.43
747.634	315.39
747.819	307.2
748.003	198.65
748.188	155.65
748.373	243.71
748.557	235.52
748.742	258.04
748.927	196.6
749.111	210.94
749.296	204.8
749.481	202.75
749.665	174.08
749.85	253.95
750.034	190.46
750.219	186.37
750.404	106.49
750.588	215.04
750.773	118.78
750.957	147.45
751.141	118.78
751.326	180.22
751.51	100.35
751.695	165.89
751.879	141.31
752.064	319.48
752.248	108.54
752.432	290.81
752.617	292.86
752.801	233.47
752.985	196.6
753.17	280.57
753.354	258.04
753.538	161.79
753.722	178.17
753.907	155.65
754.091	55.3
754.275	215.04
754.459	116.73
754.643	133.12
754.828	223.23
755.012	145.41
755.196	110.59
755.38	143.36
755.564	149.5
755.748	200.7
755.932	245.76
756.116	190.46
756.3	155.65
756.484	186.37
756.668	194.56
756.852	71.68
757.036	114.69
757.22	227.32
757.404	145.41
757.588	116.73
757.772	233.47
757.956	180.22
758.14	313.34
758.323	116.73
758.507	208.89
758.691	116.73
758.875	188.41
759.059	212.99
759.242	77.82
759.426	157.69
759.61	114.69
759.794	102.4
759.977	256
760.161	360.44
760.345	249.85
760.528	247.8
760.712	151.55
760.895	159.74
761.079	86.01
761.263	108.54
761.446	30.72
761.63	129.02
761.813	233.47
761.997	81.92
762.18	159.74
762.364	182.27
762.547	-4.1
762.731	94.21
762.914	51.2
763.098	96.25
763.281	88.06
763.464	63.49
763.648	135.17
763.831	124.93
764.015	69.63
764.198	176.13
764.381	6.14
764.564	104.45
764.748	96.25
764.931	141.31
765.114	118.78
765.297	155.65
765.481	14.34
765.664	122.88
765.847	100.35
766.03	163.84
766.213	73.73
766.397	182.27
766.58	75.77
766.763	73.73
766.946	100.35
767.129	77.82
767.312	149.5
767.495	90.11
767.678	30.72
767.861	147.45
768.044	59.39
768.227	77.82
768.41	49.15
768.593	172.03
768.776	141.31
768.959	90.11
769.142	186.37
769.324	90.11
769.507	149.5
769.69	-4.1
769.873	69.63
770.056	235.52
770.239	79.87
770.421	143.36
770.604	169.98
770.787	112.64
770.97	165.89
771.152	32.77
771.335	129.02
771.518	28.67
771.7	206.84
771.883	202.75
772.066	10.24
772.248	110.59
772.431	163.84
772.613	163.84
772.796	88.06
772.978	163.84
773.161	331.77
773.343	53.25
773.526	57.34
773.708	-8.19
773.891	32.77
774.073	73.73
774.256	65.53
774.438	157.69
774.621	122.88
774.803	100.35
774.985	-14.34
775.168	202.75
775.35	43.01
775.532	106.49
775.715	67.58
775.897	133.12
776.079	57.34
776.261	51.2
776.444	112.64
776.626	131.07
776.808	161.79
776.99	30.72
777.173	169.98
777.355	75.77
777.537	81.92
777.719	12.29
777.901	2.05
778.083	81.92
778.265	10.24
778.447	120.83
778.629	63.49
778.811	69.63
778.993	116.73
779.175	145.41
779.357	88.06
779.539	40.96
779.721	75.77
779.903	108.54
780.085	24.58
780.267	16.38
780.449	-10.24
780.631	159.74
780.812	208.89
780.994	12.29
781.176	43.01
781.358	88.06
781.54	86.01
781.721	83.97
781.903	122.88
782.085	36.86
782.267	167.93
782.448	-22.53
782.63	67.58
782.812	32.77
782.993	53.25
783.175	98.3
783.357	10.24
783.538	124.93
783.72	-49.15
783.901	26.62
784.083	118.78
784.264	172.03
784.446	-32.77
784.627	4.1
784.809	61.44
784.99	34.82
785.172	194.56
785.353	34.82
785.535	69.63
785.716	86.01
785.897	28.67
786.079	47.1
786.26	49.15
786.441	75.77
786.623	12.29
786.804	-12.29
786.985	32.77
787.167	4.1
787.348	77.82
787.529	-8.19
787.71	212.99
787.891	90.11
788.073	-24.58
788.254	-14.34
788.435	219.13
788.616	73.73
788.797	47.1
788.978	40.96
789.159	116.73
789.34	63.49
789.522	43.01
789.703	24.58
789.884	90.11
790.065	159.74
790.246	153.6
790.427	116.73
790.607	96.25
790.788	98.3
790.969	-16.38
791.15	122.88
791.331	24.58
791.512	-14.34
791.693	-38.91
791.874	14.34
792.054	174.08
792.235	133.12
792.416	2.05
792.597	-34.82
792.778	49.15
792.958	-0
793.139	90.11
793.32	61.44
793.5	-20.48
793.681	208.89
793.862	69.63
794.042	-0
794.223	-6.14
794.404	-8.19
794.584	-90.11
794.765	67.58
794.945	18.43
795.126	79.87
795.306	96.25
795.487	45.06
795.667	49.15
795.848	30.72
796.028	69.63
796.209	16.38
796.389	124.93
796.57	96.25
796.75	69.63
796.93	-4.1
797.111	12.29
797.291	43.01
797.471	83.97
797.652	2.05
797.832	-6.14
798.012	90.11
798.192	-55.3
798.373	-69.63
798.553	81.92
798.733	151.55
798.913	-28.67
799.093	4.1
799.274	34.82
799.454	90.11
799.634	100.35
799.814	139.26
799.994	81.92
800.174	90.11
800.354	106.49
800.534	-34.82
800.714	49.15
800.894	-57.34
801.074	-40.96
801.254	-22.53
801.434	155.65
801.614	-49.15
801.794	28.67
801.974	1810.4
802.154	-47.1
802.334	112.64
802.514	10.24
802.693	53.25
802.873	36.86
803.053	137.21
803.233	88.06
803.413	28.67
803.592	32.77
803.772	63.49
803.952	67.58
804.131	-79.87
804.311	77.82
804.491	112.64
804.67	16.38
804.85	90.11
805.03	86.01
805.209	67.58
805.389	92.16
805.568	-24.58
805.748	10.24
805.928	57.34
806.107	96.25
806.287	79.87
806.466	36.86
806.646	-12.29
806.825	-20.48
807.004	4.1
807.184	114.69
807.363	43.01
807.543	81.92
807.722	-26.62
807.901	172.03
808.081	53.25
808.26	-124.93
808.439	40.96
808.619	18.43
808.798	-51.2
808.977	-24.58
809.156	4.1
809.336	30.72
809.515	12.29
809.694	-90.11
809.873	-57.34
810.052	59.39
810.231	122.88
810.411	43.01
810.59	116.73
810.769	47.1
810.948	40.96
811.127	-51.2
811.306	-49.15
811.485	2.05
811.664	161.79
811.843	55.3
812.022	2.05
812.201	-43.01
812.38	-8.19
812.559	-55.3
812.737	77.82
812.916	-65.54
813.095	-59.39
813.274	67.58
813.453	65.53
813.632	57.34
813.811	110.59
813.989	-49.15
814.168	-57.34
814.347	18.43
814.526	20.48
814.704	143.36
814.883	120.83
815.062	-32.77
815.24	28.67
815.419	-6.14
815.598	22.53
815.776	-18.43
815.955	-16.38
816.133	-83.97
816.312	67.58
816.49	-8.19
816.669	-10.24
816.847	43.01
817.026	28.67
817.204	-67.58
817.383	-30.72
817.561	-45.06
817.74	28.67
817.918	75.77
818.097	-40.96
818.275	-79.87
818.453	71.68
818.632	102.4
818.81	24.58
818.988	-4.1
819.167	-94.21
819.345	51.2
819.523	2.05
819.701	2.05
819.879	83.97
820.058	77.82
820.236	47.1
820.414	10.24
820.592	20.48
820.77	-61.44
820.948	-2.05
821.127	14.34
821.305	79.87
821.483	-18.43
821.661	167.93
821.839	18.43
822.017	6.14
822.195	-47.1
822.373	100.35
822.551	59.39
822.729	40.96
822.907	20.48
823.085	88.06
823.262	30.72
823.44	-55.3
823.618	63.49
823.796	59.39
823.974	32.77
824.152	22.53
824.329	4.1
824.507	43.01
824.685	59.39
824.863	90.11
825.04	38.91
825.218	22.53
825.396	-14.34
825.574	51.2
825.751	2.05
825.929	40.96
826.107	-10.24
826.284	-10.24
826.462	4.1
826.639	-57.34
826.817	-53.25
826.994	49.15
827.172	-26.62
827.349	110.59
827.527	18.43
827.704	20.48
827.882	96.25
828.059	28.67
828.237	-6.14
828.414	40.96
828.591	-61.44
828.769	-24.58
828.946	-43.01
829.124	77.82
829.301	28.67
829.478	28.67
829.655	65.53
829.833	8.19
830.01	-131.07
830.187	14.34
830.364	-30.72
830.542	-22.53
830.719	124.93
830.896	67.58
831.073	49.15
831.25	10.24
831.427	14.34
831.604	-28.67
831.782	22.53
831.959	36.86
832.136	61.44
832.313	28.67
832.49	-53.25
832.667	47.1
832.844	-22.53
833.021	75.77
833.198	86.01
833.374	-49.15
833.551	40.96
833.728	-8.19
833.905	36.86
834.082	-90.11
834.259	65.53
834.436	59.39
834.612	-53.25
834.789	88.06
834.966	86.01
835.143	49.15
835.319	-16.38
835.496	86.01
835.673	96.25
835.85	34.82
836.026	83.97
836.203	57.34
836.38	-6.14
836.556	14.34
836.733	-20.48
836.909	184.32
837.086	-24.58
837.262	-45.06
837.439	40.96
837.616	-59.39
837.792	28.67
837.968	83.97
838.145	-94.21
838.321	67.58
838.498	86.01
838.674	6.14
838.851	133.12
839.027	2.05
839.203	45.06
839.38	8.19
839.556	-10.24
839.732	90.11
839.909	40.96
840.085	81.92
840.261	-49.15
840.437	4.1
840.614	-126.97
840.79	96.25
840.966	12.29
841.142	38.91
841.318	-28.67
841.494	49.15
841.671	24.58
841.847	-49.15
842.023	-16.38
842.199	22.53
842.375	165.89
842.551	-38.91
842.727	-14.34
842.903	90.11
843.079	-102.4
843.255	120.83
843.431	-4.1
843.607	-16.38
843.783	-83.97
843.959	47.1
844.134	14.34
844.31	129.02
844.486	-4.1
844.662	-14.34
844.838	-40.96
845.013	8.19
845.189	65.53
845.365	57.34
845.541	-2.05
845.716	73.73
845.892	116.73
846.068	-16.38
846.244	-122.88
846.419	-49.15
846.595	-20.48
846.77	-14.34
846.946	79.87
847.122	-4.1
847.297	65.53
847.473	145.41
847.648	-131.07
847.824	34.82
847.999	-104.45
848.175	-10.24
848.35	90.11
848.526	129.02
848.701	20.48
848.876	6.14
849.052	94.21
849.227	-45.06
849.403	20.48
849.578	26.62
849.753	45.06
849.929	8.19
850.104	-59.39
850.279	-40.96
850.454	-12.29
850.63	28.67
850.805	-16.38
850.98	-8.19
851.155	-26.62
851.33	24.58
851.505	-94.21
851.681	145.41
851.856	-34.82
852.031	49.15
852.206	-22.53
852.381	-92.16
852.556	12.29
852.731	12.29
852.906	131.07
853.081	73.73
853.256	61.44
853.431	-67.58
853.606	-86.01
853.781	-79.87
853.956	-79.87
854.131	53.25
854.305	-98.3
854.48	-69.63
854.655	-12.29
854.83	-86.01
855.005	49.15
855.18	92.16
855.354	36.86
855.529	63.49
855.704	18.43
855.879	88.06
856.053	10.24
856.228	51.2
856.403	-16.38
856.577	100.35
856.752	-92.16
856.926	-14.34
857.101	151.55
857.276	-16.38
857.45	-2.05
857.625	67.58
857.799	69.63
857.974	32.77
858.148	-47.1
858.323	2.05
858.497	14.34
858.672	-75.77
858.846	47.1
859.02	77.82
859.195	4.1
859.369	-8.19
859.543	61.44
859.718	28.67
859.892	20.48
860.066	-45.06
860.241	-63.49
860.415	-6.14
860.589	-10.24
860.763	16.38
860.938	-49.15
861.112	100.35
861.286	20.48
861.46	40.96
861.634	24.58
861.808	65.53
861.982	-10.24
862.157	-126.97
862.331	32.77
862.505	-98.3
862.679	-102.4
862.853	-47.1
863.027	-24.58
863.201	145.41
863.375	-32.77
863.549	40.96
863.722	28.67
863.896	40.96
864.07	6.14
864.244	-16.38
864.418	77.82
864.592	6.14
864.766	-20.48
864.939	38.91
865.113	-59.39
865.287	118.78
865.461	-4.1
865.634	40.96
865.808	92.16
865.982	-86.01
866.156	-28.67
866.329	-90.11
866.503	-8.19
866.676	45.06
866.85	53.25
867.024	-14.34
867.197	24.58
867.371	8.19
867.544	14.34
867.718	-102.4
867.891	47.1
868.065	-94.21
868.238	49.15
868.412	61.44
868.585	-10.24
868.759	6.14
868.932	45.06
869.105	-61.44
869.279	-14.34
869.452	-86.01
869.625	-20.48
869.799	-6.14
869.972	-26.62
870.145	-65.54
870.319	110.59
870.492	-73.73
870.665	20.48
870.838	-22.53
871.011	-104.45
871.185	-30.72
871.358	22.53
871.531	90.11
871.704	-14.34
871.877	51.2
872.05	-10.24
872.223	-14.34
872.396	67.58
872.569	55.3
872.742	-106.49
872.915	59.39
873.088	-14.34
873.261	-92.16
873.434	83.97
873.607	14.34
873.78	73.73
873.953	-14.34
874.126	-18.43
874.299	30.72
874.471	-4.1
874.644	6.14
874.817	86.01
874.99	141.31
875.163	-34.82
875.335	100.35
875.508	-53.25
875.681	133.12
875.853	-14.34
876.026	51.2
876.199	32.77
876.371	12.29
876.544	-36.86
876.717	57.34
876.889	28.67
877.062	30.72
877.234	-14.34
877.407	-55.3
877.579	-32.77
877.752	69.63
877.924	81.92
878.097	53.25
878.269	8.19
878.442	43.01
878.614	59.39
878.786	14.34
878.959	47.1
879.131	2.05
879.303	-120.83
879.476	22.53
879.648	81.92
879.82	63.49
879.993	-20.48
880.165	20.48
880.337	-102.4
880.509	-22.53
880.681	-59.39
880.854	-73.73
881.026	73.73
881.198	165.89
881.37	43.01
881.542	-55.3
881.714	-2.05
881.886	-34.82
882.058	40.96
882.23	43.01
882.402	-8.19
882.574	-14.34
882.746	94.21
882.918	63.49
883.09	-18.43
883.262	-2.05
883.434	10.24
883.606	-94.21
883.778	6.14
883.95	75.77
884.122	-36.86
884.293	57.34
884.465	133.12
884.637	26.62
884.809	-81.92
884.98	43.01
885.152	28.67
885.324	96.25
885.496	-98.3
885.667	14.34
885.839	-28.67
886.011	165.89
886.182	96.25
886.354	20.48
886.525	75.77
886.697	36.86
886.869	-77.82
887.04	-14.34
887.212	104.45
887.383	131.07
887.555	6.14
887.726	4.1
887.897	57.34
888.069	57.34
888.24	12.29
888.412	-79.87
888.583	-43.01
888.754	-34.82
888.926	-143.36
889.097	-16.38
889.268	-118.78
889.44	-28.67
889.611	-69.63
889.782	-53.25
889.953	-20.48
890.125	122.88
890.296	-67.58
890.467	-20.48
890.638	-2.05
890.809	45.06
890.98	-71.68
891.151	20.48
891.323	155.65
891.494	-22.53
891.665	34.82
891.836	22.53
892.007	-26.62
892.178	40.96
892.349	-22.53
892.52	-36.86
892.691	16.38
892.862	22.53
893.032	-45.06
893.203	-47.1
893.374	-4.1
893.545	100.35
893.716	-28.67
893.887	104.45
894.057	-34.82
894.228	-47.1
894.399	-0
894.57	73.73
894.74	34.82
894.911	110.59
895.082	-12.29
895.253	-36.86
895.423	53.25
895.594	81.92
895.764	14.34
895.935	-77.82
896.106	106.49
896.276	-55.3
896.447	24.58
896.617	-53.25
896.788	-20.48
896.958	73.73
897.129	-16.38
897.299	-26.62
897.47	149.5
897.64	30.72
897.81	55.3
897.981	-12.29
898.151	-26.62
898.322	116.73
898.492	77.82
898.662	-43.01
898.832	-2.05
899.003	-28.67
899.173	69.63
899.343	-26.62
899.513	20.48
