Data from USB4F104151__212__11-05-49-714.txt Node

Date: Wed Feb 26 11:05:49 EST 2025
User: louis
Spectrometer: USB4F10415
Trigger mode: 4
Integration Time (sec): 1.000000E-1
Scans to average: 1
Electric dark correction enabled: true
Nonlinearity correction enabled: false
Boxcar width: 0
XAxis mode: Wavelengths
Number of Pixels in Spectrum: 3648
>>>>>Begin Spectral Data<<<<<
178.204	-388.94
178.424	-388.94
178.644	-388.94
178.864	-462.67
179.084	-417.61
179.304	8.36
179.524	-46.93
179.744	53.42
179.964	-1.88
180.184	10.41
180.404	65.71
180.624	-34.64
180.844	6.31
181.064	-71.51
181.283	20.65
181.503	-42.84
181.723	32.94
181.943	-118.61
182.163	190.63
182.383	-51.03
182.602	-5.97
182.822	204.97
183.042	34.99
183.262	-55.12
183.482	-53.08
183.701	34.99
183.921	6.31
184.141	-79.7
184.361	63.66
184.58	90.28
184.8	32.94
185.02	-38.74
185.239	96.43
185.459	-32.6
185.679	131.24
185.898	-87.89
186.118	-26.45
186.338	20.65
186.557	-12.12
186.777	-69.46
186.997	34.99
187.216	43.18
187.436	125.1
187.655	34.99
187.875	0.17
188.095	-1.88
188.314	129.19
188.534	61.61
188.753	-75.6
188.973	41.13
189.192	63.66
189.412	14.51
189.631	-32.6
189.851	41.13
190.07	188.58
190.29	-75.6
190.509	-57.17
190.729	-28.5
190.948	82.09
191.168	247.97
191.387	71.85
191.607	-77.65
191.826	-44.88
192.045	12.46
192.265	-83.8
192.484	55.47
192.704	0.17
192.923	-81.75
193.142	104.62
193.362	-3.93
193.581	90.28
193.8	53.42
194.02	90.28
194.239	98.47
194.458	102.57
194.678	-1.88
194.897	22.7
195.116	63.66
195.335	6.31
195.555	24.75
195.774	-20.31
195.993	57.51
196.212	32.94
196.432	-75.6
196.651	49.32
196.87	51.37
197.089	145.58
197.308	49.32
197.528	34.99
197.747	-30.55
197.966	28.84
198.185	168.1
198.404	-87.89
198.623	112.81
198.842	16.55
199.062	37.03
199.281	65.71
199.5	-85.84
199.719	118.95
199.938	110.76
200.157	88.23
200.376	-22.36
200.595	63.66
200.814	63.66
201.033	-20.31
201.252	225.45
201.471	-20.31
201.69	55.47
201.909	-89.94
202.128	133.29
202.347	-77.65
202.566	94.38
202.785	-65.36
203.004	-34.64
203.223	288.93
203.442	30.89
203.661	-36.69
203.879	39.08
204.098	84.14
204.317	-48.98
204.536	37.03
204.755	102.57
204.974	77.99
205.193	-24.4
205.411	116.9
205.63	153.77
205.849	49.32
206.068	24.75
206.287	-77.65
206.505	143.53
206.724	34.99
206.943	-108.37
207.162	-16.21
207.381	112.81
207.599	-5.97
207.818	-22.36
208.037	2.22
208.255	-34.64
208.474	34.99
208.693	98.47
208.911	-32.6
209.13	118.95
209.349	22.7
209.567	0.17
209.786	80.04
210.005	96.43
210.223	26.79
210.442	-130.9
210.661	-26.45
210.879	41.13
211.098	-69.46
211.316	53.42
211.535	82.09
211.753	32.94
211.972	37.03
212.191	-18.26
212.409	-59.22
212.628	77.99
212.846	-10.07
213.065	24.75
213.283	84.14
213.502	-63.32
213.72	-1.88
213.938	18.6
214.157	16.55
214.375	104.62
214.594	0.17
214.812	12.46
215.031	-42.84
215.249	-57.17
215.467	61.61
215.686	24.75
215.904	22.7
216.122	37.03
216.341	88.23
216.559	22.7
216.778	45.23
216.996	141.48
217.214	-53.08
217.432	-5.97
217.651	-110.42
217.869	61.61
218.087	-8.02
218.306	32.94
218.524	6.31
218.742	-61.27
218.96	69.8
219.179	24.75
219.397	-46.93
219.615	143.53
219.833	112.81
220.051	-71.51
220.27	22.7
220.488	53.42
220.706	55.47
220.924	-63.32
221.142	-26.45
221.36	-16.21
221.578	75.95
221.796	2.22
222.015	37.03
222.233	0.17
222.451	96.43
222.669	12.46
222.887	104.62
223.105	-8.02
223.323	-69.46
223.541	-89.94
223.759	0.17
223.977	-46.93
224.195	200.87
224.413	73.9
224.631	47.27
224.849	98.47
225.067	207.02
225.285	-135
225.503	-53.08
225.721	-98.13
225.939	-85.84
226.157	30.89
226.375	194.73
226.592	24.75
226.81	-28.5
227.028	84.14
227.246	86.19
227.464	102.57
227.682	71.85
227.9	-20.31
228.117	82.09
228.335	57.51
228.553	-32.6
228.771	-12.12
228.989	57.51
229.206	39.08
229.424	10.41
229.642	30.89
229.86	-65.36
230.077	22.7
230.295	-32.6
230.513	32.94
230.731	0.17
230.948	215.21
231.166	100.52
231.384	14.51
231.601	-32.6
231.819	157.86
232.037	-32.6
232.254	-171.86
232.472	-1.88
232.689	20.65
232.907	77.99
233.125	-42.84
233.342	12.46
233.56	6.31
233.777	4.27
233.995	-77.65
234.213	47.27
234.43	135.34
234.648	-20.31
234.865	-5.97
235.083	65.71
235.3	24.75
235.518	51.37
235.735	82.09
235.953	37.03
236.17	28.84
236.388	2.22
236.605	4.27
236.822	61.61
237.04	37.03
237.257	-63.32
237.475	-96.08
237.692	47.27
237.909	108.71
238.127	-24.4
238.344	86.19
238.562	47.27
238.779	-57.17
238.996	-28.5
239.214	82.09
239.431	55.47
239.648	-53.08
239.865	57.51
240.083	16.55
240.3	-34.64
240.517	-26.45
240.735	-8.02
240.952	80.04
241.169	22.7
241.386	30.89
241.603	61.61
241.821	-18.26
242.038	-20.31
242.255	102.57
242.472	-18.26
242.689	82.09
242.907	16.55
243.124	-5.97
243.341	18.6
243.558	-61.27
243.775	-16.21
243.992	-46.93
244.209	108.71
244.426	172.2
244.643	127.14
244.86	71.85
245.078	49.32
245.295	80.04
245.512	2.22
245.729	-102.23
245.946	149.67
246.163	84.14
246.38	41.13
246.597	69.8
246.814	-26.45
247.031	43.18
247.248	24.75
247.464	116.9
247.681	45.23
247.898	106.67
248.115	67.75
248.332	-28.5
248.549	209.06
248.766	153.77
248.983	77.99
249.2	77.99
249.417	28.84
249.633	-34.64
249.85	94.38
250.067	0.17
250.284	90.28
250.501	110.76
250.717	96.43
250.934	-69.46
251.151	-14.17
251.368	26.79
251.585	37.03
251.801	18.6
252.018	-79.7
252.235	49.32
252.451	-132.95
252.668	41.13
252.885	30.89
253.102	12.46
253.318	-53.08
253.535	-91.99
253.752	-38.74
253.968	-59.22
254.185	-104.28
254.401	20.65
254.618	-3.93
254.835	2.22
255.051	61.61
255.268	84.14
255.484	47.27
255.701	6.31
255.917	63.66
256.134	-46.93
256.351	61.61
256.567	-10.07
256.784	43.18
257	-145.24
257.217	123.05
257.433	32.94
257.65	26.79
257.866	102.57
258.082	-32.6
258.299	-14.17
258.515	12.46
258.732	-48.98
258.948	-69.46
259.165	-1.88
259.381	-24.4
259.597	100.52
259.814	6.31
260.03	-32.6
260.246	-5.97
260.463	59.56
260.679	100.52
260.895	-55.12
261.112	-42.84
261.328	0.17
261.544	-65.36
261.761	131.24
261.977	-22.36
262.193	-42.84
262.409	45.23
262.626	73.9
262.842	20.65
263.058	-61.27
263.274	8.36
263.49	-1.88
263.707	145.58
263.923	90.28
264.139	-106.32
264.355	43.18
264.571	55.47
264.787	73.9
265.004	34.99
265.22	18.6
265.436	-51.03
265.652	55.47
265.868	67.75
266.084	-3.93
266.3	39.08
266.516	-126.8
266.732	14.51
266.948	2.22
267.164	-10.07
267.38	63.66
267.596	22.7
267.812	182.44
268.028	-53.08
268.244	4.27
268.46	-30.55
268.676	22.7
268.892	59.56
269.108	-36.69
269.324	-24.4
269.54	-3.93
269.756	2.22
269.972	-98.13
270.188	47.27
270.403	-73.56
270.619	53.42
270.835	80.04
271.051	37.03
271.267	-20.31
271.483	-40.79
271.698	80.04
271.914	100.52
272.13	28.84
272.346	30.89
272.562	71.85
272.777	125.1
272.993	12.46
273.209	-14.17
273.425	16.55
273.64	-36.69
273.856	61.61
274.072	-63.32
274.287	-51.03
274.503	14.51
274.719	67.75
274.934	-61.27
275.15	4.27
275.366	43.18
275.581	-118.61
275.797	-48.98
276.012	18.6
276.228	32.94
276.444	-5.97
276.659	110.76
276.875	-32.6
277.09	-55.12
277.306	-28.5
277.521	-1.88
277.737	-1.88
277.952	53.42
278.168	14.51
278.383	-34.64
278.599	-57.17
278.814	82.09
279.03	-22.36
279.245	59.56
279.461	-22.36
279.676	55.47
279.892	-69.46
280.107	-48.98
280.322	-3.93
280.538	28.84
280.753	-71.51
280.969	-3.93
281.184	39.08
281.399	114.86
281.615	-34.64
281.83	30.89
282.045	-118.61
282.26	-53.08
282.476	45.23
282.691	26.79
282.906	-14.17
283.122	86.19
283.337	41.13
283.552	10.41
283.767	-53.08
283.983	41.13
284.198	-8.02
284.413	41.13
284.628	-67.41
284.843	30.89
285.058	168.1
285.274	24.75
285.489	-5.97
285.704	43.18
285.919	-67.41
286.134	30.89
286.349	22.7
286.564	4.27
286.779	149.67
286.995	2.22
287.21	-46.93
287.425	45.23
287.64	6.31
287.855	55.47
288.07	-100.18
288.285	39.08
288.5	32.94
288.715	-16.21
288.93	4.27
289.145	-48.98
289.36	133.29
289.575	20.65
289.79	104.62
290.004	-42.84
290.219	24.75
290.434	-3.93
290.649	-5.97
290.864	8.36
291.079	-16.21
291.294	28.84
291.509	-5.97
291.724	43.18
291.938	-12.12
292.153	51.37
292.368	-5.97
292.583	28.84
292.798	34.99
293.012	30.89
293.227	80.04
293.442	63.66
293.657	55.47
293.871	41.13
294.086	92.33
294.301	84.14
294.516	96.43
294.73	10.41
294.945	32.94
295.16	-34.64
295.374	106.67
295.589	26.79
295.804	10.41
296.018	39.08
296.233	145.58
296.447	-48.98
296.662	-26.45
296.877	90.28
297.091	86.19
297.306	-28.5
297.52	-18.26
297.735	18.6
297.949	106.67
298.164	22.7
298.378	51.37
298.593	10.41
298.807	-38.74
299.022	55.47
299.236	172.2
299.451	-44.88
299.665	45.23
299.88	37.03
300.094	0.17
300.309	22.7
300.523	-1.88
300.737	14.51
300.952	82.09
301.166	57.51
301.381	-26.45
301.595	-51.03
301.809	-42.84
302.024	-30.55
302.238	-32.6
302.452	141.48
302.667	-10.07
302.881	202.92
303.095	55.47
303.309	-51.03
303.524	2.22
303.738	-26.45
303.952	-83.8
304.166	8.36
304.381	-71.51
304.595	96.43
304.809	2.22
305.023	20.65
305.237	-5.97
305.452	-16.21
305.666	-1.88
305.88	127.14
306.094	69.8
306.308	80.04
306.522	77.99
306.736	49.32
306.95	75.95
307.164	80.04
307.379	26.79
307.593	133.29
307.807	123.05
308.021	22.7
308.235	86.19
308.449	-157.52
308.663	-1.88
308.877	137.38
309.091	45.23
309.305	59.56
309.519	-59.22
309.733	92.33
309.947	-94.04
310.161	18.6
310.374	116.9
310.588	135.34
310.802	-22.36
311.016	8.36
311.23	55.47
311.444	-75.6
311.658	10.41
311.872	121
312.085	41.13
312.299	125.1
312.513	69.8
312.727	73.9
312.941	-32.6
313.154	-1.88
313.368	84.14
313.582	14.51
313.796	32.94
314.009	8.36
314.223	102.57
314.437	39.08
314.651	86.19
314.864	-38.74
315.078	-42.84
315.292	-12.12
315.505	43.18
315.719	22.7
315.933	55.47
316.146	-32.6
316.36	-40.79
316.573	147.62
316.787	28.84
317.001	73.9
317.214	-18.26
317.428	86.19
317.641	-69.46
317.855	28.84
318.068	-36.69
318.282	75.95
318.495	143.53
318.709	108.71
318.922	20.65
319.136	139.43
319.349	127.14
319.563	-65.36
319.776	32.94
319.99	-34.64
320.203	37.03
320.417	51.37
320.63	98.47
320.843	106.67
321.057	80.04
321.27	45.23
321.483	96.43
321.697	137.38
321.91	-10.07
322.124	16.55
322.337	-34.64
322.55	-36.69
322.763	96.43
322.977	133.29
323.19	-55.12
323.403	-38.74
323.617	116.9
323.83	67.75
324.043	-30.55
324.256	32.94
324.469	-26.45
324.683	114.86
324.896	4.27
325.109	-1.88
325.322	-91.99
325.535	39.08
325.748	77.99
325.962	-73.56
326.175	12.46
326.388	-12.12
326.601	94.38
326.814	-81.75
327.027	30.89
327.24	82.09
327.453	-55.12
327.666	30.89
327.879	28.84
328.092	135.34
328.305	30.89
328.518	10.41
328.731	-48.98
328.944	2.22
329.157	41.13
329.37	-94.04
329.583	116.9
329.796	161.96
330.009	-75.6
330.222	-69.46
330.435	67.75
330.648	43.18
330.861	37.03
331.073	61.61
331.286	73.9
331.499	24.75
331.712	-77.65
331.925	-22.36
332.138	28.84
332.35	123.05
332.563	-30.55
332.776	59.56
332.989	-104.28
333.202	-18.26
333.414	59.56
333.627	10.41
333.84	69.8
334.053	59.56
334.265	26.79
334.478	-28.5
334.691	-20.31
334.903	39.08
335.116	98.47
335.329	-48.98
335.541	49.32
335.754	73.9
335.966	-16.21
336.179	30.89
336.392	8.36
336.604	-32.6
336.817	37.03
337.029	80.04
337.242	65.71
337.454	22.7
337.667	41.13
337.88	153.77
338.092	112.81
338.305	16.55
338.517	16.55
338.729	94.38
338.942	80.04
339.154	-61.27
339.367	-104.28
339.579	34.99
339.792	-40.79
340.004	16.55
340.217	-12.12
340.429	-73.56
340.641	-40.79
340.854	-28.5
341.066	-1.88
341.278	96.43
341.491	143.53
341.703	-46.93
341.915	-61.27
342.128	6.31
342.34	6.31
342.552	16.55
342.764	88.23
342.977	-46.93
343.189	-67.41
343.401	131.24
343.613	-65.36
343.826	92.33
344.038	-106.32
344.25	77.99
344.462	26.79
344.674	84.14
344.886	10.41
345.099	2.22
345.311	2.22
345.523	-63.32
345.735	-139.09
345.947	22.7
346.159	37.03
346.371	-18.26
346.583	-30.55
346.795	125.1
347.007	-24.4
347.219	104.62
347.431	-73.56
347.643	153.77
347.855	-24.4
348.067	102.57
348.279	-71.51
348.491	102.57
348.703	88.23
348.915	30.89
349.127	-10.07
349.339	53.42
349.551	-71.51
349.763	71.85
349.975	63.66
350.187	59.56
350.399	116.9
350.61	110.76
350.822	41.13
351.034	-1.88
351.246	57.51
351.458	12.46
351.669	55.47
351.881	73.9
352.093	6.31
352.305	67.75
352.517	129.19
352.728	112.81
352.94	53.42
353.152	-12.12
353.363	-108.37
353.575	-3.93
353.787	145.58
353.999	24.75
354.21	164.01
354.422	-26.45
354.633	2.22
354.845	6.31
355.057	-5.97
355.268	47.27
355.48	73.9
355.692	-130.9
355.903	18.6
356.115	-38.74
356.326	-118.61
356.538	88.23
356.749	100.52
356.961	94.38
357.172	43.18
357.384	-48.98
357.595	157.86
357.807	-24.4
358.018	-32.6
358.23	-46.93
358.441	133.29
358.653	-3.93
358.864	-20.31
359.075	0.17
359.287	32.94
359.498	112.81
359.709	71.85
359.921	39.08
360.132	41.13
360.344	12.46
360.555	-8.02
360.766	20.65
360.977	-65.36
361.189	61.61
361.4	0.17
361.611	77.99
361.823	51.37
362.034	-3.93
362.245	-96.08
362.456	-57.17
362.667	112.81
362.879	-81.75
363.09	116.9
363.301	116.9
363.512	-48.98
363.723	-28.5
363.935	-1.88
364.146	69.8
364.357	6.31
364.568	55.47
364.779	-98.13
364.99	28.84
365.201	-32.6
365.412	69.8
365.623	-48.98
365.834	174.25
366.045	-16.21
366.256	118.95
366.467	51.37
366.678	4.27
366.889	59.56
367.1	-1.88
367.311	186.54
367.522	0.17
367.733	43.18
367.944	86.19
368.155	55.47
368.366	55.47
368.577	112.81
368.788	34.99
368.999	12.46
369.209	45.23
369.42	194.73
369.631	188.58
369.842	12.46
370.053	51.37
370.264	61.61
370.474	-20.31
370.685	41.13
370.896	22.7
371.107	96.43
371.317	55.47
371.528	-22.36
371.739	153.77
371.95	41.13
372.16	-40.79
372.371	-61.27
372.582	12.46
372.792	106.67
373.003	-16.21
373.214	16.55
373.424	102.57
373.635	-63.32
373.846	112.81
374.056	37.03
374.267	-26.45
374.477	14.51
374.688	-24.4
374.898	18.6
375.109	49.32
375.319	14.51
375.53	118.95
375.74	86.19
375.951	-18.26
376.161	43.18
376.372	45.23
376.582	-14.17
376.793	28.84
377.003	18.6
377.214	-30.55
377.424	-12.12
377.635	86.19
377.845	8.36
378.055	77.99
378.266	-89.94
378.476	-36.69
378.686	39.08
378.897	90.28
379.107	92.33
379.317	71.85
379.528	8.36
379.738	100.52
379.948	-59.22
380.158	114.86
380.369	59.56
380.579	43.18
380.789	8.36
380.999	10.41
381.21	129.19
381.42	161.96
381.63	-5.97
381.84	32.94
382.05	24.75
382.261	106.67
382.471	4.27
382.681	-1.88
382.891	106.67
383.101	-30.55
383.311	-98.13
383.521	37.03
383.731	43.18
383.941	121
384.151	6.31
384.361	22.7
384.571	65.71
384.781	47.27
384.991	186.54
385.201	88.23
385.411	47.27
385.621	125.1
385.831	6.31
386.041	47.27
386.251	90.28
386.461	131.24
386.671	16.55
386.881	28.84
387.091	73.9
387.301	49.32
387.511	53.42
387.72	123.05
387.93	96.43
388.14	-104.28
388.35	55.47
388.56	34.99
388.769	151.72
388.979	39.08
389.189	-137.04
389.399	47.27
389.609	61.61
389.818	77.99
390.028	47.27
390.238	-20.31
390.447	-77.65
390.657	39.08
390.867	10.41
391.076	-128.85
391.286	37.03
391.496	-10.07
391.705	121
391.915	104.62
392.125	67.75
392.334	-61.27
392.544	108.71
392.753	-59.22
392.963	-28.5
393.172	-20.31
393.382	30.89
393.591	196.78
393.801	-24.4
394.01	118.95
394.22	71.85
394.429	67.75
394.639	-59.22
394.848	-32.6
395.058	-40.79
395.267	26.79
395.477	41.13
395.686	129.19
395.895	170.15
396.105	204.97
396.314	114.86
396.524	39.08
396.733	-67.41
396.942	53.42
397.152	100.52
397.361	121
397.57	51.37
397.78	10.41
397.989	49.32
398.198	170.15
398.407	26.79
398.617	-18.26
398.826	10.41
399.035	20.65
399.244	121
399.453	0.17
399.663	116.9
399.872	16.55
400.081	-69.46
400.29	168.1
400.499	47.27
400.708	69.8
400.917	53.42
401.127	-12.12
401.336	-26.45
401.545	131.24
401.754	145.58
401.963	55.47
402.172	20.65
402.381	32.94
402.59	-8.02
402.799	16.55
403.008	123.05
403.217	34.99
403.426	90.28
403.635	-145.24
403.844	18.6
404.053	69.8
404.262	12.46
404.471	139.43
404.68	0.17
404.888	-61.27
405.097	32.94
405.306	121
405.515	90.28
405.724	26.79
405.933	161.96
406.142	20.65
406.35	143.53
406.559	-30.55
406.768	32.94
406.977	65.71
407.185	55.47
407.394	57.51
407.603	-40.79
407.812	-3.93
408.02	53.42
408.229	-46.93
408.438	32.94
408.646	-69.46
408.855	45.23
409.064	104.62
409.272	-22.36
409.481	69.8
409.69	-12.12
409.898	-69.46
410.107	63.66
410.315	88.23
410.524	-61.27
410.733	8.36
410.941	39.08
411.15	131.24
411.358	32.94
411.567	121
411.775	84.14
411.984	41.13
412.192	84.14
412.401	-26.45
412.609	65.71
412.818	153.77
413.026	43.18
413.234	-28.5
413.443	94.38
413.651	-28.5
413.86	49.32
414.068	90.28
414.276	151.72
414.485	-10.07
414.693	127.14
414.901	153.77
415.11	57.51
415.318	12.46
415.526	32.94
415.734	82.09
415.943	75.95
416.151	131.24
416.359	-18.26
416.567	61.61
416.776	59.56
416.984	170.15
417.192	155.82
417.4	37.03
417.608	-22.36
417.817	-20.31
418.025	61.61
418.233	118.95
418.441	-22.36
418.649	-65.36
418.857	45.23
419.065	94.38
419.273	-63.32
419.481	-28.5
419.689	-8.02
419.897	2.22
420.105	-10.07
420.313	88.23
420.521	75.95
420.729	129.19
420.937	131.24
421.145	-26.45
421.353	96.43
421.561	86.19
421.769	84.14
421.977	37.03
422.185	112.81
422.393	71.85
422.601	30.89
422.809	98.47
423.017	4.27
423.224	69.8
423.432	59.56
423.64	61.61
423.848	137.38
424.056	45.23
424.263	139.43
424.471	73.9
424.679	174.25
424.887	-22.36
425.094	172.2
425.302	94.38
425.51	-10.07
425.718	80.04
425.925	75.95
426.133	-51.03
426.341	192.68
426.548	108.71
426.756	22.7
426.964	77.99
427.171	-28.5
427.379	108.71
427.586	77.99
427.794	55.47
428.001	59.56
428.209	98.47
428.417	227.5
428.624	94.38
428.832	61.61
429.039	121
429.247	77.99
429.454	112.81
429.662	239.78
429.869	63.66
430.076	125.1
430.284	139.43
430.491	198.82
430.699	98.47
430.906	135.34
431.114	121
431.321	194.73
431.528	75.95
431.736	151.72
431.943	118.95
432.15	77.99
432.358	196.78
432.565	268.45
432.772	18.6
432.979	186.54
433.187	184.49
433.394	254.12
433.601	121
433.808	233.64
434.016	311.46
434.223	88.23
434.43	272.55
434.637	317.61
434.844	278.69
435.052	266.41
435.259	272.55
435.466	311.46
435.673	231.59
435.88	350.37
436.087	333.99
436.294	379.04
436.501	333.99
436.708	262.31
436.915	278.69
437.122	364.71
437.329	243.88
437.537	297.13
437.743	344.23
437.95	426.15
438.157	405.67
438.364	467.11
438.571	415.91
438.778	442.53
438.985	528.55
439.192	485.54
439.399	432.29
439.606	528.55
439.813	587.94
440.02	592.03
440.227	739.49
440.433	559.27
440.64	530.59
440.847	452.77
441.054	626.85
441.261	694.43
441.467	653.47
441.674	553.12
441.881	854.17
442.088	655.52
442.294	805.02
442.501	831.65
442.708	927.9
442.914	850.08
443.121	917.66
443.328	985.24
443.534	993.44
443.741	964.76
443.948	878.75
444.154	1032.35
444.361	1306.77
444.568	1112.22
444.774	1116.31
444.981	1097.88
445.187	1317.01
445.394	1362.07
445.6	1239.19
445.807	1622.16
446.013	1478.8
446.22	1474.71
446.426	1577.11
446.633	1605.78
446.839	1835.15
447.046	1597.59
447.252	1775.76
447.459	1853.58
447.665	1742.99
447.871	2023.56
448.078	2128.01
448.284	2062.48
448.491	2177.16
448.697	2345.09
448.903	2488.45
449.11	2406.53
449.316	2447.49
449.522	2644.1
449.728	2783.36
449.935	2914.43
450.141	2916.48
450.347	3113.08
450.553	3215.48
450.76	3240.06
450.966	3303.54
451.172	3489.91
451.378	3555.44
451.584	3520.63
451.791	3897.46
451.997	3962.99
452.203	4008.05
452.409	4280.43
452.615	4491.37
452.821	4399.21
453.027	4423.78
453.233	5023.84
453.44	4792.42
453.646	5044.32
453.852	5202.01
454.058	5533.78
454.264	5621.84
454.47	6043.73
454.676	5961.81
454.882	6580.29
455.088	6428.74
455.294	6709.32
455.5	6953.02
455.705	7401.53
455.911	7573.56
456.117	7809.08
456.323	8052.78
456.529	7934
456.735	8544.3
456.941	8968.23
457.147	9119.78
457.352	9635.86
457.558	9951.25
457.764	10414.09
457.97	10715.14
458.176	10973.19
458.381	11675.64
458.587	11649.02
458.793	12427.25
458.999	12333.04
459.204	13993.94
459.41	14245.84
459.616	14188.5
459.821	15089.6
460.027	15638.46
460.233	16234.42
460.438	16359.35
460.644	17440.67
460.85	17532.83
461.055	18309.01
461.261	19300.23
461.466	18687.89
461.672	19203.97
461.878	21180.26
462.083	21079.91
462.289	21565.28
462.494	22323.03
462.7	22370.13
462.905	22816.59
463.111	24772.4
463.316	25818.91
463.522	26468.12
463.727	27289.35
463.932	28245.76
464.138	29177.58
464.343	30220
464.549	30514.91
464.754	32747.19
464.959	33756.84
465.165	34092.71
465.37	33959.59
465.575	33885.86
465.781	36552.32
465.986	37129.84
466.191	36714.11
466.397	37095.03
466.602	36105.86
466.807	38233.7
467.012	38659.68
467.218	39306.83
467.423	39595.6
467.628	40877.63
467.833	42837.53
468.038	42184.23
468.244	41451.06
468.449	43355.67
468.654	42651.17
468.859	42540.58
469.064	42429.99
469.269	41360.95
469.474	41670.19
469.679	42706.46
469.885	41922.09
470.09	42376.74
470.295	42323.49
470.5	41537.07
470.705	41664.05
470.91	40441.41
471.115	40480.32
471.32	41492.02
471.525	40734.27
471.73	39997
471.935	39292.5
472.139	38028.9
472.344	37936.74
472.549	37668.46
472.754	36914.81
472.959	36146.82
473.164	34815.64
473.369	34168.48
473.574	35735.18
473.778	34631.32
473.983	33957.54
474.188	33664.68
474.393	31772.36
474.598	31698.63
474.802	31092.43
475.007	30424.79
475.212	30496.47
475.417	28759.8
475.621	28937.97
475.826	28581.62
476.031	27850.5
476.235	27533.06
476.44	27506.44
476.645	26562.33
476.849	26339.1
477.054	26095.39
477.259	25126.7
477.463	25313.06
477.668	24497.97
477.872	24614.71
478.077	23981.88
478.282	23056.2
478.486	23093.07
478.691	22630.23
478.895	22366.04
479.1	22159.19
479.304	22222.68
479.509	21520.23
479.713	21698.4
479.918	21383.01
480.122	20879.21
480.326	20979.56
480.531	20887.4
480.735	20512.63
480.94	20289.4
481.144	20889.45
481.348	19838.84
481.553	20184.95
481.757	19441.54
481.961	19658.62
482.166	19943.29
482.37	19421.06
482.574	19083.14
482.778	19113.86
482.983	19212.17
483.187	18737.04
483.391	18577.3
483.595	18411.41
483.8	18171.8
484.004	18229.14
484.208	18153.37
484.412	17874.84
484.616	17803.16
484.821	17547.17
485.025	17004.46
485.229	17223.59
485.433	16867.24
485.637	16512.94
485.841	16330.67
486.045	16324.53
486.249	16275.38
486.453	15544.25
486.657	15568.83
486.861	15280.07
487.065	14569.42
487.269	15003.59
487.473	14018.52
487.677	14620.62
487.881	14321.62
488.085	14002.13
488.289	13901.78
488.493	13420.51
488.697	13334.5
488.901	13193.19
489.105	12572.65
489.309	12693.48
489.512	12554.22
489.716	12249.07
489.92	11886.58
490.124	11622.39
490.328	11792.37
490.531	11276.29
490.735	11313.15
490.939	10811.4
491.143	10780.68
491.346	10686.47
491.55	10328.08
491.754	10188.82
491.958	9963.54
492.161	9846.8
492.365	9633.82
492.569	9560.09
492.772	9277.47
492.976	9439.26
493.18	9121.82
493.383	9195.55
493.587	9039.9
493.79	8898.59
493.994	8482.86
494.197	8546.34
494.401	8663.08
494.605	8173.61
494.808	8456.23
495.012	8366.12
495.215	8312.88
495.419	8458.28
495.622	7948.34
495.825	7847.99
496.029	7768.12
496.232	8187.95
496.436	7809.08
496.639	8056.88
496.843	7827.51
497.046	7999.54
497.249	7880.75
497.453	8009.78
497.656	7815.22
497.859	7815.22
498.063	7858.23
498.266	7954.48
498.469	7804.98
498.673	7893.04
498.876	7985.2
499.079	7989.3
499.282	7942.19
499.485	8202.29
499.689	8099.89
499.892	7972.91
500.095	8052.78
500.298	8296.49
500.501	8093.74
500.705	8378.41
500.908	8196.14
501.111	8259.63
501.314	8536.1
501.517	8673.32
501.72	8611.88
501.923	8652.84
502.126	8894.5
502.329	9127.97
502.532	9084.96
502.735	9168.93
502.938	9248.8
503.141	9226.27
503.344	9386.01
503.547	9689.11
503.75	9633.82
503.953	9703.45
504.156	9848.85
504.359	9756.69
504.562	9957.39
504.765	10203.15
504.968	10502.15
505.17	10721.29
505.373	10657.8
505.576	11065.35
505.779	11229.18
505.982	11034.63
506.185	11350.01
506.387	11606.01
506.59	11603.96
506.793	11878.39
506.996	12015.6
507.198	12664.81
507.401	12627.95
507.604	12802.02
507.807	13072.36
508.009	13455.33
508.212	13549.53
508.415	14114.77
508.617	14098.39
508.82	14262.23
509.022	14251.99
509.225	15103.94
509.428	15222.72
509.63	15517.63
509.833	15761.34
510.035	16220.08
510.238	16611.25
510.44	16983.98
510.643	17317.79
510.845	17844.12
511.048	18034.58
511.25	18253.72
511.453	18849.68
511.655	19595.14
511.858	19863.42
512.06	20373.36
512.262	20758.38
512.465	20909.93
512.667	21552.99
512.87	21837.66
513.072	22519.64
513.274	23230.28
513.477	23441.22
513.679	23924.54
513.881	24545.08
514.084	25136.94
514.286	25175.85
514.488	26267.42
514.69	27182.86
514.893	27174.67
515.095	27578.12
515.297	28544.76
515.499	28716.79
515.701	29640.42
515.904	30592.73
516.106	30889.68
516.308	31499.98
516.51	32231.1
516.712	32620.22
516.914	33775.27
517.116	34234.02
517.318	34729.62
517.52	35421.84
517.722	35843.72
517.925	36288.13
518.127	37543.53
518.329	38321.76
518.531	38334.05
518.733	39366.23
518.935	39956.04
519.136	40031.82
519.338	41018.94
519.54	41618.99
519.742	42415.65
519.944	42343.97
520.146	43679.25
520.348	44060.17
520.55	44744.19
520.752	45430.26
520.954	45868.53
521.155	46013.93
521.357	46966.24
521.559	47476.18
521.761	48137.68
521.963	48254.41
522.164	48913.86
522.366	48733.64
522.568	49952.18
522.77	50576.81
522.971	50828.71
523.173	50582.95
523.375	51170.72
523.576	51056.03
523.778	51334.56
523.98	52137.36
524.181	52673.93
524.383	52200.85
524.584	52325.77
524.786	52512.14
524.988	52379.02
525.189	53153.15
525.391	53171.58
525.592	53212.54
525.794	53038.47
525.995	53093.76
526.197	52727.17
526.398	53503.35
526.6	53204.35
526.801	52938.11
527.003	52497.8
527.204	52888.96
527.406	52680.07
527.607	52809.09
527.808	52391.31
528.01	51453.34
528.211	51436.95
528.412	51873.17
528.614	51275.16
528.815	51056.03
529.016	51623.32
529.218	50197.93
529.419	49913.27
529.62	49145.28
529.822	48680.39
530.023	48162.25
530.224	48119.24
530.425	47830.48
530.626	46906.85
530.828	46206.44
531.029	46757.35
531.23	45536.76
531.431	44871.17
531.632	44842.49
531.833	44236.3
532.035	44056.07
532.236	43312.66
532.437	43245.08
532.638	42262.05
532.839	41868.84
533.04	41451.06
533.241	40689.21
533.442	40939.07
533.643	39818.83
533.844	39063.13
534.045	38717.02
534.246	38033
534.447	37643.88
534.648	37527.15
534.849	36744.83
535.05	35843.72
535.251	35516.04
535.451	35245.71
535.652	35092.12
535.853	34401.95
536.054	34018.98
536.255	33912.49
536.456	32634.55
536.657	33048.24
536.857	32085.7
537.058	31393.48
537.259	31362.76
537.46	31041.23
537.66	30346.97
537.861	30207.71
538.062	29363.95
538.263	29398.76
538.463	28669.69
538.664	28538.62
538.865	28149.5
539.065	28147.45
539.266	27705.09
539.466	27377.42
539.667	26496.79
539.868	26738.45
540.068	26134.3
540.269	25939.74
540.469	25804.58
540.67	25184.04
540.87	24901.42
541.071	24547.12
541.271	24661.81
541.472	24260.41
541.672	23879.49
541.873	23349.06
542.073	23168.84
542.274	23291.72
542.474	22865.74
542.675	22386.52
542.875	22378.33
543.075	21677.92
543.276	21632.86
543.476	21829.47
543.676	21284.71
543.877	21305.19
544.077	21016.43
544.277	20772.72
544.478	20264.82
544.678	20352.88
544.878	19965.82
545.078	19642.24
545.279	19404.67
545.479	19195.78
545.679	19062.66
545.879	18732.94
546.079	18593.68
546.28	18055.06
546.48	17987.48
546.68	17870.75
546.88	17696.67
547.08	17598.37
547.28	17364.9
547.48	16969.64
547.68	16916.39
547.88	16484.27
548.081	16568.24
548.281	16342.96
548.481	15792.06
548.681	15892.41
548.881	15787.96
549.081	15577.02
549.28	15110.08
549.48	15034.31
549.68	14893
549.88	14716.87
550.08	14303.18
550.28	14231.51
550.48	14143.44
550.68	13832.15
550.88	13414.37
551.08	13653.98
551.279	13389.79
551.479	12873.7
551.679	12861.41
551.879	12586.99
552.079	12660.71
552.278	12226.54
552.478	12386.29
552.678	12060.66
552.878	11892.73
553.077	11730.94
553.277	11397.12
553.477	11321.34
553.676	11100.16
553.876	11071.49
554.076	10631.18
554.275	10682.38
554.475	10395.66
554.674	10369.04
554.874	10194.96
555.074	9689.11
555.273	9764.89
555.473	9707.54
555.672	9463.83
555.872	9302.04
556.071	9240.61
556.271	9220.13
556.47	8847.4
556.67	8667.17
556.869	8445.99
557.068	8376.36
557.268	8046.64
557.467	8110.13
557.667	8020.02
557.866	7893.04
558.065	7766.07
558.265	7563.32
558.464	7483.45
558.663	7411.77
558.863	7235.64
559.062	7219.26
559.261	6959.17
559.461	7159.87
559.66	6768.71
559.859	6627.4
560.058	6510.66
560.258	6576.2
560.457	6375.5
560.656	6553.67
560.855	6174.8
561.054	6068.3
561.253	6158.41
561.453	5894.22
561.652	5912.66
561.851	5861.46
562.05	5730.39
562.249	5408.86
562.448	5468.25
562.647	5382.23
562.846	5156.96
563.045	5214.3
563.244	5109.85
563.443	5189.72
563.642	4946.02
563.841	4882.53
564.04	4677.73
564.239	4802.66
564.438	4702.31
564.637	4507.75
564.836	4534.37
565.035	4354.15
565.234	4491.37
565.432	4434.02
565.631	4196.46
565.83	4276.33
566.029	4163.69
566.228	4153.45
566.427	4167.79
566.625	3997.81
566.824	3868.78
567.023	4003.95
567.222	3659.89
567.42	3893.36
567.619	3715.19
567.818	3790.96
568.016	3729.52
568.215	3481.72
568.414	3590.26
568.612	3405.94
568.811	3502.2
569.01	3352.7
569.208	3149.95
569.407	3299.45
569.605	3211.39
569.804	3074.17
570.002	3012.73
570.201	2967.68
570.4	2965.63
570.598	2961.53
570.797	2762.88
570.995	2750.59
571.193	2867.33
571.392	2771.07
571.59	2678.91
571.789	2728.07
571.987	2799.74
572.186	2685.06
572.384	2498.69
572.582	2572.42
572.781	2574.47
572.979	2394.25
573.177	2357.38
573.376	2306.18
573.574	2465.93
573.772	2363.53
573.971	2267.27
574.169	2275.46
574.367	2226.31
574.565	2146.44
574.763	2138.25
574.962	2082.95
575.16	2058.38
575.358	2042
575.556	2052.24
575.754	2013.32
575.952	1818.77
576.151	1896.59
576.349	1849.49
576.547	1863.82
576.745	1734.8
576.943	1734.8
577.141	1691.79
577.339	1683.6
577.537	1699.98
577.735	1783.95
577.933	1702.03
578.131	1540.24
578.329	1712.27
578.527	1476.76
578.725	1642.64
578.923	1443.99
579.121	1573.01
579.319	1448.08
579.516	1482.9
579.714	1648.79
579.912	1425.56
580.11	1325.21
580.308	1364.12
580.506	1321.11
580.704	1169.56
580.901	1151.13
581.099	1343.64
581.297	1288.34
581.495	1308.82
581.692	1276.06
581.89	1390.74
582.088	1259.67
582.285	1196.18
582.483	1065.11
582.681	1140.89
582.878	1093.79
583.076	1132.7
583.274	1118.36
583.471	1257.62
583.669	1013.92
583.866	1009.82
584.064	1013.92
584.262	923.8
584.459	897.18
584.657	956.57
584.854	1013.92
585.052	958.62
585.249	952.48
585.447	972.96
585.644	723.1
585.841	975
586.039	882.85
586.236	936.09
586.434	784.54
586.631	776.35
586.828	848.03
587.026	833.69
587.223	702.62
587.42	745.63
587.618	800.93
587.815	872.61
588.012	848.03
588.21	643.23
588.407	802.97
588.604	796.83
588.801	700.58
588.999	678.05
589.196	827.55
589.393	759.97
589.59	729.25
589.787	667.81
589.984	714.91
590.182	753.82
590.379	620.71
590.576	635.04
590.773	669.86
590.97	665.76
591.167	766.11
591.364	676
591.561	673.95
591.758	772.25
591.955	645.28
592.152	692.38
592.349	637.09
592.546	667.81
592.743	565.41
592.94	665.76
593.137	630.95
593.334	698.53
593.531	628.9
593.727	600.23
593.924	610.47
594.121	708.77
594.318	635.04
594.515	673.95
594.712	829.6
594.908	819.36
595.105	594.08
595.302	747.68
595.499	751.78
595.696	788.64
595.892	686.24
596.089	770.21
596.286	772.25
596.482	725.15
596.679	759.97
596.876	764.06
597.072	805.02
597.269	946.33
597.466	794.78
597.662	901.28
597.859	874.65
598.055	882.85
598.252	972.96
598.448	1116.31
598.645	1130.65
598.841	1056.92
599.038	1220.76
599.234	1302.68
599.431	1329.3
599.627	1333.4
599.824	1409.17
600.02	1443.99
600.217	1478.8
600.413	1605.78
600.609	1423.51
600.806	1788.05
601.002	1732.75
601.198	1667.22
601.395	1802.38
601.591	1878.16
601.787	1937.55
601.984	2044.04
602.18	1974.41
602.376	2095.24
602.572	2156.68
602.769	2355.33
602.965	2392.2
603.161	2603.14
603.357	2617.47
603.553	2658.43
603.75	2662.53
603.946	2873.47
604.142	3014.78
604.338	2955.39
604.534	3068.03
604.73	3135.61
604.926	3242.11
605.122	3592.31
605.318	3545.2
605.514	3704.95
605.71	3750
605.906	3860.59
606.102	3952.75
606.298	4118.64
606.494	4081.77
606.69	4423.78
606.886	4341.86
607.082	4472.93
607.278	4597.86
607.474	4986.97
607.67	5052.51
607.866	4831.33
608.062	5314.65
608.257	5460.06
608.453	5496.92
608.649	5689.43
608.845	5640.28
609.041	6013.01
609.236	6090.83
609.432	6318.15
609.628	6436.94
609.824	6709.32
610.019	6797.38
610.215	6953.02
610.411	7237.69
610.606	7462.97
610.802	7585.85
610.998	7864.37
611.193	7917.62
611.389	8063.02
611.584	8554.54
611.78	8464.43
611.976	8777.76
612.171	9168.93
612.367	9173.02
612.562	9459.74
612.758	9439.26
612.953	9842.71
613.149	10182.67
613.344	10500.11
613.539	10928.13
613.735	11016.19
613.93	11505.66
614.126	11646.97
614.321	11862.01
614.517	12470.25
614.712	12601.32
614.907	12816.36
615.103	13289.44
615.298	13488.09
615.493	13834.2
615.688	14020.56
615.884	14604.24
616.079	15060.93
616.274	15329.22
616.47	15753.15
616.665	16129.97
616.86	16652.2
617.055	16904.1
617.25	17407.91
617.445	17930.14
617.641	17895.32
617.836	18577.3
618.031	18765.71
618.226	19894.14
618.421	19818.36
618.616	20381.56
618.811	20926.32
619.006	21657.44
619.201	21698.4
619.396	22368.09
619.591	22441.81
619.786	23465.8
619.981	23543.62
620.176	24192.83
620.371	24426.29
620.566	25304.87
620.761	26013.47
620.956	26363.67
621.151	26443.54
621.346	27176.72
621.541	27594.5
621.735	28534.52
621.93	28587.77
622.125	29005.55
622.32	29572.84
622.515	30381.79
622.709	31106.77
622.904	31983.3
623.099	32038.59
623.294	32599.74
623.488	32837.3
623.683	33337.01
623.878	33660.59
624.072	34713.24
624.267	35167.89
624.462	35442.32
624.656	36015.75
624.851	37045.88
625.046	37375.6
625.24	37449.33
625.435	38055.53
625.629	38868.57
625.824	39333.46
626.018	39990.86
626.213	39628.37
626.407	40664.64
626.602	40439.36
626.796	41293.36
626.991	41778.73
627.185	41807.4
627.38	42147.37
627.574	42354.21
627.768	42335.78
627.963	42579.49
628.157	42667.55
628.352	43363.86
628.546	42518.05
628.74	43652.62
628.935	42706.46
629.129	43499.03
629.323	42528.29
629.517	42630.69
629.712	42184.23
629.906	41840.17
630.1	41285.17
630.294	41201.21
630.489	40420.93
630.683	40384.07
630.877	39087.7
631.071	38907.48
631.265	38108.77
631.459	37308.02
631.653	36445.82
631.848	36251.27
632.042	34877.08
632.236	34156.19
632.43	33314.48
632.624	32726.71
632.818	31006.42
633.012	30451.42
633.206	29509.35
633.4	28767.99
633.594	27246.35
633.788	26799.89
633.982	25939.74
634.176	24934.19
634.369	24145.72
634.563	23142.22
634.757	22179.67
634.951	21417.83
635.145	20631.41
635.339	19769.21
635.533	18784.14
635.726	18644.88
635.92	17545.12
636.114	16740.27
636.308	16058.29
636.501	15488.96
636.695	14839.75
636.889	14084.05
637.083	13545.44
637.276	13027.3
637.47	12490.73
637.664	11702.26
637.857	11563
638.051	11274.24
638.244	10721.29
638.438	10059.79
638.632	9977.87
638.825	9256.99
639.019	9044
639.212	8618.02
639.406	8249.39
639.599	8017.97
639.793	7751.73
639.986	7354.43
640.18	7065.66
640.373	6725.7
640.567	6350.92
640.76	6334.54
640.954	6133.84
641.147	5886.03
641.34	5623.89
641.534	5314.65
641.727	5181.53
641.92	4964.45
642.114	5021.79
642.307	4569.19
642.5	4440.17
642.694	4239.47
642.887	4157.55
643.08	4087.92
643.273	3928.17
643.467	3653.75
643.66	3459.19
643.853	3348.6
644.046	3246.2
644.239	3139.71
644.432	3027.07
644.626	2832.51
644.819	2707.59
645.012	2621.57
645.205	2549.89
645.398	2443.4
645.591	2338.95
645.784	2310.28
645.977	2156.68
646.17	2146.44
646.363	2054.28
646.556	1863.82
646.749	1822.86
646.942	1853.58
647.135	1769.62
647.328	1597.59
647.521	1659.03
647.714	1448.08
647.907	1519.76
648.099	1435.8
648.292	1487
648.485	1288.34
648.678	1327.25
648.871	1200.28
649.064	1206.42
649.256	1083.55
649.449	999.58
649.642	950.43
649.835	1015.96
650.027	960.67
650.22	1038.49
650.413	872.61
650.605	895.13
650.798	796.83
650.991	805.02
651.183	774.3
651.376	733.34
651.568	747.68
651.761	733.34
651.954	700.58
652.146	669.86
652.339	594.08
652.531	719.01
652.724	530.59
652.916	657.57
653.109	436.39
653.301	655.52
653.494	534.69
653.686	530.59
653.879	682.14
654.071	589.99
654.263	422.05
654.456	327.85
654.648	522.4
654.84	454.82
655.033	321.7
655.225	530.59
655.417	309.41
655.61	491.68
655.802	440.48
655.994	426.15
656.186	331.94
656.379	381.09
656.571	303.27
656.763	362.66
656.955	254.12
657.148	293.03
657.34	426.15
657.532	336.04
657.724	204.97
657.916	356.52
658.108	372.9
658.3	372.9
658.492	331.94
658.684	161.96
658.876	266.41
659.068	231.59
659.26	133.29
659.452	235.69
659.644	213.16
659.836	317.61
660.028	180.39
660.22	161.96
660.412	256.17
660.604	186.54
660.796	237.74
660.988	297.13
661.18	186.54
661.372	239.78
661.563	145.58
661.755	284.84
661.947	131.24
662.139	149.67
662.331	161.96
662.522	264.36
662.714	159.91
662.906	86.19
663.097	137.38
663.289	73.9
663.481	39.08
663.673	182.44
663.864	114.86
664.056	172.2
664.247	147.62
664.439	157.86
664.631	166.06
664.822	188.58
665.014	145.58
665.205	75.95
665.397	170.15
665.588	143.53
665.78	125.1
665.971	108.71
666.163	172.2
666.354	207.02
666.546	16.55
666.737	166.06
666.929	55.47
667.12	139.43
667.311	198.82
667.503	100.52
667.694	75.95
667.885	149.67
668.077	159.91
668.268	51.37
668.459	123.05
668.651	100.52
668.842	73.9
669.033	22.7
669.224	16.55
669.416	303.27
669.607	106.67
669.798	16.55
669.989	139.43
670.18	77.99
670.371	192.68
670.563	59.56
670.754	188.58
670.945	133.29
671.136	192.68
671.327	6.31
671.518	215.21
671.709	245.93
671.9	129.19
672.091	194.73
672.282	90.28
672.473	180.39
672.664	69.8
672.855	180.39
673.046	186.54
673.237	278.69
673.428	108.71
673.619	176.3
673.809	147.62
674	176.3
674.191	213.16
674.382	112.81
674.573	135.34
674.764	61.61
674.954	247.97
675.145	57.51
675.336	69.8
675.527	65.71
675.717	106.67
675.908	90.28
676.099	200.87
676.289	180.39
676.48	96.43
676.671	125.1
676.861	192.68
677.052	92.33
677.243	153.77
677.433	164.01
677.624	168.1
677.814	260.26
678.005	121
678.195	305.32
678.386	137.38
678.576	145.58
678.767	88.23
678.957	135.34
679.148	219.3
679.338	288.93
679.529	241.83
679.719	80.04
679.909	231.59
680.1	141.48
680.29	198.82
680.481	125.1
680.671	268.45
680.861	170.15
681.052	155.82
681.242	153.77
681.432	194.73
681.622	186.54
681.813	73.9
682.003	178.34
682.193	211.11
682.383	207.02
682.573	170.15
682.764	88.23
682.954	223.4
683.144	252.07
683.334	223.4
683.524	153.77
683.714	286.89
683.904	190.63
684.094	157.86
684.284	305.32
684.474	262.31
684.664	264.36
684.854	284.84
685.044	196.78
685.234	188.58
685.424	223.4
685.614	174.25
685.804	360.61
685.994	217.26
686.184	168.1
686.374	266.41
686.564	288.93
686.753	202.92
686.943	102.57
687.133	184.49
687.323	196.78
687.513	229.54
687.702	213.16
687.892	186.54
688.082	313.51
688.272	333.99
688.461	213.16
688.651	293.03
688.841	327.85
689.03	168.1
689.22	221.35
689.41	299.17
689.599	252.07
689.789	114.86
689.979	352.42
690.168	190.63
690.358	266.41
690.547	168.1
690.737	250.02
690.926	225.45
691.116	241.83
691.305	274.6
691.495	233.64
691.684	174.25
691.874	118.95
692.063	213.16
692.252	110.76
692.442	311.46
692.631	161.96
692.82	268.45
693.01	161.96
693.199	143.53
693.388	243.88
693.578	174.25
693.767	276.65
693.956	221.35
694.146	159.91
694.335	219.3
694.524	264.36
694.713	190.63
694.902	143.53
695.092	121
695.281	250.02
695.47	202.92
695.659	233.64
695.848	198.82
696.037	137.38
696.226	217.26
696.415	172.2
696.604	340.13
696.793	284.84
696.982	141.48
697.171	268.45
697.36	145.58
697.549	198.82
697.738	16.55
697.927	168.1
698.116	73.9
698.305	221.35
698.494	266.41
698.683	114.86
698.872	358.57
699.061	143.53
699.25	243.88
699.438	217.26
699.627	110.76
699.816	293.03
700.005	94.38
700.193	178.34
700.382	243.88
700.571	211.11
700.76	139.43
700.948	250.02
701.137	211.11
701.326	311.46
701.514	84.14
701.703	174.25
701.892	164.01
702.08	403.62
702.269	139.43
702.457	161.96
702.646	211.11
702.834	170.15
703.023	233.64
703.212	290.98
703.4	174.25
703.589	151.72
703.777	227.5
703.965	102.57
704.154	143.53
704.342	82.09
704.531	127.14
704.719	88.23
704.907	260.26
705.096	153.77
705.284	161.96
705.472	215.21
705.661	153.77
705.849	250.02
706.037	299.17
706.226	272.55
706.414	190.63
706.602	125.1
706.79	260.26
706.979	139.43
707.167	227.5
707.355	96.43
707.543	235.69
707.731	217.26
707.919	149.67
708.107	182.44
708.296	131.24
708.484	98.47
708.672	207.02
708.86	243.88
709.048	233.64
709.236	182.44
709.424	221.35
709.612	196.78
709.8	49.32
709.988	184.49
710.176	229.54
710.364	329.89
710.551	178.34
710.739	241.83
710.927	192.68
711.115	237.74
711.303	247.97
711.491	217.26
711.679	114.86
711.866	231.59
712.054	204.97
712.242	153.77
712.43	223.4
712.617	118.95
712.805	145.58
712.993	114.86
713.181	100.52
713.368	288.93
713.556	143.53
713.744	268.45
713.931	370.85
714.119	262.31
714.306	176.3
714.494	141.48
714.682	190.63
714.869	118.95
715.057	174.25
715.244	82.09
715.432	211.11
715.619	178.34
715.807	116.9
715.994	133.29
716.182	217.26
716.369	299.17
716.556	229.54
716.744	86.19
716.931	80.04
717.119	243.88
717.306	80.04
717.493	276.65
717.681	88.23
717.868	182.44
718.055	213.16
718.242	133.29
718.43	254.12
718.617	280.74
718.804	157.86
718.991	333.99
719.179	252.07
719.366	311.46
719.553	209.06
719.74	176.3
719.927	223.4
720.114	207.02
720.301	123.05
720.488	170.15
720.676	82.09
720.863	377
721.05	274.6
721.237	286.89
721.424	327.85
721.611	231.59
721.798	102.57
721.985	161.96
722.172	215.21
722.358	129.19
722.545	260.26
722.732	241.83
722.919	309.41
723.106	327.85
723.293	186.54
723.48	282.79
723.667	151.72
723.853	358.57
724.04	207.02
724.227	274.6
724.414	250.02
724.6	264.36
724.787	268.45
724.974	372.9
725.161	184.49
725.347	166.06
725.534	219.3
725.72	256.17
725.907	284.84
726.094	178.34
726.28	190.63
726.467	233.64
726.653	114.86
726.84	305.32
727.027	333.99
727.213	288.93
727.4	219.3
727.586	209.06
727.773	268.45
727.959	258.21
728.145	180.39
728.332	297.13
728.518	217.26
728.705	350.37
728.891	258.21
729.077	219.3
729.264	196.78
729.45	170.15
729.636	225.45
729.823	284.84
730.009	286.89
730.195	268.45
730.382	317.61
730.568	215.21
730.754	268.45
730.94	309.41
731.126	243.88
731.313	231.59
731.499	211.11
731.685	333.99
731.871	307.37
732.057	276.65
732.243	381.09
732.429	241.83
732.615	331.94
732.801	405.67
732.987	223.4
733.173	311.46
733.359	194.73
733.545	266.41
733.731	268.45
733.917	307.37
734.103	254.12
734.289	200.87
734.475	176.3
734.661	356.52
734.847	182.44
735.033	268.45
735.219	250.02
735.404	182.44
735.59	223.4
735.776	192.68
735.962	333.99
736.148	393.38
736.333	364.71
736.519	237.74
736.705	190.63
736.89	272.55
737.076	280.74
737.262	243.88
737.447	209.06
737.633	274.6
737.819	374.95
738.004	278.69
738.19	213.16
738.375	235.69
738.561	288.93
738.747	223.4
738.932	202.92
739.118	481.44
739.303	237.74
739.489	284.84
739.674	204.97
739.859	252.07
740.045	250.02
740.23	252.07
740.416	100.52
740.601	231.59
740.786	268.45
740.972	147.62
741.157	256.17
741.342	211.11
741.528	155.82
741.713	243.88
741.898	245.93
742.084	223.4
742.269	266.41
742.454	254.12
742.639	276.65
742.824	223.4
743.01	417.96
743.195	440.48
743.38	209.06
743.565	250.02
743.75	211.11
743.935	321.7
744.12	338.09
744.305	200.87
744.49	231.59
744.675	252.07
744.86	161.96
745.045	288.93
745.23	278.69
745.415	239.78
745.6	360.61
745.785	247.97
745.97	305.32
746.155	231.59
746.34	252.07
746.525	159.91
746.71	250.02
746.895	112.81
747.079	153.77
747.264	241.83
747.449	276.65
747.634	258.21
747.819	286.89
748.003	200.87
748.188	151.72
748.373	329.89
748.557	286.89
748.742	217.26
748.927	270.5
749.111	157.86
749.296	131.24
749.481	254.12
749.665	219.3
749.85	202.92
750.034	231.59
750.219	258.21
750.404	137.38
750.588	237.74
750.773	86.19
750.957	229.54
751.141	186.54
751.326	290.98
751.51	96.43
751.695	213.16
751.879	213.16
752.064	264.36
752.248	188.58
752.432	368.81
752.617	145.58
752.801	241.83
752.985	186.54
753.17	254.12
753.354	229.54
753.538	225.45
753.722	190.63
753.907	102.57
754.091	110.76
754.275	155.82
754.459	61.61
754.643	121
754.828	190.63
755.012	161.96
755.196	22.7
755.38	170.15
755.564	151.72
755.748	168.1
755.932	207.02
756.116	239.78
756.3	170.15
756.484	135.34
756.668	157.86
756.852	53.42
757.036	143.53
757.22	176.3
757.404	45.23
757.588	151.72
757.772	186.54
757.956	159.91
758.14	311.46
758.323	45.23
758.507	196.78
758.691	159.91
758.875	155.82
759.059	178.34
759.242	94.38
759.426	135.34
759.61	186.54
759.794	34.99
759.977	215.21
760.161	366.76
760.345	307.37
760.528	264.36
760.712	96.43
760.895	159.91
761.079	77.99
761.263	102.57
761.446	34.99
761.63	49.32
761.813	233.64
761.997	61.61
762.18	125.1
762.364	215.21
762.547	32.94
762.731	98.47
762.914	86.19
763.098	116.9
763.281	86.19
763.464	59.56
763.648	170.15
763.831	73.9
764.015	2.22
764.198	143.53
764.381	106.67
764.564	127.14
764.748	164.01
764.931	96.43
765.114	80.04
765.297	176.3
765.481	32.94
765.664	49.32
765.847	47.27
766.03	186.54
766.213	59.56
766.397	129.19
766.58	73.9
766.763	114.86
766.946	55.47
767.129	14.51
767.312	-59.22
767.495	39.08
767.678	-8.02
767.861	114.86
768.044	65.71
768.227	37.03
768.41	98.47
768.593	94.38
768.776	131.24
768.959	94.38
769.142	118.95
769.324	20.65
769.507	30.89
769.69	8.36
769.873	51.37
770.056	278.69
770.239	96.43
770.421	102.57
770.604	190.63
770.787	-8.02
770.97	22.7
771.152	-10.07
771.335	88.23
771.518	-38.74
771.7	118.95
771.883	153.77
772.066	-38.74
772.248	127.14
772.431	209.06
772.613	131.24
772.796	43.18
772.978	55.47
773.161	147.62
773.343	161.96
773.526	22.7
773.708	30.89
773.891	-51.03
774.073	92.33
774.256	75.95
774.438	278.69
774.621	57.51
774.803	67.75
774.985	67.75
775.168	84.14
775.35	39.08
775.532	59.56
775.715	-5.97
775.897	69.8
776.079	43.18
776.261	55.47
776.444	37.03
776.626	157.86
776.808	4.27
776.99	-59.22
777.173	67.75
777.355	-26.45
777.537	102.57
777.719	53.42
777.901	57.51
778.083	-26.45
778.265	-87.89
778.447	59.56
778.629	24.75
778.811	28.84
778.993	102.57
779.175	143.53
779.357	10.41
779.539	-51.03
779.721	0.17
779.903	55.47
780.085	2.22
780.267	84.14
780.449	-5.97
780.631	90.28
780.812	129.19
780.994	-46.93
781.176	-14.17
781.358	-30.55
781.54	10.41
781.721	0.17
781.903	96.43
782.085	-18.26
782.267	77.99
782.448	-96.08
782.63	53.42
782.812	65.71
782.993	26.79
783.175	139.43
783.357	-42.84
783.538	69.8
783.72	-63.32
783.901	39.08
784.083	-14.17
784.264	14.51
784.446	-44.88
784.627	-77.65
784.809	20.65
784.99	-5.97
785.172	69.8
785.353	43.18
785.535	84.14
785.716	-42.84
785.897	-24.4
786.079	4.27
786.26	53.42
786.441	94.38
786.623	-108.37
786.804	-14.17
786.985	112.81
787.167	45.23
787.348	-20.31
787.529	47.27
787.71	202.92
787.891	-18.26
788.073	-51.03
788.254	-106.32
788.435	121
788.616	-55.12
788.797	-40.79
788.978	22.7
789.159	37.03
789.34	57.51
789.522	18.6
789.703	-65.36
789.884	32.94
790.065	-14.17
790.246	102.57
790.427	41.13
790.607	96.43
790.788	104.62
790.969	-59.22
791.15	51.37
791.331	-24.4
791.512	22.7
791.693	-135
791.874	18.6
792.054	131.24
792.235	106.67
792.416	-32.6
792.597	-51.03
792.778	61.61
792.958	41.13
793.139	59.56
793.32	22.7
793.5	-79.7
793.681	121
793.862	18.6
794.042	67.75
794.223	-59.22
794.404	-40.79
794.584	-53.08
794.765	0.17
794.945	-30.55
795.126	57.51
795.306	39.08
795.487	-38.74
795.667	8.36
795.848	20.65
796.028	-22.36
796.209	57.51
796.389	-5.97
796.57	61.61
796.75	-38.74
796.93	-26.45
797.111	-85.84
797.291	-24.4
797.471	84.14
797.652	55.47
797.832	-55.12
798.012	-22.36
798.192	-16.21
798.373	-102.23
798.553	-14.17
798.733	37.03
798.913	28.84
799.093	20.65
799.274	45.23
799.454	59.56
799.634	116.9
799.814	57.51
799.994	8.36
800.174	51.37
800.354	-10.07
800.534	-63.32
800.714	32.94
800.894	-135
801.074	-32.6
801.254	-53.08
801.434	174.25
801.614	-61.27
801.794	-91.99
801.974	1822.86
802.154	10.41
802.334	51.37
802.514	-102.23
802.693	8.36
802.873	-30.55
803.053	69.8
803.233	39.08
803.413	-36.69
803.592	-55.12
803.772	-51.03
803.952	-5.97
804.131	-120.66
804.311	6.31
804.491	6.31
804.67	-14.17
804.85	-112.47
805.03	-14.17
805.209	43.18
805.389	-26.45
805.568	-14.17
805.748	-44.88
805.928	-32.6
806.107	53.42
806.287	-24.4
806.466	41.13
806.646	-14.17
806.825	-8.02
807.004	-20.31
807.184	172.2
807.363	37.03
807.543	-59.22
807.722	-81.75
807.901	67.75
808.081	22.7
808.26	-151.38
808.439	-20.31
808.619	-1.88
808.798	-38.74
808.977	4.27
809.156	65.71
809.336	-65.36
809.515	84.14
809.694	-91.99
809.873	-42.84
810.052	100.52
810.231	22.7
810.411	-14.17
810.59	-5.97
810.769	10.41
810.948	123.05
811.127	-87.89
811.306	-16.21
811.485	14.51
811.664	110.76
811.843	-112.47
812.022	-5.97
812.201	6.31
812.38	26.79
812.559	-98.13
812.737	71.85
812.916	-63.32
813.095	-120.66
813.274	84.14
813.453	8.36
813.632	63.66
813.811	18.6
813.989	-81.75
814.168	55.47
814.347	-63.32
814.526	18.6
814.704	141.48
814.883	47.27
815.062	-151.38
815.24	39.08
815.419	-26.45
815.598	-20.31
815.776	-102.23
815.955	43.18
816.133	-75.6
816.312	6.31
816.49	-63.32
816.669	-8.02
816.847	22.7
817.026	43.18
817.204	-40.79
817.383	-59.22
817.561	-32.6
817.74	41.13
817.918	-12.12
818.097	4.27
818.275	14.51
818.453	-20.31
818.632	6.31
818.81	-1.88
818.988	-61.27
819.167	-34.64
819.345	-3.93
819.523	-30.55
819.701	8.36
819.879	-38.74
820.058	-48.98
820.236	-71.51
820.414	-67.41
820.592	-38.74
820.77	37.03
820.948	-53.08
821.127	-87.89
821.305	57.51
821.483	-38.74
821.661	63.66
821.839	-18.26
822.017	-114.52
822.195	-16.21
822.373	102.57
822.551	0.17
822.729	-75.6
822.907	-61.27
823.085	18.6
823.262	-10.07
823.44	-65.36
823.618	-22.36
823.796	-112.47
823.974	-30.55
824.152	37.03
824.329	-63.32
824.507	-20.31
824.685	39.08
824.863	6.31
825.04	-75.6
825.218	-10.07
825.396	16.55
825.574	32.94
825.751	-28.5
825.929	4.27
826.107	-69.46
826.284	-5.97
826.462	22.7
826.639	-75.6
826.817	-91.99
826.994	-20.31
827.172	-91.99
827.349	135.34
827.527	18.6
827.704	-28.5
827.882	12.46
828.059	-22.36
828.237	10.41
828.414	63.66
828.591	-163.67
828.769	-22.36
828.946	-55.12
829.124	51.37
829.301	26.79
829.478	-77.65
829.655	63.66
829.833	-24.4
830.01	-126.8
830.187	94.38
830.364	-42.84
830.542	-91.99
830.719	104.62
830.896	-16.21
831.073	-36.69
831.25	102.57
831.427	20.65
831.604	-51.03
831.782	-106.32
831.959	37.03
832.136	-67.41
832.313	16.55
832.49	-79.7
832.667	-22.36
832.844	-61.27
833.021	106.67
833.198	2.22
833.374	-5.97
833.551	-26.45
833.728	-28.5
833.905	67.75
834.082	-155.47
834.259	-91.99
834.436	82.09
834.612	-53.08
834.789	28.84
834.966	88.23
835.143	22.7
835.319	-118.61
835.496	55.47
835.673	-30.55
835.85	6.31
836.026	41.13
836.203	-5.97
836.38	-59.22
836.556	-89.94
836.733	-128.85
836.909	100.52
837.086	-14.17
837.262	-157.52
837.439	16.55
837.616	-116.56
837.792	67.75
837.968	10.41
838.145	-178
838.321	-16.21
838.498	102.57
838.674	4.27
838.851	55.47
839.027	-61.27
839.203	22.7
839.38	22.7
839.556	-106.32
839.732	71.85
839.909	-28.5
840.085	59.56
840.261	-87.89
840.437	59.56
840.614	-63.32
840.79	57.51
840.966	6.31
841.142	-8.02
841.318	-67.41
841.494	45.23
841.671	75.95
841.847	-30.55
842.023	-102.23
842.199	65.71
842.375	51.37
842.551	-75.6
842.727	-110.42
842.903	59.56
843.079	-34.64
843.255	47.27
843.431	-42.84
843.607	49.32
843.783	-98.13
843.959	20.65
844.134	-120.66
844.31	59.56
844.486	-36.69
844.662	-10.07
844.838	-28.5
845.013	-12.12
845.189	94.38
845.365	10.41
845.541	16.55
845.716	0.17
845.892	65.71
846.068	-75.6
846.244	-20.31
846.419	14.51
846.595	-42.84
846.77	-94.04
846.946	55.47
847.122	-57.17
847.297	-48.98
847.473	139.43
847.648	-149.33
847.824	67.75
847.999	-161.62
848.175	-77.65
848.35	-38.74
848.526	49.32
848.701	22.7
848.876	26.79
849.052	53.42
849.227	-26.45
849.403	-20.31
849.578	6.31
849.753	-44.88
849.929	49.32
850.104	-171.86
850.279	-48.98
850.454	-5.97
850.63	-44.88
850.805	-18.26
850.98	-12.12
851.155	-57.17
851.33	-59.22
851.505	-130.9
851.681	166.06
851.856	-59.22
852.031	24.75
852.206	-1.88
852.381	-42.84
852.556	-96.08
852.731	-10.07
852.906	57.51
853.081	-44.88
853.256	-32.6
853.431	-69.46
853.606	-63.32
853.781	-63.32
853.956	-163.67
854.131	-22.36
854.305	-44.88
854.48	-108.37
854.655	-75.6
854.83	-44.88
855.005	-53.08
855.18	4.27
855.354	-18.26
855.529	47.27
855.704	-98.13
855.879	-46.93
856.053	-71.51
856.228	-20.31
856.403	-102.23
856.577	39.08
856.752	-87.89
856.926	2.22
857.101	-59.22
857.276	-118.61
857.45	41.13
857.625	28.84
857.799	0.17
857.974	-26.45
858.148	-132.95
858.323	47.27
858.497	-120.66
858.672	-24.4
858.846	-1.88
859.02	-44.88
859.195	-112.47
859.369	-46.93
859.543	4.27
859.718	-137.04
859.892	-12.12
860.066	-61.27
860.241	-38.74
860.415	-89.94
860.589	-38.74
860.763	-46.93
860.938	-18.26
861.112	8.36
861.286	45.23
861.46	2.22
861.634	-34.64
861.808	-44.88
861.982	-28.5
862.157	-42.84
862.331	-32.6
862.505	-51.03
862.679	-55.12
862.853	-157.52
863.027	-114.52
863.201	32.94
863.375	-75.6
863.549	-57.17
863.722	37.03
863.896	28.84
864.07	-110.42
864.244	-10.07
864.418	41.13
864.592	22.7
864.766	0.17
864.939	-32.6
865.113	-44.88
865.287	153.77
865.461	-71.51
865.634	20.65
865.808	-42.84
865.982	-108.37
866.156	-110.42
866.329	-182.1
866.503	-42.84
866.676	71.85
866.85	-89.94
867.024	-26.45
867.197	-85.84
867.371	12.46
867.544	22.7
867.718	-132.95
867.891	26.79
868.065	-167.76
868.238	-63.32
868.412	45.23
868.585	-10.07
868.759	-51.03
868.932	-57.17
869.105	-100.18
869.279	10.41
869.452	-38.74
869.625	-85.84
869.799	-1.88
869.972	-79.7
870.145	-34.64
870.319	18.6
870.492	-124.76
870.665	2.22
870.838	-44.88
871.011	-130.9
871.185	-61.27
871.358	-55.12
871.531	39.08
871.704	-3.93
871.877	-63.32
872.05	-73.56
872.223	-89.94
872.396	22.7
872.569	-63.32
872.742	-69.46
872.915	-5.97
873.088	-59.22
873.261	-44.88
873.434	28.84
873.607	-48.98
873.78	80.04
873.953	-151.38
874.126	-38.74
874.299	-1.88
874.471	-63.32
874.644	-59.22
874.817	30.89
874.99	92.33
875.163	-65.36
875.335	22.7
875.508	-24.4
875.681	55.47
875.853	-46.93
876.026	-61.27
876.199	59.56
876.371	20.65
876.544	-63.32
876.717	30.89
876.889	-59.22
877.062	86.19
877.234	-145.24
877.407	-44.88
877.579	-59.22
877.752	-20.31
877.924	-28.5
878.097	-42.84
878.269	-5.97
878.442	-5.97
878.614	80.04
878.786	-3.93
878.959	-8.02
879.131	0.17
879.303	-116.56
879.476	-51.03
879.648	2.22
879.82	-20.31
879.993	-42.84
880.165	-75.6
880.337	-182.1
880.509	-34.64
880.681	-141.14
880.854	-36.69
881.026	2.22
881.198	121
881.37	-40.79
881.542	-48.98
881.714	-83.8
881.886	-20.31
882.058	39.08
882.23	-69.46
882.402	-89.94
882.574	-38.74
882.746	34.99
882.918	67.75
883.09	-51.03
883.262	-18.26
883.434	-12.12
883.606	-116.56
883.778	-26.45
883.95	104.62
884.122	-53.08
884.293	22.7
884.465	12.46
884.637	-44.88
884.809	-73.56
884.98	22.7
885.152	12.46
885.324	55.47
885.496	-67.41
885.667	-102.23
885.839	-85.84
886.011	57.51
886.182	118.95
886.354	61.61
886.525	-3.93
886.697	-48.98
886.869	-81.75
887.04	-32.6
887.212	73.9
887.383	37.03
887.555	-85.84
887.726	-91.99
887.897	-100.18
888.069	-36.69
888.24	43.18
888.412	41.13
888.583	-51.03
888.754	-32.6
888.926	-153.43
889.097	-75.6
889.268	-108.37
889.44	12.46
889.611	-145.24
889.782	-108.37
889.953	-89.94
890.125	166.06
890.296	-77.65
890.467	-34.64
890.638	-48.98
890.809	-8.02
890.98	-135
891.151	61.61
891.323	39.08
891.494	8.36
891.665	10.41
891.836	-61.27
892.007	-55.12
892.178	-30.55
892.349	-34.64
892.52	-61.27
892.691	-8.02
892.862	-137.04
893.032	-204.63
893.203	-16.21
893.374	-42.84
893.545	45.23
893.716	-96.08
893.887	-20.31
894.057	-32.6
894.228	-87.89
894.399	-46.93
894.57	100.52
894.74	-3.93
894.911	30.89
895.082	-34.64
895.253	-100.18
895.423	-18.26
895.594	0.17
895.764	-26.45
895.935	-145.24
896.106	-14.17
896.276	-81.75
896.447	2.22
896.617	-96.08
896.788	-135
896.958	-77.65
897.129	6.31
897.299	-81.75
897.47	49.32
897.64	-1.88
897.81	-63.32
897.981	-26.45
898.151	-59.22
898.322	-10.07
898.492	34.99
898.662	-130.9
898.832	-48.98
899.003	-79.7
899.173	18.6
899.343	-44.88
899.513	-126.8
