Data from USB4F104151__24__10-42-06-885.txt Node

Date: Wed Feb 26 10:42:06 EST 2025
User: louis
Spectrometer: USB4F10415
Trigger mode: 4
Integration Time (sec): 1.000000E-1
Scans to average: 1
Electric dark correction enabled: true
Nonlinearity correction enabled: false
Boxcar width: 0
XAxis mode: Wavelengths
Number of Pixels in Spectrum: 3648
>>>>>Begin Spectral Data<<<<<
178.204	-401.74
178.424	-401.74
178.644	-401.74
178.864	-405.84
179.084	-379.22
179.304	-0.34
179.524	-47.44
179.744	1.71
179.964	34.47
180.184	26.28
180.404	-22.87
180.624	-16.73
180.844	-53.59
181.064	22.19
181.283	87.72
181.503	-104.79
181.723	73.39
181.943	-69.97
182.163	190.12
182.383	-41.3
182.602	-22.87
182.822	177.83
183.042	124.58
183.262	48.81
183.482	-6.49
183.701	52.91
183.921	85.67
184.141	-10.58
184.361	87.72
184.58	77.48
184.8	32.43
185.02	38.57
185.239	75.43
185.459	112.3
185.679	71.34
185.898	-149.84
186.118	28.33
186.338	97.96
186.557	136.87
186.777	20.14
186.997	28.33
187.216	9.9
187.436	198.31
187.655	5.8
187.875	100.01
188.095	54.95
188.314	186.02
188.534	167.59
188.753	-96.6
188.973	136.87
189.192	179.88
189.412	48.81
189.631	-2.39
189.851	38.57
190.07	124.58
190.29	-0.34
190.509	3.75
190.729	48.81
190.948	173.74
191.168	212.65
191.387	122.54
191.607	-41.3
191.826	77.48
192.045	63.15
192.265	67.24
192.484	155.3
192.704	63.15
192.923	-22.87
193.142	153.26
193.362	169.64
193.581	153.26
193.8	11.95
194.02	173.74
194.239	93.87
194.458	83.63
194.678	7.85
194.897	54.95
195.116	130.73
195.335	50.86
195.555	79.53
195.774	9.9
195.993	63.15
196.212	-41.3
196.432	36.52
196.651	-26.96
196.87	89.77
197.089	161.45
197.308	44.71
197.528	81.58
197.747	26.28
197.966	81.58
198.185	163.5
198.404	16.04
198.623	145.06
198.842	91.82
199.062	147.11
199.281	67.24
199.5	77.48
199.719	63.15
199.938	77.48
200.157	63.15
200.376	134.82
200.595	40.62
200.814	20.14
201.033	-31.06
201.252	188.07
201.471	100.01
201.69	69.29
201.909	-20.82
202.128	140.97
202.347	52.91
202.566	59.05
202.785	9.9
203.004	11.95
203.223	292.52
203.442	91.82
203.661	-31.06
203.879	77.48
204.098	143.02
204.317	-49.49
204.536	44.71
204.755	140.97
204.974	75.43
205.193	42.67
205.411	183.98
205.63	108.2
205.849	77.48
206.068	89.77
206.287	-31.06
206.505	75.43
206.724	32.43
206.943	-61.78
207.162	52.91
207.381	46.76
207.599	46.76
207.818	38.57
208.037	-8.53
208.255	81.58
208.474	161.45
208.693	95.91
208.911	30.38
209.13	89.77
209.349	32.43
209.567	112.3
209.786	97.96
210.005	112.3
210.223	22.19
210.442	-108.88
210.661	67.24
210.879	-24.92
211.098	-18.77
211.316	163.5
211.535	128.68
211.753	57
211.972	122.54
212.191	52.91
212.409	102.06
212.628	116.39
212.846	16.04
213.065	52.91
213.283	124.58
213.502	83.63
213.72	69.29
213.938	106.15
214.157	50.86
214.375	69.29
214.594	-4.44
214.812	16.04
215.031	69.29
215.249	1.71
215.467	110.25
215.686	11.95
215.904	44.71
216.122	48.81
216.341	196.26
216.559	71.34
216.778	132.78
216.996	186.02
217.214	104.11
217.432	48.81
217.651	-10.58
217.869	22.19
218.087	46.76
218.306	54.95
218.524	89.77
218.742	97.96
218.96	77.48
219.179	83.63
219.397	177.83
219.615	200.36
219.833	118.44
220.051	-61.78
220.27	165.54
220.488	124.58
220.706	79.53
220.924	-26.96
221.142	20.14
221.36	130.73
221.578	22.19
221.796	81.58
222.015	-10.58
222.233	204.46
222.451	140.97
222.669	-6.49
222.887	48.81
223.105	-10.58
223.323	77.48
223.541	11.95
223.759	104.11
223.977	87.72
224.195	165.54
224.413	218.79
224.631	93.87
224.849	40.62
225.067	165.54
225.285	7.85
225.503	61.1
225.721	-33.11
225.939	67.24
226.157	73.39
226.375	224.94
226.592	40.62
226.81	-39.25
227.028	145.06
227.246	151.21
227.464	44.71
227.682	54.95
227.9	46.76
228.117	59.05
228.335	46.76
228.553	22.19
228.771	5.8
228.989	93.87
229.206	136.87
229.424	1.71
229.642	79.53
229.86	-37.2
230.077	130.73
230.295	91.82
230.513	167.59
230.731	140.97
230.948	118.44
231.166	157.35
231.384	42.67
231.601	75.43
231.819	229.03
232.037	-35.16
232.254	-47.44
232.472	48.81
232.689	-63.83
232.907	93.87
233.125	1.71
233.342	22.19
233.56	54.95
233.777	22.19
233.995	20.14
234.213	77.48
234.43	59.05
234.648	-8.53
234.865	36.52
235.083	38.57
235.3	81.58
235.518	110.25
235.735	77.48
235.953	73.39
236.17	13.99
236.388	13.99
236.605	-14.68
236.822	155.3
237.04	124.58
237.257	79.53
237.475	9.9
237.692	79.53
237.909	124.58
238.127	38.57
238.344	67.24
238.562	59.05
238.779	-0.34
238.996	-33.11
239.214	22.19
239.431	114.34
239.648	71.34
239.865	100.01
240.083	52.91
240.3	-31.06
240.517	75.43
240.735	75.43
240.952	155.3
241.169	36.52
241.386	106.15
241.603	40.62
241.821	67.24
242.038	83.63
242.255	102.06
242.472	-59.73
242.689	130.73
242.907	42.67
243.124	59.05
243.341	3.75
243.558	-8.53
243.775	-26.96
243.992	7.85
244.209	89.77
244.426	145.06
244.643	63.15
244.86	-0.34
245.078	116.39
245.295	104.11
245.512	65.19
245.729	-10.58
245.946	57
246.163	71.34
246.38	11.95
246.597	13.99
246.814	93.87
247.031	110.25
247.248	136.87
247.464	50.86
247.681	5.8
247.898	46.76
248.115	143.02
248.332	-65.88
248.549	165.54
248.766	155.3
248.983	122.54
249.2	32.43
249.417	48.81
249.633	20.14
249.85	34.47
250.067	32.43
250.284	52.91
250.501	57
250.717	95.91
250.934	-49.49
251.151	38.57
251.368	71.34
251.585	34.47
251.801	52.91
252.018	5.8
252.235	132.78
252.451	-63.83
252.668	42.67
252.885	102.06
253.102	65.19
253.318	67.24
253.535	-2.39
253.752	-55.64
253.968	18.09
254.185	-63.83
254.401	79.53
254.618	32.43
254.835	34.47
255.051	138.92
255.268	110.25
255.484	116.39
255.701	-8.53
255.917	143.02
256.134	-10.58
256.351	26.28
256.567	-55.64
256.784	108.2
257	-2.39
257.217	91.82
257.433	50.86
257.65	-35.16
257.866	132.78
258.082	9.9
258.299	1.71
258.515	79.53
258.732	30.38
258.948	-41.3
259.165	28.33
259.381	-39.25
259.597	124.58
259.814	140.97
260.03	-8.53
260.246	79.53
260.463	106.15
260.679	112.3
260.895	22.19
261.112	50.86
261.328	34.47
261.544	-16.73
261.761	239.27
261.977	-31.06
262.193	-86.36
262.409	114.34
262.626	24.23
262.842	36.52
263.058	50.86
263.274	110.25
263.49	77.48
263.707	83.63
263.923	75.43
264.139	-16.73
264.355	110.25
264.571	120.49
264.787	42.67
265.004	126.63
265.22	40.62
265.436	-0.34
265.652	30.38
265.868	91.82
266.084	-63.83
266.3	63.15
266.516	-74.07
266.732	93.87
266.948	-12.63
267.164	22.19
267.38	165.54
267.596	83.63
267.812	190.12
268.028	36.52
268.244	26.28
268.46	69.29
268.676	9.9
268.892	81.58
269.108	7.85
269.324	-45.4
269.54	3.75
269.756	48.81
269.972	-33.11
270.188	50.86
270.403	46.76
270.619	-16.73
270.835	18.09
271.051	32.43
271.267	67.24
271.483	7.85
271.698	71.34
271.914	44.71
272.13	79.53
272.346	44.71
272.562	13.99
272.777	38.57
272.993	73.39
273.209	-29.01
273.425	89.77
273.64	-51.54
273.856	128.68
274.072	-14.68
274.287	20.14
274.503	97.96
274.719	44.71
274.934	-82.26
275.15	-80.21
275.366	104.11
275.581	-12.63
275.797	3.75
276.012	52.91
276.228	30.38
276.444	136.87
276.659	194.22
276.875	-24.92
277.09	-10.58
277.306	75.43
277.521	36.52
277.737	16.04
277.952	114.34
278.168	40.62
278.383	87.72
278.599	7.85
278.814	138.92
279.03	11.95
279.245	132.78
279.461	79.53
279.676	100.01
279.892	-20.82
280.107	-0.34
280.322	-0.34
280.538	75.43
280.753	91.82
280.969	140.97
281.184	30.38
281.399	153.26
281.615	20.14
281.83	-14.68
282.045	-45.4
282.26	-35.16
282.476	48.81
282.691	50.86
282.906	44.71
283.122	69.29
283.337	-12.63
283.552	93.87
283.767	-41.3
283.983	93.87
284.198	-6.49
284.413	71.34
284.628	54.95
284.843	57
285.058	-6.49
285.274	-12.63
285.489	44.71
285.704	149.16
285.919	48.81
286.134	89.77
286.349	67.24
286.564	9.9
286.779	149.16
286.995	22.19
287.21	13.99
287.425	52.91
287.64	42.67
287.855	120.49
288.07	-4.44
288.285	104.11
288.5	153.26
288.715	128.68
288.93	52.91
289.145	-53.59
289.36	149.16
289.575	30.38
289.79	151.21
290.004	30.38
290.219	71.34
290.434	91.82
290.649	22.19
290.864	77.48
291.079	77.48
291.294	26.28
291.509	24.23
291.724	16.04
291.938	26.28
292.153	26.28
292.368	48.81
292.583	116.39
292.798	177.83
293.012	16.04
293.227	63.15
293.442	5.8
293.657	143.02
293.871	95.91
294.086	190.12
294.301	149.16
294.516	120.49
294.73	71.34
294.945	-20.82
295.16	46.76
295.374	159.4
295.589	132.78
295.804	67.24
296.018	65.19
296.233	140.97
296.447	20.14
296.662	-31.06
296.877	173.74
297.091	136.87
297.306	-43.35
297.52	-51.54
297.735	100.01
297.949	85.67
298.164	20.14
298.378	75.43
298.593	-4.44
298.807	-18.77
299.022	26.28
299.236	155.3
299.451	13.99
299.665	34.47
299.88	7.85
300.094	120.49
300.309	9.9
300.523	75.43
300.737	65.19
300.952	59.05
301.166	75.43
301.381	-37.2
301.595	-20.82
301.809	50.86
302.024	13.99
302.238	-31.06
302.452	140.97
302.667	104.11
302.881	73.39
303.095	147.11
303.309	5.8
303.524	59.05
303.738	59.05
303.952	-22.87
304.166	112.3
304.381	-18.77
304.595	157.35
304.809	67.24
305.023	-20.82
305.237	73.39
305.452	-16.73
305.666	108.2
305.88	54.95
306.094	83.63
306.308	42.67
306.522	157.35
306.736	79.53
306.95	59.05
307.164	61.1
307.379	85.67
307.593	159.4
307.807	89.77
308.021	63.15
308.235	159.4
308.449	-96.6
308.663	61.1
308.877	218.79
309.091	59.05
309.305	-0.34
309.519	-78.16
309.733	177.83
309.947	-61.78
310.161	42.67
310.374	65.19
310.588	153.26
310.802	-12.63
311.016	28.33
311.23	130.73
311.444	-20.82
311.658	-12.63
311.872	81.58
312.085	183.98
312.299	235.18
312.513	61.1
312.727	100.01
312.941	13.99
313.154	26.28
313.368	48.81
313.582	7.85
313.796	50.86
314.009	3.75
314.223	71.34
314.437	20.14
314.651	67.24
314.864	-18.77
315.078	20.14
315.292	-67.92
315.505	9.9
315.719	65.19
315.933	-24.92
316.146	38.57
316.36	-35.16
316.573	157.35
316.787	-4.44
317.001	40.62
317.214	-43.35
317.428	-0.34
317.641	-74.07
317.855	108.2
318.068	61.1
318.282	50.86
318.495	159.4
318.709	44.71
318.922	50.86
319.136	83.63
319.349	130.73
319.563	79.53
319.776	52.91
319.99	9.9
320.203	112.3
320.417	83.63
320.63	116.39
320.843	177.83
321.057	130.73
321.27	46.76
321.483	130.73
321.697	147.11
321.91	67.24
322.124	-18.77
322.337	-37.2
322.55	3.75
322.763	22.19
322.977	77.48
323.19	-43.35
323.403	20.14
323.617	143.02
323.83	161.45
324.043	30.38
324.256	59.05
324.469	-67.92
324.683	145.06
324.896	36.52
325.109	26.28
325.322	-49.49
325.535	114.34
325.748	122.54
325.962	1.71
326.175	73.39
326.388	67.24
326.601	190.12
326.814	63.15
327.027	-0.34
327.24	284.33
327.453	-49.49
327.666	71.34
327.879	54.95
328.092	95.91
328.305	59.05
328.518	67.24
328.731	91.82
328.944	-10.58
329.157	120.49
329.37	50.86
329.583	194.22
329.796	145.06
330.009	-86.36
330.222	65.19
330.435	85.67
330.648	143.02
330.861	3.75
331.073	73.39
331.286	112.3
331.499	22.19
331.712	28.33
331.925	42.67
332.138	-22.87
332.35	83.63
332.563	20.14
332.776	200.36
332.989	-4.44
333.202	-49.49
333.414	-10.58
333.627	16.04
333.84	63.15
334.053	63.15
334.265	-35.16
334.478	-63.83
334.691	77.48
334.903	77.48
335.116	18.09
335.329	-0.34
335.541	42.67
335.754	143.02
335.966	63.15
336.179	26.28
336.392	102.06
336.604	38.57
336.817	110.25
337.029	63.15
337.242	108.2
337.454	118.44
337.667	71.34
337.88	165.54
338.092	20.14
338.305	116.39
338.517	-47.44
338.729	134.82
338.942	161.45
339.154	3.75
339.367	40.62
339.579	-6.49
339.792	-29.01
340.004	73.39
340.217	16.04
340.429	89.77
340.641	-20.82
340.854	-51.54
341.066	-6.49
341.278	147.11
341.491	177.83
341.703	42.67
341.915	30.38
342.128	30.38
342.34	48.81
342.552	-16.73
342.764	7.85
342.977	75.43
343.189	71.34
343.401	59.05
343.613	-14.68
343.826	3.75
344.038	-29.01
344.25	75.43
344.462	-8.53
344.674	24.23
344.886	30.38
345.099	34.47
345.311	48.81
345.523	11.95
345.735	-55.64
345.947	65.19
346.159	89.77
346.371	100.01
346.583	16.04
346.795	241.32
347.007	3.75
347.219	157.35
347.431	-31.06
347.643	79.53
347.855	13.99
348.067	91.82
348.279	-4.44
348.491	7.85
348.703	124.58
348.915	59.05
349.127	-43.35
349.339	77.48
349.551	-10.58
349.763	3.75
349.975	32.43
350.187	104.11
350.399	138.92
350.61	79.53
350.822	-16.73
351.034	24.23
351.246	36.52
351.458	79.53
351.669	5.8
351.881	83.63
352.093	132.78
352.305	108.2
352.517	9.9
352.728	145.06
352.94	22.19
353.152	61.1
353.363	-14.68
353.575	89.77
353.787	243.37
353.999	75.43
354.21	79.53
354.422	-10.58
354.633	24.23
354.845	132.78
355.057	-2.39
355.268	46.76
355.48	75.43
355.692	40.62
355.903	100.01
356.115	-63.83
356.326	-94.55
356.538	163.5
356.749	54.95
356.961	120.49
357.172	149.16
357.384	34.47
357.595	274.09
357.807	57
358.018	7.85
358.23	28.33
358.441	286.37
358.653	46.76
358.864	87.72
359.075	67.24
359.287	63.15
359.498	118.44
359.709	136.87
359.921	44.71
360.132	97.96
360.344	5.8
360.555	42.67
360.766	-22.87
360.977	-35.16
361.189	118.44
361.4	93.87
361.611	102.06
361.823	112.3
362.034	100.01
362.245	-59.73
362.456	73.39
362.667	128.68
362.879	-4.44
363.09	87.72
363.301	16.04
363.512	120.49
363.723	-92.5
363.935	71.34
364.146	116.39
364.357	42.67
364.568	61.1
364.779	-59.73
364.99	77.48
365.201	16.04
365.412	104.11
365.623	36.52
365.834	85.67
366.045	28.33
366.256	81.58
366.467	54.95
366.678	22.19
366.889	-24.92
367.1	30.38
367.311	229.03
367.522	38.57
367.733	91.82
367.944	165.54
368.155	11.95
368.366	108.2
368.577	140.97
368.788	167.59
368.999	-6.49
369.209	71.34
369.42	194.22
369.631	257.7
369.842	140.97
370.053	40.62
370.264	104.11
370.474	30.38
370.685	77.48
370.896	59.05
371.107	136.87
371.317	71.34
371.528	89.77
371.739	128.68
371.95	126.63
372.16	169.64
372.371	-33.11
372.582	57
372.792	124.58
373.003	93.87
373.214	44.71
373.424	106.15
373.635	-0.34
373.846	106.15
374.056	83.63
374.267	42.67
374.477	112.3
374.688	-20.82
374.898	112.3
375.109	75.43
375.319	71.34
375.53	173.74
375.74	91.82
375.951	-20.82
376.161	50.86
376.372	134.82
376.582	1.71
376.793	30.38
377.003	42.67
377.214	95.91
377.424	54.95
377.635	42.67
377.845	-39.25
378.055	206.5
378.266	-35.16
378.476	63.15
378.686	110.25
378.897	143.02
379.107	136.87
379.317	69.29
379.528	-24.92
379.738	126.63
379.948	-14.68
380.158	112.3
380.369	59.05
380.579	102.06
380.789	-102.74
380.999	89.77
381.21	57
381.42	188.07
381.63	18.09
381.84	52.91
382.05	34.47
382.261	124.58
382.471	194.22
382.681	79.53
382.891	83.63
383.101	81.58
383.311	52.91
383.521	75.43
383.731	116.39
383.941	79.53
384.151	112.3
384.361	22.19
384.571	83.63
384.781	100.01
384.991	247.46
385.201	210.6
385.411	140.97
385.621	67.24
385.831	85.67
386.041	24.23
386.251	5.8
386.461	81.58
386.671	54.95
386.881	63.15
387.091	22.19
387.301	112.3
387.511	40.62
387.72	163.5
387.93	130.73
388.14	-67.92
388.35	145.06
388.56	136.87
388.769	239.27
388.979	57
389.189	-16.73
389.399	79.53
389.609	81.58
389.818	34.47
390.028	95.91
390.238	83.63
390.447	83.63
390.657	173.74
390.867	28.33
391.076	1.71
391.286	54.95
391.496	50.86
391.705	22.19
391.915	120.49
392.125	124.58
392.334	61.1
392.544	128.68
392.753	81.58
392.963	1.71
393.172	83.63
393.382	-24.92
393.591	183.98
393.801	-41.3
394.01	126.63
394.22	91.82
394.429	77.48
394.639	67.24
394.848	85.67
395.058	9.9
395.267	67.24
395.477	143.02
395.686	161.45
395.895	239.27
396.105	226.98
396.314	3.75
396.524	1.71
396.733	136.87
396.942	114.34
397.152	112.3
397.361	196.26
397.57	106.15
397.78	9.9
397.989	157.35
398.198	253.61
398.407	75.43
398.617	50.86
398.826	24.23
399.035	81.58
399.244	153.26
399.453	126.63
399.663	24.23
399.872	-18.77
400.081	-31.06
400.29	134.82
400.499	-47.44
400.708	134.82
400.917	73.39
401.127	-37.2
401.336	71.34
401.545	198.31
401.754	120.49
401.963	100.01
402.172	28.33
402.381	-61.78
402.59	87.72
402.799	116.39
403.008	159.4
403.217	75.43
403.426	79.53
403.635	-45.4
403.844	83.63
404.053	34.47
404.262	54.95
404.471	171.69
404.68	38.57
404.888	95.91
405.097	34.47
405.306	40.62
405.515	138.92
405.724	69.29
405.933	128.68
406.142	54.95
406.35	36.52
406.559	34.47
406.768	69.29
406.977	140.97
407.185	116.39
407.394	91.82
407.603	18.09
407.812	120.49
408.02	87.72
408.229	134.82
408.438	5.8
408.646	-63.83
408.855	-8.53
409.064	93.87
409.272	87.72
409.481	120.49
409.69	16.04
409.898	36.52
410.107	52.91
410.315	95.91
410.524	32.43
410.733	61.1
410.941	75.43
411.15	155.3
411.358	85.67
411.567	155.3
411.775	83.63
411.984	100.01
412.192	100.01
412.401	18.09
412.609	161.45
412.818	138.92
413.026	48.81
413.234	104.11
413.443	61.1
413.651	46.76
413.86	-41.3
414.068	188.07
414.276	218.79
414.485	-18.77
414.693	186.02
414.901	181.93
415.11	126.63
415.318	52.91
415.526	71.34
415.734	85.67
415.943	77.48
416.151	67.24
416.359	-18.77
416.567	126.63
416.776	128.68
416.984	106.15
417.192	183.98
417.4	36.52
417.608	34.47
417.817	-51.54
418.025	79.53
418.233	159.4
418.441	-37.2
418.649	-0.34
418.857	161.45
419.065	165.54
419.273	11.95
419.481	112.3
419.689	63.15
419.897	67.24
420.105	18.09
420.313	128.68
420.521	134.82
420.729	112.3
420.937	40.62
421.145	50.86
421.353	175.78
421.561	132.78
421.769	50.86
421.977	114.34
422.185	138.92
422.393	93.87
422.601	126.63
422.809	126.63
423.017	42.67
423.224	130.73
423.432	183.98
423.64	69.29
423.848	243.37
424.056	34.47
424.263	145.06
424.471	34.47
424.679	116.39
424.887	48.81
425.094	108.2
425.302	75.43
425.51	112.3
425.718	112.3
425.925	138.92
426.133	7.85
426.341	263.85
426.548	97.96
426.756	143.02
426.964	124.58
427.171	-14.68
427.379	120.49
427.586	95.91
427.794	112.3
428.001	171.69
428.209	147.11
428.417	226.98
428.624	93.87
428.832	136.87
429.039	145.06
429.247	190.12
429.454	171.69
429.662	190.12
429.869	126.63
430.076	181.93
430.284	202.41
430.491	239.27
430.699	206.5
430.906	224.94
431.114	233.13
431.321	151.21
431.528	130.73
431.736	192.17
431.943	208.55
432.15	188.07
432.358	245.41
432.565	313
432.772	46.76
432.979	302.76
433.187	212.65
433.394	173.74
433.601	161.45
433.808	188.07
434.016	247.46
434.223	206.5
434.43	267.94
434.637	345.77
434.844	313
435.052	288.42
435.259	286.37
435.466	286.37
435.673	341.67
435.88	325.29
436.087	442.02
436.294	433.83
436.501	403.11
436.708	370.34
436.915	392.87
437.122	386.72
437.329	325.29
437.537	370.34
437.743	403.11
437.95	528.03
438.157	491.17
438.364	403.11
438.571	458.4
438.778	542.37
438.985	618.15
439.192	523.94
439.399	552.61
439.606	538.27
439.813	616.1
440.02	761.5
440.227	806.56
440.433	667.3
440.64	667.3
440.847	673.44
441.054	679.58
441.261	798.37
441.467	655.01
441.674	700.06
441.881	835.23
442.088	781.98
442.294	999.07
442.501	925.34
442.708	1044.12
442.914	949.92
443.121	997.02
443.328	1085.08
443.534	1148.57
443.741	1068.7
443.948	1042.07
444.154	1230.49
444.361	1318.55
444.568	1195.67
444.774	1330.84
444.981	1320.6
445.187	1461.91
445.394	1386.13
445.6	1386.13
445.807	1519.25
446.013	1617.55
446.22	1517.2
446.426	1658.51
446.633	1812.11
446.839	2029.2
447.046	1697.42
447.252	1937.04
447.459	1998.48
447.665	2092.68
447.871	2244.23
448.078	2408.07
448.284	2244.23
448.491	2498.18
448.697	2533
448.903	2567.81
449.11	2666.11
449.316	2662.02
449.522	2924.16
449.728	3055.23
449.935	3159.67
450.141	3141.24
450.347	3366.52
450.553	3292.79
450.76	3518.07
450.966	3675.76
451.172	3784.3
451.378	3980.91
451.584	3923.57
451.791	4300.39
451.997	4224.62
452.203	4449.89
452.409	4615.78
452.615	4904.54
452.821	4781.67
453.027	4828.77
453.233	5314.14
453.44	5164.64
453.646	5496.41
453.852	5885.52
454.058	6065.74
454.264	6219.34
454.47	6635.08
454.676	6526.54
454.882	7140.93
455.088	6772.29
455.294	7253.56
455.5	7736.88
455.705	8275.5
455.911	8093.23
456.117	8500.78
456.323	8775.2
456.529	8812.07
456.735	9518.62
456.941	9575.96
457.147	10184.21
457.352	10411.53
457.558	10755.59
457.764	11380.22
457.97	11394.56
458.176	12045.81
458.381	12559.85
458.587	13012.45
458.793	13585.88
458.999	13295.07
459.204	15326.66
459.41	15586.75
459.616	15584.7
459.821	16420.27
460.027	17243.56
460.233	17882.52
460.438	18046.36
460.644	19074.44
460.85	19283.33
461.055	20112.76
461.261	21101.93
461.466	20456.82
461.672	20878.7
461.878	23522.63
462.083	23074.12
462.289	23620.93
462.494	24479.03
462.7	24837.42
462.905	25285.93
463.111	27176.2
463.316	28456.18
463.522	28851.44
463.727	30088.42
463.932	31077.58
464.138	32144.58
464.343	33074.35
464.549	33340.59
464.754	36052.1
464.959	36738.17
465.165	37590.13
465.37	36945.01
465.575	37387.38
465.781	39816.27
465.986	40965.18
466.191	40295.49
466.397	40598.59
466.602	39621.71
466.807	41745.45
467.012	42705.95
467.218	43346.97
467.423	43330.58
467.628	44633.09
467.833	46904.29
468.038	46023.66
468.244	45206.52
468.449	47580.12
468.654	46377.96
468.859	46369.77
469.064	46719.97
469.269	45652.98
469.474	46040.04
469.679	46742.5
469.885	45655.03
470.09	46185.45
470.295	47000.54
470.5	45583.35
470.705	46263.27
470.91	45063.16
471.115	44506.12
471.32	45034.49
471.525	44788.74
471.73	43695.12
471.935	43527.19
472.139	41679.92
472.344	42277.93
472.549	41108.54
472.754	40936.51
472.959	39879.75
473.164	38765.66
473.369	37725.29
473.574	39316.56
473.778	38349.92
473.983	37299.31
474.188	37076.08
474.393	35175.57
474.598	34849.94
474.802	34432.16
475.007	33959.08
475.212	33543.34
475.417	32451.77
475.621	31788.23
475.826	31317.2
476.031	30923.99
476.235	30186.72
476.44	30520.54
476.645	29795.56
476.849	29529.32
477.054	28706.04
477.259	28216.57
477.463	28259.58
477.668	27411.72
477.872	27440.39
478.077	26750.23
478.282	25822.5
478.486	25578.79
478.691	25382.18
478.895	25068.84
479.1	24919.34
479.304	24929.58
479.509	23946.56
479.713	23981.37
479.918	23905.6
480.122	23250.25
480.326	23323.97
480.531	23244.1
480.735	22887.76
480.94	22863.18
481.144	23416.13
481.348	22125.91
481.553	22299.99
481.757	21804.38
481.961	22142.3
482.166	22093.15
482.37	21638.5
482.574	21079.4
482.778	21472.61
482.983	21249.38
483.187	21257.57
483.391	20921.71
483.595	20557.17
483.8	20182.39
484.004	20217.21
484.208	20217.21
484.412	19783.04
484.616	19797.37
484.821	19631.49
485.025	19064.2
485.229	19307.91
485.433	18826.64
485.637	18869.64
485.841	18206.1
486.045	18470.29
486.249	17712.54
486.453	17726.88
486.657	17124.77
486.861	17251.75
487.065	16606.64
487.269	16641.45
487.473	16035.25
487.677	16373.17
487.881	16098.74
488.085	15478.21
488.289	15566.27
488.493	15293.89
488.697	15058.37
488.901	14747.08
489.105	14300.62
489.309	14122.45
489.512	14065.11
489.716	13579.74
489.92	13385.18
490.124	13026.79
490.328	13180.39
490.531	12645.87
490.735	12375.53
490.939	12289.52
491.143	12121.59
491.346	11775.48
491.55	11769.34
491.754	11326.97
491.958	11445.76
492.161	11208.19
492.365	10937.86
492.569	10702.34
492.772	10374.67
492.976	10540.55
493.18	10300.94
493.383	10143.25
493.587	10071.57
493.79	9799.19
493.994	9643.54
494.197	9633.3
494.401	9324.06
494.605	9172.51
494.808	9487.9
495.012	9336.35
495.215	9190.94
495.419	9303.58
495.622	9002.53
495.825	8787.49
496.029	8893.99
496.232	8932.9
496.436	8797.73
496.639	8984.1
496.843	8695.33
497.046	8848.93
497.249	8814.12
497.453	8609.32
497.656	8652.33
497.859	8744.49
498.063	8846.88
498.266	8762.92
498.469	8732.2
498.673	8693.29
498.876	8922.66
499.079	8769.06
499.282	8670.76
499.485	9268.77
499.689	8910.37
499.892	9014.82
500.095	8947.23
500.298	9000.48
500.501	8980
500.705	9106.98
500.908	9322.01
501.111	9248.29
501.314	9184.8
501.517	9303.58
501.72	9561.62
501.923	9283.1
502.126	9618.97
502.329	9819.67
502.532	9977.36
502.735	9911.83
502.938	9993.75
503.141	10051.09
503.344	10003.99
503.547	10241.55
503.75	10399.24
503.953	10528.27
504.156	10503.69
504.359	10792.45
504.562	10814.98
504.765	11064.83
504.968	11382.27
505.17	11419.13
505.373	11537.91
505.576	11757.05
505.779	11918.84
505.982	12006.9
506.185	12377.58
506.387	12185.07
506.59	12596.71
506.793	12672.49
506.996	12828.13
507.198	13381.09
507.401	13614.55
507.604	13741.53
507.807	14073.3
508.009	14349.78
508.212	14394.83
508.415	14558.67
508.617	15140.29
508.82	15422.91
509.022	15508.93
509.225	15998.39
509.428	16139.7
509.63	16485.81
509.833	16776.62
510.035	17608.09
510.238	17558.94
510.44	18056.6
510.643	18455.95
510.845	18783.63
511.048	18810.25
511.25	19690.88
511.453	19772.8
511.655	20678
511.858	21128.55
512.06	21474.66
512.262	21777.76
512.465	21953.88
512.667	22748.5
512.87	23285.06
513.072	23620.93
513.274	24028.48
513.477	24403.25
513.679	25521.45
513.881	25791.78
514.084	26342.68
514.286	26871.06
514.488	27487.5
514.69	28497.14
514.893	28959.98
515.095	29394.15
515.297	29836.52
515.499	30166.24
515.701	31177.93
515.904	31542.47
516.106	32457.92
516.308	33012.91
516.51	33633.45
516.712	34036.9
516.914	35019.92
517.116	35650.7
517.318	35929.22
517.52	36766.84
517.722	37618.8
517.925	38163.56
518.127	39224.4
518.329	39672.91
518.531	39504.98
518.733	40989.75
518.935	41352.24
519.136	41983.02
519.338	42552.35
519.54	43101.21
519.742	44246.02
519.944	44352.52
520.146	45536.24
520.348	46033.9
520.55	46492.65
520.752	47012.83
520.954	47463.38
521.155	47844.3
521.357	49101.76
521.559	49476.54
521.761	49949.62
521.963	50232.24
522.164	50539.43
522.366	51018.66
522.568	51886.99
522.77	51635.09
522.971	52630.41
523.173	52362.12
523.375	53164.93
523.576	52607.88
523.778	53324.67
523.98	53568.38
524.181	54338.41
524.383	53896.05
524.584	54834.02
524.786	54205.3
524.988	54203.25
525.189	54797.16
525.391	55126.88
525.592	54739.82
525.794	55298.91
525.995	55038.82
526.197	54629.23
526.398	54786.92
526.6	55053.15
526.801	55073.63
527.003	54754.15
527.204	54279.02
527.406	54365.04
527.607	53922.68
527.808	54000.5
528.01	53101.44
528.211	53238.65
528.412	53574.52
528.614	53226.37
528.815	52489.1
529.016	52573.06
529.218	51604.38
529.419	51538.84
529.62	50709.41
529.822	51108.77
530.023	50375.59
530.224	49677.24
530.425	49449.91
530.626	48518.09
530.828	48235.47
531.029	48397.26
531.23	47287.26
531.431	46816.22
531.632	46857.18
531.833	46064.62
532.035	45509.62
532.236	45220.86
532.437	44606.47
532.638	43774.99
532.839	43602.96
533.04	42671.14
533.241	42142.76
533.442	42542.11
533.643	41522.23
533.844	40414.27
534.045	40330.31
534.246	39312.47
534.447	39218.26
534.648	38599.77
534.849	38452.32
535.05	37342.32
535.251	36955.25
535.451	36598.91
535.652	36271.23
535.853	35263.63
536.054	35525.77
536.255	34892.95
536.456	33823.91
536.657	33881.25
536.857	33555.63
537.058	32910.52
537.259	32752.82
537.46	32169.15
537.66	31653.06
537.861	31565
538.062	30737.62
538.263	30418.14
538.463	30043.36
538.664	29875.43
538.865	29416.68
539.065	29240.56
539.266	28660.98
539.466	28654.84
539.667	27655.43
539.868	27911.42
540.068	27211.02
540.269	26998.03
540.469	26924.3
540.67	26219.8
540.87	25900.32
541.071	25574.69
541.271	25533.73
541.472	25189.67
541.672	24646.96
541.873	24646.96
542.073	23911.74
542.274	24476.98
542.474	23956.8
542.675	23256.39
542.875	23637.31
543.075	23092.55
543.276	22539.6
543.476	22594.9
543.676	22248.79
543.877	22226.26
544.077	21900.64
544.277	21538.15
544.478	21202.28
544.678	21355.88
544.878	20628.85
545.078	20553.07
545.279	19940.73
545.479	19676.54
545.679	19918.2
545.879	19742.08
546.079	19176.84
546.28	19225.99
546.48	18720.14
546.68	18789.77
546.88	18658.7
547.08	18556.3
547.28	18179.48
547.48	17843.61
547.68	17970.58
547.88	17384.87
548.081	17241.51
548.281	16620.97
548.481	16772.52
548.681	16836.01
548.881	16334.26
549.081	16164.28
549.28	15900.09
549.48	15984.05
549.68	15404.48
549.88	15556.03
550.08	15121.86
550.28	14839.24
550.48	14679.5
550.68	14665.16
550.88	14411.21
551.08	14265.81
551.279	13897.17
551.479	13712.86
551.679	13594.08
551.879	13055.46
552.079	13170.15
552.278	12854.76
552.478	12826.09
552.678	12596.71
552.878	12418.54
553.077	12256.75
553.277	11793.91
553.477	11736.57
553.676	11898.36
553.876	11419.13
554.076	11279.87
554.275	11304.45
554.475	10720.78
554.674	11077.12
554.874	10798.6
555.074	10507.79
555.273	10466.83
555.473	10139.15
555.672	9930.26
555.872	9704.98
556.071	9535
556.271	9545.24
556.47	9319.96
556.67	9156.13
556.869	8973.86
557.068	8828.45
557.268	8660.52
557.467	8615.46
557.667	8418.86
557.866	8263.21
558.065	8324.65
558.265	8013.36
558.464	7808.56
558.663	7984.69
558.863	7704.12
559.062	7761.46
559.261	7364.15
559.461	7454.26
559.66	7263.8
559.859	7024.19
560.058	6960.7
560.258	6800.96
560.457	6673.99
560.656	6889.03
560.855	6411.85
561.054	6641.22
561.253	6360.65
561.453	6362.7
561.652	6190.67
561.851	6086.22
562.05	5928.53
562.249	5930.58
562.448	6131.28
562.647	5686.87
562.846	5656.15
563.045	5535.32
563.244	5445.21
563.443	5484.12
563.642	5195.36
563.841	5152.35
564.04	5211.74
564.239	5148.25
564.438	5070.43
564.637	4853.34
564.836	4994.65
565.035	4798.05
565.234	4730.47
565.432	4546.15
565.631	4664.93
565.83	4580.96
566.029	4306.54
566.228	4497
566.427	4232.81
566.625	4185.71
566.824	4154.99
567.023	4161.13
567.222	4107.88
567.42	4011.63
567.619	3970.67
567.818	3845.74
568.016	4025.97
568.215	3753.59
568.414	3894.9
568.612	3700.34
568.811	3745.39
569.01	3493.49
569.208	3526.26
569.407	3495.54
569.605	3376.76
569.804	3300.98
570.002	3434.1
570.201	3264.12
570.4	3272.31
570.598	3260.02
570.797	3073.66
570.995	3147.39
571.193	3053.18
571.392	3126.91
571.59	2893.44
571.789	2987.65
571.987	3028.6
572.186	2840.19
572.384	2709.12
572.582	2684.55
572.781	2670.21
572.979	2657.92
573.177	2584.2
573.376	2561.67
573.574	2616.96
573.772	2614.91
573.971	2440.84
574.169	2395.78
574.367	2377.35
574.565	2307.72
574.763	2367.11
574.962	2279.05
575.16	2219.66
575.358	2072.2
575.556	2131.59
575.754	2225.8
575.952	2080.39
576.151	2115.21
576.349	2057.87
576.547	1998.48
576.745	1875.6
576.943	1982.09
577.141	1975.95
577.339	1752.72
577.537	1969.8
577.735	1873.55
577.933	1824.4
578.131	1699.47
578.329	1930.89
578.527	1781.39
578.725	1662.61
578.923	1545.88
579.121	1726.1
579.319	1519.25
579.516	1488.53
579.714	1760.91
579.912	1617.55
580.11	1484.44
580.308	1517.2
580.506	1451.67
580.704	1402.52
580.901	1414.81
581.099	1488.53
581.297	1394.33
581.495	1468.05
581.692	1279.64
581.89	1492.63
582.088	1349.27
582.285	1291.93
582.483	1169.05
582.681	1271.45
582.878	1230.49
583.076	1275.54
583.274	1271.45
583.471	1328.79
583.669	1119.9
583.866	1062.55
584.064	1091.23
584.262	1048.22
584.459	1058.46
584.657	1138.33
584.854	1212.06
585.052	1123.99
585.249	1156.76
585.447	1066.65
585.644	898.72
585.841	1050.27
586.039	980.64
586.236	1033.88
586.434	890.53
586.631	859.81
586.828	890.53
587.026	976.54
587.223	931.48
587.42	859.81
587.618	1027.74
587.815	925.34
588.012	880.29
588.21	841.37
588.407	962.2
588.604	843.42
588.801	775.84
588.999	779.93
589.196	841.37
589.393	784.03
589.59	800.41
589.787	888.48
589.984	818.85
590.182	833.18
590.379	716.45
590.576	738.98
590.773	722.59
590.97	734.88
591.167	802.46
591.364	820.89
591.561	657.06
591.758	814.75
591.955	831.13
592.152	720.54
592.349	652.96
592.546	759.46
592.743	673.44
592.94	716.45
593.137	800.41
593.334	822.94
593.531	808.61
593.727	767.65
593.924	734.88
594.121	716.45
594.318	769.69
594.515	859.81
594.712	855.71
594.908	818.85
595.105	757.41
595.302	777.89
595.499	863.9
595.696	906.91
595.892	814.75
596.089	888.48
596.286	781.98
596.482	968.35
596.679	931.48
596.876	792.22
597.072	1085.08
597.269	943.77
597.466	921.24
597.662	980.64
597.859	986.78
598.055	1042.07
598.252	1148.57
598.448	1173.14
598.645	1167
598.841	1248.92
599.038	1308.31
599.234	1371.8
599.431	1359.51
599.627	1388.18
599.824	1490.58
600.02	1502.87
600.217	1476.24
600.413	1607.31
600.609	1572.5
600.806	2016.91
601.002	1871.5
601.198	1885.84
601.395	2100.87
601.591	1988.24
601.787	2217.61
601.984	2305.67
602.18	2320.01
602.376	2268.81
602.572	2498.18
602.769	2633.35
602.965	2563.72
603.161	2834.05
603.357	2823.81
603.553	3022.46
603.75	2973.31
603.946	3108.48
604.142	3274.36
604.338	3505.78
604.534	3391.09
604.73	3573.36
604.926	3559.03
605.122	3901.04
605.318	3829.36
605.514	4097.64
605.71	4140.65
605.906	4222.57
606.102	4349.54
606.298	4523.62
606.494	4642.4
606.69	4843.1
606.886	5047.9
607.082	4972.13
607.278	5207.64
607.474	5320.28
607.67	5518.93
607.866	5467.74
608.062	5883.47
608.257	6020.69
608.453	6008.4
608.649	6358.6
608.845	6538.82
609.041	6581.83
609.236	6884.93
609.432	7022.14
609.628	7388.73
609.824	7409.21
610.019	7521.85
610.215	7726.64
610.411	8171.05
610.606	8281.64
610.802	8449.58
610.998	8617.51
611.193	8799.78
611.389	9018.91
611.584	9604.63
611.78	9428.51
611.976	9868.82
612.171	10135.06
612.367	10534.41
612.562	10618.38
612.758	10812.93
612.953	10907.14
613.149	11365.89
613.344	11642.36
613.539	12248.56
613.735	12518.89
613.93	12781.03
614.126	12934.63
614.321	13526.49
614.517	13833.69
614.712	14054.87
614.907	14296.53
615.103	14974.41
615.298	15130.05
615.493	15693.24
615.688	15553.98
615.884	16551.34
616.079	16643.5
616.274	17237.41
616.47	17505.7
616.665	18238.87
616.86	18558.35
617.055	18822.54
617.25	19412.35
617.445	19858.81
617.641	19991.93
617.836	20696.43
618.031	21335.4
618.226	22011.23
618.421	22154.58
618.616	23092.55
618.811	23039.31
619.006	24159.55
619.201	24296.76
619.396	25128.24
619.591	25328.94
619.786	26000.67
619.981	26164.51
620.176	27421.96
620.371	27673.86
620.566	28218.62
620.761	28720.37
620.956	29793.51
621.151	29848.8
621.346	30715.09
621.541	30784.72
621.735	32038.08
621.93	32269.5
622.125	32980.15
622.32	33180.85
622.515	33881.25
622.709	34815.13
622.904	35329.17
623.099	36078.72
623.294	36705.4
623.488	36813.94
623.683	37665.9
623.878	38268
624.072	38984.79
624.267	39640.14
624.462	40000.58
624.656	40262.72
624.851	41428.02
625.046	41985.07
625.24	42247.21
625.435	42759.2
625.629	43555.86
625.824	44119.05
626.018	44432.39
626.213	44106.76
626.407	45640.69
626.602	45548.53
626.796	46623.72
626.991	47303.64
627.185	47021.02
627.38	47246.3
627.574	47694.8
627.768	47680.47
627.963	48012.24
628.157	48282.57
628.352	48917.44
628.546	48184.27
628.74	49060.8
628.935	48518.09
629.129	48495.56
629.323	48210.89
629.517	48309.19
629.712	47668.18
629.906	47545.3
630.1	46803.94
630.294	47031.26
630.489	46869.47
630.683	46054.38
630.877	44606.47
631.071	44293.13
631.265	43809.81
631.459	42941.47
631.653	41931.82
631.848	41315.38
632.042	40430.66
632.236	39289.94
632.43	38108.26
632.624	37641.32
632.818	36273.28
633.012	35253.39
633.206	33946.79
633.4	32920.76
633.594	32064.71
633.788	31327.44
633.982	30354.65
634.176	29361.39
634.369	28058.88
634.563	26750.23
634.757	25830.69
634.951	24665.39
635.145	23864.64
635.339	23061.83
635.533	22060.38
635.726	21423.46
635.92	20362.61
636.114	19656.06
636.308	18560.4
636.501	18146.71
636.695	17391.01
636.889	16364.98
637.083	15818.17
637.276	14998.98
637.47	14536.14
637.664	14005.72
637.857	13274.59
638.051	13116.9
638.244	12578.28
638.438	12002.8
638.632	11425.28
638.825	10860.04
639.019	10376.72
639.212	10077.71
639.406	9793.05
639.599	9315.87
639.793	9145.89
639.986	8470.06
640.18	8437.29
640.373	7976.5
640.567	7790.13
640.76	7577.14
640.954	7224.89
641.147	6903.36
641.34	6561.35
641.534	6571.59
641.727	6149.71
641.92	5928.53
642.114	5543.51
642.307	5324.38
642.5	5086.81
642.694	5041.76
642.887	4916.83
643.08	4789.86
643.273	4480.61
643.467	4300.39
643.66	4021.87
643.853	3982.96
644.046	3786.35
644.239	3559.03
644.432	3507.83
644.626	3397.24
644.819	3149.43
645.012	3147.39
645.205	3069.56
645.398	2891.39
645.591	2813.57
645.784	2596.48
645.977	2612.87
646.17	2455.17
646.363	2383.49
646.556	2145.93
646.749	2301.58
646.942	2211.46
647.135	2098.83
647.328	2129.55
647.521	1973.9
647.714	1898.13
647.907	1801.87
648.099	1638.03
648.292	1744.53
648.485	1513.11
648.678	1531.54
648.871	1404.57
649.064	1459.86
649.256	1341.08
649.449	1293.97
649.642	1242.78
649.835	1191.58
650.027	1154.71
650.22	1220.25
650.413	1052.31
650.605	1087.13
650.798	886.43
650.991	984.73
651.183	964.25
651.376	974.49
651.568	898.72
651.761	790.17
651.954	831.13
652.146	767.65
652.339	806.56
652.531	949.92
652.724	669.34
652.916	671.39
653.109	642.72
653.301	806.56
653.494	710.3
653.686	638.62
653.879	734.88
654.071	558.75
654.263	556.71
654.456	464.55
654.648	677.54
654.84	579.23
655.033	501.41
655.225	618.15
655.417	439.97
655.61	632.48
655.802	560.8
655.994	521.89
656.186	423.59
656.379	521.89
656.571	433.83
656.763	431.78
656.955	399.01
657.148	423.59
657.34	487.08
657.532	335.53
657.724	399.01
657.916	423.59
658.108	439.97
658.3	423.59
658.492	448.16
658.684	431.78
658.876	431.78
659.068	298.66
659.26	239.27
659.452	239.27
659.644	364.2
659.836	401.06
660.028	272.04
660.22	239.27
660.412	288.42
660.604	229.03
660.796	306.85
660.988	358.05
661.18	272.04
661.372	374.44
661.563	298.66
661.755	323.24
661.947	198.31
662.139	188.07
662.331	274.09
662.522	229.03
662.714	143.02
662.906	245.41
663.097	245.41
663.289	208.55
663.481	87.72
663.673	208.55
663.864	216.74
664.056	308.9
664.247	188.07
664.439	247.46
664.631	239.27
664.822	210.6
665.014	212.65
665.205	159.4
665.397	220.84
665.588	202.41
665.78	212.65
665.971	186.02
666.163	183.98
666.354	192.17
666.546	130.73
666.737	245.41
666.929	196.26
667.12	143.02
667.311	235.18
667.503	167.59
667.694	173.74
667.885	198.31
668.077	202.41
668.268	81.58
668.459	140.97
668.651	153.26
668.842	200.36
669.033	112.3
669.224	59.05
669.416	329.38
669.607	171.69
669.798	110.25
669.989	308.9
670.18	136.87
670.371	235.18
670.563	138.92
670.754	253.61
670.945	210.6
671.136	214.7
671.327	157.35
671.518	233.13
671.709	290.47
671.9	177.83
672.091	233.13
672.282	226.98
672.473	220.84
672.664	91.82
672.855	212.65
673.046	147.11
673.237	265.89
673.428	159.4
673.619	237.22
673.809	169.64
674	255.65
674.191	313
674.382	167.59
674.573	130.73
674.764	235.18
674.954	220.84
675.145	77.48
675.336	163.5
675.527	188.07
675.717	110.25
675.908	190.12
676.099	147.11
676.289	161.45
676.48	159.4
676.671	181.93
676.861	167.59
677.052	243.37
677.243	173.74
677.433	93.87
677.624	212.65
677.814	208.55
678.005	128.68
678.195	353.96
678.386	108.2
678.576	249.51
678.767	161.45
678.957	157.35
679.148	226.98
679.338	296.61
679.529	229.03
679.719	196.26
679.909	278.18
680.1	169.64
680.29	251.56
680.481	65.19
680.671	263.85
680.861	243.37
681.052	323.24
681.242	153.26
681.432	296.61
681.622	224.94
681.813	63.15
682.003	220.84
682.193	169.64
682.383	249.51
682.573	181.93
682.764	278.18
682.954	159.4
683.144	298.66
683.334	206.5
683.524	196.26
683.714	310.95
683.904	327.33
684.094	216.74
684.284	222.89
684.474	333.48
684.664	274.09
684.854	261.8
685.044	206.5
685.234	235.18
685.424	267.94
685.614	173.74
685.804	347.81
685.994	292.52
686.184	263.85
686.374	280.23
686.564	276.13
686.753	329.38
686.943	155.3
687.133	126.63
687.323	190.12
687.513	272.04
687.702	294.57
687.892	245.41
688.082	282.28
688.272	278.18
688.461	165.54
688.651	351.91
688.841	274.09
689.03	206.5
689.22	261.8
689.41	274.09
689.599	298.66
689.789	294.57
689.979	323.24
690.168	251.56
690.358	288.42
690.547	333.48
690.737	302.76
690.926	310.95
691.116	198.31
691.305	306.85
691.495	335.53
691.684	138.92
691.874	153.26
692.063	276.13
692.252	286.37
692.442	265.89
692.631	206.5
692.82	165.54
693.01	278.18
693.199	274.09
693.388	235.18
693.578	226.98
693.767	233.13
693.956	333.48
694.146	161.45
694.335	251.56
694.524	245.41
694.713	222.89
694.902	239.27
695.092	210.6
695.281	245.41
695.47	222.89
695.659	188.07
695.848	319.14
696.037	245.41
696.226	280.23
696.415	259.75
696.604	313
696.793	356.01
696.982	243.37
697.171	382.63
697.36	200.36
697.549	202.41
697.738	177.83
697.927	231.08
698.116	116.39
698.305	220.84
698.494	276.13
698.683	216.74
698.872	427.68
699.061	116.39
699.25	226.98
699.438	247.46
699.627	157.35
699.816	382.63
700.005	161.45
700.193	245.41
700.382	202.41
700.571	310.95
700.76	233.13
700.948	292.52
701.137	218.79
701.326	263.85
701.514	198.31
701.703	251.56
701.892	210.6
702.08	437.92
702.269	175.78
702.457	91.82
702.646	143.02
702.834	198.31
703.023	212.65
703.212	306.85
703.4	274.09
703.589	243.37
703.777	196.26
703.965	147.11
704.154	245.41
704.342	110.25
704.531	124.58
704.719	200.36
704.907	259.75
705.096	161.45
705.284	145.06
705.472	257.7
705.661	253.61
705.849	255.65
706.037	229.03
706.226	269.99
706.414	288.42
706.602	188.07
706.79	249.51
706.979	249.51
707.167	304.81
707.355	200.36
707.543	259.75
707.731	296.61
707.919	239.27
708.107	171.69
708.296	116.39
708.484	173.74
708.672	300.71
708.86	290.47
709.048	276.13
709.236	161.45
709.424	296.61
709.612	157.35
709.8	67.24
709.988	204.46
710.176	226.98
710.364	351.91
710.551	214.7
710.739	245.41
710.927	224.94
711.115	243.37
711.303	325.29
711.491	319.14
711.679	222.89
711.866	296.61
712.054	226.98
712.242	224.94
712.43	319.14
712.617	206.5
712.805	253.61
712.993	196.26
713.181	183.98
713.368	239.27
713.556	198.31
713.744	143.02
713.931	421.54
714.119	257.7
714.306	241.32
714.494	208.55
714.682	241.32
714.869	36.52
715.057	249.51
715.244	124.58
715.432	175.78
715.619	226.98
715.807	153.26
715.994	87.72
716.182	208.55
716.369	292.52
716.556	327.33
716.744	120.49
716.931	122.54
717.119	304.81
717.306	243.37
717.493	329.38
717.681	241.32
717.868	165.54
718.055	321.19
718.242	233.13
718.43	284.33
718.617	343.72
718.804	192.17
718.991	333.48
719.179	278.18
719.366	237.22
719.553	290.47
719.74	196.26
719.927	177.83
720.114	313
720.301	190.12
720.488	87.72
720.676	177.83
720.863	253.61
721.05	384.68
721.237	208.55
721.424	313
721.611	222.89
721.798	181.93
721.985	165.54
722.172	345.77
722.358	214.7
722.545	263.85
722.732	378.53
722.919	341.67
723.106	251.56
723.293	140.97
723.48	163.5
723.667	177.83
723.853	241.32
724.04	339.62
724.227	353.96
724.414	218.79
724.6	267.94
724.787	296.61
724.974	358.05
725.161	269.99
725.347	292.52
725.534	286.37
725.72	296.61
725.907	280.23
726.094	362.15
726.28	186.02
726.467	267.94
726.653	165.54
726.84	382.63
727.027	403.11
727.213	269.99
727.4	308.9
727.586	257.7
727.773	280.23
727.959	243.37
728.145	243.37
728.332	261.8
728.518	239.27
728.705	259.75
728.891	294.57
729.077	327.33
729.264	167.59
729.45	198.31
729.636	274.09
729.823	245.41
730.009	343.72
730.195	274.09
730.382	358.05
730.568	224.94
730.754	269.99
730.94	188.07
731.126	255.65
731.313	288.42
731.499	233.13
731.685	296.61
731.871	362.15
732.057	167.59
732.243	372.39
732.429	306.85
732.615	444.07
732.801	298.66
732.987	233.13
733.173	341.67
733.359	208.55
733.545	331.43
733.731	284.33
733.917	448.16
734.103	296.61
734.289	276.13
734.475	222.89
734.661	353.96
734.847	276.13
735.033	278.18
735.219	347.81
735.404	327.33
735.59	226.98
735.776	224.94
735.962	267.94
736.148	274.09
736.333	409.25
736.519	294.57
736.705	286.37
736.89	267.94
737.076	231.08
737.262	194.22
737.447	296.61
737.633	224.94
737.819	331.43
738.004	257.7
738.19	349.86
738.375	319.14
738.561	304.81
738.747	300.71
738.932	259.75
739.118	501.41
739.303	425.64
739.489	276.13
739.674	222.89
739.859	212.65
740.045	382.63
740.23	310.95
740.416	173.74
740.601	274.09
740.786	315.05
740.972	212.65
741.157	239.27
741.342	194.22
741.528	175.78
741.713	245.41
741.898	278.18
742.084	274.09
742.269	339.62
742.454	335.53
742.639	325.29
742.824	231.08
743.01	360.1
743.195	435.88
743.38	337.57
743.565	263.85
743.75	280.23
743.935	294.57
744.12	347.81
744.305	186.02
744.49	171.69
744.675	220.84
744.86	269.99
745.045	257.7
745.23	310.95
745.415	335.53
745.6	439.97
745.785	280.23
745.97	374.44
746.155	331.43
746.34	280.23
746.525	278.18
746.71	300.71
746.895	267.94
747.079	255.65
747.264	224.94
747.449	269.99
747.634	298.66
747.819	243.37
748.003	214.7
748.188	179.88
748.373	286.37
748.557	308.9
748.742	313
748.927	214.7
749.111	224.94
749.296	173.74
749.481	206.5
749.665	200.36
749.85	284.33
750.034	253.61
750.219	290.47
750.404	220.84
750.588	302.76
750.773	239.27
750.957	220.84
751.141	218.79
751.326	294.57
751.51	198.31
751.695	196.26
751.879	249.51
752.064	343.72
752.248	147.11
752.432	280.23
752.617	183.98
752.801	310.95
752.985	179.88
753.17	290.47
753.354	294.57
753.538	286.37
753.722	128.68
753.907	222.89
754.091	175.78
754.275	167.59
754.459	149.16
754.643	100.01
754.828	235.18
755.012	188.07
755.196	122.54
755.38	286.37
755.564	175.78
755.748	194.22
755.932	198.31
756.116	265.89
756.3	149.16
756.484	202.41
756.668	179.88
756.852	89.77
757.036	165.54
757.22	208.55
757.404	214.7
757.588	181.93
757.772	188.07
757.956	145.06
758.14	269.99
758.323	81.58
758.507	245.41
758.691	136.87
758.875	245.41
759.059	222.89
759.242	95.91
759.426	206.5
759.61	208.55
759.794	108.2
759.977	181.93
760.161	325.29
760.345	212.65
760.528	222.89
760.712	136.87
760.895	255.65
761.079	69.29
761.263	110.25
761.446	91.82
761.63	93.87
761.813	198.31
761.997	59.05
762.18	130.73
762.364	124.58
762.547	32.43
762.731	34.47
762.914	134.82
763.098	145.06
763.281	112.3
763.464	149.16
763.648	188.07
763.831	75.43
764.015	61.1
764.198	163.5
764.381	136.87
764.564	210.6
764.748	202.41
764.931	218.79
765.114	79.53
765.297	229.03
765.481	75.43
765.664	171.69
765.847	85.67
766.03	253.61
766.213	52.91
766.397	110.25
766.58	3.75
766.763	251.56
766.946	54.95
767.129	104.11
767.312	22.19
767.495	126.63
767.678	-18.77
767.861	136.87
768.044	122.54
768.227	97.96
768.41	128.68
768.593	126.63
768.776	128.68
768.959	87.72
769.142	161.45
769.324	52.91
769.507	134.82
769.69	102.06
769.873	5.8
770.056	267.94
770.239	132.78
770.421	231.08
770.604	97.96
770.787	171.69
770.97	116.39
771.152	59.05
771.335	87.72
771.518	110.25
771.7	85.67
771.883	196.26
772.066	89.77
772.248	128.68
772.431	175.78
772.613	126.63
772.796	50.86
772.978	149.16
773.161	177.83
773.343	75.43
773.526	48.81
773.708	-0.34
773.891	7.85
774.073	11.95
774.256	48.81
774.438	272.04
774.621	57
774.803	112.3
774.985	69.29
775.168	143.02
775.35	20.14
775.532	132.78
775.715	34.47
775.897	177.83
776.079	67.24
776.261	91.82
776.444	75.43
776.626	67.24
776.808	67.24
776.99	-41.3
777.173	122.54
777.355	52.91
777.537	110.25
777.719	40.62
777.901	-8.53
778.083	50.86
778.265	9.9
778.447	165.54
778.629	16.04
778.811	145.06
778.993	75.43
779.175	237.22
779.357	71.34
779.539	7.85
779.721	69.29
779.903	71.34
780.085	-39.25
780.267	77.48
780.449	57
780.631	91.82
780.812	247.46
780.994	85.67
781.176	57
781.358	32.43
781.54	11.95
781.721	73.39
781.903	50.86
782.085	9.9
782.267	118.44
782.448	69.29
782.63	-57.68
782.812	71.34
782.993	100.01
783.175	108.2
783.357	59.05
783.538	124.58
783.72	22.19
783.901	48.81
784.083	26.28
784.264	48.81
784.446	-14.68
784.627	-6.49
784.809	87.72
784.99	85.67
785.172	75.43
785.353	118.44
785.535	71.34
785.716	-20.82
785.897	-2.39
786.079	85.67
786.26	83.63
786.441	128.68
786.623	-51.54
786.804	-0.34
786.985	30.38
787.167	77.48
787.348	26.28
787.529	-6.49
787.71	128.68
787.891	81.58
788.073	3.75
788.254	-41.3
788.435	104.11
788.616	3.75
788.797	-53.59
788.978	71.34
789.159	95.91
789.34	108.2
789.522	34.47
789.703	38.57
789.884	110.25
790.065	85.67
790.246	177.83
790.427	32.43
790.607	118.44
790.788	118.44
790.969	40.62
791.15	102.06
791.331	26.28
791.512	-92.5
791.693	44.71
791.874	-20.82
792.054	233.13
792.235	57
792.416	-35.16
792.597	61.1
792.778	100.01
792.958	18.09
793.139	46.76
793.32	5.8
793.5	-14.68
793.681	149.16
793.862	22.19
794.042	67.24
794.223	-106.84
794.404	-14.68
794.584	-22.87
794.765	75.43
794.945	-33.11
795.126	149.16
795.306	169.64
795.487	57
795.667	46.76
795.848	42.67
796.028	-10.58
796.209	69.29
796.389	122.54
796.57	18.09
796.75	11.95
796.93	26.28
797.111	11.95
797.291	102.06
797.471	102.06
797.652	-20.82
797.832	-14.68
798.012	161.45
798.192	65.19
798.373	-82.26
798.553	-8.53
798.733	85.67
798.913	-20.82
799.093	-4.44
799.274	75.43
799.454	22.19
799.634	79.53
799.814	136.87
799.994	106.15
800.174	116.39
800.354	-2.39
800.534	16.04
800.714	32.43
800.894	-29.01
801.074	-137.56
801.254	-78.16
801.434	-39.25
801.614	26.28
801.794	-8.53
801.974	1832.59
802.154	-4.44
802.334	114.34
802.514	-88.4
802.693	5.8
802.873	44.71
803.053	128.68
803.233	71.34
803.413	-47.44
803.592	5.8
803.772	-43.35
803.952	-24.92
804.131	-55.64
804.311	34.47
804.491	124.58
804.67	18.09
804.85	3.75
805.03	116.39
805.209	155.3
805.389	-31.06
805.568	-22.87
805.748	24.23
805.928	40.62
806.107	124.58
806.287	59.05
806.466	61.1
806.646	63.15
806.825	75.43
807.004	-37.2
807.184	79.53
807.363	52.91
807.543	61.1
807.722	30.38
807.901	95.91
808.081	104.11
808.26	-131.41
808.439	93.87
808.619	28.33
808.798	-55.64
808.977	11.95
809.156	100.01
809.336	59.05
809.515	263.85
809.694	-137.56
809.873	50.86
810.052	38.57
810.231	118.44
810.411	108.2
810.59	112.3
810.769	46.76
810.948	-20.82
811.127	-43.35
811.306	-16.73
811.485	-43.35
811.664	177.83
811.843	38.57
812.022	61.1
812.201	-37.2
812.38	-20.82
812.559	-31.06
812.737	13.99
812.916	-35.16
813.095	16.04
813.274	59.05
813.453	-14.68
813.632	93.87
813.811	97.96
813.989	-88.4
814.168	13.99
814.347	-147.8
814.526	50.86
814.704	124.58
814.883	153.26
815.062	-29.01
815.24	32.43
815.419	-53.59
815.598	136.87
815.776	-47.44
815.955	-18.77
816.133	-125.27
816.312	54.95
816.49	-10.58
816.669	100.01
816.847	46.76
817.026	118.44
817.204	11.95
817.383	-47.44
817.561	-26.96
817.74	42.67
817.918	-14.68
818.097	-6.49
818.275	-90.45
818.453	54.95
818.632	44.71
818.81	9.9
818.988	-6.49
819.167	-26.96
819.345	26.28
819.523	-92.5
819.701	69.29
819.879	48.81
820.058	69.29
820.236	69.29
820.414	48.81
820.592	32.43
820.77	59.05
820.948	11.95
821.127	-67.92
821.305	38.57
821.483	36.52
821.661	67.24
821.839	48.81
822.017	-37.2
822.195	7.85
822.373	140.97
822.551	-51.54
822.729	22.19
822.907	-18.77
823.085	110.25
823.262	44.71
823.44	-20.82
823.618	16.04
823.796	18.09
823.974	-33.11
824.152	-39.25
824.329	11.95
824.507	-8.53
824.685	54.95
824.863	57
825.04	13.99
825.218	100.01
825.396	1.71
825.574	34.47
825.751	69.29
825.929	83.63
826.107	-72.02
826.284	-29.01
826.462	9.9
826.639	-0.34
826.817	-59.73
826.994	18.09
827.172	-57.68
827.349	175.78
827.527	79.53
827.704	34.47
827.882	81.58
828.059	9.9
828.237	9.9
828.414	24.23
828.591	-96.6
828.769	-24.92
828.946	-47.44
829.124	106.15
829.301	161.45
829.478	-24.92
829.655	50.86
829.833	-18.77
830.01	-172.37
830.187	30.38
830.364	52.91
830.542	40.62
830.719	122.54
830.896	36.52
831.073	67.24
831.25	69.29
831.427	122.54
831.604	108.2
831.782	-10.58
831.959	106.15
832.136	1.71
832.313	16.04
832.49	5.8
832.667	48.81
832.844	-45.4
833.021	50.86
833.198	40.62
833.374	-45.4
833.551	67.24
833.728	-4.44
833.905	-18.77
834.082	-104.79
834.259	20.14
834.436	124.58
834.612	5.8
834.789	79.53
834.966	-37.2
835.143	26.28
835.319	-63.83
835.496	75.43
835.673	24.23
835.85	22.19
836.026	67.24
836.203	124.58
836.38	-33.11
836.556	36.52
836.733	-92.5
836.909	155.3
837.086	-26.96
837.262	-131.41
837.439	13.99
837.616	-65.88
837.792	57
837.968	-51.54
838.145	-88.4
838.321	-16.73
838.498	28.33
838.674	44.71
838.851	79.53
839.027	81.58
839.203	134.82
839.38	71.34
839.556	-20.82
839.732	120.49
839.909	30.38
840.085	63.15
840.261	-6.49
840.437	-41.3
840.614	-84.31
840.79	83.63
840.966	124.58
841.142	-10.58
841.318	20.14
841.494	71.34
841.671	93.87
841.847	-43.35
842.023	-94.55
842.199	20.14
842.375	122.54
842.551	-104.79
842.727	-90.45
842.903	124.58
843.079	-55.64
843.255	89.77
843.431	3.75
843.607	83.63
843.783	-117.08
843.959	-22.87
844.134	-98.64
844.31	145.06
844.486	-92.5
844.662	-69.97
844.838	44.71
845.013	63.15
845.189	77.48
845.365	-35.16
845.541	30.38
845.716	95.91
845.892	18.09
846.068	22.19
846.244	-43.35
846.419	100.01
846.595	-67.92
846.77	-31.06
846.946	128.68
847.122	-86.36
847.297	-6.49
847.473	50.86
847.648	-121.17
847.824	-4.44
847.999	-166.23
848.175	-47.44
848.35	40.62
848.526	110.25
848.701	-4.44
848.876	71.34
849.052	63.15
849.227	34.47
849.403	22.19
849.578	-2.39
849.753	13.99
849.929	63.15
850.104	-12.63
850.279	-33.11
850.454	-76.12
850.63	52.91
850.805	3.75
850.98	59.05
851.155	-51.54
851.33	65.19
851.505	-24.92
851.681	108.2
851.856	-35.16
852.031	13.99
852.206	34.47
852.381	1.71
852.556	-2.39
852.731	75.43
852.906	-4.44
853.081	26.28
853.256	5.8
853.431	-16.73
853.606	9.9
853.781	-16.73
853.956	-141.65
854.131	20.14
854.305	22.19
854.48	-78.16
854.655	-24.92
854.83	-92.5
855.005	-47.44
855.18	48.81
855.354	-0.34
855.529	18.09
855.704	-45.4
855.879	48.81
856.053	-49.49
856.228	42.67
856.403	-98.64
856.577	-92.5
856.752	-102.74
856.926	18.09
857.101	18.09
857.276	-63.83
857.45	73.39
857.625	132.78
857.799	-51.54
857.974	16.04
858.148	-123.22
858.323	-26.96
858.497	-33.11
858.672	-45.4
858.846	22.19
859.02	79.53
859.195	-90.45
859.369	-76.12
859.543	46.76
859.718	46.76
859.892	46.76
860.066	44.71
860.241	16.04
860.415	-43.35
860.589	79.53
860.763	75.43
860.938	-35.16
861.112	18.09
861.286	-29.01
861.46	48.81
861.634	42.67
861.808	83.63
861.982	-49.49
862.157	-57.68
862.331	-78.16
862.505	-78.16
862.679	-47.44
862.853	-16.73
863.027	-67.92
863.201	102.06
863.375	-4.44
863.549	-10.58
863.722	57
863.896	140.97
864.07	-61.78
864.244	-6.49
864.418	57
864.592	11.95
864.766	32.43
864.939	16.04
865.113	-33.11
865.287	126.63
865.461	-26.96
865.634	-4.44
865.808	-41.3
865.982	-10.58
866.156	26.28
866.329	-43.35
866.503	-12.63
866.676	46.76
866.85	22.19
867.024	-31.06
867.197	16.04
867.371	3.75
867.544	32.43
867.718	-0.34
867.891	140.97
868.065	-102.74
868.238	-6.49
868.412	83.63
868.585	24.23
868.759	-51.54
868.932	-31.06
869.105	-98.64
869.279	-43.35
869.452	-31.06
869.625	97.96
869.799	-4.44
869.972	-86.36
870.145	-41.3
870.319	-0.34
870.492	5.8
870.665	-20.82
870.838	-55.64
871.011	-47.44
871.185	-45.4
871.358	-69.97
871.531	67.24
871.704	-41.3
871.877	-4.44
872.05	-84.31
872.223	-94.55
872.396	16.04
872.569	114.34
872.742	-41.3
872.915	50.86
873.088	-6.49
873.261	-55.64
873.434	48.81
873.607	40.62
873.78	30.38
873.953	-18.77
874.126	77.48
874.299	63.15
874.471	-51.54
874.644	-2.39
874.817	5.8
874.99	57
875.163	1.71
875.335	59.05
875.508	-29.01
875.681	145.06
875.853	-88.4
876.026	44.71
876.199	59.05
876.371	28.33
876.544	22.19
876.717	38.57
876.889	3.75
877.062	5.8
877.234	-72.02
877.407	-57.68
877.579	-31.06
877.752	59.05
877.924	128.68
878.097	46.76
878.269	1.71
878.442	83.63
878.614	30.38
878.786	54.95
878.959	87.72
879.131	-4.44
879.303	-172.37
879.476	-12.63
879.648	83.63
879.82	-39.25
879.993	-57.68
880.165	-22.87
880.337	-16.73
880.509	52.91
880.681	-131.41
880.854	-43.35
881.026	79.53
881.198	91.82
881.37	-115.03
881.542	-6.49
881.714	-51.54
881.886	-63.83
882.058	11.95
882.23	-29.01
882.402	-51.54
882.574	75.43
882.746	114.34
882.918	114.34
883.09	32.43
883.262	-16.73
883.434	1.71
883.606	-127.32
883.778	7.85
883.95	79.53
884.122	-59.73
884.293	67.24
884.465	28.33
884.637	93.87
884.809	-31.06
884.98	24.23
885.152	106.15
885.324	32.43
885.496	-84.31
885.667	69.29
885.839	-18.77
886.011	112.3
886.182	26.28
886.354	71.34
886.525	-14.68
886.697	28.33
886.869	-26.96
887.04	-39.25
887.212	83.63
887.383	110.25
887.555	-41.3
887.726	-37.2
887.897	-14.68
888.069	46.76
888.24	46.76
888.412	-6.49
888.583	59.05
888.754	-24.92
888.926	-145.75
889.097	3.75
889.268	-96.6
889.44	9.9
889.611	-123.22
889.782	-57.68
889.953	-43.35
890.125	50.86
890.296	-92.5
890.467	-10.58
890.638	-55.64
890.809	9.9
890.98	-49.49
891.151	73.39
891.323	1.71
891.494	1.71
891.665	44.71
891.836	-31.06
892.007	16.04
892.178	69.29
892.349	91.82
892.52	-14.68
892.691	106.15
892.862	-31.06
893.032	-18.77
893.203	11.95
893.374	34.47
893.545	114.34
893.716	-96.6
893.887	126.63
894.057	-2.39
894.228	28.33
894.399	-67.92
894.57	52.91
894.74	-94.55
894.911	59.05
895.082	-33.11
895.253	16.04
895.423	-39.25
895.594	67.24
895.764	59.05
895.935	-35.16
896.106	26.28
896.276	-84.31
896.447	-6.49
896.617	-41.3
896.788	-76.12
896.958	-4.44
897.129	22.19
897.299	-96.6
897.47	134.82
897.64	89.77
897.81	18.09
897.981	22.19
898.151	-63.83
898.322	59.05
898.492	42.67
898.662	-12.63
898.832	-53.59
899.003	1.71
899.173	-18.77
899.343	-49.49
899.513	-59.73
