Data from USB4F104151__303__11-21-39-225.txt Node

Date: Wed Feb 26 11:21:39 EST 2025
User: louis
Spectrometer: USB4F10415
Trigger mode: 4
Integration Time (sec): 1.000000E-1
Scans to average: 1
Electric dark correction enabled: true
Nonlinearity correction enabled: false
Boxcar width: 0
XAxis mode: Wavelengths
Number of Pixels in Spectrum: 3648
>>>>>Begin Spectral Data<<<<<
178.204	-405.67
178.424	-405.67
178.644	-405.67
178.864	-356.52
179.084	-428.2
179.304	-65.71
179.524	-12.46
179.744	24.4
179.964	38.74
180.184	46.93
180.404	55.12
180.624	-22.7
180.844	-45.23
181.064	-34.99
181.283	20.31
181.503	1.88
181.723	-6.31
181.943	-102.57
182.163	173.91
182.383	-39.08
182.602	65.36
182.822	147.28
183.042	55.12
183.262	-39.08
183.482	-28.84
183.701	-2.22
183.921	106.32
184.141	44.88
184.361	1.88
184.58	100.18
184.8	61.27
185.02	-86.19
185.239	71.51
185.459	94.04
185.679	75.6
185.898	-20.65
186.118	34.64
186.338	102.23
186.557	132.95
186.777	-82.09
186.997	28.5
187.216	-22.7
187.436	147.28
187.655	106.32
187.875	85.84
188.095	63.32
188.314	69.46
188.534	12.12
188.753	32.6
188.973	122.71
189.192	186.19
189.412	57.17
189.631	32.6
189.851	75.6
190.07	110.42
190.29	-37.03
190.509	5.97
190.729	40.79
190.948	100.18
191.168	239.44
191.387	55.12
191.607	67.41
191.826	89.94
192.045	55.12
192.265	26.45
192.484	42.84
192.704	14.17
192.923	-98.47
193.142	182.1
193.362	124.76
193.581	96.08
193.8	14.17
194.02	57.17
194.239	18.26
194.458	14.17
194.678	-77.99
194.897	8.02
195.116	28.5
195.335	57.17
195.555	128.85
195.774	8.02
195.993	73.56
196.212	1.88
196.432	-28.84
196.651	28.5
196.87	34.64
197.089	231.25
197.308	16.21
197.528	114.52
197.747	-26.79
197.966	94.04
198.185	110.42
198.404	-24.75
198.623	40.79
198.842	69.46
199.062	139.09
199.281	71.51
199.5	-2.22
199.719	67.41
199.938	77.65
200.157	61.27
200.376	137.04
200.595	137.04
200.814	57.17
201.033	14.17
201.252	157.52
201.471	151.38
201.69	44.88
201.909	16.21
202.128	65.36
202.347	83.8
202.566	46.93
202.785	-125.1
203.004	14.17
203.223	274.26
203.442	85.84
203.661	-26.79
203.879	104.28
204.098	175.95
204.317	22.36
204.536	36.69
204.755	128.85
204.974	73.56
205.193	-14.51
205.411	178
205.63	132.95
205.849	98.13
206.068	3.93
206.287	-6.31
206.505	69.46
206.724	91.99
206.943	-32.94
207.162	-12.46
207.381	83.8
207.599	8.02
207.818	32.6
208.037	-69.8
208.255	44.88
208.474	-20.65
208.693	143.19
208.911	-2.22
209.13	40.79
209.349	81.75
209.567	79.7
209.786	108.37
210.005	89.94
210.223	124.76
210.442	-80.04
210.661	16.21
210.879	79.7
211.098	-20.65
211.316	14.17
211.535	114.52
211.753	65.36
211.972	112.47
212.191	-0.17
212.409	-16.55
212.628	75.6
212.846	-45.23
213.065	-47.27
213.283	77.65
213.502	8.02
213.72	30.55
213.938	30.55
214.157	-37.03
214.375	120.66
214.594	-41.13
214.812	5.97
215.031	8.02
215.249	51.03
215.467	18.26
215.686	59.22
215.904	132.95
216.122	-8.36
216.341	83.8
216.559	16.21
216.778	114.52
216.996	147.28
217.214	-82.09
217.432	10.07
217.651	-41.13
217.869	73.56
218.087	-47.27
218.306	-49.32
218.524	46.93
218.742	-6.31
218.96	102.23
219.179	-61.61
219.397	-37.03
219.615	221.01
219.833	51.03
220.051	-55.47
220.27	161.62
220.488	91.99
220.706	71.51
220.924	-37.03
221.142	-37.03
221.36	63.32
221.578	-10.41
221.796	16.21
222.015	22.36
222.233	57.17
222.451	149.33
222.669	3.93
222.887	44.88
223.105	44.88
223.323	20.31
223.541	-0.17
223.759	67.41
223.977	59.22
224.195	157.52
224.413	89.94
224.631	77.65
224.849	75.6
225.067	171.86
225.285	-0.17
225.503	16.21
225.721	-90.28
225.939	8.02
226.157	100.18
226.375	202.58
226.592	-28.84
226.81	10.07
227.028	149.33
227.246	79.7
227.464	53.08
227.682	167.76
227.9	83.8
228.117	67.41
228.335	61.27
228.553	87.89
228.771	-26.79
228.989	112.47
229.206	71.51
229.424	-37.03
229.642	14.17
229.86	-20.65
230.077	126.8
230.295	53.08
230.513	98.13
230.731	57.17
230.948	171.86
231.166	149.33
231.384	10.07
231.601	-47.27
231.819	204.63
232.037	20.31
232.254	-41.13
232.472	38.74
232.689	18.26
232.907	161.62
233.125	5.97
233.342	18.26
233.56	3.93
233.777	16.21
233.995	20.31
234.213	106.32
234.43	153.43
234.648	36.69
234.865	-86.19
235.083	94.04
235.3	-12.46
235.518	55.12
235.735	79.7
235.953	30.55
236.17	18.26
236.388	48.98
236.605	16.21
236.822	110.42
237.04	87.89
237.257	-14.51
237.475	-28.84
237.692	71.51
237.909	40.79
238.127	48.98
238.344	28.5
238.562	153.43
238.779	8.02
238.996	-34.99
239.214	42.84
239.431	51.03
239.648	-39.08
239.865	104.28
240.083	153.43
240.3	-45.23
240.517	28.5
240.735	34.64
240.952	104.28
241.169	85.84
241.386	46.93
241.603	-16.55
241.821	18.26
242.038	79.7
242.255	91.99
242.472	-28.84
242.689	75.6
242.907	91.99
243.124	120.66
243.341	-37.03
243.558	16.21
243.775	-20.65
243.992	20.31
244.209	40.79
244.426	231.25
244.643	42.84
244.86	34.64
245.078	83.8
245.295	44.88
245.512	34.64
245.729	1.88
245.946	61.27
246.163	83.8
246.38	-59.56
246.597	18.26
246.814	20.31
247.031	73.56
247.248	-6.31
247.464	81.75
247.681	-47.27
247.898	3.93
248.115	61.27
248.332	-57.51
248.549	153.43
248.766	141.14
248.983	5.97
249.2	42.84
249.417	79.7
249.633	-67.75
249.85	40.79
250.067	38.74
250.284	24.4
250.501	85.84
250.717	94.04
250.934	-45.23
251.151	30.55
251.368	20.31
251.585	59.22
251.801	55.12
252.018	-34.99
252.235	71.51
252.451	-116.9
252.668	-8.36
252.885	128.85
253.102	132.95
253.318	34.64
253.535	3.93
253.752	-2.22
253.968	22.36
254.185	-20.65
254.401	24.4
254.618	71.51
254.835	-51.37
255.051	161.62
255.268	34.64
255.484	91.99
255.701	30.55
255.917	89.94
256.134	1.88
256.351	55.12
256.567	-55.47
256.784	30.55
257	-55.47
257.217	28.5
257.433	53.08
257.65	-24.75
257.866	42.84
258.082	-80.04
258.299	24.4
258.515	36.69
258.732	-20.65
258.948	36.69
259.165	12.12
259.381	-63.66
259.597	120.66
259.814	26.45
260.03	-14.51
260.246	16.21
260.463	196.43
260.679	104.28
260.895	10.07
261.112	55.12
261.328	-0.17
261.544	40.79
261.761	85.84
261.977	-45.23
262.193	-26.79
262.409	36.69
262.626	57.17
262.842	40.79
263.058	-37.03
263.274	94.04
263.49	67.41
263.707	120.66
263.923	98.13
264.139	-77.99
264.355	48.98
264.571	143.19
264.787	44.88
265.004	63.32
265.22	24.4
265.436	-16.55
265.652	57.17
265.868	61.27
266.084	-18.6
266.3	44.88
266.516	-12.46
266.732	30.55
266.948	1.88
267.164	5.97
267.38	104.28
267.596	132.95
267.812	149.33
268.028	-30.89
268.244	-65.71
268.46	16.21
268.676	38.74
268.892	71.51
269.108	-24.75
269.324	5.97
269.54	-12.46
269.756	36.69
269.972	-39.08
270.188	89.94
270.403	-39.08
270.619	-8.36
270.835	132.95
271.051	10.07
271.267	-32.94
271.483	-45.23
271.698	106.32
271.914	57.17
272.13	73.56
272.346	24.4
272.562	65.36
272.777	59.22
272.993	67.41
273.209	3.93
273.425	89.94
273.64	3.93
273.856	36.69
274.072	-61.61
274.287	-47.27
274.503	61.27
274.719	40.79
274.934	38.74
275.15	-75.95
275.366	1.88
275.581	44.88
275.797	77.65
276.012	-6.31
276.228	-37.03
276.444	180.05
276.659	118.61
276.875	-71.85
277.09	16.21
277.306	-45.23
277.521	46.93
277.737	-26.79
277.952	67.41
278.168	24.4
278.383	128.85
278.599	12.12
278.814	130.9
279.03	57.17
279.245	128.85
279.461	16.21
279.676	38.74
279.892	16.21
280.107	-34.99
280.322	-8.36
280.538	-18.6
280.753	96.08
280.969	-10.41
281.184	67.41
281.399	100.18
281.615	1.88
281.83	57.17
282.045	-8.36
282.26	22.36
282.476	26.45
282.691	204.63
282.906	116.56
283.122	63.32
283.337	-92.33
283.552	87.89
283.767	-12.46
283.983	98.13
284.198	1.88
284.413	20.31
284.628	-26.79
284.843	14.17
285.058	-0.17
285.274	-92.33
285.489	-8.36
285.704	194.39
285.919	-20.65
286.134	40.79
286.349	83.8
286.564	10.07
286.779	135
286.995	-47.27
287.21	-41.13
287.425	71.51
287.64	-10.41
287.855	85.84
288.07	-0.17
288.285	192.34
288.5	118.61
288.715	137.04
288.93	34.64
289.145	-73.9
289.36	65.36
289.575	-12.46
289.79	153.43
290.004	-63.66
290.219	114.52
290.434	-67.75
290.649	-57.51
290.864	-8.36
291.079	22.36
291.294	139.09
291.509	22.36
291.724	-65.71
291.938	20.31
292.153	63.32
292.368	10.07
292.583	44.88
292.798	102.23
293.012	-16.55
293.227	67.41
293.442	-8.36
293.657	96.08
293.871	67.41
294.086	69.46
294.301	163.67
294.516	57.17
294.73	53.08
294.945	-45.23
295.16	57.17
295.374	155.47
295.589	143.19
295.804	-45.23
296.018	63.32
296.233	124.76
296.447	-2.22
296.662	-10.41
296.877	85.84
297.091	40.79
297.306	-26.79
297.52	22.36
297.735	38.74
297.949	63.32
298.164	53.08
298.378	53.08
298.593	5.97
298.807	40.79
299.022	59.22
299.236	159.57
299.451	-49.32
299.665	46.93
299.88	-2.22
300.094	100.18
300.309	36.69
300.523	55.12
300.737	-45.23
300.952	85.84
301.166	141.14
301.381	-10.41
301.595	-16.55
301.809	12.12
302.024	-47.27
302.238	-8.36
302.452	96.08
302.667	-16.55
302.881	190.29
303.095	89.94
303.309	57.17
303.524	32.6
303.738	36.69
303.952	8.02
304.166	40.79
304.381	-94.38
304.595	186.19
304.809	-53.42
305.023	63.32
305.237	38.74
305.452	-20.65
305.666	57.17
305.88	96.08
306.094	61.27
306.308	48.98
306.522	128.85
306.736	32.6
306.95	112.47
307.164	75.6
307.379	-32.94
307.593	128.85
307.807	79.7
308.021	116.56
308.235	87.89
308.449	-114.86
308.663	-6.31
308.877	227.15
309.091	67.41
309.305	44.88
309.519	-8.36
309.733	130.9
309.947	-86.19
310.161	106.32
310.374	135
310.588	151.38
310.802	-14.51
311.016	-10.41
311.23	116.56
311.444	-16.55
311.658	83.8
311.872	132.95
312.085	81.75
312.299	100.18
312.513	163.67
312.727	114.52
312.941	-82.09
313.154	89.94
313.368	18.26
313.582	16.21
313.796	65.36
314.009	20.31
314.223	106.32
314.437	91.99
314.651	38.74
314.864	-67.75
315.078	42.84
315.292	-43.18
315.505	-6.31
315.719	59.22
315.933	100.18
316.146	18.26
316.36	-53.42
316.573	126.8
316.787	91.99
317.001	87.89
317.214	14.17
317.428	36.69
317.641	-45.23
317.855	-34.99
318.068	24.4
318.282	44.88
318.495	225.11
318.709	77.65
318.922	65.36
319.136	149.33
319.349	126.8
319.563	16.21
319.776	-4.27
319.99	-75.95
320.203	104.28
320.417	28.5
320.63	96.08
320.843	194.39
321.057	44.88
321.27	16.21
321.483	46.93
321.697	178
321.91	110.42
322.124	77.65
322.337	55.12
322.55	-14.51
322.763	30.55
322.977	-10.41
323.19	14.17
323.403	-4.27
323.617	75.6
323.83	130.9
324.043	-49.32
324.256	87.89
324.469	5.97
324.683	61.27
324.896	-4.27
325.109	5.97
325.322	-82.09
325.535	28.5
325.748	139.09
325.962	67.41
326.175	83.8
326.388	1.88
326.601	94.04
326.814	12.12
327.027	94.04
327.24	112.47
327.453	-30.89
327.666	91.99
327.879	108.37
328.092	114.52
328.305	75.6
328.518	22.36
328.731	63.32
328.944	38.74
329.157	87.89
329.37	-57.51
329.583	75.6
329.796	231.25
330.009	-32.94
330.222	145.24
330.435	40.79
330.648	-34.99
330.861	24.4
331.073	38.74
331.286	85.84
331.499	26.45
331.712	-57.51
331.925	85.84
332.138	-49.32
332.35	96.08
332.563	46.93
332.776	151.38
332.989	14.17
333.202	-2.22
333.414	128.85
333.627	8.02
333.84	65.36
334.053	94.04
334.265	-4.27
334.478	-61.61
334.691	-12.46
334.903	89.94
335.116	-12.46
335.329	69.46
335.541	61.27
335.754	143.19
335.966	16.21
336.179	-8.36
336.392	-16.55
336.604	16.21
336.817	38.74
337.029	-12.46
337.242	-14.51
337.454	114.52
337.667	10.07
337.88	216.91
338.092	73.56
338.305	46.93
338.517	18.26
338.729	55.12
338.942	85.84
339.154	-59.56
339.367	-32.94
339.579	32.6
339.792	-51.37
340.004	87.89
340.217	63.32
340.429	63.32
340.641	-24.75
340.854	-141.48
341.066	126.8
341.278	83.8
341.491	132.95
341.703	75.6
341.915	8.02
342.128	22.36
342.34	-0.17
342.552	-125.1
342.764	14.17
342.977	-45.23
343.189	8.02
343.401	83.8
343.613	-53.42
343.826	42.84
344.038	-65.71
344.25	24.4
344.462	-67.75
344.674	46.93
344.886	20.31
345.099	79.7
345.311	-73.9
345.523	55.12
345.735	-88.23
345.947	81.75
346.159	5.97
346.371	3.93
346.583	20.31
346.795	137.04
347.007	40.79
347.219	5.97
347.431	1.88
347.643	81.75
347.855	-6.31
348.067	151.38
348.279	-45.23
348.491	24.4
348.703	8.02
348.915	12.12
349.127	-6.31
349.339	63.32
349.551	89.94
349.763	104.28
349.975	3.93
350.187	108.37
350.399	116.56
350.61	108.37
350.822	-53.42
351.034	30.55
351.246	94.04
351.458	44.88
351.669	32.6
351.881	85.84
352.093	116.56
352.305	137.04
352.517	-10.41
352.728	122.71
352.94	85.84
353.152	55.12
353.363	-12.46
353.575	79.7
353.787	149.33
353.999	28.5
354.21	184.15
354.422	24.4
354.633	-39.08
354.845	71.51
355.057	8.02
355.268	34.64
355.48	137.04
355.692	-106.67
355.903	16.21
356.115	-18.6
356.326	-71.85
356.538	135
356.749	130.9
356.961	196.43
357.172	55.12
357.384	-63.66
357.595	241.49
357.807	32.6
358.018	53.08
358.23	1.88
358.441	184.15
358.653	89.94
358.864	46.93
359.075	-28.84
359.287	38.74
359.498	55.12
359.709	122.71
359.921	18.26
360.132	65.36
360.344	61.27
360.555	-0.17
360.766	38.74
360.977	16.21
361.189	100.18
361.4	24.4
361.611	106.32
361.823	145.24
362.034	18.26
362.245	-96.43
362.456	-4.27
362.667	118.61
362.879	1.88
363.09	38.74
363.301	104.28
363.512	36.69
363.723	24.4
363.935	-26.79
364.146	182.1
364.357	1.88
364.568	48.98
364.779	-90.28
364.99	169.81
365.201	5.97
365.412	139.09
365.623	-61.61
365.834	24.4
366.045	65.36
366.256	126.8
366.467	100.18
366.678	-2.22
366.889	34.64
367.1	20.31
367.311	114.52
367.522	38.74
367.733	65.36
367.944	77.65
368.155	20.31
368.366	22.36
368.577	102.23
368.788	87.89
368.999	26.45
369.209	-8.36
369.42	247.63
369.631	257.87
369.842	87.89
370.053	-49.32
370.264	91.99
370.474	-8.36
370.685	102.23
370.896	26.45
371.107	139.09
371.317	83.8
371.528	-10.41
371.739	79.7
371.95	75.6
372.16	69.46
372.371	-92.33
372.582	-41.13
372.792	-6.31
373.003	12.12
373.214	147.28
373.424	83.8
373.635	22.36
373.846	198.48
374.056	-12.46
374.267	75.6
374.477	38.74
374.688	-26.79
374.898	38.74
375.109	73.56
375.319	-6.31
375.53	59.22
375.74	94.04
375.951	79.7
376.161	85.84
376.372	71.51
376.582	-28.84
376.793	48.98
377.003	-6.31
377.214	-49.32
377.424	104.28
377.635	-34.99
377.845	-63.66
378.055	225.11
378.266	-18.6
378.476	-26.79
378.686	73.56
378.897	-10.41
379.107	137.04
379.317	48.98
379.528	36.69
379.738	79.7
379.948	-22.7
380.158	87.89
380.369	73.56
380.579	3.93
380.789	10.07
380.999	110.42
381.21	91.99
381.42	178
381.63	5.97
381.84	110.42
382.05	91.99
382.261	104.28
382.471	79.7
382.681	34.64
382.891	184.15
383.101	63.32
383.311	8.02
383.521	-22.7
383.731	42.84
383.941	98.13
384.151	81.75
384.361	5.97
384.571	102.23
384.781	30.55
384.991	180.05
385.201	186.19
385.411	137.04
385.621	69.46
385.831	28.5
386.041	63.32
386.251	-39.08
386.461	89.94
386.671	65.36
386.881	100.18
387.091	-8.36
387.301	83.8
387.511	100.18
387.72	32.6
387.93	171.86
388.14	-112.81
388.35	36.69
388.56	145.24
388.769	24.4
388.979	-84.14
389.189	-49.32
389.399	-53.42
389.609	67.41
389.818	77.65
390.028	53.08
390.238	122.71
390.447	28.5
390.657	57.17
390.867	30.55
391.076	-8.36
391.286	8.02
391.496	-16.55
391.705	-4.27
391.915	26.45
392.125	55.12
392.334	46.93
392.544	147.28
392.753	-2.22
392.963	-41.13
393.172	98.13
393.382	-26.79
393.591	173.91
393.801	-53.42
394.01	114.52
394.22	83.8
394.429	38.74
394.639	-10.41
394.848	63.32
395.058	8.02
395.267	30.55
395.477	57.17
395.686	108.37
395.895	200.53
396.105	149.33
396.314	87.89
396.524	61.27
396.733	55.12
396.942	161.62
397.152	34.64
397.361	137.04
397.57	51.03
397.78	118.61
397.989	85.84
398.198	89.94
398.407	8.02
398.617	44.88
398.826	100.18
399.035	10.07
399.244	24.4
399.453	75.6
399.663	8.02
399.872	104.28
400.081	-53.42
400.29	155.47
400.499	-34.99
400.708	81.75
400.917	18.26
401.127	-12.46
401.336	-20.65
401.545	161.62
401.754	112.47
401.963	141.14
402.172	40.79
402.381	-14.51
402.59	69.46
402.799	24.4
403.008	26.45
403.217	85.84
403.426	94.04
403.635	-67.75
403.844	53.08
404.053	36.69
404.262	30.55
404.471	116.56
404.68	114.52
404.888	91.99
405.097	77.65
405.306	30.55
405.515	120.66
405.724	57.17
405.933	114.52
406.142	57.17
406.35	132.95
406.559	-30.89
406.768	163.67
406.977	186.19
407.185	98.13
407.394	51.03
407.603	42.84
407.812	73.56
408.02	145.24
408.229	36.69
408.438	79.7
408.646	-22.7
408.855	-12.46
409.064	71.51
409.272	-4.27
409.481	147.28
409.69	1.88
409.898	-32.94
410.107	69.46
410.315	75.6
410.524	-69.8
410.733	36.69
410.941	-41.13
411.15	65.36
411.358	126.8
411.567	163.67
411.775	1.88
411.984	79.7
412.192	153.43
412.401	1.88
412.609	118.61
412.818	114.52
413.026	157.52
413.234	22.36
413.443	67.41
413.651	14.17
413.86	-32.94
414.068	161.62
414.276	163.67
414.485	-34.99
414.693	182.1
414.901	247.63
415.11	36.69
415.318	16.21
415.526	-20.65
415.734	165.71
415.943	91.99
416.151	91.99
416.359	26.45
416.567	38.74
416.776	77.65
416.984	110.42
417.192	75.6
417.4	32.6
417.608	-32.94
417.817	-8.36
418.025	83.8
418.233	112.47
418.441	5.97
418.649	34.64
418.857	65.36
419.065	100.18
419.273	63.32
419.481	153.43
419.689	16.21
419.897	-2.22
420.105	-37.03
420.313	98.13
420.521	163.67
420.729	139.09
420.937	22.36
421.145	-37.03
421.353	106.32
421.561	102.23
421.769	42.84
421.977	-10.41
422.185	83.8
422.393	24.4
422.601	65.36
422.809	87.89
423.017	55.12
423.224	108.37
423.432	110.42
423.64	51.03
423.848	83.8
424.056	94.04
424.263	106.32
424.471	63.32
424.679	71.51
424.887	51.03
425.094	167.76
425.302	128.85
425.51	61.27
425.718	141.14
425.925	83.8
426.133	141.14
426.341	212.82
426.548	8.02
426.756	65.36
426.964	155.47
427.171	-4.27
427.379	112.47
427.586	124.76
427.794	44.88
428.001	118.61
428.209	67.41
428.417	79.7
428.624	120.66
428.832	112.47
429.039	71.51
429.247	118.61
429.454	149.33
429.662	243.54
429.869	128.85
430.076	94.04
430.284	91.99
430.491	200.53
430.699	71.51
430.906	221.01
431.114	171.86
431.321	104.28
431.528	46.93
431.736	175.95
431.943	202.58
432.15	157.52
432.358	147.28
432.565	241.49
432.772	-4.27
432.979	204.63
433.187	104.28
433.394	233.3
433.601	28.5
433.808	216.91
434.016	169.81
434.223	200.53
434.43	141.14
434.637	274.26
434.844	225.11
435.052	247.63
435.259	167.76
435.466	235.35
435.673	151.38
435.88	331.6
436.087	292.69
436.294	347.98
436.501	298.83
436.708	190.29
436.915	247.63
437.122	335.7
437.329	231.25
437.537	354.13
437.743	333.65
437.95	382.8
438.157	364.37
438.364	343.89
438.571	395.09
438.778	411.47
438.985	413.52
439.192	417.61
439.399	352.08
439.606	427.85
439.813	472.91
440.02	603.98
440.227	530.25
440.433	538.45
440.64	462.67
440.847	380.75
441.054	548.68
441.261	624.46
441.467	591.69
441.674	530.25
441.881	530.25
442.088	511.82
442.294	657.23
442.501	749.39
442.708	710.47
442.914	720.71
443.121	798.54
443.328	782.15
443.534	827.21
443.741	685.9
443.948	712.52
444.154	894.79
444.361	1038.15
444.568	876.36
444.774	1044.29
444.981	870.22
445.187	1089.35
445.394	1118.02
445.6	974.66
445.807	1171.27
446.013	1195.84
446.22	1091.4
446.426	1308.48
446.633	1378.11
446.839	1554.24
447.046	1218.37
447.252	1560.38
447.459	1482.56
447.665	1533.76
447.871	1552.19
448.078	1718.08
448.284	1709.88
448.491	1847.1
448.697	1939.26
448.903	1933.11
449.11	1943.35
449.316	1875.77
449.522	2172.72
449.728	2273.07
449.935	2330.42
450.141	2285.36
450.347	2445.1
450.553	2338.61
450.76	2510.64
450.966	2615.09
451.172	2750.25
451.378	2873.13
451.584	2959.14
451.791	3110.69
451.997	3239.72
452.203	3264.29
452.409	3401.51
452.615	3555.1
452.821	3536.67
453.027	3378.98
453.233	4067.1
453.44	3901.21
453.646	3974.94
453.852	4042.52
454.058	4359.95
454.264	4443.92
454.47	4759.31
454.676	4796.17
454.882	5119.75
455.088	5050.12
455.294	5213.96
455.5	5672.7
455.705	5912.32
455.911	5787.39
456.117	6012.67
456.323	6438.64
456.529	6397.68
456.735	6657.78
456.941	7112.42
457.147	7341.8
457.352	7433.96
457.558	7833.31
457.764	8120.03
457.97	8351.45
458.176	8756.94
458.381	9238.22
458.587	9410.25
458.793	9774.78
458.999	9713.35
459.204	11284.14
459.41	11544.23
459.616	11148.97
459.821	11964.06
460.027	12441.24
460.233	13008.53
460.438	13215.37
460.644	13684.36
460.85	14016.13
461.055	14341.75
461.261	15289.96
461.466	14624.37
461.672	15236.72
461.878	16924.24
462.083	16576.09
462.289	17102.42
462.494	17630.79
462.7	17806.92
462.905	18056.77
463.111	19779.11
463.316	20481.56
463.522	21179.92
463.727	21622.28
463.932	22285.83
464.138	23238.13
464.343	24233.44
464.549	24516.06
464.754	26258.88
464.959	26725.82
465.165	27235.77
465.37	26838.46
465.575	26920.38
465.781	28863.9
465.986	29740.43
466.191	29035.93
466.397	29590.93
466.602	29005.21
466.807	30569.86
467.012	31210.87
467.218	31372.66
467.423	31774.06
467.628	32449.89
467.833	34336.07
468.038	33752.4
468.244	32732.51
468.449	34694.47
468.654	34182.48
468.859	34170.19
469.064	34137.42
469.269	33201.5
469.474	33762.64
469.679	34397.51
469.885	33273.18
470.09	34143.56
470.295	34073.93
470.5	33346.9
470.705	33404.25
470.91	32818.53
471.115	31944.05
471.32	32910.69
471.525	32904.54
471.73	31690.1
471.935	31741.3
472.139	30408.07
472.344	30397.83
472.549	30160.27
472.754	29642.13
472.959	29126.04
473.164	28112.3
473.369	27686.32
473.574	28491.17
473.778	28003.75
473.983	27538.87
474.188	27229.62
474.393	25613.77
474.598	25486.8
474.802	25251.28
475.007	24675.8
475.212	24477.15
475.417	23385.58
475.621	23248.37
475.826	23045.62
476.031	22644.22
476.235	21915.14
476.44	22130.18
476.645	21347.86
476.849	21161.49
477.054	20958.74
477.259	20471.32
477.463	20483.61
477.668	19811.88
477.872	19764.78
478.077	19547.69
478.282	18439.74
478.486	18552.38
478.691	18302.53
478.895	18294.33
479.1	18222.66
479.304	18249.28
479.509	17219.15
479.713	17696.33
479.918	17030.74
480.122	16604.76
480.326	17204.81
480.531	17000.02
480.735	16619.1
480.94	16703.06
481.144	16774.74
481.348	16004.71
481.553	16166.49
481.757	15726.18
481.961	16039.52
482.166	16055.9
482.37	15570.54
482.574	15146.61
482.778	15165.04
482.983	15574.63
483.187	15171.18
483.391	15289.96
483.595	14882.42
483.8	14884.47
484.004	14945.91
484.208	14870.13
484.412	14730.87
484.616	14360.19
484.821	14265.98
485.025	13753.99
485.229	13807.23
485.433	13676.16
485.637	13596.29
485.841	13360.78
486.045	13272.71
486.249	13299.34
486.453	12861.07
486.657	12740.24
486.861	12504.73
487.065	12113.56
487.269	12224.15
487.473	11654.82
487.677	11663.01
487.881	11863.71
488.085	11439.78
488.289	11445.93
488.493	10913.45
488.697	10856.11
488.901	10778.29
489.105	10475.19
489.309	10352.31
489.512	10428.09
489.716	10249.91
489.92	9817.79
490.124	9584.32
490.328	9729.73
490.531	8982.22
490.735	9209.54
490.939	9137.87
491.143	8810.19
491.346	8589.01
491.55	8625.87
491.754	8406.74
491.958	8298.2
492.161	8193.75
492.365	8113.88
492.569	7986.91
492.772	7833.31
492.976	7874.27
493.18	7565.03
493.383	7761.63
493.587	7429.86
493.79	7542.5
493.994	7202.54
494.197	7237.35
494.401	7190.25
494.605	7147.24
494.808	6971.11
495.012	7003.88
495.215	7141.1
495.419	6901.48
495.622	6788.85
495.825	6729.45
496.029	6659.82
496.232	6737.65
496.436	6706.93
496.639	6819.57
496.843	6502.13
497.046	6625.01
497.249	6696.69
497.453	6586.1
497.656	6704.88
497.859	6563.57
498.063	6665.97
498.266	6696.69
498.469	6514.42
498.673	6653.68
498.876	6794.99
499.079	6825.71
499.282	6823.66
499.485	6860.52
499.689	6723.31
499.892	7134.95
500.095	7003.88
500.298	7120.62
500.501	6838
500.705	7147.24
500.908	7091.95
501.111	7128.81
501.314	7149.29
501.517	7386.85
501.72	7534.31
501.923	7591.65
502.126	7718.62
502.329	7702.24
502.532	7679.71
502.735	7798.49
502.938	8107.74
503.141	7935.71
503.344	8074.97
503.547	8222.42
503.75	8259.29
503.953	8498.9
504.156	8470.23
504.359	8675.02
504.562	8689.36
504.765	8986.32
504.968	9055.95
505.17	9074.38
505.373	9080.52
505.576	9350.85
505.779	9682.63
505.982	9598.66
506.185	9944.77
506.387	9918.14
506.59	10239.67
506.793	10344.12
506.996	10647.22
507.198	11060.91
507.401	11171.5
507.604	11163.31
507.807	11409.06
508.009	11806.37
508.212	11683.49
508.415	12160.67
508.617	12166.81
508.82	12459.67
509.022	12680.85
509.225	13182.6
509.428	13285
509.63	13430.41
509.833	13549.19
510.035	14272.12
510.238	14280.32
510.44	14694.01
510.643	14870.13
510.845	15425.13
511.048	15550.06
511.25	15920.74
511.453	16297.56
511.655	17213.01
511.858	17004.11
512.06	17528.39
512.262	18157.12
512.465	18046.53
512.667	18622.01
512.87	19318.32
513.072	19557.93
513.274	20078.11
513.477	20473.37
513.679	20905.49
513.881	21239.31
514.084	21884.42
514.286	22146.56
514.488	22699.51
514.69	23715.31
514.893	23877.1
515.095	24102.37
515.297	24862.17
515.499	25152.98
515.701	25650.64
515.904	26369.47
516.106	26809.79
516.308	27205.05
516.51	27950.51
516.712	28026.28
516.914	29234.58
517.116	30074.25
517.318	30299.53
517.52	30471.56
517.722	30907.77
517.925	31915.37
518.127	32578.92
518.329	33021.28
518.531	33019.23
518.733	34448.71
518.935	34739.52
519.136	34712.9
519.338	35894.58
519.54	36369.71
519.742	36707.62
519.944	37393.69
520.146	37977.36
520.348	38446.35
520.55	38892.8
520.752	39564.54
520.954	40537.32
521.155	40334.57
521.357	40695.02
521.559	41123.04
521.761	42194.13
521.963	41944.28
522.164	42267.86
522.366	43113.67
522.568	43461.82
522.77	43949.24
522.971	44487.85
523.173	44098.74
523.375	44582.06
523.576	44203.19
523.778	44815.53
523.98	45446.3
524.181	45679.77
524.383	45612.19
524.584	46232.72
524.786	45941.91
524.988	46052.5
525.189	46357.65
525.391	46769.29
525.592	46478.48
525.794	46775.44
525.995	46509.2
526.197	46085.27
526.398	46871.69
526.6	46029.97
526.801	46437.52
527.003	46421.14
527.204	46308.5
527.406	46339.22
527.607	45483.17
527.808	46107.8
528.01	44639.4
528.211	45595.81
528.412	45692.06
528.614	44702.89
528.815	44387.5
529.016	44942.5
529.218	43611.32
529.419	43635.9
529.62	42736.84
529.822	42831.05
530.023	42587.34
530.224	42050.77
530.425	41794.78
530.626	41307.36
530.828	40504.56
531.029	40799.46
531.23	40226.03
531.431	39363.84
531.632	39431.42
531.833	38976.77
532.035	38274.32
532.236	37885.2
532.437	37954.83
532.638	36941.09
532.839	36840.74
533.04	36443.43
533.241	35605.81
533.442	35677.49
533.643	34739.52
533.844	34491.72
534.045	34241.87
534.246	33090.91
534.447	33398.1
534.648	32867.68
534.849	32404.84
535.05	31722.87
535.251	31460.73
535.451	30930.3
535.652	30692.74
535.853	30504.32
536.054	29859.21
536.255	29615.51
536.456	28784.03
536.657	28947.87
536.857	28282.28
537.058	27649.46
537.259	27848.11
537.46	27325.88
537.66	26799.55
537.861	26293.7
538.062	25998.79
538.263	25871.82
538.463	25505.23
538.664	25200.08
538.865	25040.34
539.065	24686.04
539.266	24049.13
539.466	23967.21
539.667	23504.37
539.868	23418.35
540.068	23303.67
540.269	22828.54
540.469	22656.51
540.67	22187.52
540.87	22105.6
541.071	22121.99
541.271	21902.86
541.472	21329.42
541.672	21249.55
541.873	20465.18
542.073	20297.25
542.274	20618.78
542.474	20026.92
542.675	19478.06
542.875	19912.23
543.075	19183.15
543.276	18937.4
543.476	19199.54
543.676	18814.52
543.877	18538.04
544.077	18460.22
544.277	18058.82
544.478	18239.04
544.678	17866.31
544.878	17626.7
545.078	17350.22
545.279	17034.83
545.479	16723.54
545.679	16834.13
545.879	16825.94
546.079	16524.89
546.28	16068.19
546.48	15890.02
546.68	16164.45
546.88	15881.83
547.08	15801.96
547.28	15513.19
547.48	14941.81
547.68	15074.93
547.88	14868.08
548.081	14614.13
548.281	14196.35
548.481	14098.05
548.681	13954.69
548.881	14177.92
549.081	13854.34
549.28	13479.56
549.48	13250.19
549.68	12996.24
549.88	12965.52
550.08	12621.46
550.28	12549.78
550.48	12517.01
550.68	12375.7
550.88	12369.56
551.08	11867.81
551.279	12000.93
551.479	11255.47
551.679	11423.4
551.879	11216.55
552.079	11257.51
552.278	10829.49
552.478	10876.59
552.678	10782.38
552.878	10624.69
553.077	10190.52
553.277	10100.41
553.477	10170.04
553.676	10012.35
553.876	9666.24
554.076	9645.76
554.275	9436.87
554.475	9055.95
554.674	9135.82
554.874	8916.69
555.074	8916.69
555.273	8619.73
555.473	8611.54
555.672	8365.78
555.872	8384.21
556.071	8142.55
556.271	8247
556.47	7968.48
556.67	7704.29
556.869	7616.23
557.068	7558.88
557.268	7345.89
557.467	7386.85
557.667	7149.29
557.866	7007.98
558.065	7001.83
558.265	6989.55
558.464	6594.29
558.663	6856.43
558.863	6514.42
559.062	6362.87
559.261	6321.91
559.461	6246.13
559.66	6106.87
559.859	6194.93
560.058	5897.98
560.258	5830.4
560.457	5883.64
560.656	5705.47
560.855	5390.08
561.054	5625.6
561.253	5336.84
561.453	5375.75
561.652	5369.6
561.851	5209.86
562.05	5080.84
562.249	4818.7
562.448	4945.67
562.647	4898.57
562.846	4855.56
563.045	4839.18
563.244	4566.8
563.443	4591.38
563.642	4425.49
563.841	4572.94
564.04	4409.11
564.239	4271.89
564.438	4136.73
564.637	4091.67
564.836	4189.97
565.035	4024.09
565.234	4056.86
565.432	4026.14
565.631	4017.94
565.83	3852.06
566.029	3651.36
566.228	3628.83
566.427	3727.13
566.625	3510.05
566.824	3544.86
567.023	3524.38
567.222	3370.79
567.42	3317.54
567.619	3403.55
567.818	3358.5
568.016	3428.13
568.215	3163.94
568.414	3276.58
568.612	3149.61
568.811	2963.24
569.01	3079.97
569.208	2981.67
569.407	3034.92
569.605	2916.14
569.804	2809.64
570.002	2789.16
570.201	2684.72
570.4	2686.76
570.598	2709.29
570.797	2602.8
570.995	2522.93
571.193	2674.48
571.392	2604.85
571.59	2524.97
571.789	2445.1
571.987	2479.92
572.186	2533.17
572.384	2297.65
572.582	2475.82
572.781	2398
572.979	2191.16
573.177	2101.05
573.376	2146.1
573.574	2287.41
573.772	2084.66
573.971	2047.8
574.169	1886.01
574.367	2043.7
574.565	1929.02
574.763	1857.34
574.962	1933.11
575.16	1879.86
575.358	1736.51
575.556	1865.53
575.754	1773.37
575.952	1752.89
576.151	1707.84
576.349	1781.56
576.547	1535.81
576.745	1675.07
576.943	1750.84
577.141	1568.57
577.339	1544
577.537	1533.76
577.735	1634.11
577.933	1572.67
578.131	1421.12
578.329	1513.28
578.527	1521.47
578.725	1445.7
578.923	1277.76
579.121	1500.99
579.319	1261.38
579.516	1351.49
579.714	1531.71
579.912	1234.75
580.11	1220.42
580.308	1226.56
580.506	1201.99
580.704	982.85
580.901	1154.88
581.099	1324.87
581.297	1134.4
581.495	1124.16
581.692	1107.78
581.89	1310.53
582.088	1140.55
582.285	1089.35
582.483	1140.55
582.681	989
582.878	1001.29
583.076	1023.81
583.274	984.9
583.471	1175.36
583.669	1087.3
583.866	872.26
584.064	974.66
584.262	769.87
584.459	796.49
584.657	898.89
584.854	859.98
585.052	890.7
585.249	835.4
585.447	948.04
585.644	831.3
585.841	862.02
586.039	898.89
586.236	876.36
586.434	737.1
586.631	835.4
586.828	788.3
587.026	778.06
587.223	763.72
587.42	636.75
587.618	800.59
587.815	810.82
588.012	679.75
588.21	661.32
588.407	759.63
588.604	745.29
588.801	614.22
588.999	786.25
589.196	743.24
589.393	550.73
589.59	753.48
589.787	673.61
589.984	698.19
590.182	704.33
590.379	638.8
590.576	612.17
590.773	661.32
590.97	661.32
591.167	675.66
591.364	710.47
591.561	661.32
591.758	694.09
591.955	626.51
592.152	595.79
592.349	614.22
592.546	616.27
592.743	612.17
592.94	614.22
593.137	687.95
593.334	642.89
593.531	655.18
593.727	696.14
593.924	706.38
594.121	661.32
594.318	534.35
594.515	669.52
594.712	757.58
594.908	733
595.105	552.78
595.302	636.75
595.499	696.14
595.696	812.87
595.892	624.46
596.089	851.78
596.286	675.66
596.482	841.54
596.679	747.34
596.876	667.47
597.072	851.78
597.269	759.63
597.466	862.02
597.662	765.77
597.859	810.82
598.055	837.45
598.252	917.32
598.448	970.57
598.645	1013.57
598.841	1081.16
599.038	1142.6
599.234	1072.96
599.431	1185.6
599.627	1226.56
599.824	1175.36
600.02	1255.23
600.217	1242.95
600.413	1447.74
600.609	1294.15
600.806	1611.58
601.002	1466.17
601.198	1447.74
601.395	1591.1
601.591	1658.68
601.787	1664.83
601.984	1883.96
602.18	1941.3
602.376	1949.5
602.572	2012.98
602.769	2244.4
602.965	2125.62
603.161	2252.59
603.357	2258.74
603.553	2565.93
603.75	2438.96
603.946	2539.31
604.142	2666.28
604.338	2678.57
604.534	2791.21
604.73	2959.14
604.926	2977.58
605.122	3233.57
605.318	3168.04
605.514	3305.25
605.71	3409.7
605.906	3483.42
606.102	3428.13
606.298	3720.99
606.494	3841.82
606.69	3817.24
606.886	4085.53
607.082	4019.99
607.278	4048.66
607.474	4259.6
607.67	4480.78
607.866	4505.36
608.062	4853.52
608.257	4767.5
608.453	4867.85
608.649	5125.9
608.845	5113.61
609.041	5330.69
609.236	5535.49
609.432	5674.75
609.628	5820.16
609.824	5897.98
610.019	5979.9
610.215	6260.47
610.411	6481.65
610.606	6682.35
610.802	6690.54
610.998	6969.07
611.193	7065.32
611.389	7364.32
611.584	7620.32
611.78	7571.17
611.976	7868.13
612.171	8341.21
612.367	8355.54
612.562	8478.42
612.758	8748.75
612.953	8802
613.149	9299.66
613.344	9279.18
613.539	9641.67
613.735	9879.23
613.93	10227.39
614.126	10317.5
614.321	10833.58
614.517	10839.73
614.712	11085.48
614.907	11390.63
615.103	12068.51
615.298	12218.01
615.493	12482.2
615.688	12553.88
615.884	13493.9
616.079	13371.02
616.274	13954.69
616.47	13866.63
616.665	14331.51
616.86	14698.1
617.055	14982.77
617.25	15482.47
617.445	15824.48
617.641	16012.9
617.836	16721.49
618.031	16780.89
618.226	17522.25
618.421	17980.99
618.616	18361.92
618.811	18353.73
619.006	19160.62
619.201	19443.24
619.396	19875.37
619.591	20084.26
619.786	20858.39
619.981	21005.84
620.176	22001.16
620.371	21786.12
620.566	22513.15
620.761	22908.41
620.956	23664.11
621.151	23764.46
621.346	24700.38
621.541	24548.83
621.735	25525.71
621.93	25249.24
622.125	26203.59
622.32	26140.1
622.515	26729.92
622.709	27743.66
622.904	28145.06
623.099	28394.92
623.294	29193.62
623.488	29517.2
623.683	30133.64
623.878	30053.77
624.072	30780.8
624.267	31214.97
624.462	31739.25
624.656	32228.71
624.851	32630.12
625.046	33367.38
625.24	33611.09
625.435	34131.28
625.629	34616.65
625.824	34829.63
626.018	35849.52
626.213	35581.24
626.407	36390.19
626.602	36361.51
626.796	37098.78
626.991	37575.96
627.185	38012.18
627.38	38153.49
627.574	38249.74
627.768	38352.14
627.963	38395.15
628.157	38640.9
628.352	39079.17
628.546	38696.2
628.74	39245.05
628.935	38718.73
629.129	38991.11
629.323	38264.08
629.517	38270.22
629.712	38407.44
629.906	38372.62
630.1	37627.16
630.294	37733.65
630.489	36756.77
630.683	36836.64
630.877	36048.18
631.071	35476.79
631.265	35063.1
631.459	34153.8
631.653	33645.91
631.848	33115.48
632.042	31993.2
632.236	31397.24
632.43	30795.14
632.624	30252.42
632.818	28657.06
633.012	27999.66
633.206	27180.47
633.4	26506.69
633.594	25236.95
633.788	24708.57
633.982	23965.16
634.176	23074.29
634.369	22218.24
634.563	21388.81
634.757	20551.2
634.951	20053.54
635.145	19205.68
635.339	18200.13
635.533	17845.83
635.726	16952.91
635.92	16158.3
636.114	15552.1
636.308	14835.31
636.501	14188.16
636.695	13868.67
636.889	13160.08
637.083	12787.35
637.276	12105.37
637.47	11714.21
637.664	11013.81
637.857	10671.79
638.051	10462.9
638.244	10090.17
638.438	9526.98
638.632	9369.29
638.825	8683.22
639.019	8509.14
639.212	7915.23
639.406	7667.42
639.599	7528.16
639.793	7075.56
639.986	6932.2
640.18	6639.34
640.373	6340.34
640.567	6090.49
640.76	5973.75
640.954	5666.56
641.147	5373.7
641.34	5086.98
641.534	4927.24
641.727	4908.81
641.92	4667.15
642.114	4480.78
642.307	4343.57
642.5	4255.51
642.694	3927.83
642.887	3770.14
643.08	3850.01
643.273	3657.5
643.467	3350.31
643.66	3325.73
643.853	3053.35
644.046	3102.5
644.239	3039.01
644.432	2842.41
644.626	2627.37
644.819	2527.02
645.012	2567.98
645.205	2381.62
645.398	2504.5
645.591	2195.25
645.784	2189.11
645.977	2021.17
646.17	2053.94
646.363	1836.86
646.556	1720.12
646.749	1795.9
646.942	1793.85
647.135	1636.16
647.328	1650.49
647.521	1560.38
647.714	1480.51
647.907	1406.78
648.099	1265.47
648.292	1396.54
648.485	1343.3
648.678	1111.88
648.871	1083.2
649.064	1103.68
649.256	993.09
649.449	911.18
649.642	966.47
649.835	921.42
650.027	878.41
650.22	905.03
650.413	874.31
650.605	868.17
650.798	761.67
650.991	773.96
651.183	759.63
651.376	765.77
651.568	743.24
651.761	589.64
651.954	659.28
652.146	632.65
652.339	733
652.531	685.9
652.724	511.82
652.916	497.49
653.109	434
653.301	665.42
653.494	575.31
653.686	487.25
653.879	505.68
654.071	495.44
654.263	509.77
654.456	372.56
654.648	528.21
654.84	538.45
655.033	417.61
655.225	524.11
655.417	274.26
655.61	483.15
655.802	538.45
655.994	507.73
656.186	304.98
656.379	421.71
656.571	296.78
656.763	386.9
656.955	292.69
657.148	296.78
657.34	329.55
657.532	202.58
657.724	278.35
657.916	278.35
658.108	364.37
658.3	395.09
658.492	386.9
658.684	218.96
658.876	313.17
659.068	204.63
659.26	198.48
659.452	171.86
659.644	284.5
659.836	454.48
660.028	243.54
660.22	167.76
660.412	253.78
660.604	304.98
660.796	208.72
660.988	362.32
661.18	216.91
661.372	223.06
661.563	216.91
661.755	237.39
661.947	157.52
662.139	135
662.331	167.76
662.522	204.63
662.714	184.15
662.906	218.96
663.097	233.3
663.289	122.71
663.481	65.36
663.673	227.15
663.864	173.91
664.056	188.24
664.247	145.24
664.439	243.54
664.631	159.57
664.822	151.38
665.014	139.09
665.205	132.95
665.397	75.6
665.588	145.24
665.78	237.39
665.971	259.92
666.163	128.85
666.354	139.09
666.546	28.5
666.737	116.56
666.929	122.71
667.12	71.51
667.311	112.47
667.503	110.42
667.694	218.96
667.885	53.08
668.077	216.91
668.268	75.6
668.459	204.63
668.651	227.15
668.842	147.28
669.033	63.32
669.224	67.41
669.416	313.17
669.607	77.65
669.798	59.22
669.989	284.5
670.18	114.52
670.371	237.39
670.563	73.56
670.754	165.71
670.945	180.05
671.136	280.4
671.327	38.74
671.518	145.24
671.709	241.49
671.9	198.48
672.091	231.25
672.282	139.09
672.473	190.29
672.664	96.08
672.855	57.17
673.046	214.87
673.237	249.68
673.428	165.71
673.619	270.16
673.809	128.85
674	259.92
674.191	243.54
674.382	196.43
674.573	245.59
674.764	77.65
674.954	343.89
675.145	171.86
675.336	128.85
675.527	104.28
675.717	34.64
675.908	122.71
676.099	98.13
676.289	171.86
676.48	94.04
676.671	184.15
676.861	120.66
677.052	243.54
677.243	184.15
677.433	188.24
677.624	290.64
677.814	161.62
678.005	165.71
678.195	251.73
678.386	128.85
678.576	163.67
678.767	178
678.957	184.15
679.148	352.08
679.338	358.22
679.529	190.29
679.719	173.91
679.909	286.54
680.1	302.93
680.29	302.93
680.481	108.37
680.671	311.12
680.861	257.87
681.052	227.15
681.242	206.67
681.432	221.01
681.622	237.39
681.813	135
682.003	233.3
682.193	182.1
682.383	186.19
682.573	190.29
682.764	227.15
682.954	315.22
683.144	311.12
683.334	288.59
683.524	198.48
683.714	296.78
683.904	309.07
684.094	239.44
684.284	278.35
684.474	345.94
684.664	270.16
684.854	268.11
685.044	173.91
685.234	231.25
685.424	251.73
685.614	188.24
685.804	411.47
685.994	280.4
686.184	249.68
686.374	307.02
686.564	274.26
686.753	253.78
686.943	233.3
687.133	229.2
687.323	223.06
687.513	251.73
687.702	261.97
687.892	241.49
688.082	290.64
688.272	341.84
688.461	327.5
688.651	446.29
688.841	323.41
689.03	216.91
689.22	249.68
689.41	315.22
689.599	311.12
689.789	159.57
689.979	333.65
690.168	247.63
690.358	296.78
690.547	210.77
690.737	300.88
690.926	327.5
691.116	282.45
691.305	253.78
691.495	237.39
691.684	161.62
691.874	175.95
692.063	323.41
692.252	249.68
692.442	284.5
692.631	216.91
692.82	243.54
693.01	257.87
693.199	237.39
693.388	259.92
693.578	257.87
693.767	304.98
693.956	200.53
694.146	151.38
694.335	341.84
694.524	284.5
694.713	302.93
694.902	251.73
695.092	145.24
695.281	315.22
695.47	292.69
695.659	153.43
695.848	235.35
696.037	221.01
696.226	270.16
696.415	253.78
696.604	362.32
696.793	380.75
696.982	186.19
697.171	264.02
697.36	126.8
697.549	218.96
697.738	147.28
697.927	139.09
698.116	161.62
698.305	315.22
698.494	200.53
698.683	171.86
698.872	370.51
699.061	229.2
699.25	227.15
699.438	239.44
699.627	200.53
699.816	362.32
700.005	96.08
700.193	149.33
700.382	380.75
700.571	237.39
700.76	274.26
700.948	288.59
701.137	296.78
701.326	257.87
701.514	190.29
701.703	202.58
701.892	233.3
702.08	446.29
702.269	253.78
702.457	182.1
702.646	251.73
702.834	212.82
703.023	264.02
703.212	380.75
703.4	161.62
703.589	200.53
703.777	184.15
703.965	188.24
704.154	145.24
704.342	124.76
704.531	223.06
704.719	208.72
704.907	253.78
705.096	210.77
705.284	135
705.472	243.54
705.661	266.07
705.849	175.95
706.037	407.38
706.226	235.35
706.414	241.49
706.602	87.89
706.79	253.78
706.979	259.92
707.167	257.87
707.355	108.37
707.543	225.11
707.731	266.07
707.919	204.63
708.107	175.95
708.296	141.14
708.484	126.8
708.672	241.49
708.86	216.91
709.048	221.01
709.236	151.38
709.424	243.54
709.612	296.78
709.8	223.06
709.988	218.96
710.176	319.31
710.364	247.63
710.551	249.68
710.739	249.68
710.927	204.63
711.115	182.1
711.303	337.74
711.491	327.5
711.679	194.39
711.866	323.41
712.054	204.63
712.242	304.98
712.43	288.59
712.617	139.09
712.805	307.02
712.993	218.96
713.181	106.32
713.368	266.07
713.556	198.48
713.744	227.15
713.931	417.61
714.119	311.12
714.306	171.86
714.494	237.39
714.682	167.76
714.869	175.95
715.057	218.96
715.244	89.94
715.432	167.76
715.619	153.43
715.807	206.67
715.994	198.48
716.182	307.02
716.369	223.06
716.556	386.9
716.744	178
716.931	155.47
717.119	266.07
717.306	214.87
717.493	268.11
717.681	216.91
717.868	190.29
718.055	290.64
718.242	247.63
718.43	257.87
718.617	282.45
718.804	304.98
718.991	208.72
719.179	241.49
719.366	280.4
719.553	251.73
719.74	223.06
719.927	218.96
720.114	321.36
720.301	225.11
720.488	186.19
720.676	175.95
720.863	329.55
721.05	393.04
721.237	251.73
721.424	284.5
721.611	235.35
721.798	194.39
721.985	216.91
722.172	245.59
722.358	204.63
722.545	399.18
722.732	247.63
722.919	294.74
723.106	259.92
723.293	188.24
723.48	255.83
723.667	212.82
723.853	341.84
724.04	274.26
724.227	323.41
724.414	259.92
724.6	294.74
724.787	421.71
724.974	390.99
725.161	341.84
725.347	157.52
725.534	272.21
725.72	227.15
725.907	317.26
726.094	341.84
726.28	276.31
726.467	239.44
726.653	132.95
726.84	431.95
727.027	368.46
727.213	261.97
727.4	327.5
727.586	249.68
727.773	319.31
727.959	239.44
728.145	300.88
728.332	302.93
728.518	255.83
728.705	339.79
728.891	307.02
729.077	245.59
729.264	243.54
729.45	233.3
729.636	333.65
729.823	384.85
730.009	335.7
730.195	173.91
730.382	335.7
730.568	268.11
730.754	270.16
730.94	233.3
731.126	218.96
731.313	288.59
731.499	290.64
731.685	413.52
731.871	358.22
732.057	368.46
732.243	380.75
732.429	352.08
732.615	403.28
732.801	352.08
732.987	210.77
733.173	321.36
733.359	270.16
733.545	274.26
733.731	276.31
733.917	333.65
734.103	335.7
734.289	362.32
734.475	202.58
734.661	464.72
734.847	313.17
735.033	378.7
735.219	309.07
735.404	307.02
735.59	241.49
735.776	245.59
735.962	354.13
736.148	292.69
736.333	450.38
736.519	329.55
736.705	251.73
736.89	313.17
737.076	313.17
737.262	216.91
737.447	370.51
737.633	296.78
737.819	313.17
738.004	307.02
738.19	345.94
738.375	401.23
738.561	438.09
738.747	429.9
738.932	276.31
739.118	436.05
739.303	319.31
739.489	374.61
739.674	302.93
739.859	225.11
740.045	321.36
740.23	380.75
740.416	190.29
740.601	290.64
740.786	282.45
740.972	241.49
741.157	282.45
741.342	208.72
741.528	190.29
741.713	337.74
741.898	221.01
742.084	317.26
742.269	372.56
742.454	288.59
742.639	452.43
742.824	292.69
743.01	313.17
743.195	421.71
743.38	300.88
743.565	255.83
743.75	317.26
743.935	286.54
744.12	366.42
744.305	251.73
744.49	247.63
744.675	284.5
744.86	247.63
745.045	354.13
745.23	284.5
745.415	317.26
745.6	333.65
745.785	311.12
745.97	333.65
746.155	259.92
746.34	407.38
746.525	323.41
746.71	399.18
746.895	153.43
747.079	251.73
747.264	180.05
747.449	319.31
747.634	352.08
747.819	206.67
748.003	241.49
748.188	214.87
748.373	282.45
748.557	212.82
748.742	241.49
748.927	288.59
749.111	208.72
749.296	304.98
749.481	264.02
749.665	286.54
749.85	196.43
750.034	270.16
750.219	292.69
750.404	149.33
750.588	251.73
750.773	302.93
750.957	245.59
751.141	196.43
751.326	282.45
751.51	157.52
751.695	200.53
751.879	237.39
752.064	317.26
752.248	186.19
752.432	343.89
752.617	317.26
752.801	274.26
752.985	147.28
753.17	247.63
753.354	264.02
753.538	210.77
753.722	208.72
753.907	210.77
754.091	218.96
754.275	223.06
754.459	89.94
754.643	175.95
754.828	227.15
755.012	231.25
755.196	139.09
755.38	233.3
755.564	188.24
755.748	173.91
755.932	214.87
756.116	286.54
756.3	266.07
756.484	218.96
756.668	206.67
756.852	67.41
757.036	151.38
757.22	202.58
757.404	118.61
757.588	159.57
757.772	247.63
757.956	141.14
758.14	352.08
758.323	55.12
758.507	235.35
758.691	118.61
758.875	188.24
759.059	278.35
759.242	139.09
759.426	169.81
759.61	173.91
759.794	118.61
759.977	274.26
760.161	304.98
760.345	259.92
760.528	245.59
760.712	190.29
760.895	151.38
761.079	143.19
761.263	106.32
761.446	114.52
761.63	194.39
761.813	190.29
761.997	46.93
762.18	184.15
762.364	116.56
762.547	104.28
762.731	87.89
762.914	167.76
763.098	59.22
763.281	141.14
763.464	89.94
763.648	94.04
763.831	71.51
764.015	46.93
764.198	188.24
764.381	65.36
764.564	98.13
764.748	171.86
764.931	175.95
765.114	73.56
765.297	216.91
765.481	94.04
765.664	110.42
765.847	130.9
766.03	208.72
766.213	65.36
766.397	118.61
766.58	71.51
766.763	169.81
766.946	122.71
767.129	104.28
767.312	20.31
767.495	120.66
767.678	112.47
767.861	102.23
768.044	192.34
768.227	85.84
768.41	55.12
768.593	114.52
768.776	114.52
768.959	38.74
769.142	137.04
769.324	87.89
769.507	116.56
769.69	130.9
769.873	65.36
770.056	231.25
770.239	51.03
770.421	218.96
770.604	116.56
770.787	135
770.97	94.04
771.152	-20.65
771.335	155.47
771.518	73.56
771.7	216.91
771.883	290.64
772.066	-26.79
772.248	91.99
772.431	163.67
772.613	81.75
772.796	89.94
772.978	198.48
773.161	145.24
773.343	16.21
773.526	100.18
773.708	-49.32
773.891	-55.47
774.073	32.6
774.256	40.79
774.438	239.44
774.621	114.52
774.803	102.23
774.985	91.99
775.168	77.65
775.35	85.84
775.532	132.95
775.715	116.56
775.897	98.13
776.079	81.75
776.261	77.65
776.444	32.6
776.626	71.51
776.808	87.89
776.99	26.45
777.173	5.97
777.355	22.36
777.537	61.27
777.719	51.03
777.901	-14.51
778.083	14.17
778.265	34.64
778.447	137.04
778.629	48.98
778.811	51.03
778.993	85.84
779.175	139.09
779.357	55.12
779.539	-61.61
779.721	61.27
779.903	57.17
780.085	67.41
780.267	65.36
780.449	108.37
780.631	149.33
780.812	186.19
780.994	51.03
781.176	-20.65
781.358	36.69
781.54	59.22
781.721	24.4
781.903	151.38
782.085	12.12
782.267	139.09
782.448	-73.9
782.63	26.45
782.812	114.52
782.993	114.52
783.175	96.08
783.357	1.88
783.538	91.99
783.72	-0.17
783.901	26.45
784.083	46.93
784.264	102.23
784.446	-39.08
784.627	-41.13
784.809	81.75
784.99	-4.27
785.172	100.18
785.353	26.45
785.535	89.94
785.716	-0.17
785.897	-16.55
786.079	34.64
786.26	-10.41
786.441	124.76
786.623	-32.94
786.804	-77.99
786.985	8.02
787.167	73.56
787.348	-22.7
787.529	-69.8
787.71	143.19
787.891	147.28
788.073	5.97
788.254	-24.75
788.435	169.81
788.616	24.4
788.797	32.6
788.978	48.98
789.159	32.6
789.34	139.09
789.522	67.41
789.703	-0.17
789.884	20.31
790.065	77.65
790.246	151.38
790.427	12.12
790.607	77.65
790.788	67.41
790.969	-26.79
791.15	46.93
791.331	69.46
791.512	-2.22
791.693	-80.04
791.874	40.79
792.054	124.76
792.235	106.32
792.416	8.02
792.597	-8.36
792.778	75.6
792.958	83.8
793.139	53.08
793.32	-32.94
793.5	65.36
793.681	85.84
793.862	79.7
794.042	44.88
794.223	-14.51
794.404	-57.51
794.584	-10.41
794.765	44.88
794.945	40.79
795.126	22.36
795.306	135
795.487	40.79
795.667	-41.13
795.848	71.51
796.028	-16.55
796.209	34.64
796.389	69.46
796.57	8.02
796.75	-96.43
796.93	28.5
797.111	-94.38
797.291	-88.23
797.471	102.23
797.652	-4.27
797.832	-63.66
798.012	73.56
798.192	-37.03
798.373	-32.94
798.553	-98.47
798.733	79.7
798.913	-57.51
799.093	-20.65
799.274	-6.31
799.454	96.08
799.634	89.94
799.814	55.12
799.994	36.69
800.174	51.03
800.354	-22.7
800.534	-114.86
800.714	106.32
800.894	-123.05
801.074	-67.75
801.254	-57.51
801.434	110.42
801.614	-0.17
801.794	3.93
801.974	1926.97
802.154	-0.17
802.334	61.27
802.514	-57.51
802.693	-2.22
802.873	-10.41
803.053	106.32
803.233	55.12
803.413	46.93
803.592	-84.14
803.772	-45.23
803.952	-10.41
804.131	-98.47
804.311	48.98
804.491	122.71
804.67	-30.89
804.85	-28.84
805.03	91.99
805.209	34.64
805.389	-10.41
805.568	-28.84
805.748	-18.6
805.928	-32.94
806.107	116.56
806.287	63.32
806.466	53.08
806.646	59.22
806.825	10.07
807.004	-10.41
807.184	48.98
807.363	65.36
807.543	-47.27
807.722	-118.95
807.901	116.56
808.081	-16.55
808.26	-131.24
808.439	48.98
808.619	55.12
808.798	-77.99
808.977	46.93
809.156	16.21
809.336	-18.6
809.515	128.85
809.694	-37.03
809.873	-20.65
810.052	3.93
810.231	104.28
810.411	24.4
810.59	91.99
810.769	32.6
810.948	106.32
811.127	-94.38
811.306	-63.66
811.485	24.4
811.664	104.28
811.843	-53.42
812.022	18.26
812.201	1.88
812.38	-2.22
812.559	-32.94
812.737	48.98
812.916	-164.01
813.095	-80.04
813.274	8.02
813.453	5.97
813.632	18.26
813.811	83.8
813.989	-100.52
814.168	-26.79
814.347	-16.55
814.526	61.27
814.704	106.32
814.883	112.47
815.062	-37.03
815.24	104.28
815.419	-2.22
815.598	65.36
815.776	-94.38
815.955	20.31
816.133	-121
816.312	-14.51
816.49	-106.67
816.669	-10.41
816.847	-28.84
817.026	-12.46
817.204	-51.37
817.383	-6.31
817.561	44.88
817.74	67.41
817.918	-41.13
818.097	10.07
818.275	-14.51
818.453	55.12
818.632	104.28
818.81	-57.51
818.988	-45.23
819.167	-49.32
819.345	30.55
819.523	-61.61
819.701	16.21
819.879	22.36
820.058	-16.55
820.236	77.65
820.414	-28.84
820.592	59.22
820.77	-82.09
820.948	28.5
821.127	-37.03
821.305	-2.22
821.483	-4.27
821.661	40.79
821.839	-39.08
822.017	-26.79
822.195	-34.99
822.373	79.7
822.551	12.12
822.729	63.32
822.907	-6.31
823.085	24.4
823.262	85.84
823.44	-82.09
823.618	-18.6
823.796	12.12
823.974	38.74
824.152	-61.61
824.329	10.07
824.507	71.51
824.685	57.17
824.863	-16.55
825.04	73.56
825.218	57.17
825.396	14.17
825.574	-8.36
825.751	-0.17
825.929	32.6
826.107	-88.23
826.284	48.98
826.462	104.28
826.639	-151.72
826.817	-45.23
826.994	-20.65
827.172	-116.9
827.349	94.04
827.527	26.45
827.704	-8.36
827.882	108.37
828.059	55.12
828.237	-94.38
828.414	38.74
828.591	-129.19
828.769	38.74
828.946	-80.04
829.124	77.65
829.301	169.81
829.478	14.17
829.655	-82.09
829.833	67.41
830.01	-166.06
830.187	69.46
830.364	75.6
830.542	5.97
830.719	163.67
830.896	-34.99
831.073	81.75
831.25	85.84
831.427	32.6
831.604	-49.32
831.782	-26.79
831.959	79.7
832.136	-14.51
832.313	40.79
832.49	22.36
832.667	-10.41
832.844	-41.13
833.021	34.64
833.198	20.31
833.374	-69.8
833.551	-26.79
833.728	-67.75
833.905	116.56
834.082	-51.37
834.259	57.17
834.436	108.37
834.612	-135.34
834.789	102.23
834.966	-65.71
835.143	24.4
835.319	-10.41
835.496	-4.27
835.673	14.17
835.85	55.12
836.026	18.26
836.203	65.36
836.38	-47.27
836.556	-57.51
836.733	-8.36
836.909	145.24
837.086	-16.55
837.262	-123.05
837.439	-57.51
837.616	-86.19
837.792	-10.41
837.968	-20.65
838.145	-53.42
838.321	-0.17
838.498	71.51
838.674	96.08
838.851	-0.17
839.027	63.32
839.203	-18.6
839.38	18.26
839.556	-8.36
839.732	44.88
839.909	-32.94
840.085	85.84
840.261	-84.14
840.437	3.93
840.614	-12.46
840.79	42.84
840.966	106.32
841.142	22.36
841.318	-67.75
841.494	-47.27
841.671	48.98
841.847	-57.51
842.023	-14.51
842.199	40.79
842.375	48.98
842.551	-157.86
842.727	-57.51
842.903	77.65
843.079	-65.71
843.255	102.23
843.431	-2.22
843.607	22.36
843.783	-194.73
843.959	-26.79
844.134	-8.36
844.31	71.51
844.486	-28.84
844.662	-14.51
844.838	-0.17
845.013	44.88
845.189	59.22
845.365	-57.51
845.541	8.02
845.716	8.02
845.892	1.88
846.068	-98.47
846.244	30.55
846.419	-16.55
846.595	48.98
846.77	-43.18
846.946	53.08
847.122	-43.18
847.297	-73.9
847.473	51.03
847.648	-155.82
847.824	-8.36
847.999	-63.66
848.175	-32.94
848.35	-116.9
848.526	42.84
848.701	34.64
848.876	67.41
849.052	139.09
849.227	-37.03
849.403	-59.56
849.578	36.69
849.753	-12.46
849.929	-14.51
850.104	-100.52
850.279	22.36
850.454	44.88
850.63	106.32
850.805	-4.27
850.98	8.02
851.155	-26.79
851.33	18.26
851.505	-30.89
851.681	171.86
851.856	-41.13
852.031	24.4
852.206	34.64
852.381	-114.86
852.556	-49.32
852.731	-8.36
852.906	18.26
853.081	61.27
853.256	163.67
853.431	-49.32
853.606	-123.05
853.781	-45.23
853.956	-82.09
854.131	-61.61
854.305	-10.41
854.48	20.31
854.655	-69.8
854.83	-110.76
855.005	3.93
855.18	77.65
855.354	-6.31
855.529	42.84
855.704	-41.13
855.879	96.08
856.053	-90.28
856.228	3.93
856.403	44.88
856.577	59.22
856.752	-57.51
856.926	-30.89
857.101	-34.99
857.276	-24.75
857.45	1.88
857.625	126.8
857.799	5.97
857.974	46.93
858.148	-88.23
858.323	-10.41
858.497	28.5
858.672	-69.8
858.846	-106.67
859.02	59.22
859.195	-69.8
859.369	14.17
859.543	81.75
859.718	-8.36
859.892	-39.08
860.066	79.7
860.241	-106.67
860.415	30.55
860.589	91.99
860.763	44.88
860.938	-63.66
861.112	71.51
861.286	-34.99
861.46	77.65
861.634	-30.89
861.808	106.32
861.982	-22.7
862.157	-90.28
862.331	-82.09
862.505	-133.29
862.679	-102.57
862.853	-55.47
863.027	40.79
863.201	81.75
863.375	-12.46
863.549	36.69
863.722	55.12
863.896	126.8
864.07	-102.57
864.244	-94.38
864.418	81.75
864.592	26.45
864.766	20.31
864.939	36.69
865.113	-43.18
865.287	48.98
865.461	-102.57
865.634	-24.75
865.808	-14.51
865.982	5.97
866.156	-22.7
866.329	-116.9
866.503	-18.6
866.676	5.97
866.85	24.4
867.024	-49.32
867.197	42.84
867.371	65.36
867.544	53.08
867.718	-112.81
867.891	38.74
868.065	-77.99
868.238	28.5
868.412	65.36
868.585	20.31
868.759	-73.9
868.932	63.32
869.105	-73.9
869.279	77.65
869.452	-61.61
869.625	-8.36
869.799	18.26
869.972	-100.52
870.145	-49.32
870.319	12.12
870.492	-108.71
870.665	-14.51
870.838	-20.65
871.011	-123.05
871.185	-4.27
871.358	-110.76
871.531	40.79
871.704	-37.03
871.877	-20.65
872.05	-47.27
872.223	-73.9
872.396	30.55
872.569	63.32
872.742	-73.9
872.915	-45.23
873.088	-28.84
873.261	-57.51
873.434	-10.41
873.607	5.97
873.78	30.55
873.953	-139.43
874.126	-45.23
874.299	30.55
874.471	-43.18
874.644	22.36
874.817	42.84
874.99	128.85
875.163	-41.13
875.335	-0.17
875.508	-32.94
875.681	75.6
875.853	10.07
876.026	1.88
876.199	-45.23
876.371	32.6
876.544	-0.17
876.717	-69.8
876.889	-41.13
877.062	59.22
877.234	20.31
877.407	-92.33
877.579	-71.85
877.752	-8.36
877.924	-24.75
878.097	-4.27
878.269	-32.94
878.442	-4.27
878.614	22.36
878.786	-51.37
878.959	8.02
879.131	-8.36
879.303	-104.62
879.476	-26.79
879.648	34.64
879.82	5.97
879.993	-26.79
880.165	16.21
880.337	-45.23
880.509	14.17
880.681	-75.95
880.854	-65.71
881.026	65.36
881.198	235.35
881.37	-71.85
881.542	-51.37
881.714	-4.27
881.886	-71.85
882.058	-4.27
882.23	-47.27
882.402	14.17
882.574	22.36
882.746	141.14
882.918	28.5
883.09	63.32
883.262	20.31
883.434	3.93
883.606	-37.03
883.778	-75.95
883.95	141.14
884.122	-41.13
884.293	38.74
884.465	-0.17
884.637	63.32
884.809	-51.37
884.98	28.5
885.152	18.26
885.324	-2.22
885.496	-57.51
885.667	18.26
885.839	-47.27
886.011	83.8
886.182	12.12
886.354	85.84
886.525	3.93
886.697	42.84
886.869	-67.75
887.04	-49.32
887.212	120.66
887.383	130.9
887.555	-32.94
887.726	-86.19
887.897	-0.17
888.069	26.45
888.24	143.19
888.412	53.08
888.583	-10.41
888.754	-8.36
888.926	-166.06
889.097	-32.94
889.268	-84.14
889.44	22.36
889.611	-147.62
889.782	12.12
889.953	-20.65
890.125	42.84
890.296	-26.79
890.467	-30.89
890.638	-116.9
890.809	-8.36
890.98	-98.47
891.151	46.93
891.323	67.41
891.494	-4.27
891.665	46.93
891.836	22.36
892.007	73.56
892.178	30.55
892.349	-73.9
892.52	-108.71
892.691	16.21
892.862	-41.13
893.032	-53.42
893.203	-133.29
893.374	10.07
893.545	16.21
893.716	-43.18
893.887	65.36
894.057	-90.28
894.228	-16.55
894.399	-96.43
894.57	98.13
894.74	-61.61
894.911	12.12
895.082	-73.9
895.253	-47.27
895.423	-0.17
895.594	-24.75
895.764	38.74
895.935	-153.77
896.106	40.79
896.276	-141.48
896.447	26.45
896.617	-86.19
896.788	-116.9
896.958	-55.47
897.129	-8.36
897.299	3.93
897.47	65.36
897.64	24.4
897.81	-6.31
897.981	40.79
898.151	-61.61
898.322	-4.27
898.492	85.84
898.662	-164.01
898.832	-67.75
899.003	-14.51
899.173	55.12
899.343	-14.51
899.513	-139.43
