Data from USB4F104151__96__10-45-17-164.txt Node

Date: Wed Feb 26 10:45:17 EST 2025
User: louis
Spectrometer: USB4F10415
Trigger mode: 4
Integration Time (sec): 1.000000E-1
Scans to average: 1
Electric dark correction enabled: true
Nonlinearity correction enabled: false
Boxcar width: 0
XAxis mode: Wavelengths
Number of Pixels in Spectrum: 3648
>>>>>Begin Spectral Data<<<<<
178.204	-386.38
178.424	-386.38
178.644	-386.38
178.864	-374.1
179.084	-349.52
179.304	-58.71
179.524	-17.75
179.744	29.35
179.964	119.46
180.184	-13.65
180.404	-1.37
180.624	10.92
180.844	17.07
181.064	-144.72
181.283	45.74
181.503	-19.8
181.723	33.45
181.943	-68.95
182.163	225.96
182.383	62.12
182.602	74.41
182.822	170.66
183.042	88.75
183.262	-11.61
183.482	23.21
183.701	33.45
183.921	84.65
184.141	19.11
184.361	84.65
184.58	64.17
184.8	-3.41
185.02	-58.71
185.239	193.19
185.459	131.75
185.679	131.75
185.898	-83.28
186.118	25.26
186.338	92.84
186.557	170.66
186.777	8.87
186.997	-126.29
187.216	43.69
187.436	107.18
187.655	68.27
187.875	29.35
188.095	72.36
188.314	135.85
188.534	146.09
188.753	23.21
188.973	68.27
189.192	172.71
189.412	17.07
189.631	64.17
189.851	45.74
190.07	174.76
190.29	19.11
190.509	-19.8
190.729	131.75
190.948	197.29
191.168	287.4
191.387	119.46
191.607	35.5
191.826	82.6
192.045	37.55
192.265	-73.04
192.484	19.11
192.704	109.22
192.923	-54.61
193.142	152.23
193.362	146.09
193.581	131.75
193.8	10.92
194.02	74.41
194.239	23.21
194.458	23.21
194.678	-27.99
194.897	84.65
195.116	23.21
195.335	33.45
195.555	31.4
195.774	-30.04
195.993	135.85
196.212	103.08
196.432	39.59
196.651	-5.46
196.87	-1.37
197.089	180.9
197.308	23.21
197.528	115.37
197.747	-64.85
197.966	113.32
198.185	94.89
198.404	-32.08
198.623	107.18
198.842	133.8
199.062	2.73
199.281	121.51
199.5	137.9
199.719	19.11
199.938	58.03
200.157	86.7
200.376	135.85
200.595	172.71
200.814	107.18
201.033	15.02
201.252	232.1
201.471	113.32
201.69	101.03
201.909	53.93
202.128	123.56
202.347	111.27
202.566	31.4
202.785	-54.61
203.004	-30.04
203.223	242.34
203.442	135.85
203.661	6.83
203.879	72.36
204.098	129.7
204.317	-46.42
204.536	43.69
204.755	58.03
204.974	146.09
205.193	-50.52
205.411	94.89
205.63	74.41
205.849	19.11
206.068	-9.56
206.287	-93.52
206.505	74.41
206.724	29.35
206.943	-56.66
207.162	-54.61
207.381	19.11
207.599	-1.37
207.818	53.93
208.037	33.45
208.255	82.6
208.474	27.31
208.693	76.46
208.911	76.46
209.13	94.89
209.349	76.46
209.567	55.98
209.786	88.75
210.005	129.7
210.223	92.84
210.442	-134.48
210.661	21.16
210.879	117.42
211.098	88.75
211.316	53.93
211.535	17.07
211.753	17.07
211.972	62.12
212.191	-1.37
212.409	43.69
212.628	58.03
212.846	68.27
213.065	115.37
213.283	152.23
213.502	88.75
213.72	10.92
213.938	39.59
214.157	25.26
214.375	64.17
214.594	33.45
214.812	105.13
215.031	-52.56
215.249	49.83
215.467	76.46
215.686	53.93
215.904	117.42
216.122	6.83
216.341	125.61
216.559	43.69
216.778	135.85
216.996	158.38
217.214	-25.94
217.432	53.93
217.651	-27.99
217.869	37.55
218.087	105.13
218.306	33.45
218.524	121.51
218.742	35.5
218.96	152.23
219.179	2.73
219.397	64.17
219.615	201.38
219.833	137.9
220.051	-54.61
220.27	86.7
220.488	88.75
220.706	29.35
220.924	19.11
221.142	-50.52
221.36	2.73
221.578	111.27
221.796	-15.7
222.015	17.07
222.233	15.02
222.451	109.22
222.669	6.83
222.887	90.79
223.105	10.92
223.323	51.88
223.541	27.31
223.759	84.65
223.977	37.55
224.195	172.71
224.413	60.07
224.631	119.46
224.849	-11.61
225.067	156.33
225.285	10.92
225.503	29.35
225.721	-44.37
225.939	15.02
226.157	119.46
226.375	172.71
226.592	-30.04
226.81	19.11
227.028	176.81
227.246	125.61
227.464	39.59
227.682	119.46
227.9	94.89
228.117	51.88
228.335	82.6
228.553	4.78
228.771	72.36
228.989	105.13
229.206	60.07
229.424	39.59
229.642	70.31
229.86	-62.8
230.077	125.61
230.295	80.55
230.513	172.71
230.731	64.17
230.948	115.37
231.166	180.9
231.384	27.31
231.601	43.69
231.819	119.46
232.037	17.07
232.254	-23.89
232.472	17.07
232.689	37.55
232.907	78.51
233.125	-159.06
233.342	29.35
233.56	25.26
233.777	31.4
233.995	51.88
234.213	98.99
234.43	90.79
234.648	47.79
234.865	-5.46
235.083	144.04
235.3	41.64
235.518	117.42
235.735	92.84
235.953	146.09
236.17	53.93
236.388	-9.56
236.605	-9.56
236.822	178.86
237.04	121.51
237.257	96.94
237.475	-17.75
237.692	53.93
237.909	53.93
238.127	29.35
238.344	47.79
238.562	70.31
238.779	-38.23
238.996	-50.52
239.214	-9.56
239.431	37.55
239.648	-9.56
239.865	86.7
240.083	86.7
240.3	-87.38
240.517	-38.23
240.735	144.04
240.952	168.62
241.169	139.94
241.386	125.61
241.603	80.55
241.821	-32.08
242.038	115.37
242.255	105.13
242.472	-122.2
242.689	84.65
242.907	60.07
243.124	49.83
243.341	45.74
243.558	37.55
243.775	-71
243.992	27.31
244.209	129.7
244.426	205.48
244.643	86.7
244.86	60.07
245.078	113.32
245.295	68.27
245.512	60.07
245.729	-7.51
245.946	119.46
246.163	43.69
246.38	-34.13
246.597	86.7
246.814	31.4
247.031	101.03
247.248	49.83
247.464	80.55
247.681	39.59
247.898	78.51
248.115	74.41
248.332	6.83
248.549	37.55
248.766	199.34
248.983	47.79
249.2	66.22
249.417	98.99
249.633	-46.42
249.85	82.6
250.067	64.17
250.284	-1.37
250.501	17.07
250.717	144.04
250.934	21.16
251.151	8.87
251.368	64.17
251.585	66.22
251.801	88.75
252.018	-15.7
252.235	146.09
252.451	-73.04
252.668	8.87
252.885	92.84
253.102	127.66
253.318	-56.66
253.535	66.22
253.752	-21.85
253.968	-21.85
254.185	-34.13
254.401	92.84
254.618	45.74
254.835	35.5
255.051	178.86
255.268	156.33
255.484	111.27
255.701	0.68
255.917	133.8
256.134	-44.37
256.351	86.7
256.567	-40.28
256.784	-42.32
257	-27.99
257.217	146.09
257.433	86.7
257.65	51.88
257.866	158.38
258.082	-91.48
258.299	-5.46
258.515	43.69
258.732	78.51
258.948	-52.56
259.165	45.74
259.381	66.22
259.597	125.61
259.814	-50.52
260.03	45.74
260.246	6.83
260.463	70.31
260.679	115.37
260.895	37.55
261.112	23.21
261.328	111.27
261.544	21.16
261.761	150.18
261.977	-25.94
262.193	-97.62
262.409	146.09
262.626	47.79
262.842	92.84
263.058	-13.65
263.274	53.93
263.49	78.51
263.707	127.66
263.923	98.99
264.139	-36.18
264.355	0.68
264.571	150.18
264.787	60.07
265.004	80.55
265.22	-15.7
265.436	25.26
265.652	23.21
265.868	17.07
266.084	-50.52
266.3	164.52
266.516	-40.28
266.732	58.03
266.948	39.59
267.164	33.45
267.38	119.46
267.596	103.08
267.812	217.77
268.028	45.74
268.244	15.02
268.46	117.42
268.676	66.22
268.892	76.46
269.108	-79.19
269.324	6.83
269.54	-11.61
269.756	105.13
269.972	53.93
270.188	58.03
270.403	-21.85
270.619	2.73
270.835	70.31
271.051	17.07
271.267	-9.56
271.483	21.16
271.698	125.61
271.914	86.7
272.13	43.69
272.346	47.79
272.562	117.42
272.777	156.33
272.993	25.26
273.209	47.79
273.425	148.14
273.64	-21.85
273.856	49.83
274.072	-1.37
274.287	41.64
274.503	137.9
274.719	98.99
274.934	6.83
275.15	-3.41
275.366	37.55
275.581	-15.7
275.797	8.87
276.012	-9.56
276.228	21.16
276.444	96.94
276.659	84.65
276.875	-32.08
277.09	43.69
277.306	25.26
277.521	35.5
277.737	127.66
277.952	47.79
278.168	25.26
278.383	10.92
278.599	78.51
278.814	84.65
279.03	17.07
279.245	154.28
279.461	10.92
279.676	68.27
279.892	-99.67
280.107	-9.56
280.322	-54.61
280.538	47.79
280.753	-15.7
280.969	-25.94
281.184	35.5
281.399	125.61
281.615	0.68
281.83	8.87
282.045	31.4
282.26	-1.37
282.476	49.83
282.691	72.36
282.906	33.45
283.122	103.08
283.337	-54.61
283.552	55.98
283.767	0.68
283.983	72.36
284.198	41.64
284.413	43.69
284.628	-48.47
284.843	88.75
285.058	-7.51
285.274	23.21
285.489	37.55
285.704	105.13
285.919	-3.41
286.134	-44.37
286.349	55.98
286.564	-15.7
286.779	148.14
286.995	-3.41
287.21	-75.09
287.425	131.75
287.64	4.78
287.855	-11.61
288.07	-107.86
288.285	135.85
288.5	76.46
288.715	23.21
288.93	33.45
289.145	49.83
289.36	55.98
289.575	64.17
289.79	80.55
290.004	-34.13
290.219	109.22
290.434	51.88
290.649	55.98
290.864	19.11
291.079	10.92
291.294	-50.52
291.509	96.94
291.724	10.92
291.938	35.5
292.153	74.41
292.368	25.26
292.583	39.59
292.798	107.18
293.012	82.6
293.227	31.4
293.442	35.5
293.657	80.55
293.871	148.14
294.086	101.03
294.301	248.49
294.516	160.42
294.73	105.13
294.945	-34.13
295.16	2.73
295.374	164.52
295.589	107.18
295.804	-9.56
296.018	23.21
296.233	205.48
296.447	90.79
296.662	0.68
296.877	150.18
297.091	90.79
297.306	101.03
297.52	-1.37
297.735	90.79
297.949	39.59
298.164	98.99
298.378	19.11
298.593	-30.04
298.807	27.31
299.022	96.94
299.236	125.61
299.451	64.17
299.665	-58.71
299.88	31.4
300.094	49.83
300.309	31.4
300.523	62.12
300.737	23.21
300.952	27.31
301.166	125.61
301.381	-21.85
301.595	94.89
301.809	121.51
302.024	47.79
302.238	-79.19
302.452	156.33
302.667	23.21
302.881	166.57
303.095	90.79
303.309	141.99
303.524	45.74
303.738	-44.37
303.952	-40.28
304.166	72.36
304.381	-99.67
304.595	162.47
304.809	15.02
305.023	92.84
305.237	-5.46
305.452	12.97
305.666	111.27
305.88	80.55
306.094	150.18
306.308	35.5
306.522	64.17
306.736	74.41
306.95	96.94
307.164	70.31
307.379	-27.99
307.593	162.47
307.807	178.86
308.021	82.6
308.235	131.75
308.449	-120.15
308.663	49.83
308.877	207.53
309.091	125.61
309.305	43.69
309.519	-56.66
309.733	94.89
309.947	23.21
310.161	33.45
310.374	94.89
310.588	129.7
310.802	49.83
311.016	-1.37
311.23	70.31
311.444	-46.42
311.658	53.93
311.872	53.93
312.085	125.61
312.299	131.75
312.513	148.14
312.727	-13.65
312.941	90.79
313.154	43.69
313.368	70.31
313.582	43.69
313.796	125.61
314.009	-17.75
314.223	86.7
314.437	96.94
314.651	94.89
314.864	72.36
315.078	92.84
315.292	-15.7
315.505	-30.04
315.719	101.03
315.933	66.22
316.146	64.17
316.36	-36.18
316.573	98.99
316.787	90.79
317.001	127.66
317.214	64.17
317.428	152.23
317.641	-34.13
317.855	4.78
318.068	43.69
318.282	43.69
318.495	135.85
318.709	62.12
318.922	-15.7
319.136	88.75
319.349	137.9
319.563	6.83
319.776	94.89
319.99	-21.85
320.203	51.88
320.417	31.4
320.63	199.34
320.843	234.15
321.057	82.6
321.27	29.35
321.483	109.22
321.697	162.47
321.91	45.74
322.124	19.11
322.337	141.99
322.55	0.68
322.763	115.37
322.977	68.27
323.19	10.92
323.403	41.64
323.617	88.75
323.83	115.37
324.043	-36.18
324.256	66.22
324.469	-66.9
324.683	139.94
324.896	17.07
325.109	47.79
325.322	-99.67
325.535	141.99
325.748	127.66
325.962	-5.46
326.175	80.55
326.388	117.42
326.601	90.79
326.814	21.16
327.027	88.75
327.24	76.46
327.453	-50.52
327.666	64.17
327.879	150.18
328.092	64.17
328.305	39.59
328.518	4.78
328.731	2.73
328.944	64.17
329.157	117.42
329.37	70.31
329.583	162.47
329.796	150.18
330.009	-66.9
330.222	45.74
330.435	121.51
330.648	49.83
330.861	58.03
331.073	31.4
331.286	160.42
331.499	78.51
331.712	-38.23
331.925	4.78
332.138	-17.75
332.35	135.85
332.563	4.78
332.776	101.03
332.989	-25.94
333.202	2.73
333.414	68.27
333.627	47.79
333.84	74.41
334.053	45.74
334.265	-58.71
334.478	-44.37
334.691	-9.56
334.903	133.8
335.116	-25.94
335.329	-42.32
335.541	58.03
335.754	160.42
335.966	51.88
336.179	-1.37
336.392	6.83
336.604	43.69
336.817	88.75
337.029	49.83
337.242	29.35
337.454	96.94
337.667	90.79
337.88	70.31
338.092	70.31
338.305	78.51
338.517	70.31
338.729	70.31
338.942	148.14
339.154	-60.76
339.367	-36.18
339.579	80.55
339.792	-13.65
340.004	105.13
340.217	8.87
340.429	33.45
340.641	64.17
340.854	-38.23
341.066	62.12
341.278	113.32
341.491	193.19
341.703	47.79
341.915	66.22
342.128	15.02
342.34	80.55
342.552	60.07
342.764	76.46
342.977	66.22
343.189	109.22
343.401	129.7
343.613	-21.85
343.826	19.11
344.038	23.21
344.25	45.74
344.462	41.64
344.674	107.18
344.886	21.16
345.099	70.31
345.311	60.07
345.523	98.99
345.735	-11.61
345.947	41.64
346.159	-36.18
346.371	-5.46
346.583	-9.56
346.795	209.58
347.007	29.35
347.219	37.55
347.431	76.46
347.643	162.47
347.855	0.68
348.067	166.57
348.279	-75.09
348.491	64.17
348.703	51.88
348.915	4.78
349.127	-56.66
349.339	133.8
349.551	2.73
349.763	19.11
349.975	84.65
350.187	125.61
350.399	168.62
350.61	105.13
350.822	31.4
351.034	80.55
351.246	12.97
351.458	88.75
351.669	135.85
351.881	148.14
352.093	158.38
352.305	148.14
352.517	8.87
352.728	141.99
352.94	86.7
353.152	113.32
353.363	-17.75
353.575	141.99
353.787	191.14
353.999	62.12
354.21	107.18
354.422	2.73
354.633	21.16
354.845	49.83
355.057	31.4
355.268	101.03
355.48	70.31
355.692	-15.7
355.903	55.98
356.115	-91.48
356.326	-83.28
356.538	166.57
356.749	137.9
356.961	137.9
357.172	-36.18
357.384	-21.85
357.595	199.34
357.807	68.27
358.018	29.35
358.23	4.78
358.441	166.57
358.653	92.84
358.864	96.94
359.075	23.21
359.287	60.07
359.498	146.09
359.709	82.6
359.921	74.41
360.132	107.18
360.344	-48.47
360.555	43.69
360.766	66.22
360.977	31.4
361.189	74.41
361.4	37.55
361.611	166.57
361.823	162.47
362.034	31.4
362.245	-25.94
362.456	19.11
362.667	92.84
362.879	-21.85
363.09	164.52
363.301	127.66
363.512	31.4
363.723	-11.61
363.935	62.12
364.146	92.84
364.357	58.03
364.568	92.84
364.779	-56.66
364.99	133.8
365.201	-66.9
365.412	162.47
365.623	29.35
365.834	107.18
366.045	53.93
366.256	39.59
366.467	94.89
366.678	72.36
366.889	8.87
367.1	96.94
367.311	105.13
367.522	37.55
367.733	60.07
367.944	90.79
368.155	-5.46
368.366	164.52
368.577	90.79
368.788	66.22
368.999	-21.85
369.209	33.45
369.42	205.48
369.631	207.53
369.842	105.13
370.053	27.31
370.264	43.69
370.474	43.69
370.685	74.41
370.896	0.68
371.107	164.52
371.317	164.52
371.528	-34.13
371.739	152.23
371.95	47.79
372.16	43.69
372.371	19.11
372.582	10.92
372.792	82.6
373.003	119.46
373.214	55.98
373.424	107.18
373.635	-66.9
373.846	70.31
374.056	15.02
374.267	-30.04
374.477	156.33
374.688	17.07
374.898	88.75
375.109	10.92
375.319	51.88
375.53	154.28
375.74	119.46
375.951	39.59
376.161	72.36
376.372	51.88
376.582	55.98
376.793	55.98
377.003	29.35
377.214	-44.37
377.424	127.66
377.635	92.84
377.845	-5.46
378.055	139.94
378.266	4.78
378.476	98.99
378.686	98.99
378.897	86.7
379.107	135.85
379.317	92.84
379.528	21.16
379.738	53.93
379.948	31.4
380.158	94.89
380.369	-25.94
380.579	125.61
380.789	12.97
380.999	109.22
381.21	133.8
381.42	117.42
381.63	29.35
381.84	141.99
382.05	92.84
382.261	101.03
382.471	92.84
382.681	-15.7
382.891	127.66
383.101	21.16
383.311	23.21
383.521	-46.42
383.731	129.7
383.941	107.18
384.151	45.74
384.361	31.4
384.571	117.42
384.781	53.93
384.991	211.62
385.201	135.85
385.411	115.37
385.621	133.8
385.831	53.93
386.041	23.21
386.251	107.18
386.461	105.13
386.671	-13.65
386.881	70.31
387.091	109.22
387.301	154.28
387.511	6.83
387.72	43.69
387.93	88.75
388.14	-38.23
388.35	107.18
388.56	158.38
388.769	107.18
388.979	-58.71
389.189	-32.08
389.399	17.07
389.609	90.79
389.818	62.12
390.028	60.07
390.238	68.27
390.447	-38.23
390.657	51.88
390.867	-60.76
391.076	-5.46
391.286	121.51
391.496	23.21
391.705	51.88
391.915	141.99
392.125	129.7
392.334	-52.56
392.544	62.12
392.753	31.4
392.963	62.12
393.172	17.07
393.382	-1.37
393.591	221.86
393.801	21.16
394.01	125.61
394.22	150.18
394.429	-19.8
394.639	27.31
394.848	35.5
395.058	-17.75
395.267	37.55
395.477	-11.61
395.686	70.31
395.895	225.96
396.105	219.82
396.314	8.87
396.524	12.97
396.733	37.55
396.942	133.8
397.152	117.42
397.361	154.28
397.57	103.08
397.78	72.36
397.989	92.84
398.198	203.43
398.407	41.64
398.617	115.37
398.826	-32.08
399.035	8.87
399.244	111.27
399.453	39.59
399.663	68.27
399.872	76.46
400.081	-62.8
400.29	105.13
400.499	-17.75
400.708	117.42
400.917	60.07
401.127	-25.94
401.336	8.87
401.545	180.9
401.754	193.19
401.963	90.79
402.172	90.79
402.381	-9.56
402.59	49.83
402.799	43.69
403.008	94.89
403.217	103.08
403.426	111.27
403.635	-21.85
403.844	-15.7
404.053	-21.85
404.262	45.74
404.471	172.71
404.68	76.46
404.888	27.31
405.097	55.98
405.306	76.46
405.515	105.13
405.724	-91.48
405.933	109.22
406.142	141.99
406.35	119.46
406.559	23.21
406.768	25.26
406.977	223.91
407.185	37.55
407.394	94.89
407.603	15.02
407.812	60.07
408.02	121.51
408.229	86.7
408.438	90.79
408.646	-34.13
408.855	39.59
409.064	113.32
409.272	-13.65
409.481	90.79
409.69	17.07
409.898	-71
410.107	80.55
410.315	180.9
410.524	-1.37
410.733	43.69
410.941	68.27
411.15	90.79
411.358	127.66
411.567	146.09
411.775	92.84
411.984	12.97
412.192	115.37
412.401	74.41
412.609	201.38
412.818	135.85
413.026	64.17
413.234	12.97
413.443	76.46
413.651	68.27
413.86	23.21
414.068	154.28
414.276	86.7
414.485	25.26
414.693	191.14
414.901	215.72
415.11	72.36
415.318	105.13
415.526	111.27
415.734	74.41
415.943	84.65
416.151	156.33
416.359	23.21
416.567	53.93
416.776	49.83
416.984	137.9
417.192	137.9
417.4	64.17
417.608	64.17
417.817	64.17
418.025	82.6
418.233	178.86
418.441	0.68
418.649	0.68
418.857	0.68
419.065	131.75
419.273	35.5
419.481	90.79
419.689	78.51
419.897	23.21
420.105	6.83
420.313	139.94
420.521	178.86
420.729	111.27
420.937	21.16
421.145	-11.61
421.353	80.55
421.561	88.75
421.769	43.69
421.977	17.07
422.185	96.94
422.393	105.13
422.601	129.7
422.809	137.9
423.017	-1.37
423.224	84.65
423.432	129.7
423.64	6.83
423.848	127.66
424.056	78.51
424.263	146.09
424.471	66.22
424.679	152.23
424.887	-48.47
425.094	144.04
425.302	148.14
425.51	68.27
425.718	119.46
425.925	47.79
426.133	45.74
426.341	201.38
426.548	58.03
426.756	88.75
426.964	170.66
427.171	25.26
427.379	127.66
427.586	74.41
427.794	211.62
428.001	131.75
428.209	207.53
428.417	185
428.624	185
428.832	160.42
429.039	84.65
429.247	193.19
429.454	156.33
429.662	209.58
429.869	203.43
430.076	221.86
430.284	137.9
430.491	168.62
430.699	156.33
430.906	225.96
431.114	203.43
431.321	141.99
431.528	141.99
431.736	193.19
431.943	232.1
432.15	187.05
432.358	185
432.565	228.01
432.772	25.26
432.979	234.15
433.187	137.9
433.394	236.2
433.601	168.62
433.808	205.48
434.016	303.78
434.223	268.97
434.43	211.62
434.637	252.58
434.844	160.42
435.052	209.58
435.259	307.88
435.466	307.88
435.673	236.2
435.88	297.64
436.087	299.69
436.294	383.65
436.501	436.9
436.708	289.45
436.915	422.56
437.122	375.46
437.329	268.97
437.537	338.6
437.743	418.47
437.95	488.1
438.157	465.57
438.364	432.8
438.571	342.69
438.778	445.09
438.985	395.94
439.192	610.98
439.399	445.09
439.606	531.11
439.813	576.16
440.02	715.42
440.227	705.18
440.433	602.79
440.64	516.77
440.847	537.25
441.054	590.5
441.261	793.25
441.467	699.04
441.674	645.79
441.881	737.95
442.088	668.32
442.294	766.62
442.501	854.69
442.708	885.41
442.914	918.17
443.121	950.94
443.328	979.61
443.534	1094.3
443.741	907.93
443.948	928.41
444.154	998.04
444.361	1182.36
444.568	1063.58
444.774	1165.98
444.981	1039
445.187	1315.48
445.394	1280.66
445.6	1237.66
445.807	1417.88
446.013	1419.92
446.22	1366.68
446.426	1491.6
446.633	1516.18
446.839	1788.56
447.046	1536.66
447.252	1739.41
447.459	1686.16
447.665	1806.99
447.871	1903.25
448.078	2042.51
448.284	1979.02
448.491	2032.27
448.697	2249.35
448.903	2204.3
449.11	2415.24
449.316	2273.93
449.522	2464.39
449.728	2585.22
449.935	2640.51
450.141	2624.13
450.347	2941.57
450.553	2781.82
450.76	2976.38
450.966	3109.5
451.172	3189.37
451.378	3267.19
451.584	3400.31
451.791	3605.11
451.997	3693.17
452.203	3795.57
452.409	4010.61
452.615	4178.54
452.821	4043.37
453.027	3994.22
453.233	4551.27
453.44	4434.53
453.646	4749.92
453.852	4891.23
454.058	5063.26
454.264	5175.9
454.47	5515.86
454.676	5730.9
454.882	6044.24
455.088	5831.25
455.294	6128.21
455.5	6586.95
455.705	6754.88
455.911	6836.8
456.117	7047.74
456.323	7244.35
456.529	7342.65
456.735	7866.93
456.941	8141.36
457.147	8747.56
457.352	8636.97
457.558	9007.65
457.764	9646.62
457.97	9658.9
458.176	10117.65
458.381	10650.12
458.587	11031.04
458.793	11364.86
458.999	11549.18
459.204	12765.67
459.41	13205.99
459.616	12937.7
459.821	13787.61
460.027	14418.38
460.233	14961.09
460.438	15145.41
460.644	15944.12
460.85	16220.6
461.055	16988.58
461.261	17656.22
461.466	17086.89
461.672	17486.24
461.878	19712.38
462.083	19519.87
462.289	19855.74
462.494	20451.7
462.7	20853.1
462.905	20818.28
463.111	22923.6
463.316	23951.68
463.522	24187.19
463.727	25022.76
463.932	25813.28
464.138	26845.46
464.343	27969.79
464.549	28131.58
464.754	30083.3
464.959	30793.94
465.165	31486.15
465.37	30904.53
465.575	31336.65
465.781	33480.88
465.986	34252.96
466.191	33720.49
466.397	34228.38
466.602	33204.4
466.807	35379.34
467.012	35651.72
467.218	36235.39
467.423	36634.75
467.628	37744.75
467.833	39456.85
468.038	38377.57
468.244	37957.74
468.449	40009.8
468.654	38996.06
468.859	38967.38
469.064	39465.04
469.269	37851.24
469.474	38346.85
469.679	39663.69
469.885	38381.66
470.09	39446.61
470.295	39213.14
470.5	38400.1
470.705	38502.5
470.91	37750.89
471.115	37384.3
471.32	38240.36
471.525	37666.92
471.73	36577.4
471.935	36356.22
472.139	34623.64
472.344	35248.27
472.549	35020.95
472.754	34168.99
472.959	33484.97
473.164	32516.28
473.369	31584.46
473.574	32825.53
473.778	32030.91
473.983	31514.83
474.188	31375.56
474.393	29313.26
474.598	29673.7
474.802	28827.89
475.007	28514.55
475.212	28193.02
475.417	27007.25
475.621	26738.96
475.826	26274.07
476.031	25860.38
476.235	25192.75
476.44	25614.63
476.645	24613.17
476.849	24807.73
477.054	24135.99
477.259	23183.69
477.463	23384.39
477.668	22917.45
477.872	23044.43
478.077	22346.07
478.282	21621.09
478.486	21432.68
478.691	21078.38
478.895	20994.41
479.1	20971.88
479.304	20748.65
479.509	19800.44
479.713	20222.33
479.918	19892.6
480.122	19087.75
480.326	19640.7
480.531	19581.31
480.735	19229.06
480.94	18921.87
481.144	19607.94
481.348	18428.31
481.553	18715.02
481.757	17994.14
481.961	18411.92
482.166	18393.49
482.37	17889.69
482.574	17691.04
482.778	17811.87
482.983	18133.4
483.187	17674.65
483.391	17695.13
483.595	17162.66
483.8	16804.27
484.004	16953.77
484.208	17045.93
484.412	16769.45
484.616	16617.9
484.821	16544.17
485.025	15827.39
485.229	16056.76
485.433	15442.37
485.637	15761.85
485.841	15428.03
486.045	15274.43
486.249	15069.64
486.453	14606.8
486.657	14598.6
486.861	14406.09
487.065	14062.04
487.269	14008.79
487.473	13394.4
487.677	13578.72
487.881	13566.43
488.085	13023.72
488.289	12933.61
488.493	12384.75
488.697	12866.02
488.901	12259.82
489.105	11923.96
489.309	11883
489.512	11784.69
489.716	11577.85
489.92	11422.2
490.124	11145.73
490.328	10942.98
490.531	10643.98
490.735	10680.84
490.939	10258.96
491.143	10322.45
491.346	10080.78
491.55	9789.97
491.754	9599.51
491.958	9513.5
492.161	9302.56
492.365	9265.69
492.569	9019.94
492.772	9028.13
492.976	8786.47
493.18	8823.33
493.383	8509.99
493.587	8383.02
493.79	8438.31
493.994	8264.24
494.197	8264.24
494.401	8192.56
494.605	8018.48
494.808	8020.53
495.012	7815.73
495.215	8055.34
495.419	7926.32
495.622	7692.85
495.825	7764.53
496.029	7594.55
496.232	7633.46
496.436	7500.34
496.639	7721.52
496.843	7481.91
497.046	7617.08
497.249	7621.17
497.453	7672.37
497.656	7326.27
497.859	7621.17
498.063	7496.25
498.266	7610.93
498.469	7361.08
498.673	7461.43
498.876	7500.34
499.079	7666.23
499.282	7641.65
499.485	7836.21
499.689	7655.99
499.892	7776.82
500.095	7766.58
500.298	7940.66
500.501	7729.72
500.705	7985.71
500.908	7983.66
501.111	8098.35
501.314	8309.29
501.517	8223.28
501.72	8368.68
501.923	8190.51
502.126	8196.65
502.329	8532.52
502.532	8669.73
502.735	8819.24
502.938	9157.15
503.141	8864.29
503.344	9134.62
503.547	9009.7
503.75	9167.39
503.953	9259.55
504.156	9630.23
504.359	9511.45
504.562	9564.7
504.765	9832.98
504.968	10025.49
505.17	10283.53
505.373	10224.14
505.576	10564.11
505.779	10611.21
505.982	10557.96
506.185	10959.36
506.387	11072
506.59	11430.4
506.793	11620.86
506.996	11608.57
507.198	12102.13
507.401	11919.86
507.604	12587.5
507.807	12569.07
508.009	12775.91
508.212	12970.47
508.415	13132.26
508.617	13373.92
508.82	13865.43
509.022	13881.81
509.225	14270.93
509.428	14344.66
509.63	14862.79
509.833	15032.77
510.035	15692.22
510.238	15815.1
510.44	16009.65
510.643	16587.18
510.845	16970.15
511.048	17095.08
511.25	17633.69
511.453	17885.59
511.655	18801.04
511.858	18643.34
512.06	19431.81
512.262	19583.36
512.465	20175.22
512.667	20425.08
512.87	20910.44
513.072	21453.16
513.274	21825.89
513.477	22221.14
513.679	22839.63
513.881	23069
514.084	24013.12
514.286	24351.03
514.488	24467.77
514.69	25549.09
514.893	25862.43
515.095	26153.24
515.297	27199.76
515.499	27726.08
515.701	27801.86
515.904	28473.59
516.106	29567.21
516.308	29722.85
516.51	30550.23
516.712	30685.4
516.914	31701.19
517.116	32499.9
517.318	32899.25
517.52	33476.78
517.722	34070.69
517.925	34324.64
518.127	35399.82
518.329	36069.51
518.531	36403.33
518.733	36894.84
518.935	37912.68
519.136	37955.69
519.338	38762.59
519.54	39227.48
519.742	40429.63
519.944	40435.78
520.146	41246.77
520.348	42027.05
520.55	42057.77
520.752	42749.98
520.954	43382.8
521.155	43081.75
521.357	44220.42
521.559	44388.36
521.761	45656.05
521.963	45471.73
522.164	46108.65
522.366	45934.57
522.568	46915.55
522.77	47292.38
522.971	47935.44
523.173	47341.53
523.375	48013.26
523.576	48091.08
523.778	48652.23
523.98	48721.86
524.181	49147.84
524.383	48824.26
524.584	49246.14
524.786	49704.88
524.988	49004.48
525.189	50067.37
525.391	49891.25
525.592	49960.88
525.794	49610.68
525.995	49354.68
526.197	49301.43
526.398	49987.5
526.6	49885.11
526.801	49534.9
527.003	48895.94
527.204	49561.53
527.406	49479.61
527.607	48943.04
527.808	48887.74
528.01	47738.83
528.211	47906.77
528.412	48728
528.614	47867.86
528.815	47505.37
529.016	47581.14
529.218	46577.64
529.419	46456.81
529.62	46364.65
529.822	45332.47
530.023	45381.62
530.224	44797.95
530.425	44374.02
530.626	43417.62
530.828	43401.24
531.029	43819.02
531.23	42602.53
531.431	41996.33
531.632	41691.18
531.833	41570.35
532.035	41017.4
532.236	40519.74
532.437	40011.85
532.638	39602.25
532.839	39110.74
533.04	38561.89
533.241	37736.55
533.442	38010.98
533.643	37488.75
533.844	36544.64
534.045	36073.6
534.246	35715.21
534.447	35403.92
534.648	34482.33
534.849	34861.21
535.05	33695.91
535.251	33597.61
535.451	32979.12
535.652	33095.86
535.853	31678.66
536.054	32061.63
536.255	31348.94
536.456	30648.53
536.657	30597.34
536.857	29739.24
537.058	29630.69
537.259	29405.42
537.46	29122.8
537.66	28621.05
537.861	27646.21
538.062	27631.88
538.263	27693.32
538.463	26890.51
538.664	26620.18
538.865	26411.29
539.065	26120.48
539.266	25454.89
539.466	25823.52
539.667	25026.86
539.868	25110.83
540.068	24695.09
540.269	24002.88
540.469	24013.12
540.67	23611.71
540.87	23419.21
541.071	22606.16
541.271	23306.57
541.472	22683.98
541.672	22593.87
541.873	21985.63
542.073	21350.76
542.274	21733.73
542.474	21610.85
542.675	21080.42
542.875	20980.07
543.075	20736.37
543.276	20093.3
543.476	20443.51
543.676	19896.7
543.877	19812.73
544.077	19659.13
544.277	19538.3
544.478	18833.8
544.678	18946.44
544.878	18647.44
545.078	18575.76
545.279	18114.97
545.479	18000.28
545.679	17887.64
545.879	17635.74
546.079	17260.96
546.28	17119.65
546.48	16935.34
546.68	17033.64
546.88	16599.47
547.08	16501.17
547.28	16265.65
547.48	15860.15
547.68	15696.32
547.88	15518.14
548.081	15417.79
548.281	15212.99
548.481	15022.53
548.681	14903.75
548.881	14774.73
549.081	14701
549.28	14371.28
549.48	14285.26
549.68	14193.11
549.88	14166.48
550.08	13435.36
550.28	13656.54
550.48	13265.38
550.68	13273.57
550.88	12949.99
551.08	12679.66
551.279	12646.89
551.479	12298.74
551.679	12306.93
551.879	11919.86
552.079	11960.82
552.278	11645.43
552.478	11389.44
552.678	11426.3
552.878	11096.58
553.077	11110.91
553.277	10652.17
553.477	10770.95
553.676	10578.44
553.876	10218
554.076	10383.88
554.275	9931.28
554.475	9808.4
554.674	9636.38
554.874	9683.48
555.074	9366.04
555.273	9110.05
555.473	9036.32
555.672	8933.92
555.872	8692.26
556.071	8655.4
556.271	8665.64
556.47	8464.94
556.67	8307.24
556.869	8206.89
557.068	8106.54
557.268	7973.43
557.467	7848.5
557.667	7586.36
557.866	7490.1
558.065	7318.07
558.265	7225.92
558.464	6924.86
558.663	7303.74
558.863	6842.95
559.062	6838.85
559.261	6441.54
559.461	6713.92
559.66	6281.8
559.859	6347.34
560.058	6246.99
560.258	5958.22
560.457	6017.61
560.656	6163.02
560.855	5941.84
561.054	5976.66
561.253	5732.95
561.453	5548.63
561.652	5560.92
561.851	5601.88
562.05	5362.26
562.249	5313.11
562.448	5274.2
562.647	5050.97
562.846	5130.84
563.045	4997.73
563.244	4985.44
563.443	4958.81
563.642	4733.54
563.841	4690.53
564.04	4762.21
564.239	4625
564.438	4495.97
564.637	4428.39
564.836	4317.8
565.035	4325.99
565.234	4317.8
565.432	4141.68
565.631	4188.78
565.83	4237.93
566.029	4020.85
566.228	3758.71
566.427	3912.3
566.625	3859.06
566.824	3775.09
567.023	3709.55
567.222	3752.56
567.42	3705.46
567.619	3455.61
567.818	3549.81
568.016	3791.47
568.215	3508.85
568.414	3398.26
568.612	3295.86
568.811	3328.63
569.01	3213.95
569.208	3168.89
569.407	3099.26
569.605	3105.4
569.804	3158.65
570.002	3213.95
570.201	3011.2
570.4	2968.19
570.598	2769.54
570.797	2761.34
570.995	2638.47
571.193	2701.95
571.392	2714.24
571.59	2646.66
571.789	2761.34
571.987	2744.96
572.186	2615.94
572.384	2550.4
572.582	2521.73
572.781	2503.3
572.979	2396.81
573.177	2466.44
573.376	2407.05
573.574	2337.41
573.772	2294.41
573.971	2022.03
574.169	2142.86
574.367	2187.91
574.565	2085.51
574.763	2126.47
574.962	2067.08
575.16	2030.22
575.358	2067.08
575.556	2013.84
575.754	1903.25
575.952	1829.52
576.151	1976.97
576.349	1964.68
576.547	1622.67
576.745	1737.36
576.943	1819.28
577.141	1878.67
577.339	1720.98
577.537	1704.59
577.735	1778.32
577.933	1784.46
578.131	1567.38
578.329	1669.78
578.527	1514.13
578.725	1649.3
578.923	1485.46
579.121	1546.9
579.319	1415.83
579.516	1473.17
579.714	1624.72
579.912	1417.88
580.11	1292.95
580.308	1305.24
580.506	1389.21
580.704	1172.12
580.901	1321.62
581.099	1301.14
581.297	1362.58
581.495	1247.9
581.692	1208.98
581.89	1356.44
582.088	1313.43
582.285	1178.26
582.483	1159.83
582.681	1106.59
582.878	1145.5
583.076	1163.93
583.274	1165.98
583.471	1206.94
583.669	1006.24
583.866	938.65
584.064	940.7
584.262	975.52
584.459	944.8
584.657	996
584.854	948.89
585.052	1002.14
585.249	1036.95
585.447	916.12
585.644	748.19
585.841	944.8
586.039	959.13
586.236	1045.15
586.434	879.26
586.631	934.56
586.828	914.08
587.026	936.6
587.223	783.01
587.42	750.24
587.618	834.21
587.815	942.75
588.012	821.92
588.21	797.34
588.407	893.6
588.604	766.62
588.801	744.1
588.999	776.86
589.196	803.49
589.393	608.93
589.59	744.1
589.787	780.96
589.984	780.96
590.182	762.53
590.379	705.18
590.576	694.94
590.773	678.56
590.97	621.22
591.167	760.48
591.364	709.28
591.561	660.13
591.758	783.01
591.955	789.15
592.152	672.42
592.349	707.23
592.546	733.86
592.743	565.92
592.94	610.98
593.137	672.42
593.334	768.67
593.531	768.67
593.727	619.17
593.924	748.19
594.121	668.32
594.318	674.46
594.515	778.91
594.712	830.11
594.908	823.97
595.105	637.6
595.302	826.01
595.499	768.67
595.696	813.73
595.892	688.8
596.089	772.77
596.286	731.81
596.482	991.9
596.679	936.6
596.876	883.36
597.072	907.93
597.269	903.84
597.466	946.84
597.662	893.6
597.859	952.99
598.055	1053.34
598.252	985.76
598.448	1108.63
598.645	1053.34
598.841	1122.97
599.038	1251.99
599.234	1352.34
599.431	1229.46
599.627	1333.91
599.824	1424.02
600.02	1360.53
600.217	1473.17
600.413	1581.71
600.609	1585.81
600.806	1788.56
601.002	1665.68
601.198	1647.25
601.395	1782.42
601.591	1899.15
601.787	1960.59
601.984	1987.21
602.18	2075.28
602.376	2083.47
602.572	2306.7
602.769	2390.66
602.965	2421.38
603.161	2493.06
603.357	2605.7
603.553	2796.16
603.75	2763.39
603.946	2835.07
604.142	2919.04
604.338	3162.75
604.534	3123.84
604.73	3248.76
604.926	3080.83
605.122	3687.03
605.318	3533.43
605.514	3668.59
605.71	3777.14
605.906	3973.74
606.102	4119.15
606.298	4235.88
606.494	4252.27
606.69	4303.47
606.886	4487.78
607.082	4602.47
607.278	4756.07
607.474	5050.97
607.67	5007.97
607.866	5194.33
608.062	5485.14
608.257	5583.45
608.453	5567.06
608.649	5882.45
608.845	6013.52
609.041	5945.94
609.236	6244.94
609.432	6416.97
609.628	6589
609.824	6904.39
610.019	7023.17
610.215	7170.62
610.411	7492.15
610.606	7647.8
610.802	7639.61
610.998	7891.51
611.193	8110.64
611.389	8110.64
611.584	8542.76
611.78	8665.64
611.976	8917.54
612.171	9429.53
612.367	9558.55
612.562	9624.09
612.758	9863.7
612.953	10301.97
613.149	10473.99
613.344	10738.18
613.539	11244.03
613.735	11307.52
613.93	11549.18
614.126	11776.5
614.321	12687.85
614.517	12640.75
614.712	13003.24
614.907	13074.92
615.103	13799.9
615.298	13683.16
615.493	14393.81
615.688	14584.27
615.884	15339.97
616.079	15188.42
616.274	16150.96
616.47	16198.07
616.665	16525.74
616.86	16662.96
617.055	17486.24
617.25	17744.28
617.445	18395.54
617.641	18715.02
617.836	19216.77
618.031	19577.22
618.226	20437.36
618.421	20593.01
618.616	20955.5
618.811	21494.11
619.006	22090.07
619.201	22374.74
619.396	23021.9
619.591	23300.42
619.786	24230.2
619.981	24324.41
620.176	24875.31
620.371	25579.81
620.566	26097.95
620.761	26749.2
620.956	27296.01
621.151	27756.8
621.346	28588.28
621.541	28406.01
621.735	29417.71
621.93	29495.53
622.125	30363.87
622.32	30316.76
622.515	31181.01
622.709	31656.14
622.904	32770.23
623.099	32903.35
623.294	34023.59
623.488	34099.36
623.683	34861.21
623.878	34928.79
624.072	35684.49
624.267	36556.92
624.462	37003.38
624.656	37390.45
624.851	38402.14
625.046	38785.11
625.24	39471.18
625.435	39462.99
625.629	40380.48
625.824	40804.41
626.018	41250.87
626.213	41123.9
626.407	42496.03
626.602	42115.11
626.796	43261.97
626.991	43434
627.185	44179.46
627.38	43851.79
627.574	44310.53
627.768	44582.91
627.963	44810.24
628.157	44685.31
628.352	45187.07
628.546	44582.91
628.74	45670.39
628.935	45144.06
629.129	45465.59
629.323	44802.05
629.517	44740.61
629.712	44187.66
629.906	44308.49
630.1	42991.64
630.294	43540.5
630.489	42897.44
630.683	42723.36
630.877	41678.89
631.071	40527.94
631.265	40626.24
631.459	39628.88
631.653	38668.38
631.848	38203.49
632.042	37187.7
632.236	36644.99
632.43	35463.31
632.624	34871.45
632.818	33620.14
633.012	32325.82
633.206	31551.69
633.4	30900.44
633.594	29458.67
633.788	28852.47
633.982	27783.43
634.176	26720.53
634.369	25839.9
634.563	24891.69
634.757	23677.25
634.951	23126.35
635.145	22227.29
635.339	21397.86
635.533	20404.6
635.726	19951.99
635.92	18706.83
636.114	18028.95
636.308	17396.13
636.501	16845.23
636.695	16226.74
636.889	15159.75
637.083	14875.08
637.276	14238.16
637.47	13556.19
637.664	13173.22
637.857	12491.24
638.051	11997.68
638.244	11489.79
638.438	11006.47
638.632	10625.54
638.825	9943.57
639.019	9908.76
639.212	9339.42
639.406	9099.81
639.599	8516.14
639.793	8411.69
639.986	8061.49
640.18	7670.33
640.373	7344.7
640.567	7100.99
640.76	6867.52
640.954	6584.9
641.147	6322.76
641.34	6130.25
641.534	5939.79
641.727	5900.88
641.92	5341.79
642.114	5366.36
642.307	5130.84
642.5	4964.96
642.694	4645.48
642.887	4543.08
643.08	4467.3
643.273	4369
643.467	4016.75
643.66	3897.97
643.853	3695.22
644.046	3592.82
644.239	3379.83
644.432	3322.49
644.626	3185.27
644.819	3103.36
645.012	2933.37
645.205	2724.48
645.398	2898.56
645.591	2568.84
645.784	2466.44
645.977	2314.89
646.17	2378.37
646.363	2204.3
646.556	2157.19
646.749	2017.93
646.942	1960.59
647.135	2028.17
647.328	1817.23
647.521	1811.09
647.714	1759.89
647.907	1680.02
648.099	1624.72
648.292	1571.47
648.485	1604.24
648.678	1424.02
648.871	1342.1
649.064	1391.25
649.256	1284.76
649.449	1161.88
649.642	1022.62
649.835	1098.39
650.027	1073.82
650.22	1063.58
650.413	975.52
650.605	1090.2
650.798	879.26
650.991	795.29
651.183	922.27
651.376	916.12
651.568	875.17
651.761	768.67
651.954	881.31
652.146	754.34
652.339	914.08
652.531	842.4
652.724	641.7
652.916	658.08
653.109	508.58
653.301	760.48
653.494	629.41
653.686	598.69
653.879	686.75
654.071	604.83
654.263	490.15
654.456	512.67
654.648	563.87
654.84	555.68
655.033	490.15
655.225	606.88
655.417	449.19
655.61	582.31
655.802	561.83
655.994	574.11
656.186	346.79
656.379	479.91
656.571	342.69
656.763	406.18
656.955	445.09
657.148	336.55
657.34	395.94
657.532	258.73
657.724	260.77
657.916	381.6
658.108	422.56
658.3	436.9
658.492	328.36
658.684	326.31
658.876	387.75
659.068	252.58
659.26	170.66
659.452	256.68
659.644	316.07
659.836	320.17
660.028	287.4
660.22	160.42
660.412	217.77
660.604	230.06
660.796	248.49
660.988	254.63
661.18	195.24
661.372	291.49
661.563	125.61
661.755	336.55
661.947	148.14
662.139	135.85
662.331	205.48
662.522	293.54
662.714	209.58
662.906	146.09
663.097	113.32
663.289	131.75
663.481	96.94
663.673	250.53
663.864	244.39
664.056	209.58
664.247	144.04
664.439	320.17
664.631	170.66
664.822	279.21
665.014	170.66
665.205	141.99
665.397	117.42
665.588	205.48
665.78	158.38
665.971	221.86
666.163	207.53
666.354	156.33
666.546	139.94
666.737	121.51
666.929	160.42
667.12	144.04
667.311	152.23
667.503	117.42
667.694	193.19
667.885	219.82
668.077	172.71
668.268	27.31
668.459	146.09
668.651	221.86
668.842	189.1
669.033	133.8
669.224	115.37
669.416	357.03
669.607	60.07
669.798	68.27
669.989	252.58
670.18	189.1
670.371	203.43
670.563	78.51
670.754	311.97
670.945	205.48
671.136	281.25
671.327	86.7
671.518	203.43
671.709	256.68
671.9	217.77
672.091	219.82
672.282	189.1
672.473	115.37
672.664	27.31
672.855	182.95
673.046	223.91
673.237	328.36
673.428	101.03
673.619	154.28
673.809	129.7
674	201.38
674.191	158.38
674.382	197.29
674.573	158.38
674.764	137.9
674.954	211.62
675.145	174.76
675.336	68.27
675.527	137.9
675.717	131.75
675.908	172.71
676.099	35.5
676.289	174.76
676.48	70.31
676.671	146.09
676.861	164.52
677.052	205.48
677.243	146.09
677.433	168.62
677.624	236.2
677.814	160.42
678.005	92.84
678.195	295.59
678.386	78.51
678.576	148.14
678.767	189.1
678.957	162.47
679.148	207.53
679.338	219.82
679.529	215.72
679.719	144.04
679.909	238.25
680.1	197.29
680.29	205.48
680.481	127.66
680.671	154.28
680.861	170.66
681.052	176.81
681.242	80.55
681.432	156.33
681.622	189.1
681.813	-30.04
682.003	189.1
682.193	146.09
682.383	170.66
682.573	197.29
682.764	168.62
682.954	166.57
683.144	225.96
683.334	187.05
683.524	213.67
683.714	252.58
683.904	260.77
684.094	268.97
684.284	213.67
684.474	285.35
684.664	289.45
684.854	262.82
685.044	197.29
685.234	144.04
685.424	230.06
685.614	105.13
685.804	334.5
685.994	187.05
686.184	178.86
686.374	156.33
686.564	232.1
686.753	172.71
686.943	230.06
687.133	160.42
687.323	228.01
687.513	191.14
687.702	215.72
687.892	178.86
688.082	330.41
688.272	297.64
688.461	197.29
688.651	393.89
688.841	283.3
689.03	205.48
689.22	74.41
689.41	193.19
689.599	273.06
689.789	201.38
689.979	236.2
690.168	185
690.358	242.34
690.547	260.77
690.737	230.06
690.926	250.53
691.116	287.4
691.305	258.73
691.495	246.44
691.684	148.14
691.874	115.37
692.063	223.91
692.252	211.62
692.442	314.02
692.631	115.37
692.82	117.42
693.01	205.48
693.199	238.25
693.388	283.3
693.578	203.43
693.767	223.91
693.956	238.25
694.146	146.09
694.335	193.19
694.524	193.19
694.713	180.9
694.902	94.89
695.092	160.42
695.281	133.8
695.47	109.22
695.659	168.62
695.848	168.62
696.037	109.22
696.226	236.2
696.415	131.75
696.604	242.34
696.793	219.82
696.982	82.6
697.171	238.25
697.36	84.65
697.549	228.01
697.738	68.27
697.927	230.06
698.116	45.74
698.305	281.25
698.494	213.67
698.683	195.24
698.872	268.97
699.061	127.66
699.25	168.62
699.438	180.9
699.627	174.76
699.816	381.6
700.005	150.18
700.193	141.99
700.382	187.05
700.571	207.53
700.76	195.24
700.948	205.48
701.137	205.48
701.326	166.57
701.514	139.94
701.703	195.24
701.892	191.14
702.08	400.04
702.269	168.62
702.457	125.61
702.646	234.15
702.834	111.27
703.023	240.3
703.212	178.86
703.4	113.32
703.589	189.1
703.777	162.47
703.965	47.79
704.154	264.87
704.342	166.57
704.531	148.14
704.719	139.94
704.907	248.49
705.096	152.23
705.284	144.04
705.472	185
705.661	156.33
705.849	146.09
706.037	256.68
706.226	211.62
706.414	170.66
706.602	80.55
706.79	209.58
706.979	92.84
707.167	178.86
707.355	21.16
707.543	236.2
707.731	277.16
707.919	176.81
708.107	174.76
708.296	78.51
708.484	156.33
708.672	223.91
708.86	260.77
709.048	219.82
709.236	234.15
709.424	195.24
709.612	187.05
709.8	76.46
709.988	152.23
710.176	238.25
710.364	221.86
710.551	248.49
710.739	113.32
710.927	133.8
711.115	158.38
711.303	260.77
711.491	236.2
711.679	201.38
711.866	248.49
712.054	115.37
712.242	182.95
712.43	246.44
712.617	199.34
712.805	291.49
712.993	160.42
713.181	88.75
713.368	205.48
713.556	178.86
713.744	39.59
713.931	410.28
714.119	207.53
714.306	150.18
714.494	187.05
714.682	168.62
714.869	144.04
715.057	217.77
715.244	96.94
715.432	182.95
715.619	125.61
715.807	168.62
715.994	90.79
716.182	219.82
716.369	250.53
716.556	254.63
716.744	111.27
716.931	109.22
717.119	252.58
717.306	189.1
717.493	225.96
717.681	135.85
717.868	141.99
718.055	309.93
718.242	203.43
718.43	187.05
718.617	295.59
718.804	146.09
718.991	240.3
719.179	236.2
719.366	289.45
719.553	162.47
719.74	254.63
719.927	217.77
720.114	197.29
720.301	154.28
720.488	205.48
720.676	150.18
720.863	307.88
721.05	295.59
721.237	240.3
721.424	228.01
721.611	297.64
721.798	117.42
721.985	182.95
722.172	144.04
722.358	170.66
722.545	299.69
722.732	215.72
722.919	324.26
723.106	285.35
723.293	146.09
723.48	189.1
723.667	189.1
723.853	340.65
724.04	215.72
724.227	330.41
724.414	197.29
724.6	238.25
724.787	322.21
724.974	318.12
725.161	234.15
725.347	170.66
725.534	166.57
725.72	225.96
725.907	350.89
726.094	225.96
726.28	228.01
726.467	189.1
726.653	182.95
726.84	309.93
727.027	324.26
727.213	187.05
727.4	234.15
727.586	193.19
727.773	236.2
727.959	271.01
728.145	193.19
728.332	225.96
728.518	152.23
728.705	299.69
728.891	228.01
729.077	154.28
729.264	152.23
729.45	191.14
729.636	250.53
729.823	242.34
730.009	338.6
730.195	264.87
730.382	330.41
730.568	123.56
730.754	146.09
730.94	217.77
731.126	230.06
731.313	266.92
731.499	156.33
731.685	244.39
731.871	330.41
732.057	264.87
732.243	283.3
732.429	244.39
732.615	336.55
732.801	223.91
732.987	135.85
733.173	172.71
733.359	248.49
733.545	234.15
733.731	191.14
733.917	385.7
734.103	322.21
734.289	215.72
734.475	135.85
734.661	373.41
734.847	217.77
735.033	156.33
735.219	271.01
735.404	275.11
735.59	193.19
735.776	207.53
735.962	146.09
736.148	291.49
736.333	275.11
736.519	225.96
736.705	203.43
736.89	246.44
737.076	260.77
737.262	193.19
737.447	158.38
737.633	285.35
737.819	340.65
738.004	234.15
738.19	240.3
738.375	260.77
738.561	346.79
738.747	230.06
738.932	170.66
739.118	387.75
739.303	301.73
739.489	361.13
739.674	205.48
739.859	193.19
740.045	281.25
740.23	320.17
740.416	111.27
740.601	275.11
740.786	207.53
740.972	195.24
741.157	221.86
741.342	156.33
741.528	197.29
741.713	291.49
741.898	162.47
742.084	148.14
742.269	197.29
742.454	242.34
742.639	318.12
742.824	189.1
743.01	338.6
743.195	334.5
743.38	303.78
743.565	172.71
743.75	268.97
743.935	223.91
744.12	330.41
744.305	144.04
744.49	293.54
744.675	242.34
744.86	201.38
745.045	254.63
745.23	268.97
745.415	209.58
745.6	299.69
745.785	178.86
745.97	295.59
746.155	330.41
746.34	299.69
746.525	234.15
746.71	246.44
746.895	105.13
747.079	228.01
747.264	156.33
747.449	187.05
747.634	240.3
747.819	279.21
748.003	180.9
748.188	158.38
748.373	273.06
748.557	164.52
748.742	238.25
748.927	248.49
749.111	158.38
749.296	178.86
749.481	250.53
749.665	176.81
749.85	160.42
750.034	219.82
750.219	254.63
750.404	139.94
750.588	197.29
750.773	131.75
750.957	195.24
751.141	86.7
751.326	228.01
751.51	84.65
751.695	199.34
751.879	266.92
752.064	262.82
752.248	172.71
752.432	287.4
752.617	271.01
752.801	213.67
752.985	115.37
753.17	244.39
753.354	240.3
753.538	191.14
753.722	131.75
753.907	115.37
754.091	101.03
754.275	254.63
754.459	49.83
754.643	125.61
754.828	219.82
755.012	168.62
755.196	107.18
755.38	248.49
755.564	146.09
755.748	113.32
755.932	219.82
756.116	240.3
756.3	207.53
756.484	127.66
756.668	162.47
756.852	82.6
757.036	94.89
757.22	43.69
757.404	113.32
757.588	109.22
757.772	121.51
757.956	129.7
758.14	246.44
758.323	105.13
758.507	209.58
758.691	111.27
758.875	234.15
759.059	225.96
759.242	158.38
759.426	125.61
759.61	148.14
759.794	148.14
759.977	178.86
760.161	330.41
760.345	199.34
760.528	240.3
760.712	180.9
760.895	193.19
761.079	139.94
761.263	78.51
761.446	84.65
761.63	160.42
761.813	152.23
761.997	47.79
762.18	88.75
762.364	133.8
762.547	-15.7
762.731	78.51
762.914	109.22
763.098	141.99
763.281	23.21
763.464	156.33
763.648	127.66
763.831	109.22
764.015	84.65
764.198	125.61
764.381	119.46
764.564	141.99
764.748	68.27
764.931	78.51
765.114	72.36
765.297	146.09
765.481	6.83
765.664	90.79
765.847	125.61
766.03	180.9
766.213	-11.61
766.397	94.89
766.58	-3.41
766.763	92.84
766.946	78.51
767.129	107.18
767.312	117.42
767.495	0.68
767.678	21.16
767.861	119.46
768.044	158.38
768.227	55.98
768.41	144.04
768.593	113.32
768.776	101.03
768.959	113.32
769.142	146.09
769.324	66.22
769.507	60.07
769.69	12.97
769.873	90.79
770.056	260.77
770.239	27.31
770.421	203.43
770.604	125.61
770.787	62.12
770.97	84.65
771.152	8.87
771.335	84.65
771.518	-13.65
771.7	166.57
771.883	240.3
772.066	70.31
772.248	160.42
772.431	141.99
772.613	72.36
772.796	60.07
772.978	74.41
773.161	154.28
773.343	49.83
773.526	58.03
773.708	-60.76
773.891	43.69
774.073	-19.8
774.256	12.97
774.438	201.38
774.621	53.93
774.803	84.65
774.985	109.22
775.168	146.09
775.35	-13.65
775.532	144.04
775.715	55.98
775.897	174.76
776.079	27.31
776.261	53.93
776.444	53.93
776.626	-27.99
776.808	60.07
776.99	-11.61
777.173	62.12
777.355	84.65
777.537	39.59
777.719	84.65
777.901	31.4
778.083	35.5
778.265	-66.9
778.447	148.14
778.629	-5.46
778.811	31.4
778.993	84.65
779.175	156.33
779.357	135.85
779.539	-46.42
779.721	0.68
779.903	58.03
780.085	-34.13
780.267	109.22
780.449	12.97
780.631	133.8
780.812	187.05
780.994	76.46
781.176	-17.75
781.358	68.27
781.54	17.07
781.721	41.64
781.903	131.75
782.085	23.21
782.267	162.47
782.448	-81.24
782.63	39.59
782.812	60.07
782.993	148.14
783.175	158.38
783.357	-38.23
783.538	25.26
783.72	-38.23
783.901	41.64
784.083	39.59
784.264	37.55
784.446	0.68
784.627	-27.99
784.809	82.6
784.99	37.55
785.172	-7.51
785.353	10.92
785.535	21.16
785.716	15.02
785.897	37.55
786.079	74.41
786.26	90.79
786.441	162.47
786.623	-46.42
786.804	-36.18
786.985	19.11
787.167	66.22
787.348	-7.51
787.529	21.16
787.71	174.76
787.891	86.7
788.073	55.98
788.254	-50.52
788.435	148.14
788.616	17.07
788.797	-30.04
788.978	72.36
789.159	-56.66
789.34	70.31
789.522	-5.46
789.703	-30.04
789.884	0.68
790.065	88.75
790.246	174.76
790.427	-19.8
790.607	170.66
790.788	12.97
790.969	45.74
791.15	31.4
791.331	10.92
791.512	43.69
791.693	-36.18
791.874	68.27
792.054	185
792.235	98.99
792.416	-21.85
792.597	-19.8
792.778	47.79
792.958	51.88
793.139	39.59
793.32	94.89
793.5	-56.66
793.681	96.94
793.862	58.03
794.042	29.35
794.223	-56.66
794.404	35.5
794.584	-66.9
794.765	25.26
794.945	37.55
795.126	76.46
795.306	31.4
795.487	-15.7
795.667	-27.99
795.848	76.46
796.028	-50.52
796.209	21.16
796.389	103.08
796.57	17.07
796.75	-71
796.93	27.31
797.111	-77.14
797.291	-56.66
797.471	39.59
797.652	-25.94
797.832	-27.99
798.012	43.69
798.192	12.97
798.373	27.31
798.553	21.16
798.733	76.46
798.913	-23.89
799.093	-19.8
799.274	80.55
799.454	84.65
799.634	76.46
799.814	41.64
799.994	10.92
800.174	119.46
800.354	-27.99
800.534	-93.52
800.714	45.74
800.894	-95.57
801.074	-3.41
801.254	31.4
801.434	21.16
801.614	53.93
801.794	-85.33
801.974	1677.97
802.154	39.59
802.334	103.08
802.514	0.68
802.693	-7.51
802.873	4.78
803.053	76.46
803.233	64.17
803.413	2.73
803.592	-62.8
803.772	45.74
803.952	68.27
804.131	-13.65
804.311	41.64
804.491	123.56
804.67	-71
804.85	-1.37
805.03	55.98
805.209	168.62
805.389	53.93
805.568	-11.61
805.748	41.64
805.928	-34.13
806.107	66.22
806.287	-60.76
806.466	12.97
806.646	15.02
806.825	-30.04
807.004	-7.51
807.184	8.87
807.363	35.5
807.543	4.78
807.722	15.02
807.901	133.8
808.081	123.56
808.26	-50.52
808.439	4.78
808.619	-25.94
808.798	-46.42
808.977	2.73
809.156	109.22
809.336	27.31
809.515	-7.51
809.694	-11.61
809.873	-1.37
810.052	76.46
810.231	121.51
810.411	-7.51
810.59	84.65
810.769	6.83
810.948	25.26
811.127	-107.86
811.306	-23.89
811.485	17.07
811.664	127.66
811.843	45.74
812.022	27.31
812.201	35.5
812.38	-21.85
812.559	-42.32
812.737	51.88
812.916	-19.8
813.095	-36.18
813.274	60.07
813.453	43.69
813.632	84.65
813.811	70.31
813.989	-25.94
814.168	-15.7
814.347	-1.37
814.526	-7.51
814.704	58.03
814.883	86.7
815.062	-68.95
815.24	60.07
815.419	-103.76
815.598	86.7
815.776	-120.15
815.955	-38.23
816.133	-136.53
816.312	31.4
816.49	35.5
816.669	107.18
816.847	21.16
817.026	27.31
817.204	-36.18
817.383	-73.04
817.561	-50.52
817.74	60.07
817.918	27.31
818.097	-32.08
818.275	6.83
818.453	92.84
818.632	74.41
818.81	49.83
818.988	-44.37
819.167	-48.47
819.345	58.03
819.523	-30.04
819.701	49.83
819.879	111.27
820.058	23.21
820.236	10.92
820.414	-9.56
820.592	15.02
820.77	15.02
820.948	-73.04
821.127	10.92
821.305	53.93
821.483	-40.28
821.661	158.38
821.839	-7.51
822.017	-75.09
822.195	-40.28
822.373	68.27
822.551	15.02
822.729	76.46
822.907	19.11
823.085	31.4
823.262	-54.61
823.44	-32.08
823.618	15.02
823.796	51.88
823.974	-17.75
824.152	8.87
824.329	27.31
824.507	4.78
824.685	58.03
824.863	27.31
825.04	8.87
825.218	19.11
825.396	-19.8
825.574	66.22
825.751	-1.37
825.929	4.78
826.107	-34.13
826.284	60.07
826.462	31.4
826.639	25.26
826.817	-40.28
826.994	-32.08
827.172	33.45
827.349	107.18
827.527	68.27
827.704	-1.37
827.882	103.08
828.059	-21.85
828.237	47.79
828.414	33.45
828.591	-85.33
828.769	2.73
828.946	-17.75
829.124	101.03
829.301	86.7
829.478	0.68
829.655	47.79
829.833	-60.76
830.01	-50.52
830.187	64.17
830.364	86.7
830.542	-15.7
830.719	68.27
830.896	45.74
831.073	8.87
831.25	15.02
831.427	94.89
831.604	29.35
831.782	-58.71
831.959	4.78
832.136	-1.37
832.313	51.88
832.49	-64.85
832.667	37.55
832.844	-64.85
833.021	78.51
833.198	37.55
833.374	-9.56
833.551	10.92
833.728	6.83
833.905	45.74
834.082	-154.96
834.259	-48.47
834.436	84.65
834.612	-60.76
834.789	-3.41
834.966	-46.42
835.143	51.88
835.319	-48.47
835.496	90.79
835.673	127.66
835.85	74.41
836.026	58.03
836.203	58.03
836.38	-95.57
836.556	-93.52
836.733	-5.46
836.909	76.46
837.086	10.92
837.262	-48.47
837.439	-13.65
837.616	-17.75
837.792	80.55
837.968	66.22
838.145	-83.28
838.321	12.97
838.498	27.31
838.674	-3.41
838.851	43.69
839.027	-32.08
839.203	39.59
839.38	-3.41
839.556	-81.24
839.732	107.18
839.909	43.69
840.085	21.16
840.261	-5.46
840.437	78.51
840.614	-7.51
840.79	29.35
840.966	51.88
841.142	31.4
841.318	58.03
841.494	10.92
841.671	88.75
841.847	-136.53
842.023	-52.56
842.199	15.02
842.375	49.83
842.551	-124.24
842.727	-52.56
842.903	105.13
843.079	-27.99
843.255	107.18
843.431	-83.28
843.607	-13.65
843.783	-175.44
843.959	-9.56
844.134	37.55
844.31	82.6
844.486	-68.95
844.662	-46.42
844.838	-3.41
845.013	-15.7
845.189	60.07
845.365	15.02
845.541	23.21
845.716	2.73
845.892	74.41
846.068	-32.08
846.244	-21.85
846.419	58.03
846.595	-56.66
846.77	-64.85
846.946	121.51
847.122	15.02
847.297	-38.23
847.473	80.55
847.648	-25.94
847.824	19.11
847.999	-71
848.175	-40.28
848.35	53.93
848.526	98.99
848.701	43.69
848.876	101.03
849.052	43.69
849.227	82.6
849.403	-46.42
849.578	121.51
849.753	10.92
849.929	27.31
850.104	-21.85
850.279	-40.28
850.454	68.27
850.63	10.92
850.805	78.51
850.98	-15.7
851.155	6.83
851.33	-32.08
851.505	-62.8
851.681	98.99
851.856	-32.08
852.031	154.28
852.206	60.07
852.381	-38.23
852.556	-36.18
852.731	53.93
852.906	80.55
853.081	86.7
853.256	105.13
853.431	-30.04
853.606	-68.95
853.781	-124.24
853.956	-85.33
854.131	60.07
854.305	-48.47
854.48	-36.18
854.655	-87.38
854.83	-5.46
855.005	-21.85
855.18	25.26
855.354	-1.37
855.529	39.59
855.704	-34.13
855.879	51.88
856.053	-15.7
856.228	37.55
856.403	45.74
856.577	-1.37
856.752	-111.96
856.926	-46.42
857.101	27.31
857.276	-97.62
857.45	23.21
857.625	94.89
857.799	-23.89
857.974	23.21
858.148	-146.77
858.323	-13.65
858.497	-42.32
858.672	-44.37
858.846	-83.28
859.02	96.94
859.195	-75.09
859.369	-17.75
859.543	55.98
859.718	17.07
859.892	33.45
860.066	58.03
860.241	-34.13
860.415	-97.62
860.589	0.68
860.763	64.17
860.938	-13.65
861.112	43.69
861.286	-66.9
861.46	43.69
861.634	-11.61
861.808	21.16
861.982	-105.81
862.157	-167.25
862.331	35.5
862.505	-87.38
862.679	-54.61
862.853	-15.7
863.027	-1.37
863.201	94.89
863.375	58.03
863.549	-36.18
863.722	74.41
863.896	80.55
864.07	-107.86
864.244	-9.56
864.418	88.75
864.592	-32.08
864.766	-64.85
864.939	64.17
865.113	-154.96
865.287	109.22
865.461	-77.14
865.634	39.59
865.808	-71
865.982	-32.08
866.156	-66.9
866.329	-122.2
866.503	27.31
866.676	29.35
866.85	-34.13
867.024	-48.47
867.197	37.55
867.371	31.4
867.544	41.64
867.718	-66.9
867.891	113.32
868.065	-75.09
868.238	4.78
868.412	84.65
868.585	2.73
868.759	-21.85
868.932	6.83
869.105	-32.08
869.279	23.21
869.452	6.83
869.625	66.22
869.799	-83.28
869.972	-79.19
870.145	23.21
870.319	84.65
870.492	37.55
870.665	-60.76
870.838	-56.66
871.011	-111.96
871.185	-3.41
871.358	-25.94
871.531	64.17
871.704	-99.67
871.877	-77.14
872.05	12.97
872.223	-54.61
872.396	96.94
872.569	-7.51
872.742	-68.95
872.915	8.87
873.088	-30.04
873.261	41.64
873.434	-30.04
873.607	-1.37
873.78	107.18
873.953	-30.04
874.126	-27.99
874.299	-34.13
874.471	-19.8
874.644	-93.52
874.817	0.68
874.99	152.23
875.163	-36.18
875.335	39.59
875.508	-23.89
875.681	60.07
875.853	-126.29
876.026	47.79
876.199	53.93
876.371	68.27
876.544	-34.13
876.717	41.64
876.889	-5.46
877.062	123.56
877.234	-21.85
877.407	-81.24
877.579	-44.37
877.752	-5.46
877.924	109.22
878.097	8.87
878.269	-13.65
878.442	-19.8
878.614	60.07
878.786	-81.24
878.959	-17.75
879.131	2.73
879.303	-124.24
879.476	-62.8
879.648	66.22
879.82	-46.42
879.993	-40.28
880.165	-71
880.337	-44.37
880.509	-27.99
880.681	-36.18
880.854	-9.56
881.026	17.07
881.198	146.09
881.37	-54.61
881.542	-46.42
881.714	-32.08
881.886	-60.76
882.058	15.02
882.23	25.26
882.402	-11.61
882.574	8.87
882.746	33.45
882.918	82.6
883.09	43.69
883.262	-15.7
883.434	-19.8
883.606	-146.77
883.778	29.35
883.95	152.23
884.122	-60.76
884.293	35.5
884.465	23.21
884.637	47.79
884.809	-17.75
884.98	53.93
885.152	49.83
885.324	23.21
885.496	-50.52
885.667	-1.37
885.839	-83.28
886.011	121.51
886.182	-3.41
886.354	109.22
886.525	70.31
886.697	-48.47
886.869	-159.06
887.04	-30.04
887.212	58.03
887.383	119.46
887.555	10.92
887.726	-46.42
887.897	-17.75
888.069	2.73
888.24	49.83
888.412	-23.89
888.583	-7.51
888.754	12.97
888.926	-103.76
889.097	-25.94
889.268	-50.52
889.44	-44.37
889.611	-50.52
889.782	-58.71
889.953	-36.18
890.125	19.11
890.296	-58.71
890.467	-52.56
890.638	39.59
890.809	-21.85
890.98	-3.41
891.151	-5.46
891.323	80.55
891.494	-32.08
891.665	-79.19
891.836	-85.33
892.007	47.79
892.178	78.51
892.349	-11.61
892.52	-99.67
892.691	2.73
892.862	-13.65
893.032	-120.15
893.203	-68.95
893.374	45.74
893.545	111.27
893.716	12.97
893.887	41.64
894.057	-130.39
894.228	-7.51
894.399	2.73
894.57	21.16
894.74	-3.41
894.911	12.97
895.082	-9.56
895.253	-68.95
895.423	-19.8
895.594	90.79
895.764	84.65
895.935	-83.28
896.106	51.88
896.276	-23.89
896.447	15.02
896.617	-62.8
896.788	-99.67
896.958	-40.28
897.129	-52.56
897.299	-73.04
897.47	144.04
897.64	41.64
897.81	-34.13
897.981	-5.46
898.151	-25.94
898.322	96.94
898.492	8.87
898.662	-34.13
898.832	-46.42
899.003	-46.42
899.173	17.07
899.343	8.87
899.513	-40.28
