Data from USB4F104151__283__11-21-00-029.txt Node

Date: Wed Feb 26 11:21:00 EST 2025
User: louis
Spectrometer: USB4F10415
Trigger mode: 4
Integration Time (sec): 1.000000E-1
Scans to average: 1
Electric dark correction enabled: true
Nonlinearity correction enabled: false
Boxcar width: 0
XAxis mode: Wavelengths
Number of Pixels in Spectrum: 3648
>>>>>Begin Spectral Data<<<<<
178.204	-339.28
178.424	-339.28
178.644	-339.28
178.864	-415.05
179.084	-408.91
179.304	-9.56
179.524	-52.56
179.744	27.31
179.964	121.51
180.184	-1.37
180.404	29.35
180.624	-89.43
180.844	-27.99
181.064	-32.08
181.283	-3.41
181.503	-17.75
181.723	55.98
181.943	-142.68
182.163	228.01
182.383	-5.46
182.602	-11.61
182.822	158.38
183.042	82.6
183.262	4.78
183.482	-58.71
183.701	70.31
183.921	74.41
184.141	27.31
184.361	129.7
184.58	49.83
184.8	164.52
185.02	33.45
185.239	127.66
185.459	139.94
185.679	113.32
185.898	-79.19
186.118	82.6
186.338	21.16
186.557	144.04
186.777	-15.7
186.997	72.36
187.216	12.97
187.436	107.18
187.655	199.34
187.875	74.41
188.095	64.17
188.314	154.28
188.534	176.81
188.753	-3.41
188.973	137.9
189.192	221.86
189.412	31.4
189.631	74.41
189.851	72.36
190.07	117.42
190.29	-79.19
190.509	78.51
190.729	98.99
190.948	219.82
191.168	324.26
191.387	119.46
191.607	43.69
191.826	86.7
192.045	80.55
192.265	19.11
192.484	107.18
192.704	90.79
192.923	-32.08
193.142	223.91
193.362	123.56
193.581	191.14
193.8	68.27
194.02	135.85
194.239	17.07
194.458	127.66
194.678	29.35
194.897	-21.84
195.116	129.7
195.335	43.69
195.555	76.46
195.774	-3.41
195.993	78.51
196.212	70.31
196.432	-60.76
196.651	-25.94
196.87	21.16
197.089	203.43
197.308	17.07
197.528	80.55
197.747	-23.89
197.966	76.46
198.185	164.52
198.404	-19.8
198.623	101.03
198.842	156.33
199.062	47.79
199.281	101.03
199.5	39.59
199.719	137.9
199.938	74.41
200.157	121.51
200.376	86.7
200.595	119.46
200.814	74.41
201.033	-77.14
201.252	174.76
201.471	98.99
201.69	62.12
201.909	23.21
202.128	109.23
202.347	80.55
202.566	70.31
202.785	-46.42
203.004	6.83
203.223	252.58
203.442	62.12
203.661	2.73
203.879	166.57
204.098	101.03
204.317	31.4
204.536	101.03
204.755	144.04
204.974	123.56
205.193	4.78
205.411	148.14
205.63	185
205.849	166.57
206.068	70.31
206.287	-38.23
206.505	127.66
206.724	29.35
206.943	43.69
207.162	27.31
207.381	185
207.599	29.35
207.818	35.5
208.037	15.02
208.255	60.07
208.474	66.22
208.693	41.64
208.911	27.31
209.13	68.27
209.349	131.75
209.567	111.27
209.786	162.47
210.005	164.52
210.223	84.65
210.442	6.83
210.661	29.35
210.879	107.18
211.098	107.18
211.316	51.88
211.535	92.84
211.753	80.55
211.972	51.88
212.191	68.27
212.409	-11.61
212.628	197.29
212.846	23.21
213.065	88.75
213.283	101.03
213.502	84.65
213.72	141.99
213.938	15.02
214.157	94.89
214.375	86.7
214.594	-5.46
214.812	185
215.031	29.35
215.249	105.13
215.467	129.7
215.686	121.51
215.904	80.55
216.122	62.12
216.341	207.53
216.559	98.99
216.778	137.9
216.996	121.51
217.214	98.99
217.432	31.4
217.651	-116.05
217.869	150.18
218.087	53.93
218.306	113.32
218.524	113.32
218.742	62.12
218.96	35.5
219.179	17.07
219.397	55.98
219.615	281.25
219.833	187.05
220.051	58.03
220.27	113.32
220.488	82.6
220.706	123.56
220.924	35.5
221.142	53.93
221.36	12.97
221.578	109.23
221.796	31.4
222.015	90.79
222.233	78.51
222.451	144.04
222.669	-5.46
222.887	68.27
223.105	58.03
223.323	53.93
223.541	55.98
223.759	72.36
223.977	10.92
224.195	160.42
224.413	101.03
224.631	12.97
224.849	133.8
225.067	201.38
225.285	53.93
225.503	58.03
225.721	-60.76
225.939	39.59
226.157	62.12
226.375	178.86
226.592	-7.51
226.81	62.12
227.028	185
227.246	150.18
227.464	101.03
227.682	158.38
227.9	70.31
228.117	90.79
228.335	66.22
228.553	31.4
228.771	88.75
228.989	117.42
229.206	125.61
229.424	29.35
229.642	37.55
229.86	4.78
230.077	123.56
230.295	64.17
230.513	152.23
230.731	109.23
230.948	176.81
231.166	109.23
231.384	41.64
231.601	-17.75
231.819	197.29
232.037	12.97
232.254	41.64
232.472	51.88
232.689	23.21
232.907	170.66
233.125	0.68
233.342	64.17
233.56	53.93
233.777	76.46
233.995	131.75
234.213	158.38
234.43	121.51
234.648	60.07
234.865	4.78
235.083	152.23
235.3	39.59
235.518	115.37
235.735	146.09
235.953	70.31
236.17	58.03
236.388	33.45
236.605	12.97
236.822	162.47
237.04	139.94
237.257	29.35
237.475	49.83
237.692	33.45
237.909	90.79
238.127	2.73
238.344	119.46
238.562	68.27
238.779	-30.04
238.996	-85.33
239.214	123.56
239.431	103.08
239.648	88.75
239.865	66.22
240.083	80.55
240.3	62.12
240.517	-9.56
240.735	60.07
240.952	109.23
241.169	88.75
241.386	156.33
241.603	41.64
241.821	-52.56
242.038	168.62
242.255	125.61
242.472	2.73
242.689	98.99
242.907	92.84
243.124	109.23
243.341	64.17
243.558	53.93
243.775	0.68
243.992	33.45
244.209	53.93
244.426	187.05
244.643	131.75
244.86	123.56
245.078	135.85
245.295	146.09
245.512	6.83
245.729	-25.94
245.946	94.89
246.163	123.56
246.38	37.55
246.597	27.31
246.814	148.14
247.031	62.12
247.248	33.45
247.464	191.14
247.681	66.22
247.898	107.18
248.115	107.18
248.332	31.4
248.549	178.86
248.766	236.2
248.983	152.23
249.2	96.94
249.417	174.76
249.633	19.11
249.85	98.99
250.067	60.07
250.284	21.16
250.501	109.23
250.717	129.7
250.934	21.16
251.151	19.11
251.368	21.16
251.585	19.11
251.801	137.9
252.018	6.83
252.235	115.37
252.451	-3.41
252.668	-30.04
252.885	111.27
253.102	55.98
253.318	49.83
253.535	25.26
253.752	66.22
253.968	39.59
254.185	-81.24
254.401	129.7
254.618	66.22
254.835	-3.41
255.051	154.28
255.268	146.09
255.484	109.23
255.701	15.02
255.917	94.89
256.134	88.75
256.351	76.46
256.567	-23.89
256.784	21.16
257	-64.85
257.217	148.14
257.433	197.29
257.65	98.99
257.866	117.42
258.082	-46.42
258.299	-23.89
258.515	78.51
258.732	64.17
258.948	-19.8
259.165	94.89
259.381	-19.8
259.597	105.13
259.814	27.31
260.03	-1.37
260.246	17.07
260.463	187.05
260.679	90.79
260.895	49.83
261.112	-17.75
261.328	31.4
261.544	-7.51
261.761	144.04
261.977	-60.76
262.193	-42.32
262.409	154.28
262.626	35.5
262.842	84.65
263.058	-34.13
263.274	119.46
263.49	60.07
263.707	131.75
263.923	94.89
264.139	-77.14
264.355	29.35
264.571	35.5
264.787	111.27
265.004	135.85
265.22	98.99
265.436	-30.04
265.652	45.74
265.868	107.18
266.084	17.07
266.3	76.46
266.516	10.92
266.732	105.13
266.948	88.75
267.164	58.03
267.38	160.42
267.596	111.27
267.812	150.18
268.028	25.26
268.244	64.17
268.46	-25.94
268.676	-7.51
268.892	92.84
269.108	-34.13
269.324	86.7
269.54	-11.61
269.756	82.6
269.972	4.78
270.188	-9.56
270.403	-19.8
270.619	41.64
270.835	131.75
271.051	31.4
271.267	-13.65
271.483	0.68
271.698	209.58
271.914	94.89
272.13	113.32
272.346	-46.42
272.562	94.89
272.777	182.95
272.993	-17.75
273.209	-34.13
273.425	189.1
273.64	-17.75
273.856	133.8
274.072	68.27
274.287	39.59
274.503	19.11
274.719	180.9
274.934	53.93
275.15	-48.47
275.366	51.88
275.581	21.16
275.797	78.51
276.012	66.22
276.228	58.03
276.444	76.46
276.659	113.32
276.875	-19.8
277.09	43.69
277.306	23.21
277.521	51.88
277.737	-1.37
277.952	84.65
278.168	115.37
278.383	29.35
278.599	62.12
278.814	191.14
279.03	64.17
279.245	213.67
279.461	105.13
279.676	141.99
279.892	-5.46
280.107	43.69
280.322	82.6
280.538	72.36
280.753	-38.23
280.969	10.92
281.184	105.13
281.399	154.28
281.615	98.99
281.83	125.61
282.045	6.83
282.26	119.46
282.476	137.9
282.691	150.18
282.906	92.84
283.122	62.12
283.337	12.97
283.552	58.03
283.767	-30.04
283.983	191.14
284.198	35.5
284.413	107.18
284.628	27.31
284.843	43.69
285.058	105.13
285.274	15.02
285.489	33.45
285.704	80.55
285.919	74.41
286.134	74.41
286.349	80.55
286.564	33.45
286.779	141.99
286.995	51.88
287.21	-5.46
287.425	43.69
287.64	47.79
287.855	58.03
288.07	-21.84
288.285	139.94
288.5	197.29
288.715	156.33
288.93	-50.52
289.145	-3.41
289.36	76.46
289.575	-9.56
289.79	113.32
290.004	68.27
290.219	215.72
290.434	78.51
290.649	119.46
290.864	-50.52
291.079	58.03
291.294	68.27
291.509	90.79
291.724	51.88
291.938	29.35
292.153	117.42
292.368	10.92
292.583	98.99
292.798	154.28
293.012	96.94
293.227	60.07
293.442	-15.7
293.657	187.05
293.871	170.66
294.086	119.46
294.301	176.81
294.516	109.23
294.73	70.31
294.945	-27.99
295.16	62.12
295.374	146.09
295.589	98.99
295.804	19.11
296.018	29.35
296.233	164.52
296.447	74.41
296.662	4.78
296.877	185
297.091	123.56
297.306	45.74
297.52	115.37
297.735	78.51
297.949	12.97
298.164	51.88
298.378	58.03
298.593	17.07
298.807	29.35
299.022	109.23
299.236	60.07
299.451	129.7
299.665	58.03
299.88	125.61
300.094	127.66
300.309	92.84
300.523	119.46
300.737	0.68
300.952	135.85
301.166	72.36
301.381	58.03
301.595	27.31
301.809	96.94
302.024	41.64
302.238	-32.08
302.452	164.52
302.667	103.08
302.881	166.57
303.095	101.03
303.309	133.8
303.524	76.46
303.738	90.79
303.952	49.83
304.166	96.94
304.381	-138.58
304.595	199.34
304.809	74.41
305.023	25.26
305.237	-7.51
305.452	66.22
305.666	78.51
305.88	64.17
306.094	197.29
306.308	115.37
306.522	119.46
306.736	105.13
306.95	131.75
307.164	45.74
307.379	43.69
307.593	107.18
307.807	221.86
308.021	113.32
308.235	101.03
308.449	-7.51
308.663	98.99
308.877	195.24
309.091	105.13
309.305	127.66
309.519	10.92
309.733	141.99
309.947	-60.76
310.161	101.03
310.374	98.99
310.588	187.05
310.802	-7.51
311.016	-34.13
311.23	60.07
311.444	-27.99
311.658	35.5
311.872	168.62
312.085	230.06
312.299	207.53
312.513	193.19
312.727	92.84
312.941	23.21
313.154	49.83
313.368	111.27
313.582	43.69
313.796	86.7
314.009	88.75
314.223	193.19
314.437	37.55
314.651	119.46
314.864	41.64
315.078	23.21
315.292	-15.7
315.505	51.88
315.719	90.79
315.933	160.42
316.146	170.66
316.36	51.88
316.573	115.37
316.787	137.9
317.001	66.22
317.214	-9.56
317.428	158.38
317.641	-71
317.855	12.97
318.068	101.03
318.282	68.27
318.495	240.3
318.709	121.51
318.922	55.98
319.136	141.99
319.349	135.85
319.563	60.07
319.776	86.7
319.99	-15.7
320.203	164.52
320.417	53.93
320.63	98.99
320.843	176.81
321.057	129.7
321.27	-27.99
321.483	80.55
321.697	133.8
321.91	41.64
322.124	68.27
322.337	45.74
322.55	2.73
322.763	101.03
322.977	74.41
323.19	-58.71
323.403	43.69
323.617	115.37
323.83	115.37
324.043	51.88
324.256	109.23
324.469	62.12
324.683	88.75
324.896	82.6
325.109	33.45
325.322	-75.09
325.535	111.27
325.748	146.09
325.962	-68.95
326.175	41.64
326.388	129.7
326.601	205.48
326.814	-9.56
327.027	64.17
327.24	146.09
327.453	-48.47
327.666	17.07
327.879	152.23
328.092	123.56
328.305	213.67
328.518	-11.61
328.731	47.79
328.944	10.92
329.157	133.8
329.37	68.27
329.583	148.14
329.796	187.05
330.009	-85.33
330.222	105.13
330.435	162.47
330.648	41.64
330.861	25.26
331.073	90.79
331.286	88.75
331.499	82.6
331.712	55.98
331.925	64.17
332.138	84.65
332.35	193.19
332.563	-38.23
332.776	141.99
332.989	35.5
333.202	33.45
333.414	51.88
333.627	60.07
333.84	-1.37
334.053	150.18
334.265	25.26
334.478	-17.75
334.691	96.94
334.903	109.23
335.116	66.22
335.329	31.4
335.541	113.32
335.754	205.48
335.966	141.99
336.179	94.89
336.392	37.55
336.604	92.84
336.817	66.22
337.029	80.55
337.242	80.55
337.454	82.6
337.667	17.07
337.88	135.85
338.092	166.57
338.305	101.03
338.517	37.55
338.729	94.89
338.942	154.28
339.154	10.92
339.367	-19.8
339.579	166.57
339.792	-32.08
340.004	98.99
340.217	33.45
340.429	82.6
340.641	-15.7
340.854	-25.94
341.066	92.84
341.278	207.53
341.491	195.24
341.703	66.22
341.915	58.03
342.128	197.29
342.34	101.03
342.552	33.45
342.764	98.99
342.977	27.31
343.189	117.42
343.401	39.59
343.613	-19.8
343.826	17.07
344.038	-21.84
344.25	101.03
344.462	31.4
344.674	92.84
344.886	25.26
345.099	90.79
345.311	86.7
345.523	19.11
345.735	12.97
345.947	-54.61
346.159	68.27
346.371	103.08
346.583	68.27
346.795	228.01
347.007	74.41
347.219	90.79
347.431	27.31
347.643	144.04
347.855	-3.41
348.067	158.38
348.279	-9.56
348.491	117.42
348.703	80.55
348.915	12.97
349.127	-13.65
349.339	92.84
349.551	78.51
349.763	90.79
349.975	76.46
350.187	127.66
350.399	207.53
350.61	170.66
350.822	-5.46
351.034	141.99
351.246	17.07
351.458	45.74
351.669	139.94
351.881	101.03
352.093	125.61
352.305	154.28
352.517	121.51
352.728	119.46
352.94	80.55
353.152	66.22
353.363	43.69
353.575	80.55
353.787	189.1
353.999	82.6
354.21	250.53
354.422	39.59
354.633	-7.51
354.845	41.64
355.057	121.51
355.268	74.41
355.48	96.94
355.692	2.73
355.903	19.11
356.115	15.02
356.326	-3.41
356.538	266.92
356.749	86.7
356.961	152.23
357.172	84.65
357.384	2.73
357.595	172.71
357.807	-15.7
358.018	29.35
358.23	27.31
358.441	164.52
358.653	109.23
358.864	88.75
359.075	27.31
359.287	39.59
359.498	123.56
359.709	88.75
359.921	115.37
360.132	80.55
360.344	35.5
360.555	35.5
360.766	58.03
360.977	0.68
361.189	123.56
361.4	103.08
361.611	123.56
361.823	152.23
362.034	148.14
362.245	-3.41
362.456	43.69
362.667	86.7
362.879	-13.65
363.09	105.13
363.301	86.7
363.512	135.85
363.723	25.26
363.935	64.17
364.146	139.94
364.357	29.35
364.568	47.79
364.779	15.02
364.99	156.33
365.201	33.45
365.412	176.81
365.623	-13.65
365.834	64.17
366.045	37.55
366.256	129.7
366.467	80.55
366.678	70.31
366.889	15.02
367.1	35.5
367.311	156.33
367.522	62.12
367.733	133.8
367.944	117.42
368.155	66.22
368.366	154.28
368.577	156.33
368.788	221.86
368.999	39.59
369.209	64.17
369.42	225.96
369.631	271.01
369.842	160.42
370.053	58.03
370.264	129.7
370.474	2.73
370.685	160.42
370.896	55.98
371.107	197.29
371.317	103.08
371.528	68.27
371.739	232.1
371.95	72.36
372.16	103.08
372.371	-11.61
372.582	51.88
372.792	141.99
373.003	88.75
373.214	103.08
373.424	49.83
373.635	-36.18
373.846	135.85
374.056	88.75
374.267	62.12
374.477	94.89
374.688	0.68
374.898	117.42
375.109	111.27
375.319	84.65
375.53	172.71
375.74	162.47
375.951	4.78
376.161	146.09
376.372	92.84
376.582	-38.23
376.793	101.03
377.003	49.83
377.214	-32.08
377.424	72.36
377.635	43.69
377.845	45.74
378.055	113.32
378.266	-19.8
378.476	103.08
378.686	96.94
378.897	66.22
379.107	193.19
379.317	133.8
379.528	41.64
379.738	96.94
379.948	49.83
380.158	92.84
380.369	55.98
380.579	92.84
380.789	80.55
380.999	141.99
381.21	219.82
381.42	346.79
381.63	117.42
381.84	43.69
382.05	133.8
382.261	258.73
382.471	158.38
382.681	80.55
382.891	121.51
383.101	74.41
383.311	82.6
383.521	62.12
383.731	131.75
383.941	123.56
384.151	80.55
384.361	123.56
384.571	27.31
384.781	86.7
384.991	215.72
385.201	133.8
385.411	84.65
385.621	121.51
385.831	129.7
386.041	80.55
386.251	82.6
386.461	105.13
386.671	72.36
386.881	84.65
387.091	101.03
387.301	162.47
387.511	-19.8
387.72	117.42
387.93	129.7
388.14	37.55
388.35	141.99
388.56	144.04
388.769	107.18
388.979	111.27
389.189	47.79
389.399	62.12
389.609	60.07
389.818	127.66
390.028	115.37
390.238	158.38
390.447	86.7
390.657	39.59
390.867	25.26
391.076	-38.23
391.286	129.7
391.496	68.27
391.705	21.16
391.915	127.66
392.125	174.76
392.334	-11.61
392.544	172.71
392.753	103.08
392.963	4.78
393.172	29.35
393.382	60.07
393.591	195.24
393.801	107.18
394.01	205.48
394.22	90.79
394.429	-38.23
394.639	189.1
394.848	19.11
395.058	103.08
395.267	-21.84
395.477	139.94
395.686	41.64
395.895	221.86
396.105	195.24
396.314	101.03
396.524	111.27
396.733	10.92
396.942	135.85
397.152	133.8
397.361	68.27
397.57	111.27
397.78	109.23
397.989	125.61
398.198	213.67
398.407	82.6
398.617	31.4
398.826	58.03
399.035	62.12
399.244	150.18
399.453	107.18
399.663	121.51
399.872	17.07
400.081	-11.61
400.29	141.99
400.499	144.04
400.708	174.76
400.917	33.45
401.127	92.84
401.336	2.73
401.545	158.38
401.754	193.19
401.963	162.47
402.172	-32.08
402.381	62.12
402.59	80.55
402.799	158.38
403.008	209.58
403.217	74.41
403.426	141.99
403.635	-11.61
403.844	127.66
404.053	107.18
404.262	86.7
404.471	246.44
404.68	121.51
404.888	41.64
405.097	66.22
405.306	53.93
405.515	189.1
405.724	70.31
405.933	111.27
406.142	148.14
406.35	144.04
406.559	66.22
406.768	152.23
406.977	185
407.185	70.31
407.394	66.22
407.603	35.5
407.812	101.03
408.02	156.33
408.229	8.87
408.438	123.56
408.646	-64.85
408.855	19.11
409.064	123.56
409.272	23.21
409.481	125.61
409.69	2.73
409.898	-77.14
410.107	133.8
410.315	191.14
410.524	66.22
410.733	90.79
410.941	84.65
411.15	174.76
411.358	98.99
411.567	182.95
411.775	113.32
411.984	68.27
412.192	189.1
412.401	49.83
412.609	209.58
412.818	172.71
413.026	133.8
413.234	39.59
413.443	80.55
413.651	15.02
413.86	15.02
414.068	195.24
414.276	168.62
414.485	45.74
414.693	187.05
414.901	180.9
415.11	90.79
415.318	60.07
415.526	25.26
415.734	45.74
415.943	76.46
416.151	187.05
416.359	88.75
416.567	137.9
416.776	189.1
416.984	115.37
417.192	215.72
417.4	43.69
417.608	133.8
417.817	60.07
418.025	174.76
418.233	148.14
418.441	-23.89
418.649	-21.84
418.857	119.46
419.065	152.23
419.273	27.31
419.481	139.94
419.689	74.41
419.897	49.83
420.105	19.11
420.313	131.75
420.521	86.7
420.729	160.42
420.937	21.16
421.145	43.69
421.353	96.94
421.561	156.33
421.769	193.19
421.977	53.93
422.185	123.56
422.393	62.12
422.601	187.05
422.809	64.17
423.017	115.37
423.224	127.66
423.432	166.57
423.64	62.12
423.848	228.01
424.056	19.11
424.263	92.84
424.471	64.17
424.679	207.53
424.887	64.17
425.094	174.76
425.302	195.24
425.51	178.86
425.718	80.55
425.925	144.04
426.133	12.97
426.341	248.49
426.548	119.46
426.756	80.55
426.964	141.99
427.171	88.75
427.379	60.07
427.586	86.7
427.794	88.75
428.001	287.4
428.209	137.9
428.417	252.58
428.624	193.19
428.832	154.28
429.039	101.03
429.247	139.94
429.454	160.42
429.662	178.86
429.869	228.01
430.076	217.77
430.284	176.81
430.491	246.44
430.699	76.46
430.906	277.16
431.114	193.19
431.321	197.29
431.528	129.7
431.736	176.81
431.943	131.75
432.15	172.71
432.358	254.63
432.565	420.52
432.772	160.42
432.979	289.45
433.187	187.05
433.394	289.45
433.601	162.47
433.808	242.34
434.016	318.12
434.223	307.88
434.43	225.96
434.637	375.46
434.844	377.51
435.052	354.98
435.259	301.73
435.466	363.17
435.673	318.12
435.88	326.31
436.087	397.99
436.294	379.56
436.501	371.37
436.708	279.21
436.915	340.65
437.122	463.52
437.329	330.41
437.537	363.17
437.743	377.51
437.95	570.02
438.157	383.65
438.364	428.71
438.571	426.66
438.778	531.11
438.985	563.87
439.192	574.11
439.399	492.2
439.606	617.12
439.813	598.69
440.02	662.18
440.227	742.05
440.433	664.22
440.64	666.27
440.847	672.42
441.054	729.76
441.261	766.62
441.467	791.2
441.674	744.1
441.881	971.42
442.088	750.24
442.294	887.45
442.501	928.41
442.708	1002.14
442.914	1018.52
443.121	1133.21
443.328	1086.11
443.534	1204.89
443.741	1082.01
443.948	1059.48
444.154	1180.31
444.361	1389.21
444.568	1258.14
444.774	1198.74
444.981	1129.11
445.187	1450.64
445.394	1397.4
445.6	1325.72
445.807	1536.66
446.013	1589.91
446.22	1467.03
446.426	1657.49
446.633	1800.85
446.839	1952.4
447.046	1761.94
447.252	1958.54
447.459	1854.09
447.665	2022.03
447.871	2226.82
448.078	2306.7
448.284	2241.16
448.491	2458.25
448.697	2628.23
448.903	2757.25
449.11	2683.52
449.316	2642.56
449.522	2988.67
449.728	2919.04
449.935	3031.68
450.141	2978.43
450.347	3433.08
450.553	3091.07
450.76	3412.6
450.966	3539.57
451.172	3527.28
451.378	3842.67
451.584	3814
451.791	4139.63
451.997	4115.05
452.203	4199.02
452.409	4688.48
452.615	4604.52
452.821	4610.66
453.027	4743.78
453.233	5329.5
453.44	5059.17
453.646	5425.75
453.852	5505.62
454.058	5927.5
454.264	6040.14
454.47	6402.63
454.676	6382.15
454.882	7006.78
455.088	6726.21
455.294	7008.83
455.5	7486.01
455.705	7797.3
455.911	7944.75
456.117	7950.9
456.323	8636.97
456.529	8415.79
456.735	9179.68
456.941	9179.68
457.147	9617.94
457.352	9943.57
457.558	10400.27
457.764	10840.58
457.97	11481.6
458.176	11551.23
458.381	12235.25
458.587	12210.67
458.793	12773.86
458.999	12913.13
459.204	14543.31
459.41	15225.28
459.616	14918.09
459.821	15651.26
460.027	16458.16
460.233	17312.16
460.438	17375.65
460.644	18497.94
460.85	18377.11
461.055	19024.26
461.261	20054.39
461.466	19665.28
461.672	20105.59
461.878	22233.43
462.083	22215
462.289	22683.98
462.494	23525.7
462.7	23519.56
462.905	24265.02
463.111	26276.12
463.316	27384.07
463.522	27756.8
463.727	28797.17
463.932	29796.58
464.138	30712.02
464.343	31899.84
464.549	31998.15
464.754	34162.85
464.959	35225.75
465.165	36003.97
465.37	35526.8
465.575	35326.1
465.781	38037.61
465.986	39268.44
466.191	38275.17
466.397	39032.92
466.602	38101.09
466.807	40400.96
467.012	40761.4
467.218	41365.56
467.423	41705.52
467.628	42962.97
467.833	45150.2
468.038	44380.17
468.244	43657.23
468.449	45752.3
468.654	44548.1
468.859	45076.47
469.064	44681.22
469.269	43757.58
469.474	44263.43
469.679	45199.35
469.885	43927.56
470.09	44730.37
470.295	45072.38
470.5	43892.75
470.705	44314.63
470.91	43272.21
471.115	42858.52
471.32	43407.38
471.525	43059.23
471.73	41592.88
471.935	41551.92
472.139	39944.27
472.344	40183.88
472.549	40099.91
472.754	39243.86
472.959	38209.64
473.164	36896.89
473.369	36780.15
473.574	37501.04
473.778	36640.89
473.983	36110.47
474.188	35805.32
474.393	34144.42
474.598	33888.42
474.802	33171.63
475.007	32702.65
475.212	32712.89
475.417	31146.19
475.621	30990.55
475.826	30480.6
476.031	29849.83
476.235	29157.61
476.44	29331.69
476.645	28508.41
476.849	28049.66
477.054	27984.13
477.259	27087.12
477.463	27083.02
477.668	26192.15
477.872	26454.29
478.077	25452.84
478.282	24787.25
478.486	24525.11
478.691	24383.8
478.895	24529.2
479.1	23851.33
479.304	23988.54
479.509	23138.63
479.713	23347.53
479.918	22972.75
480.122	22094.17
480.326	22530.39
480.531	22481.24
480.735	21965.15
480.94	21707.1
481.144	22401.36
481.348	21326.18
481.553	21557.6
481.757	20916.59
481.961	21170.54
482.166	21565.79
482.37	21088.62
482.574	20474.23
482.778	20416.88
482.983	20937.07
483.187	20228.47
483.391	20275.57
483.595	19995
483.8	19358.08
484.004	19704.19
484.208	19538.3
484.412	19603.84
484.616	19470.72
484.821	19227.01
485.025	18567.57
485.229	18661.77
485.433	18168.21
485.637	18186.65
485.841	17787.29
486.045	17594.78
486.249	17197.48
486.453	17015.21
486.657	17031.59
486.861	16849.32
487.065	16013.75
487.269	16128.44
487.473	15688.12
487.677	16056.76
487.881	15702.46
488.085	15331.78
488.289	15118.79
488.493	14543.31
488.697	14637.52
488.901	14303.7
489.105	13949.4
489.309	13894.1
489.512	13752.79
489.716	13402.59
489.92	13119.97
490.124	12874.21
490.328	12997.09
490.531	12270.06
490.735	12024.31
490.939	12102.13
491.143	11786.74
491.346	11794.93
491.55	11571.71
491.754	11280.89
491.958	11424.25
492.161	10885.64
492.365	10910.21
492.569	10521.1
492.772	10537.48
492.976	10224.14
493.18	10172.94
493.383	10271.25
493.587	9863.7
493.79	9888.28
493.994	9402.91
494.197	9720.34
494.401	9509.4
494.605	9411.1
494.808	9599.51
495.012	9280.03
495.215	9400.86
495.419	9306.65
495.622	9159.2
495.825	8909.35
496.029	8948.26
496.232	8901.15
496.436	8811.04
496.639	8942.11
496.843	8888.87
497.046	8815.14
497.249	8821.28
497.453	8872.48
497.656	8702.5
497.859	8831.52
498.063	8882.72
498.266	9075.23
498.469	8933.92
498.673	9046.56
498.876	8958.5
499.079	8911.39
499.282	8999.46
499.485	9173.53
499.689	9323.04
499.892	9151.01
500.095	9134.62
500.298	9456.15
500.501	9300.51
500.705	9407
500.908	9527.83
501.111	9493.02
501.314	9832.98
501.517	10050.07
501.72	9875.99
501.923	9923.09
502.126	10199.57
502.329	10156.56
502.532	10328.59
502.735	10283.53
502.938	10666.5
503.141	10469.9
503.344	10553.87
503.547	10955.27
503.75	10918.4
503.953	11158.02
504.156	11227.65
504.359	11594.23
504.562	11373.05
504.765	11416.06
504.968	11913.72
505.17	12079.6
505.373	12157.43
505.576	12515.82
505.779	12712.42
505.982	12720.62
506.185	13027.81
506.387	13134.31
506.59	13570.52
506.793	13527.52
506.996	13849.05
507.198	14414.29
507.401	14158.29
507.604	14746.06
507.807	15157.7
508.009	15100.36
508.212	15579.58
508.415	15786.43
508.617	16003.51
508.82	16325.04
509.022	16437.68
509.225	17273.25
509.428	17496.48
509.63	17832.35
509.833	18141.59
510.035	18934.15
510.238	18708.88
510.44	19177.86
510.643	19685.76
510.845	20132.22
511.048	20277.62
511.25	20808.05
511.453	21453.16
511.655	22374.74
511.858	22389.08
512.06	22772.05
512.262	23322.95
512.465	23689.54
512.667	24525.11
512.87	24932.65
513.072	25661.73
513.274	26077.47
513.477	26700.05
513.679	27201.8
513.881	27861.25
514.084	28057.85
514.286	28614.9
514.488	29325.55
514.69	30486.75
514.893	30965.97
515.095	30990.55
515.297	31623.37
515.499	32348.35
515.701	33104.05
515.904	34349.21
516.106	34685.08
516.308	34936.98
516.51	35997.83
516.712	36546.68
516.914	37345.39
517.116	37943.4
517.318	38355.04
517.52	38869.08
517.722	39622.73
517.925	40773.69
518.127	41859.12
518.329	42629.15
518.531	42496.03
518.733	43143.19
518.935	43673.62
519.136	44847.1
519.338	45391.86
519.54	46170.09
519.742	46634.98
519.944	47067.1
520.146	47953.87
520.348	48627.65
520.55	49153.98
520.752	49573.81
520.954	50665.38
521.155	50646.95
521.357	51474.33
521.559	52012.94
521.761	52692.87
521.963	52891.52
522.164	53284.73
522.366	53718.9
522.568	54620.01
522.77	54585.19
522.971	55474.01
523.173	55316.32
523.375	55856.98
523.576	55793.5
523.778	55721.82
523.98	56639.31
524.181	56616.78
524.383	57179.97
524.584	56926.02
524.786	57179.97
524.988	57085.76
525.189	57401.15
525.391	57218.88
525.592	57550.65
525.794	57540.41
525.995	57274.18
526.197	57280.32
526.398	57048.9
526.6	56889.16
526.801	57053
527.003	56794.95
527.204	56819.53
527.406	57245.51
527.607	56033.11
527.808	56434.51
528.01	55375.71
528.211	55709.53
528.412	55897.94
528.614	55437.15
528.815	54806.37
529.016	54763.37
529.218	53774.2
529.419	54017.91
529.62	52963.2
529.822	52789.13
530.023	51797.91
530.224	51961.75
530.425	51083.17
530.626	50522.02
530.828	50067.37
531.029	50646.95
531.23	48990.14
531.431	48422.86
531.632	48072.65
531.833	47728.59
532.035	47093.72
532.236	46665.7
532.437	46260.2
532.638	45441.01
532.839	45160.44
533.04	45051.9
533.241	43513.87
533.442	43796.49
533.643	42962.97
533.844	41830.44
534.045	41814.06
534.246	40806.46
534.447	40724.54
534.648	40089.67
534.849	39878.73
535.05	39037.01
535.251	38715.48
535.451	37879.91
535.652	37435.5
535.853	36806.78
536.054	36647.04
536.255	36151.43
536.456	35192.98
536.657	35317.9
536.857	34283.68
537.058	33919.14
537.259	34087.07
537.46	33433.77
537.66	32422.08
537.861	32686.26
538.062	31815.88
538.263	31598.79
538.463	31178.96
538.664	30943.44
538.865	30718.17
539.065	30335.2
539.266	29616.36
539.466	29462.76
539.667	28805.36
539.868	29141.23
540.068	28150.01
540.269	27834.63
540.469	27558.15
540.67	26954
540.87	27152.65
541.071	26450.2
541.271	26220.83
541.472	25858.34
541.672	25776.42
541.873	25432.36
542.073	24949.04
542.274	25143.6
542.474	24699.19
542.675	24150.33
542.875	24205.63
543.075	23542.08
543.276	23304.52
543.476	23583.04
543.676	23097.67
543.877	22638.93
544.077	22618.45
544.277	22108.51
544.478	21924.19
544.678	21883.23
544.878	21571.94
545.078	21045.61
545.279	20922.73
545.479	20988.27
545.679	20629.87
545.879	20375.92
546.079	20136.31
546.28	19632.51
546.48	19458.43
546.68	19648.89
546.88	19366.28
547.08	18876.81
547.28	18694.54
547.48	18522.51
547.68	18579.86
547.88	17891.74
548.081	18039.19
548.281	17650.08
548.481	17232.29
548.681	17324.45
548.881	17052.07
549.081	16685.48
549.28	16425.39
549.48	16339.38
549.68	15888.82
549.88	15882.68
550.08	15606.2
550.28	15468.99
550.48	15479.23
550.68	15217.09
550.88	14854.6
551.08	14463.44
551.279	14442.96
551.479	14168.53
551.679	14062.04
551.879	13480.41
552.079	13810.14
552.278	13386.21
552.478	13480.41
552.678	12970.47
552.878	13040.1
553.077	12634.6
553.277	12141.04
553.477	12624.36
553.676	12046.83
553.876	12071.41
554.076	11717.11
554.275	11543.03
554.475	11487.74
554.674	11119.1
554.874	11028.99
555.074	10906.12
555.273	10582.54
555.473	10545.67
555.672	10349.07
555.872	10207.76
556.071	10166.8
556.271	10086.93
556.47	9744.92
556.67	9206.3
556.869	9445.91
557.068	9359.9
557.268	8956.45
557.467	8985.12
557.667	8972.83
557.866	8700.45
558.065	8585.77
558.265	8389.16
558.464	8198.7
558.663	8337.96
558.863	7967.28
559.062	7891.51
559.261	7735.86
559.461	7795.25
559.66	7361.08
559.859	7467.58
560.058	7158.33
560.258	7103.04
560.457	6937.15
560.656	6969.92
560.855	6914.63
561.054	6836.8
561.253	6634.05
561.453	6691.4
561.652	6380.11
561.851	6398.54
562.05	6236.75
562.249	6148.68
562.448	6044.24
562.647	6054.48
562.846	6017.61
563.045	5808.72
563.244	5792.34
563.443	5825.11
563.642	5456.47
563.841	5354.07
564.04	5284.44
564.239	5313.11
564.438	5241.43
564.637	5151.32
564.836	5124.7
565.035	4909.66
565.234	4786.79
565.432	4946.53
565.631	4940.38
565.83	4854.37
566.029	4645.48
566.228	4526.69
566.427	4635.24
566.625	4278.89
566.824	4502.12
567.023	4305.51
567.222	4100.72
567.42	4301.42
567.619	4250.22
567.818	4256.36
568.016	4309.61
568.215	4047.47
568.414	4115.05
568.612	3951.21
568.811	3891.82
569.01	3826.29
569.208	3793.52
569.407	3877.49
569.605	3633.78
569.804	3629.68
570.002	3471.99
570.201	3441.27
570.4	3605.11
570.598	3304.06
570.797	3332.73
570.995	3191.42
571.193	3125.88
571.392	3347.06
571.59	3046.01
571.789	3213.95
571.987	3207.8
572.186	3187.32
572.384	2931.33
572.582	3037.82
572.781	2849.41
572.979	2974.33
573.177	2914.94
573.376	2783.87
573.574	2814.59
573.772	2660.99
573.971	2431.62
574.169	2470.53
574.367	2486.92
574.565	2521.73
574.763	2509.44
574.962	2464.39
575.16	2345.61
575.358	2325.13
575.556	2374.28
575.754	2431.62
575.952	2292.36
576.151	2263.69
576.349	2155.15
576.547	2175.63
576.745	2241.16
576.943	2024.08
577.141	2038.41
577.339	2032.27
577.537	1991.31
577.735	2011.79
577.933	1976.97
578.131	1960.59
578.329	1970.83
578.527	1893.01
578.725	1915.53
578.923	1766.03
579.121	1884.81
579.319	1673.87
579.516	1770.13
579.714	1874.57
579.912	1684.11
580.11	1559.19
580.308	1622.67
580.506	1524.37
580.704	1520.28
580.901	1432.21
581.099	1612.43
581.297	1526.42
581.495	1581.71
581.692	1493.65
581.89	1575.57
582.088	1376.92
582.285	1458.84
582.483	1403.54
582.681	1350.29
582.878	1301.14
583.076	1303.19
583.274	1315.48
583.471	1557.14
583.669	1276.57
583.866	1184.41
584.064	1168.02
584.262	1176.22
584.459	1204.89
584.657	1286.81
584.854	1196.7
585.052	1176.22
585.249	1155.74
585.447	1174.17
585.644	1057.43
585.841	1100.44
586.039	1114.78
586.236	1131.16
586.434	1073.82
586.631	967.32
586.828	1075.87
587.026	916.12
587.223	950.94
587.42	1004.19
587.618	955.04
587.815	1120.92
588.012	1047.19
588.21	866.97
588.407	973.47
588.604	1028.76
588.801	815.77
588.999	912.03
589.196	1020.57
589.393	842.4
589.59	897.69
589.787	912.03
589.984	987.8
590.182	1022.62
590.379	801.44
590.576	905.88
590.773	940.7
590.97	787.1
591.167	955.04
591.364	930.46
591.561	758.43
591.758	877.21
591.955	852.64
592.152	869.02
592.349	854.69
592.546	834.21
592.743	776.86
592.94	799.39
593.137	860.83
593.334	871.07
593.531	860.83
593.727	832.16
593.924	850.59
594.121	789.15
594.318	811.68
594.515	801.44
594.712	783.01
594.908	932.51
595.105	866.97
595.302	879.26
595.499	975.52
595.696	1069.72
595.892	883.36
596.089	1120.92
596.286	942.75
596.482	1008.28
596.679	1108.63
596.876	971.42
597.072	1082.01
597.269	1004.19
597.466	1106.59
597.662	1106.59
597.859	1039
598.055	1178.26
598.252	1288.86
598.448	1292.95
598.645	1245.85
598.841	1292.95
599.038	1387.16
599.234	1454.74
599.431	1540.76
599.627	1532.56
599.824	1608.34
600.02	1626.77
600.217	1616.53
600.413	1753.74
600.609	1723.02
600.806	2136.71
601.002	1841.81
601.198	1989.26
601.395	2153.1
601.591	2073.23
601.787	2366.09
601.984	2366.09
602.18	2374.28
602.376	2390.66
602.572	2554.5
602.769	2673.28
602.965	2650.75
603.161	2861.7
603.357	3027.58
603.553	3199.61
603.75	3078.78
603.946	3224.19
604.142	3418.74
604.338	3504.76
604.534	3703.41
604.73	3742.32
604.926	3740.27
605.122	4084.33
605.318	3940.97
605.514	4389.48
605.71	4452.97
605.906	4581.99
606.102	4487.78
606.298	4934.24
606.494	4930.14
606.69	5120.6
606.886	5147.23
607.082	5081.69
607.278	5442.14
607.474	5595.73
607.67	5749.33
607.866	5716.56
608.062	6136.4
608.257	6269.52
608.453	6402.63
608.649	6726.21
608.845	6619.72
609.041	6986.3
609.236	7170.62
609.432	7328.31
609.628	7363.13
609.824	7694.9
610.019	7969.33
610.215	8163.89
610.411	8370.73
610.606	8598.06
610.802	8729.13
610.998	8995.36
611.193	9325.08
611.389	9402.91
611.584	9699.86
611.78	9896.47
611.976	10189.33
612.171	10789.38
612.367	10908.16
612.562	11371.01
612.758	11313.66
612.953	11819.51
613.149	12059.12
613.344	12206.58
613.539	12677.61
613.735	12882.41
613.93	13339.1
614.126	13529.56
614.321	14111.19
614.517	14500.3
614.712	14676.43
614.907	14809.54
615.103	15460.8
615.298	15587.77
615.493	16257.46
615.688	16322.99
615.884	17254.82
616.079	17269.16
616.274	18031
616.47	18260.37
616.665	18798.99
616.86	18942.35
617.055	19933.56
617.25	20267.38
617.445	21018.99
617.641	20799.85
617.836	21694.82
618.031	21954.91
618.226	22651.22
618.421	23087.43
618.616	23777.6
618.811	24174.91
619.006	24877.36
619.201	25145.64
619.396	25985.31
619.591	26188.06
619.786	27386.12
619.981	27363.59
620.176	28250.36
620.371	28383.48
620.566	29298.92
620.761	29898.98
620.956	30714.07
621.151	30685.4
621.346	31555.79
621.541	31932.61
621.735	33079.47
621.93	32843.96
622.125	33882.28
622.32	34162.85
622.515	35483.79
622.709	35514.51
622.904	36380.8
623.099	37011.57
623.294	37646.44
623.488	37980.26
623.683	38672.48
623.878	38858.84
624.072	40353.86
624.267	40736.83
624.462	41234.49
624.656	41426.99
624.851	42737.69
625.046	42983.45
625.24	43986.96
625.435	43685.9
625.629	44498.95
625.824	44830.72
626.018	46413.8
626.213	45391.86
626.407	47048.67
626.602	46888.93
626.796	47900.62
626.991	48345.03
627.185	48304.07
627.38	48775.11
627.574	49260.47
627.768	49375.16
627.963	49291.19
628.157	49512.38
628.352	50208.68
628.546	49606.58
628.74	50231.21
628.935	49354.68
629.129	50130.86
629.323	49061.82
629.517	48988.1
629.712	49106.88
629.906	48709.57
630.1	48254.92
630.294	48027.6
630.489	47615.96
630.683	47237.08
630.877	45944.81
631.071	45426.68
631.265	44722.18
631.459	44132.36
631.653	42997.79
631.848	42250.28
632.042	41570.35
632.236	40308.8
632.43	39297.11
632.624	38393.95
632.818	36993.14
633.012	35790.98
633.206	34793.62
633.4	33980.58
633.594	32590.01
633.788	31746.25
633.982	30777.56
634.176	29520.1
634.369	28444.92
634.563	27328.78
634.757	26112.28
634.951	25555.24
635.145	24342.84
635.339	23497.03
635.533	22403.41
635.726	21784.93
635.92	20638.06
636.114	19810.68
636.308	19114.38
636.501	18352.53
636.695	17650.08
636.889	16968.1
637.083	16064.95
637.276	15552.96
637.47	14508.49
637.664	14322.13
637.857	13588.96
638.051	13222.37
638.244	12587.5
638.438	12052.98
638.632	11762.17
638.825	11133.44
639.019	10689.03
639.212	10138.13
639.406	9843.22
639.599	9478.68
639.793	9103.9
639.986	8950.31
640.18	8628.77
640.373	8092.21
640.567	7737.91
640.76	7606.84
640.954	7174.72
641.147	6742.6
641.34	6638.15
641.534	6513.22
641.727	6179.4
641.92	6050.38
642.114	5775.95
642.307	5599.83
642.5	5460.57
642.694	5098.08
642.887	4938.34
643.08	4743.78
643.273	4508.26
643.467	4407.91
643.66	4176.49
643.853	3975.79
644.046	3857.01
644.239	3746.42
644.432	3553.91
644.626	3465.85
644.819	3193.47
645.012	3115.64
645.205	3175.03
645.398	3121.79
645.591	2919.04
645.784	2783.87
645.977	2605.7
646.17	2646.66
646.363	2536.07
646.556	2359.94
646.749	2167.43
646.942	2110.09
647.135	2101.9
647.328	2120.33
647.521	1974.92
647.714	1929.87
647.907	1886.86
648.099	1749.65
648.292	1841.81
648.485	1698.45
648.678	1471.12
648.871	1524.37
649.064	1403.54
649.256	1381.01
649.449	1329.81
649.642	1288.86
649.835	1141.4
650.027	1206.94
650.22	1264.28
650.413	1112.73
650.605	1108.63
650.798	934.56
650.991	1057.43
651.183	1018.52
651.376	981.66
651.568	1030.81
651.761	821.92
651.954	879.26
652.146	963.23
652.339	916.12
652.531	940.7
652.724	699.04
652.916	690.85
653.109	545.44
653.301	795.29
653.494	791.2
653.686	756.38
653.879	858.78
654.071	703.14
654.263	584.35
654.456	527.01
654.648	680.61
654.84	613.03
655.033	580.26
655.225	694.94
655.417	441
655.61	653.98
655.802	643.74
655.994	576.16
656.186	414.37
656.379	543.39
656.571	430.76
656.763	443.04
656.955	416.42
657.148	383.65
657.34	613.03
657.532	389.8
657.724	379.56
657.916	432.8
658.108	408.23
658.3	488.1
658.492	404.13
658.684	279.21
658.876	436.9
659.068	242.34
659.26	307.88
659.452	283.3
659.644	406.18
659.836	475.81
660.028	320.17
660.22	256.68
660.412	328.36
660.604	289.45
660.796	293.54
660.988	461.48
661.18	326.31
661.372	350.89
661.563	338.6
661.755	344.74
661.947	248.49
662.139	217.77
662.331	193.19
662.522	320.17
662.714	246.44
662.906	225.96
663.097	236.2
663.289	125.61
663.481	197.29
663.673	256.68
663.864	135.85
664.056	215.72
664.247	277.16
664.439	309.93
664.631	232.1
664.822	320.17
665.014	228.01
665.205	230.06
665.397	268.97
665.588	225.96
665.78	275.11
665.971	318.12
666.163	133.8
666.354	324.26
666.546	152.23
666.737	164.52
666.929	191.14
667.12	205.48
667.311	215.72
667.503	256.68
667.694	223.91
667.885	328.36
668.077	236.2
668.268	154.28
668.459	236.2
668.651	260.77
668.842	277.16
669.033	137.9
669.224	156.33
669.416	365.22
669.607	201.38
669.798	103.08
669.989	264.87
670.18	189.1
670.371	238.25
670.563	117.42
670.754	309.93
670.945	301.73
671.136	291.49
671.327	101.03
671.518	215.72
671.709	301.73
671.9	297.64
672.091	365.22
672.282	303.78
672.473	193.19
672.664	107.18
672.855	236.2
673.046	236.2
673.237	285.35
673.428	275.11
673.619	303.78
673.809	207.53
674	268.97
674.191	289.45
674.382	258.73
674.573	201.38
674.764	199.34
674.954	340.65
675.145	139.94
675.336	182.95
675.527	199.34
675.717	236.2
675.908	133.8
676.099	199.34
676.289	291.49
676.48	148.14
676.671	209.58
676.861	256.68
677.052	336.55
677.243	162.47
677.433	234.15
677.624	314.02
677.814	344.74
678.005	86.7
678.195	324.26
678.386	236.2
678.576	297.64
678.767	252.58
678.957	334.5
679.148	348.84
679.338	326.31
679.529	371.37
679.719	164.52
679.909	404.13
680.1	324.26
680.29	346.79
680.481	141.99
680.671	410.28
680.861	375.46
681.052	307.88
681.242	246.44
681.432	332.45
681.622	328.36
681.813	262.82
682.003	320.17
682.193	215.72
682.383	383.65
682.573	285.35
682.764	299.69
682.954	291.49
683.144	410.28
683.334	338.6
683.524	314.02
683.714	445.09
683.904	400.04
684.094	314.02
684.284	281.25
684.474	438.95
684.664	375.46
684.854	449.19
685.044	320.17
685.234	367.27
685.424	367.27
685.614	271.01
685.804	400.04
685.994	344.74
686.184	361.13
686.374	402.08
686.564	299.69
686.753	424.61
686.943	256.68
687.133	301.73
687.323	352.93
687.513	375.46
687.702	395.94
687.892	318.12
688.082	402.08
688.272	328.36
688.461	406.18
688.651	463.52
688.841	377.51
689.03	328.36
689.22	363.17
689.41	373.41
689.599	340.65
689.789	375.46
689.979	424.61
690.168	293.54
690.358	367.27
690.547	361.13
690.737	453.28
690.926	418.47
691.116	293.54
691.305	324.26
691.495	303.78
691.684	287.4
691.874	330.41
692.063	344.74
692.252	357.03
692.442	334.5
692.631	314.02
692.82	369.32
693.01	291.49
693.199	354.98
693.388	383.65
693.578	264.87
693.767	314.02
693.956	367.27
694.146	311.97
694.335	256.68
694.524	297.64
694.713	352.93
694.902	271.01
695.092	250.53
695.281	309.93
695.47	305.83
695.659	293.54
695.848	320.17
696.037	213.67
696.226	365.22
696.415	340.65
696.604	371.37
696.793	363.17
696.982	350.89
697.171	365.22
697.36	234.15
697.549	301.73
697.738	168.62
697.927	258.73
698.116	182.95
698.305	293.54
698.494	305.83
698.683	277.16
698.872	379.56
699.061	291.49
699.25	295.59
699.438	225.96
699.627	291.49
699.816	475.81
700.005	203.43
700.193	197.29
700.382	340.65
700.571	297.64
700.76	344.74
700.948	301.73
701.137	260.77
701.326	387.75
701.514	203.43
701.703	277.16
701.892	391.84
702.08	447.14
702.269	211.62
702.457	207.53
702.646	275.11
702.834	254.63
703.023	393.89
703.212	371.37
703.4	293.54
703.589	225.96
703.777	275.11
703.965	182.95
704.154	260.77
704.342	166.57
704.531	309.93
704.719	287.4
704.907	350.89
705.096	199.34
705.284	242.34
705.472	314.02
705.661	283.3
705.849	400.04
706.037	418.47
706.226	242.34
706.414	291.49
706.602	211.62
706.79	365.22
706.979	225.96
707.167	299.69
707.355	174.76
707.543	336.55
707.731	262.82
707.919	203.43
708.107	260.77
708.296	213.67
708.484	223.91
708.672	354.98
708.86	291.49
709.048	266.92
709.236	199.34
709.424	328.36
709.612	293.54
709.8	168.62
709.988	314.02
710.176	408.23
710.364	402.08
710.551	254.63
710.739	320.17
710.927	254.63
711.115	340.65
711.303	352.93
711.491	389.8
711.679	197.29
711.866	432.8
712.054	244.39
712.242	354.98
712.43	375.46
712.617	262.82
712.805	350.89
712.993	254.63
713.181	203.43
713.368	340.65
713.556	305.83
713.744	258.73
713.931	406.18
714.119	338.6
714.306	250.53
714.494	225.96
714.682	242.34
714.869	221.86
715.057	207.53
715.244	176.81
715.432	277.16
715.619	266.92
715.807	330.41
715.994	309.93
716.182	320.17
716.369	363.17
716.556	418.47
716.744	207.53
716.931	252.58
717.119	273.06
717.306	254.63
717.493	395.94
717.681	213.67
717.868	193.19
718.055	371.37
718.242	178.86
718.43	297.64
718.617	408.23
718.804	301.73
718.991	422.56
719.179	344.74
719.366	369.32
719.553	285.35
719.74	303.78
719.927	342.69
720.114	281.25
720.301	201.38
720.488	191.14
720.676	240.3
720.863	393.89
721.05	397.99
721.237	301.73
721.424	412.32
721.611	322.21
721.798	207.53
721.985	240.3
722.172	305.83
722.358	295.59
722.545	408.23
722.732	363.17
722.919	377.51
723.106	334.5
723.293	338.6
723.48	338.6
723.667	283.3
723.853	451.24
724.04	434.85
724.227	406.18
724.414	326.31
724.6	381.6
724.787	416.42
724.974	420.52
725.161	375.46
725.347	240.3
725.534	209.58
725.72	377.51
725.907	369.32
726.094	373.41
726.28	297.64
726.467	232.1
726.653	260.77
726.84	385.7
727.027	537.25
727.213	352.93
727.4	342.69
727.586	455.33
727.773	361.13
727.959	340.65
728.145	311.97
728.332	332.45
728.518	326.31
728.705	469.67
728.891	379.56
729.077	422.56
729.264	295.59
729.45	377.51
729.636	412.32
729.823	336.55
730.009	416.42
730.195	311.97
730.382	326.31
730.568	250.53
730.754	340.65
730.94	318.12
731.126	348.84
731.313	359.08
731.499	408.23
731.685	445.09
731.871	328.36
732.057	354.98
732.243	406.18
732.429	389.8
732.615	451.24
732.801	391.84
732.987	395.94
733.173	314.02
733.359	293.54
733.545	383.65
733.731	334.5
733.917	496.29
734.103	397.99
734.289	422.56
734.475	301.73
734.661	551.59
734.847	354.98
735.033	256.68
735.219	477.86
735.404	309.93
735.59	262.82
735.776	365.22
735.962	473.76
736.148	404.13
736.333	465.57
736.519	426.66
736.705	348.84
736.89	381.6
737.076	457.38
737.262	262.82
737.447	320.17
737.633	391.84
737.819	365.22
738.004	430.76
738.19	467.62
738.375	445.09
738.561	438.95
738.747	469.67
738.932	215.72
739.118	500.39
739.303	455.33
739.489	455.33
739.674	357.03
739.859	307.88
740.045	387.75
740.23	365.22
740.416	252.58
740.601	402.08
740.786	393.89
740.972	387.75
741.157	354.98
741.342	262.82
741.528	316.07
741.713	481.96
741.898	402.08
742.084	311.97
742.269	451.24
742.454	369.32
742.639	375.46
742.824	359.08
743.01	481.96
743.195	441
743.38	346.79
743.565	463.52
743.75	340.65
743.935	438.95
744.12	500.39
744.305	252.58
744.49	389.8
744.675	338.6
744.86	314.02
745.045	361.13
745.23	334.5
745.415	365.22
745.6	402.08
745.785	301.73
745.97	334.5
746.155	371.37
746.34	488.1
746.525	393.89
746.71	416.42
746.895	246.44
747.079	318.12
747.264	324.26
747.449	391.84
747.634	465.57
747.819	383.65
748.003	352.93
748.188	252.58
748.373	418.47
748.557	397.99
748.742	322.21
748.927	391.84
749.111	326.31
749.296	266.92
749.481	457.38
749.665	242.34
749.85	230.06
750.034	346.79
750.219	344.74
750.404	397.99
750.588	279.21
750.773	260.77
750.957	225.96
751.141	242.34
751.326	340.65
751.51	307.88
751.695	187.05
751.879	268.97
752.064	350.89
752.248	281.25
752.432	469.67
752.617	365.22
752.801	383.65
752.985	250.53
753.17	301.73
753.354	275.11
753.538	277.16
753.722	291.49
753.907	244.39
754.091	217.77
754.275	264.87
754.459	193.19
754.643	211.62
754.828	303.78
755.012	287.4
755.196	185
755.38	307.88
755.564	156.33
755.748	230.06
755.932	203.43
756.116	322.21
756.3	271.01
756.484	137.9
756.668	264.87
756.852	141.99
757.036	205.48
757.22	264.87
757.404	133.8
757.588	123.56
757.772	307.88
757.956	217.77
758.14	332.45
758.323	201.38
758.507	281.25
758.691	185
758.875	322.21
759.059	250.53
759.242	170.66
759.426	248.49
759.61	215.72
759.794	154.28
759.977	340.65
760.161	436.9
760.345	299.69
760.528	228.01
760.712	262.82
760.895	244.39
761.079	162.47
761.263	160.42
761.446	141.99
761.63	152.23
761.813	334.5
761.997	150.18
762.18	162.47
762.364	314.02
762.547	125.61
762.731	170.66
762.914	146.09
763.098	107.18
763.281	193.19
763.464	160.42
763.648	197.29
763.831	168.62
764.015	64.17
764.198	266.92
764.381	146.09
764.564	164.52
764.748	209.58
764.931	156.33
765.114	201.38
765.297	150.18
765.481	74.41
765.664	129.7
765.847	127.66
766.03	185
766.213	158.38
766.397	172.71
766.58	74.41
766.763	182.95
766.946	111.27
767.129	107.18
767.312	117.42
767.495	113.32
767.678	123.56
767.861	127.66
768.044	162.47
768.227	152.23
768.41	107.18
768.593	160.42
768.776	107.18
768.959	103.08
769.142	228.01
769.324	109.23
769.507	166.57
769.69	127.66
769.873	152.23
770.056	314.02
770.239	176.81
770.421	277.16
770.604	164.52
770.787	129.7
770.97	139.94
771.152	146.09
771.335	199.34
771.518	121.51
771.7	223.91
771.883	260.77
772.066	101.03
772.248	113.32
772.431	254.63
772.613	178.86
772.796	154.28
772.978	178.86
773.161	252.58
773.343	105.13
773.526	-7.51
773.708	51.88
773.891	6.83
774.073	213.67
774.256	68.27
774.438	275.11
774.621	107.18
774.803	117.42
774.985	82.6
775.168	148.14
775.35	94.89
775.532	162.47
775.715	51.88
775.897	180.9
776.079	72.36
776.261	111.27
776.444	105.13
776.626	107.18
776.808	121.51
776.99	45.74
777.173	109.23
777.355	88.75
777.537	86.7
777.719	117.42
777.901	37.55
778.083	96.94
778.265	80.55
778.447	182.95
778.629	98.99
778.811	78.51
778.993	96.94
779.175	203.43
779.357	96.94
779.539	43.69
779.721	49.83
779.903	90.79
780.085	70.31
780.267	88.75
780.449	47.79
780.631	139.94
780.812	166.57
780.994	84.65
781.176	64.17
781.358	-15.7
781.54	152.23
781.721	148.14
781.903	121.51
782.085	60.07
782.267	129.7
782.448	70.31
782.63	82.6
782.812	144.04
782.993	133.8
783.175	234.15
783.357	76.46
783.538	117.42
783.72	29.35
783.901	58.03
784.083	146.09
784.264	127.66
784.446	47.79
784.627	90.79
784.809	137.9
784.99	-11.61
785.172	201.38
785.353	76.46
785.535	101.03
785.716	-15.7
785.897	86.7
786.079	35.5
786.26	88.75
786.441	115.37
786.623	43.69
786.804	6.83
786.985	12.97
787.167	45.74
787.348	31.4
787.529	41.64
787.71	217.77
787.891	43.69
788.073	4.78
788.254	0.68
788.435	141.99
788.616	162.47
788.797	23.21
788.978	84.65
789.159	35.5
789.34	133.8
789.522	0.68
789.703	66.22
789.884	121.51
790.065	101.03
790.246	178.86
790.427	84.65
790.607	178.86
790.788	223.91
790.969	-1.37
791.15	74.41
791.331	12.97
791.512	53.93
791.693	-23.89
791.874	70.31
792.054	244.39
792.235	170.66
792.416	-83.28
792.597	10.92
792.778	23.21
792.958	41.64
793.139	103.08
793.32	103.08
793.5	8.87
793.681	135.85
793.862	70.31
794.042	74.41
794.223	-42.32
794.404	23.21
794.584	-85.33
794.765	98.99
794.945	-50.52
795.126	107.18
795.306	154.28
795.487	58.03
795.667	51.88
795.848	144.04
796.028	76.46
796.209	41.64
796.389	62.12
796.57	127.66
796.75	41.64
796.93	17.07
797.111	25.26
797.291	45.74
797.471	82.6
797.652	41.64
797.832	-25.94
798.012	146.09
798.192	0.68
798.373	6.83
798.553	76.46
798.733	80.55
798.913	-79.19
799.093	4.78
799.274	88.75
799.454	94.89
799.634	121.51
799.814	129.7
799.994	27.31
800.174	96.94
800.354	29.35
800.534	-32.08
800.714	17.07
800.894	-38.23
801.074	25.26
801.254	41.64
801.434	146.09
801.614	35.5
801.794	35.5
801.974	1929.87
802.154	51.88
802.334	150.18
802.514	49.83
802.693	39.59
802.873	17.07
803.053	137.9
803.233	58.03
803.413	-48.47
803.592	0.68
803.772	10.92
803.952	160.42
804.131	-85.33
804.311	113.32
804.491	123.56
804.67	23.21
804.85	-101.72
805.03	51.88
805.209	168.62
805.389	-17.75
805.568	37.55
805.748	4.78
805.928	72.36
806.107	72.36
806.287	37.55
806.466	119.46
806.646	4.78
806.825	58.03
807.004	-44.37
807.184	29.35
807.363	111.27
807.543	-3.41
807.722	-40.28
807.901	193.19
808.081	33.45
808.26	-83.28
808.439	70.31
808.619	146.09
808.798	-30.04
808.977	82.6
809.156	92.84
809.336	64.17
809.515	133.8
809.694	25.26
809.873	12.97
810.052	82.6
810.231	74.41
810.411	27.31
810.59	74.41
810.769	15.02
810.948	88.75
811.127	-34.13
811.306	45.74
811.485	-42.32
811.664	41.64
811.843	39.59
812.022	23.21
812.201	0.68
812.38	-1.37
812.559	-66.9
812.737	53.93
812.916	-79.19
813.095	27.31
813.274	60.07
813.453	113.32
813.632	45.74
813.811	62.12
813.989	-75.09
814.168	29.35
814.347	-3.41
814.526	-23.89
814.704	129.7
814.883	109.23
815.062	-15.7
815.24	37.55
815.419	23.21
815.598	90.79
815.776	-40.28
815.955	27.31
816.133	-38.23
816.312	0.68
816.49	-56.66
816.669	55.98
816.847	23.21
817.026	94.89
817.204	-1.37
817.383	-17.75
817.561	31.4
817.74	47.79
817.918	33.45
818.097	-46.42
818.275	51.88
818.453	60.07
818.632	62.12
818.81	-48.47
818.988	-13.65
819.167	-17.75
819.345	2.73
819.523	-50.52
819.701	-38.23
819.879	-34.13
820.058	55.98
820.236	58.03
820.414	49.83
820.592	-9.56
820.77	6.83
820.948	-91.48
821.127	37.55
821.305	55.98
821.483	-38.23
821.661	129.7
821.839	-23.89
822.017	-21.84
822.195	-9.56
822.373	98.99
822.551	12.97
822.729	41.64
822.907	-66.9
823.085	156.33
823.262	49.83
823.44	43.69
823.618	-85.33
823.796	-27.99
823.974	6.83
824.152	-68.95
824.329	-19.8
824.507	68.27
824.685	27.31
824.863	27.31
825.04	15.02
825.218	37.55
825.396	78.51
825.574	39.59
825.751	64.17
825.929	185
826.107	-13.65
826.284	152.23
826.462	64.17
826.639	-13.65
826.817	-91.48
826.994	33.45
827.172	-103.76
827.349	148.14
827.527	17.07
827.704	-17.75
827.882	12.97
828.059	-25.94
828.237	-19.8
828.414	131.75
828.591	-60.76
828.769	10.92
828.946	-60.76
829.124	60.07
829.301	125.61
829.478	15.02
829.655	60.07
829.833	25.26
830.01	-66.9
830.187	74.41
830.364	31.4
830.542	66.22
830.719	176.81
830.896	131.75
831.073	109.23
831.25	70.31
831.427	111.27
831.604	21.16
831.782	-36.18
831.959	66.22
832.136	39.59
832.313	82.6
832.49	39.59
832.667	74.41
832.844	29.35
833.021	51.88
833.198	31.4
833.374	19.11
833.551	-15.7
833.728	33.45
833.905	51.88
834.082	-114
834.259	127.66
834.436	60.07
834.612	-36.18
834.789	-13.65
834.966	45.74
835.143	-27.99
835.319	-101.72
835.496	166.57
835.673	80.55
835.85	121.51
836.026	12.97
836.203	35.5
836.38	-9.56
836.556	33.45
836.733	33.45
836.909	156.33
837.086	19.11
837.262	-48.47
837.439	-25.94
837.616	0.68
837.792	25.26
837.968	49.83
838.145	-99.67
838.321	15.02
838.498	43.69
838.674	98.99
838.851	-36.18
839.027	47.79
839.203	27.31
839.38	45.74
839.556	41.64
839.732	60.07
839.909	-50.52
840.085	66.22
840.261	-73.04
840.437	60.07
840.614	10.92
840.79	66.22
840.966	66.22
841.142	80.55
841.318	43.69
841.494	76.46
841.671	4.78
841.847	-27.99
842.023	4.78
842.199	2.73
842.375	37.55
842.551	-83.28
842.727	2.73
842.903	170.66
843.079	-5.46
843.255	115.37
843.431	-21.84
843.607	62.12
843.783	-111.96
843.959	86.7
844.134	-73.04
844.31	160.42
844.486	-23.89
844.662	-60.76
844.838	88.75
845.013	17.07
845.189	121.51
845.365	51.88
845.541	4.78
845.716	68.27
845.892	121.51
846.068	37.55
846.244	47.79
846.419	0.68
846.595	-48.47
846.77	-27.99
846.946	-1.37
847.122	-71
847.297	-54.61
847.473	123.56
847.648	-124.24
847.824	45.74
847.999	-52.56
848.175	60.07
848.35	55.98
848.526	70.31
848.701	141.99
848.876	8.87
849.052	141.99
849.227	64.17
849.403	-23.89
849.578	49.83
849.753	-7.51
849.929	105.13
850.104	-17.75
850.279	37.55
850.454	82.6
850.63	19.11
850.805	41.64
850.98	49.83
851.155	39.59
851.33	125.61
851.505	-38.23
851.681	139.94
851.856	-34.13
852.031	70.31
852.206	12.97
852.381	2.73
852.556	2.73
852.731	98.99
852.906	82.6
853.081	-19.8
853.256	182.95
853.431	-13.65
853.606	-15.7
853.781	-25.94
853.956	-165.2
854.131	0.68
854.305	-42.32
854.48	8.87
854.655	-30.04
854.83	-40.28
855.005	53.93
855.18	15.02
855.354	55.98
855.529	70.31
855.704	0.68
855.879	31.4
856.053	-17.75
856.228	101.03
856.403	-9.56
856.577	23.21
856.752	-54.61
856.926	-11.61
857.101	2.73
857.276	-66.9
857.45	45.74
857.625	76.46
857.799	70.31
857.974	35.5
858.148	-36.18
858.323	82.6
858.497	82.6
858.672	39.59
858.846	-83.28
859.02	17.07
859.195	-42.32
859.369	-1.37
859.543	19.11
859.718	-54.61
859.892	0.68
860.066	39.59
860.241	-73.04
860.415	-3.41
860.589	-15.7
860.763	10.92
860.938	-19.8
861.112	41.64
861.286	-46.42
861.46	53.93
861.634	29.35
861.808	141.99
861.982	-85.33
862.157	-116.05
862.331	-19.8
862.505	-32.08
862.679	-62.8
862.853	-27.99
863.027	-7.51
863.201	115.37
863.375	12.97
863.549	43.69
863.722	4.78
863.896	144.04
864.07	88.75
864.244	43.69
864.418	12.97
864.592	-1.37
864.766	49.83
864.939	39.59
865.113	2.73
865.287	51.88
865.461	39.59
865.634	66.22
865.808	117.42
865.982	-23.89
866.156	-1.37
866.329	-85.33
866.503	-7.51
866.676	66.22
866.85	43.69
867.024	-3.41
867.197	92.84
867.371	37.55
867.544	45.74
867.718	-25.94
867.891	49.83
868.065	-66.9
868.238	33.45
868.412	84.65
868.585	2.73
868.759	-17.75
868.932	-54.61
869.105	-60.76
869.279	-1.37
869.452	-95.57
869.625	19.11
869.799	-54.61
869.972	-71
870.145	-34.13
870.319	70.31
870.492	-13.65
870.665	-17.75
870.838	-30.04
871.011	-54.61
871.185	-23.89
871.358	-17.75
871.531	25.26
871.704	-79.19
871.877	23.21
872.05	-1.37
872.223	-71
872.396	60.07
872.569	45.74
872.742	-85.33
872.915	-27.99
873.088	-17.75
873.261	-15.7
873.434	66.22
873.607	6.83
873.78	115.37
873.953	-167.25
874.126	31.4
874.299	70.31
874.471	-54.61
874.644	8.87
874.817	10.92
874.99	119.46
875.163	-9.56
875.335	-3.41
875.508	-44.37
875.681	96.94
875.853	-56.66
876.026	25.26
876.199	41.64
876.371	-25.94
876.544	21.16
876.717	53.93
876.889	-17.75
877.062	47.79
877.234	-9.56
877.407	27.31
877.579	-5.46
877.752	107.18
877.924	82.6
878.097	31.4
878.269	60.07
878.442	62.12
878.614	43.69
878.786	41.64
878.959	60.07
879.131	-15.7
879.303	-97.62
879.476	-111.96
879.648	84.65
879.82	33.45
879.993	-103.76
880.165	62.12
880.337	-68.95
880.509	74.41
880.681	-81.24
880.854	-13.65
881.026	51.88
881.198	160.42
881.37	17.07
881.542	0.68
881.714	49.83
881.886	12.97
882.058	29.35
882.23	35.5
882.402	17.07
882.574	-34.13
882.746	152.23
882.918	129.7
883.09	31.4
883.262	55.98
883.434	12.97
883.606	-9.56
883.778	-71
883.95	78.51
884.122	-58.71
884.293	141.99
884.465	35.5
884.637	31.4
884.809	-50.52
884.98	62.12
885.152	37.55
885.324	98.99
885.496	31.4
885.667	-83.28
885.839	-56.66
886.011	105.13
886.182	17.07
886.354	80.55
886.525	107.18
886.697	92.84
886.869	4.78
887.04	-9.56
887.212	109.23
887.383	121.51
887.555	10.92
887.726	-32.08
887.897	-9.56
888.069	21.16
888.24	62.12
888.412	43.69
888.583	43.69
888.754	47.79
888.926	-9.56
889.097	-23.89
889.268	-40.28
889.44	-13.65
889.611	-83.28
889.782	-42.32
889.953	15.02
890.125	148.14
890.296	10.92
890.467	17.07
890.638	-50.52
890.809	23.21
890.98	-30.04
891.151	-32.08
891.323	139.94
891.494	45.74
891.665	-27.99
891.836	55.98
892.007	-27.99
892.178	78.51
892.349	58.03
892.52	-5.46
892.691	33.45
892.862	-60.76
893.032	-58.71
893.203	0.68
893.374	17.07
893.545	113.32
893.716	45.74
893.887	146.09
894.057	35.5
894.228	-40.28
894.399	-34.13
894.57	94.89
894.74	-64.85
894.911	131.75
895.082	-36.18
895.253	-71
895.423	27.31
895.594	29.35
895.764	92.84
895.935	-64.85
896.106	12.97
896.276	-128.34
896.447	64.17
896.617	-87.38
896.788	25.26
896.958	12.97
897.129	25.26
897.299	-7.51
897.47	113.32
897.64	60.07
897.81	-5.46
897.981	-40.28
898.151	-36.18
898.322	6.83
898.492	72.36
898.662	-32.08
898.832	-17.75
899.003	-21.84
899.173	27.31
899.343	-52.56
899.513	2.73
