Data from USB4F104151__17__10-41-53-186.txt Node

Date: Wed Feb 26 10:41:53 EST 2025
User: louis
Spectrometer: USB4F10415
Trigger mode: 4
Integration Time (sec): 1.000000E-1
Scans to average: 1
Electric dark correction enabled: true
Nonlinearity correction enabled: false
Boxcar width: 0
XAxis mode: Wavelengths
Number of Pixels in Spectrum: 3648
>>>>>Begin Spectral Data<<<<<
178.204	-383.82
178.424	-383.82
178.644	-383.82
178.864	-449.36
179.084	-402.26
179.304	40.11
179.524	-45.91
179.744	-52.05
179.964	89.26
180.184	-11.09
180.404	70.83
180.624	-2.9
180.844	21.67
181.064	-50
181.283	-33.62
181.503	-68.44
181.723	42.15
181.943	-101.2
182.163	169.13
182.383	-39.76
182.602	7.34
182.822	197.8
183.042	31.91
183.262	-66.39
183.482	-103.25
183.701	-25.43
183.921	15.53
184.141	-47.96
184.361	83.11
184.58	146.6
184.8	46.25
185.02	1.19
185.239	25.77
185.459	52.39
185.679	126.12
185.898	-64.34
186.118	95.4
186.338	19.63
186.557	105.64
186.777	-90.96
186.997	-52.05
187.216	56.49
187.436	171.18
187.655	105.64
187.875	117.93
188.095	81.07
188.314	154.79
188.534	93.35
188.753	-72.53
188.973	187.56
189.192	138.41
189.412	-50
189.631	46.25
189.851	11.43
190.07	124.07
190.29	-11.09
190.509	27.82
190.729	23.72
190.948	156.84
191.168	138.41
191.387	105.64
191.607	-15.19
191.826	58.54
192.045	50.35
192.265	-23.38
192.484	52.39
192.704	11.43
192.923	-45.91
193.142	210.09
193.362	111.78
193.581	132.26
193.8	95.4
194.02	9.39
194.239	64.68
194.458	140.46
194.678	-4.95
194.897	-68.44
195.116	5.29
195.335	15.53
195.555	93.35
195.774	-29.52
195.993	27.82
196.212	-4.95
196.432	-80.72
196.651	5.29
196.87	-39.76
197.089	171.18
197.308	17.58
197.528	52.39
197.747	-97.11
197.966	23.72
198.185	83.11
198.404	-107.35
198.623	85.16
198.842	111.78
199.062	-11.09
199.281	140.46
199.5	-31.57
199.719	48.3
199.938	64.68
200.157	40.11
200.376	140.46
200.595	5.29
200.814	44.2
201.033	21.67
201.252	140.46
201.471	50.35
201.69	40.11
201.909	66.73
202.128	62.63
202.347	101.55
202.566	17.58
202.785	-45.91
203.004	-35.67
203.223	238.76
203.442	-19.29
203.661	-72.53
203.879	89.26
204.098	83.11
204.317	-62.29
204.536	76.97
204.755	54.44
204.974	99.5
205.193	54.44
205.411	62.63
205.63	81.07
205.849	79.02
206.068	-66.39
206.287	-23.38
206.505	85.16
206.724	76.97
206.943	-52.05
207.162	-54.1
207.381	64.68
207.599	31.91
207.818	7.34
208.037	-45.91
208.255	-0.85
208.474	72.87
208.693	74.92
208.911	-35.67
209.13	21.67
209.349	21.67
209.567	83.11
209.786	-0.85
210.005	105.64
210.223	11.43
210.442	-97.11
210.661	-7
210.879	91.31
211.098	60.59
211.316	46.25
211.535	17.58
211.753	21.67
211.972	142.5
212.191	62.63
212.409	-31.57
212.628	64.68
212.846	-66.39
213.065	50.35
213.283	103.59
213.502	74.92
213.72	70.83
213.938	27.82
214.157	13.48
214.375	101.55
214.594	58.54
214.812	119.98
215.031	58.54
215.249	17.58
215.467	38.06
215.686	122.02
215.904	105.64
216.122	29.87
216.341	154.79
216.559	97.45
216.778	115.88
216.996	179.37
217.214	-0.85
217.432	-17.24
217.651	56.49
217.869	-11.09
218.087	1.19
218.306	48.3
218.524	5.29
218.742	7.34
218.96	113.83
219.179	-39.76
219.397	-31.57
219.615	150.7
219.833	68.78
220.051	-47.96
220.27	87.21
220.488	95.4
220.706	58.54
220.924	-50
221.142	9.39
221.36	42.15
221.578	95.4
221.796	-35.67
222.015	-17.24
222.233	74.92
222.451	122.02
222.669	-70.48
222.887	25.77
223.105	-35.67
223.323	60.59
223.541	-11.09
223.759	70.83
223.977	70.83
224.195	79.02
224.413	99.5
224.631	40.11
224.849	3.24
225.067	201.9
225.285	-39.76
225.503	-45.91
225.721	-105.3
225.939	31.91
226.157	119.98
226.375	273.57
226.592	-105.3
226.81	-93.01
227.028	113.83
227.246	130.22
227.464	95.4
227.682	60.59
227.9	62.63
228.117	60.59
228.335	9.39
228.553	42.15
228.771	23.72
228.989	-13.14
229.206	62.63
229.424	5.29
229.642	-2.9
229.86	-4.95
230.077	117.93
230.295	40.11
230.513	95.4
230.731	58.54
230.948	150.7
231.166	162.98
231.384	-60.24
231.601	-43.86
231.819	152.74
232.037	5.29
232.254	-7
232.472	11.43
232.689	-9.05
232.907	150.7
233.125	-64.34
233.342	-4.95
233.56	-41.81
233.777	60.59
233.995	40.11
234.213	62.63
234.43	44.2
234.648	91.31
234.865	-41.81
235.083	17.58
235.3	54.44
235.518	62.63
235.735	111.78
235.953	115.88
236.17	42.15
236.388	17.58
236.605	31.91
236.822	87.21
237.04	58.54
237.257	-7
237.475	-29.52
237.692	1.19
237.909	70.83
238.127	-43.86
238.344	74.92
238.562	46.25
238.779	-125.78
238.996	-45.91
239.214	9.39
239.431	122.02
239.648	54.44
239.865	74.92
240.083	23.72
240.3	27.82
240.517	-41.81
240.735	79.02
240.952	58.54
241.169	72.87
241.386	95.4
241.603	-7
241.821	-66.39
242.038	70.83
242.255	83.11
242.472	-99.16
242.689	-2.9
242.907	46.25
243.124	107.69
243.341	31.91
243.558	-33.62
243.775	-74.58
243.992	-45.91
244.209	93.35
244.426	191.66
244.643	-7
244.86	25.77
245.078	60.59
245.295	70.83
245.512	-0.85
245.729	40.11
245.946	54.44
246.163	70.83
246.38	19.63
246.597	9.39
246.814	72.87
247.031	40.11
247.248	15.53
247.464	70.83
247.681	25.77
247.898	27.82
248.115	60.59
248.332	-52.05
248.549	58.54
248.766	160.94
248.983	113.83
249.2	36.01
249.417	181.42
249.633	-27.48
249.85	31.91
250.067	68.78
250.284	101.55
250.501	109.74
250.717	68.78
250.934	-33.62
251.151	-0.85
251.368	-25.43
251.585	-17.24
251.801	27.82
252.018	-33.62
252.235	146.6
252.451	-27.48
252.668	-2.9
252.885	85.16
253.102	33.96
253.318	21.67
253.535	-78.68
253.752	89.26
253.968	9.39
254.185	-31.57
254.401	58.54
254.618	38.06
254.835	-47.96
255.051	66.73
255.268	58.54
255.484	103.59
255.701	-33.62
255.917	52.39
256.134	-13.14
256.351	-4.95
256.567	-60.24
256.784	50.35
257	-60.24
257.217	169.13
257.433	36.01
257.65	19.63
257.866	74.92
258.082	-47.96
258.299	-4.95
258.515	64.68
258.732	48.3
258.948	-52.05
259.165	-7
259.381	-31.57
259.597	48.3
259.814	-25.43
260.03	-76.63
260.246	23.72
260.463	130.22
260.679	150.7
260.895	81.07
261.112	101.55
261.328	-7
261.544	-35.67
261.761	175.27
261.977	-39.76
262.193	-105.3
262.409	27.82
262.626	87.21
262.842	21.67
263.058	-29.52
263.274	54.44
263.49	17.58
263.707	66.73
263.923	58.54
264.139	-95.06
264.355	5.29
264.571	117.93
264.787	23.72
265.004	179.37
265.22	38.06
265.436	-13.14
265.652	79.02
265.868	107.69
266.084	-93.01
266.3	1.19
266.516	-43.86
266.732	48.3
266.948	13.48
267.164	52.39
267.38	3.24
267.596	50.35
267.812	177.32
268.028	83.11
268.244	48.3
268.46	122.02
268.676	-19.29
268.892	83.11
269.108	-74.58
269.324	-7
269.54	-58.2
269.756	93.35
269.972	-82.77
270.188	-7
270.403	-37.72
270.619	7.34
270.835	31.91
271.051	81.07
271.267	33.96
271.483	36.01
271.698	42.15
271.914	119.98
272.13	-23.38
272.346	25.77
272.562	-21.33
272.777	146.6
272.993	13.48
273.209	-17.24
273.425	89.26
273.64	-86.87
273.856	72.87
274.072	-37.72
274.287	-23.38
274.503	95.4
274.719	101.55
274.934	-11.09
275.15	-129.88
275.366	21.67
275.581	-70.48
275.797	-0.85
276.012	33.96
276.228	-29.52
276.444	11.43
276.659	160.94
276.875	50.35
277.09	31.91
277.306	1.19
277.521	54.44
277.737	38.06
277.952	23.72
278.168	44.2
278.383	-27.48
278.599	103.59
278.814	95.4
279.03	29.87
279.245	87.21
279.461	31.91
279.676	66.73
279.892	-99.16
280.107	-27.48
280.322	5.29
280.538	3.24
280.753	13.48
280.969	17.58
281.184	101.55
281.399	52.39
281.615	23.72
281.83	17.58
282.045	-88.92
282.26	-76.63
282.476	25.77
282.691	93.35
282.906	72.87
283.122	38.06
283.337	-58.2
283.552	101.55
283.767	56.49
283.983	42.15
284.198	46.25
284.413	36.01
284.628	-115.54
284.843	52.39
285.058	54.44
285.274	-35.67
285.489	-0.85
285.704	81.07
285.919	15.53
286.134	9.39
286.349	-23.38
286.564	-15.19
286.779	165.03
286.995	-2.9
287.21	-121.68
287.425	46.25
287.64	-21.33
287.855	36.01
288.07	-78.68
288.285	115.88
288.5	107.69
288.715	119.98
288.93	74.92
289.145	-50
289.36	113.83
289.575	-9.05
289.79	93.35
290.004	-23.38
290.219	191.66
290.434	-50
290.649	15.53
290.864	-33.62
291.079	27.82
291.294	-0.85
291.509	91.31
291.724	105.64
291.938	46.25
292.153	33.96
292.368	-27.48
292.583	101.55
292.798	33.96
293.012	70.83
293.227	29.87
293.442	-31.57
293.657	44.2
293.871	150.7
294.086	-13.14
294.301	273.57
294.516	93.35
294.73	15.53
294.945	-47.96
295.16	42.15
295.374	68.78
295.589	167.08
295.804	40.11
296.018	7.34
296.233	87.21
296.447	-15.19
296.662	-31.57
296.877	158.89
297.091	25.77
297.306	-4.95
297.52	13.48
297.735	83.11
297.949	21.67
298.164	117.93
298.378	122.02
298.593	23.72
298.807	-13.14
299.022	66.73
299.236	105.64
299.451	91.31
299.665	-11.09
299.88	3.24
300.094	17.58
300.309	-23.38
300.523	-41.81
300.737	-7
300.952	81.07
301.166	158.89
301.381	-19.29
301.595	-58.2
301.809	79.02
302.024	21.67
302.238	-2.9
302.452	142.5
302.667	3.24
302.881	109.74
303.095	113.83
303.309	50.35
303.524	-41.81
303.738	-0.85
303.952	48.3
304.166	50.35
304.381	-93.01
304.595	179.37
304.809	74.92
305.023	15.53
305.237	-11.09
305.452	-25.43
305.666	74.92
305.88	19.63
306.094	138.41
306.308	68.78
306.522	107.69
306.736	15.53
306.95	70.83
307.164	-0.85
307.379	5.29
307.593	103.59
307.807	107.69
308.021	36.01
308.235	115.88
308.449	-62.29
308.663	11.43
308.877	175.27
309.091	107.69
309.305	83.11
309.519	-119.64
309.733	101.55
309.947	1.19
310.161	89.26
310.374	138.41
310.588	99.5
310.802	-56.15
311.016	13.48
311.23	58.54
311.444	-19.29
311.658	-9.05
311.872	76.97
312.085	64.68
312.299	99.5
312.513	165.03
312.727	72.87
312.941	-9.05
313.154	76.97
313.368	11.43
313.582	-9.05
313.796	66.73
314.009	9.39
314.223	29.87
314.437	19.63
314.651	128.17
314.864	-13.14
315.078	-11.09
315.292	-60.24
315.505	-45.91
315.719	60.59
315.933	103.59
316.146	-29.52
316.36	48.3
316.573	64.68
316.787	66.73
317.001	-39.76
317.214	31.91
317.428	27.82
317.641	-31.57
317.855	-21.33
318.068	-2.9
318.282	-39.76
318.495	111.78
318.709	79.02
318.922	-7
319.136	146.6
319.349	150.7
319.563	27.82
319.776	66.73
319.99	-160.59
320.203	56.49
320.417	46.25
320.63	87.21
320.843	185.51
321.057	60.59
321.27	93.35
321.483	56.49
321.697	165.03
321.91	62.63
322.124	46.25
322.337	76.97
322.55	-37.72
322.763	38.06
322.977	1.19
323.19	-33.62
323.403	-17.24
323.617	-9.05
323.83	95.4
324.043	46.25
324.256	93.35
324.469	-21.33
324.683	148.65
324.896	38.06
325.109	50.35
325.322	-45.91
325.535	134.31
325.748	113.83
325.962	-76.63
326.175	128.17
326.388	29.87
326.601	117.93
326.814	33.96
327.027	21.67
327.24	144.55
327.453	-78.68
327.666	50.35
327.879	152.74
328.092	81.07
328.305	138.41
328.518	-23.38
328.731	-13.14
328.944	19.63
329.157	31.91
329.37	44.2
329.583	148.65
329.796	95.4
330.009	-15.19
330.222	-19.29
330.435	68.78
330.648	21.67
330.861	74.92
331.073	91.31
331.286	74.92
331.499	36.01
331.712	-41.81
331.925	-50
332.138	-31.57
332.35	62.63
332.563	5.29
332.776	76.97
332.989	-76.63
333.202	-41.81
333.414	46.25
333.627	40.11
333.84	29.87
334.053	68.78
334.265	66.73
334.478	-45.91
334.691	46.25
334.903	33.96
335.116	-78.68
335.329	11.43
335.541	79.02
335.754	132.26
335.966	1.19
336.179	40.11
336.392	33.96
336.604	15.53
336.817	48.3
337.029	31.91
337.242	36.01
337.454	76.97
337.667	33.96
337.88	101.55
338.092	103.59
338.305	99.5
338.517	54.44
338.729	50.35
338.942	91.31
339.154	-19.29
339.367	7.34
339.579	76.97
339.792	-41.81
340.004	107.69
340.217	9.39
340.429	3.24
340.641	-117.59
340.854	11.43
341.066	-37.72
341.278	169.13
341.491	156.84
341.703	48.3
341.915	-17.24
342.128	60.59
342.34	-11.09
342.552	-7
342.764	60.59
342.977	-47.96
343.189	68.78
343.401	60.59
343.613	-115.54
343.826	-15.19
344.038	5.29
344.25	1.19
344.462	-31.57
344.674	44.2
344.886	19.63
345.099	150.7
345.311	7.34
345.523	33.96
345.735	-80.72
345.947	-9.05
346.159	29.87
346.371	-9.05
346.583	3.24
346.795	255.14
347.007	-21.33
347.219	91.31
347.431	11.43
347.643	33.96
347.855	-84.82
348.067	142.5
348.279	-13.14
348.491	11.43
348.703	130.22
348.915	19.63
349.127	17.58
349.339	25.77
349.551	33.96
349.763	124.07
349.975	23.72
350.187	74.92
350.399	138.41
350.61	54.44
350.822	-25.43
351.034	97.45
351.246	95.4
351.458	76.97
351.669	81.07
351.881	9.39
352.093	117.93
352.305	97.45
352.517	74.92
352.728	201.9
352.94	-2.9
353.152	126.12
353.363	-31.57
353.575	38.06
353.787	175.27
353.999	103.59
354.21	97.45
354.422	-80.72
354.633	48.3
354.845	17.58
355.057	74.92
355.268	83.11
355.48	93.35
355.692	-31.57
355.903	-15.19
356.115	-45.91
356.326	5.29
356.538	208.04
356.749	58.54
356.961	154.79
357.172	-23.38
357.384	-17.24
357.595	240.81
357.807	-84.82
358.018	-109.4
358.23	46.25
358.441	136.36
358.653	81.07
358.864	-25.43
359.075	-66.39
359.287	27.82
359.498	105.64
359.709	-25.43
359.921	-37.72
360.132	97.45
360.344	66.73
360.555	-9.05
360.766	21.67
360.977	-0.85
361.189	111.78
361.4	15.53
361.611	85.16
361.823	158.89
362.034	48.3
362.245	-136.02
362.456	-13.14
362.667	31.91
362.879	11.43
363.09	87.21
363.301	33.96
363.512	48.3
363.723	-25.43
363.935	-56.15
364.146	48.3
364.357	25.77
364.568	5.29
364.779	-64.34
364.99	99.5
365.201	-4.95
365.412	144.55
365.623	-62.29
365.834	66.73
366.045	38.06
366.256	-9.05
366.467	46.25
366.678	-39.76
366.889	27.82
367.1	3.24
367.311	62.63
367.522	31.91
367.733	74.92
367.944	25.77
368.155	-13.14
368.366	81.07
368.577	140.46
368.788	169.13
368.999	-54.1
369.209	25.77
369.42	148.65
369.631	263.33
369.842	97.45
370.053	-90.96
370.264	74.92
370.474	-72.53
370.685	66.73
370.896	103.59
371.107	132.26
371.317	48.3
371.528	50.35
371.739	113.83
371.95	21.67
372.16	85.16
372.371	-33.62
372.582	9.39
372.792	33.96
373.003	44.2
373.214	3.24
373.424	38.06
373.635	-80.72
373.846	105.64
374.056	44.2
374.267	103.59
374.477	66.73
374.688	-15.19
374.898	50.35
375.109	38.06
375.319	-39.76
375.53	126.12
375.74	70.83
375.951	27.82
376.161	-27.48
376.372	132.26
376.582	68.78
376.793	165.03
377.003	-76.63
377.214	-17.24
377.424	72.87
377.635	7.34
377.845	15.53
378.055	111.78
378.266	-50
378.476	68.78
378.686	19.63
378.897	52.39
379.107	130.22
379.317	48.3
379.528	13.48
379.738	70.83
379.948	-39.76
380.158	85.16
380.369	62.63
380.579	48.3
380.789	89.26
380.999	115.88
381.21	76.97
381.42	189.61
381.63	9.39
381.84	165.03
382.05	46.25
382.261	70.83
382.471	119.98
382.681	54.44
382.891	144.55
383.101	64.68
383.311	-66.39
383.521	-37.72
383.731	91.31
383.941	87.21
384.151	31.91
384.361	58.54
384.571	21.67
384.781	31.91
384.991	185.51
385.201	99.5
385.411	165.03
385.621	38.06
385.831	44.2
386.041	44.2
386.251	1.19
386.461	19.63
386.671	36.01
386.881	64.68
387.091	17.58
387.301	68.78
387.511	17.58
387.72	95.4
387.93	-74.58
388.14	-86.87
388.35	42.15
388.56	144.55
388.769	107.69
388.979	7.34
389.189	-84.82
389.399	113.83
389.609	95.4
389.818	109.74
390.028	42.15
390.238	115.88
390.447	-31.57
390.657	122.02
390.867	-17.24
391.076	-60.24
391.286	113.83
391.496	-25.43
391.705	60.59
391.915	173.22
392.125	103.59
392.334	50.35
392.544	122.02
392.753	50.35
392.963	-37.72
393.172	36.01
393.382	13.48
393.591	113.83
393.801	-9.05
394.01	122.02
394.22	87.21
394.429	56.49
394.639	33.96
394.848	9.39
395.058	52.39
395.267	21.67
395.477	107.69
395.686	60.59
395.895	226.47
396.105	191.66
396.314	42.15
396.524	54.44
396.733	66.73
396.942	103.59
397.152	58.54
397.361	97.45
397.57	115.88
397.78	9.39
397.989	72.87
398.198	144.55
398.407	23.72
398.617	40.11
398.826	107.69
399.035	-15.19
399.244	138.41
399.453	46.25
399.663	25.77
399.872	36.01
400.081	-107.35
400.29	185.51
400.499	-70.48
400.708	111.78
400.917	-19.29
401.127	3.24
401.336	1.19
401.545	238.76
401.754	74.92
401.963	93.35
402.172	46.25
402.381	-66.39
402.59	93.35
402.799	25.77
403.008	103.59
403.217	83.11
403.426	56.49
403.635	-17.24
403.844	81.07
404.053	48.3
404.262	40.11
404.471	199.85
404.68	64.68
404.888	-11.09
405.097	117.93
405.306	25.77
405.515	74.92
405.724	-29.52
405.933	142.5
406.142	60.59
406.35	156.84
406.559	-4.95
406.768	13.48
406.977	105.64
407.185	27.82
407.394	169.13
407.603	-70.48
407.812	119.98
408.02	89.26
408.229	109.74
408.438	17.58
408.646	-0.85
408.855	13.48
409.064	132.26
409.272	13.48
409.481	101.55
409.69	5.29
409.898	-74.58
410.107	134.31
410.315	138.41
410.524	5.29
410.733	85.16
410.941	64.68
411.15	19.63
411.358	54.44
411.567	128.17
411.775	40.11
411.984	134.31
412.192	68.78
412.401	111.78
412.609	132.26
412.818	89.26
413.026	36.01
413.234	31.91
413.443	54.44
413.651	38.06
413.86	70.83
414.068	68.78
414.276	97.45
414.485	36.01
414.693	101.55
414.901	160.94
415.11	7.34
415.318	52.39
415.526	54.44
415.734	93.35
415.943	56.49
416.151	68.78
416.359	11.43
416.567	60.59
416.776	91.31
416.984	113.83
417.192	181.42
417.4	52.39
417.608	58.54
417.817	52.39
418.025	113.83
418.233	158.89
418.441	3.24
418.649	-76.63
418.857	-4.95
419.065	144.55
419.273	89.26
419.481	52.39
419.689	-9.05
419.897	44.2
420.105	-64.34
420.313	66.73
420.521	52.39
420.729	91.31
420.937	33.96
421.145	58.54
421.353	105.64
421.561	117.93
421.769	42.15
421.977	-4.95
422.185	124.07
422.393	29.87
422.601	126.12
422.809	42.15
423.017	64.68
423.224	107.69
423.432	183.46
423.64	36.01
423.848	79.02
424.056	-27.48
424.263	117.93
424.471	27.82
424.679	132.26
424.887	-17.24
425.094	146.6
425.302	158.89
425.51	44.2
425.718	130.22
425.925	5.29
426.133	-43.86
426.341	271.53
426.548	1.19
426.756	25.77
426.964	79.02
427.171	1.19
427.379	64.68
427.586	56.49
427.794	97.45
428.001	177.32
428.209	93.35
428.417	191.66
428.624	107.69
428.832	150.7
429.039	85.16
429.247	93.35
429.454	122.02
429.662	210.09
429.869	52.39
430.076	66.73
430.284	105.64
430.491	212.14
430.699	113.83
430.906	218.28
431.114	93.35
431.321	208.04
431.528	134.31
431.736	154.79
431.943	124.07
432.15	160.94
432.358	216.23
432.565	271.53
432.772	-25.43
432.979	220.33
433.187	132.26
433.394	296.1
433.601	152.74
433.808	296.1
434.016	203.94
434.223	257.19
434.43	205.99
434.637	326.82
434.844	306.34
435.052	208.04
435.259	324.77
435.466	292.01
435.673	267.43
435.88	222.38
436.087	394.4
436.294	382.12
436.501	330.92
436.708	249
436.915	326.82
437.122	421.03
437.329	310.44
437.537	326.82
437.743	359.59
437.95	455.84
438.157	418.98
438.364	384.16
438.571	400.55
438.778	525.47
438.985	609.44
439.192	502.95
439.399	486.56
439.606	517.28
439.813	627.87
440.02	679.07
440.227	732.32
440.433	613.54
440.64	619.68
440.847	574.63
441.054	664.74
441.261	785.57
441.467	646.3
441.674	646.3
441.881	789.66
442.088	752.8
442.294	804
442.501	871.58
442.708	881.82
442.914	861.34
443.121	935.07
443.328	963.74
443.534	1012.89
443.741	1162.39
443.948	1051.8
444.154	1092.76
444.361	1254.55
444.568	1066.14
444.774	1217.69
444.981	1057.95
445.187	1422.48
445.394	1381.53
445.6	1320.09
445.807	1490.07
446.013	1502.36
446.22	1420.44
446.426	1655.95
446.633	1733.78
446.839	1905.81
447.046	1686.67
447.252	1991.82
447.459	1914
447.665	1797.26
447.871	2083.98
448.078	2163.85
448.284	2192.52
448.491	2333.83
448.697	2428.04
448.903	2499.72
449.11	2456.71
449.316	2505.86
449.522	2630.79
449.728	2894.97
449.935	2841.73
450.141	3001.47
450.347	3232.89
450.553	3089.53
450.76	3255.42
450.966	3435.64
451.172	3546.23
451.378	3677.3
451.584	3636.34
451.791	4088.94
451.997	4013.17
452.203	4121.71
452.409	4351.08
452.615	4465.77
452.821	4359.27
453.027	4445.29
453.233	5076.06
453.44	4775.01
453.646	5184.6
453.852	5317.72
454.058	5547.09
454.264	5702.74
454.47	6286.41
454.676	6100.05
454.882	6612.04
455.088	6296.65
455.294	6675.52
455.5	7273.53
455.705	7568.44
455.911	7572.54
456.117	7779.38
456.323	8012.85
456.529	8158.25
456.735	8750.12
456.941	9233.44
457.147	9374.75
457.352	9663.51
457.558	9866.26
457.764	10562.57
457.97	10724.36
458.176	11191.3
458.381	11516.92
458.587	12188.66
458.793	12624.87
458.999	12506.09
459.204	14177.23
459.41	14474.19
459.616	14134.23
459.821	15238.08
460.027	15690.68
460.233	16763.82
460.438	16634.8
460.644	17664.93
460.85	17941.4
461.055	18736.01
461.261	19336.07
461.466	19069.83
461.672	19223.43
461.878	21680.99
462.083	21609.31
462.289	22031.19
462.494	22799.18
462.7	22725.46
462.905	23176.01
463.111	25064.24
463.316	26503.96
463.522	27108.11
463.727	27534.09
463.932	28904.18
464.138	29551.34
464.343	30733.01
464.549	30900.95
464.754	33229.49
464.959	33776.3
465.165	34478.75
465.37	34421.41
465.575	34716.31
465.781	36539.01
465.986	37917.29
466.191	37288.56
466.397	37372.53
466.602	36751.99
466.807	38552.16
467.012	39205.46
467.218	40186.44
467.423	40090.18
467.628	41884.2
467.833	43416.08
468.038	42201.64
468.244	41910.83
468.449	43964.94
468.654	42887.71
468.859	42928.67
469.064	43356.69
469.269	42189.35
469.474	42121.77
469.679	43549.2
469.885	42172.97
470.09	42840.6
470.295	43080.22
470.5	42162.73
470.705	42193.45
470.91	41601.58
471.115	40925.75
471.32	41450.03
471.525	41155.13
471.73	40026.7
471.935	39432.78
472.139	38339.17
472.344	38543.97
472.549	38019.69
472.754	37350
472.959	36498.05
473.164	35723.91
473.369	34871.96
473.574	35926.66
473.778	35043.99
473.983	34857.62
474.188	34003.62
474.393	32305.85
474.598	32254.65
474.802	31773.38
475.007	31503.05
475.212	30954.19
475.417	29485.8
475.621	29479.66
475.826	29278.96
476.031	28392.19
476.235	27804.42
476.44	27755.27
476.645	27198.22
476.849	26411.8
477.054	26506.01
477.259	25725.73
477.463	25910.05
477.668	24955.69
477.872	25047.85
478.077	24105.79
478.282	23755.58
478.486	23456.58
478.691	23128.91
478.895	23085.9
479.1	22735.7
479.304	22723.41
479.509	21980
479.713	22082.39
479.918	21410.66
480.122	21148.52
480.326	21545.83
480.531	21457.76
480.735	21197.67
480.94	20732.78
481.144	21554.02
481.348	20366.2
481.553	20480.88
481.757	19727.23
481.961	20167.54
482.166	20331.38
482.37	20061.05
482.574	19501.95
482.778	19563.39
482.983	19698.56
483.187	19440.51
483.391	19155.85
483.595	18764.68
483.8	18598.8
484.004	18762.64
484.208	18619.28
484.412	18299.8
484.616	18248.6
484.821	18111.38
485.025	17355.68
485.229	17707.93
485.433	17216.42
485.637	17185.7
485.841	16853.93
486.045	16786.35
486.249	16444.34
486.453	16026.55
486.657	16077.75
486.861	15834.04
487.065	15276.99
487.269	15287.23
487.473	14556.11
487.677	15037.38
487.881	14801.86
488.085	14201.81
488.289	14226.39
488.493	13663.19
488.697	13812.7
488.901	13495.26
489.105	13214.69
489.309	13061.09
489.512	12663.79
489.716	12620.78
489.92	12233.71
490.124	12033.01
490.328	11934.71
490.531	11680.76
490.735	11516.92
490.939	11363.33
491.143	10886.15
491.346	10961.92
491.55	10986.5
491.754	10601.48
491.958	10513.42
492.161	10218.51
492.365	10185.74
492.569	9913.36
492.772	9665.56
492.976	9716.76
493.18	9587.74
493.383	9497.63
493.587	9294.88
493.79	9434.14
493.994	8993.83
494.197	8778.79
494.401	8993.83
494.605	8432.68
494.808	8995.87
495.012	8678.44
495.215	8807.46
495.419	8592.42
495.622	8440.87
495.825	8377.39
496.029	8213.55
496.232	8397.87
496.436	8217.65
496.639	8518.7
496.843	8457.26
497.046	8191.02
497.249	8412.2
497.453	8498.22
497.656	8152.11
497.859	8158.25
498.063	8434.73
498.266	8422.44
498.469	8305.71
498.673	8244.27
498.876	8422.44
499.079	8299.56
499.282	8389.67
499.485	8817.7
499.689	8707.11
499.892	8948.77
500.095	8455.21
500.298	8672.29
500.501	8555.56
500.705	8719.4
500.908	8758.31
501.111	8737.83
501.314	9225.25
501.517	9045.02
501.72	9241.63
501.923	9327.64
502.126	9421.85
502.329	9612.31
502.532	9600.02
502.735	9602.07
502.938	9757.72
503.141	9982.99
503.344	9847.83
503.547	10081.3
503.75	10298.38
503.953	10568.71
504.156	10599.43
504.359	10765.32
504.562	10527.75
504.765	11072.51
504.968	11201.54
505.17	11385.85
505.373	11443.2
505.576	11629.56
505.779	11734.01
505.982	11973.62
506.185	12286.96
506.387	12327.92
506.59	12948.45
506.793	12891.11
506.996	12868.58
507.198	13382.62
507.401	13511.64
507.604	13859.8
507.807	14185.43
508.009	14289.87
508.212	14552.01
508.415	14736.33
508.617	15360.96
508.82	15508.41
509.022	15412.16
509.225	16128.95
509.428	16268.21
509.63	16421.81
509.833	16864.17
510.035	17646.49
510.238	17879.96
510.44	17990.55
510.643	18596.75
510.845	19151.75
511.048	19434.37
511.25	19573.63
511.453	19901.31
511.655	21244.77
511.858	20892.52
512.06	21644.13
512.262	21660.51
512.465	22305.62
512.667	22952.78
512.87	23814.98
513.072	23814.98
513.274	24630.07
513.477	24935.21
513.679	25580.32
513.881	26147.61
514.084	26960.66
514.286	27020.05
514.488	27804.42
514.69	28986.1
514.893	29174.51
515.095	29606.63
515.297	30587.61
515.499	30778.07
515.701	31851.2
515.904	32197.31
516.106	33024.69
516.308	33403.56
516.51	34163.36
516.712	34949.78
516.914	35383.95
517.116	36180.61
517.318	36680.31
517.52	37585.52
517.722	37767.79
517.925	38892.12
518.127	39473.74
518.329	39940.68
518.531	40217.16
518.733	41230.9
518.935	41990.7
519.136	42553.89
519.338	43199
519.54	44005.9
519.742	44782.08
519.944	44671.49
520.146	45926.89
520.348	46578.15
520.55	46914.01
520.752	47311.32
520.954	48327.11
521.155	47837.65
521.357	48869.82
521.559	49836.47
521.761	50270.64
521.963	49930.67
522.164	51153.31
522.366	51462.55
522.568	52042.13
522.77	52431.24
522.971	52894.08
523.173	52599.18
523.375	53440.89
523.576	53375.36
523.778	53942.64
523.98	54176.11
524.181	54626.67
524.383	54262.13
524.584	55191.9
524.786	54514.03
524.988	54286.7
525.189	54727.02
525.391	54899.04
525.592	55034.21
525.794	55105.89
525.995	55091.55
526.197	54944.1
526.398	54600.04
526.6	54962.53
526.801	54712.68
527.003	54376.81
527.204	54774.12
527.406	54804.84
527.607	53963.12
527.808	54413.68
528.01	52666.76
528.211	53440.89
528.412	53524.86
528.614	53098.88
528.815	52525.45
529.016	52533.64
529.218	51583.38
529.419	51616.15
529.62	50977.18
529.822	50346.41
530.023	50297.26
530.224	49818.03
530.425	49054.14
530.626	48310.73
530.828	48101.84
531.029	48818.63
531.23	46995.93
531.431	46596.58
531.632	46320.1
531.833	45875.69
532.035	45318.65
532.236	44616.19
532.437	44667.39
532.638	44022.28
532.839	43688.46
533.04	42768.93
533.241	41529.9
533.442	41941.55
533.643	41157.17
533.844	40364.61
534.045	40411.71
534.246	39303.76
534.447	38976.09
534.648	38670.94
534.849	37878.38
535.05	37517.93
535.251	36774.52
535.451	36334.21
535.652	36076.16
535.853	35553.93
536.054	35019.41
536.255	34792.09
536.456	33675.94
536.657	33845.93
536.857	32877.24
537.058	32639.67
537.259	32144.06
537.46	31959.75
537.66	31613.64
537.861	31021.78
538.062	30282.46
538.263	30135.01
538.463	29518.57
538.664	29467.37
538.865	29192.94
539.065	28891.89
539.266	28261.12
539.466	28023.55
539.667	27435.78
539.868	27912.96
540.068	27151.12
540.269	26575.64
540.469	26540.82
540.67	26168.09
540.87	25768.74
541.071	25518.89
541.271	25332.52
541.472	25160.49
541.672	24841.01
541.873	24017.72
542.073	23751.49
542.274	23855.93
542.474	23563.08
542.675	23040.84
542.875	23216.97
543.075	22569.81
543.276	22018.91
543.476	22444.88
543.676	22088.54
543.877	22025.05
544.077	21539.68
544.277	21394.28
544.478	21001.07
544.678	20972.39
544.878	20454.26
545.078	20071.29
545.279	19932.03
545.479	19866.49
545.679	19942.27
545.879	19430.27
546.079	19411.84
546.28	18918.28
546.48	18697.1
546.68	18678.67
546.88	18525.07
547.08	18181.01
547.28	17990.55
547.48	17681.31
547.68	17402.79
547.88	17279.91
548.081	17056.68
548.281	16632.75
548.481	16737.2
548.681	16505.77
548.881	16219.06
549.081	16028.6
549.28	15786.94
549.48	15541.18
549.68	15436.74
549.88	15219.65
550.08	14736.33
550.28	14808.01
550.48	14668.75
550.68	14408.65
550.88	14203.86
551.08	13820.89
551.279	14080.98
551.479	13751.26
551.679	13579.23
551.879	12891.11
552.079	12989.41
552.278	12626.92
552.478	12725.22
552.678	12415.98
552.878	12506.09
553.077	12037.11
553.277	11727.86
553.477	11873.27
553.676	11504.64
553.876	11285.5
554.076	11203.58
554.275	11140.1
554.475	10667.02
554.674	10613.77
554.874	10662.92
555.074	10282
555.273	10271.76
555.473	10183.7
555.672	9735.19
555.872	9942.03
556.071	9679.89
556.271	9407.52
556.47	9180.19
556.67	9231.39
556.869	8875.04
557.068	8746.02
557.268	8637.48
557.467	8614.95
557.667	8326.19
557.866	8203.31
558.065	7953.46
558.265	8016.94
558.464	7658.55
558.663	7724.08
558.863	7566.39
559.062	7670.84
559.261	7447.61
559.461	7222.33
559.66	7146.56
559.859	6915.14
560.058	6956.1
560.258	6765.64
560.457	6581.32
560.656	6720.58
560.855	6321.23
561.054	6470.73
561.253	6200.4
561.453	6186.06
561.652	6065.23
561.851	6120.53
562.05	5985.36
562.249	5743.7
562.448	5782.61
562.647	5438.55
562.846	5581.91
563.045	5526.61
563.244	5274.71
563.443	5344.35
563.642	5186.65
563.841	5168.22
564.04	5057.63
564.239	4951.14
564.438	4871.26
564.637	4609.12
564.836	4684.9
565.035	4744.29
565.234	4654.18
565.432	4586.6
565.631	4529.25
565.83	4387.94
566.029	4398.18
566.228	4441.19
566.427	4191.34
566.625	4090.99
566.824	4211.82
567.023	4019.31
567.222	3873.9
567.42	4068.46
567.619	3961.97
567.818	3982.45
568.016	3980.4
568.215	3816.56
568.414	3689.59
568.612	3681.39
568.811	3593.33
569.01	3517.56
569.208	3318.9
569.407	3507.32
569.605	3406.97
569.804	3376.25
570.002	3218.55
570.201	3267.7
570.4	3218.55
570.598	3183.74
570.797	3099.77
570.995	3040.38
571.193	2991.23
571.392	3097.72
571.59	2974.85
571.789	2878.59
571.987	2858.11
572.186	2868.35
572.384	2821.25
572.582	2698.37
572.781	2776.19
572.979	2464.9
573.177	2606.21
573.376	2499.72
573.574	2608.26
573.772	2473.09
573.971	2360.45
574.169	2311.3
574.367	2432.13
574.565	2311.3
574.763	2288.78
574.962	2192.52
575.16	2077.83
575.358	2077.83
575.556	2098.31
575.754	2077.83
575.952	2049.16
576.151	2112.65
576.349	2034.83
576.547	1815.69
576.745	2024.59
576.943	1918.09
577.141	1885.33
577.339	1817.74
577.537	1813.65
577.735	1782.93
577.933	1655.95
578.131	1711.25
578.329	1842.32
578.527	1590.42
578.725	1717.39
578.923	1557.65
579.121	1649.81
579.319	1569.94
579.516	1514.64
579.714	1721.49
579.912	1520.79
580.11	1500.31
580.308	1432.72
580.506	1477.78
580.704	1219.74
580.901	1336.47
581.099	1455.25
581.297	1356.95
581.495	1416.34
581.692	1320.09
581.89	1467.54
582.088	1311.89
582.285	1297.56
582.483	1242.26
582.681	1178.78
582.878	1143.96
583.076	1209.5
583.274	1100.95
583.471	1289.37
583.669	1082.52
583.866	978.08
584.064	1184.92
584.262	1019.04
584.459	1029.27
584.657	1019.04
584.854	1096.86
585.052	1123.48
585.249	916.64
585.447	1053.85
585.644	885.92
585.841	1109.15
586.039	998.56
586.236	1008.8
586.434	933.02
586.631	859.29
586.828	828.57
587.026	1010.84
587.223	830.62
587.42	775.33
587.618	898.2
587.815	1006.75
588.012	853.15
588.21	824.48
588.407	887.97
588.604	892.06
588.801	842.91
588.999	810.14
589.196	902.3
589.393	740.51
589.59	896.16
589.787	756.9
589.984	773.28
590.182	838.81
590.379	691.36
590.576	758.94
590.773	763.04
590.97	724.13
591.167	799.9
591.364	734.37
591.561	701.6
591.758	818.33
591.955	736.42
592.152	777.37
592.349	660.64
592.546	683.17
592.743	693.41
592.94	740.51
593.137	689.31
593.334	818.33
593.531	748.7
593.727	779.42
593.924	830.62
594.121	711.84
594.318	752.8
594.515	693.41
594.712	877.73
594.908	808.09
595.105	701.6
595.302	758.94
595.499	828.57
595.696	920.73
595.892	754.85
596.089	857.25
596.286	791.71
596.482	900.25
596.679	879.77
596.876	906.4
597.072	1014.94
597.269	859.29
597.466	898.2
597.662	908.44
597.859	971.93
598.055	1088.67
598.252	1027.23
598.448	1156.25
598.645	1238.17
598.841	1219.74
599.038	1389.72
599.234	1383.57
599.431	1428.63
599.627	1311.89
599.824	1369.24
600.02	1375.38
600.217	1586.32
600.413	1481.88
600.609	1608.85
600.806	1891.47
601.002	1692.82
601.198	1780.88
601.395	1969.29
601.591	2026.64
601.787	2073.74
601.984	2145.42
602.18	2176.14
602.376	2231.43
602.572	2405.51
602.769	2559.11
602.965	2520.2
603.161	2718.85
603.357	2747.52
603.553	2901.12
603.75	2851.97
603.946	2985.09
604.142	3185.79
604.338	3279.99
604.534	3228.79
604.73	3376.25
604.926	3417.21
605.122	3677.3
605.318	3753.07
605.514	3898.48
605.71	3906.67
605.906	4131.95
606.102	4279.4
606.298	4533.35
606.494	4559.97
606.69	4793.44
606.886	4695.14
607.082	4875.36
607.278	5205.08
607.474	5219.42
607.67	5422.17
607.866	5301.34
608.062	5667.92
608.257	5641.3
608.453	5788.75
608.649	6114.38
608.845	6065.23
609.041	6548.55
609.236	6714.44
609.432	6728.77
609.628	7103.55
609.824	7091.26
610.019	7359.55
610.215	7296.06
610.411	7869.49
610.606	8016.94
610.802	8211.5
610.998	8262.7
611.193	8737.83
611.389	8891.43
611.584	9081.89
611.78	9311.26
611.976	9526.3
612.171	9954.32
612.367	9849.88
612.562	10136.59
612.758	10454.03
612.953	10603.53
613.149	11174.91
613.344	11435
613.539	11647.99
613.735	12194.8
613.93	12217.33
614.126	12284.91
614.321	12968.93
614.517	13165.54
614.712	13761.5
614.907	14091.22
615.103	14322.64
615.298	14547.92
615.493	15137.73
615.688	15180.74
615.884	15897.53
616.079	15875
616.274	16968.62
616.47	17028.01
616.665	17406.88
616.86	17691.55
617.055	18453.39
617.25	18430.87
617.445	19168.13
617.641	19293.06
617.836	20384.63
618.031	20259.7
618.226	21111.66
618.421	21574.5
618.616	22471.51
618.811	22596.43
619.006	23405.38
619.201	23427.91
619.396	23960.38
619.591	24390.45
619.786	25426.73
619.981	25449.25
620.176	26407.7
620.371	26743.57
620.566	27421.45
620.761	27869.95
620.956	28814.07
621.151	28828.4
621.346	29338.35
621.541	29930.21
621.735	30997.2
621.93	30845.65
622.125	31713.99
622.32	32045.76
622.515	33122.99
622.709	33462.96
622.904	33960.61
623.099	34321.05
623.294	35195.54
623.488	35394.19
623.683	36461.18
623.878	36409.98
624.072	37472.88
624.267	38023.78
624.462	38423.14
624.656	39307.86
624.851	39666.25
625.046	40374.85
625.24	40747.58
625.435	41019.96
625.629	41982.51
625.824	42568.23
626.018	43039.26
626.213	42529.31
626.407	43641.36
626.602	43659.79
626.796	44708.35
626.991	45234.68
627.185	45408.76
627.38	45691.38
627.574	45711.86
627.768	46047.72
627.963	46070.25
628.157	46340.58
628.352	46617.06
628.546	45976.05
628.74	46768.61
628.935	46526.95
629.129	46934.49
629.323	46256.62
629.517	45994.48
629.712	45789.68
629.906	45881.84
630.1	45087.23
630.294	44890.62
630.489	44104.2
630.683	44280.33
630.877	42674.72
631.071	42187.3
631.265	41239.09
631.459	40876.6
631.653	39965.26
631.848	39438.93
632.042	38027.88
632.236	37798.51
632.43	36534.91
632.624	35732.11
632.818	34411.17
633.012	33112.75
633.206	32316.09
633.4	31480.52
633.594	30214.88
633.788	29170.41
633.982	28427
634.176	27235.08
634.369	26084.12
634.563	25383.72
634.757	24093.5
634.951	23534.4
635.145	22770.51
635.339	21711.71
635.533	20751.21
635.726	19856.25
635.92	19205
636.114	18334.61
636.308	17619.87
636.501	17111.97
636.695	16415.66
636.889	15803.32
637.083	14769.1
637.276	14083.03
637.47	13601.76
637.664	13401.05
637.857	12569.58
638.051	12219.38
638.244	11832.31
638.438	11172.86
638.632	10998.79
638.825	10097.68
639.019	9888.79
639.212	9296.92
639.406	9167.9
639.599	8965.15
639.793	8340.52
639.986	8086.58
640.18	7978.03
640.373	7539.77
640.567	7203.9
640.76	7011.39
640.954	6620.23
641.147	6452.3
641.34	6009.93
641.534	5966.93
641.727	5856.34
641.92	5467.22
642.114	5375.06
642.307	5145.69
642.5	4961.37
642.694	4770.91
642.887	4521.06
643.08	4480.1
643.273	4318.31
643.467	3923.05
643.66	3939.44
643.853	3622
644.046	3593.33
644.239	3437.69
644.432	3320.95
644.626	3099.77
644.819	3032.19
645.012	2925.69
645.205	2892.93
645.398	2815.1
645.591	2673.79
645.784	2374.79
645.977	2323.59
646.17	2329.74
646.363	2272.39
646.556	2040.97
646.749	2081.93
646.942	1991.82
647.135	1961.1
647.328	1907.85
647.521	1756.3
647.714	1758.35
647.907	1807.5
648.099	1569.94
648.292	1596.56
648.485	1465.49
648.678	1463.44
648.871	1377.43
649.064	1234.07
649.256	1283.22
649.449	1227.93
649.642	1113.24
649.835	1180.82
650.027	1105.05
650.22	1203.35
650.413	1070.23
650.605	1117.34
650.798	957.6
650.991	939.16
651.183	869.53
651.376	867.49
651.568	865.44
651.761	795.81
651.954	949.4
652.146	631.97
652.339	752.8
652.531	791.71
652.724	668.83
652.916	674.98
653.109	484.52
653.301	666.78
653.494	654.5
653.686	695.46
653.879	705.7
654.071	654.5
654.263	539.81
654.456	466.08
654.648	529.57
654.84	570.53
655.033	453.8
655.225	576.67
655.417	367.78
655.61	572.58
655.802	502.95
655.994	507.04
656.186	255.14
656.379	498.85
656.571	400.55
656.763	396.45
656.955	435.36
657.148	302.25
657.34	421.03
657.532	349.35
657.724	400.55
657.916	400.55
658.108	335.01
658.3	406.69
658.492	337.06
658.684	191.66
658.876	394.4
659.068	148.65
659.26	193.7
659.452	195.75
659.644	316.58
659.836	423.08
660.028	283.81
660.22	191.66
660.412	271.53
660.604	160.94
660.796	195.75
660.988	279.72
661.18	363.69
661.372	369.83
661.563	246.95
661.755	234.66
661.947	117.93
662.139	132.26
662.331	267.43
662.522	322.73
662.714	130.22
662.906	132.26
663.097	228.52
663.289	111.78
663.481	117.93
663.673	222.38
663.864	185.51
664.056	337.06
664.247	72.87
664.439	259.24
664.631	150.7
664.822	287.91
665.014	142.5
665.205	99.5
665.397	156.84
665.588	146.6
665.78	126.12
665.971	269.48
666.163	167.08
666.354	185.51
666.546	138.41
666.737	218.28
666.929	54.44
667.12	124.07
667.311	230.57
667.503	167.08
667.694	138.41
667.885	218.28
668.077	195.75
668.268	50.35
668.459	142.5
668.651	224.42
668.842	156.84
669.033	169.13
669.224	124.07
669.416	378.02
669.607	195.75
669.798	66.73
669.989	265.38
670.18	162.98
670.371	179.37
670.563	62.63
670.754	251.05
670.945	214.18
671.136	199.85
671.327	140.46
671.518	271.53
671.709	224.42
671.9	265.38
672.091	269.48
672.282	128.17
672.473	259.24
672.664	95.4
672.855	165.03
673.046	316.58
673.237	220.33
673.428	185.51
673.619	179.37
673.809	136.36
674	263.33
674.191	263.33
674.382	197.8
674.573	93.35
674.764	140.46
674.954	269.48
675.145	101.55
675.336	83.11
675.527	160.94
675.717	111.78
675.908	191.66
676.099	85.16
676.289	214.18
676.48	156.84
676.671	162.98
676.861	183.46
677.052	236.71
677.243	183.46
677.433	224.42
677.624	220.33
677.814	275.62
678.005	234.66
678.195	257.19
678.386	152.74
678.576	246.95
678.767	177.32
678.957	214.18
679.148	273.57
679.338	341.16
679.529	226.47
679.719	218.28
679.909	339.11
680.1	332.97
680.29	304.29
680.481	210.09
680.671	232.62
680.861	154.79
681.052	310.44
681.242	179.37
681.432	306.34
681.622	324.77
681.813	203.94
682.003	148.65
682.193	218.28
682.383	271.53
682.573	218.28
682.764	283.81
682.954	281.77
683.144	304.29
683.334	263.33
683.524	320.68
683.714	296.1
683.904	312.49
684.094	265.38
684.284	304.29
684.474	390.31
684.664	400.55
684.854	324.77
685.044	238.76
685.234	314.53
685.424	267.43
685.614	308.39
685.804	416.93
685.994	246.95
686.184	279.72
686.374	369.83
686.564	244.9
686.753	251.05
686.943	255.14
687.133	273.57
687.323	326.82
687.513	310.44
687.702	337.06
687.892	261.29
688.082	357.54
688.272	357.54
688.461	332.97
688.651	431.27
688.841	324.77
689.03	234.66
689.22	318.63
689.41	281.77
689.599	283.81
689.789	218.28
689.979	369.83
690.168	228.52
690.358	328.87
690.547	199.85
690.737	353.45
690.926	271.53
691.116	296.1
691.305	373.92
691.495	361.64
691.684	271.53
691.874	216.23
692.063	265.38
692.252	400.55
692.442	355.49
692.631	238.76
692.82	275.62
693.01	269.48
693.199	189.61
693.388	273.57
693.578	242.85
693.767	292.01
693.956	390.31
694.146	171.18
694.335	263.33
694.524	242.85
694.713	289.96
694.902	208.04
695.092	210.09
695.281	277.67
695.47	234.66
695.659	208.04
695.848	261.29
696.037	234.66
696.226	212.14
696.415	271.53
696.604	249
696.793	255.14
696.982	220.33
697.171	332.97
697.36	197.8
697.549	263.33
697.738	214.18
697.927	171.18
698.116	220.33
698.305	314.53
698.494	193.7
698.683	259.24
698.872	380.07
699.061	222.38
699.25	183.46
699.438	203.94
699.627	324.77
699.816	394.4
700.005	169.13
700.193	228.52
700.382	363.69
700.571	308.39
700.76	257.19
700.948	298.15
701.137	224.42
701.326	314.53
701.514	236.71
701.703	271.53
701.892	298.15
702.08	371.88
702.269	175.27
702.457	201.9
702.646	134.31
702.834	220.33
703.023	281.77
703.212	240.81
703.4	244.9
703.589	187.56
703.777	167.08
703.965	210.09
704.154	183.46
704.342	154.79
704.531	144.55
704.719	199.85
704.907	373.92
705.096	238.76
705.284	165.03
705.472	320.68
705.661	212.14
705.849	267.43
706.037	312.49
706.226	322.73
706.414	277.67
706.602	95.4
706.79	236.71
706.979	169.13
707.167	242.85
707.355	179.37
707.543	222.38
707.731	205.99
707.919	267.43
708.107	267.43
708.296	183.46
708.484	177.32
708.672	244.9
708.86	265.38
709.048	271.53
709.236	152.74
709.424	328.87
709.612	294.05
709.8	136.36
709.988	292.01
710.176	304.29
710.364	271.53
710.551	351.4
710.739	265.38
710.927	277.67
711.115	314.53
711.303	236.71
711.491	261.29
711.679	179.37
711.866	253.09
712.054	201.9
712.242	214.18
712.43	347.3
712.617	238.76
712.805	251.05
712.993	251.05
713.181	191.66
713.368	320.68
713.556	232.62
713.744	253.09
713.931	459.94
714.119	326.82
714.306	246.95
714.494	287.91
714.682	251.05
714.869	189.61
715.057	281.77
715.244	66.73
715.432	249
715.619	230.57
715.807	224.42
715.994	255.14
716.182	199.85
716.369	320.68
716.556	308.39
716.744	132.26
716.931	87.21
717.119	283.81
717.306	242.85
717.493	298.15
717.681	222.38
717.868	179.37
718.055	253.09
718.242	236.71
718.43	302.25
718.617	371.88
718.804	246.95
718.991	318.63
719.179	263.33
719.366	197.8
719.553	312.49
719.74	257.19
719.927	224.42
720.114	267.43
720.301	236.71
720.488	259.24
720.676	210.09
720.863	421.03
721.05	378.02
721.237	300.2
721.424	324.77
721.611	261.29
721.798	214.18
721.985	214.18
722.172	249
722.358	285.86
722.545	310.44
722.732	281.77
722.919	378.02
723.106	281.77
723.293	212.14
723.48	289.96
723.667	226.47
723.853	269.48
724.04	275.62
724.227	265.38
724.414	218.28
724.6	277.67
724.787	410.79
724.974	392.36
725.161	261.29
725.347	193.7
725.534	320.68
725.72	369.83
725.907	380.07
726.094	328.87
726.28	277.67
726.467	318.63
726.653	185.51
726.84	332.97
727.027	392.36
727.213	271.53
727.4	418.98
727.586	408.74
727.773	238.76
727.959	261.29
728.145	298.15
728.332	273.57
728.518	269.48
728.705	394.4
728.891	341.16
729.077	314.53
729.264	259.24
729.45	312.49
729.636	384.16
729.823	267.43
730.009	314.53
730.195	304.29
730.382	345.25
730.568	246.95
730.754	251.05
730.94	240.81
731.126	289.96
731.313	384.16
731.499	269.48
731.685	363.69
731.871	298.15
732.057	378.02
732.243	355.49
732.429	285.86
732.615	382.12
732.801	279.72
732.987	314.53
733.173	355.49
733.359	281.77
733.545	304.29
733.731	300.2
733.917	421.03
734.103	341.16
734.289	359.59
734.475	328.87
734.661	439.46
734.847	249
735.033	304.29
735.219	437.41
735.404	330.92
735.59	294.05
735.776	320.68
735.962	365.73
736.148	425.12
736.333	433.32
736.519	220.33
736.705	349.35
736.89	343.21
737.076	353.45
737.262	296.1
737.447	285.86
737.633	312.49
737.819	437.41
738.004	273.57
738.19	369.83
738.375	353.45
738.561	378.02
738.747	308.39
738.932	236.71
739.118	494.76
739.303	365.73
739.489	345.25
739.674	355.49
739.859	218.28
740.045	418.98
740.23	380.07
740.416	122.02
740.601	345.25
740.786	283.81
740.972	281.77
741.157	279.72
741.342	267.43
741.528	281.77
741.713	347.3
741.898	255.14
742.084	312.49
742.269	306.34
742.454	339.11
742.639	439.46
742.824	296.1
743.01	412.84
743.195	416.93
743.38	267.43
743.565	226.47
743.75	304.29
743.935	345.25
744.12	390.31
744.305	251.05
744.49	259.24
744.675	326.82
744.86	304.29
745.045	357.54
745.23	271.53
745.415	234.66
745.6	355.49
745.785	285.86
745.97	375.97
746.155	357.54
746.34	337.06
746.525	320.68
746.71	404.64
746.895	179.37
747.079	304.29
747.264	244.9
747.449	371.88
747.634	396.45
747.819	324.77
748.003	361.64
748.188	212.14
748.373	388.26
748.557	238.76
748.742	300.2
748.927	304.29
749.111	253.09
749.296	281.77
749.481	251.05
749.665	328.87
749.85	267.43
750.034	300.2
750.219	244.9
750.404	253.09
750.588	259.24
750.773	173.22
750.957	197.8
751.141	232.62
751.326	255.14
751.51	169.13
751.695	271.53
751.879	162.98
752.064	373.92
752.248	259.24
752.432	302.25
752.617	300.2
752.801	271.53
752.985	238.76
753.17	292.01
753.354	218.28
753.538	185.51
753.722	203.94
753.907	218.28
754.091	81.07
754.275	298.15
754.459	99.5
754.643	183.46
754.828	269.48
755.012	214.18
755.196	156.84
755.38	193.7
755.564	171.18
755.748	187.56
755.932	201.9
756.116	249
756.3	191.66
756.484	160.94
756.668	195.75
756.852	185.51
757.036	99.5
757.22	203.94
757.404	169.13
757.588	140.46
757.772	179.37
757.956	134.31
758.14	302.25
758.323	119.98
758.507	218.28
758.691	124.07
758.875	255.14
759.059	205.99
759.242	117.93
759.426	169.13
759.61	175.27
759.794	25.77
759.977	220.33
760.161	453.8
760.345	183.46
760.528	314.53
760.712	148.65
760.895	165.03
761.079	216.23
761.263	64.68
761.446	130.22
761.63	138.41
761.813	240.81
761.997	-27.48
762.18	181.42
762.364	210.09
762.547	74.92
762.731	271.53
762.914	119.98
763.098	99.5
763.281	150.7
763.464	74.92
763.648	175.27
763.831	81.07
764.015	33.96
764.198	253.09
764.381	103.59
764.564	150.7
764.748	136.36
764.931	158.89
765.114	93.35
765.297	111.78
765.481	19.63
765.664	44.2
765.847	36.01
766.03	242.85
766.213	-2.9
766.397	105.64
766.58	74.92
766.763	224.42
766.946	72.87
767.129	60.59
767.312	25.77
767.495	54.44
767.678	15.53
767.861	103.59
768.044	85.16
768.227	126.12
768.41	169.13
768.593	68.78
768.776	119.98
768.959	117.93
769.142	138.41
769.324	105.64
769.507	119.98
769.69	134.31
769.873	107.69
770.056	228.52
770.239	105.64
770.421	130.22
770.604	68.78
770.787	76.97
770.97	169.13
771.152	85.16
771.335	146.6
771.518	17.58
771.7	189.61
771.883	183.46
772.066	117.93
772.248	156.84
772.431	187.56
772.613	97.45
772.796	52.39
772.978	140.46
773.161	167.08
773.343	58.54
773.526	158.89
773.708	-33.62
773.891	-35.67
774.073	109.74
774.256	25.77
774.438	109.74
774.621	74.92
774.803	146.6
774.985	13.48
775.168	68.78
775.35	52.39
775.532	122.02
775.715	46.25
775.897	107.69
776.079	56.49
776.261	81.07
776.444	99.5
776.626	40.11
776.808	81.07
776.99	-23.38
777.173	152.74
777.355	64.68
777.537	50.35
777.719	74.92
777.901	27.82
778.083	66.73
778.265	-9.05
778.447	19.63
778.629	7.34
778.811	17.58
778.993	76.97
779.175	134.31
779.357	179.37
779.539	-9.05
779.721	146.6
779.903	138.41
780.085	70.83
780.267	136.36
780.449	156.84
780.631	154.79
780.812	81.07
780.994	44.2
781.176	-2.9
781.358	36.01
781.54	44.2
781.721	126.12
781.903	119.98
782.085	1.19
782.267	183.46
782.448	-33.62
782.63	-7
782.812	89.26
782.993	115.88
783.175	181.42
783.357	56.49
783.538	40.11
783.72	-15.19
783.901	17.58
784.083	124.07
784.264	31.91
784.446	-45.91
784.627	29.87
784.809	64.68
784.99	-25.43
785.172	124.07
785.353	23.72
785.535	50.35
785.716	105.64
785.897	-21.33
786.079	66.73
786.26	9.39
786.441	105.64
786.623	-41.81
786.804	31.91
786.985	25.77
787.167	-15.19
787.348	95.4
787.529	-7
787.71	191.66
787.891	27.82
788.073	21.67
788.254	-29.52
788.435	128.17
788.616	25.77
788.797	-11.09
788.978	-9.05
789.159	-19.29
789.34	36.01
789.522	60.59
789.703	-2.9
789.884	19.63
790.065	60.59
790.246	138.41
790.427	9.39
790.607	181.42
790.788	74.92
790.969	-47.96
791.15	111.78
791.331	38.06
791.512	29.87
791.693	25.77
791.874	-0.85
792.054	103.59
792.235	42.15
792.416	-29.52
792.597	-95.06
792.778	117.93
792.958	27.82
793.139	54.44
793.32	21.67
793.5	-29.52
793.681	122.02
793.862	-15.19
794.042	66.73
794.223	-99.16
794.404	21.67
794.584	-39.76
794.765	7.34
794.945	7.34
795.126	89.26
795.306	52.39
795.487	17.58
795.667	15.53
795.848	9.39
796.028	1.19
796.209	-7
796.389	15.53
796.57	74.92
796.75	-43.86
796.93	-9.05
797.111	-86.87
797.291	5.29
797.471	138.41
797.652	-64.34
797.832	-35.67
798.012	42.15
798.192	-56.15
798.373	-27.48
798.553	25.77
798.733	56.49
798.913	-23.38
799.093	-45.91
799.274	87.21
799.454	132.26
799.634	31.91
799.814	115.88
799.994	29.87
800.174	83.11
800.354	19.63
800.534	-101.2
800.714	111.78
800.894	-4.95
801.074	-9.05
801.254	-84.82
801.434	13.48
801.614	-11.09
801.794	-45.91
801.974	1823.89
802.154	-15.19
802.334	58.54
802.514	-56.15
802.693	42.15
802.873	-37.72
803.053	136.36
803.233	19.63
803.413	-13.14
803.592	5.29
803.772	56.49
803.952	5.29
804.131	-119.64
804.311	76.97
804.491	70.83
804.67	-113.49
804.85	-101.2
805.03	48.3
805.209	136.36
805.389	-43.86
805.568	-74.58
805.748	-76.63
805.928	5.29
806.107	21.67
806.287	7.34
806.466	19.63
806.646	11.43
806.825	38.06
807.004	-9.05
807.184	-31.57
807.363	23.72
807.543	42.15
807.722	-62.29
807.901	93.35
808.081	64.68
808.26	-191.31
808.439	25.77
808.619	29.87
808.798	7.34
808.977	5.29
809.156	46.25
809.336	15.53
809.515	56.49
809.694	-25.43
809.873	-43.86
810.052	58.54
810.231	103.59
810.411	-29.52
810.59	54.44
810.769	13.48
810.948	83.11
811.127	-72.53
811.306	-4.95
811.485	-2.9
811.664	138.41
811.843	31.91
812.022	-54.1
812.201	-25.43
812.38	-68.44
812.559	-70.48
812.737	27.82
812.916	-101.2
813.095	-99.16
813.274	54.44
813.453	13.48
813.632	-0.85
813.811	72.87
813.989	-107.35
814.168	3.24
814.347	1.19
814.526	50.35
814.704	144.55
814.883	113.83
815.062	-39.76
815.24	81.07
815.419	-47.96
815.598	21.67
815.776	-129.88
815.955	15.53
816.133	-101.2
816.312	-78.68
816.49	-17.24
816.669	13.48
816.847	-15.19
817.026	-13.14
817.204	29.87
817.383	31.91
817.561	-43.86
817.74	-11.09
817.918	38.06
818.097	-99.16
818.275	-56.15
818.453	11.43
818.632	5.29
818.81	-86.87
818.988	25.77
819.167	-11.09
819.345	-11.09
819.523	-9.05
819.701	15.53
819.879	40.11
820.058	21.67
820.236	-58.2
820.414	-31.57
820.592	-29.52
820.77	-31.57
820.948	-4.95
821.127	-64.34
821.305	-17.24
821.483	-64.34
821.661	81.07
821.839	31.91
822.017	-13.14
822.195	-72.53
822.373	62.63
822.551	42.15
822.729	-19.29
822.907	-47.96
823.085	85.16
823.262	23.72
823.44	-62.29
823.618	-13.14
823.796	-9.05
823.974	-19.29
824.152	-17.24
824.329	40.11
824.507	-80.72
824.685	52.39
824.863	-82.77
825.04	-58.2
825.218	113.83
825.396	58.54
825.574	21.67
825.751	5.29
825.929	48.3
826.107	-107.35
826.284	-45.91
826.462	72.87
826.639	-62.29
826.817	-88.92
826.994	74.92
827.172	-144.21
827.349	74.92
827.527	72.87
827.704	-9.05
827.882	-13.14
828.059	-136.02
828.237	-62.29
828.414	31.91
828.591	-113.49
828.769	-52.05
828.946	-80.72
829.124	107.69
829.301	52.39
829.478	-45.91
829.655	1.19
829.833	-50
830.01	-156.5
830.187	44.2
830.364	38.06
830.542	-19.29
830.719	91.31
830.896	40.11
831.073	29.87
831.25	-52.05
831.427	46.25
831.604	5.29
831.782	-56.15
831.959	17.58
832.136	-21.33
832.313	5.29
832.49	-21.33
832.667	-31.57
832.844	-101.2
833.021	87.21
833.198	-21.33
833.374	-113.49
833.551	40.11
833.728	-131.92
833.905	33.96
834.082	-109.4
834.259	17.58
834.436	99.5
834.612	-0.85
834.789	79.02
834.966	36.01
835.143	-47.96
835.319	15.53
835.496	15.53
835.673	54.44
835.85	1.19
836.026	56.49
836.203	62.63
836.38	-54.1
836.556	9.39
836.733	-162.64
836.909	15.53
837.086	-35.67
837.262	-146.26
837.439	-9.05
837.616	-56.15
837.792	46.25
837.968	13.48
838.145	-37.72
838.321	-78.68
838.498	25.77
838.674	11.43
838.851	48.3
839.027	7.34
839.203	21.67
839.38	46.25
839.556	-47.96
839.732	36.01
839.909	-70.48
840.085	7.34
840.261	-47.96
840.437	-41.81
840.614	-64.34
840.79	-13.14
840.966	13.48
841.142	44.2
841.318	-15.19
841.494	119.98
841.671	109.74
841.847	-58.2
842.023	-86.87
842.199	5.29
842.375	66.73
842.551	-52.05
842.727	-54.1
842.903	107.69
843.079	-56.15
843.255	87.21
843.431	-78.68
843.607	-19.29
843.783	-154.45
843.959	23.72
844.134	-115.54
844.31	52.39
844.486	-84.82
844.662	-97.11
844.838	74.92
845.013	79.02
845.189	54.44
845.365	25.77
845.541	-39.76
845.716	-23.38
845.892	70.83
846.068	27.82
846.244	-27.48
846.419	17.58
846.595	-111.44
846.77	-52.05
846.946	40.11
847.122	5.29
847.297	-74.58
847.473	138.41
847.648	-41.81
847.824	-88.92
847.999	-109.4
848.175	-9.05
848.35	15.53
848.526	33.96
848.701	-19.29
848.876	64.68
849.052	50.35
849.227	-4.95
849.403	-109.4
849.578	-45.91
849.753	25.77
849.929	31.91
850.104	-105.3
850.279	-74.58
850.454	46.25
850.63	95.4
850.805	11.43
850.98	5.29
851.155	17.58
851.33	29.87
851.505	-109.4
851.681	42.15
851.856	36.01
852.031	17.58
852.206	7.34
852.381	-84.82
852.556	31.91
852.731	40.11
852.906	15.53
853.081	29.87
853.256	36.01
853.431	-7
853.606	-84.82
853.781	9.39
853.956	-84.82
854.131	11.43
854.305	-121.68
854.48	15.53
854.655	-72.53
854.83	-109.4
855.005	-2.9
855.18	-0.85
855.354	-41.81
855.529	-7
855.704	-93.01
855.879	-13.14
856.053	-176.98
856.228	-41.81
856.403	-93.01
856.577	60.59
856.752	-129.88
856.926	-54.1
857.101	-15.19
857.276	-37.72
857.45	5.29
857.625	-23.38
857.799	-45.91
857.974	-78.68
858.148	-127.83
858.323	27.82
858.497	13.48
858.672	-13.14
858.846	-78.68
859.02	19.63
859.195	-50
859.369	-43.86
859.543	-37.72
859.718	-80.72
859.892	-41.81
860.066	36.01
860.241	-80.72
860.415	-123.73
860.589	76.97
860.763	-76.63
860.938	-0.85
861.112	83.11
861.286	-43.86
861.46	7.34
861.634	-93.01
861.808	83.11
861.982	-133.97
862.157	-146.26
862.331	-72.53
862.505	-78.68
862.679	-119.64
862.853	-17.24
863.027	-25.43
863.201	136.36
863.375	-4.95
863.549	1.19
863.722	48.3
863.896	17.58
864.07	-68.44
864.244	-17.24
864.418	87.21
864.592	-43.86
864.766	-13.14
864.939	-23.38
865.113	-82.77
865.287	9.39
865.461	-113.49
865.634	-66.39
865.808	-35.67
865.982	-41.81
866.156	-80.72
866.329	-109.4
866.503	-31.57
866.676	52.39
866.85	64.68
867.024	-35.67
867.197	74.92
867.371	25.77
867.544	-27.48
867.718	-160.59
867.891	-29.52
868.065	-174.93
868.238	13.48
868.412	33.96
868.585	-13.14
868.759	-127.83
868.932	-56.15
869.105	-117.59
869.279	21.67
869.452	-68.44
869.625	52.39
869.799	11.43
869.972	-99.16
870.145	36.01
870.319	91.31
870.492	-90.96
870.665	-66.39
870.838	-80.72
871.011	-78.68
871.185	-45.91
871.358	-101.2
871.531	25.77
871.704	-54.1
871.877	-43.86
872.05	-54.1
872.223	-127.83
872.396	15.53
872.569	56.49
872.742	-78.68
872.915	85.16
873.088	-99.16
873.261	-133.97
873.434	52.39
873.607	-0.85
873.78	140.46
873.953	-76.63
874.126	19.63
874.299	7.34
874.471	7.34
874.644	3.24
874.817	50.35
874.99	50.35
875.163	11.43
875.335	-43.86
875.508	-37.72
875.681	91.31
875.853	-109.4
876.026	-47.96
876.199	97.45
876.371	-4.95
876.544	-62.29
876.717	-9.05
876.889	68.78
877.062	1.19
877.234	-68.44
877.407	-4.95
877.579	-88.92
877.752	52.39
877.924	40.11
878.097	11.43
878.269	5.29
878.442	-25.43
878.614	48.3
878.786	-45.91
878.959	64.68
879.131	15.53
879.303	-117.59
879.476	-68.44
879.648	19.63
879.82	-56.15
879.993	-33.62
880.165	-93.01
880.337	-84.82
880.509	-37.72
880.681	-97.11
880.854	-82.77
881.026	54.44
881.198	111.78
881.37	-68.44
881.542	-7
881.714	-15.19
881.886	-78.68
882.058	-84.82
882.23	-31.57
882.402	-13.14
882.574	-17.24
882.746	1.19
882.918	79.02
883.09	17.58
883.262	-39.76
883.434	-45.91
883.606	-152.4
883.778	-47.96
883.95	103.59
884.122	-68.44
884.293	72.87
884.465	40.11
884.637	-64.34
884.809	5.29
884.98	-27.48
885.152	-7
885.324	64.68
885.496	-86.87
885.667	-41.81
885.839	-41.81
886.011	68.78
886.182	72.87
886.354	9.39
886.525	-37.72
886.697	-41.81
886.869	-64.34
887.04	1.19
887.212	25.77
887.383	-7
887.555	-82.77
887.726	-23.38
887.897	-21.33
888.069	-23.38
888.24	89.26
888.412	-45.91
888.583	-68.44
888.754	23.72
888.926	-84.82
889.097	-109.4
889.268	-115.54
889.44	-21.33
889.611	-62.29
889.782	-140.12
889.953	-74.58
890.125	122.02
890.296	-72.53
890.467	-13.14
890.638	-80.72
890.809	-58.2
890.98	-60.24
891.151	-7
891.323	19.63
891.494	-45.91
891.665	-19.29
891.836	-27.48
892.007	-15.19
892.178	-76.63
892.349	-39.76
892.52	-7
892.691	97.45
892.862	-19.29
893.032	-52.05
893.203	-47.96
893.374	-27.48
893.545	74.92
893.716	5.29
893.887	27.82
894.057	21.67
894.228	-101.2
894.399	-60.24
894.57	103.59
894.74	-45.91
894.911	52.39
895.082	11.43
895.253	-105.3
895.423	36.01
895.594	21.67
895.764	66.73
895.935	-80.72
896.106	-66.39
896.276	-23.38
896.447	29.87
896.617	-72.53
896.788	-103.25
896.958	-0.85
897.129	-74.58
897.299	-86.87
897.47	111.78
897.64	25.77
897.81	-13.14
897.981	15.53
898.151	-56.15
898.322	56.49
898.492	19.63
898.662	-66.39
898.832	-58.2
899.003	-56.15
899.173	9.39
899.343	58.54
899.513	-103.25
