Data from USB4F104151__119__10-46-06-359.txt Node

Date: Wed Feb 26 10:46:06 EST 2025
User: louis
Spectrometer: USB4F10415
Trigger mode: 4
Integration Time (sec): 1.000000E-1
Scans to average: 1
Electric dark correction enabled: true
Nonlinearity correction enabled: false
Boxcar width: 0
XAxis mode: Wavelengths
Number of Pixels in Spectrum: 3648
>>>>>Begin Spectral Data<<<<<
178.204	-446.8
178.424	-446.8
178.644	-446.8
178.864	-383.31
179.084	-381.26
179.304	-10.58
179.524	-69.97
179.744	61.1
179.964	50.86
180.184	-16.73
180.404	46.76
180.624	-14.68
180.844	-8.53
181.064	-100.69
181.283	13.99
181.503	-24.92
181.723	73.39
181.943	-129.36
182.163	206.5
182.383	38.57
182.602	-0.34
182.822	30.38
183.042	32.43
183.262	7.85
183.482	-69.97
183.701	67.24
183.921	73.39
184.141	-4.44
184.361	140.97
184.58	24.23
184.8	-18.77
185.02	5.8
185.239	190.12
185.459	-29.01
185.679	122.54
185.898	-98.64
186.118	100.01
186.338	44.71
186.557	132.78
186.777	-147.8
186.997	46.76
187.216	83.63
187.436	151.21
187.655	-14.68
187.875	71.34
188.095	50.86
188.314	61.1
188.534	134.82
188.753	9.9
188.973	114.34
189.192	229.03
189.412	1.71
189.631	48.81
189.851	114.34
190.07	157.35
190.29	-47.44
190.509	-55.64
190.729	77.48
190.948	136.87
191.168	204.46
191.387	75.43
191.607	3.75
191.826	59.05
192.045	-35.16
192.265	3.75
192.484	77.48
192.704	69.29
192.923	-12.63
193.142	208.55
193.362	71.34
193.581	89.77
193.8	91.82
194.02	81.58
194.239	-14.68
194.458	26.28
194.678	83.63
194.897	73.39
195.116	7.85
195.335	61.1
195.555	9.9
195.774	50.86
195.993	97.96
196.212	-45.4
196.432	34.47
196.651	18.09
196.87	11.95
197.089	261.8
197.308	1.71
197.528	79.53
197.747	-88.4
197.966	87.72
198.185	104.11
198.404	7.85
198.623	97.96
198.842	120.49
199.062	140.97
199.281	30.38
199.5	-16.73
199.719	38.57
199.938	32.43
200.157	48.81
200.376	102.06
200.595	116.39
200.814	100.01
201.033	-4.44
201.252	149.16
201.471	1.71
201.69	48.81
201.909	61.1
202.128	81.58
202.347	143.02
202.566	54.95
202.785	-41.3
203.004	7.85
203.223	216.74
203.442	-4.44
203.661	-74.07
203.879	79.53
204.098	93.87
204.317	-12.63
204.536	93.87
204.755	38.57
204.974	124.58
205.193	-45.4
205.411	93.87
205.63	75.43
205.849	110.25
206.068	44.71
206.287	-82.26
206.505	85.67
206.724	157.35
206.943	-49.49
207.162	-18.77
207.381	75.43
207.599	-26.96
207.818	54.95
208.037	-10.58
208.255	48.81
208.474	102.06
208.693	85.67
208.911	24.23
209.13	149.16
209.349	118.44
209.567	42.67
209.786	118.44
210.005	136.87
210.223	22.19
210.442	-12.63
210.661	-31.06
210.879	46.76
211.098	22.19
211.316	34.47
211.535	67.24
211.753	20.14
211.972	57
212.191	-20.82
212.409	11.95
212.628	50.86
212.846	59.05
213.065	89.77
213.283	93.87
213.502	-31.06
213.72	147.11
213.938	85.67
214.157	-14.68
214.375	136.87
214.594	5.8
214.812	161.45
215.031	116.39
215.249	-43.35
215.467	79.53
215.686	71.34
215.904	40.62
216.122	36.52
216.341	71.34
216.559	149.16
216.778	89.77
216.996	108.2
217.214	52.91
217.432	3.75
217.651	-20.82
217.869	28.33
218.087	95.91
218.306	42.67
218.524	81.58
218.742	30.38
218.96	147.11
219.179	75.43
219.397	100.01
219.615	214.7
219.833	38.57
220.051	1.71
220.27	91.82
220.488	63.15
220.706	48.81
220.924	-6.49
221.142	3.75
221.36	104.11
221.578	54.95
221.796	44.71
222.015	36.52
222.233	81.58
222.451	159.4
222.669	-82.26
222.887	57
223.105	-0.34
223.323	-20.82
223.541	-29.01
223.759	22.19
223.977	67.24
224.195	161.45
224.413	91.82
224.631	-12.63
224.849	67.24
225.067	126.63
225.285	24.23
225.503	-37.2
225.721	-31.06
225.939	136.87
226.157	42.67
226.375	186.02
226.592	-26.96
226.81	42.67
227.028	106.15
227.246	81.58
227.464	91.82
227.682	118.44
227.9	128.68
228.117	63.15
228.335	155.3
228.553	20.14
228.771	40.62
228.989	65.19
229.206	87.72
229.424	69.29
229.642	26.28
229.86	-49.49
230.077	149.16
230.295	48.81
230.513	126.63
230.731	118.44
230.948	175.78
231.166	179.88
231.384	67.24
231.601	-8.53
231.819	200.36
232.037	67.24
232.254	30.38
232.472	3.75
232.689	13.99
232.907	102.06
233.125	34.47
233.342	-0.34
233.56	20.14
233.777	-4.44
233.995	54.95
234.213	114.34
234.43	81.58
234.648	1.71
234.865	7.85
235.083	50.86
235.3	18.09
235.518	93.87
235.735	171.69
235.953	54.95
236.17	52.91
236.388	59.05
236.605	61.1
236.822	44.71
237.04	132.78
237.257	73.39
237.475	-2.39
237.692	28.33
237.909	22.19
238.127	-18.77
238.344	89.77
238.562	13.99
238.779	-2.39
238.996	-26.96
239.214	61.1
239.431	106.15
239.648	24.23
239.865	77.48
240.083	95.91
240.3	-41.3
240.517	-49.49
240.735	-18.77
240.952	36.52
241.169	93.87
241.386	161.45
241.603	-14.68
241.821	24.23
242.038	85.67
242.255	116.39
242.472	-39.25
242.689	132.78
242.907	13.99
243.124	38.57
243.341	3.75
243.558	36.52
243.775	-72.02
243.992	-86.36
244.209	120.49
244.426	122.54
244.643	63.15
244.86	75.43
245.078	97.96
245.295	120.49
245.512	36.52
245.729	-24.92
245.946	126.63
246.163	38.57
246.38	-16.73
246.597	91.82
246.814	124.58
247.031	28.33
247.248	-8.53
247.464	140.97
247.681	100.01
247.898	40.62
248.115	89.77
248.332	7.85
248.549	145.06
248.766	122.54
248.983	95.91
249.2	114.34
249.417	214.7
249.633	-37.2
249.85	116.39
250.067	32.43
250.284	108.2
250.501	42.67
250.717	83.63
250.934	38.57
251.151	-37.2
251.368	36.52
251.585	7.85
251.801	9.9
252.018	-6.49
252.235	79.53
252.451	-20.82
252.668	-10.58
252.885	73.39
253.102	79.53
253.318	1.71
253.535	52.91
253.752	52.91
253.968	44.71
254.185	-41.3
254.401	59.05
254.618	40.62
254.835	-0.34
255.051	95.91
255.268	163.5
255.484	-8.53
255.701	73.39
255.917	13.99
256.134	-2.39
256.351	28.33
256.567	-20.82
256.784	89.77
257	-22.87
257.217	104.11
257.433	1.71
257.65	1.71
257.866	59.05
258.082	-2.39
258.299	22.19
258.515	52.91
258.732	36.52
258.948	-33.11
259.165	91.82
259.381	-72.02
259.597	73.39
259.814	-20.82
260.03	77.48
260.246	-41.3
260.463	165.54
260.679	97.96
260.895	110.25
261.112	69.29
261.328	-24.92
261.544	32.43
261.761	138.92
261.977	61.1
262.193	-12.63
262.409	89.77
262.626	40.62
262.842	52.91
263.058	18.09
263.274	106.15
263.49	40.62
263.707	69.29
263.923	57
264.139	-43.35
264.355	106.15
264.571	126.63
264.787	85.67
265.004	208.55
265.22	61.1
265.436	-37.2
265.652	-16.73
265.868	145.06
266.084	-20.82
266.3	34.47
266.516	9.9
266.732	65.19
266.948	-55.64
267.164	32.43
267.38	38.57
267.596	83.63
267.812	143.02
268.028	13.99
268.244	-57.68
268.46	93.87
268.676	-6.49
268.892	9.9
269.108	-4.44
269.324	-37.2
269.54	-67.92
269.756	77.48
269.972	-16.73
270.188	75.43
270.403	-24.92
270.619	3.75
270.835	50.86
271.051	34.47
271.267	28.33
271.483	-55.64
271.698	165.54
271.914	-31.06
272.13	22.19
272.346	85.67
272.562	77.48
272.777	102.06
272.993	9.9
273.209	83.63
273.425	128.68
273.64	-45.4
273.856	116.39
274.072	-29.01
274.287	-53.59
274.503	120.49
274.719	89.77
274.934	-65.88
275.15	-22.87
275.366	1.71
275.581	-12.63
275.797	120.49
276.012	67.24
276.228	-12.63
276.444	18.09
276.659	134.82
276.875	-18.77
277.09	-6.49
277.306	9.9
277.521	83.63
277.737	118.44
277.952	97.96
278.168	-55.64
278.383	81.58
278.599	67.24
278.814	186.02
279.03	-47.44
279.245	181.93
279.461	-14.68
279.676	114.34
279.892	-55.64
280.107	-29.01
280.322	7.85
280.538	122.54
280.753	26.28
280.969	112.3
281.184	26.28
281.399	173.74
281.615	-12.63
281.83	59.05
282.045	-31.06
282.26	20.14
282.476	44.71
282.691	165.54
282.906	52.91
283.122	44.71
283.337	16.04
283.552	20.14
283.767	30.38
283.983	132.78
284.198	3.75
284.413	54.95
284.628	1.71
284.843	-14.68
285.058	87.72
285.274	-22.87
285.489	28.33
285.704	59.05
285.919	40.62
286.134	50.86
286.349	71.34
286.564	-20.82
286.779	91.82
286.995	73.39
287.21	-20.82
287.425	108.2
287.64	-39.25
287.855	-4.44
288.07	-29.01
288.285	140.97
288.5	38.57
288.715	63.15
288.93	52.91
289.145	-22.87
289.36	138.92
289.575	-4.44
289.79	155.3
290.004	-51.54
290.219	67.24
290.434	-2.39
290.649	71.34
290.864	75.43
291.079	9.9
291.294	75.43
291.509	11.95
291.724	20.14
291.938	69.29
292.153	59.05
292.368	28.33
292.583	44.71
292.798	46.76
293.012	32.43
293.227	36.52
293.442	36.52
293.657	124.58
293.871	79.53
294.086	28.33
294.301	198.31
294.516	134.82
294.73	20.14
294.945	-80.21
295.16	13.99
295.374	130.73
295.589	145.06
295.804	-26.96
296.018	3.75
296.233	120.49
296.447	102.06
296.662	65.19
296.877	42.67
297.091	71.34
297.306	-0.34
297.52	-10.58
297.735	-49.49
297.949	91.82
298.164	67.24
298.378	95.91
298.593	-104.79
298.807	38.57
299.022	95.91
299.236	159.4
299.451	48.81
299.665	-61.78
299.88	54.95
300.094	44.71
300.309	7.85
300.523	93.87
300.737	36.52
300.952	52.91
301.166	126.63
301.381	-14.68
301.595	-39.25
301.809	89.77
302.024	83.63
302.238	3.75
302.452	163.5
302.667	91.82
302.881	214.7
303.095	63.15
303.309	36.52
303.524	38.57
303.738	24.23
303.952	-74.07
304.166	32.43
304.381	-41.3
304.595	163.5
304.809	-82.26
305.023	13.99
305.237	28.33
305.452	106.15
305.666	79.53
305.88	140.97
306.094	128.68
306.308	85.67
306.522	85.67
306.736	52.91
306.95	102.06
307.164	85.67
307.379	24.23
307.593	155.3
307.807	163.5
308.021	112.3
308.235	102.06
308.449	28.33
308.663	-41.3
308.877	243.37
309.091	128.68
309.305	89.77
309.519	-82.26
309.733	77.48
309.947	-106.84
310.161	81.58
310.374	138.92
310.588	130.73
310.802	-2.39
311.016	-6.49
311.23	87.72
311.444	34.47
311.658	79.53
311.872	91.82
312.085	112.3
312.299	102.06
312.513	198.31
312.727	93.87
312.941	-41.3
313.154	79.53
313.368	54.95
313.582	18.09
313.796	95.91
314.009	71.34
314.223	124.58
314.437	79.53
314.651	38.57
314.864	-18.77
315.078	-78.16
315.292	-16.73
315.505	52.91
315.719	145.06
315.933	57
316.146	-16.73
316.36	-2.39
316.573	122.54
316.787	63.15
317.001	85.67
317.214	-8.53
317.428	7.85
317.641	-55.64
317.855	-20.82
318.068	36.52
318.282	79.53
318.495	186.02
318.709	65.19
318.922	30.38
319.136	186.02
319.349	145.06
319.563	67.24
319.776	163.5
319.99	-74.07
320.203	145.06
320.417	7.85
320.63	128.68
320.843	183.98
321.057	11.95
321.27	-14.68
321.483	77.48
321.697	159.4
321.91	22.19
322.124	50.86
322.337	116.39
322.55	-14.68
322.763	50.86
322.977	52.91
323.19	11.95
323.403	-41.3
323.617	77.48
323.83	102.06
324.043	30.38
324.256	147.11
324.469	-12.63
324.683	46.76
324.896	122.54
325.109	-18.77
325.322	-74.07
325.535	153.26
325.748	112.3
325.962	67.24
326.175	177.83
326.388	48.81
326.601	132.78
326.814	30.38
327.027	1.71
327.24	116.39
327.453	-55.64
327.666	120.49
327.879	147.11
328.092	7.85
328.305	73.39
328.518	-74.07
328.731	7.85
328.944	42.67
329.157	54.95
329.37	-82.26
329.583	167.59
329.796	83.63
330.009	-102.74
330.222	110.25
330.435	79.53
330.648	93.87
330.861	124.58
331.073	28.33
331.286	116.39
331.499	40.62
331.712	3.75
331.925	20.14
332.138	48.81
332.35	110.25
332.563	48.81
332.776	97.96
332.989	7.85
333.202	93.87
333.414	114.34
333.627	1.71
333.84	32.43
334.053	30.38
334.265	-22.87
334.478	-4.44
334.691	93.87
334.903	61.1
335.116	-20.82
335.329	-18.77
335.541	134.82
335.754	134.82
335.966	-4.44
336.179	26.28
336.392	77.48
336.604	61.1
336.817	126.63
337.029	18.09
337.242	24.23
337.454	118.44
337.667	91.82
337.88	134.82
338.092	-8.53
338.305	67.24
338.517	-20.82
338.729	104.11
338.942	143.02
339.154	-63.83
339.367	-57.68
339.579	149.16
339.792	-2.39
340.004	34.47
340.217	69.29
340.429	57
340.641	-16.73
340.854	-88.4
341.066	1.71
341.278	134.82
341.491	140.97
341.703	85.67
341.915	-43.35
342.128	40.62
342.34	85.67
342.552	-0.34
342.764	57
342.977	71.34
343.189	128.68
343.401	1.71
343.613	-63.83
343.826	93.87
344.038	44.71
344.25	77.48
344.462	-16.73
344.674	114.34
344.886	24.23
345.099	124.58
345.311	52.91
345.523	-6.49
345.735	-108.88
345.947	63.15
346.159	132.78
346.371	28.33
346.583	3.75
346.795	116.39
347.007	46.76
347.219	34.47
347.431	16.04
347.643	145.06
347.855	30.38
348.067	179.88
348.279	-41.3
348.491	67.24
348.703	52.91
348.915	-78.16
349.127	-31.06
349.339	52.91
349.551	-14.68
349.763	22.19
349.975	61.1
350.187	181.93
350.399	161.45
350.61	93.87
350.822	81.58
351.034	59.05
351.246	34.47
351.458	65.19
351.669	63.15
351.881	95.91
352.093	120.49
352.305	83.63
352.517	116.39
352.728	100.01
352.94	71.34
353.152	32.43
353.363	52.91
353.575	120.49
353.787	134.82
353.999	7.85
354.21	151.21
354.422	-45.4
354.633	102.06
354.845	89.77
355.057	-29.01
355.268	83.63
355.48	65.19
355.692	-39.25
355.903	67.24
356.115	13.99
356.326	18.09
356.538	159.4
356.749	71.34
356.961	104.11
357.172	69.29
357.384	1.71
357.595	165.54
357.807	-12.63
358.018	-16.73
358.23	28.33
358.441	116.39
358.653	126.63
358.864	11.95
359.075	-6.49
359.287	40.62
359.498	102.06
359.709	81.58
359.921	30.38
360.132	126.63
360.344	5.8
360.555	-35.16
360.766	126.63
360.977	-8.53
361.189	161.45
361.4	24.23
361.611	13.99
361.823	140.97
362.034	87.72
362.245	-55.64
362.456	20.14
362.667	212.65
362.879	34.47
363.09	5.8
363.301	36.52
363.512	44.71
363.723	9.9
363.935	-37.2
364.146	95.91
364.357	-14.68
364.568	22.19
364.779	-16.73
364.99	118.44
365.201	20.14
365.412	190.12
365.623	-47.44
365.834	32.43
366.045	52.91
366.256	93.87
366.467	112.3
366.678	34.47
366.889	-0.34
367.1	1.71
367.311	124.58
367.522	89.77
367.733	81.58
367.944	69.29
368.155	61.1
368.366	52.91
368.577	153.26
368.788	163.5
368.999	-8.53
369.209	120.49
369.42	298.66
369.631	286.37
369.842	128.68
370.053	22.19
370.264	95.91
370.474	3.75
370.685	73.39
370.896	13.99
371.107	122.54
371.317	81.58
371.528	46.76
371.739	161.45
371.95	138.92
372.16	44.71
372.371	-53.59
372.582	44.71
372.792	48.81
373.003	130.73
373.214	104.11
373.424	46.76
373.635	46.76
373.846	235.18
374.056	28.33
374.267	190.12
374.477	93.87
374.688	11.95
374.898	108.2
375.109	77.48
375.319	52.91
375.53	110.25
375.74	118.44
375.951	44.71
376.161	89.77
376.372	85.67
376.582	-57.68
376.793	65.19
377.003	20.14
377.214	59.05
377.424	57
377.635	32.43
377.845	-33.11
378.055	149.16
378.266	-65.88
378.476	67.24
378.686	46.76
378.897	67.24
379.107	87.72
379.317	106.15
379.528	91.82
379.738	91.82
379.948	-121.17
380.158	95.91
380.369	18.09
380.579	34.47
380.789	85.67
380.999	114.34
381.21	222.89
381.42	163.5
381.63	114.34
381.84	50.86
382.05	85.67
382.261	126.63
382.471	140.97
382.681	-31.06
382.891	200.36
383.101	83.63
383.311	-6.49
383.521	-20.82
383.731	40.62
383.941	155.3
384.151	118.44
384.361	20.14
384.571	28.33
384.781	59.05
384.991	247.46
385.201	198.31
385.411	140.97
385.621	46.76
385.831	112.3
386.041	63.15
386.251	71.34
386.461	218.79
386.671	26.28
386.881	83.63
387.091	57
387.301	155.3
387.511	48.81
387.72	114.34
387.93	118.44
388.14	-47.44
388.35	46.76
388.56	175.78
388.769	122.54
388.979	71.34
389.189	-10.58
389.399	11.95
389.609	140.97
389.818	89.77
390.028	77.48
390.238	93.87
390.447	-41.3
390.657	50.86
390.867	50.86
391.076	-14.68
391.286	85.67
391.496	102.06
391.705	112.3
391.915	198.31
392.125	136.87
392.334	42.67
392.544	173.74
392.753	59.05
392.963	-41.3
393.172	97.96
393.382	-0.34
393.591	212.65
393.801	-29.01
394.01	120.49
394.22	63.15
394.429	59.05
394.639	-47.44
394.848	34.47
395.058	77.48
395.267	38.57
395.477	65.19
395.686	73.39
395.895	155.3
396.105	183.98
396.314	97.96
396.524	190.12
396.733	38.57
396.942	147.11
397.152	159.4
397.361	130.73
397.57	-14.68
397.78	16.04
397.989	114.34
398.198	222.89
398.407	-12.63
398.617	20.14
398.826	34.47
399.035	65.19
399.244	149.16
399.453	28.33
399.663	11.95
399.872	52.91
400.081	34.47
400.29	186.02
400.499	5.8
400.708	151.21
400.917	36.52
401.127	-10.58
401.336	18.09
401.545	253.61
401.754	130.73
401.963	120.49
402.172	13.99
402.381	42.67
402.59	-51.54
402.799	-4.44
403.008	167.59
403.217	85.67
403.426	124.58
403.635	20.14
403.844	9.9
404.053	57
404.262	67.24
404.471	192.17
404.68	112.3
404.888	65.19
405.097	-53.59
405.306	95.91
405.515	145.06
405.724	18.09
405.933	165.54
406.142	44.71
406.35	165.54
406.559	120.49
406.768	48.81
406.977	149.16
407.185	104.11
407.394	9.9
407.603	-31.06
407.812	79.53
408.02	173.74
408.229	-8.53
408.438	134.82
408.646	-57.68
408.855	114.34
409.064	34.47
409.272	57
409.481	69.29
409.69	28.33
409.898	-35.16
410.107	91.82
410.315	243.37
410.524	-18.77
410.733	67.24
410.941	-14.68
411.15	52.91
411.358	108.2
411.567	155.3
411.775	52.91
411.984	1.71
412.192	36.52
412.401	-39.25
412.609	188.07
412.818	171.69
413.026	110.25
413.234	3.75
413.443	85.67
413.651	38.57
413.86	24.23
414.068	140.97
414.276	190.12
414.485	81.58
414.693	126.63
414.901	157.35
415.11	89.77
415.318	-2.39
415.526	87.72
415.734	130.73
415.943	54.95
416.151	118.44
416.359	20.14
416.567	54.95
416.776	155.3
416.984	130.73
417.192	229.03
417.4	104.11
417.608	46.76
417.817	3.75
418.025	177.83
418.233	200.36
418.441	-74.07
418.649	-35.16
418.857	85.67
419.065	147.11
419.273	-24.92
419.481	155.3
419.689	52.91
419.897	65.19
420.105	13.99
420.313	89.77
420.521	222.89
420.729	175.78
420.937	18.09
421.145	16.04
421.353	171.69
421.561	120.49
421.769	161.45
421.977	18.09
422.185	136.87
422.393	83.63
422.601	167.59
422.809	136.87
423.017	42.67
423.224	73.39
423.432	196.26
423.64	67.24
423.848	163.5
424.056	11.95
424.263	97.96
424.471	-4.44
424.679	192.17
424.887	-39.25
425.094	165.54
425.302	108.2
425.51	138.92
425.718	206.5
425.925	81.58
426.133	57
426.341	161.45
426.548	97.96
426.756	77.48
426.964	153.26
427.171	-43.35
427.379	73.39
427.586	171.69
427.794	145.06
428.001	286.37
428.209	118.44
428.417	226.98
428.624	91.82
428.832	151.21
429.039	112.3
429.247	83.63
429.454	134.82
429.662	286.37
429.869	132.78
430.076	145.06
430.284	126.63
430.491	167.59
430.699	226.98
430.906	237.22
431.114	292.52
431.321	196.26
431.528	143.02
431.736	179.88
431.943	200.36
432.15	155.3
432.358	247.46
432.565	351.91
432.772	-4.44
432.979	237.22
433.187	167.59
433.394	360.1
433.601	204.46
433.808	272.04
434.016	337.57
434.223	278.18
434.43	284.33
434.637	341.67
434.844	417.44
435.052	265.89
435.259	403.11
435.466	339.62
435.673	341.67
435.88	358.05
436.087	368.29
436.294	442.02
436.501	319.14
436.708	382.63
436.915	321.19
437.122	495.27
437.329	327.33
437.537	448.16
437.743	478.88
437.95	470.69
438.157	403.11
438.364	460.45
438.571	448.16
438.778	573.09
438.985	583.33
439.192	538.27
439.399	525.99
439.606	525.99
439.813	657.06
440.02	814.75
440.227	743.07
440.433	704.16
440.64	665.25
440.847	673.44
441.054	657.06
441.261	868
441.467	773.79
441.674	738.98
441.881	958.11
442.088	749.22
442.294	970.4
442.501	1040.03
442.708	1001.12
442.914	1015.45
443.121	1105.56
443.328	1031.83
443.534	1253.02
443.741	1169.05
443.948	1115.8
444.154	1263.26
444.361	1513.11
444.568	1334.93
444.774	1296.02
444.981	1302.17
445.187	1398.42
445.394	1494.68
445.6	1519.25
445.807	1703.57
446.013	1603.22
446.22	1666.71
446.426	1797.78
446.633	1943.18
446.839	2133.64
447.046	1816.21
447.252	2168.46
447.459	2174.6
447.665	2152.07
447.871	2385.54
448.078	2440.84
448.284	2487.94
448.491	2596.48
448.697	2653.83
448.903	2729.6
449.11	2840.19
449.316	2817.66
449.522	2924.16
449.728	3194.49
449.935	3276.41
450.141	3348.09
450.347	3587.7
450.553	3690.1
450.76	3686
450.966	3831.41
451.172	3962.48
451.378	3978.86
451.584	4210.28
451.791	4372.07
451.997	4456.04
452.203	4689.51
452.409	5017.18
452.615	4992.61
452.821	4867.68
453.027	5125.72
453.233	5705.3
453.44	5541.46
453.646	5719.64
453.852	6235.72
454.058	6039.12
454.264	6325.83
454.47	6837.83
454.676	7007.81
454.882	7495.22
455.088	7220.8
455.294	7556.66
455.5	8171.05
455.705	8527.4
455.911	8822.31
456.117	8916.51
456.323	9192.99
456.529	9227.81
456.735	9932.31
456.941	10081.81
457.147	10739.21
457.352	10634.76
457.558	11292.16
457.764	11703.8
457.97	12160.5
458.176	12637.67
458.381	13376.99
458.587	13516.25
458.793	14282.19
458.999	13968.85
459.204	16201.14
459.41	16641.45
459.616	16188.85
459.821	17261.99
460.027	17966.49
460.233	18773.39
460.438	18584.98
460.644	20006.27
460.85	20118.9
461.055	20802.93
461.261	22005.08
461.466	21722.46
461.672	21902.68
461.878	24618.29
462.083	24186.17
462.289	24692.02
462.494	25793.83
462.7	25924.9
462.905	26285.34
463.111	28245.24
463.316	29738.21
463.522	30260.44
463.727	31552.71
463.932	32382.14
464.138	33735.85
464.343	35110.03
464.549	34645.15
464.754	37178.48
464.959	38540.38
465.165	39199.83
465.37	38577.25
465.575	38939.74
465.781	41163.83
465.986	42800.16
466.191	42085.42
466.397	42105.9
466.602	41346.1
466.807	43854.86
467.012	44094.47
467.218	44930.05
467.423	45081.59
467.628	46543.84
467.833	48792.51
468.038	47860.69
468.244	47039.45
468.449	49056.7
468.654	48233.42
468.859	47721.43
469.064	48475.08
469.269	47088.6
469.474	47612.88
469.679	49103.81
469.885	47141.85
470.09	48317.39
470.295	48477.13
470.5	46980.06
470.705	47825.87
470.91	46404.58
471.115	45954.03
471.32	46871.52
471.525	46377.96
471.73	45204.47
471.935	44801.02
472.139	43379.73
472.344	42990.62
472.549	43193.37
472.754	41839.66
472.959	40930.36
473.164	39947.34
473.369	38995.03
473.574	40277.06
473.778	39783.5
473.983	38931.54
474.188	38468.7
474.393	36609.15
474.598	36365.44
474.802	35107.99
475.007	35263.63
475.212	34577.56
475.417	33522.86
475.621	32896.18
475.826	32826.55
476.031	31904.96
476.235	31220.94
476.44	31548.62
476.645	30575.83
476.849	30389.47
477.054	29861.09
477.259	29345
477.463	29218.03
477.668	28288.25
477.872	28310.78
478.077	27409.67
478.282	26803.47
478.486	26330.39
478.691	26322.2
478.895	26000.67
479.1	25851.17
479.304	25703.71
479.509	24943.92
479.713	25085.23
479.918	24872.24
480.122	23717.18
480.326	24094.01
480.531	24030.52
480.735	23500.1
480.94	23422.28
481.144	24104.25
481.348	22885.71
481.553	23016.78
481.757	22259.03
481.961	22732.11
482.166	22930.76
482.37	22361.43
482.574	21884.25
482.778	21671.26
482.983	22105.43
483.187	21755.23
483.391	21665.12
483.595	21359.97
483.8	20868.46
484.004	21235.05
484.208	21165.42
484.412	20583.79
484.616	20432.24
484.821	20565.36
485.025	19701.12
485.229	19664.25
485.433	19379.59
485.637	19211.65
485.841	19045.77
486.045	18570.64
486.249	18587.02
486.453	17954.2
486.657	18242.96
486.861	17759.64
487.065	17159.59
487.269	17200.55
487.473	16674.22
487.677	16844.2
487.881	16836.01
488.085	16244.15
488.289	15949.24
488.493	15336.9
488.697	15486.4
488.901	15021.51
489.105	14781.9
489.309	14644.68
489.512	14204.37
489.716	14130.64
489.92	13802.97
490.124	13489.63
490.328	13616.6
490.531	13344.22
490.735	12922.34
490.939	12623.34
491.143	12350.96
491.346	12103.15
491.55	12033.52
491.754	11861.49
491.958	11625.98
492.161	11527.67
492.365	11359.74
492.569	11122.18
492.772	11015.68
492.976	10878.47
493.18	10759.69
493.383	10624.52
493.587	10358.28
493.79	10442.25
493.994	10184.21
494.197	10188.3
494.401	9952.79
494.605	9958.93
494.808	9862.68
495.012	9739.8
495.215	9750.04
495.419	9698.84
495.622	9395.74
495.825	9285.15
496.029	9322.01
496.232	9307.68
496.436	9264.67
496.639	9315.87
496.843	9295.39
497.046	9328.16
497.249	9596.44
497.453	9186.85
497.656	9367.07
497.859	9166.37
498.063	9256.48
498.266	9602.58
498.469	9276.96
498.673	9395.74
498.876	9358.88
499.079	9477.66
499.282	9457.18
499.485	9723.41
499.689	9621.02
499.892	9645.59
500.095	9528.86
500.298	9862.68
500.501	9704.98
500.705	10008.08
500.908	9956.88
501.111	10030.61
501.314	10233.36
501.517	10427.92
501.72	10411.53
501.923	10221.07
502.126	10466.83
502.329	10833.41
502.532	10720.78
502.735	10972.68
502.938	11279.87
503.141	10987.01
503.344	11247.1
503.547	11365.89
503.75	11427.32
503.953	11668.98
504.156	11937.27
504.359	11984.37
504.562	12082.67
504.765	12402.16
504.968	12443.12
505.17	12742.12
505.373	12815.85
505.576	13147.62
505.779	13137.38
505.982	13280.74
506.185	13813.21
506.387	13903.32
506.59	14190.03
506.793	14368.21
506.996	14673.35
507.198	15181.25
507.401	15166.92
507.604	15586.75
507.807	15914.42
508.009	16205.24
508.212	16459.18
508.415	16919.98
508.617	17272.23
508.82	17554.85
509.022	17577.37
509.225	18281.88
509.428	18556.3
509.63	18810.25
509.833	18890.12
510.035	20012.41
510.238	20077.94
510.44	20426.1
510.643	21333.35
510.845	21532
511.048	21589.35
511.25	22447.44
511.453	22777.17
511.655	23647.55
511.858	23840.06
512.06	24196.41
512.262	24882.48
512.465	25240.87
512.667	26066.2
512.87	26668.31
513.072	26940.69
513.274	28044.54
513.477	28439.8
513.679	29310.19
513.881	29560.04
514.084	30416.09
514.286	30715.09
514.488	31515.85
514.69	32742.58
514.893	32462.01
515.095	33682.6
515.297	34170.02
515.499	34710.68
515.701	35425.42
515.904	36435.07
516.106	37035.13
516.308	37735.53
516.51	38583.39
516.712	39154.77
516.914	40387.65
517.116	41276.47
517.318	41272.37
517.52	42142.76
517.722	42603.55
517.925	43574.29
518.127	44655.62
518.329	45599.73
518.531	45851.63
518.733	46642.15
518.935	47229.91
519.136	48053.2
519.338	49335.23
519.54	49703.86
519.742	50193.32
519.944	51110.81
520.146	52038.54
520.348	52683.65
520.55	52765.57
520.752	53599.1
520.954	54424.43
521.155	54575.98
521.357	55472.99
521.559	55950.16
521.761	56775.5
521.963	56812.36
522.164	57168.71
522.366	57764.67
522.568	58450.73
522.77	58546.99
522.971	59663.13
523.173	59409.18
523.375	59880.22
523.576	59941.66
523.778	60119.83
523.98	60707.6
524.181	60834.57
524.383	60697.36
524.584	61801.21
524.786	61211.4
524.988	61274.88
525.189	61897.47
525.391	61975.29
525.592	62272.24
525.794	62046.97
525.995	62071.54
526.197	61651.71
526.398	61854.46
526.6	61700.86
526.801	61797.12
527.003	61561.6
527.204	61326.08
527.406	61694.72
527.607	60992.26
527.808	60998.41
528.01	59781.91
528.211	59673.37
528.412	60156.69
528.614	60062.49
528.815	59165.48
529.016	59499.29
529.218	58377.01
529.419	58164.02
529.62	57430.85
529.822	56861.51
530.023	56466.25
530.224	56009.56
530.425	55497.56
530.626	54612.84
530.828	53773.17
531.029	54588.27
531.23	53040
531.431	52802.44
531.632	52405.13
531.833	52222.86
532.035	51141.53
532.236	51055.52
532.437	50275.24
532.638	49206.2
532.839	49179.58
533.04	48946.11
533.241	47563.73
533.442	47721.43
533.643	46312.42
533.844	46113.77
534.045	45503.48
534.246	44133.39
534.447	44360.71
534.648	43496.47
534.849	43131.93
535.05	42322.98
535.251	42153
535.451	41440.31
535.652	41075.77
535.853	40121.41
536.054	39976.01
536.255	39535.7
536.456	38317.15
536.657	38558.81
536.857	37960.81
537.058	36920.44
537.259	36609.15
537.46	36504.7
537.66	35691.66
537.861	35511.44
538.062	34888.85
538.263	33756.33
538.463	33815.72
538.664	33445.04
538.865	33115.31
539.065	33252.53
539.266	32310.46
539.466	32064.71
539.667	31481.03
539.868	31368.4
540.068	30727.38
540.269	30401.75
540.469	30022.88
540.67	29717.73
540.87	29197.55
541.071	29013.23
541.271	28581.11
541.472	28722.42
541.672	28220.67
541.873	27325.71
542.073	27073.81
542.274	27520.26
542.474	26832.15
542.675	26369.3
542.875	26402.07
543.075	25802.02
543.276	25607.46
543.476	25781.54
543.676	24896.81
543.877	25054.51
544.077	24696.11
544.277	24466.74
544.478	23954.75
544.678	23801.15
544.878	23694.66
545.078	22992.2
545.279	22791.5
545.479	22650.19
545.679	22377.81
545.879	22017.37
546.079	22013.27
546.28	21773.66
546.48	21341.54
546.68	21331.3
546.88	21063.02
547.08	20587.89
547.28	20331.89
547.48	19893.63
547.68	19998.07
547.88	19848.57
548.081	19561.86
548.281	18976.14
548.481	18828.68
548.681	19109.26
548.881	18468.24
549.081	18236.82
549.28	18044.31
549.48	17753.5
549.68	17720.73
549.88	17769.88
550.08	16852.39
550.28	16922.02
550.48	16932.26
550.68	16688.56
550.88	16367.02
551.08	15840.7
551.279	15803.83
551.479	15306.18
551.679	15543.74
551.879	15248.83
552.079	15025.61
552.278	14769.61
552.478	14581.2
552.678	14089.68
552.878	13893.08
553.077	13729.24
553.277	13338.08
553.477	13553.12
553.676	13221.34
553.876	13157.86
554.076	12733.93
554.275	12586.47
554.475	12371.44
554.674	12410.35
554.874	12178.93
555.074	11931.12
555.273	11585.02
555.473	11523.58
555.672	11329.02
555.872	11054.59
556.071	10966.53
556.271	10905.09
556.47	10700.3
556.67	10206.73
556.869	9987.6
557.068	9940.5
557.268	9901.59
557.467	9809.43
557.667	9420.31
557.866	9506.33
558.065	9178.65
558.265	8977.95
558.464	8896.03
558.663	8781.35
558.863	9037.34
559.062	8574.5
559.261	8234.54
559.461	8455.72
559.66	8054.32
559.859	7978.54
560.058	7810.61
560.258	7704.12
560.457	7673.4
560.656	7654.97
560.855	7206.46
561.054	7403.07
561.253	7099.97
561.453	7181.89
561.652	7065.15
561.851	6884.93
562.05	6710.85
562.249	6585.93
562.448	6590.02
562.647	6331.98
562.846	6327.88
563.045	6354.51
563.244	6217.29
563.443	6127.18
563.642	5965.39
563.841	6008.4
564.04	5795.41
564.239	5836.37
564.438	5555.8
564.637	5514.84
564.836	5523.03
565.035	5379.67
565.234	5246.55
565.432	5127.77
565.631	5025.37
565.83	5119.58
566.029	4847.2
566.228	4865.63
566.427	4937.31
566.625	4640.36
566.824	4736.61
567.023	4632.16
567.222	4691.56
567.42	4583.01
567.619	4413.03
567.818	4372.07
568.016	4564.58
568.215	4220.52
568.414	4202.09
568.612	4255.34
568.811	4054.64
569.01	4195.95
569.208	4013.68
569.407	3937.9
569.605	4032.11
569.804	3911.28
570.002	3802.74
570.201	3630.71
570.4	3595.89
570.598	3554.93
570.797	3509.88
570.995	3384.95
571.193	3214.97
571.392	3430.01
571.59	3223.16
571.789	3272.31
571.987	3366.52
572.186	3298.94
572.384	3167.87
572.582	3010.17
572.781	3182.2
572.979	3010.17
573.177	3090.04
573.376	2979.45
573.574	2868.86
573.772	2852.48
573.971	2719.36
574.169	2526.85
574.367	2686.59
574.565	2653.83
574.763	2573.96
574.962	2596.48
575.16	2477.7
575.358	2576
575.556	2412.17
575.754	2442.89
575.952	2414.21
576.151	2463.37
576.349	2334.34
576.547	2283.14
576.745	2377.35
576.943	2322.06
577.141	2021
577.339	2072.2
577.537	2152.07
577.735	1996.43
577.933	2025.1
578.131	1965.71
578.329	2018.96
578.527	1930.89
578.725	1939.09
578.923	1844.88
579.121	1937.04
579.319	1691.28
579.516	1762.96
579.714	1957.52
579.912	1808.02
580.11	1552.02
580.308	1547.92
580.506	1748.62
580.704	1453.72
580.901	1488.53
581.099	1662.61
581.297	1633.94
581.495	1566.35
581.692	1517.2
581.89	1648.27
582.088	1568.4
582.285	1390.23
582.483	1394.33
582.681	1394.33
582.878	1402.52
583.076	1443.48
583.274	1349.27
583.471	1455.76
583.669	1386.13
583.866	1265.3
584.064	1212.06
584.262	1187.48
584.459	1191.58
584.657	1277.59
584.854	1296.02
585.052	1253.02
585.249	1130.14
585.447	1242.78
585.644	1005.21
585.841	1138.33
586.039	1169.05
586.236	1191.58
586.434	1089.18
586.631	1013.4
586.828	1042.07
587.026	1072.79
587.223	947.87
587.42	997.02
587.618	999.07
587.815	1115.8
588.012	960.16
588.21	951.96
588.407	997.02
588.604	980.64
588.801	841.37
588.999	1003.16
589.196	876.19
589.393	949.92
589.59	931.48
589.787	904.86
589.984	861.85
590.182	855.71
590.379	865.95
590.576	929.44
590.773	874.14
590.97	853.66
591.167	890.53
591.364	810.65
591.561	784.03
591.758	931.48
591.955	822.94
592.152	921.24
592.349	806.56
592.546	820.89
592.743	693.92
592.94	861.85
593.137	861.85
593.334	892.57
593.531	888.48
593.727	837.28
593.924	911
594.121	929.44
594.318	845.47
594.515	925.34
594.712	972.44
594.908	956.06
595.105	677.54
595.302	890.53
595.499	874.14
595.696	990.88
595.892	802.46
596.089	980.64
596.286	976.54
596.482	1003.16
596.679	994.97
596.876	1009.31
597.072	1083.03
597.269	966.3
597.466	1093.27
597.662	1029.79
597.859	1080.99
598.055	1117.85
598.252	1203.86
598.448	1261.21
598.645	1312.41
598.841	1365.65
599.038	1459.86
599.234	1554.07
599.431	1584.79
599.627	1474.2
599.824	1590.93
600.02	1678.99
600.217	1556.11
600.413	1799.82
600.609	1889.93
600.806	2057.87
601.002	1836.69
601.198	1744.53
601.395	2047.63
601.591	2217.61
601.787	2348.68
601.984	2297.48
602.18	2410.12
602.376	2451.08
602.572	2502.28
602.769	2805.38
602.965	2817.66
603.161	2965.12
603.357	2920.06
603.553	3165.82
603.75	3202.68
603.946	3141.24
604.142	3382.9
604.338	3612.28
604.534	3638.9
604.73	3647.09
604.926	3745.39
605.122	3985.01
605.318	3913.33
605.514	4333.16
605.71	4224.62
605.906	4453.99
606.102	4578.92
606.298	4785.76
606.494	4810.34
606.69	5095
606.886	5205.6
607.082	5303.9
607.278	5291.61
607.474	5506.65
607.67	5848.66
607.866	5736.02
608.062	6133.33
608.257	6309.45
608.453	6315.59
608.649	6651.46
608.845	6630.98
609.041	6788.68
609.236	7038.53
609.432	7259.71
609.628	7425.59
609.824	7620.15
610.019	7802.42
610.215	8121.9
610.411	8386.09
610.606	8586.79
610.802	8578.6
610.998	8836.64
611.193	9256.48
611.389	9256.48
611.584	9704.98
611.78	9788.95
611.976	10163.73
612.171	10495.5
612.367	10743.3
612.562	10898.95
612.758	11066.88
612.953	11185.66
613.149	11834.87
613.344	12000.76
613.539	12314.09
613.735	12750.31
613.93	12967.4
614.126	13243.87
614.321	13698.52
614.517	14153.17
614.712	14462.41
614.907	14882.25
615.103	15250.88
615.298	15646.14
615.493	16106.93
615.688	16272.82
615.884	17135.01
616.079	16860.59
616.274	17730.97
616.47	18044.31
616.665	18533.78
616.86	18679.18
617.055	19486.08
617.25	19864.96
617.445	20706.67
617.641	20880.75
617.836	21570.91
618.031	21544.29
618.226	22564.18
618.421	22805.84
618.616	23479.62
618.811	23682.37
619.006	24415.54
619.201	24823.09
619.396	25525.54
619.591	25888.03
619.786	26428.7
619.981	27131.15
620.176	27981.06
620.371	28300.54
620.566	29275.37
620.761	29584.62
620.956	30248.16
621.151	30481.63
621.346	31667.4
621.541	31474.89
621.735	32687.29
621.93	32957.62
622.125	33506.48
622.32	34071.71
622.515	34628.76
622.709	35103.89
622.904	35998.85
623.099	36490.37
623.294	37489.77
623.488	37452.91
623.683	38663.26
623.878	38618.21
624.072	39900.23
624.267	39910.47
624.462	40537.15
624.656	40840.25
624.851	42101.8
625.046	42257.45
625.24	43310.1
625.435	43512.85
625.629	44360.71
625.824	44602.37
626.018	45546.48
626.213	45349.88
626.407	46420.97
626.602	46113.77
626.796	47072.22
626.991	47588.31
627.185	48079.82
627.38	48231.37
627.574	48587.72
627.768	48513.99
627.963	48817.09
628.157	48663.49
628.352	49255.36
628.546	49089.47
628.74	49626.04
628.935	49292.22
629.129	49552.31
629.323	48921.54
629.517	48911.3
629.712	48675.78
629.906	48088.01
630.1	47563.73
630.294	47799.25
630.489	46531.56
630.683	46296.04
630.877	45216.76
631.071	45278.2
631.265	44547.07
631.459	43385.88
631.653	42837.02
631.848	41739.31
632.042	40481.86
632.236	40184.9
632.43	38806.62
632.624	37880.94
632.818	36387.97
633.012	35376.27
633.206	34210.98
633.4	33393.84
633.594	31874.24
633.788	31276.24
633.982	30463.19
634.176	29097.2
634.369	27831.55
634.563	27153.68
634.757	25916.7
634.951	25146.67
635.145	24053.05
635.339	23141.71
635.533	22097.24
635.726	21435.75
635.92	19993.98
636.114	19527.04
636.308	18892.17
636.501	17925.53
636.695	17460.64
636.889	16704.94
637.083	15748.54
637.276	15384
637.47	14482.89
637.664	14054.87
637.857	13303.26
638.051	12987.88
638.244	12445.16
638.438	11881.97
638.632	11441.66
638.825	10907.14
639.019	10665.48
639.212	10241.55
639.406	9815.57
639.599	9346.59
639.793	8994.34
639.986	8678.95
640.18	8474.15
640.373	7943.73
640.567	7595.57
640.76	7403.07
640.954	7274.04
641.147	6805.06
641.34	6616.65
641.534	6329.93
641.727	6245.96
641.92	5998.16
642.114	5725.78
642.307	5305.95
642.5	5217.88
642.694	5013.09
642.887	4742.75
643.08	4646.5
643.273	4605.54
643.467	4228.71
643.66	4179.56
643.853	4042.35
644.046	3724.91
644.239	3702.39
644.432	3491.45
644.626	3333.75
644.819	3337.85
645.012	3153.53
645.205	3137.15
645.398	3010.17
645.591	2758.27
645.784	2633.35
645.977	2600.58
646.17	2621.06
646.363	2463.37
646.556	2287.24
646.749	2272.9
646.942	2064.01
647.135	2125.45
647.328	1980.04
647.521	1994.38
647.714	1822.35
647.907	1828.49
648.099	1660.56
648.292	1703.57
648.485	1715.86
648.678	1527.44
648.871	1390.23
649.064	1408.66
649.256	1324.69
649.449	1291.93
649.642	1242.78
649.835	1193.62
650.027	1076.89
650.22	1179.29
650.413	1097.37
650.605	1154.71
650.798	999.07
650.991	931.48
651.183	1021.6
651.376	904.86
651.568	921.24
651.761	847.52
651.954	921.24
652.146	650.91
652.339	896.67
652.531	757.41
652.724	634.53
652.916	728.74
653.109	552.61
653.301	765.6
653.494	753.31
653.686	544.42
653.879	769.69
654.071	728.74
654.263	548.51
654.456	513.7
654.648	599.71
654.84	573.09
655.033	444.07
655.225	577.19
655.417	442.02
655.61	568.99
655.802	538.27
655.994	581.28
656.186	341.67
656.379	550.56
656.571	464.55
656.763	345.77
656.955	360.1
657.148	376.48
657.34	487.08
657.532	439.97
657.724	368.29
657.916	421.54
658.108	456.36
658.3	278.18
658.492	399.01
658.684	292.52
658.876	392.87
659.068	210.6
659.26	190.12
659.452	237.22
659.644	341.67
659.836	448.16
660.028	353.96
660.22	173.74
660.412	226.98
660.604	263.85
660.796	265.89
660.988	345.77
661.18	274.09
661.372	304.81
661.563	175.78
661.755	224.94
661.947	224.94
662.139	192.17
662.331	251.56
662.522	251.56
662.714	77.48
662.906	173.74
663.097	179.88
663.289	214.7
663.481	87.72
663.673	218.79
663.864	263.85
664.056	272.04
664.247	151.21
664.439	265.89
664.631	202.41
664.822	253.61
665.014	255.65
665.205	198.31
665.397	159.4
665.588	245.41
665.78	149.16
665.971	235.18
666.163	149.16
666.354	276.13
666.546	81.58
666.737	79.53
666.929	85.67
667.12	116.39
667.311	159.4
667.503	143.02
667.694	222.89
667.885	196.26
668.077	233.13
668.268	30.38
668.459	222.89
668.651	159.4
668.842	177.83
669.033	61.1
669.224	50.86
669.416	245.41
669.607	181.93
669.798	7.85
669.989	272.04
670.18	126.63
670.371	220.84
670.563	63.15
670.754	282.28
670.945	202.41
671.136	261.8
671.327	102.06
671.518	212.65
671.709	251.56
671.9	261.8
672.091	214.7
672.282	97.96
672.473	114.34
672.664	198.31
672.855	110.25
673.046	171.69
673.237	126.63
673.428	177.83
673.619	208.55
673.809	69.29
674	267.94
674.191	261.8
674.382	126.63
674.573	147.11
674.764	171.69
674.954	239.27
675.145	136.87
675.336	163.5
675.527	134.82
675.717	183.98
675.908	138.92
676.099	71.34
676.289	151.21
676.48	69.29
676.671	196.26
676.861	71.34
677.052	239.27
677.243	229.03
677.433	104.11
677.624	253.61
677.814	231.08
678.005	175.78
678.195	259.75
678.386	136.87
678.576	171.69
678.767	34.47
678.957	186.02
679.148	218.79
679.338	310.95
679.529	190.12
679.719	204.46
679.909	290.47
680.1	235.18
680.29	200.36
680.481	118.44
680.671	198.31
680.861	200.36
681.052	175.78
681.242	231.08
681.432	239.27
681.622	151.21
681.813	87.72
682.003	177.83
682.193	231.08
682.383	194.22
682.573	128.68
682.764	169.64
682.954	261.8
683.144	263.85
683.334	206.5
683.524	198.31
683.714	272.04
683.904	276.13
684.094	155.3
684.284	192.17
684.474	306.85
684.664	269.99
684.854	198.31
685.044	183.98
685.234	206.5
685.424	190.12
685.614	147.11
685.804	339.62
685.994	245.41
686.184	186.02
686.374	214.7
686.564	214.7
686.753	128.68
686.943	177.83
687.133	181.93
687.323	202.41
687.513	282.28
687.702	198.31
687.892	261.8
688.082	298.66
688.272	278.18
688.461	214.7
688.651	399.01
688.841	284.33
689.03	163.5
689.22	210.6
689.41	313
689.599	315.05
689.789	179.88
689.979	347.81
690.168	261.8
690.358	265.89
690.547	218.79
690.737	198.31
690.926	292.52
691.116	224.94
691.305	269.99
691.495	237.22
691.684	177.83
691.874	200.36
692.063	245.41
692.252	241.32
692.442	265.89
692.631	196.26
692.82	186.02
693.01	186.02
693.199	159.4
693.388	179.88
693.578	134.82
693.767	188.07
693.956	267.94
694.146	179.88
694.335	200.36
694.524	183.98
694.713	231.08
694.902	134.82
695.092	188.07
695.281	163.5
695.47	198.31
695.659	231.08
695.848	204.46
696.037	120.49
696.226	253.61
696.415	183.98
696.604	255.65
696.793	274.09
696.982	118.44
697.171	302.76
697.36	126.63
697.549	208.55
697.738	50.86
697.927	171.69
698.116	181.93
698.305	218.79
698.494	243.37
698.683	134.82
698.872	331.43
699.061	210.6
699.25	147.11
699.438	200.36
699.627	179.88
699.816	284.33
700.005	130.73
700.193	145.06
700.382	288.42
700.571	177.83
700.76	153.26
700.948	157.35
701.137	188.07
701.326	278.18
701.514	157.35
701.703	224.94
701.892	175.78
702.08	327.33
702.269	243.37
702.457	190.12
702.646	183.98
702.834	224.94
703.023	208.55
703.212	245.41
703.4	253.61
703.589	210.6
703.777	173.74
703.965	122.54
704.154	177.83
704.342	85.67
704.531	181.93
704.719	206.5
704.907	294.57
705.096	128.68
705.284	75.43
705.472	167.59
705.661	247.46
705.849	134.82
706.037	235.18
706.226	155.3
706.414	259.75
706.602	179.88
706.79	313
706.979	112.3
707.167	235.18
707.355	83.63
707.543	206.5
707.731	155.3
707.919	181.93
708.107	204.46
708.296	128.68
708.484	106.15
708.672	222.89
708.86	222.89
709.048	296.61
709.236	65.19
709.424	263.85
709.612	179.88
709.8	85.67
709.988	239.27
710.176	288.42
710.364	296.61
710.551	124.58
710.739	116.39
710.927	143.02
711.115	226.98
711.303	231.08
711.491	261.8
711.679	120.49
711.866	165.54
712.054	190.12
712.242	249.51
712.43	278.18
712.617	233.13
712.805	278.18
712.993	186.02
713.181	134.82
713.368	321.19
713.556	163.5
713.744	181.93
713.931	380.58
714.119	259.75
714.306	198.31
714.494	161.45
714.682	118.44
714.869	124.58
715.057	147.11
715.244	140.97
715.432	263.85
715.619	163.5
715.807	179.88
715.994	159.4
716.182	153.26
716.369	288.42
716.556	220.84
716.744	149.16
716.931	97.96
717.119	239.27
717.306	169.64
717.493	192.17
717.681	224.94
717.868	173.74
718.055	259.75
718.242	300.71
718.43	274.09
718.617	278.18
718.804	163.5
718.991	298.66
719.179	200.36
719.366	204.46
719.553	229.03
719.74	149.16
719.927	210.6
720.114	159.4
720.301	128.68
720.488	140.97
720.676	175.78
720.863	331.43
721.05	409.25
721.237	224.94
721.424	241.32
721.611	276.13
721.798	120.49
721.985	186.02
722.172	177.83
722.358	183.98
722.545	306.85
722.732	265.89
722.919	364.2
723.106	243.37
723.293	241.32
723.48	237.22
723.667	181.93
723.853	276.13
724.04	206.5
724.227	239.27
724.414	218.79
724.6	327.33
724.787	292.52
724.974	394.92
725.161	214.7
725.347	130.73
725.534	210.6
725.72	224.94
725.907	267.94
726.094	272.04
726.28	192.17
726.467	202.41
726.653	229.03
726.84	310.95
727.027	403.11
727.213	233.13
727.4	274.09
727.586	200.36
727.773	267.94
727.959	261.8
728.145	343.72
728.332	247.46
728.518	204.46
728.705	294.57
728.891	313
729.077	132.78
729.264	114.34
729.45	237.22
729.636	313
729.823	241.32
730.009	284.33
730.195	224.94
730.382	239.27
730.568	179.88
730.754	218.79
730.94	263.85
731.126	231.08
731.313	319.14
731.499	218.79
731.685	321.19
731.871	241.32
732.057	208.55
732.243	323.24
732.429	302.76
732.615	421.54
732.801	282.28
732.987	192.17
733.173	274.09
733.359	181.93
733.545	188.07
733.731	163.5
733.917	347.81
734.103	310.95
734.289	165.54
734.475	194.22
734.661	390.82
734.847	218.79
735.033	261.8
735.219	245.41
735.404	138.92
735.59	183.98
735.776	222.89
735.962	345.77
736.148	323.24
736.333	341.67
736.519	198.31
736.705	155.3
736.89	239.27
737.076	315.05
737.262	204.46
737.447	183.98
737.633	269.99
737.819	286.37
738.004	218.79
738.19	300.71
738.375	272.04
738.561	329.38
738.747	288.42
738.932	177.83
739.118	405.16
739.303	329.38
739.489	323.24
739.674	87.72
739.859	173.74
740.045	298.66
740.23	298.66
740.416	79.53
740.601	294.57
740.786	210.6
740.972	218.79
741.157	171.69
741.342	120.49
741.528	224.94
741.713	329.38
741.898	231.08
742.084	282.28
742.269	210.6
742.454	321.19
742.639	282.28
742.824	255.65
743.01	351.91
743.195	333.48
743.38	257.7
743.565	241.32
743.75	210.6
743.935	253.61
744.12	384.68
744.305	138.92
744.49	134.82
744.675	310.95
744.86	218.79
745.045	315.05
745.23	233.13
745.415	165.54
745.6	257.7
745.785	274.09
745.97	274.09
746.155	204.46
746.34	386.72
746.525	167.59
746.71	319.14
746.895	159.4
747.079	183.98
747.264	212.65
747.449	339.62
747.634	339.62
747.819	280.23
748.003	202.41
748.188	173.74
748.373	290.47
748.557	292.52
748.742	140.97
748.927	188.07
749.111	145.06
749.296	159.4
749.481	282.28
749.665	143.02
749.85	188.07
750.034	202.41
750.219	243.37
750.404	167.59
750.588	165.54
750.773	157.35
750.957	183.98
751.141	194.22
751.326	220.84
751.51	134.82
751.695	151.21
751.879	261.8
752.064	284.33
752.248	173.74
752.432	321.19
752.617	216.74
752.801	255.65
752.985	130.73
753.17	188.07
753.354	276.13
753.538	147.11
753.722	167.59
753.907	177.83
754.091	65.19
754.275	194.22
754.459	20.14
754.643	122.54
754.828	292.52
755.012	140.97
755.196	83.63
755.38	198.31
755.564	104.11
755.748	204.46
755.932	222.89
756.116	188.07
756.3	239.27
756.484	87.72
756.668	145.06
756.852	9.9
757.036	97.96
757.22	159.4
757.404	20.14
757.588	149.16
757.772	188.07
757.956	198.31
758.14	226.98
758.323	157.35
758.507	120.49
758.691	73.39
758.875	231.08
759.059	188.07
759.242	18.09
759.426	112.3
759.61	77.48
759.794	100.01
759.977	198.31
760.161	327.33
760.345	241.32
760.528	157.35
760.712	165.54
760.895	192.17
761.079	175.78
761.263	44.71
761.446	63.15
761.63	108.2
761.813	261.8
761.997	9.9
762.18	114.34
762.364	124.58
762.547	24.23
762.731	97.96
762.914	149.16
763.098	28.33
763.281	85.67
763.464	75.43
763.648	181.93
763.831	118.44
764.015	61.1
764.198	136.87
764.381	128.68
764.564	136.87
764.748	122.54
764.931	81.58
765.114	108.2
765.297	130.73
765.481	-6.49
765.664	71.34
765.847	52.91
766.03	179.88
766.213	38.57
766.397	163.5
766.58	59.05
766.763	138.92
766.946	167.59
767.129	147.11
767.312	38.57
767.495	75.43
767.678	-0.34
767.861	81.58
768.044	89.77
768.227	77.48
768.41	50.86
768.593	128.68
768.776	134.82
768.959	38.57
769.142	132.78
769.324	73.39
769.507	79.53
769.69	89.77
769.873	102.06
770.056	159.4
770.239	83.63
770.421	165.54
770.604	171.69
770.787	93.87
770.97	85.67
771.152	22.19
771.335	175.78
771.518	-37.2
771.7	97.96
771.883	212.65
772.066	7.85
772.248	151.21
772.431	161.45
772.613	151.21
772.796	81.58
772.978	97.96
773.161	239.27
773.343	34.47
773.526	32.43
773.708	-8.53
773.891	69.29
774.073	50.86
774.256	42.67
774.438	220.84
774.621	-20.82
774.803	136.87
774.985	69.29
775.168	122.54
775.35	79.53
775.532	136.87
775.715	34.47
775.897	153.26
776.079	57
776.261	93.87
776.444	71.34
776.626	34.47
776.808	93.87
776.99	30.38
777.173	63.15
777.355	89.77
777.537	112.3
777.719	153.26
777.901	54.95
778.083	65.19
778.265	-20.82
778.447	87.72
778.629	-20.82
778.811	44.71
778.993	69.29
779.175	239.27
779.357	67.24
779.539	-2.39
779.721	50.86
779.903	57
780.085	69.29
780.267	59.05
780.449	3.75
780.631	128.68
780.812	97.96
780.994	120.49
781.176	63.15
781.358	91.82
781.54	95.91
781.721	132.78
781.903	26.28
782.085	3.75
782.267	85.67
782.448	-57.68
782.63	-24.92
782.812	69.29
782.993	116.39
783.175	108.2
783.357	22.19
783.538	-6.49
783.72	-18.77
783.901	13.99
784.083	106.15
784.264	118.44
784.446	-55.64
784.627	-6.49
784.809	63.15
784.99	28.33
785.172	65.19
785.353	52.91
785.535	34.47
785.716	-41.3
785.897	-0.34
786.079	61.1
786.26	57
786.441	85.67
786.623	-74.07
786.804	52.91
786.985	32.43
787.167	67.24
787.348	22.19
787.529	30.38
787.71	151.21
787.891	132.78
788.073	65.19
788.254	-35.16
788.435	145.06
788.616	40.62
788.797	-16.73
788.978	-12.63
789.159	28.33
789.34	-2.39
789.522	-57.68
789.703	-22.87
789.884	24.23
790.065	-35.16
790.246	175.78
790.427	-8.53
790.607	171.69
790.788	69.29
790.969	-8.53
791.15	-37.2
791.331	-14.68
791.512	34.47
791.693	-67.92
791.874	16.04
792.054	192.17
792.235	97.96
792.416	-10.58
792.597	-20.82
792.778	118.44
792.958	11.95
793.139	46.76
793.32	54.95
793.5	22.19
793.681	114.34
793.862	102.06
794.042	71.34
794.223	-86.36
794.404	5.8
794.584	5.8
794.765	3.75
794.945	-24.92
795.126	38.57
795.306	73.39
795.487	48.81
795.667	-4.44
795.848	50.86
796.028	65.19
796.209	-29.01
796.389	93.87
796.57	-31.06
796.75	26.28
796.93	-20.82
797.111	7.85
797.291	-39.25
797.471	145.06
797.652	-35.16
797.832	-37.2
798.012	73.39
798.192	16.04
798.373	-45.4
798.553	-31.06
798.733	36.52
798.913	-47.44
799.093	30.38
799.274	13.99
799.454	163.5
799.634	118.44
799.814	48.81
799.994	85.67
800.174	118.44
800.354	32.43
800.534	-125.27
800.714	79.53
800.894	-24.92
801.074	1.71
801.254	1.71
801.434	102.06
801.614	-53.59
801.794	1.71
801.974	1769.1
802.154	-0.34
802.334	69.29
802.514	-72.02
802.693	-10.58
802.873	13.99
803.053	93.87
803.233	42.67
803.413	-51.54
803.592	-8.53
803.772	-84.31
803.952	40.62
804.131	-0.34
804.311	140.97
804.491	102.06
804.67	-72.02
804.85	-41.3
805.03	67.24
805.209	100.01
805.389	-86.36
805.568	-69.97
805.748	-33.11
805.928	-29.01
806.107	93.87
806.287	34.47
806.466	59.05
806.646	-8.53
806.825	-41.3
807.004	-33.11
807.184	63.15
807.363	97.96
807.543	112.3
807.722	-16.73
807.901	73.39
808.081	52.91
808.26	-90.45
808.439	59.05
808.619	20.14
808.798	-14.68
808.977	40.62
809.156	54.95
809.336	-24.92
809.515	54.95
809.694	-26.96
809.873	-63.83
810.052	65.19
810.231	122.54
810.411	89.77
810.59	61.1
810.769	24.23
810.948	52.91
811.127	-41.3
811.306	-24.92
811.485	-29.01
811.664	50.86
811.843	79.53
812.022	65.19
812.201	-41.3
812.38	-43.35
812.559	-39.25
812.737	50.86
812.916	-47.44
813.095	-10.58
813.274	13.99
813.453	61.1
813.632	7.85
813.811	48.81
813.989	-69.97
814.168	48.81
814.347	-98.64
814.526	28.33
814.704	124.58
814.883	77.48
815.062	48.81
815.24	65.19
815.419	-92.5
815.598	-63.83
815.776	5.8
815.955	18.09
816.133	-31.06
816.312	32.43
816.49	-14.68
816.669	83.63
816.847	-86.36
817.026	85.67
817.204	-4.44
817.383	3.75
817.561	-0.34
817.74	24.23
817.918	5.8
818.097	-16.73
818.275	-119.12
818.453	-6.49
818.632	126.63
818.81	28.33
818.988	-29.01
819.167	-92.5
819.345	9.9
819.523	-41.3
819.701	-10.58
819.879	67.24
820.058	13.99
820.236	91.82
820.414	-57.68
820.592	-0.34
820.77	28.33
820.948	-20.82
821.127	20.14
821.305	-10.58
821.483	26.28
821.661	59.05
821.839	65.19
822.017	-104.79
822.195	-2.39
822.373	46.76
822.551	16.04
822.729	63.15
822.907	-45.4
823.085	24.23
823.262	24.23
823.44	-43.35
823.618	46.76
823.796	65.19
823.974	-20.82
824.152	-59.73
824.329	18.09
824.507	16.04
824.685	40.62
824.863	22.19
825.04	38.57
825.218	11.95
825.396	9.9
825.574	18.09
825.751	-31.06
825.929	75.43
826.107	-24.92
826.284	13.99
826.462	46.76
826.639	-35.16
826.817	-94.55
826.994	-2.39
827.172	-41.3
827.349	110.25
827.527	18.09
827.704	83.63
827.882	34.47
828.059	3.75
828.237	-18.77
828.414	81.58
828.591	-135.51
828.769	34.47
828.946	-61.78
829.124	87.72
829.301	75.43
829.478	-4.44
829.655	-6.49
829.833	7.85
830.01	-108.88
830.187	22.19
830.364	79.53
830.542	79.53
830.719	112.3
830.896	40.62
831.073	65.19
831.25	9.9
831.427	22.19
831.604	-24.92
831.782	-53.59
831.959	36.52
832.136	52.91
832.313	-35.16
832.49	16.04
832.667	5.8
832.844	-0.34
833.021	40.62
833.198	59.05
833.374	-22.87
833.551	54.95
833.728	-33.11
833.905	57
834.082	-55.64
834.259	11.95
834.436	134.82
834.612	-115.03
834.789	24.23
834.966	3.75
835.143	-41.3
835.319	-57.68
835.496	7.85
835.673	136.87
835.85	54.95
836.026	1.71
836.203	118.44
836.38	-57.68
836.556	-100.69
836.733	-10.58
836.909	188.07
837.086	-45.4
837.262	-53.59
837.439	34.47
837.616	-29.01
837.792	-47.44
837.968	-14.68
838.145	-37.2
838.321	-20.82
838.498	73.39
838.674	65.19
838.851	3.75
839.027	20.14
839.203	-14.68
839.38	36.52
839.556	3.75
839.732	67.24
839.909	-14.68
840.085	22.19
840.261	-102.74
840.437	5.8
840.614	61.1
840.79	24.23
840.966	11.95
841.142	-47.44
841.318	-84.31
841.494	-2.39
841.671	106.15
841.847	-45.4
842.023	-22.87
842.199	-0.34
842.375	100.01
842.551	-147.8
842.727	-106.84
842.903	118.44
843.079	-82.26
843.255	63.15
843.431	-10.58
843.607	48.81
843.783	-125.27
843.959	-39.25
844.134	-63.83
844.31	102.06
844.486	-43.35
844.662	-72.02
844.838	-6.49
845.013	-10.58
845.189	67.24
845.365	-33.11
845.541	-18.77
845.716	-16.73
845.892	24.23
846.068	-108.88
846.244	9.9
846.419	20.14
846.595	-112.98
846.77	-72.02
846.946	57
847.122	26.28
847.297	-69.97
847.473	91.82
847.648	-45.4
847.824	16.04
847.999	-33.11
848.175	11.95
848.35	106.15
848.526	91.82
848.701	13.99
848.876	93.87
849.052	106.15
849.227	5.8
849.403	11.95
849.578	-84.31
849.753	-4.44
849.929	11.95
850.104	-110.93
850.279	-47.44
850.454	20.14
850.63	157.35
850.805	102.06
850.98	50.86
851.155	-69.97
851.33	85.67
851.505	-31.06
851.681	118.44
851.856	-57.68
852.031	67.24
852.206	9.9
852.381	-82.26
852.556	9.9
852.731	57
852.906	9.9
853.081	9.9
853.256	97.96
853.431	-53.59
853.606	-98.64
853.781	-117.08
853.956	-106.84
854.131	-33.11
854.305	28.33
854.48	-8.53
854.655	-8.53
854.83	-26.96
855.005	-53.59
855.18	-31.06
855.354	36.52
855.529	57
855.704	-33.11
855.879	22.19
856.053	-61.78
856.228	1.71
856.403	-31.06
856.577	13.99
856.752	-78.16
856.926	-20.82
857.101	-10.58
857.276	-125.27
857.45	11.95
857.625	69.29
857.799	20.14
857.974	-0.34
858.148	-74.07
858.323	-31.06
858.497	-47.44
858.672	-51.54
858.846	-31.06
859.02	69.29
859.195	-84.31
859.369	-33.11
859.543	-8.53
859.718	-16.73
859.892	-2.39
860.066	11.95
860.241	-98.64
860.415	-10.58
860.589	9.9
860.763	-112.98
860.938	28.33
861.112	93.87
861.286	-94.55
861.46	1.71
861.634	-16.73
861.808	46.76
861.982	-96.6
862.157	-119.12
862.331	-61.78
862.505	-135.51
862.679	-110.93
862.853	-12.63
863.027	18.09
863.201	130.73
863.375	-67.92
863.549	65.19
863.722	26.28
863.896	93.87
864.07	-108.88
864.244	5.8
864.418	57
864.592	57
864.766	16.04
864.939	40.62
865.113	-41.3
865.287	161.45
865.461	-53.59
865.634	13.99
865.808	-98.64
865.982	-51.54
866.156	-47.44
866.329	-43.35
866.503	-12.63
866.676	18.09
866.85	57
867.024	-37.2
867.197	57
867.371	24.23
867.544	48.81
867.718	-96.6
867.891	52.91
868.065	-74.07
868.238	-8.53
868.412	3.75
868.585	16.04
868.759	-55.64
868.932	-16.73
869.105	-106.84
869.279	-12.63
869.452	-20.82
869.625	18.09
869.799	-41.3
869.972	-26.96
870.145	-57.68
870.319	59.05
870.492	-37.2
870.665	-20.82
870.838	-10.58
871.011	-149.84
871.185	-78.16
871.358	-2.39
871.531	-45.4
871.704	-143.7
871.877	-41.3
872.05	18.09
872.223	-127.32
872.396	69.29
872.569	59.05
872.742	-84.31
872.915	75.43
873.088	-47.44
873.261	-84.31
873.434	-22.87
873.607	-35.16
873.78	38.57
873.953	-78.16
874.126	40.62
874.299	46.76
874.471	-53.59
874.644	-45.4
874.817	61.1
874.99	153.26
875.163	-16.73
875.335	-41.3
875.508	-43.35
875.681	89.77
875.853	32.43
876.026	-8.53
876.199	59.05
876.371	46.76
876.544	-20.82
876.717	-78.16
876.889	-33.11
877.062	97.96
877.234	-69.97
877.407	-35.16
877.579	65.19
877.752	79.53
877.924	91.82
878.097	67.24
878.269	124.58
878.442	-43.35
878.614	44.71
878.786	30.38
878.959	-51.54
879.131	-45.4
879.303	-57.68
879.476	-0.34
879.648	46.76
879.82	-20.82
879.993	-4.44
880.165	-88.4
880.337	-53.59
880.509	22.19
880.681	-115.03
880.854	-18.77
881.026	30.38
881.198	134.82
881.37	26.28
881.542	63.15
881.714	20.14
881.886	-39.25
882.058	34.47
882.23	32.43
882.402	-76.12
882.574	44.71
882.746	42.67
882.918	63.15
883.09	24.23
883.262	-45.4
883.434	-14.68
883.606	-49.49
883.778	13.99
883.95	106.15
884.122	-98.64
884.293	71.34
884.465	83.63
884.637	54.95
884.809	-35.16
884.98	95.91
885.152	-39.25
885.324	11.95
885.496	-47.44
885.667	-0.34
885.839	-12.63
886.011	85.67
886.182	40.62
886.354	13.99
886.525	42.67
886.697	-31.06
886.869	-112.98
887.04	-10.58
887.212	77.48
887.383	165.54
887.555	11.95
887.726	-104.79
887.897	16.04
888.069	-51.54
888.24	59.05
888.412	-35.16
888.583	-121.17
888.754	-24.92
888.926	-119.12
889.097	-29.01
889.268	-69.97
889.44	9.9
889.611	-110.93
889.782	-108.88
889.953	-84.31
890.125	167.59
890.296	-147.8
890.467	-51.54
890.638	-39.25
890.809	-53.59
890.98	-80.21
891.151	-51.54
891.323	108.2
891.494	1.71
891.665	-12.63
891.836	-18.77
892.007	-33.11
892.178	-8.53
892.349	28.33
892.52	-82.26
892.691	-2.39
892.862	26.28
893.032	-133.46
893.203	-63.83
893.374	32.43
893.545	73.39
893.716	-37.2
893.887	-16.73
894.057	-24.92
894.228	42.67
894.399	-22.87
894.57	-0.34
894.74	-6.49
894.911	3.75
895.082	-14.68
895.253	-49.49
895.423	7.85
895.594	28.33
895.764	48.81
895.935	-69.97
896.106	-33.11
896.276	-65.88
896.447	36.52
896.617	-86.36
896.788	-82.26
896.958	-37.2
897.129	5.8
897.299	-137.56
897.47	106.15
897.64	9.9
897.81	40.62
897.981	65.19
898.151	-20.82
898.322	-20.82
898.492	20.14
898.662	-123.22
898.832	-108.88
899.003	-86.36
899.173	-47.44
899.343	-88.4
899.513	-67.92
