Data from USB4F104151__204__11-05-38-830.txt Node

Date: Wed Feb 26 11:05:38 EST 2025
User: louis
Spectrometer: USB4F10415
Trigger mode: 4
Integration Time (sec): 1.000000E-1
Scans to average: 1
Electric dark correction enabled: true
Nonlinearity correction enabled: false
Boxcar width: 0
XAxis mode: Wavelengths
Number of Pixels in Spectrum: 3648
>>>>>Begin Spectral Data<<<<<
178.204	-425.64
178.424	-425.64
178.644	-425.64
178.864	-423.59
179.084	-446.12
179.304	-40.62
179.524	0.34
179.744	100.69
179.964	22.87
180.184	18.77
180.404	-36.52
180.624	-7.85
180.844	26.96
181.064	-32.43
181.283	57.68
181.503	-143.02
181.723	33.11
181.943	-73.39
182.163	239.95
182.383	55.64
182.602	61.78
182.822	209.23
183.042	108.88
183.262	-9.9
183.482	12.63
183.701	39.25
183.921	67.92
184.141	-83.63
184.361	88.4
184.58	76.12
184.8	24.92
185.02	-16.04
185.239	33.11
185.459	74.07
185.679	168.27
185.898	0.34
186.118	80.21
186.338	112.98
186.557	117.08
186.777	-20.14
186.997	-13.99
187.216	12.63
187.436	221.52
187.655	2.39
187.875	123.22
188.095	31.06
188.314	127.32
188.534	67.92
188.753	-63.15
188.973	137.56
189.192	61.78
189.412	45.4
189.631	-28.33
189.851	43.35
190.07	135.51
190.29	-16.04
190.509	-26.28
190.729	-22.19
190.948	129.36
191.168	266.58
191.387	106.84
191.607	-16.04
191.826	106.84
192.045	-13.99
192.265	-1.71
192.484	82.26
192.704	51.54
192.923	-73.39
193.142	141.65
193.362	57.68
193.581	137.56
193.8	96.6
194.02	65.88
194.239	35.16
194.458	43.35
194.678	-71.34
194.897	2.39
195.116	63.83
195.335	45.4
195.555	76.12
195.774	-3.75
195.993	127.32
196.212	59.73
196.432	33.11
196.651	-22.19
196.87	-22.19
197.089	274.77
197.308	22.87
197.528	133.46
197.747	6.49
197.966	106.84
198.185	43.35
198.404	-40.62
198.623	162.13
198.842	90.45
199.062	119.12
199.281	112.98
199.5	47.44
199.719	14.68
199.938	16.73
200.157	110.93
200.376	135.51
200.595	74.07
200.814	20.82
201.033	20.82
201.252	129.36
201.471	49.49
201.69	121.17
201.909	37.2
202.128	149.84
202.347	10.58
202.566	2.39
202.785	-24.23
203.004	-59.05
203.223	252.24
203.442	84.31
203.661	-110.25
203.879	78.16
204.098	123.22
204.317	-77.48
204.536	41.3
204.755	55.64
204.974	72.02
205.193	31.06
205.411	125.27
205.63	119.12
205.849	72.02
206.068	55.64
206.287	-54.95
206.505	227.67
206.724	41.3
206.943	2.39
207.162	-3.75
207.381	121.17
207.599	-28.33
207.818	55.64
208.037	35.16
208.255	84.31
208.474	24.92
208.693	115.03
208.911	-36.52
209.13	92.5
209.349	147.8
209.567	47.44
209.786	51.54
210.005	147.8
210.223	72.02
210.442	-63.15
210.661	-9.9
210.879	-16.04
211.098	8.53
211.316	106.84
211.535	-3.75
211.753	31.06
211.972	49.49
212.191	-13.99
212.409	-38.57
212.628	37.2
212.846	-46.76
213.065	24.92
213.283	41.3
213.502	45.4
213.72	26.96
213.938	22.87
214.157	-24.23
214.375	51.54
214.594	72.02
214.812	43.35
215.031	26.96
215.249	92.5
215.467	10.58
215.686	33.11
215.904	137.56
216.122	20.82
216.341	178.51
216.559	59.73
216.778	174.42
216.996	178.51
217.214	12.63
217.432	-7.85
217.651	-83.63
217.869	74.07
218.087	29.01
218.306	-3.75
218.524	57.68
218.742	33.11
218.96	149.84
219.179	24.92
219.397	121.17
219.615	205.14
219.833	155.99
220.051	-38.57
220.27	121.17
220.488	133.46
220.706	108.88
220.924	-20.14
221.142	-54.95
221.36	10.58
221.578	47.44
221.796	-38.57
222.015	-7.85
222.233	37.2
222.451	182.61
222.669	55.64
222.887	102.74
223.105	-63.15
223.323	80.21
223.541	-65.19
223.759	45.4
223.977	2.39
224.195	135.51
224.413	139.6
224.631	18.77
224.849	-1.71
225.067	256.34
225.285	6.49
225.503	37.2
225.721	-100.01
225.939	20.82
226.157	74.07
226.375	203.09
226.592	-54.95
226.81	-100.01
227.028	102.74
227.246	43.35
227.464	90.45
227.682	67.92
227.9	67.92
228.117	78.16
228.335	0.34
228.553	55.64
228.771	6.49
228.989	96.6
229.206	106.84
229.424	10.58
229.642	22.87
229.86	-38.57
230.077	201.04
230.295	12.63
230.513	121.17
230.731	-48.81
230.948	201.04
231.166	176.47
231.384	-32.43
231.601	10.58
231.819	151.89
232.037	41.3
232.254	-48.81
232.472	117.08
232.689	18.77
232.907	74.07
233.125	-5.8
233.342	-36.52
233.56	8.53
233.777	55.64
233.995	-26.28
234.213	94.55
234.43	55.64
234.648	2.39
234.865	-11.95
235.083	47.44
235.3	26.96
235.518	53.59
235.735	133.46
235.953	112.98
236.17	37.2
236.388	41.3
236.605	33.11
236.822	125.27
237.04	180.56
237.257	-7.85
237.475	-71.34
237.692	78.16
237.909	67.92
238.127	16.73
238.344	43.35
238.562	22.87
238.779	20.82
238.996	24.92
239.214	45.4
239.431	115.03
239.648	6.49
239.865	149.84
240.083	110.93
240.3	-3.75
240.517	-20.14
240.735	51.54
240.952	135.51
241.169	43.35
241.386	82.26
241.603	110.93
241.821	0.34
242.038	168.27
242.255	115.03
242.472	-13.99
242.689	39.25
242.907	43.35
243.124	-24.23
243.341	55.64
243.558	-16.04
243.775	-30.38
243.992	-81.58
244.209	164.18
244.426	205.14
244.643	76.12
244.86	-30.38
245.078	125.27
245.295	39.25
245.512	10.58
245.729	-9.9
245.946	31.06
246.163	18.77
246.38	108.88
246.597	80.21
246.814	76.12
247.031	88.4
247.248	39.25
247.464	39.25
247.681	65.88
247.898	72.02
248.115	80.21
248.332	-3.75
248.549	106.84
248.766	106.84
248.983	98.64
249.2	24.92
249.417	98.64
249.633	-26.28
249.85	69.97
250.067	90.45
250.284	82.26
250.501	69.97
250.717	31.06
250.934	-85.67
251.151	69.97
251.368	-11.95
251.585	92.5
251.801	22.87
252.018	-71.34
252.235	102.74
252.451	-1.71
252.668	6.49
252.885	84.31
253.102	33.11
253.318	18.77
253.535	63.83
253.752	-1.71
253.968	72.02
254.185	-28.33
254.401	29.01
254.618	92.5
254.835	-34.47
255.051	164.18
255.268	133.46
255.484	45.4
255.701	84.31
255.917	57.68
256.134	10.58
256.351	74.07
256.567	-20.14
256.784	35.16
257	-5.8
257.217	57.68
257.433	72.02
257.65	33.11
257.866	135.51
258.082	-104.11
258.299	8.53
258.515	-13.99
258.732	-36.52
258.948	10.58
259.165	29.01
259.381	-7.85
259.597	98.64
259.814	61.78
260.03	57.68
260.246	57.68
260.463	53.59
260.679	108.88
260.895	14.68
261.112	137.56
261.328	-24.23
261.544	8.53
261.761	137.56
261.977	6.49
262.193	-38.57
262.409	139.6
262.626	94.55
262.842	-3.75
263.058	33.11
263.274	155.99
263.49	117.08
263.707	74.07
263.923	106.84
264.139	-36.52
264.355	39.25
264.571	215.38
264.787	59.73
265.004	115.03
265.22	63.83
265.436	-9.9
265.652	-38.57
265.868	51.54
266.084	-50.86
266.3	26.96
266.516	-44.71
266.732	96.6
266.948	98.64
267.164	-57
267.38	78.16
267.596	125.27
267.812	244.05
268.028	4.44
268.244	31.06
268.46	31.06
268.676	2.39
268.892	45.4
269.108	20.82
269.324	-44.71
269.54	-22.19
269.756	76.12
269.972	-79.53
270.188	4.44
270.403	-79.53
270.619	33.11
270.835	57.68
271.051	53.59
271.267	10.58
271.483	67.92
271.698	35.16
271.914	102.74
272.13	51.54
272.346	-16.04
272.562	80.21
272.777	112.98
272.993	-26.28
273.209	43.35
273.425	92.5
273.64	26.96
273.856	125.27
274.072	-106.15
274.287	20.82
274.503	125.27
274.719	88.4
274.934	-11.95
275.15	-28.33
275.366	16.73
275.581	-128.68
275.797	-9.9
276.012	43.35
276.228	69.97
276.444	-54.95
276.659	182.61
276.875	0.34
277.09	-13.99
277.306	10.58
277.521	39.25
277.737	47.44
277.952	112.98
278.168	39.25
278.383	117.08
278.599	0.34
278.814	65.88
279.03	-48.81
279.245	143.7
279.461	67.92
279.676	115.03
279.892	-79.53
280.107	-18.09
280.322	-42.67
280.538	22.87
280.753	24.92
280.969	69.97
281.184	47.44
281.399	90.45
281.615	53.59
281.83	147.8
282.045	-32.43
282.26	-44.71
282.476	106.84
282.691	80.21
282.906	76.12
283.122	43.35
283.337	14.68
283.552	92.5
283.767	-7.85
283.983	96.6
284.198	26.96
284.413	112.98
284.628	8.53
284.843	24.92
285.058	63.83
285.274	18.77
285.489	-16.04
285.704	129.36
285.919	-5.8
286.134	-9.9
286.349	-44.71
286.564	-18.09
286.779	86.36
286.995	-48.81
287.21	-11.95
287.425	57.68
287.64	39.25
287.855	31.06
288.07	-24.23
288.285	80.21
288.5	94.55
288.715	74.07
288.93	55.64
289.145	-59.05
289.36	69.97
289.575	29.01
289.79	127.32
290.004	-9.9
290.219	55.64
290.434	-24.23
290.649	39.25
290.864	98.64
291.079	31.06
291.294	55.64
291.509	125.27
291.724	29.01
291.938	-44.71
292.153	33.11
292.368	121.17
292.583	96.6
292.798	76.12
293.012	106.84
293.227	59.73
293.442	47.44
293.657	92.5
293.871	47.44
294.086	108.88
294.301	211.28
294.516	94.55
294.73	72.02
294.945	-102.06
295.16	-30.38
295.374	125.27
295.589	51.54
295.804	-22.19
296.018	131.41
296.233	49.49
296.447	94.55
296.662	-69.29
296.877	141.65
297.091	26.96
297.306	-9.9
297.52	59.73
297.735	117.08
297.949	65.88
298.164	35.16
298.378	53.59
298.593	-11.95
298.807	26.96
299.022	-57
299.236	158.03
299.451	-30.38
299.665	-13.99
299.88	39.25
300.094	39.25
300.309	57.68
300.523	102.74
300.737	26.96
300.952	88.4
301.166	33.11
301.381	10.58
301.595	-40.62
301.809	39.25
302.024	-22.19
302.238	31.06
302.452	121.17
302.667	22.87
302.881	115.03
303.095	205.14
303.309	39.25
303.524	47.44
303.738	76.12
303.952	-75.43
304.166	123.22
304.381	-97.96
304.595	106.84
304.809	2.39
305.023	61.78
305.237	59.73
305.452	4.44
305.666	102.74
305.88	98.64
306.094	112.98
306.308	26.96
306.522	88.4
306.736	61.78
306.95	147.8
307.164	2.39
307.379	-93.87
307.593	176.47
307.807	125.27
308.021	63.83
308.235	94.55
308.449	-91.82
308.663	-22.19
308.877	201.04
309.091	45.4
309.305	78.16
309.519	-140.97
309.733	186.71
309.947	-16.04
310.161	174.42
310.374	76.12
310.588	108.88
310.802	-16.04
311.016	-63.15
311.23	127.32
311.444	0.34
311.658	33.11
311.872	108.88
312.085	121.17
312.299	158.03
312.513	65.88
312.727	37.2
312.941	-11.95
313.154	26.96
313.368	-44.71
313.582	-1.71
313.796	31.06
314.009	47.44
314.223	133.46
314.437	110.93
314.651	125.27
314.864	35.16
315.078	-67.24
315.292	-48.81
315.505	16.73
315.719	84.31
315.933	84.31
316.146	-71.34
316.36	-85.67
316.573	188.75
316.787	86.36
317.001	49.49
317.214	-7.85
317.428	33.11
317.641	31.06
317.855	37.2
318.068	29.01
318.282	63.83
318.495	192.85
318.709	57.68
318.922	63.83
319.136	100.69
319.349	92.5
319.563	-13.99
319.776	65.88
319.99	-85.67
320.203	84.31
320.417	6.49
320.63	188.75
320.843	80.21
321.057	55.64
321.27	31.06
321.483	186.71
321.697	92.5
321.91	2.39
322.124	69.97
322.337	41.3
322.55	-5.8
322.763	-18.09
322.977	72.02
323.19	55.64
323.403	104.79
323.617	43.35
323.83	61.78
324.043	4.44
324.256	98.64
324.469	-97.96
324.683	94.55
324.896	14.68
325.109	51.54
325.322	-79.53
325.535	14.68
325.748	26.96
325.962	-9.9
326.175	10.58
326.388	106.84
326.601	117.08
326.814	4.44
327.027	55.64
327.24	102.74
327.453	-36.52
327.666	108.88
327.879	186.71
328.092	92.5
328.305	92.5
328.518	26.96
328.731	31.06
328.944	26.96
329.157	82.26
329.37	20.82
329.583	149.84
329.796	125.27
330.009	-26.28
330.222	117.08
330.435	94.55
330.648	82.26
330.861	67.92
331.073	-11.95
331.286	51.54
331.499	18.77
331.712	2.39
331.925	-46.76
332.138	53.59
332.35	69.97
332.563	-26.28
332.776	74.07
332.989	-85.67
333.202	10.58
333.414	4.44
333.627	-13.99
333.84	-13.99
334.053	41.3
334.265	-46.76
334.478	4.44
334.691	41.3
334.903	106.84
335.116	10.58
335.329	74.07
335.541	153.94
335.754	188.75
335.966	-34.47
336.179	43.35
336.392	14.68
336.604	-7.85
336.817	31.06
337.029	53.59
337.242	59.73
337.454	139.6
337.667	-16.04
337.88	53.59
338.092	108.88
338.305	63.83
338.517	-38.57
338.729	49.49
338.942	98.64
339.154	-13.99
339.367	-13.99
339.579	39.25
339.792	-46.76
340.004	90.45
340.217	92.5
340.429	0.34
340.641	-48.81
340.854	-13.99
341.066	-5.8
341.278	115.03
341.491	186.71
341.703	-9.9
341.915	4.44
342.128	80.21
342.34	22.87
342.552	51.54
342.764	-3.75
342.977	8.53
343.189	76.12
343.401	41.3
343.613	-9.9
343.826	22.87
344.038	-102.06
344.25	22.87
344.462	-42.67
344.674	49.49
344.886	53.59
345.099	82.26
345.311	160.08
345.523	10.58
345.735	-136.87
345.947	76.12
346.159	119.12
346.371	53.59
346.583	61.78
346.795	203.09
347.007	-57
347.219	61.78
347.431	61.78
347.643	94.55
347.855	-40.62
348.067	158.03
348.279	0.34
348.491	55.64
348.703	129.36
348.915	78.16
349.127	14.68
349.339	4.44
349.551	41.3
349.763	24.92
349.975	-9.9
350.187	102.74
350.399	164.18
350.61	43.35
350.822	47.44
351.034	41.3
351.246	162.13
351.458	92.5
351.669	-11.95
351.881	69.97
352.093	-9.9
352.305	100.69
352.517	78.16
352.728	78.16
352.94	102.74
353.152	61.78
353.363	2.39
353.575	14.68
353.787	194.9
353.999	53.59
354.21	119.12
354.422	-79.53
354.633	22.87
354.845	43.35
355.057	104.79
355.268	24.92
355.48	94.55
355.692	-28.33
355.903	78.16
356.115	-28.33
356.326	47.44
356.538	135.51
356.749	41.3
356.961	106.84
357.172	55.64
357.384	-71.34
357.595	209.23
357.807	14.68
358.018	-24.23
358.23	-24.23
358.441	186.71
358.653	57.68
358.864	0.34
359.075	-20.14
359.287	26.96
359.498	90.45
359.709	133.46
359.921	39.25
360.132	74.07
360.344	72.02
360.555	6.49
360.766	82.26
360.977	-38.57
361.189	22.87
361.4	-24.23
361.611	102.74
361.823	80.21
362.034	-32.43
362.245	-61.1
362.456	39.25
362.667	82.26
362.879	-102.06
363.09	-9.9
363.301	16.73
363.512	33.11
363.723	-79.53
363.935	59.73
364.146	35.16
364.357	-18.09
364.568	-3.75
364.779	-57
364.99	94.55
365.201	-1.71
365.412	100.69
365.623	-97.96
365.834	67.92
366.045	86.36
366.256	53.59
366.467	110.93
366.678	4.44
366.889	31.06
367.1	8.53
367.311	158.03
367.522	-11.95
367.733	47.44
367.944	57.68
368.155	43.35
368.366	82.26
368.577	172.37
368.788	74.07
368.999	-22.19
369.209	49.49
369.42	186.71
369.631	260.43
369.842	137.56
370.053	-7.85
370.264	137.56
370.474	41.3
370.685	35.16
370.896	16.73
371.107	96.6
371.317	41.3
371.528	47.44
371.739	112.98
371.95	141.65
372.16	74.07
372.371	-1.71
372.582	31.06
372.792	84.31
373.003	65.88
373.214	100.69
373.424	61.78
373.635	2.39
373.846	57.68
374.056	-11.95
374.267	24.92
374.477	41.3
374.688	20.82
374.898	106.84
375.109	20.82
375.319	72.02
375.53	92.5
375.74	100.69
375.951	92.5
376.161	67.92
376.372	143.7
376.582	24.92
376.793	92.5
377.003	4.44
377.214	18.77
377.424	53.59
377.635	80.21
377.845	6.49
378.055	217.43
378.266	-95.91
378.476	26.96
378.686	76.12
378.897	84.31
379.107	158.03
379.317	55.64
379.528	-18.09
379.738	18.77
379.948	-30.38
380.158	147.8
380.369	131.41
380.579	43.35
380.789	67.92
380.999	-1.71
381.21	119.12
381.42	143.7
381.63	74.07
381.84	96.6
382.05	123.22
382.261	119.12
382.471	121.17
382.681	24.92
382.891	162.13
383.101	104.79
383.311	-34.47
383.521	-9.9
383.731	100.69
383.941	88.4
384.151	-42.67
384.361	-48.81
384.571	86.36
384.781	90.45
384.991	201.04
385.201	211.28
385.411	100.69
385.621	106.84
385.831	51.54
386.041	0.34
386.251	24.92
386.461	115.03
386.671	55.64
386.881	69.97
387.091	39.25
387.301	72.02
387.511	12.63
387.72	76.12
387.93	168.27
388.14	-46.76
388.35	20.82
388.56	131.41
388.769	151.89
388.979	84.31
389.189	-54.95
389.399	-32.43
389.609	166.23
389.818	153.94
390.028	82.26
390.238	45.4
390.447	-65.19
390.657	55.64
390.867	6.49
391.076	-52.91
391.286	59.73
391.496	-100.01
391.705	31.06
391.915	205.14
392.125	61.78
392.334	14.68
392.544	125.27
392.753	123.22
392.963	76.12
393.172	33.11
393.382	-28.33
393.591	237.91
393.801	33.11
394.01	139.6
394.22	100.69
394.429	115.03
394.639	65.88
394.848	47.44
395.058	6.49
395.267	39.25
395.477	65.88
395.686	8.53
395.895	244.05
396.105	227.67
396.314	39.25
396.524	-28.33
396.733	10.58
396.942	143.7
397.152	112.98
397.361	94.55
397.57	72.02
397.78	67.92
397.989	166.23
398.198	145.75
398.407	-26.28
398.617	129.36
398.826	63.83
399.035	8.53
399.244	166.23
399.453	-40.62
399.663	10.58
399.872	16.73
400.081	-24.23
400.29	88.4
400.499	31.06
400.708	72.02
400.917	131.41
401.127	12.63
401.336	-40.62
401.545	180.56
401.754	104.79
401.963	0.34
402.172	22.87
402.381	-42.67
402.59	45.4
402.799	-18.09
403.008	115.03
403.217	45.4
403.426	82.26
403.635	-5.8
403.844	43.35
404.053	2.39
404.262	45.4
404.471	139.6
404.68	59.73
404.888	6.49
405.097	20.82
405.306	61.78
405.515	108.88
405.724	4.44
405.933	145.75
406.142	26.96
406.35	53.59
406.559	8.53
406.768	-1.71
406.977	160.08
407.185	145.75
407.394	129.36
407.603	-3.75
407.812	18.77
408.02	155.99
408.229	20.82
408.438	29.01
408.646	-9.9
408.855	-32.43
409.064	123.22
409.272	67.92
409.481	125.27
409.69	-34.47
409.898	33.11
410.107	45.4
410.315	164.18
410.524	18.77
410.733	49.49
410.941	59.73
411.15	92.5
411.358	92.5
411.567	115.03
411.775	6.49
411.984	63.83
412.192	84.31
412.401	-69.29
412.609	211.28
412.818	172.37
413.026	94.55
413.234	33.11
413.443	104.79
413.651	8.53
413.86	33.11
414.068	98.64
414.276	215.38
414.485	-18.09
414.693	225.62
414.901	170.32
415.11	117.08
415.318	24.92
415.526	39.25
415.734	61.78
415.943	63.83
416.151	153.94
416.359	12.63
416.567	65.88
416.776	127.32
416.984	92.5
417.192	158.03
417.4	47.44
417.608	59.73
417.817	43.35
418.025	80.21
418.233	182.61
418.441	33.11
418.649	-1.71
418.857	-3.75
419.065	164.18
419.273	10.58
419.481	88.4
419.689	55.64
419.897	10.58
420.105	-50.86
420.313	160.08
420.521	180.56
420.729	82.26
420.937	53.59
421.145	-81.58
421.353	94.55
421.561	137.56
421.769	53.59
421.977	16.73
422.185	63.83
422.393	29.01
422.601	129.36
422.809	35.16
423.017	55.64
423.224	137.56
423.432	147.8
423.64	80.21
423.848	59.73
424.056	0.34
424.263	176.47
424.471	80.21
424.679	104.79
424.887	-30.38
425.094	192.85
425.302	174.42
425.51	-5.8
425.718	145.75
425.925	90.45
426.133	-24.23
426.341	213.33
426.548	24.92
426.756	59.73
426.964	112.98
427.171	-26.28
427.379	164.18
427.586	106.84
427.794	184.66
428.001	172.37
428.209	133.46
428.417	153.94
428.624	100.69
428.832	141.65
429.039	86.36
429.247	72.02
429.454	145.75
429.662	268.63
429.869	172.37
430.076	98.64
430.284	160.08
430.491	166.23
430.699	123.22
430.906	151.89
431.114	194.9
431.321	149.84
431.528	145.75
431.736	188.75
431.943	123.22
432.15	168.27
432.358	266.58
432.565	231.76
432.772	53.59
432.979	155.99
433.187	180.56
433.394	223.57
433.601	100.69
433.808	264.53
434.016	248.15
434.223	225.62
434.43	231.76
434.637	311.63
434.844	256.34
435.052	145.75
435.259	285.01
435.466	344.4
435.673	368.98
435.88	352.59
436.087	438.61
436.294	344.4
436.501	416.08
436.708	297.3
436.915	313.68
437.122	401.74
437.329	348.5
437.537	350.54
437.743	385.36
437.95	594.25
438.157	485.71
438.364	389.46
438.571	495.95
438.778	565.58
438.985	565.58
439.192	506.19
439.399	463.18
439.606	579.92
439.813	590.16
440.02	739.66
440.227	721.23
440.433	590.16
440.64	674.12
440.847	618.83
441.054	729.42
441.261	778.57
441.467	788.81
441.674	770.38
441.881	833.86
442.088	723.27
442.294	762.19
442.501	864.58
442.708	936.26
442.914	905.54
443.121	1071.43
443.328	1040.71
443.534	1046.85
443.741	1069.38
443.948	1032.52
444.154	1157.44
444.361	1370.43
444.568	1157.44
444.774	1251.65
444.981	1169.73
445.187	1280.32
445.394	1386.82
445.6	1343.81
445.807	1689.92
446.013	1440.06
446.22	1509.69
446.426	1655.1
446.633	1710.4
446.839	1886.52
447.046	1665.34
447.252	2021.69
447.459	1855.8
447.665	1829.18
447.871	2040.12
448.078	2263.35
448.284	2251.06
448.491	2263.35
448.697	2410.8
448.903	2492.72
449.11	2611.5
449.316	2572.59
449.522	2824.49
449.728	2838.83
449.935	2986.28
450.141	3021.1
450.347	3277.09
450.553	3203.36
450.76	3246.37
450.966	3447.07
451.172	3580.19
451.378	3672.35
451.584	3553.57
451.791	3883.29
451.997	4071.7
452.203	4188.44
452.409	4354.32
452.615	4563.22
452.821	4620.56
453.027	4591.89
453.233	5126.41
453.44	4864.27
453.646	5167.37
453.852	5482.75
454.058	5826.81
454.264	5587.2
454.47	6177.02
454.676	6181.11
454.882	6754.54
455.088	6365.43
455.294	6779.12
455.5	7346.41
455.705	7782.62
455.911	7710.94
456.117	8055
456.323	8145.11
456.529	8194.26
456.735	9068.75
456.941	9220.3
457.147	9584.84
457.352	9568.45
457.558	9889.98
457.764	10961.07
457.97	10836.14
458.176	11477.16
458.381	11964.57
458.587	12114.08
458.793	12955.79
458.999	12753.04
459.204	14215.29
459.41	14903.41
459.616	14534.78
459.821	15509.61
460.027	16105.57
460.233	16980.05
460.438	16808.02
460.644	17977.41
460.85	18090.05
461.055	18888.76
461.261	19968.04
461.466	19187.76
461.672	19824.68
461.878	22087.68
462.083	21680.14
462.289	22138.88
462.494	23103.48
462.7	23066.61
462.905	23574.51
463.111	25339.86
463.316	26591.17
463.522	27330.48
463.727	27748.27
463.932	28897.18
464.138	30017.42
464.343	31453.05
464.549	31367.03
464.754	33378.14
464.959	34418.5
465.165	35170.11
465.37	35362.62
465.575	35112.77
465.781	37084.96
465.986	38326.03
466.191	37730.07
466.397	38315.79
466.602	37330.72
466.807	39278.33
467.012	39814.9
467.218	40287.98
467.423	40738.54
467.628	41993.94
467.833	44099.25
468.038	43019.97
468.244	42381.01
468.449	44564.14
468.654	43552.44
468.859	43863.74
469.064	43488.96
469.269	42628.81
469.474	42876.62
469.679	43978.42
469.885	42147.54
470.09	43271.87
470.295	43534.01
470.5	42448.59
470.705	42579.66
470.91	42178.26
471.115	41352.93
471.32	41924.31
471.525	41295.58
471.73	40443.63
471.935	40150.77
472.139	37902.1
472.344	39116.54
472.549	38422.28
472.754	37412.63
472.959	36648.74
473.164	35712.82
473.369	34987.84
473.574	36118.32
473.778	35241.79
473.983	34920.26
474.188	34291.53
474.393	32612.2
474.598	32563.04
474.802	31668.08
475.007	31174.52
475.212	30990.2
475.417	29550.48
475.621	29667.22
475.826	29222.81
476.031	28389.28
476.235	27836.33
476.44	28024.75
476.645	27217.85
476.849	27119.54
477.054	26480.58
477.259	25806.8
477.463	25735.12
477.668	25067.48
477.872	25462.74
478.077	24180.71
478.282	23767.02
478.486	23457.78
478.691	23306.23
478.895	23029.75
479.1	23173.11
479.304	22587.39
479.509	21667.85
479.713	22396.93
479.918	21559.31
480.122	21350.42
480.326	21418
480.531	21362.7
480.735	21352.46
480.94	20758.55
481.144	21467.15
481.348	20404.25
481.553	20414.49
481.757	19849.25
481.961	20168.74
482.166	20140.07
482.37	20033.57
482.574	19341.36
482.778	19349.55
482.983	19666.99
483.187	19419.18
483.391	19030.07
483.595	19161.14
483.8	18616.38
484.004	18589.75
484.208	18528.31
484.412	18419.77
484.616	18229.31
484.821	17848.39
485.025	17559.63
485.229	17580.11
485.433	17346.64
485.637	17219.66
485.841	16855.12
486.045	16705.62
486.249	16494.68
486.453	16320.6
486.657	15968.35
486.861	15886.43
487.065	15259.76
487.269	15296.62
487.473	14684.28
487.677	15186.03
487.881	14700.66
488.085	14192.76
488.289	14276.73
488.493	13607.05
488.697	13566.09
488.901	13275.27
489.105	12927.12
489.309	13039.76
489.512	12857.49
489.716	12593.3
489.92	12339.35
490.124	11997.34
490.328	12013.73
490.531	11475.11
490.735	11503.78
490.939	11296.94
491.143	10920.11
491.346	10950.83
491.55	10844.34
491.754	10520.76
491.958	10559.67
492.161	10340.54
492.365	10004.67
492.569	9881.79
492.772	9920.7
492.976	9613.51
493.18	9513.16
493.383	9212.1
493.587	9291.98
493.79	9183.43
493.994	9269.45
494.197	8909.01
494.401	8902.86
494.605	8638.67
494.808	8917.2
495.012	8630.48
495.215	8575.19
495.419	8607.95
495.622	8343.77
495.825	8366.29
496.029	8220.89
496.232	8485.08
496.436	8265.94
496.639	8419.54
496.843	7995.61
497.046	8157.4
497.249	8452.31
497.453	8304.85
497.656	8378.58
497.859	8261.85
498.063	8409.3
498.266	8270.04
498.469	8321.24
498.673	8282.33
498.876	8343.77
499.079	8437.97
499.282	8503.51
499.485	8640.72
499.689	8718.54
499.892	8691.92
500.095	8644.82
500.298	8878.29
500.501	8704.21
500.705	8917.2
500.908	8952.01
501.111	8841.42
501.314	9128.14
501.517	9449.67
501.72	9142.47
501.923	9341.13
502.126	9351.37
502.329	9513.16
502.532	9466.05
502.735	9633.99
502.938	9998.52
503.141	9828.54
503.344	9760.96
503.547	9957.57
503.75	10285.24
503.953	10514.61
504.156	10690.74
504.359	10531
504.562	10774.7
504.765	10999.98
504.968	11219.11
505.17	11399.34
505.373	11331.75
505.576	11804.83
505.779	11798.69
505.982	11989.15
506.185	12292.25
506.387	12406.94
506.59	12648.6
506.793	13140.11
506.996	12914.83
507.198	13512.84
507.401	13400.2
507.604	13953.15
507.807	14270.59
508.009	14409.85
508.212	14590.07
508.415	15001.71
508.617	14999.66
508.82	15562.86
509.022	15405.16
509.225	16277.6
509.428	16298.08
509.63	16578.65
509.833	17035.35
510.035	17817.67
510.238	17750.09
510.44	18081.86
510.643	18753.59
510.845	18989.11
511.048	19447.85
511.25	19929.13
511.453	20242.46
511.655	21252.11
511.858	21030.93
512.06	21788.68
512.262	21975.05
512.465	22122.5
512.667	23105.52
512.87	23465.97
513.072	24111.08
513.274	24604.64
513.477	25102.29
513.679	25694.16
513.881	26333.12
514.084	26947.51
514.286	27103.16
514.488	27797.42
514.69	29179.8
514.893	29349.78
515.095	30021.52
515.297	30723.97
515.499	31295.35
515.701	31725.43
515.904	32444.26
516.106	33320.79
516.308	33812.31
516.51	34371.4
516.712	34588.49
516.914	35659.57
517.116	36472.62
517.318	36613.93
517.52	37484.31
517.722	38123.28
517.925	39012.1
518.127	39730.94
518.329	40634.09
518.531	40609.51
518.733	42000.08
518.935	42024.66
519.136	42540.75
519.338	43257.54
519.54	44271.28
519.742	44789.42
519.944	45096.61
520.146	46132.89
520.348	46188.18
520.55	47390.34
520.752	47750.78
520.954	48606.83
521.155	48475.76
521.357	49493.6
521.559	50120.28
521.761	51134.03
521.963	50802.25
522.164	51408.45
522.366	51871.29
522.568	52446.77
522.77	52794.93
522.971	53878.3
523.173	53141.03
523.375	53632.55
523.576	53859.87
523.778	54111.77
523.98	54933.01
524.181	54709.78
524.383	54816.27
524.584	55170.57
524.786	55195.15
524.988	54875.66
525.189	55608.84
525.391	55586.31
525.592	55510.53
525.794	55197.2
525.995	55246.35
526.197	55152.14
526.398	55447.05
526.6	55180.81
526.801	55254.54
527.003	55184.91
527.204	54849.04
527.406	54554.13
527.607	54388.25
527.808	54287.9
528.01	53091.88
528.211	53792.29
528.412	54132.25
528.614	53415.46
528.815	52452.92
529.016	53085.74
529.218	51953.21
529.419	51709.5
529.62	51101.26
529.822	50632.27
530.023	50349.65
530.224	49731.17
530.425	49454.69
530.626	48324.21
530.828	47957.63
531.029	48414.32
531.23	47478.4
531.431	46737.04
531.632	46560.91
531.833	46593.68
532.035	45489.82
532.236	44904.1
532.437	44621.48
532.638	43671.23
532.839	43224.77
533.04	43134.66
533.241	41541.34
533.442	41680.6
533.643	41434.85
533.844	40656.62
534.045	39896.82
534.246	39622.39
534.447	38897.41
534.648	38102.8
534.849	38240.01
535.05	37216.03
535.251	36894.5
535.451	36607.78
535.652	35831.6
535.853	35270.46
536.054	35247.93
536.255	34371.4
536.456	33738.58
536.657	33777.49
536.857	32958.3
537.058	32692.07
537.259	32694.11
537.46	31993.71
537.66	31676.27
537.861	31192.95
538.062	30599.04
538.263	30443.4
538.463	29581.2
538.664	29874.06
538.865	29120.41
539.065	29099.93
539.266	28018.6
539.466	28209.06
539.667	27422.64
539.868	27707.31
540.068	27365.3
540.269	26646.46
540.469	26304.45
540.67	26161.09
540.87	25827.28
541.071	25331.67
541.271	25319.38
541.472	24879.07
541.672	24567.77
541.873	24371.17
542.073	23678.96
542.274	23961.58
542.474	23336.95
542.675	23175.16
542.875	23097.33
543.075	22679.55
543.276	22108.16
543.476	22398.98
543.676	22142.98
543.877	21755.91
544.077	21438.48
544.277	21307.41
544.478	21217.3
544.678	21092.37
544.878	20471.84
545.078	20520.99
545.279	19716.14
545.479	19771.43
545.679	19796.01
545.879	19386.41
546.079	19144.75
546.28	18976.82
546.48	18446.4
546.68	18726.97
546.88	18485.31
547.08	17979.46
547.28	18028.61
547.48	17256.53
547.68	17559.63
547.88	17219.66
548.081	17039.44
548.281	16842.84
548.481	16523.35
548.681	16341.08
548.881	16042.08
549.081	15849.57
549.28	15591.53
549.48	15566.95
549.68	15292.52
549.88	15110.25
550.08	14755.96
550.28	14680.18
550.48	14549.11
550.68	14377.08
550.88	14014.59
551.08	14033.02
551.279	13664.39
551.479	13437.06
551.679	13246.6
551.879	12906.64
552.079	12957.84
552.278	12685.46
552.478	12744.85
552.678	12480.66
552.878	12169.37
553.077	11962.53
553.277	11597.99
553.477	11964.57
553.676	11434.15
553.876	11219.11
554.076	10930.35
554.275	10805.42
554.475	10617.01
554.674	10684.59
554.874	10354.87
555.074	10184.89
555.273	10039.48
555.473	9738.43
555.672	9601.22
555.872	9494.72
556.071	9394.37
556.271	9453.77
556.47	9144.52
556.67	8900.81
556.869	8818.89
557.068	8681.68
557.268	8546.51
557.467	8552.66
557.667	8562.9
557.866	8272.09
558.065	7981.28
558.265	7846.11
558.464	7917.79
558.663	7629.02
558.863	7592.16
559.062	7500
559.261	7221.48
559.461	7301.35
559.66	6826.22
559.859	6871.28
560.058	6779.12
560.258	6637.81
560.457	6514.93
560.656	6555.89
560.855	6430.96
561.054	6535.41
561.253	6265.08
561.453	6197.49
561.652	6058.23
561.851	6025.47
562.05	5843.2
562.249	5769.47
562.448	5761.28
562.647	5644.54
562.846	5431.55
563.045	5419.27
563.244	5370.12
563.443	5480.71
563.642	5175.56
563.841	5181.7
564.04	5157.13
564.239	4925.71
564.438	4884.75
564.637	4890.89
564.836	4671.76
565.035	4749.58
565.234	4546.83
565.432	4497.68
565.631	4479.25
565.83	4520.21
566.029	4258.07
566.228	4229.4
566.427	4329.75
566.625	4024.6
566.824	4137.24
567.023	4088.09
567.222	4081.94
567.42	3920.15
567.619	3873.05
567.818	3811.61
568.016	3979.54
568.215	3856.67
568.414	3774.75
568.612	3629.34
568.811	3578.14
569.01	3508.51
569.208	3479.84
569.407	3545.38
569.605	3393.83
569.804	3379.49
570.002	3334.43
570.201	3205.41
570.4	3361.06
570.598	3078.44
570.797	3123.49
570.995	2871.59
571.193	2910.5
571.392	2847.02
571.59	2894.12
571.789	2797.87
571.987	2861.35
572.186	2744.62
572.384	2707.76
572.582	2597.17
572.781	2808.11
572.979	2617.65
573.177	2545.97
573.376	2617.65
573.574	2558.25
573.772	2441.52
573.971	2347.31
574.169	2281.78
574.367	2259.25
574.565	2355.51
574.763	2267.44
574.962	2238.77
575.16	2201.91
575.358	2040.12
575.556	2171.19
575.754	2130.23
575.952	1999.16
576.151	1993.01
576.349	1986.87
576.547	1790.27
576.745	1886.52
576.943	1866.04
577.141	1812.79
577.339	1804.6
577.537	1843.51
577.735	1839.42
577.933	1872.18
578.131	1648.96
578.329	1866.04
578.527	1702.2
578.725	1636.67
578.923	1511.74
579.121	1605.95
579.319	1495.36
579.516	1538.37
579.714	1751.35
579.912	1614.14
580.11	1341.76
580.308	1458.5
580.506	1438.02
580.704	1382.72
580.901	1341.76
581.099	1468.73
581.297	1382.72
581.495	1354.05
581.692	1272.13
581.89	1335.62
582.088	1308.99
582.285	1253.7
582.483	1288.51
582.681	1206.59
582.878	1190.21
583.076	1145.16
583.274	1245.51
583.471	1298.75
583.669	1153.35
583.866	1114.44
584.064	1083.72
584.262	1030.47
584.459	1020.23
584.657	1091.91
584.854	1089.86
585.052	1059.14
585.249	1075.52
585.447	1132.87
585.644	919.88
585.841	1067.33
586.039	991.56
586.236	1014.09
586.434	979.27
586.631	860.49
586.828	840.01
587.026	880.97
587.223	842.06
587.42	878.92
587.618	909.64
587.815	1001.8
588.012	868.68
588.21	809.29
588.407	971.08
588.604	854.34
588.801	792.91
588.999	862.54
589.196	923.98
589.393	797
589.59	846.15
589.787	786.76
589.984	762.19
590.182	776.52
590.379	788.81
590.576	821.58
590.773	760.14
590.97	719.18
591.167	770.38
591.364	772.43
591.561	672.08
591.758	805.19
591.955	747.85
592.152	692.55
592.349	729.42
592.546	743.75
592.743	629.07
592.94	672.08
593.137	817.48
593.334	751.95
593.531	751.95
593.727	788.81
593.924	801.1
594.121	715.08
594.318	635.21
594.515	811.34
594.712	930.12
594.908	846.15
595.105	602.44
595.302	797
595.499	784.71
595.696	930.12
595.892	790.86
596.089	897.35
596.286	819.53
596.482	901.45
596.679	987.46
596.876	794.95
597.072	969.03
597.269	944.45
597.466	979.27
597.662	956.74
597.859	1020.23
598.055	977.22
598.252	1173.83
598.448	1190.21
598.645	1141.06
598.841	1212.74
599.038	1341.76
599.234	1311.04
599.431	1370.43
599.627	1407.3
599.824	1431.87
600.02	1450.3
600.217	1413.44
600.413	1448.26
600.609	1661.24
600.806	1929.53
601.002	1814.84
601.198	1681.72
601.395	1997.11
601.591	1886.52
601.787	1952.06
601.984	2095.41
602.18	2193.72
602.376	2308.4
602.572	2445.62
602.769	2482.48
602.965	2627.89
603.161	2672.94
603.357	2777.39
603.553	2787.63
603.75	2924.84
603.946	2924.84
604.142	3098.92
604.338	3186.98
604.534	3395.87
604.73	3375.39
604.926	3406.11
605.122	3694.88
605.318	3586.33
605.514	3801.37
605.71	3883.29
605.906	4198.68
606.102	4282.64
606.298	4327.7
606.494	4571.41
606.69	4727.05
606.886	4733.2
607.082	4804.88
607.278	4962.57
607.474	5144.84
607.67	5282.05
607.866	5411.07
608.062	5646.59
608.257	5677.31
608.453	5812.48
608.649	6115.58
608.845	5906.68
609.041	6193.4
609.236	6428.92
609.432	6596.85
609.628	6801.65
609.824	6908.14
610.019	7041.26
610.215	7252.2
610.411	7626.98
610.606	7774.43
610.802	8128.73
610.998	8261.85
611.193	8523.99
611.389	8538.32
611.584	8796.37
611.78	8900.81
611.976	9298.12
612.171	9709.76
612.367	9855.17
612.562	9992.38
612.758	10184.89
612.953	10449.08
613.149	10838.19
613.344	11067.56
613.539	11446.44
613.735	11810.98
613.93	11845.79
614.126	12341.4
614.321	12617.88
614.517	12984.46
614.712	13275.27
614.907	13369.48
615.103	13865.09
615.298	14002.3
615.493	14624.89
615.688	14954.61
615.884	15597.67
616.079	15622.25
616.274	16416.86
616.47	16656.47
616.665	17145.94
616.86	17127.5
617.055	17610.82
617.25	18241.6
617.445	18688.06
617.641	18933.81
617.836	19726.38
618.031	19929.13
618.226	20703.26
618.421	20815.9
618.616	21688.33
618.811	21946.37
619.006	22648.83
619.201	22910.97
619.396	23355.38
619.591	23425.01
619.786	24637.41
619.981	24492
620.176	25726.92
620.371	26021.83
620.566	26464.19
620.761	26967.99
620.956	27758.51
621.151	27797.42
621.346	29167.51
621.541	28966.81
621.735	29945.74
621.93	29941.64
622.125	30904.19
622.32	30861.18
622.515	32305
622.709	32399.21
622.904	32751.46
623.099	33484.63
623.294	34262.86
623.488	34727.75
623.683	35432.25
623.878	35655.48
624.072	36077.36
624.267	36890.4
624.462	37383.96
624.656	37846.8
624.851	38430.47
625.046	38792.97
625.24	39560.95
625.435	39988.98
625.629	40525.55
625.824	41086.69
626.018	41400.03
626.213	41230.05
626.407	42602.19
626.602	42401.49
626.796	43417.28
626.991	43517.63
627.185	44068.53
627.38	44410.54
627.574	44424.88
627.768	44295.86
627.963	44510.89
628.157	44766.89
628.352	44840.62
628.546	44736.17
628.74	45256.35
628.935	44424.88
629.129	44834.47
629.323	44342.96
629.517	44091.06
629.712	43802.3
629.906	43562.68
630.1	43105.99
630.294	43159.23
630.489	42137.3
630.683	41610.97
630.877	40636.14
631.071	39853.81
631.265	39294.72
631.459	39083.78
631.653	38272.78
631.848	37220.13
632.042	36015.92
632.236	35362.62
632.43	34572.1
632.624	33599.32
632.818	32307.05
633.012	31371.13
633.206	30519.17
633.4	29880.21
633.594	28612.51
633.788	27690.93
633.982	26406.85
634.176	25747.4
634.369	24469.47
634.563	23951.34
634.757	22673.4
634.951	22196.23
635.145	21194.77
635.339	20172.83
635.533	19294.25
635.726	18765.88
635.92	17614.92
636.114	17340.49
636.308	16461.91
636.501	16001.12
636.695	15421.55
636.889	14561.4
637.083	13734.02
637.276	13176.97
637.47	12769.43
637.664	12298.39
637.857	11786.4
638.051	11393.19
638.244	11042.99
638.438	10475.7
638.632	10064.06
638.825	9617.6
639.019	9392.33
639.212	8829.13
639.406	8523.99
639.599	8120.54
639.793	8020.19
639.986	7643.36
640.18	7364.84
640.373	6854.89
640.567	6664.43
640.76	6418.68
640.954	6299.89
641.147	5886.2
641.34	5771.52
641.534	5574.91
641.727	5533.95
641.92	5114.12
642.114	5056.78
642.307	4899.08
642.5	4595.98
642.694	4272.4
642.887	4251.92
643.08	4104.47
643.273	3942.68
643.467	3760.41
643.66	3631.39
643.853	3479.84
644.046	3426.59
644.239	3236.13
644.432	3010.86
644.626	2814.25
644.819	2791.72
645.012	2785.58
645.205	2650.41
645.398	2621.74
645.591	2353.46
645.784	2269.49
645.977	2300.21
646.17	2167.09
646.363	1999.16
646.556	2099.51
646.749	1904.95
646.942	1931.58
647.135	1876.28
647.328	1679.68
647.521	1753.4
647.714	1544.51
647.907	1517.89
648.099	1419.58
648.292	1499.45
648.485	1429.82
648.678	1225.03
648.871	1263.94
649.064	1278.27
649.256	1231.17
649.449	1108.29
649.642	958.79
649.835	1042.76
650.027	1014.09
650.22	1022.28
650.413	895.3
650.605	909.64
650.798	833.86
650.991	819.53
651.183	772.43
651.376	889.16
651.568	823.62
651.761	708.94
651.954	737.61
652.146	670.03
652.339	721.23
652.531	805.19
652.724	620.88
652.916	659.79
653.109	399.7
653.301	641.36
653.494	633.16
653.686	657.74
653.879	727.37
654.071	549.2
654.263	459.09
654.456	465.23
654.648	563.53
654.84	450.89
655.033	399.7
655.225	524.62
655.417	328.02
655.61	450.89
655.802	414.03
655.994	584.01
656.186	321.87
656.379	493.9
656.571	328.02
656.763	223.57
656.955	321.87
657.148	350.54
657.34	368.98
657.532	250.19
657.724	285.01
657.916	334.16
658.108	397.65
658.3	354.64
658.492	395.6
658.684	180.56
658.876	389.46
659.068	229.71
659.26	180.56
659.452	209.23
659.644	215.38
659.836	358.74
660.028	289.1
660.22	219.47
660.412	203.09
660.604	237.91
660.796	178.51
660.988	348.5
661.18	192.85
661.372	282.96
661.563	170.32
661.755	233.81
661.947	135.51
662.139	198.99
662.331	299.34
662.522	180.56
662.714	139.6
662.906	198.99
663.097	233.81
663.289	172.37
663.481	-9.9
663.673	196.95
663.864	225.62
664.056	225.62
664.247	145.75
664.439	248.15
664.631	233.81
664.822	188.75
665.014	180.56
665.205	135.51
665.397	158.03
665.588	215.38
665.78	160.08
665.971	229.71
666.163	72.02
666.354	137.56
666.546	94.55
666.737	108.88
666.929	78.16
667.12	135.51
667.311	166.23
667.503	112.98
667.694	151.89
667.885	180.56
668.077	170.32
668.268	63.83
668.459	166.23
668.651	186.71
668.842	151.89
669.033	31.06
669.224	51.54
669.416	239.95
669.607	147.8
669.798	110.93
669.989	205.14
670.18	84.31
670.371	69.97
670.563	4.44
670.754	133.46
670.945	149.84
671.136	178.51
671.327	47.44
671.518	176.47
671.709	266.58
671.9	141.65
672.091	246.1
672.282	174.42
672.473	137.56
672.664	53.59
672.855	110.93
673.046	110.93
673.237	248.15
673.428	145.75
673.619	192.85
673.809	86.36
674	229.71
674.191	239.95
674.382	119.12
674.573	155.99
674.764	133.46
674.954	309.58
675.145	-3.75
675.336	133.46
675.527	76.12
675.717	59.73
675.908	72.02
676.099	67.92
676.289	182.61
676.48	51.54
676.671	92.5
676.861	151.89
677.052	180.56
677.243	102.74
677.433	143.7
677.624	162.13
677.814	182.61
678.005	196.95
678.195	215.38
678.386	78.16
678.576	141.65
678.767	76.12
678.957	160.08
679.148	125.27
679.338	252.24
679.529	162.13
679.719	112.98
679.909	192.85
680.1	201.04
680.29	211.28
680.481	65.88
680.671	276.82
680.861	102.74
681.052	166.23
681.242	49.49
681.432	219.47
681.622	127.32
681.813	104.79
682.003	119.12
682.193	47.44
682.383	166.23
682.573	106.84
682.764	137.56
682.954	215.38
683.144	211.28
683.334	170.32
683.524	170.32
683.714	252.24
683.904	151.89
684.094	49.49
684.284	178.51
684.474	196.95
684.664	309.58
684.854	188.75
685.044	88.4
685.234	125.27
685.424	198.99
685.614	74.07
685.804	323.92
685.994	194.9
686.184	194.9
686.374	256.34
686.564	219.47
686.753	172.37
686.943	86.36
687.133	174.42
687.323	153.94
687.513	196.95
687.702	203.09
687.892	153.94
688.082	297.3
688.272	227.67
688.461	176.47
688.651	313.68
688.841	168.27
689.03	176.47
689.22	225.62
689.41	188.75
689.599	147.8
689.789	102.74
689.979	194.9
690.168	178.51
690.358	246.1
690.547	182.61
690.737	205.14
690.926	194.9
691.116	221.52
691.305	293.2
691.495	330.06
691.684	84.31
691.874	192.85
692.063	219.47
692.252	254.29
692.442	182.61
692.631	188.75
692.82	137.56
693.01	174.42
693.199	174.42
693.388	149.84
693.578	127.32
693.767	256.34
693.956	139.6
694.146	186.71
694.335	155.99
694.524	82.26
694.713	254.29
694.902	180.56
695.092	145.75
695.281	180.56
695.47	176.47
695.659	110.93
695.848	207.19
696.037	160.08
696.226	246.1
696.415	205.14
696.604	250.19
696.793	287.06
696.982	162.13
697.171	295.25
697.36	100.69
697.549	155.99
697.738	59.73
697.927	151.89
698.116	145.75
698.305	131.41
698.494	131.41
698.683	203.09
698.872	321.87
699.061	145.75
699.25	94.55
699.438	170.32
699.627	141.65
699.816	334.16
700.005	84.31
700.193	76.12
700.382	289.1
700.571	172.37
700.76	239.95
700.948	248.15
701.137	264.53
701.326	278.87
701.514	41.3
701.703	139.6
701.892	147.8
702.08	319.82
702.269	164.18
702.457	166.23
702.646	235.86
702.834	196.95
703.023	213.33
703.212	178.51
703.4	123.22
703.589	162.13
703.777	178.51
703.965	76.12
704.154	137.56
704.342	69.97
704.531	203.09
704.719	158.03
704.907	301.39
705.096	139.6
705.284	143.7
705.472	194.9
705.661	254.29
705.849	149.84
706.037	155.99
706.226	176.47
706.414	164.18
706.602	84.31
706.79	262.48
706.979	53.59
707.167	139.6
707.355	43.35
707.543	198.99
707.731	256.34
707.919	98.64
708.107	188.75
708.296	133.46
708.484	100.69
708.672	164.18
708.86	149.84
709.048	141.65
709.236	121.17
709.424	244.05
709.612	217.43
709.8	57.68
709.988	244.05
710.176	207.19
710.364	305.49
710.551	102.74
710.739	194.9
710.927	155.99
711.115	160.08
711.303	237.91
711.491	219.47
711.679	147.8
711.866	258.39
712.054	239.95
712.242	213.33
712.43	211.28
712.617	160.08
712.805	225.62
712.993	123.22
713.181	53.59
713.368	262.48
713.556	112.98
713.744	129.36
713.931	319.82
714.119	196.95
714.306	203.09
714.494	219.47
714.682	196.95
714.869	22.87
715.057	170.32
715.244	41.3
715.432	192.85
715.619	162.13
715.807	108.88
715.994	141.65
716.182	262.48
716.369	246.1
716.556	192.85
716.744	94.55
716.931	131.41
717.119	242
717.306	215.38
717.493	155.99
717.681	110.93
717.868	133.46
718.055	184.66
718.242	207.19
718.43	217.43
718.617	305.49
718.804	102.74
718.991	250.19
719.179	178.51
719.366	280.91
719.553	233.81
719.74	188.75
719.927	231.76
720.114	196.95
720.301	182.61
720.488	135.51
720.676	133.46
720.863	299.34
721.05	309.58
721.237	252.24
721.424	287.06
721.611	207.19
721.798	125.27
721.985	149.84
722.172	147.8
722.358	129.36
722.545	242
722.732	285.01
722.919	362.83
723.106	301.39
723.293	178.51
723.48	270.67
723.667	196.95
723.853	239.95
724.04	186.71
724.227	356.69
724.414	182.61
724.6	260.43
724.787	246.1
724.974	270.67
725.161	256.34
725.347	149.84
725.534	188.75
725.72	205.14
725.907	371.02
726.094	264.53
726.28	123.22
726.467	151.89
726.653	82.26
726.84	282.96
727.027	342.35
727.213	182.61
727.4	268.63
727.586	219.47
727.773	244.05
727.959	221.52
728.145	176.47
728.332	186.71
728.518	184.66
728.705	266.58
728.891	143.7
729.077	325.97
729.264	117.08
729.45	194.9
729.636	225.62
729.823	235.86
730.009	301.39
730.195	330.06
730.382	285.01
730.568	125.27
730.754	215.38
730.94	248.15
731.126	231.76
731.313	287.06
731.499	282.96
731.685	325.97
731.871	242
732.057	266.58
732.243	254.29
732.429	242
732.615	375.12
732.801	268.63
732.987	239.95
733.173	246.1
733.359	211.28
733.545	350.54
733.731	239.95
733.917	311.63
734.103	244.05
734.289	192.85
734.475	180.56
734.661	377.17
734.847	229.71
735.033	203.09
735.219	371.02
735.404	221.52
735.59	223.57
735.776	233.81
735.962	309.58
736.148	254.29
736.333	405.84
736.519	256.34
736.705	274.77
736.89	268.63
737.076	231.76
737.262	182.61
737.447	160.08
737.633	272.72
737.819	301.39
738.004	323.92
738.19	305.49
738.375	295.25
738.561	332.11
738.747	254.29
738.932	168.27
739.118	368.98
739.303	303.44
739.489	239.95
739.674	192.85
739.859	211.28
740.045	268.63
740.23	213.33
740.416	117.08
740.601	215.38
740.786	198.99
740.972	162.13
741.157	158.03
741.342	147.8
741.528	223.57
741.713	328.02
741.898	260.43
742.084	268.63
742.269	246.1
742.454	231.76
742.639	231.76
742.824	137.56
743.01	309.58
743.195	368.98
743.38	182.61
743.565	239.95
743.75	252.24
743.935	182.61
744.12	272.72
744.305	184.66
744.49	164.18
744.675	258.39
744.86	192.85
745.045	299.34
745.23	239.95
745.415	133.46
745.6	328.02
745.785	235.86
745.97	264.53
746.155	264.53
746.34	297.3
746.525	211.28
746.71	295.25
746.895	127.32
747.079	151.89
747.264	155.99
747.449	203.09
747.634	213.33
747.819	274.77
748.003	174.42
748.188	121.17
748.373	227.67
748.557	203.09
748.742	164.18
748.927	209.23
749.111	201.04
749.296	198.99
749.481	315.73
749.665	129.36
749.85	160.08
750.034	209.23
750.219	219.47
750.404	174.42
750.588	237.91
750.773	92.5
750.957	180.56
751.141	182.61
751.326	295.25
751.51	119.12
751.695	182.61
751.879	141.65
752.064	198.99
752.248	155.99
752.432	342.35
752.617	223.57
752.801	178.51
752.985	235.86
753.17	174.42
753.354	160.08
753.538	229.71
753.722	139.6
753.907	162.13
754.091	117.08
754.275	227.67
754.459	129.36
754.643	131.41
754.828	166.23
755.012	211.28
755.196	57.68
755.38	139.6
755.564	176.47
755.748	82.26
755.932	299.34
756.116	215.38
756.3	178.51
756.484	49.49
756.668	221.52
756.852	102.74
757.036	137.56
757.22	203.09
757.404	80.21
757.588	131.41
757.772	119.12
757.956	76.12
758.14	301.39
758.323	129.36
758.507	135.51
758.691	82.26
758.875	184.66
759.059	166.23
759.242	57.68
759.426	133.46
759.61	82.26
759.794	82.26
759.977	170.32
760.161	371.02
760.345	168.27
760.528	188.75
760.712	133.46
760.895	143.7
761.079	67.92
761.263	31.06
761.446	55.64
761.63	74.07
761.813	184.66
761.997	49.49
762.18	90.45
762.364	164.18
762.547	-13.99
762.731	63.83
762.914	100.69
763.098	149.84
763.281	53.59
763.464	82.26
763.648	213.33
763.831	127.32
764.015	72.02
764.198	194.9
764.381	2.39
764.564	98.64
764.748	141.65
764.931	119.12
765.114	147.8
765.297	168.27
765.481	72.02
765.664	139.6
765.847	84.31
766.03	213.33
766.213	51.54
766.397	41.3
766.58	26.96
766.763	133.46
766.946	-11.95
767.129	76.12
767.312	35.16
767.495	69.97
767.678	63.83
767.861	117.08
768.044	117.08
768.227	143.7
768.41	84.31
768.593	127.32
768.776	86.36
768.959	49.49
769.142	166.23
769.324	39.25
769.507	20.82
769.69	31.06
769.873	98.64
770.056	248.15
770.239	26.96
770.421	143.7
770.604	94.55
770.787	104.79
770.97	55.64
771.152	6.49
771.335	151.89
771.518	-24.23
771.7	166.23
771.883	207.19
772.066	-13.99
772.248	94.55
772.431	176.47
772.613	151.89
772.796	-16.04
772.978	82.26
773.161	121.17
773.343	98.64
773.526	-34.47
773.708	4.44
773.891	10.58
774.073	45.4
774.256	135.51
774.438	203.09
774.621	-16.04
774.803	153.94
774.985	49.49
775.168	108.88
775.35	10.58
775.532	92.5
775.715	12.63
775.897	108.88
776.079	88.4
776.261	145.75
776.444	82.26
776.626	63.83
776.808	86.36
776.99	14.68
777.173	26.96
777.355	41.3
777.537	98.64
777.719	133.46
777.901	45.4
778.083	10.58
778.265	24.92
778.447	168.27
778.629	-1.71
778.811	51.54
778.993	115.03
779.175	55.64
779.357	69.97
779.539	-11.95
779.721	57.68
779.903	67.92
780.085	35.16
780.267	29.01
780.449	117.08
780.631	125.27
780.812	131.41
780.994	39.25
781.176	86.36
781.358	33.11
781.54	20.82
781.721	59.73
781.903	69.97
782.085	-5.8
782.267	188.75
782.448	14.68
782.63	31.06
782.812	102.74
782.993	129.36
783.175	129.36
783.357	33.11
783.538	78.16
783.72	-24.23
783.901	90.45
784.083	106.84
784.264	90.45
784.446	-36.52
784.627	-81.58
784.809	65.88
784.99	-24.23
785.172	72.02
785.353	55.64
785.535	45.4
785.716	-30.38
785.897	2.39
786.079	16.73
786.26	26.96
786.441	53.59
786.623	-102.06
786.804	16.73
786.985	43.35
787.167	88.4
787.348	20.82
787.529	29.01
787.71	235.86
787.891	61.78
788.073	-7.85
788.254	-61.1
788.435	137.56
788.616	88.4
788.797	-28.33
788.978	69.97
789.159	-1.71
789.34	51.54
789.522	-30.38
789.703	-36.52
789.884	47.44
790.065	57.68
790.246	102.74
790.427	39.25
790.607	115.03
790.788	94.55
790.969	-11.95
791.15	8.53
791.331	-38.57
791.512	-5.8
791.693	18.77
791.874	-61.1
792.054	215.38
792.235	80.21
792.416	-18.09
792.597	-36.52
792.778	117.08
792.958	12.63
793.139	74.07
793.32	67.92
793.5	24.92
793.681	106.84
793.862	-24.23
794.042	6.49
794.223	-57
794.404	-46.76
794.584	-124.58
794.765	84.31
794.945	-38.57
795.126	76.12
795.306	63.83
795.487	-22.19
795.667	-28.33
795.848	39.25
796.028	20.82
796.209	72.02
796.389	29.01
796.57	41.3
796.75	-26.28
796.93	49.49
797.111	-42.67
797.291	-57
797.471	43.35
797.652	43.35
797.832	-87.72
798.012	29.01
798.192	12.63
798.373	-52.91
798.553	-7.85
798.733	69.97
798.913	-44.71
799.093	41.3
799.274	47.44
799.454	8.53
799.634	65.88
799.814	65.88
799.994	14.68
800.174	24.92
800.354	29.01
800.534	-89.77
800.714	-42.67
800.894	-79.53
801.074	-114.34
801.254	-71.34
801.434	51.54
801.614	-38.57
801.794	-16.04
801.974	1761.59
802.154	-7.85
802.334	141.65
802.514	-5.8
802.693	37.2
802.873	20.82
803.053	39.25
803.233	31.06
803.413	-26.28
803.592	-13.99
803.772	2.39
803.952	-9.9
804.131	-52.91
804.311	18.77
804.491	137.56
804.67	-87.72
804.85	39.25
805.03	41.3
805.209	74.07
805.389	-9.9
805.568	0.34
805.748	2.39
805.928	-22.19
806.107	10.58
806.287	16.73
806.466	82.26
806.646	0.34
806.825	72.02
807.004	4.44
807.184	41.3
807.363	53.59
807.543	12.63
807.722	-42.67
807.901	127.32
808.081	59.73
808.26	-81.58
808.439	65.88
808.619	80.21
808.798	-26.28
808.977	106.84
809.156	22.87
809.336	2.39
809.515	115.03
809.694	-18.09
809.873	-171.69
810.052	41.3
810.231	92.5
810.411	106.84
810.59	76.12
810.769	-46.76
810.948	53.59
811.127	-95.91
811.306	22.87
811.485	-18.09
811.664	194.9
811.843	18.77
812.022	16.73
812.201	-32.43
812.38	55.64
812.559	-42.67
812.737	10.58
812.916	-85.67
813.095	18.77
813.274	-9.9
813.453	-7.85
813.632	-1.71
813.811	92.5
813.989	-59.05
814.168	22.87
814.347	6.49
814.526	-71.34
814.704	129.36
814.883	35.16
815.062	53.59
815.24	57.68
815.419	-59.05
815.598	18.77
815.776	-83.63
815.955	35.16
816.133	-161.45
816.312	10.58
816.49	-65.19
816.669	10.58
816.847	-22.19
817.026	-13.99
817.204	-26.28
817.383	-20.14
817.561	-9.9
817.74	26.96
817.918	35.16
818.097	-81.58
818.275	-5.8
818.453	49.49
818.632	74.07
818.81	-106.15
818.988	55.64
819.167	-18.09
819.345	-18.09
819.523	-79.53
819.701	22.87
819.879	29.01
820.058	14.68
820.236	-3.75
820.414	29.01
820.592	-46.76
820.77	-32.43
820.948	-11.95
821.127	-79.53
821.305	-36.52
821.483	-50.86
821.661	106.84
821.839	69.97
822.017	26.96
822.195	-28.33
822.373	84.31
822.551	-46.76
822.729	59.73
822.907	18.77
823.085	151.89
823.262	33.11
823.44	-9.9
823.618	-38.57
823.796	22.87
823.974	-50.86
824.152	-89.77
824.329	22.87
824.507	4.44
824.685	88.4
824.863	-65.19
825.04	10.58
825.218	94.55
825.396	55.64
825.574	6.49
825.751	65.88
825.929	86.36
826.107	-44.71
826.284	-38.57
826.462	-20.14
826.639	-95.91
826.817	-16.04
826.994	18.77
827.172	-102.06
827.349	151.89
827.527	29.01
827.704	88.4
827.882	-3.75
828.059	-50.86
828.237	-3.75
828.414	39.25
828.591	-192.17
828.769	-46.76
828.946	-13.99
829.124	88.4
829.301	123.22
829.478	-7.85
829.655	-3.75
829.833	88.4
830.01	-116.39
830.187	59.73
830.364	43.35
830.542	-28.33
830.719	108.88
830.896	-59.05
831.073	18.77
831.25	76.12
831.427	29.01
831.604	-7.85
831.782	0.34
831.959	-48.81
832.136	57.68
832.313	35.16
832.49	-46.76
832.667	72.02
832.844	-59.05
833.021	90.45
833.198	22.87
833.374	-42.67
833.551	0.34
833.728	26.96
833.905	47.44
834.082	-116.39
834.259	14.68
834.436	133.46
834.612	-65.19
834.789	67.92
834.966	20.82
835.143	-13.99
835.319	-87.72
835.496	24.92
835.673	104.79
835.85	102.74
836.026	-1.71
836.203	-18.09
836.38	-32.43
836.556	-48.81
836.733	-36.52
836.909	43.35
837.086	-120.49
837.262	-57
837.439	2.39
837.616	-42.67
837.792	-89.77
837.968	-5.8
838.145	-100.01
838.321	0.34
838.498	37.2
838.674	76.12
838.851	20.82
839.027	-28.33
839.203	-7.85
839.38	16.73
839.556	12.63
839.732	96.6
839.909	-22.19
840.085	65.88
840.261	26.96
840.437	57.68
840.614	-22.19
840.79	74.07
840.966	-11.95
841.142	43.35
841.318	-69.29
841.494	8.53
841.671	96.6
841.847	-79.53
842.023	-57
842.199	53.59
842.375	117.08
842.551	-126.63
842.727	-71.34
842.903	158.03
843.079	-61.1
843.255	84.31
843.431	20.82
843.607	12.63
843.783	-89.77
843.959	2.39
844.134	-114.34
844.31	108.88
844.486	-93.87
844.662	8.53
844.838	2.39
845.013	67.92
845.189	4.44
845.365	24.92
845.541	-87.72
845.716	0.34
845.892	35.16
846.068	-11.95
846.244	-112.3
846.419	63.83
846.595	-57
846.77	-44.71
846.946	47.44
847.122	-46.76
847.297	-61.1
847.473	170.32
847.648	-91.82
847.824	-50.86
847.999	-75.43
848.175	-132.78
848.35	29.01
848.526	51.54
848.701	35.16
848.876	31.06
849.052	59.73
849.227	-22.19
849.403	76.12
849.578	20.82
849.753	37.2
849.929	100.69
850.104	-100.01
850.279	-28.33
850.454	78.16
850.63	88.4
850.805	-30.38
850.98	-11.95
851.155	-40.62
851.33	-38.57
851.505	-61.1
851.681	108.88
851.856	-18.09
852.031	102.74
852.206	57.68
852.381	-50.86
852.556	-38.57
852.731	57.68
852.906	37.2
853.081	16.73
853.256	98.64
853.431	20.82
853.606	-32.43
853.781	-9.9
853.956	-151.21
854.131	-48.81
854.305	-63.15
854.48	8.53
854.655	-54.95
854.83	-36.52
855.005	18.77
855.18	4.44
855.354	-28.33
855.529	-18.09
855.704	-44.71
855.879	29.01
856.053	-114.34
856.228	12.63
856.403	-73.39
856.577	24.92
856.752	-120.49
856.926	0.34
857.101	-40.62
857.276	-89.77
857.45	84.31
857.625	41.3
857.799	24.92
857.974	8.53
858.148	-89.77
858.323	47.44
858.497	-73.39
858.672	-11.95
858.846	-38.57
859.02	22.87
859.195	-75.43
859.369	-1.71
859.543	-36.52
859.718	-32.43
859.892	16.73
860.066	-11.95
860.241	-48.81
860.415	-22.19
860.589	-52.91
860.763	65.88
860.938	-59.05
861.112	-18.09
861.286	-26.28
861.46	51.54
861.634	14.68
861.808	53.59
861.982	-108.2
862.157	-75.43
862.331	-61.1
862.505	-128.68
862.679	-81.58
862.853	-48.81
863.027	-69.29
863.201	43.35
863.375	-26.28
863.549	0.34
863.722	20.82
863.896	100.69
864.07	-61.1
864.244	63.83
864.418	78.16
864.592	4.44
864.766	-26.28
864.939	-5.8
865.113	-87.72
865.287	76.12
865.461	-83.63
865.634	-20.14
865.808	-1.71
865.982	-114.34
866.156	-65.19
866.329	-59.05
866.503	-61.1
866.676	96.6
866.85	51.54
867.024	-73.39
867.197	24.92
867.371	6.49
867.544	78.16
867.718	-42.67
867.891	45.4
868.065	-54.95
868.238	61.78
868.412	115.03
868.585	14.68
868.759	-59.05
868.932	-65.19
869.105	-130.73
869.279	57.68
869.452	-120.49
869.625	45.4
869.799	-134.82
869.972	-67.24
870.145	-71.34
870.319	98.64
870.492	0.34
870.665	-46.76
870.838	-57
871.011	-206.5
871.185	-112.3
871.358	-34.47
871.531	22.87
871.704	-71.34
871.877	-7.85
872.05	-59.05
872.223	-44.71
872.396	76.12
872.569	4.44
872.742	-79.53
872.915	41.3
873.088	-22.19
873.261	-22.19
873.434	72.02
873.607	-93.87
873.78	108.88
873.953	-114.34
874.126	45.4
874.299	67.92
874.471	39.25
874.644	-106.15
874.817	-9.9
874.99	129.36
875.163	-67.24
875.335	8.53
875.508	-32.43
875.681	43.35
875.853	-63.15
876.026	-38.57
876.199	-1.71
876.371	-30.38
876.544	-36.52
876.717	-57
876.889	-106.15
877.062	-22.19
877.234	-59.05
877.407	-65.19
877.579	-36.52
877.752	-42.67
877.924	31.06
878.097	59.73
878.269	33.11
878.442	-3.75
878.614	-63.15
878.786	-34.47
878.959	-54.95
879.131	-38.57
879.303	-132.78
879.476	-36.52
879.648	57.68
879.82	-20.14
879.993	-18.09
880.165	39.25
880.337	-175.78
880.509	47.44
880.681	-61.1
880.854	-77.48
881.026	39.25
881.198	201.04
881.37	-38.57
881.542	0.34
881.714	-16.04
881.886	-38.57
882.058	-102.06
882.23	14.68
882.402	4.44
882.574	22.87
882.746	59.73
882.918	41.3
883.09	-40.62
883.262	-83.63
883.434	-50.86
883.606	-30.38
883.778	-30.38
883.95	141.65
884.122	-36.52
884.293	74.07
884.465	-100.01
884.637	104.79
884.809	-48.81
884.98	41.3
885.152	57.68
885.324	10.58
885.496	-102.06
885.667	-26.28
885.839	-42.67
886.011	96.6
886.182	-28.33
886.354	55.64
886.525	39.25
886.697	43.35
886.869	-52.91
887.04	-81.58
887.212	55.64
887.383	112.98
887.555	-52.91
887.726	8.53
887.897	-71.34
888.069	-22.19
888.24	39.25
888.412	-1.71
888.583	-16.04
888.754	-59.05
888.926	-110.25
889.097	-38.57
889.268	-26.28
889.44	-5.8
889.611	-61.1
889.782	-32.43
889.953	14.68
890.125	145.75
890.296	-95.91
890.467	-42.67
890.638	-59.05
890.809	0.34
890.98	-52.91
891.151	82.26
891.323	76.12
891.494	-89.77
891.665	-40.62
891.836	-44.71
892.007	-91.82
892.178	-57
892.349	-63.15
892.52	-36.52
892.691	24.92
892.862	-11.95
893.032	-153.26
893.203	-65.19
893.374	61.78
893.545	-44.71
893.716	-38.57
893.887	-63.15
894.057	-54.95
894.228	37.2
894.399	-30.38
894.57	-24.23
894.74	-13.99
894.911	82.26
895.082	-28.33
895.253	-34.47
895.423	-48.81
895.594	39.25
895.764	24.92
895.935	-116.39
896.106	14.68
896.276	-77.48
896.447	-7.85
896.617	-89.77
896.788	-83.63
896.958	-120.49
897.129	-102.06
897.299	-20.14
897.47	41.3
897.64	24.92
897.81	53.59
897.981	18.77
898.151	-34.47
898.322	-11.95
898.492	57.68
898.662	-95.91
898.832	-50.86
899.003	-52.91
899.173	-20.14
899.343	-71.34
899.513	-73.39
