Data from USB4F104151__248__11-19-58-936.txt Node

Date: Wed Feb 26 11:19:58 EST 2025
User: louis
Spectrometer: USB4F10415
Trigger mode: 4
Integration Time (sec): 1.000000E-1
Scans to average: 1
Electric dark correction enabled: true
Nonlinearity correction enabled: false
Boxcar width: 0
XAxis mode: Wavelengths
Number of Pixels in Spectrum: 3648
>>>>>Begin Spectral Data<<<<<
178.204	-400.55
178.424	-400.55
178.644	-400.55
178.864	-435.36
179.084	-404.64
179.304	56.15
179.524	-56.49
179.744	-29.87
179.964	27.48
180.184	13.14
180.404	52.05
180.624	70.48
180.844	-48.3
181.064	-70.83
181.283	-9.39
181.503	-56.49
181.723	52.05
181.943	-19.63
182.163	121.68
182.383	37.72
182.602	80.72
182.822	152.4
183.042	109.4
183.262	19.29
183.482	17.24
183.701	37.72
183.921	13.14
184.141	-64.68
184.361	33.62
184.58	78.68
184.8	76.63
185.02	47.96
185.239	121.68
185.459	136.02
185.679	84.82
185.898	-29.87
186.118	86.87
186.338	68.44
186.557	105.3
186.777	17.24
186.997	-50.35
187.216	54.1
187.436	271.19
187.655	78.68
187.875	90.96
188.095	43.86
188.314	176.98
188.534	127.83
188.753	-52.39
188.973	17.24
189.192	242.51
189.412	27.48
189.631	66.39
189.851	84.82
190.07	148.31
190.29	-58.54
190.509	62.29
190.729	70.48
190.948	127.83
191.168	301.9
191.387	39.76
191.607	35.67
191.826	170.83
192.045	7
192.265	-5.29
192.484	95.06
192.704	19.29
192.923	52.05
193.142	226.13
193.362	113.49
193.581	129.88
193.8	60.24
194.02	119.64
194.239	95.06
194.458	78.68
194.678	-40.11
194.897	-17.58
195.116	187.22
195.335	95.06
195.555	82.77
195.774	-3.24
195.993	144.21
196.212	25.43
196.432	29.52
196.651	17.24
196.87	-17.58
197.089	369.49
197.308	62.29
197.528	127.83
197.747	-46.25
197.966	47.96
198.185	136.02
198.404	21.33
198.623	138.07
198.842	142.16
199.062	174.93
199.281	148.31
199.5	45.91
199.719	74.58
199.938	19.29
200.157	68.44
200.376	93.01
200.595	121.68
200.814	80.72
201.033	27.48
201.252	166.74
201.471	119.64
201.69	123.73
201.909	-3.24
202.128	123.73
202.347	76.63
202.566	80.72
202.785	-83.11
203.004	-15.53
203.223	279.38
203.442	-5.29
203.661	2.9
203.879	76.63
204.098	152.4
204.317	-66.73
204.536	125.78
204.755	146.26
204.974	99.16
205.193	23.38
205.411	211.79
205.63	189.27
205.849	29.52
206.068	37.72
206.287	9.05
206.505	158.55
206.724	39.76
206.943	17.24
207.162	45.91
207.381	86.87
207.599	93.01
207.818	0.85
208.037	35.67
208.255	25.43
208.474	17.24
208.693	107.35
208.911	50
209.13	13.14
209.349	123.73
209.567	99.16
209.786	2.9
210.005	164.69
210.223	99.16
210.442	-44.2
210.661	33.62
210.879	62.29
211.098	43.86
211.316	74.58
211.535	19.29
211.753	138.07
211.972	129.88
212.191	68.44
212.409	68.44
212.628	109.4
212.846	27.48
213.065	111.44
213.283	174.93
213.502	70.48
213.72	45.91
213.938	60.24
214.157	19.29
214.375	101.2
214.594	27.48
214.812	107.35
215.031	13.14
215.249	105.3
215.467	60.24
215.686	31.57
215.904	125.78
216.122	47.96
216.341	160.59
216.559	50
216.778	62.29
216.996	121.68
217.214	23.38
217.432	7
217.651	-23.72
217.869	99.16
218.087	4.95
218.306	82.77
218.524	9.05
218.742	74.58
218.96	142.16
219.179	37.72
219.397	41.81
219.615	252.75
219.833	62.29
220.051	-33.96
220.27	76.63
220.488	103.25
220.706	33.62
220.924	84.82
221.142	31.57
221.36	123.73
221.578	99.16
221.796	117.59
222.015	58.2
222.233	99.16
222.451	160.59
222.669	-21.67
222.887	129.88
223.105	-9.39
223.323	62.29
223.541	-15.53
223.759	84.82
223.977	47.96
224.195	176.98
224.413	88.92
224.631	84.82
224.849	15.19
225.067	199.51
225.285	27.48
225.503	121.68
225.721	-70.83
225.939	123.73
226.157	95.06
226.375	240.47
226.592	13.14
226.81	119.64
227.028	142.16
227.246	140.12
227.464	103.25
227.682	111.44
227.9	150.36
228.117	56.15
228.335	111.44
228.553	86.87
228.771	0.85
228.989	4.95
229.206	113.49
229.424	45.91
229.642	-54.44
229.86	27.48
230.077	187.22
230.295	84.82
230.513	62.29
230.731	33.62
230.948	240.47
231.166	150.36
231.384	64.34
231.601	21.33
231.819	144.21
232.037	19.29
232.254	-40.11
232.472	50
232.689	-48.3
232.907	113.49
233.125	23.38
233.342	-5.29
233.56	-48.3
233.777	78.68
233.995	119.64
234.213	205.65
234.43	45.91
234.648	45.91
234.865	39.76
235.083	99.16
235.3	-19.63
235.518	66.39
235.735	195.41
235.953	88.92
236.17	2.9
236.388	58.2
236.605	72.53
236.822	113.49
237.04	142.16
237.257	58.2
237.475	17.24
237.692	74.58
237.909	50
238.127	13.14
238.344	66.39
238.562	52.05
238.779	45.91
238.996	-7.34
239.214	56.15
239.431	109.4
239.648	-31.91
239.865	103.25
240.083	93.01
240.3	39.76
240.517	-42.15
240.735	80.72
240.952	219.99
241.169	152.4
241.386	129.88
241.603	78.68
241.821	-97.45
242.038	123.73
242.255	74.58
242.472	-46.25
242.689	121.68
242.907	113.49
243.124	23.38
243.341	43.86
243.558	60.24
243.775	76.63
243.992	-48.3
244.209	72.53
244.426	197.46
244.643	58.2
244.86	93.01
245.078	203.6
245.295	117.59
245.512	78.68
245.729	76.63
245.946	99.16
246.163	127.83
246.38	9.05
246.597	105.3
246.814	80.72
247.031	123.73
247.248	54.1
247.464	176.98
247.681	-13.48
247.898	50
248.115	99.16
248.332	105.3
248.549	191.31
248.766	244.56
248.983	56.15
249.2	76.63
249.417	142.16
249.633	31.57
249.85	74.58
250.067	117.59
250.284	52.05
250.501	58.2
250.717	166.74
250.934	7
251.151	95.06
251.368	29.52
251.585	15.19
251.801	72.53
252.018	25.43
252.235	58.2
252.451	-81.07
252.668	66.39
252.885	129.88
253.102	107.35
253.318	47.96
253.535	47.96
253.752	50
253.968	29.52
254.185	-23.72
254.401	31.57
254.618	-25.77
254.835	50
255.051	199.51
255.268	107.35
255.484	107.35
255.701	99.16
255.917	101.2
256.134	76.63
256.351	97.11
256.567	-3.24
256.784	41.81
257	-42.15
257.217	140.12
257.433	72.53
257.65	17.24
257.866	117.59
258.082	37.72
258.299	23.38
258.515	101.2
258.732	50
258.948	-13.48
259.165	111.44
259.381	-3.24
259.597	88.92
259.814	-25.77
260.03	70.48
260.246	31.57
260.463	86.87
260.679	187.22
260.895	11.09
261.112	93.01
261.328	17.24
261.544	-9.39
261.761	140.12
261.977	19.29
262.193	-54.44
262.409	58.2
262.626	93.01
262.842	-5.29
263.058	-1.19
263.274	172.88
263.49	127.83
263.707	107.35
263.923	140.12
264.139	-21.67
264.355	66.39
264.571	127.83
264.787	181.07
265.004	115.54
265.22	62.29
265.436	-19.63
265.652	4.95
265.868	58.2
266.084	-7.34
266.3	52.05
266.516	-9.39
266.732	39.76
266.948	45.91
267.164	41.81
267.38	72.53
267.596	76.63
267.812	246.61
268.028	97.11
268.244	103.25
268.46	66.39
268.676	37.72
268.892	58.2
269.108	-27.82
269.324	11.09
269.54	-11.43
269.756	43.86
269.972	-48.3
270.188	70.48
270.403	-15.53
270.619	72.53
270.835	142.16
271.051	-9.39
271.267	97.11
271.483	47.96
271.698	189.27
271.914	70.48
272.13	54.1
272.346	9.05
272.562	47.96
272.777	101.2
272.993	97.11
273.209	21.33
273.425	113.49
273.64	-56.49
273.856	99.16
274.072	62.29
274.287	-25.77
274.503	138.07
274.719	150.36
274.934	0.85
275.15	-23.72
275.366	41.81
275.581	35.67
275.797	47.96
276.012	107.35
276.228	-7.34
276.444	29.52
276.659	99.16
276.875	-56.49
277.09	25.43
277.306	35.67
277.521	47.96
277.737	37.72
277.952	95.06
278.168	88.92
278.383	11.09
278.599	90.96
278.814	150.36
279.03	90.96
279.245	101.2
279.461	50
279.676	99.16
279.892	-25.77
280.107	-5.29
280.322	62.29
280.538	133.97
280.753	-52.39
280.969	86.87
281.184	29.52
281.399	97.11
281.615	64.34
281.83	60.24
282.045	-54.44
282.26	-50.35
282.476	27.48
282.691	138.07
282.906	41.81
283.122	58.2
283.337	47.96
283.552	152.4
283.767	-3.24
283.983	107.35
284.198	-19.63
284.413	52.05
284.628	-46.25
284.843	66.39
285.058	62.29
285.274	0.85
285.489	-11.43
285.704	99.16
285.919	41.81
286.134	33.62
286.349	93.01
286.564	70.48
286.779	187.22
286.995	-62.63
287.21	-81.07
287.425	-7.34
287.64	21.33
287.855	84.82
288.07	-38.06
288.285	136.02
288.5	47.96
288.715	142.16
288.93	58.2
289.145	-15.53
289.36	72.53
289.575	60.24
289.79	127.83
290.004	-31.91
290.219	164.69
290.434	-7.34
290.649	19.29
290.864	25.43
291.079	41.81
291.294	103.25
291.509	103.25
291.724	117.59
291.938	39.76
292.153	29.52
292.368	58.2
292.583	58.2
292.798	105.3
293.012	111.44
293.227	78.68
293.442	62.29
293.657	93.01
293.871	99.16
294.086	31.57
294.301	156.5
294.516	193.36
294.73	78.68
294.945	-52.39
295.16	41.81
295.374	88.92
295.589	154.45
295.804	11.09
296.018	41.81
296.233	111.44
296.447	68.44
296.662	27.48
296.877	74.58
297.091	25.43
297.306	47.96
297.52	74.58
297.735	72.53
297.949	105.3
298.164	29.52
298.378	35.67
298.593	-21.67
298.807	45.91
299.022	52.05
299.236	219.99
299.451	88.92
299.665	17.24
299.88	33.62
300.094	164.69
300.309	93.01
300.523	121.68
300.737	47.96
300.952	107.35
301.166	107.35
301.381	29.52
301.595	21.33
301.809	93.01
302.024	76.63
302.238	-54.44
302.452	97.11
302.667	64.34
302.881	115.54
303.095	174.93
303.309	138.07
303.524	-1.19
303.738	84.82
303.952	39.76
304.166	90.96
304.381	-33.96
304.595	84.82
304.809	43.86
305.023	4.95
305.237	27.48
305.452	19.29
305.666	90.96
305.88	105.3
306.094	154.45
306.308	113.49
306.522	93.01
306.736	115.54
306.95	95.06
307.164	58.2
307.379	45.91
307.593	185.17
307.807	140.12
308.021	56.15
308.235	95.06
308.449	-124.07
308.663	19.29
308.877	273.23
309.091	78.68
309.305	154.45
309.519	-36.01
309.733	168.79
309.947	-48.3
310.161	131.92
310.374	88.92
310.588	125.78
310.802	-64.68
311.016	-5.29
311.23	68.44
311.444	-56.49
311.658	58.2
311.872	78.68
312.085	193.36
312.299	162.64
312.513	136.02
312.727	86.87
312.941	19.29
313.154	50
313.368	52.05
313.582	41.81
313.796	47.96
314.009	-21.67
314.223	80.72
314.437	103.25
314.651	230.23
314.864	-9.39
315.078	47.96
315.292	13.14
315.505	117.59
315.719	64.34
315.933	109.4
316.146	11.09
316.36	39.76
316.573	131.92
316.787	146.26
317.001	109.4
317.214	0.85
317.428	9.05
317.641	-7.34
317.855	56.15
318.068	105.3
318.282	121.68
318.495	193.36
318.709	93.01
318.922	68.44
319.136	181.07
319.349	142.16
319.563	60.24
319.776	121.68
319.99	35.67
320.203	148.31
320.417	31.57
320.63	131.92
320.843	150.36
321.057	97.11
321.27	78.68
321.483	162.64
321.697	203.6
321.91	117.59
322.124	117.59
322.337	33.62
322.55	0.85
322.763	97.11
322.977	45.91
323.19	31.57
323.403	127.83
323.617	27.48
323.83	162.64
324.043	27.48
324.256	95.06
324.469	-101.55
324.683	105.3
324.896	27.48
325.109	107.35
325.322	-1.19
325.535	107.35
325.748	111.44
325.962	60.24
326.175	56.15
326.388	84.82
326.601	144.21
326.814	27.48
327.027	74.58
327.24	179.03
327.453	-54.44
327.666	47.96
327.879	129.88
328.092	70.48
328.305	-9.39
328.518	31.57
328.731	-7.34
328.944	50
329.157	62.29
329.37	17.24
329.583	256.85
329.796	162.64
330.009	-31.91
330.222	97.11
330.435	78.68
330.648	17.24
330.861	88.92
331.073	37.72
331.286	127.83
331.499	97.11
331.712	-5.29
331.925	103.25
332.138	70.48
332.35	146.26
332.563	4.95
332.776	189.27
332.989	15.19
333.202	-3.24
333.414	13.14
333.627	113.49
333.84	47.96
334.053	138.07
334.265	80.72
334.478	47.96
334.691	19.29
334.903	23.38
335.116	19.29
335.329	4.95
335.541	172.88
335.754	103.25
335.966	0.85
336.179	107.35
336.392	-27.82
336.604	86.87
336.817	144.21
337.029	105.3
337.242	66.39
337.454	111.44
337.667	60.24
337.88	144.21
338.092	45.91
338.305	84.82
338.517	74.58
338.729	56.15
338.942	150.36
339.154	-21.67
339.367	21.33
339.579	107.35
339.792	-85.16
340.004	68.44
340.217	-33.96
340.429	148.31
340.641	-38.06
340.854	2.9
341.066	37.72
341.278	183.12
341.491	160.59
341.703	31.57
341.915	9.05
342.128	105.3
342.34	66.39
342.552	-5.29
342.764	27.48
342.977	66.39
343.189	47.96
343.401	105.3
343.613	-81.07
343.826	64.34
344.038	17.24
344.25	176.98
344.462	21.33
344.674	74.58
344.886	86.87
345.099	127.83
345.311	62.29
345.523	45.91
345.735	-38.06
345.947	74.58
346.159	-1.19
346.371	80.72
346.583	-17.58
346.795	168.79
347.007	117.59
347.219	78.68
347.431	13.14
347.643	129.88
347.855	-31.91
348.067	172.88
348.279	-7.34
348.491	47.96
348.703	191.31
348.915	-1.19
349.127	-25.77
349.339	60.24
349.551	47.96
349.763	107.35
349.975	-7.34
350.187	131.92
350.399	140.12
350.61	66.39
350.822	29.52
351.034	99.16
351.246	101.2
351.458	66.39
351.669	181.07
351.881	127.83
352.093	105.3
352.305	156.5
352.517	72.53
352.728	158.55
352.94	74.58
353.152	152.4
353.363	-15.53
353.575	179.03
353.787	160.59
353.999	66.39
354.21	160.59
354.422	35.67
354.633	23.38
354.845	78.68
355.057	31.57
355.268	45.91
355.48	125.78
355.692	-38.06
355.903	50
356.115	-7.34
356.326	-52.39
356.538	172.88
356.749	105.3
356.961	193.36
357.172	80.72
357.384	-1.19
357.595	176.98
357.807	72.53
358.018	11.09
358.23	58.2
358.441	144.21
358.653	154.45
358.864	80.72
359.075	-103.59
359.287	64.34
359.498	129.88
359.709	70.48
359.921	80.72
360.132	168.79
360.344	93.01
360.555	58.2
360.766	127.83
360.977	90.96
361.189	125.78
361.4	39.76
361.611	205.65
361.823	164.69
362.034	125.78
362.245	62.29
362.456	2.9
362.667	50
362.879	52.05
363.09	50
363.301	103.25
363.512	93.01
363.723	-74.92
363.935	99.16
364.146	4.95
364.357	97.11
364.568	84.82
364.779	13.14
364.99	64.34
365.201	56.15
365.412	101.2
365.623	-74.92
365.834	47.96
366.045	95.06
366.256	144.21
366.467	144.21
366.678	19.29
366.889	-9.39
367.1	11.09
367.311	127.83
367.522	-11.43
367.733	25.43
367.944	64.34
368.155	-5.29
368.366	152.4
368.577	82.77
368.788	166.74
368.999	-29.87
369.209	52.05
369.42	131.92
369.631	176.98
369.842	150.36
370.053	15.19
370.264	129.88
370.474	45.91
370.685	168.79
370.896	15.19
371.107	131.92
371.317	105.3
371.528	70.48
371.739	226.13
371.95	113.49
372.16	111.44
372.371	-3.24
372.582	11.09
372.792	119.64
373.003	121.68
373.214	86.87
373.424	76.63
373.635	17.24
373.846	129.88
374.056	31.57
374.267	52.05
374.477	50
374.688	78.68
374.898	41.81
375.109	56.15
375.319	0.85
375.53	201.55
375.74	95.06
375.951	43.86
376.161	11.09
376.372	109.4
376.582	9.05
376.793	88.92
377.003	-9.39
377.214	-3.24
377.424	54.1
377.635	74.58
377.845	-21.67
378.055	158.55
378.266	-21.67
378.476	82.77
378.686	52.05
378.897	25.43
379.107	152.4
379.317	103.25
379.528	76.63
379.738	29.52
379.948	-7.34
380.158	129.88
380.369	80.72
380.579	166.74
380.789	39.76
380.999	93.01
381.21	103.25
381.42	179.03
381.63	35.67
381.84	80.72
382.05	23.38
382.261	127.83
382.471	125.78
382.681	72.53
382.891	133.97
383.101	97.11
383.311	80.72
383.521	84.82
383.731	86.87
383.941	158.55
384.151	88.92
384.361	-3.24
384.571	39.76
384.781	82.77
384.991	209.75
385.201	156.5
385.411	199.51
385.621	140.12
385.831	111.44
386.041	86.87
386.251	72.53
386.461	115.54
386.671	-25.77
386.881	70.48
387.091	121.68
387.301	144.21
387.511	82.77
387.72	125.78
387.93	72.53
388.14	23.38
388.35	21.33
388.56	170.83
388.769	74.58
388.979	47.96
389.189	-17.58
389.399	27.48
389.609	133.97
389.818	148.31
390.028	136.02
390.238	80.72
390.447	15.19
390.657	121.68
390.867	33.62
391.076	-66.73
391.286	31.57
391.496	127.83
391.705	37.72
391.915	131.92
392.125	133.97
392.334	56.15
392.544	103.25
392.753	70.48
392.963	4.95
393.172	107.35
393.382	90.96
393.591	205.65
393.801	45.91
394.01	164.69
394.22	121.68
394.429	29.52
394.639	37.72
394.848	121.68
395.058	41.81
395.267	29.52
395.477	58.2
395.686	148.31
395.895	213.84
396.105	219.99
396.314	113.49
396.524	144.21
396.733	58.2
396.942	170.83
397.152	70.48
397.361	136.02
397.57	99.16
397.78	111.44
397.989	74.58
398.198	183.12
398.407	56.15
398.617	78.68
398.826	11.09
399.035	7
399.244	140.12
399.453	47.96
399.663	70.48
399.872	82.77
400.081	23.38
400.29	131.92
400.499	29.52
400.708	205.65
400.917	7
401.127	-7.34
401.336	58.2
401.545	289.62
401.754	133.97
401.963	183.12
402.172	-81.07
402.381	35.67
402.59	56.15
402.799	45.91
403.008	164.69
403.217	35.67
403.426	119.64
403.635	-25.77
403.844	95.06
404.053	21.33
404.262	15.19
404.471	226.13
404.68	31.57
404.888	27.48
405.097	31.57
405.306	88.92
405.515	131.92
405.724	95.06
405.933	109.4
406.142	215.89
406.35	119.64
406.559	35.67
406.768	54.1
406.977	136.02
407.185	99.16
407.394	43.86
407.603	13.14
407.812	127.83
408.02	209.75
408.229	52.05
408.438	82.77
408.646	-56.49
408.855	158.55
409.064	136.02
409.272	88.92
409.481	80.72
409.69	19.29
409.898	0.85
410.107	119.64
410.315	97.11
410.524	-21.67
410.733	103.25
410.941	84.82
411.15	90.96
411.358	62.29
411.567	150.36
411.775	29.52
411.984	86.87
412.192	95.06
412.401	47.96
412.609	109.4
412.818	193.36
413.026	136.02
413.234	64.34
413.443	84.82
413.651	29.52
413.86	31.57
414.068	211.79
414.276	185.17
414.485	43.86
414.693	187.22
414.901	166.74
415.11	47.96
415.318	70.48
415.526	95.06
415.734	148.31
415.943	123.73
416.151	107.35
416.359	105.3
416.567	56.15
416.776	88.92
416.984	82.77
417.192	219.99
417.4	43.86
417.608	72.53
417.817	31.57
418.025	133.97
418.233	199.51
418.441	-25.77
418.649	47.96
418.857	113.49
419.065	217.94
419.273	-33.96
419.481	93.01
419.689	62.29
419.897	58.2
420.105	66.39
420.313	168.79
420.521	185.17
420.729	168.79
420.937	2.9
421.145	97.11
421.353	125.78
421.561	172.88
421.769	39.76
421.977	86.87
422.185	123.73
422.393	88.92
422.601	123.73
422.809	121.68
423.017	80.72
423.224	152.4
423.432	160.59
423.64	164.69
423.848	56.15
424.056	9.05
424.263	119.64
424.471	115.54
424.679	168.79
424.887	37.72
425.094	148.31
425.302	152.4
425.51	60.24
425.718	144.21
425.925	7
426.133	9.05
426.341	273.23
426.548	99.16
426.756	86.87
426.964	146.26
427.171	64.34
427.379	78.68
427.586	82.77
427.794	78.68
428.001	222.03
428.209	111.44
428.417	183.12
428.624	121.68
428.832	176.98
429.039	107.35
429.247	172.88
429.454	115.54
429.662	275.28
429.869	109.4
430.076	111.44
430.284	133.97
430.491	217.94
430.699	228.18
430.906	222.03
431.114	158.55
431.321	160.59
431.528	107.35
431.736	207.7
431.943	185.17
432.15	209.75
432.358	320.34
432.565	359.25
432.772	37.72
432.979	262.99
433.187	156.5
433.394	201.55
433.601	246.61
433.808	303.95
434.016	250.71
434.223	265.04
434.43	211.79
434.637	250.71
434.844	316.24
435.052	213.84
435.259	318.29
435.466	275.28
435.673	260.95
435.88	355.15
436.087	230.23
436.294	416.59
436.501	389.97
436.708	328.53
436.915	281.43
437.122	398.16
437.329	297.81
437.537	394.06
437.743	432.97
437.95	598.86
438.157	465.74
438.364	426.83
438.571	410.45
438.778	430.93
438.985	527.18
439.192	627.53
439.399	549.71
439.606	480.08
439.813	607.05
440.02	656.2
440.227	715.59
440.433	590.67
440.64	568.14
440.847	432.97
441.054	570.19
441.261	791.37
441.467	652.11
441.674	602.96
441.881	820.04
442.088	650.06
442.294	840.52
442.501	764.75
442.708	830.28
442.914	783.18
443.121	951.11
443.328	938.82
443.534	1037.13
443.741	1012.55
443.948	910.15
444.154	1147.72
444.361	1239.87
444.568	1065.8
444.774	1076.04
444.981	1041.22
445.187	1274.69
445.394	1225.54
445.6	1311.55
445.807	1418.05
446.013	1379.14
446.22	1360.7
446.426	1598.27
446.633	1596.22
446.839	1682.24
447.046	1571.65
447.252	1790.78
447.459	1704.76
447.665	1672
447.871	1831.74
448.078	2177.84
448.284	1975.1
448.491	2229.04
448.697	2306.87
448.903	2339.63
449.11	2370.35
449.316	2380.59
449.522	2515.76
449.728	2511.66
449.935	2687.79
450.141	2751.28
450.347	2904.87
450.553	2886.44
450.76	2999.08
450.966	3064.61
451.172	3191.59
451.378	3408.67
451.584	3431.2
451.791	3744.54
451.997	3756.83
452.203	3855.13
452.409	4027.16
452.615	4342.55
452.821	3996.44
453.027	4166.42
453.233	4709.13
453.44	4619.02
453.646	4682.51
453.852	4967.18
454.058	5151.49
454.264	5210.89
454.47	5591.81
454.676	5690.11
454.882	6114.04
455.088	5878.52
455.294	6222.58
455.5	6636.27
455.705	7158.5
455.911	7070.44
456.117	7320.29
456.323	7543.52
456.529	7441.12
456.735	8168.15
456.941	8325.85
457.147	8618.71
457.352	8970.96
457.558	9198.28
457.764	9796.29
457.97	9943.74
458.176	10203.83
458.381	10783.41
458.587	11027.12
458.793	11780.77
458.999	11618.98
459.204	13017.74
459.41	13445.77
459.616	13386.38
459.821	13867.65
460.027	14756.47
460.233	15245.93
460.438	15403.63
460.644	16443.99
460.85	16622.17
461.055	16874.07
461.261	18055.75
461.466	17621.58
461.672	17932.87
461.878	19886.63
462.083	19630.63
462.289	20476.44
462.494	20869.65
462.7	21182.99
462.905	21522.96
463.111	23312.88
463.316	24379.87
463.522	24760.8
463.727	25504.21
463.932	26419.65
464.138	27523.51
464.343	28424.61
464.549	28426.66
464.754	30208.39
464.959	31902.06
465.165	32057.71
465.37	31682.93
465.575	31721.84
465.781	34179.4
465.986	35117.37
466.191	34527.56
466.397	34677.06
466.602	33868.11
466.807	35871.03
467.012	36405.55
467.218	37009.7
467.423	37146.91
467.628	38557.96
467.833	40583.4
468.038	39528.7
468.244	38742.28
468.449	40732.9
468.654	39653.62
468.859	39899.38
469.064	39782.65
469.269	39665.91
469.474	39313.66
469.679	40855.78
469.885	39526.65
470.09	40233.2
470.295	39926
470.5	39252.22
470.705	39897.33
470.91	38564.1
471.115	38011.15
471.32	38797.57
471.525	38375.69
471.73	37013.79
471.935	37126.43
472.139	35813.68
472.344	35692.85
472.549	35510.58
472.754	35088.7
472.959	34175.31
473.164	33231.19
473.369	32579.94
473.574	33577.3
473.778	32782.69
473.983	31902.06
474.188	31850.86
474.393	30011.79
474.598	29991.31
474.802	29221.27
475.007	29278.61
475.212	28801.44
475.417	27597.23
475.621	27234.74
475.826	27206.07
476.031	26581.44
476.235	25973.19
476.44	25686.48
476.645	25317.84
476.849	25465.3
477.054	24764.89
477.259	24197.6
477.463	24066.53
477.668	23402.99
477.872	23224.82
478.077	22776.31
478.282	22094.34
478.486	21963.27
478.691	21486.09
478.895	21473.81
479.1	21191.19
479.304	21234.19
479.509	20433.44
479.713	20638.23
479.918	20113.95
480.122	19790.38
480.326	19882.53
480.531	19761.7
480.735	19917.35
480.94	19323.44
481.144	19808.81
481.348	19051.06
481.553	18950.71
481.757	18649.66
481.961	18928.18
482.166	19155.51
482.37	18782.77
482.574	18000.45
482.778	18188.86
482.983	18311.74
483.187	17691.21
483.391	17877.57
483.595	17588.81
483.8	17220.17
484.004	17547.85
484.208	17443.4
484.412	17109.58
484.616	16818.77
484.821	16761.43
485.025	16413.27
485.229	16351.84
485.433	16169.57
485.637	15905.38
485.841	15780.45
486.045	15415.91
486.249	15352.43
486.453	15078
486.657	14963.31
486.861	14541.43
487.065	14199.42
487.269	14092.93
487.473	13843.07
487.677	13775.49
487.881	13787.78
488.085	13275.79
488.289	13322.89
488.493	12858
488.697	13040.27
488.901	12728.98
489.105	12153.5
489.309	12044.96
489.512	11975.33
489.716	11868.83
489.92	11573.92
490.124	11252.39
490.328	11281.07
490.531	10945.2
490.735	10803.89
490.939	10521.27
491.143	10300.09
491.346	9974.46
491.55	10236.6
491.754	9892.54
491.958	9814.72
492.161	9575.11
492.365	9319.11
492.569	9134.79
492.772	9214.66
492.976	9108.17
493.18	8811.21
493.383	8911.57
493.587	8786.64
493.79	8612.56
493.994	8280.79
494.197	8389.33
494.401	8313.56
494.605	8057.56
494.808	8264.41
495.012	8102.62
495.215	8098.52
495.419	8094.43
495.622	7858.91
495.825	7811.81
496.029	7672.54
496.232	7881.44
496.436	7631.58
496.639	7738.08
496.843	7725.79
497.046	7768.8
497.249	7658.21
497.453	7951.07
497.656	7789.28
497.859	7650.02
498.063	7672.54
498.266	7733.98
498.469	7623.39
498.673	7768.8
498.876	7836.38
499.079	7891.68
499.282	7717.6
499.485	8082.14
499.689	7766.75
499.892	7944.92
500.095	7899.87
500.298	8043.23
500.501	7938.78
500.705	8143.58
500.908	8477.4
501.111	8319.7
501.314	8418
501.517	8483.54
501.72	8499.92
501.923	8555.22
502.126	8803.02
502.329	8714.96
502.532	8803.02
502.735	9026.25
502.938	9181.9
503.141	9210.57
503.344	9112.27
503.547	9558.72
503.75	9579.2
503.953	9274.06
504.156	9644.74
504.359	9798.34
504.562	10042.04
504.765	10066.62
504.968	10154.68
505.17	10336.95
505.373	10529.46
505.576	10951.34
505.779	10777.26
505.982	10883.76
506.185	11184.81
506.387	11242.15
506.59	11670.18
506.793	11823.78
506.996	11903.65
507.198	12305.05
507.401	12436.12
507.604	12755.6
507.807	12731.03
508.009	13066.89
508.212	13333.13
508.415	13701.76
508.617	13953.66
508.82	14062.21
509.022	14180.99
509.225	14520.95
509.428	15108.72
509.63	15223.41
509.833	15303.28
510.035	16296.54
510.238	16030.3
510.44	16673.37
510.643	17015.38
510.845	17531.47
511.048	17711.69
511.25	18326.08
511.453	18035.27
511.655	19061.3
511.858	19673.64
512.06	19780.14
512.262	20163.11
512.465	20390.43
512.667	21144.08
512.87	21445.13
513.072	21926.41
513.274	22391.3
513.477	22825.47
513.679	23288.31
513.881	24033.77
514.084	24631.77
514.286	25002.46
514.488	25420.24
514.69	26444.23
514.893	26782.14
515.095	27001.27
515.297	28080.55
515.499	28346.79
515.701	29100.44
515.904	29606.29
516.106	30118.28
516.308	30583.17
516.51	31467.89
516.712	31930.73
516.914	32897.38
517.116	33569.11
517.318	33839.44
517.52	34074.96
517.722	34527.56
517.925	35598.65
518.127	36340.01
518.329	37439.77
518.531	37153.05
518.733	38615.3
518.935	38856.96
519.136	39217.41
519.338	39885.04
519.54	40573.16
519.742	41081.06
519.944	41449.69
520.146	42741.96
520.348	42799.3
520.55	43278.53
520.752	44288.18
520.954	44810.41
521.155	44830.89
521.357	45598.88
521.559	46362.77
521.761	47124.61
521.963	46721.16
522.164	47605.89
522.366	47585.41
522.568	48074.87
522.77	48224.37
522.971	48836.72
523.173	48871.53
523.375	49799.26
523.576	49221.73
523.778	49997.91
523.98	50610.26
524.181	50458.71
524.383	50632.78
524.584	50929.74
524.786	50923.6
524.988	50882.64
525.189	51447.88
525.391	51374.15
525.592	51552.32
525.794	51417.16
525.995	51439.68
526.197	51644.48
526.398	51394.63
526.6	51554.37
526.801	51325
527.003	51093.58
527.204	50761.81
527.406	50989.13
527.607	50481.24
527.808	50718.8
528.01	49551.46
528.211	49719.39
528.412	50460.76
528.614	49619.04
528.815	49317.99
529.016	49645.66
529.218	48408.69
529.419	48146.55
529.62	47872.12
529.822	47505.54
530.023	46774.41
530.224	46629.01
530.425	46274.71
530.626	45289.63
530.828	44796.07
531.029	45195.43
531.23	43708.6
531.431	43681.98
531.632	43415.74
531.833	43174.08
532.035	42229.97
532.236	41963.73
532.437	41457.88
532.638	40757.48
532.839	40704.23
533.04	39923.96
533.241	39274.75
533.442	39442.68
533.643	38553.87
533.844	37974.29
534.045	37503.26
534.246	36989.22
534.447	36333.87
534.648	35817.78
534.849	35584.31
535.05	35064.13
535.251	34574.66
535.451	33790.29
535.652	33775.95
535.853	33145.18
536.054	32917.86
536.255	32192.87
536.456	31656.31
536.657	32014.7
536.857	30972.28
537.058	30697.86
537.259	30443.91
537.46	29981.07
537.66	29270.42
537.861	29206.94
538.062	29047.19
538.263	28332.45
538.463	28125.61
538.664	27630
538.865	27361.72
539.065	27484.59
539.266	26612.16
539.466	26239.43
539.667	26163.65
539.868	26130.89
540.068	25465.3
540.269	24816.09
540.469	24904.15
540.67	24328.67
540.87	24271.33
541.071	24076.77
541.271	23712.24
541.472	23431.66
541.672	23001.59
541.873	22755.83
542.073	22389.25
542.274	22657.53
542.474	22211.07
542.675	22028.81
542.875	21629.45
543.075	21273.1
543.276	20914.71
543.476	20883.99
543.676	20548.12
543.877	20630.04
544.077	20175.39
544.277	20163.11
544.478	19796.52
544.678	19608.11
544.878	19192.37
545.078	19044.91
545.279	18813.49
545.479	18358.85
545.679	18491.96
545.879	18154.05
546.079	18158.14
546.28	17533.51
546.48	17369.68
546.68	17562.19
546.88	17250.89
547.08	17457.74
547.28	16691.8
547.48	16503.39
547.68	16337.5
547.88	16052.83
548.081	16091.74
548.281	15805.03
548.481	15223.41
548.681	15434.35
548.881	15321.71
549.081	14830.2
549.28	14545.53
549.48	14656.12
549.68	14424.7
549.88	14236.28
550.08	13912.71
550.28	13970.05
550.48	13539.97
550.68	13763.2
550.88	13243.02
551.08	13107.85
551.279	13099.66
551.479	12747.41
551.679	12784.27
551.879	12352.15
552.079	12143.26
552.278	12004
552.478	12126.88
552.678	11840.16
552.878	11608.74
553.077	11416.23
553.277	11211.43
553.477	11031.21
553.676	10775.22
553.876	10719.92
554.076	10492.6
554.275	10244.79
554.475	10083
554.674	10121.91
554.874	9876.16
555.074	9491.14
555.273	9489.09
555.473	9407.17
555.672	9190.09
555.872	9013.96
556.071	8930
556.271	9001.68
556.47	8741.58
556.67	8624.85
556.869	8309.46
557.068	8418
557.268	8207.06
557.467	7781.09
557.667	7895.77
557.866	7842.53
558.065	7539.43
558.265	7475.94
558.464	7373.54
558.663	7289.57
558.863	7215.85
559.062	7043.82
559.261	6896.36
559.461	6845.16
559.66	6779.63
559.859	6390.52
560.058	6511.35
560.258	6324.98
560.457	6384.37
560.656	6200.05
560.855	6048.51
561.054	6136.57
561.253	6009.59
561.453	5894.91
561.652	5800.7
561.851	5722.88
562.05	5458.69
562.249	5450.5
562.448	5595.9
562.647	5133.06
562.846	5169.93
563.045	5159.69
563.244	5055.24
563.443	5131.02
563.642	4885.26
563.841	4870.92
564.04	4746
564.239	4811.53
564.438	4666.13
564.637	4621.07
564.836	4530.96
565.035	4467.47
565.234	4182.81
565.432	4346.64
565.631	4242.2
565.83	4129.56
566.029	4115.22
566.228	4074.26
566.427	4145.94
566.625	3859.23
566.824	3662.62
567.023	4084.5
567.222	3898.14
567.42	3765.02
567.619	3730.2
567.818	3607.33
568.016	3771.16
568.215	3656.48
568.414	3554.08
568.612	3515.17
568.811	3289.89
569.01	3257.12
569.208	3341.09
569.407	3427.11
569.605	3253.03
569.804	3257.12
570.002	3218.21
570.201	2988.84
570.4	3121.96
570.598	2904.87
570.797	2925.35
570.995	2872.11
571.193	2915.11
571.392	2927.4
571.59	2689.84
571.789	2820.91
571.987	2847.53
572.186	2702.12
572.384	2618.16
572.582	2515.76
572.781	2556.72
572.979	2413.36
573.177	2409.26
573.376	2450.22
573.574	2437.94
573.772	2335.54
573.971	2243.38
574.169	2104.12
574.367	2229.04
574.565	2169.65
574.763	2161.46
574.962	2204.47
575.16	2108.21
575.358	2114.36
575.556	1938.23
575.754	1979.19
575.952	1997.62
576.151	1944.38
576.349	1925.94
576.547	1735.48
576.745	1760.06
576.943	1882.94
577.141	1780.54
577.339	1518.4
577.537	1846.07
577.735	1841.98
577.933	1735.48
578.131	1655.61
578.329	1782.59
578.527	1628.99
578.725	1616.7
578.923	1456.96
579.121	1618.75
579.319	1436.48
579.516	1540.93
579.714	1667.9
579.912	1567.55
580.11	1323.84
580.308	1370.94
580.506	1372.99
580.704	1162.05
580.901	1344.32
581.099	1436.48
581.297	1393.47
581.495	1315.65
581.692	1270.59
581.89	1344.32
582.088	1221.44
582.285	1286.98
582.483	1147.72
582.681	1135.43
582.878	1155.91
583.076	1160
583.274	1143.62
583.471	1270.59
583.669	1012.55
583.866	1076.04
584.064	942.92
584.262	973.64
584.459	967.49
584.657	1026.89
584.854	979.78
585.052	971.59
585.249	1090.37
585.447	906.06
585.644	807.75
585.841	1063.75
586.039	949.06
586.236	918.34
586.434	809.8
586.631	897.86
586.828	774.99
587.026	830.28
587.223	758.6
587.42	803.66
587.618	783.18
587.815	936.78
588.012	807.75
588.21	865.1
588.407	858.95
588.604	809.8
588.801	713.55
588.999	791.37
589.196	813.9
589.393	744.27
589.59	768.84
589.787	734.03
589.984	799.56
590.182	760.65
590.379	738.12
590.576	805.71
590.773	762.7
590.97	598.86
591.167	719.69
591.364	840.52
591.561	670.54
591.758	828.23
591.955	781.13
592.152	691.02
592.349	742.22
592.546	627.53
592.743	672.59
592.94	652.11
593.137	676.68
593.334	754.51
593.531	678.73
593.727	707.4
593.924	703.31
594.121	723.79
594.318	695.11
594.515	760.65
594.712	893.77
594.908	838.47
595.105	641.87
595.302	779.08
595.499	754.51
595.696	873.29
595.892	758.6
596.089	846.66
596.286	754.51
596.482	869.19
596.679	803.66
596.876	869.19
597.072	922.44
597.269	938.82
597.466	957.25
597.662	969.54
597.859	965.45
598.055	953.16
598.252	1106.76
598.448	1194.82
598.645	1112.9
598.841	1170.24
599.038	1280.83
599.234	1250.11
599.431	1311.55
599.627	1416
599.824	1418.05
600.02	1416
600.217	1440.58
600.413	1545.02
600.609	1553.21
600.806	1889.08
601.002	1688.38
601.198	1684.28
601.395	1848.12
601.591	1927.99
601.787	1985.34
601.984	1991.48
602.18	2192.18
602.376	2140.98
602.572	2370.35
602.769	2376.5
602.965	2446.13
603.161	2550.57
603.357	2605.87
603.553	2638.64
603.75	2632.49
603.946	2712.36
604.142	2859.82
604.338	3054.37
604.534	3124.01
604.73	3187.49
604.926	3339.04
605.122	3601.18
605.318	3543.84
605.514	3674.91
605.71	3889.95
605.906	3916.57
606.102	3894.04
606.298	4025.11
606.494	4295.44
606.69	4600.59
606.886	4516.62
607.082	4483.86
607.278	4674.32
607.474	4725.52
607.67	4954.89
607.866	4956.94
608.062	5301
608.257	5321.48
608.453	5554.94
608.649	5753.6
608.845	5841.66
609.041	5927.67
609.236	6075.13
609.432	6466.29
609.628	6630.13
609.824	6750.96
610.019	6894.32
610.215	7027.43
610.411	7336.68
610.606	7437.03
610.802	7564
610.998	7602.91
611.193	8078.04
611.389	7963.36
611.584	8436.44
611.78	8516.31
611.976	8884.94
612.171	9079.5
612.367	9456.33
612.562	9763.52
612.758	9595.59
612.953	9937.6
613.149	10224.31
613.344	10371.77
613.539	10732.21
613.735	11072.17
613.93	11408.04
614.126	11733.67
614.321	12012.19
614.517	12341.91
614.712	12595.86
614.907	13005.45
615.103	13298.31
615.298	13544.07
615.493	13773.44
615.688	14029.44
615.884	15080.05
616.079	14912.11
616.274	15481.45
616.47	15721.06
616.665	16071.26
616.86	16460.38
617.055	16845.4
617.25	17525.32
617.445	17953.35
617.641	17441.36
617.836	18506.3
618.031	18790.97
618.226	19708.46
618.421	19806.76
618.616	20529.69
618.811	20617.75
619.006	21275.15
619.201	21668.36
619.396	22321.66
619.591	22583.8
619.786	23374.32
619.981	23755.24
620.176	24394.21
620.371	24431.07
620.566	25170.39
620.761	25645.52
620.956	26249.67
621.151	26556.86
621.346	26958.27
621.541	27662.77
621.735	28592.55
621.93	28651.94
622.125	29344.15
622.32	29467.03
622.515	30572.93
622.709	30585.22
622.904	31394.17
623.099	31783.28
623.294	32377.19
623.488	32719.2
623.683	33659.22
623.878	33620.31
624.072	34902.34
624.267	35127.61
624.462	35674.42
624.656	36129.07
624.851	37013.79
625.046	37015.84
625.24	37759.25
625.435	38107.41
625.629	38603.02
625.824	39184.64
626.018	40032.5
626.213	39583.99
626.407	40657.13
626.602	40540.39
626.796	41281.76
626.991	41930.97
627.185	41744.6
627.38	42016.98
627.574	42952.9
627.768	42199.25
627.963	43069.64
628.157	42801.35
628.352	43622.59
628.546	43235.52
628.74	43401.41
628.935	42971.33
629.129	43174.08
629.323	42862.79
629.517	43075.78
629.712	42803.4
629.906	42490.06
630.1	41355.49
630.294	41562.33
630.489	40960.23
630.683	40714.47
630.877	39651.58
631.071	39235.84
631.265	38838.53
631.459	37902.61
631.653	36935.97
631.848	36735.27
632.042	35473.72
632.236	35121.47
632.43	34105.68
632.624	33239.39
632.818	31768.94
633.012	31150.46
633.206	30261.64
633.4	29188.5
633.594	28139.94
633.788	27396.53
633.982	26569.15
634.176	25547.22
634.369	24469.98
634.563	23513.58
634.757	22491.65
634.951	22112.77
635.145	21041.68
635.339	20369.95
635.533	19231.28
635.726	18496.06
635.92	17730.12
636.114	16968.27
636.308	16255.58
636.501	15856.23
636.695	15127.15
636.889	14271.1
637.083	13953.66
637.276	13263.5
637.47	12681.88
637.664	12327.58
637.857	11883.17
638.051	11541.16
638.244	10822.32
638.438	10607.28
638.632	10171.07
638.825	9489.09
639.019	9398.98
639.212	9153.23
639.406	8563.41
639.599	8340.18
639.793	8041.18
639.986	7611.11
640.18	7238.37
640.373	6898.41
640.567	6515.44
640.76	6609.65
640.954	6269.69
641.147	6015.74
641.34	5686.01
641.534	5489.41
641.727	5436.16
641.92	5169.93
642.114	4993.8
642.307	4694.8
642.5	4547.34
642.694	4188.95
642.887	4211.48
643.08	4076.31
643.273	3945.24
643.467	3769.12
643.66	3631.9
643.853	3451.68
644.046	3386.15
644.239	3289.89
644.432	3228.45
644.626	2906.92
644.819	2872.11
645.012	2683.69
645.205	2679.6
645.398	2704.17
645.591	2501.42
645.784	2415.41
645.977	2261.81
646.17	2167.6
646.363	2124.6
646.556	1983.29
646.749	1948.47
646.942	1927.99
647.135	1786.68
647.328	1723.2
647.521	1846.07
647.714	1524.54
647.907	1594.17
648.099	1536.83
648.292	1581.89
648.485	1510.21
648.678	1286.98
648.871	1303.36
649.064	1323.84
649.256	1145.67
649.449	1184.58
649.642	1035.08
649.835	1045.32
650.027	1000.26
650.22	1117
650.413	928.58
650.605	944.97
650.798	924.49
650.991	879.43
651.183	783.18
651.376	871.24
651.568	809.8
651.761	717.64
651.954	787.27
652.146	707.4
652.339	668.49
652.531	791.37
652.724	586.57
652.916	582.48
653.109	510.8
653.301	752.46
653.494	635.72
653.686	523.09
653.879	652.11
654.071	570.19
654.263	504.65
654.456	482.13
654.648	631.63
654.84	510.8
655.033	398.16
655.225	664.4
655.417	312.14
655.61	588.62
655.802	523.09
655.994	549.71
656.186	365.39
656.379	521.04
656.571	353.1
656.763	371.54
656.955	408.4
657.148	359.25
657.34	475.98
657.532	357.2
657.724	418.64
657.916	299.86
658.108	445.26
658.3	342.86
658.492	394.06
658.684	293.71
658.876	367.44
659.068	287.57
659.26	242.51
659.452	285.52
659.644	281.43
659.836	422.73
660.028	295.76
660.22	254.8
660.412	299.86
660.604	258.9
660.796	258.9
660.988	281.43
661.18	324.43
661.372	340.82
661.563	197.46
661.755	164.69
661.947	144.21
662.139	238.42
662.331	242.51
662.522	301.9
662.714	129.88
662.906	191.31
663.097	217.94
663.289	187.22
663.481	109.4
663.673	205.65
663.864	160.59
664.056	185.17
664.247	176.98
664.439	299.86
664.631	187.22
664.822	252.75
665.014	160.59
665.205	181.07
665.397	95.06
665.588	164.69
665.78	123.73
665.971	250.71
666.163	115.54
666.354	281.43
666.546	103.25
666.737	201.55
666.929	140.12
667.12	144.21
667.311	156.5
667.503	109.4
667.694	181.07
667.885	203.6
668.077	189.27
668.268	54.1
668.459	179.03
668.651	107.35
668.842	76.63
669.033	56.15
669.224	68.44
669.416	293.71
669.607	146.26
669.798	86.87
669.989	242.51
670.18	99.16
670.371	136.02
670.563	121.68
670.754	222.03
670.945	170.83
671.136	144.21
671.327	19.29
671.518	228.18
671.709	322.38
671.9	199.51
672.091	316.24
672.282	74.58
672.473	109.4
672.664	215.89
672.855	144.21
673.046	201.55
673.237	160.59
673.428	254.8
673.619	201.55
673.809	199.51
674	152.4
674.191	213.84
674.382	179.03
674.573	117.59
674.764	113.49
674.954	183.12
675.145	148.31
675.336	103.25
675.527	142.16
675.717	111.44
675.908	158.55
676.099	156.5
676.289	142.16
676.48	142.16
676.671	129.88
676.861	138.07
677.052	117.59
677.243	62.29
677.433	54.1
677.624	258.9
677.814	191.31
678.005	103.25
678.195	273.23
678.386	95.06
678.576	152.4
678.767	54.1
678.957	154.45
679.148	271.19
679.338	279.38
679.529	248.66
679.719	127.83
679.909	244.56
680.1	191.31
680.29	230.23
680.481	88.92
680.671	275.28
680.861	154.45
681.052	238.42
681.242	133.97
681.432	181.07
681.622	166.74
681.813	78.68
682.003	174.93
682.193	131.92
682.383	129.88
682.573	144.21
682.764	138.07
682.954	211.79
683.144	230.23
683.334	187.22
683.524	144.21
683.714	297.81
683.904	166.74
684.094	152.4
684.284	191.31
684.474	338.77
684.664	238.42
684.854	224.08
685.044	172.88
685.234	217.94
685.424	142.16
685.614	170.83
685.804	353.1
685.994	189.27
686.184	265.04
686.374	299.86
686.564	279.38
686.753	269.14
686.943	125.78
687.133	164.69
687.323	240.47
687.513	238.42
687.702	285.52
687.892	250.71
688.082	260.95
688.272	324.43
688.461	158.55
688.651	394.06
688.841	129.88
689.03	166.74
689.22	199.51
689.41	248.66
689.599	181.07
689.789	213.84
689.979	299.86
690.168	215.89
690.358	312.14
690.547	172.88
690.737	256.85
690.926	197.46
691.116	262.99
691.305	289.62
691.495	277.33
691.684	209.75
691.874	205.65
692.063	375.63
692.252	248.66
692.442	254.8
692.631	127.83
692.82	217.94
693.01	164.69
693.199	121.68
693.388	187.22
693.578	207.7
693.767	267.09
693.956	248.66
694.146	174.93
694.335	164.69
694.524	162.64
694.713	289.62
694.902	205.65
695.092	174.93
695.281	211.79
695.47	201.55
695.659	127.83
695.848	219.99
696.037	185.17
696.226	273.23
696.415	148.31
696.604	217.94
696.793	285.52
696.982	230.23
697.171	303.95
697.36	209.75
697.549	281.43
697.738	103.25
697.927	101.2
698.116	168.79
698.305	136.02
698.494	185.17
698.683	211.79
698.872	332.62
699.061	213.84
699.25	154.45
699.438	213.84
699.627	164.69
699.816	285.52
700.005	146.26
700.193	148.31
700.382	234.32
700.571	207.7
700.76	275.28
700.948	250.71
701.137	205.65
701.326	271.19
701.514	115.54
701.703	226.13
701.892	170.83
702.08	324.43
702.269	127.83
702.457	197.46
702.646	320.34
702.834	138.07
703.023	174.93
703.212	195.41
703.4	146.26
703.589	193.36
703.777	138.07
703.965	144.21
704.154	154.45
704.342	154.45
704.531	189.27
704.719	187.22
704.907	213.84
705.096	199.51
705.284	80.72
705.472	176.98
705.661	158.55
705.849	297.81
706.037	320.34
706.226	162.64
706.414	158.55
706.602	189.27
706.79	219.99
706.979	166.74
707.167	240.47
707.355	90.96
707.543	205.65
707.731	207.7
707.919	250.71
708.107	164.69
708.296	136.02
708.484	84.82
708.672	189.27
708.86	209.75
709.048	174.93
709.236	185.17
709.424	230.23
709.612	193.36
709.8	162.64
709.988	260.95
710.176	219.99
710.364	330.58
710.551	127.83
710.739	152.4
710.927	183.12
711.115	232.27
711.303	275.28
711.491	265.04
711.679	189.27
711.866	144.21
712.054	144.21
712.242	203.6
712.43	279.38
712.617	203.6
712.805	240.47
712.993	213.84
713.181	90.96
713.368	275.28
713.556	279.38
713.744	121.68
713.931	371.54
714.119	234.32
714.306	236.37
714.494	203.6
714.682	213.84
714.869	136.02
715.057	166.74
715.244	136.02
715.432	254.8
715.619	185.17
715.807	209.75
715.994	193.36
716.182	174.93
716.369	193.36
716.556	224.08
716.744	70.48
716.931	129.88
717.119	228.18
717.306	146.26
717.493	234.32
717.681	82.77
717.868	246.61
718.055	312.14
718.242	213.84
718.43	279.38
718.617	320.34
718.804	191.31
718.991	224.08
719.179	213.84
719.366	285.52
719.553	228.18
719.74	154.45
719.927	240.47
720.114	265.04
720.301	138.07
720.488	156.5
720.676	146.26
720.863	254.8
721.05	375.63
721.237	226.13
721.424	326.48
721.611	136.02
721.798	131.92
721.985	172.88
722.172	240.47
722.358	256.85
722.545	217.94
722.732	185.17
722.919	328.53
723.106	265.04
723.293	211.79
723.48	119.64
723.667	230.23
723.853	224.08
724.04	211.79
724.227	267.09
724.414	172.88
724.6	312.14
724.787	361.3
724.974	349.01
725.161	215.89
725.347	76.63
725.534	289.62
725.72	275.28
725.907	322.38
726.094	262.99
726.28	189.27
726.467	232.27
726.653	174.93
726.84	308.05
727.027	254.8
727.213	176.98
727.4	258.9
727.586	209.75
727.773	162.64
727.959	306
728.145	289.62
728.332	234.32
728.518	215.89
728.705	197.46
728.891	226.13
729.077	330.58
729.264	195.41
729.45	123.73
729.636	299.86
729.823	236.37
730.009	232.27
730.195	230.23
730.382	187.22
730.568	193.36
730.754	328.53
730.94	256.85
731.126	246.61
731.313	320.34
731.499	301.9
731.685	254.8
731.871	342.86
732.057	336.72
732.243	230.23
732.429	303.95
732.615	308.05
732.801	326.48
732.987	138.07
733.173	271.19
733.359	207.7
733.545	254.8
733.731	326.48
733.917	363.34
734.103	299.86
734.289	285.52
734.475	176.98
734.661	340.82
734.847	203.6
735.033	258.9
735.219	291.66
735.404	234.32
735.59	205.65
735.776	197.46
735.962	273.23
736.148	289.62
736.333	332.62
736.519	273.23
736.705	258.9
736.89	230.23
737.076	267.09
737.262	144.21
737.447	277.33
737.633	291.66
737.819	244.56
738.004	248.66
738.19	211.79
738.375	277.33
738.561	291.66
738.747	209.75
738.932	136.02
739.118	334.67
739.303	328.53
739.489	267.09
739.674	262.99
739.859	217.94
740.045	328.53
740.23	183.12
740.416	138.07
740.601	267.09
740.786	291.66
740.972	203.6
741.157	230.23
741.342	181.07
741.528	222.03
741.713	269.14
741.898	219.99
742.084	240.47
742.269	324.43
742.454	312.14
742.639	328.53
742.824	291.66
743.01	363.34
743.195	357.2
743.38	291.66
743.565	211.79
743.75	273.23
743.935	252.75
744.12	318.29
744.305	197.46
744.49	226.13
744.675	222.03
744.86	150.36
745.045	250.71
745.23	197.46
745.415	279.38
745.6	365.39
745.785	170.83
745.97	308.05
746.155	314.19
746.34	295.76
746.525	224.08
746.71	336.72
746.895	179.03
747.079	217.94
747.264	199.51
747.449	262.99
747.634	324.43
747.819	232.27
748.003	185.17
748.188	172.88
748.373	234.32
748.557	260.95
748.742	209.75
748.927	283.47
749.111	240.47
749.296	242.51
749.481	252.75
749.665	209.75
749.85	136.02
750.034	224.08
750.219	133.97
750.404	144.21
750.588	240.47
750.773	101.2
750.957	158.55
751.141	209.75
751.326	242.51
751.51	90.96
751.695	148.31
751.879	189.27
752.064	291.66
752.248	172.88
752.432	283.47
752.617	242.51
752.801	260.95
752.985	140.12
753.17	291.66
753.354	144.21
753.538	234.32
753.722	179.03
753.907	84.82
754.091	41.81
754.275	219.99
754.459	105.3
754.643	127.83
754.828	187.22
755.012	219.99
755.196	93.01
755.38	154.45
755.564	119.64
755.748	191.31
755.932	148.31
756.116	179.03
756.3	301.9
756.484	125.78
756.668	246.61
756.852	68.44
757.036	123.73
757.22	148.31
757.404	76.63
757.588	131.92
757.772	172.88
757.956	166.74
758.14	318.29
758.323	117.59
758.507	179.03
758.691	142.16
758.875	238.42
759.059	273.23
759.242	144.21
759.426	156.5
759.61	217.94
759.794	127.83
759.977	246.61
760.161	379.73
760.345	254.8
760.528	238.42
760.712	136.02
760.895	197.46
761.079	176.98
761.263	41.81
761.446	105.3
761.63	142.16
761.813	252.75
761.997	37.72
762.18	105.3
762.364	131.92
762.547	82.77
762.731	54.1
762.914	93.01
763.098	95.06
763.281	131.92
763.464	142.16
763.648	144.21
763.831	29.52
764.015	25.43
764.198	154.45
764.381	86.87
764.564	113.49
764.748	68.44
764.931	136.02
765.114	60.24
765.297	170.83
765.481	95.06
765.664	86.87
765.847	140.12
766.03	203.6
766.213	86.87
766.397	45.91
766.58	70.48
766.763	205.65
766.946	74.58
767.129	86.87
767.312	41.81
767.495	86.87
767.678	76.63
767.861	144.21
768.044	117.59
768.227	119.64
768.41	66.39
768.593	162.64
768.776	140.12
768.959	93.01
769.142	133.97
769.324	41.81
769.507	93.01
769.69	43.86
769.873	95.06
770.056	281.43
770.239	107.35
770.421	197.46
770.604	127.83
770.787	140.12
770.97	82.77
771.152	39.76
771.335	168.79
771.518	70.48
771.7	115.54
771.883	222.03
772.066	-7.34
772.248	119.64
772.431	166.74
772.613	189.27
772.796	37.72
772.978	109.4
773.161	148.31
773.343	121.68
773.526	-3.24
773.708	-31.91
773.891	-3.24
774.073	43.86
774.256	33.62
774.438	205.65
774.621	80.72
774.803	95.06
774.985	66.39
775.168	201.55
775.35	115.54
775.532	197.46
775.715	111.44
775.897	144.21
776.079	68.44
776.261	115.54
776.444	70.48
776.626	78.68
776.808	43.86
776.99	58.2
777.173	138.07
777.355	2.9
777.537	19.29
777.719	119.64
777.901	23.38
778.083	17.24
778.265	-15.53
778.447	131.92
778.629	43.86
778.811	58.2
778.993	176.98
779.175	119.64
779.357	105.3
779.539	-7.34
779.721	70.48
779.903	64.34
780.085	45.91
780.267	74.58
780.449	23.38
780.631	213.84
780.812	62.29
780.994	111.44
781.176	150.36
781.358	43.86
781.54	23.38
781.721	140.12
781.903	129.88
782.085	23.38
782.267	119.64
782.448	-5.29
782.63	35.67
782.812	13.14
782.993	131.92
783.175	125.78
783.357	-17.58
783.538	68.44
783.72	78.68
783.901	74.58
784.083	123.73
784.264	62.29
784.446	86.87
784.627	-9.39
784.809	66.39
784.99	15.19
785.172	54.1
785.353	-19.63
785.535	45.91
785.716	25.43
785.897	-44.2
786.079	-3.24
786.26	-3.24
786.441	113.49
786.623	-160.94
786.804	29.52
786.985	129.88
787.167	86.87
787.348	21.33
787.529	31.57
787.71	187.22
787.891	166.74
788.073	-23.72
788.254	-66.73
788.435	166.74
788.616	66.39
788.797	-25.77
788.978	50
789.159	62.29
789.34	93.01
789.522	-17.58
789.703	68.44
789.884	72.53
790.065	88.92
790.246	172.88
790.427	47.96
790.607	166.74
790.788	152.4
790.969	-33.96
791.15	113.49
791.331	-46.25
791.512	-36.01
791.693	-19.63
791.874	66.39
792.054	183.12
792.235	58.2
792.416	-76.97
792.597	-31.91
792.778	27.48
792.958	111.44
793.139	-1.19
793.32	119.64
793.5	-42.15
793.681	127.83
793.862	74.58
794.042	60.24
794.223	-68.78
794.404	-56.49
794.584	-54.44
794.765	27.48
794.945	-11.43
795.126	39.76
795.306	193.36
795.487	37.72
795.667	-1.19
795.848	21.33
796.028	86.87
796.209	23.38
796.389	109.4
796.57	19.29
796.75	37.72
796.93	74.58
797.111	-89.26
797.291	60.24
797.471	146.26
797.652	-1.19
797.832	41.81
798.012	93.01
798.192	-38.06
798.373	-5.29
798.553	101.2
798.733	76.63
798.913	33.62
799.093	-21.67
799.274	45.91
799.454	47.96
799.634	50
799.814	80.72
799.994	72.53
800.174	27.48
800.354	133.97
800.534	-58.54
800.714	86.87
800.894	13.14
801.074	0.85
801.254	-13.48
801.434	119.64
801.614	-29.87
801.794	54.1
801.974	1684.28
802.154	-46.25
802.334	115.54
802.514	-31.91
802.693	-3.24
802.873	-7.34
803.053	111.44
803.233	31.57
803.413	9.05
803.592	9.05
803.772	-21.67
803.952	2.9
804.131	-46.25
804.311	54.1
804.491	93.01
804.67	80.72
804.85	-11.43
805.03	138.07
805.209	93.01
805.389	47.96
805.568	-9.39
805.748	27.48
805.928	107.35
806.107	33.62
806.287	4.95
806.466	17.24
806.646	37.72
806.825	-9.39
807.004	-48.3
807.184	50
807.363	62.29
807.543	43.86
807.722	-36.01
807.901	117.59
808.081	52.05
808.26	-81.07
808.439	54.1
808.619	45.91
808.798	4.95
808.977	-62.63
809.156	111.44
809.336	35.67
809.515	45.91
809.694	-46.25
809.873	-42.15
810.052	7
810.231	121.68
810.411	58.2
810.59	70.48
810.769	4.95
810.948	82.77
811.127	-83.11
811.306	-5.29
811.485	93.01
811.664	111.44
811.843	33.62
812.022	41.81
812.201	-17.58
812.38	68.44
812.559	-72.87
812.737	123.73
812.916	-109.74
813.095	45.91
813.274	23.38
813.453	84.82
813.632	17.24
813.811	76.63
813.989	-56.49
814.168	37.72
814.347	-23.72
814.526	62.29
814.704	179.03
814.883	144.21
815.062	-5.29
815.24	95.06
815.419	-85.16
815.598	66.39
815.776	-87.21
815.955	45.91
816.133	-140.46
816.312	-23.72
816.49	-52.39
816.669	35.67
816.847	-29.87
817.026	13.14
817.204	-7.34
817.383	33.62
817.561	41.81
817.74	41.81
817.918	31.57
818.097	-33.96
818.275	-56.49
818.453	101.2
818.632	41.81
818.81	7
818.988	0.85
819.167	-23.72
819.345	2.9
819.523	-33.96
819.701	131.92
819.879	-42.15
820.058	-68.78
820.236	54.1
820.414	54.1
820.592	11.09
820.77	-21.67
820.948	-11.43
821.127	-95.4
821.305	72.53
821.483	-44.2
821.661	90.96
821.839	21.33
822.017	-42.15
822.195	-21.67
822.373	52.05
822.551	2.9
822.729	84.82
822.907	-74.92
823.085	78.68
823.262	-23.72
823.44	-19.63
823.618	93.01
823.796	-1.19
823.974	-15.53
824.152	25.43
824.329	-72.87
824.507	78.68
824.685	58.2
824.863	25.43
825.04	11.09
825.218	37.72
825.396	-23.72
825.574	66.39
825.751	66.39
825.929	19.29
826.107	-1.19
826.284	27.48
826.462	47.96
826.639	-38.06
826.817	-1.19
826.994	-21.67
827.172	-91.31
827.349	144.21
827.527	0.85
827.704	-50.35
827.882	121.68
828.059	39.76
828.237	-68.78
828.414	117.59
828.591	-58.54
828.769	-11.43
828.946	-17.58
829.124	78.68
829.301	115.54
829.478	-3.24
829.655	41.81
829.833	78.68
830.01	-54.44
830.187	99.16
830.364	52.05
830.542	74.58
830.719	144.21
830.896	58.2
831.073	82.77
831.25	11.09
831.427	68.44
831.604	17.24
831.782	-50.35
831.959	-3.24
832.136	35.67
832.313	88.92
832.49	31.57
832.667	17.24
832.844	-62.63
833.021	56.15
833.198	72.53
833.374	2.9
833.551	43.86
833.728	-25.77
833.905	72.53
834.082	-128.17
834.259	60.24
834.436	148.31
834.612	25.43
834.789	58.2
834.966	-33.96
835.143	62.29
835.319	-31.91
835.496	82.77
835.673	-48.3
835.85	86.87
836.026	29.52
836.203	123.73
836.38	72.53
836.556	-23.72
836.733	76.63
836.909	150.36
837.086	7
837.262	-56.49
837.439	2.9
837.616	-13.48
837.792	-25.77
837.968	66.39
838.145	-85.16
838.321	52.05
838.498	-25.77
838.674	54.1
838.851	111.44
839.027	9.05
839.203	80.72
839.38	50
839.556	-44.2
839.732	74.58
839.909	78.68
840.085	31.57
840.261	-46.25
840.437	68.44
840.614	-60.59
840.79	93.01
840.966	-15.53
841.142	27.48
841.318	-25.77
841.494	43.86
841.671	154.45
841.847	-64.68
842.023	-40.11
842.199	23.38
842.375	170.83
842.551	-95.4
842.727	-101.55
842.903	117.59
843.079	-79.02
843.255	80.72
843.431	50
843.607	68.44
843.783	-142.5
843.959	97.11
844.134	-29.87
844.31	211.79
844.486	35.67
844.662	33.62
844.838	37.72
845.013	37.72
845.189	74.58
845.365	2.9
845.541	29.52
845.716	-9.39
845.892	101.2
846.068	2.9
846.244	-11.43
846.419	82.77
846.595	-87.21
846.77	17.24
846.946	117.59
847.122	-46.25
847.297	-42.15
847.473	35.67
847.648	-60.59
847.824	103.25
847.999	-105.64
848.175	2.9
848.35	52.05
848.526	123.73
848.701	88.92
848.876	58.2
849.052	29.52
849.227	68.44
849.403	0.85
849.578	9.05
849.753	-1.19
849.929	31.57
850.104	-56.49
850.279	54.1
850.454	17.24
850.63	29.52
850.805	68.44
850.98	9.05
851.155	-3.24
851.33	29.52
851.505	-81.07
851.681	115.54
851.856	27.48
852.031	66.39
852.206	-3.24
852.381	2.9
852.556	-3.24
852.731	13.14
852.906	95.06
853.081	-33.96
853.256	119.64
853.431	-76.97
853.606	-13.48
853.781	0.85
853.956	-87.21
854.131	99.16
854.305	-29.87
854.48	-31.91
854.655	-9.39
854.83	-15.53
855.005	4.95
855.18	11.09
855.354	-13.48
855.529	-9.39
855.704	33.62
855.879	50
856.053	-38.06
856.228	70.48
856.403	23.38
856.577	54.1
856.752	-60.59
856.926	39.76
857.101	86.87
857.276	-76.97
857.45	37.72
857.625	101.2
857.799	25.43
857.974	-33.96
858.148	-101.55
858.323	-11.43
858.497	-44.2
858.672	74.58
858.846	-23.72
859.02	107.35
859.195	-25.77
859.369	-7.34
859.543	74.58
859.718	39.76
859.892	88.92
860.066	39.76
860.241	-38.06
860.415	-40.11
860.589	-5.29
860.763	19.29
860.938	37.72
861.112	142.16
861.286	-46.25
861.46	31.57
861.634	0.85
861.808	84.82
861.982	-97.45
862.157	-36.01
862.331	-19.63
862.505	-91.31
862.679	-132.26
862.853	-36.01
863.027	43.86
863.201	144.21
863.375	-150.7
863.549	68.44
863.722	-23.72
863.896	136.02
864.07	-54.44
864.244	-23.72
864.418	45.91
864.592	-81.07
864.766	21.33
864.939	25.43
865.113	-72.87
865.287	47.96
865.461	2.9
865.634	43.86
865.808	52.05
865.982	-48.3
866.156	-7.34
866.329	-115.88
866.503	15.19
866.676	68.44
866.85	-17.58
867.024	-44.2
867.197	76.63
867.371	64.34
867.544	19.29
867.718	-46.25
867.891	72.53
868.065	-111.78
868.238	56.15
868.412	117.59
868.585	21.33
868.759	-38.06
868.932	-56.49
869.105	-83.11
869.279	-13.48
869.452	39.76
869.625	43.86
869.799	7
869.972	-68.78
870.145	-44.2
870.319	90.96
870.492	-29.87
870.665	-46.25
870.838	-60.59
871.011	-122.02
871.185	-64.68
871.358	-36.01
871.531	60.24
871.704	-81.07
871.877	31.57
872.05	25.43
872.223	-58.54
872.396	148.31
872.569	76.63
872.742	-17.58
872.915	37.72
873.088	-36.01
873.261	9.05
873.434	105.3
873.607	-31.91
873.78	60.24
873.953	-46.25
874.126	41.81
874.299	9.05
874.471	-38.06
874.644	-5.29
874.817	152.4
874.99	158.55
875.163	-38.06
875.335	52.05
875.508	-27.82
875.681	82.77
875.853	-17.58
876.026	29.52
876.199	50
876.371	17.24
876.544	-60.59
876.717	29.52
876.889	-19.63
877.062	29.52
877.234	-33.96
877.407	-134.31
877.579	23.38
877.752	39.76
877.924	50
878.097	50
878.269	66.39
878.442	23.38
878.614	80.72
878.786	43.86
878.959	39.76
879.131	7
879.303	-17.58
879.476	25.43
879.648	35.67
879.82	4.95
879.993	-11.43
880.165	-1.19
880.337	31.57
880.509	31.57
880.681	-64.68
880.854	41.81
881.026	37.72
881.198	222.03
881.37	-9.39
881.542	37.72
881.714	-25.77
881.886	35.67
882.058	19.29
882.23	23.38
882.402	45.91
882.574	29.52
882.746	82.77
882.918	150.36
883.09	88.92
883.262	-15.53
883.434	2.9
883.606	-101.55
883.778	90.96
883.95	136.02
884.122	-15.53
884.293	37.72
884.465	-13.48
884.637	23.38
884.809	15.19
884.98	70.48
885.152	86.87
885.324	11.09
885.496	-66.73
885.667	-91.31
885.839	27.48
886.011	140.12
886.182	2.9
886.354	52.05
886.525	31.57
886.697	52.05
886.869	-36.01
887.04	-46.25
887.212	109.4
887.383	113.49
887.555	31.57
887.726	-101.55
887.897	76.63
888.069	17.24
888.24	43.86
888.412	95.06
888.583	31.57
888.754	-58.54
888.926	-150.7
889.097	0.85
889.268	-19.63
889.44	66.39
889.611	-150.7
889.782	-70.83
889.953	-54.44
890.125	74.58
890.296	-62.63
890.467	-54.44
890.638	58.2
890.809	31.57
890.98	-15.53
891.151	78.68
891.323	0.85
891.494	62.29
891.665	-9.39
891.836	39.76
892.007	-9.39
892.178	4.95
892.349	64.34
892.52	-44.2
892.691	-31.91
892.862	-1.19
893.032	-113.83
893.203	-64.68
893.374	19.29
893.545	129.88
893.716	-29.87
893.887	47.96
894.057	-17.58
894.228	-36.01
894.399	-72.87
894.57	109.4
894.74	29.52
894.911	115.54
895.082	27.48
895.253	-3.24
895.423	19.29
895.594	33.62
895.764	84.82
895.935	-7.34
896.106	13.14
896.276	-31.91
896.447	25.43
896.617	-5.29
896.788	7
896.958	31.57
897.129	47.96
897.299	11.09
897.47	90.96
897.64	7
897.81	-5.29
897.981	41.81
898.151	-89.26
898.322	21.33
898.492	45.91
898.662	0.85
898.832	-25.77
899.003	35.67
899.173	119.64
899.343	52.05
899.513	-25.77
