Data from USB4F104151__250__11-20-00-036.txt Node

Date: Wed Feb 26 11:20:00 EST 2025
User: louis
Spectrometer: USB4F10415
Trigger mode: 4
Integration Time (sec): 1.000000E-1
Scans to average: 1
Electric dark correction enabled: true
Nonlinearity correction enabled: false
Boxcar width: 0
XAxis mode: Wavelengths
Number of Pixels in Spectrum: 3648
>>>>>Begin Spectral Data<<<<<
178.204	-356.52
178.424	-356.52
178.644	-356.52
178.864	-368.81
179.084	-446.63
179.304	-18.6
179.524	-20.65
179.744	-18.6
179.964	3.93
180.184	18.26
180.404	87.89
180.624	-30.89
180.844	-32.94
181.064	-12.46
181.283	57.17
181.503	-8.36
181.723	-24.75
181.943	-96.43
182.163	171.86
182.383	-6.31
182.602	73.56
182.822	118.61
183.042	75.6
183.262	10.07
183.482	-73.9
183.701	59.22
183.921	-4.27
184.141	-26.79
184.361	118.61
184.58	85.84
184.8	51.03
185.02	-37.03
185.239	106.32
185.459	71.51
185.679	120.66
185.898	-98.47
186.118	38.74
186.338	-12.46
186.557	149.33
186.777	-55.47
186.997	-4.27
187.216	40.79
187.436	204.63
187.655	114.52
187.875	59.22
188.095	40.79
188.314	147.28
188.534	81.75
188.753	-14.51
188.973	77.65
189.192	130.9
189.412	73.56
189.631	67.41
189.851	40.79
190.07	132.95
190.29	-49.32
190.509	30.55
190.729	61.27
190.948	210.77
191.168	239.44
191.387	69.46
191.607	-45.23
191.826	102.23
192.045	108.37
192.265	3.93
192.484	118.61
192.704	40.79
192.923	-6.31
193.142	175.95
193.362	128.85
193.581	206.67
193.8	139.09
194.02	83.8
194.239	53.08
194.458	173.91
194.678	-2.22
194.897	-41.13
195.116	112.47
195.335	100.18
195.555	141.14
195.774	57.17
195.993	186.19
196.212	104.28
196.432	32.6
196.651	30.55
196.87	34.64
197.089	247.63
197.308	46.93
197.528	155.47
197.747	14.17
197.966	75.6
198.185	212.82
198.404	-34.99
198.623	169.81
198.842	130.9
199.062	182.1
199.281	118.61
199.5	132.95
199.719	81.75
199.938	141.14
200.157	53.08
200.376	114.52
200.595	163.67
200.814	118.61
201.033	8.02
201.252	200.53
201.471	59.22
201.69	48.98
201.909	14.17
202.128	46.93
202.347	51.03
202.566	46.93
202.785	18.26
203.004	124.76
203.223	255.83
203.442	51.03
203.661	-26.79
203.879	38.74
204.098	77.65
204.317	-22.7
204.536	145.24
204.755	26.45
204.974	128.85
205.193	51.03
205.411	190.29
205.63	71.51
205.849	14.17
206.068	-28.84
206.287	38.74
206.505	128.85
206.724	18.26
206.943	-39.08
207.162	40.79
207.381	104.28
207.599	8.02
207.818	55.12
208.037	40.79
208.255	132.95
208.474	98.13
208.693	67.41
208.911	-2.22
209.13	126.8
209.349	114.52
209.567	147.28
209.786	94.04
210.005	32.6
210.223	46.93
210.442	-43.18
210.661	-4.27
210.879	26.45
211.098	-22.7
211.316	-37.03
211.535	112.47
211.753	83.8
211.972	73.56
212.191	116.56
212.409	-20.65
212.628	122.71
212.846	22.36
213.065	118.61
213.283	77.65
213.502	94.04
213.72	-2.22
213.938	57.17
214.157	14.17
214.375	139.09
214.594	42.84
214.812	61.27
215.031	83.8
215.249	44.88
215.467	126.8
215.686	16.21
215.904	65.36
216.122	-4.27
216.341	163.67
216.559	106.32
216.778	59.22
216.996	200.53
217.214	22.36
217.432	48.98
217.651	-6.31
217.869	81.75
218.087	18.26
218.306	-16.55
218.524	40.79
218.742	71.51
218.96	100.18
219.179	24.4
219.397	24.4
219.615	237.39
219.833	42.84
220.051	-22.7
220.27	81.75
220.488	227.15
220.706	102.23
220.924	32.6
221.142	69.46
221.36	55.12
221.578	120.66
221.796	75.6
222.015	89.94
222.233	100.18
222.451	157.52
222.669	-26.79
222.887	122.71
223.105	-88.23
223.323	-39.08
223.541	36.69
223.759	77.65
223.977	40.79
224.195	145.24
224.413	63.32
224.631	69.46
224.849	130.9
225.067	231.25
225.285	10.07
225.503	71.51
225.721	-96.43
225.939	32.6
226.157	8.02
226.375	261.97
226.592	114.52
226.81	53.08
227.028	110.42
227.246	132.95
227.464	147.28
227.682	153.43
227.9	124.76
228.117	65.36
228.335	65.36
228.553	94.04
228.771	-4.27
228.989	42.84
229.206	85.84
229.424	40.79
229.642	30.55
229.86	-57.51
230.077	175.95
230.295	42.84
230.513	116.56
230.731	75.6
230.948	216.91
231.166	210.77
231.384	46.93
231.601	42.84
231.819	132.95
232.037	40.79
232.254	10.07
232.472	173.91
232.689	46.93
232.907	126.8
233.125	-16.55
233.342	14.17
233.56	34.64
233.777	38.74
233.995	96.08
234.213	71.51
234.43	1.88
234.648	55.12
234.865	22.36
235.083	104.28
235.3	81.75
235.518	108.37
235.735	108.37
235.953	94.04
236.17	18.26
236.388	28.5
236.605	10.07
236.822	116.56
237.04	198.48
237.257	106.32
237.475	-30.89
237.692	46.93
237.909	36.69
238.127	24.4
238.344	83.8
238.562	132.95
238.779	-22.7
238.996	-39.08
239.214	-4.27
239.431	63.32
239.648	34.64
239.865	143.19
240.083	81.75
240.3	-12.46
240.517	102.23
240.735	77.65
240.952	79.7
241.169	81.75
241.386	69.46
241.603	34.64
241.821	53.08
242.038	151.38
242.255	96.08
242.472	-88.23
242.689	122.71
242.907	40.79
243.124	67.41
243.341	40.79
243.558	24.4
243.775	-28.84
243.992	-32.94
244.209	40.79
244.426	180.05
244.643	120.66
244.86	94.04
245.078	104.28
245.295	61.27
245.512	-16.55
245.729	48.98
245.946	5.97
246.163	8.02
246.38	77.65
246.597	16.21
246.814	59.22
247.031	159.57
247.248	1.88
247.464	157.52
247.681	73.56
247.898	57.17
248.115	135
248.332	-6.31
248.549	98.13
248.766	221.01
248.983	159.57
249.2	28.5
249.417	116.56
249.633	20.31
249.85	91.99
250.067	14.17
250.284	87.89
250.501	22.36
250.717	63.32
250.934	-59.56
251.151	91.99
251.368	1.88
251.585	157.52
251.801	83.8
252.018	38.74
252.235	137.04
252.451	18.26
252.668	46.93
252.885	108.37
253.102	89.94
253.318	53.08
253.535	61.27
253.752	8.02
253.968	44.88
254.185	-112.81
254.401	69.46
254.618	8.02
254.835	53.08
255.051	128.85
255.268	61.27
255.484	102.23
255.701	40.79
255.917	120.66
256.134	-24.75
256.351	89.94
256.567	-57.51
256.784	-67.75
257	-32.94
257.217	75.6
257.433	167.76
257.65	51.03
257.866	63.32
258.082	10.07
258.299	-2.22
258.515	120.66
258.732	34.64
258.948	10.07
259.165	57.17
259.381	-32.94
259.597	116.56
259.814	14.17
260.03	63.32
260.246	-24.75
260.463	108.37
260.679	151.38
260.895	79.7
261.112	30.55
261.328	118.61
261.544	14.17
261.761	182.1
261.977	61.27
262.193	-18.6
262.409	153.43
262.626	137.04
262.842	124.76
263.058	18.26
263.274	135
263.49	57.17
263.707	143.19
263.923	87.89
264.139	-77.99
264.355	30.55
264.571	87.89
264.787	59.22
265.004	85.84
265.22	57.17
265.436	-30.89
265.652	12.12
265.868	16.21
266.084	48.98
266.3	36.69
266.516	-84.14
266.732	-14.51
266.948	124.76
267.164	12.12
267.38	40.79
267.596	28.5
267.812	163.67
268.028	71.51
268.244	22.36
268.46	-18.6
268.676	67.41
268.892	55.12
269.108	71.51
269.324	24.4
269.54	-0.17
269.756	85.84
269.972	-6.31
270.188	28.5
270.403	-39.08
270.619	71.51
270.835	51.03
271.051	48.98
271.267	44.88
271.483	104.28
271.698	108.37
271.914	98.13
272.13	44.88
272.346	28.5
272.562	106.32
272.777	94.04
272.993	104.28
273.209	46.93
273.425	61.27
273.64	14.17
273.856	106.32
274.072	36.69
274.287	5.97
274.503	106.32
274.719	141.14
274.934	24.4
275.15	-82.09
275.366	-2.22
275.581	46.93
275.797	75.6
276.012	46.93
276.228	14.17
276.444	67.41
276.659	149.33
276.875	-0.17
277.09	-2.22
277.306	61.27
277.521	126.8
277.737	-8.36
277.952	79.7
278.168	14.17
278.383	44.88
278.599	5.97
278.814	57.17
279.03	-12.46
279.245	206.67
279.461	36.69
279.676	112.47
279.892	-55.47
280.107	-67.75
280.322	112.47
280.538	112.47
280.753	-37.03
280.969	18.26
281.184	-8.36
281.399	182.1
281.615	81.75
281.83	126.8
282.045	59.22
282.26	-24.75
282.476	-30.89
282.691	89.94
282.906	118.61
283.122	36.69
283.337	-22.7
283.552	55.12
283.767	-20.65
283.983	69.46
284.198	73.56
284.413	124.76
284.628	32.6
284.843	102.23
285.058	91.99
285.274	124.76
285.489	-4.27
285.704	57.17
285.919	57.17
286.134	-24.75
286.349	44.88
286.564	44.88
286.779	161.62
286.995	18.26
287.21	-26.79
287.425	120.66
287.64	24.4
287.855	65.36
288.07	-45.23
288.285	102.23
288.5	79.7
288.715	128.85
288.93	-59.56
289.145	46.93
289.36	87.89
289.575	18.26
289.79	69.46
290.004	-57.51
290.219	102.23
290.434	67.41
290.649	8.02
290.864	-4.27
291.079	-6.31
291.294	65.36
291.509	-12.46
291.724	81.75
291.938	32.6
292.153	91.99
292.368	28.5
292.583	48.98
292.798	102.23
293.012	14.17
293.227	100.18
293.442	-47.27
293.657	38.74
293.871	118.61
294.086	147.28
294.301	159.57
294.516	98.13
294.73	71.51
294.945	-65.71
295.16	5.97
295.374	151.38
295.589	128.85
295.804	-4.27
296.018	89.94
296.233	124.76
296.447	28.5
296.662	-55.47
296.877	108.37
297.091	102.23
297.306	75.6
297.52	53.08
297.735	-12.46
297.949	-0.17
298.164	85.84
298.378	61.27
298.593	20.31
298.807	36.69
299.022	5.97
299.236	137.04
299.451	18.26
299.665	1.88
299.88	48.98
300.094	-77.99
300.309	65.36
300.523	61.27
300.737	-24.75
300.952	28.5
301.166	139.09
301.381	-34.99
301.595	-16.55
301.809	-2.22
302.024	12.12
302.238	-22.7
302.452	120.66
302.667	36.69
302.881	110.42
303.095	91.99
303.309	126.8
303.524	5.97
303.738	34.64
303.952	20.31
304.166	149.33
304.381	-63.66
304.595	69.46
304.809	-45.23
305.023	-57.51
305.237	46.93
305.452	34.64
305.666	26.45
305.88	53.08
306.094	73.56
306.308	132.95
306.522	118.61
306.736	-4.27
306.95	22.36
307.164	16.21
307.379	26.45
307.593	165.71
307.807	100.18
308.021	143.19
308.235	57.17
308.449	-69.8
308.663	-6.31
308.877	261.97
309.091	-22.7
309.305	112.47
309.519	-73.9
309.733	198.48
309.947	-20.65
310.161	175.95
310.374	159.57
310.588	87.89
310.802	-47.27
311.016	28.5
311.23	171.86
311.444	-37.03
311.658	65.36
311.872	163.67
312.085	-2.22
312.299	151.38
312.513	167.76
312.727	120.66
312.941	-39.08
313.154	24.4
313.368	32.6
313.582	110.42
313.796	91.99
314.009	-16.55
314.223	112.47
314.437	73.56
314.651	91.99
314.864	-32.94
315.078	110.42
315.292	-55.47
315.505	3.93
315.719	104.28
315.933	75.6
316.146	26.45
316.36	-49.32
316.573	167.76
316.787	116.56
317.001	63.32
317.214	-80.04
317.428	85.84
317.641	-16.55
317.855	-12.46
318.068	40.79
318.282	69.46
318.495	243.54
318.709	87.89
318.922	10.07
319.136	171.86
319.349	161.62
319.563	44.88
319.776	110.42
319.99	-43.18
320.203	85.84
320.417	-37.03
320.63	106.32
320.843	108.37
321.057	67.41
321.27	53.08
321.483	122.71
321.697	116.56
321.91	20.31
322.124	124.76
322.337	79.7
322.55	18.26
322.763	85.84
322.977	71.51
323.19	16.21
323.403	26.45
323.617	69.46
323.83	128.85
324.043	91.99
324.256	69.46
324.469	-96.43
324.683	83.8
324.896	20.31
325.109	-10.41
325.322	-12.46
325.535	38.74
325.748	61.27
325.962	34.64
326.175	89.94
326.388	178
326.601	196.43
326.814	48.98
327.027	69.46
327.24	159.57
327.453	-51.37
327.666	100.18
327.879	169.81
328.092	28.5
328.305	116.56
328.518	-63.66
328.731	-24.75
328.944	132.95
329.157	118.61
329.37	20.31
329.583	180.05
329.796	94.04
330.009	-41.13
330.222	178
330.435	120.66
330.648	139.09
330.861	38.74
331.073	44.88
331.286	106.32
331.499	57.17
331.712	-30.89
331.925	24.4
332.138	32.6
332.35	89.94
332.563	-32.94
332.776	118.61
332.989	-20.65
333.202	-10.41
333.414	40.79
333.627	116.56
333.84	36.69
334.053	94.04
334.265	-10.41
334.478	98.13
334.691	77.65
334.903	98.13
335.116	38.74
335.329	32.6
335.541	32.6
335.754	159.57
335.966	57.17
336.179	42.84
336.392	65.36
336.604	18.26
336.817	132.95
337.029	48.98
337.242	32.6
337.454	112.47
337.667	69.46
337.88	120.66
338.092	59.22
338.305	157.52
338.517	-18.6
338.729	63.32
338.942	126.8
339.154	14.17
339.367	20.31
339.579	46.93
339.792	-45.23
340.004	118.61
340.217	102.23
340.429	24.4
340.641	46.93
340.854	55.12
341.066	36.69
341.278	128.85
341.491	192.34
341.703	-8.36
341.915	24.4
342.128	63.32
342.34	106.32
342.552	-16.55
342.764	53.08
342.977	57.17
343.189	65.36
343.401	51.03
343.613	-102.57
343.826	-6.31
344.038	-8.36
344.25	28.5
344.462	-47.27
344.674	30.55
344.886	1.88
345.099	57.17
345.311	61.27
345.523	-112.81
345.735	-20.65
345.947	55.12
346.159	40.79
346.371	3.93
346.583	-28.84
346.795	153.43
347.007	63.32
347.219	118.61
347.431	1.88
347.643	137.04
347.855	-16.55
348.067	188.24
348.279	-12.46
348.491	5.97
348.703	96.08
348.915	59.22
349.127	38.74
349.339	73.56
349.551	-8.36
349.763	110.42
349.975	85.84
350.187	38.74
350.399	182.1
350.61	204.63
350.822	98.13
351.034	55.12
351.246	44.88
351.458	98.13
351.669	114.52
351.881	132.95
352.093	157.52
352.305	104.28
352.517	114.52
352.728	137.04
352.94	87.89
353.152	73.56
353.363	-12.46
353.575	51.03
353.787	169.81
353.999	130.9
354.21	231.25
354.422	44.88
354.633	57.17
354.845	40.79
355.057	114.52
355.268	28.5
355.48	57.17
355.692	-37.03
355.903	83.8
356.115	18.26
356.326	-90.28
356.538	182.1
356.749	81.75
356.961	186.19
357.172	57.17
357.384	3.93
357.595	274.26
357.807	20.31
358.018	-26.79
358.23	36.69
358.441	153.43
358.653	116.56
358.864	73.56
359.075	12.12
359.287	112.47
359.498	53.08
359.709	128.85
359.921	79.7
360.132	20.31
360.344	20.31
360.555	8.02
360.766	69.46
360.977	51.03
361.189	190.29
361.4	53.08
361.611	147.28
361.823	182.1
362.034	24.4
362.245	-22.7
362.456	73.56
362.667	91.99
362.879	-41.13
363.09	57.17
363.301	-61.61
363.512	-26.79
363.723	-20.65
363.935	30.55
364.146	112.47
364.357	44.88
364.568	161.62
364.779	-34.99
364.99	184.15
365.201	69.46
365.412	128.85
365.623	-135.34
365.834	63.32
366.045	83.8
366.256	198.48
366.467	114.52
366.678	69.46
366.889	71.51
367.1	38.74
367.311	212.82
367.522	34.64
367.733	118.61
367.944	77.65
368.155	57.17
368.366	145.24
368.577	186.19
368.788	139.09
368.999	5.97
369.209	67.41
369.42	245.59
369.631	194.39
369.842	126.8
370.053	-0.17
370.264	48.98
370.474	73.56
370.685	59.22
370.896	-30.89
371.107	81.75
371.317	73.56
371.528	10.07
371.739	157.52
371.95	163.67
372.16	153.43
372.371	-80.04
372.582	-55.47
372.792	122.71
373.003	46.93
373.214	8.02
373.424	98.13
373.635	16.21
373.846	143.19
374.056	118.61
374.267	40.79
374.477	18.26
374.688	48.98
374.898	8.02
375.109	108.37
375.319	102.23
375.53	130.9
375.74	135
375.951	-51.37
376.161	132.95
376.372	124.76
376.582	100.18
376.793	63.32
377.003	-20.65
377.214	57.17
377.424	87.89
377.635	75.6
377.845	34.64
378.055	106.32
378.266	-94.38
378.476	71.51
378.686	67.41
378.897	59.22
379.107	48.98
379.317	71.51
379.528	26.45
379.738	73.56
379.948	53.08
380.158	106.32
380.369	65.36
380.579	110.42
380.789	-20.65
380.999	53.08
381.21	130.9
381.42	157.52
381.63	-2.22
381.84	63.32
382.05	40.79
382.261	196.43
382.471	137.04
382.681	-24.75
382.891	173.91
383.101	89.94
383.311	5.97
383.521	16.21
383.731	120.66
383.941	124.76
384.151	143.19
384.361	-47.27
384.571	120.66
384.781	91.99
384.991	227.15
385.201	208.72
385.411	61.27
385.621	98.13
385.831	98.13
386.041	53.08
386.251	-0.17
386.461	96.08
386.671	-45.23
386.881	81.75
387.091	79.7
387.301	106.32
387.511	94.04
387.72	110.42
387.93	75.6
388.14	20.31
388.35	73.56
388.56	98.13
388.769	130.9
388.979	34.64
389.189	8.02
389.399	-16.55
389.609	116.56
389.818	81.75
390.028	126.8
390.238	71.51
390.447	-2.22
390.657	61.27
390.867	46.93
391.076	-24.75
391.286	44.88
391.496	73.56
391.705	104.28
391.915	139.09
392.125	112.47
392.334	14.17
392.544	147.28
392.753	85.84
392.963	30.55
393.172	28.5
393.382	44.88
393.591	139.09
393.801	42.84
394.01	261.97
394.22	36.69
394.429	36.69
394.639	-0.17
394.848	51.03
395.058	32.6
395.267	89.94
395.477	98.13
395.686	65.36
395.895	194.39
396.105	169.81
396.314	46.93
396.524	26.45
396.733	53.08
396.942	104.28
397.152	77.65
397.361	128.85
397.57	91.99
397.78	83.8
397.989	108.37
398.198	163.67
398.407	73.56
398.617	83.8
398.826	-12.46
399.035	18.26
399.244	139.09
399.453	59.22
399.663	48.98
399.872	61.27
400.081	-75.95
400.29	151.38
400.499	3.93
400.708	100.18
400.917	61.27
401.127	61.27
401.336	73.56
401.545	216.91
401.754	94.04
401.963	100.18
402.172	98.13
402.381	-24.75
402.59	1.88
402.799	18.26
403.008	165.71
403.217	100.18
403.426	108.37
403.635	3.93
403.844	83.8
404.053	5.97
404.262	14.17
404.471	216.91
404.68	16.21
404.888	12.12
405.097	-0.17
405.306	153.43
405.515	81.75
405.724	57.17
405.933	77.65
406.142	40.79
406.35	161.62
406.559	34.64
406.768	102.23
406.977	91.99
407.185	46.93
407.394	44.88
407.603	24.4
407.812	38.74
408.02	171.86
408.229	141.14
408.438	57.17
408.646	-84.14
408.855	102.23
409.064	38.74
409.272	55.12
409.481	42.84
409.69	3.93
409.898	24.4
410.107	18.26
410.315	116.56
410.524	-30.89
410.733	51.03
410.941	32.6
411.15	161.62
411.358	180.05
411.567	180.05
411.775	69.46
411.984	77.65
412.192	124.76
412.401	59.22
412.609	192.34
412.818	145.24
413.026	118.61
413.234	-6.31
413.443	-34.99
413.651	-2.22
413.86	61.27
414.068	149.33
414.276	304.98
414.485	14.17
414.693	120.66
414.901	218.96
415.11	135
415.318	5.97
415.526	73.56
415.734	169.81
415.943	51.03
416.151	198.48
416.359	-0.17
416.567	108.37
416.776	100.18
416.984	100.18
417.192	132.95
417.4	-6.31
417.608	77.65
417.817	26.45
418.025	145.24
418.233	198.48
418.441	96.08
418.649	1.88
418.857	73.56
419.065	173.91
419.273	-10.41
419.481	77.65
419.689	32.6
419.897	44.88
420.105	24.4
420.313	44.88
420.521	149.33
420.729	135
420.937	57.17
421.145	-34.99
421.353	85.84
421.561	163.67
421.769	114.52
421.977	-10.41
422.185	102.23
422.393	3.93
422.601	153.43
422.809	96.08
423.017	73.56
423.224	118.61
423.432	157.52
423.64	57.17
423.848	116.56
424.056	-2.22
424.263	63.32
424.471	102.23
424.679	180.05
424.887	63.32
425.094	182.1
425.302	122.71
425.51	36.69
425.718	77.65
425.925	46.93
426.133	-20.65
426.341	206.67
426.548	53.08
426.756	73.56
426.964	186.19
427.171	14.17
427.379	122.71
427.586	132.95
427.794	104.28
428.001	161.62
428.209	149.33
428.417	128.85
428.624	171.86
428.832	85.84
429.039	87.89
429.247	194.39
429.454	106.32
429.662	124.76
429.869	126.8
430.076	98.13
430.284	173.91
430.491	229.2
430.699	186.19
430.906	257.87
431.114	161.62
431.321	192.34
431.528	120.66
431.736	91.99
431.943	192.34
432.15	135
432.358	190.29
432.565	280.4
432.772	-39.08
432.979	264.02
433.187	194.39
433.394	245.59
433.601	167.76
433.808	225.11
434.016	280.4
434.223	245.59
434.43	229.2
434.637	261.97
434.844	343.89
435.052	266.07
435.259	247.63
435.466	241.49
435.673	288.59
435.88	286.54
436.087	440.14
436.294	311.12
436.501	329.55
436.708	274.26
436.915	245.59
437.122	339.79
437.329	255.83
437.537	444.24
437.743	362.32
437.95	409.42
438.157	386.9
438.364	341.84
438.571	442.19
438.778	556.88
438.985	470.86
439.192	450.38
439.399	542.54
439.606	505.68
439.813	644.94
440.02	544.59
440.227	667.47
440.433	671.56
440.64	507.73
440.847	501.58
441.054	610.12
441.261	710.47
441.467	663.37
441.674	612.17
441.881	780.11
442.088	683.85
442.294	802.63
442.501	886.6
442.708	792.39
442.914	782.15
443.121	814.92
443.328	907.08
443.534	1120.07
443.741	1036.1
443.948	907.08
444.154	1025.86
444.361	1197.89
444.568	1175.36
444.774	1099.59
444.981	1097.54
445.187	1279.81
445.394	1242.95
445.6	1208.13
445.807	1408.83
446.013	1302.34
446.22	1302.34
446.426	1531.71
446.633	1523.52
446.839	1736.51
447.046	1406.78
447.252	1824.57
447.459	1572.67
447.665	1736.51
447.871	1994.55
448.078	1939.26
448.284	1933.11
448.491	2189.11
448.697	2185.01
448.903	2256.69
449.11	2318.13
449.316	2207.54
449.522	2623.28
449.728	2500.4
449.935	2664.24
450.141	2662.19
450.347	2971.43
450.553	2823.98
450.76	2944.81
450.966	3047.21
451.172	3159.85
451.378	3393.31
451.584	3272.48
451.791	3626.78
451.997	3694.36
452.203	3729.18
452.409	3790.62
452.615	4282.13
452.821	4026.14
453.027	4060.95
453.233	4579.09
453.44	4362
453.646	4878.09
453.852	4763.4
454.058	5129.99
454.264	5138.18
454.47	5721.85
454.676	5553.92
454.882	6084.34
455.088	5875.45
455.294	6235.89
455.5	6608.62
455.705	7073.51
455.911	6835.95
456.117	7128.81
456.323	7343.85
456.529	7460.58
456.735	7915.23
456.941	8277.72
457.147	8568.53
457.352	8738.51
457.558	8820.43
457.764	9602.75
457.97	9819.84
458.176	10170.04
458.381	10585.78
458.587	10944.17
458.793	11431.59
458.999	11445.93
459.204	12899.98
459.41	13336.2
459.616	13151.88
459.821	14026.37
460.027	14579.32
460.233	15062.64
460.438	15255.15
460.644	15937.12
460.85	16182.88
461.055	16768.6
461.261	17436.24
461.466	17094.22
461.672	17708.62
461.878	19861.03
462.083	19504.68
462.289	19738.15
462.494	20774.42
462.7	20989.46
462.905	21110.29
463.111	22937.08
463.316	23977.45
463.522	24550.88
463.727	25021.91
463.932	25949.64
464.138	27006.39
464.343	28437.92
464.549	28100.01
464.754	30139.79
464.959	30762.37
465.165	31618.42
465.37	31294.84
465.575	31354.23
465.781	33375.58
465.986	34104.65
466.191	34071.89
466.397	34303.31
466.602	33428.82
466.807	35413.3
467.012	36381.99
467.218	37010.72
467.423	36500.78
467.628	37567.77
467.833	39697.66
468.038	38724.87
468.244	38552.84
468.449	39861.49
468.654	39453.95
468.859	39355.64
469.064	39587.07
469.269	38448.39
469.474	38950.15
469.679	39810.29
469.885	38909.19
470.09	39470.33
470.295	39288.06
470.5	38653.19
470.705	38835.46
470.91	37920.02
471.115	37385.5
471.32	38040.85
471.525	37920.02
471.73	37133.6
471.935	36525.35
472.139	35315
472.344	35532.09
472.549	35218.75
472.754	34432.33
472.959	33822.03
473.164	32365.93
473.369	32236.91
473.574	33029.47
473.778	32025.96
473.983	32005.48
474.188	31214.97
474.393	29255.06
474.598	29537.68
474.802	28855.71
475.007	28679.58
475.212	28775.84
475.417	27018.68
475.621	26822.08
475.826	26500.54
476.031	26068.42
476.235	25810.38
476.44	25425.36
476.645	24901.08
476.849	24636.89
477.054	24118.76
477.259	23250.42
477.463	23670.25
477.668	22924.79
477.872	22896.12
478.077	22380.03
478.282	21696.01
478.486	21358.1
478.691	21298.7
478.895	21085.72
479.1	20803.1
479.304	20842.01
479.509	19992.1
479.713	20618.78
479.918	20069.92
480.122	19879.46
480.326	19699.24
480.531	19553.83
480.735	19445.29
480.94	19140.15
481.144	19680.81
481.348	18779.7
481.553	18914.87
481.757	18339.39
481.961	18452.03
482.166	18679.35
482.37	18523.71
482.574	17792.58
482.778	17847.88
482.983	18198.08
483.187	17825.35
483.391	17729.09
483.595	17671.75
483.8	16989.78
484.004	17122.9
484.208	17215.05
484.412	16844.37
484.616	16639.58
484.821	16768.6
485.025	15990.37
485.229	16072.29
485.433	15822.44
485.637	15943.27
485.841	15365.74
486.045	15226.48
486.249	15134.32
486.453	14718.58
486.657	14827.12
486.861	14517.88
487.065	14208.64
487.269	14102.14
487.473	13633.16
487.677	13782.66
487.881	13823.62
488.085	13383.31
488.289	12918.42
488.493	12658.32
488.697	12709.52
488.901	12539.54
489.105	12088.99
489.309	12031.65
489.512	11732.64
489.716	11589.28
489.92	11366.06
490.124	10966.7
490.328	11255.47
490.531	10759.86
490.735	10751.67
490.939	10454.71
491.143	10100.41
491.346	10075.84
491.55	9940.67
491.754	9819.84
491.958	9692.87
492.161	9371.33
492.365	9354.95
492.569	9004.75
492.772	8941.26
492.976	8949.45
493.18	8654.55
493.383	8789.71
493.587	8445.65
493.79	8644.31
493.994	8234.71
494.197	8144.6
494.401	8386.26
494.605	8029.91
494.808	7966.43
495.012	7993.05
495.215	8009.44
495.419	8001.24
495.622	7636.7
495.825	7644.9
496.029	7558.88
496.232	7808.73
496.436	7503.59
496.639	7716.58
496.843	7593.7
497.046	7720.67
497.249	7681.76
497.453	7528.16
497.656	7501.54
497.859	7487.2
498.063	7675.62
498.266	7575.27
498.469	7597.79
498.673	7677.66
498.876	7491.3
499.079	7712.48
499.282	7528.16
499.485	8113.88
499.689	7769.82
499.892	7876.32
500.095	7808.73
500.298	8036.06
500.501	7722.72
500.705	8113.88
500.908	8046.3
501.111	8257.24
501.314	8128.22
501.517	8416.98
501.72	8398.55
501.923	8203.99
502.126	8421.08
502.329	8668.88
502.532	8589.01
502.735	8636.11
502.938	9035.47
503.141	9164.49
503.344	9086.67
503.547	9184.97
503.75	9381.57
503.953	9309.9
504.156	9492.16
504.359	9465.54
504.562	9787.07
504.765	9879.23
504.968	10167.99
505.17	10403.51
505.373	10254.01
505.576	10553.01
505.779	10624.69
505.982	10854.06
506.185	11105.96
506.387	11339.43
506.59	11452.07
506.793	11742.88
506.996	11759.27
507.198	12254.87
507.401	12054.17
507.604	12566.17
507.807	12631.7
508.009	12689.04
508.212	13076.11
508.415	13387.4
508.617	13776.52
508.82	13813.38
509.022	13893.25
509.225	14581.37
509.428	14685.81
509.63	15017.58
509.833	15152.75
510.035	15703.65
510.238	16010.85
510.44	16430.68
510.643	16588.38
510.845	16965.2
511.048	17110.61
511.25	17813.06
511.453	18073.15
511.655	18972.21
511.858	19076.66
512.06	19553.83
512.262	19789.35
512.465	20078.11
512.667	20653.59
512.87	21190.16
513.072	21868.04
513.274	22136.32
513.477	22519.29
513.679	23148.02
513.881	23428.59
514.084	24143.33
514.286	24366.56
514.488	25007.58
514.69	26009.03
514.893	25910.73
515.095	26885.56
515.297	27659.7
515.499	28104.1
515.701	28179.88
515.904	29003.16
516.106	29791.63
516.308	30219.66
516.51	30860.67
516.712	31401.33
516.914	32195.95
517.116	32875.87
517.318	33318.23
517.52	33850.7
517.722	34260.3
517.925	35149.12
518.127	36056.37
518.329	36771.11
518.531	36717.86
518.733	37596.44
518.935	38190.35
519.136	38786.31
519.338	39271.68
519.54	39673.08
519.742	40778.98
519.944	41153.76
520.146	41915.61
520.348	42468.56
520.55	42919.11
520.752	43052.23
520.954	44156.08
521.155	44004.53
521.357	44815.53
521.559	45208.74
521.761	46310.55
521.963	45937.82
522.164	46492.82
522.366	47060.1
522.568	47178.89
522.77	48004.22
522.971	48381.04
523.173	48249.97
523.375	48665.71
523.576	48931.95
523.778	49060.97
523.98	49894.49
524.181	49257.57
524.383	49966.17
524.584	50318.42
524.786	49890.4
524.988	50046.04
525.189	50744.4
525.391	50451.54
525.592	50777.17
525.794	50898
525.995	50637.9
526.197	50584.66
526.398	50648.14
526.6	50617.42
526.801	50156.63
527.003	50351.19
527.204	50132.06
527.406	50318.42
527.607	49824.86
527.808	50158.68
528.01	48921.71
528.211	49003.63
528.412	49665.12
528.614	49034.35
528.815	48489.59
529.016	48419.95
529.218	47551.62
529.419	47299.72
529.62	46994.57
529.822	46228.63
530.023	46048.41
530.224	45743.26
530.425	45862.04
530.626	44319.92
530.828	44180.66
531.029	44715.18
531.23	43623.61
531.431	43242.69
531.632	42775.75
531.833	42216.66
532.035	41680.09
532.236	41424.09
532.437	41422.05
532.638	39830.77
532.839	39709.94
533.04	39320.83
533.241	38577.42
533.442	38892.8
533.643	37874.96
533.844	37535
534.045	36916.51
534.246	35874.1
534.447	36242.73
534.648	35437.88
534.849	34805.06
535.05	34370.89
535.251	34018.64
535.451	33736.02
535.652	32888.16
535.853	32937.31
536.054	32316.78
536.255	31731.06
536.456	31188.35
536.657	31221.11
536.857	30487.94
537.058	30080.39
537.259	29891.98
537.46	29703.57
537.66	29037.98
537.861	28949.92
538.062	28356
538.263	27827.63
538.463	27483.57
538.664	26875.32
538.865	26834.36
539.065	26643.9
539.266	26197.45
539.466	26049.99
539.667	25349.59
539.868	25521.62
540.068	24970.71
540.269	24786.4
540.469	24724.96
540.67	23936.49
540.87	23981.54
541.071	23743.98
541.271	23160.31
541.472	22982.13
541.672	23051.77
541.873	22132.23
542.073	21960.2
542.274	22257.15
542.474	21691.91
542.675	21528.08
542.875	21562.89
543.075	20964.89
543.276	20594.2
543.476	20682.27
543.676	20293.15
543.877	20387.36
544.077	19842.6
544.277	19476.01
544.478	19711.53
544.678	19383.85
544.878	19054.13
545.078	18757.18
545.279	18871.86
545.479	17991.23
545.679	18290.24
545.879	17851.97
546.079	17761.86
546.28	17579.59
546.48	17210.96
546.68	17395.28
546.88	17063.5
547.08	16651.86
547.28	16453.21
547.48	16367.2
547.68	16305.76
547.88	16041.57
548.081	15799.91
548.281	15537.77
548.481	15416.94
548.681	15267.44
548.881	15001.2
549.081	14667.38
549.28	14640.76
549.48	14503.54
549.68	14294.65
549.88	13985.41
550.08	13803.14
550.28	13678.21
550.48	13473.42
550.68	13432.46
550.88	12895.89
551.08	12764.82
551.279	12715.67
551.479	12504.73
551.679	12379.8
551.879	12263.07
552.079	12146.33
552.278	12007.07
552.478	11919.01
552.678	11611.81
552.878	11316.9
553.077	10966.7
553.277	11019.95
553.477	11040.43
553.676	10647.22
553.876	10428.09
554.076	10204.86
554.275	10391.22
554.475	9883.33
554.674	9926.33
554.874	9625.28
555.074	9443.01
555.273	9483.97
555.473	9232.07
555.672	9058
555.872	8904.4
556.071	8787.66
556.271	8963.79
556.47	8408.79
556.67	8279.77
556.869	8316.63
557.068	8210.14
557.268	7919.32
557.467	7907.04
557.667	7743.2
557.866	7677.66
558.065	7407.33
558.265	7429.86
558.464	7243.49
558.663	7063.27
558.863	6930.16
559.062	7171.82
559.261	6807.28
559.461	6866.67
559.66	6614.77
559.859	6471.41
560.058	6420.21
560.258	6260.47
560.457	6076.15
560.656	6299.38
560.855	6125.3
561.054	5965.56
561.253	5930.75
561.453	5762.81
561.652	5766.91
561.851	5660.41
562.05	5486.34
562.249	5312.26
562.448	5570.3
562.647	5054.22
562.846	5105.42
563.045	5041.93
563.244	5046.02
563.443	5125.9
563.642	4765.45
563.841	4800.27
564.04	4730.64
564.239	4597.52
564.438	4642.57
564.637	4417.3
564.836	4364.05
565.035	4372.24
565.234	4335.38
565.432	4296.47
565.631	4288.28
565.83	4194.07
566.029	3960.6
566.228	4007.7
566.427	4126.49
566.625	3858.2
566.824	3864.35
567.023	3919.64
567.222	3675.93
567.42	3669.79
567.619	3632.93
567.818	3548.96
568.016	3768.09
568.215	3450.66
568.414	3448.61
568.612	3360.55
568.811	3409.7
569.01	3331.87
569.208	3168.04
569.407	3213.09
569.605	3163.94
569.804	3118.89
570.002	2981.67
570.201	2895.66
570.4	2938.66
570.598	2805.55
570.797	2922.28
570.995	2578.22
571.193	2709.29
571.392	2748.2
571.59	2627.37
571.789	2678.57
571.987	2670.38
572.186	2701.1
572.384	2436.91
572.582	2473.78
572.781	2647.85
572.979	2455.34
573.177	2303.79
573.376	2522.93
573.574	2389.81
573.772	2258.74
573.971	2301.75
574.169	2189.11
574.367	2303.79
574.565	2187.06
574.763	2174.77
574.962	2072.37
575.16	2019.13
575.358	2062.13
575.556	1984.31
575.754	1988.41
575.952	1969.98
576.151	2008.89
576.349	1988.41
576.547	1779.51
576.745	1797.95
576.943	1865.53
577.141	1783.61
577.339	1683.26
577.537	1728.31
577.735	1724.22
577.933	1695.55
578.131	1527.61
578.329	1623.87
578.527	1566.53
578.725	1582.91
578.923	1396.54
579.121	1541.95
579.319	1482.56
579.516	1408.83
579.714	1644.35
579.912	1433.41
580.11	1353.54
580.308	1376.06
580.506	1326.91
580.704	1185.6
580.901	1296.19
581.099	1449.79
581.297	1267.52
581.495	1355.58
581.692	1277.76
581.89	1285.95
582.088	1261.38
582.285	1189.7
582.483	1140.55
582.681	1064.77
582.878	1255.23
583.076	1089.35
583.274	1109.83
583.471	1142.6
583.669	1132.36
583.866	986.95
584.064	1075.01
584.262	960.33
584.459	1013.57
584.657	1081.16
584.854	1075.01
585.052	968.52
585.249	1034.05
585.447	1001.29
585.644	884.55
585.841	1115.97
586.039	905.03
586.236	1017.67
586.434	1003.33
586.631	902.98
586.828	851.78
587.026	780.11
587.223	716.62
587.42	757.58
587.618	894.79
587.815	882.5
588.012	790.35
588.21	718.67
588.407	888.65
588.604	859.98
588.801	722.76
588.999	663.37
589.196	874.31
589.393	716.62
589.59	735.05
589.787	757.58
589.984	773.96
590.182	806.73
590.379	730.95
590.576	708.43
590.773	687.95
590.97	673.61
591.167	687.95
591.364	755.53
591.561	706.38
591.758	823.11
591.955	757.58
592.152	663.37
592.349	638.8
592.546	614.22
592.743	614.22
592.94	700.23
593.137	667.47
593.334	792.39
593.531	755.53
593.727	704.33
593.924	689.99
594.121	706.38
594.318	692.04
594.515	769.87
594.712	819.02
594.908	859.98
595.105	665.42
595.302	665.42
595.499	726.86
595.696	784.2
595.892	718.67
596.089	892.74
596.286	771.91
596.482	862.02
596.679	814.92
596.876	810.82
597.072	872.26
597.269	857.93
597.466	970.57
597.662	980.81
597.859	921.42
598.055	976.71
598.252	986.95
598.448	1085.25
598.645	1097.54
598.841	1120.07
599.038	1267.52
599.234	1267.52
599.431	1261.38
599.627	1320.77
599.824	1369.92
600.02	1404.74
600.217	1361.73
600.413	1511.23
600.609	1511.23
600.806	1716.03
601.002	1662.78
601.198	1658.68
601.395	1822.52
601.591	1761.08
601.787	2035.51
601.984	2019.13
602.18	2053.94
602.376	2133.81
602.572	2242.36
602.769	2490.16
602.965	2422.58
603.161	2543.41
603.357	2582.32
603.553	2555.69
603.75	2643.76
603.946	2918.18
604.142	2826.03
604.338	3006.25
604.534	3061.54
604.73	3233.57
604.926	3286.82
605.122	3481.38
605.318	3524.38
605.514	3663.65
605.71	3555.1
605.906	3823.39
606.102	3903.26
606.298	4130.58
606.494	4218.64
606.69	4339.48
606.886	4374.29
607.082	4427.54
607.278	4779.79
607.474	4843.28
607.67	4771.6
607.866	4955.91
608.062	5408.51
608.257	5363.46
608.453	5349.12
608.649	5697.28
608.845	5631.74
609.041	5840.64
609.236	6088.44
609.432	6168.31
609.628	6446.83
609.824	6635.25
610.019	6522.61
610.215	6952.68
610.411	7306.98
610.606	7468.77
610.802	7382.76
610.998	7517.92
611.193	7941.85
611.389	7948
611.584	8199.9
611.78	8459.99
611.976	8513.24
612.171	8982.22
612.367	9146.06
612.562	9408.2
612.758	9373.38
612.953	9762.5
613.149	10143.42
613.344	10467
613.539	10671.79
613.735	10864.3
613.93	11212.46
614.126	11341.48
614.321	11847.33
614.517	11978.4
614.712	12394.14
614.907	12764.82
615.103	12830.35
615.298	13299.34
615.493	13766.28
615.688	13807.23
615.884	14700.15
616.079	14515.83
616.274	15267.44
616.47	15330.92
616.665	15894.11
616.86	15834.72
617.055	16819.8
617.25	17276.49
617.445	17612.36
617.641	17653.32
617.836	18222.66
618.031	18599.48
618.226	19121.71
618.421	19355.18
618.616	19992.1
618.811	20461.09
619.006	21210.64
619.201	21362.19
619.396	22046.21
619.591	22072.84
619.786	22932.98
619.981	23100.92
620.176	24137.19
620.371	24118.76
620.566	24956.38
620.761	24929.75
620.956	25882.06
621.151	26199.49
621.346	26774.97
621.541	26738.11
621.735	28042.67
621.93	28239.27
622.125	29097.37
622.32	28732.83
622.515	29982.09
622.709	30098.83
622.904	30842.24
623.099	31335.8
623.294	31788.4
623.488	32533.86
623.683	32980.32
623.878	33117.53
624.072	34235.72
624.267	34690.37
624.462	35190.08
624.656	35216.7
624.851	36353.32
625.046	36566.31
625.24	37174.56
625.435	37272.86
625.629	37932.31
625.824	38462.73
626.018	39075.07
626.213	38843.65
626.407	40064.24
626.602	40236.27
626.796	41024.74
626.991	40652.01
627.185	41120.99
627.38	41878.74
627.574	41895.13
627.768	41913.56
627.963	41977.04
628.157	42296.53
628.352	42802.38
628.546	42300.62
628.74	42841.29
628.935	42398.93
629.129	42636.49
629.323	41960.66
629.517	42171.6
629.712	42042.58
629.906	41616.6
630.1	41215.2
630.294	41061.6
630.489	40469.74
630.683	40584.43
630.877	39124.22
631.071	39073.03
631.265	38329.61
631.459	37461.27
631.653	36877.6
631.848	35960.11
632.042	35036.48
632.236	34325.83
632.43	33074.52
632.624	32828.77
632.818	31749.49
633.012	30424.45
633.206	29285.78
633.4	28630.43
633.594	27882.92
633.788	26678.72
633.982	26209.73
634.176	25075.16
634.369	23895.53
634.563	23033.33
634.757	22380.03
634.951	21669.39
635.145	20737.56
635.339	19846.69
635.533	18990.64
635.726	18454.08
635.92	17342.03
636.114	17045.07
636.308	16139.87
636.501	15722.09
636.695	15023.73
636.889	14313.08
637.083	13799.04
637.276	13450.89
637.47	12523.16
637.664	12107.42
637.857	11882.14
638.051	11081.39
638.244	10557.11
638.438	10288.82
638.632	9936.57
638.825	9342.66
639.019	9156.3
639.212	8644.31
639.406	8427.22
639.599	8056.54
639.793	7935.71
639.986	7448.29
640.18	7126.76
640.373	6956.78
640.567	6582
640.76	6520.56
640.954	6190.84
641.147	5758.72
641.34	5605.12
641.534	5549.82
641.727	5345.03
641.92	5017.35
642.114	4740.88
642.307	4622.09
642.5	4599.57
642.694	4349.71
642.887	4091.67
643.08	4034.33
643.273	3960.6
643.467	3735.32
643.66	3450.66
643.853	3366.69
644.046	3342.11
644.239	3292.96
644.432	2998.06
644.626	2783.02
644.819	2838.31
645.012	2699.05
645.205	2660.14
645.398	2752.3
645.591	2371.38
645.784	2357.04
645.977	2248.5
646.17	2144.05
646.363	2008.89
646.556	1937.21
646.749	1982.26
646.942	1902.39
647.135	1937.21
647.328	1748.79
647.521	1744.7
647.714	1627.96
647.907	1587.01
648.099	1544
648.292	1505.09
648.485	1457.98
648.678	1285.95
648.871	1322.82
649.064	1238.85
649.256	1062.73
649.449	948.04
649.642	980.81
649.835	1179.46
650.027	1048.39
650.22	1056.58
650.413	964.42
650.605	986.95
650.798	769.87
650.991	808.78
651.183	894.79
651.376	905.03
651.568	794.44
651.761	751.43
651.954	741.19
652.146	704.33
652.339	751.43
652.531	800.59
652.724	583.5
652.916	558.92
653.109	483.15
653.301	665.42
653.494	671.56
653.686	612.17
653.879	685.9
654.071	638.8
654.263	479.05
654.456	468.81
654.648	616.27
654.84	534.35
655.033	485.2
655.225	524.11
655.417	399.18
655.61	493.39
655.802	460.62
655.994	415.57
656.186	341.84
656.379	460.62
656.571	364.37
656.763	264.02
656.955	313.17
657.148	425.81
657.34	405.33
657.532	311.12
657.724	276.31
657.916	319.31
658.108	366.42
658.3	386.9
658.492	313.17
658.684	255.83
658.876	427.85
659.068	216.91
659.26	239.44
659.452	245.59
659.644	264.02
659.836	397.14
660.028	292.69
660.22	200.53
660.412	223.06
660.604	307.02
660.796	202.58
660.988	350.03
661.18	223.06
661.372	286.54
661.563	147.28
661.755	259.92
661.947	245.59
662.139	218.96
662.331	292.69
662.522	278.35
662.714	77.65
662.906	143.19
663.097	141.14
663.289	196.43
663.481	85.84
663.673	227.15
663.864	208.72
664.056	190.29
664.247	83.8
664.439	323.41
664.631	169.81
664.822	241.49
665.014	214.87
665.205	151.38
665.397	77.65
665.588	167.76
665.78	194.39
665.971	313.17
666.163	184.15
666.354	225.11
666.546	206.67
666.737	130.9
666.929	69.46
667.12	137.04
667.311	200.53
667.503	116.56
667.694	135
667.885	94.04
668.077	182.1
668.268	61.27
668.459	225.11
668.651	257.87
668.842	257.87
669.033	108.37
669.224	163.67
669.416	304.98
669.607	214.87
669.798	112.47
669.989	214.87
670.18	122.71
670.371	206.67
670.563	79.7
670.754	186.19
670.945	188.24
671.136	268.11
671.327	71.51
671.518	247.63
671.709	319.31
671.9	184.15
672.091	216.91
672.282	239.44
672.473	94.04
672.664	106.32
672.855	186.19
673.046	233.3
673.237	173.91
673.428	159.57
673.619	229.2
673.809	132.95
674	272.21
674.191	253.78
674.382	124.76
674.573	124.76
674.764	167.76
674.954	221.01
675.145	122.71
675.336	87.89
675.527	251.73
675.717	204.63
675.908	81.75
676.099	147.28
676.289	145.24
676.48	55.12
676.671	122.71
676.861	130.9
677.052	204.63
677.243	165.71
677.433	116.56
677.624	223.06
677.814	233.3
678.005	73.56
678.195	227.15
678.386	69.46
678.576	221.01
678.767	112.47
678.957	192.34
679.148	143.19
679.338	329.55
679.529	225.11
679.719	110.42
679.909	284.5
680.1	247.63
680.29	264.02
680.481	94.04
680.671	270.16
680.861	241.49
681.052	231.25
681.242	114.52
681.432	239.44
681.622	247.63
681.813	175.95
682.003	151.38
682.193	165.71
682.383	259.92
682.573	227.15
682.764	147.28
682.954	233.3
683.144	292.69
683.334	163.67
683.524	200.53
683.714	202.58
683.904	214.87
684.094	188.24
684.284	249.68
684.474	331.6
684.664	264.02
684.854	233.3
685.044	229.2
685.234	221.01
685.424	298.83
685.614	169.81
685.804	403.28
685.994	329.55
686.184	186.19
686.374	229.2
686.564	274.26
686.753	227.15
686.943	159.57
687.133	237.39
687.323	161.62
687.513	276.31
687.702	186.19
687.892	231.25
688.082	245.59
688.272	282.45
688.461	229.2
688.651	309.07
688.841	352.08
689.03	206.67
689.22	208.72
689.41	255.83
689.599	165.71
689.789	94.04
689.979	388.94
690.168	206.67
690.358	270.16
690.547	196.43
690.737	243.54
690.926	198.48
691.116	296.78
691.305	266.07
691.495	237.39
691.684	233.3
691.874	210.77
692.063	198.48
692.252	253.78
692.442	237.39
692.631	231.25
692.82	212.82
693.01	184.15
693.199	184.15
693.388	272.21
693.578	231.25
693.767	241.49
693.956	296.78
694.146	192.34
694.335	231.25
694.524	216.91
694.713	264.02
694.902	239.44
695.092	253.78
695.281	245.59
695.47	192.34
695.659	124.76
695.848	206.67
696.037	192.34
696.226	276.31
696.415	188.24
696.604	401.23
696.793	315.22
696.982	188.24
697.171	284.5
697.36	200.53
697.549	200.53
697.738	112.47
697.927	151.38
698.116	180.05
698.305	163.67
698.494	186.19
698.683	145.24
698.872	337.74
699.061	221.01
699.25	196.43
699.438	178
699.627	165.71
699.816	261.97
700.005	163.67
700.193	100.18
700.382	286.54
700.571	214.87
700.76	202.58
700.948	198.48
701.137	288.59
701.326	276.31
701.514	120.66
701.703	270.16
701.892	216.91
702.08	425.81
702.269	182.1
702.457	135
702.646	247.63
702.834	171.86
703.023	259.92
703.212	239.44
703.4	239.44
703.589	126.8
703.777	130.9
703.965	184.15
704.154	94.04
704.342	112.47
704.531	194.39
704.719	233.3
704.907	352.08
705.096	218.96
705.284	132.95
705.472	278.35
705.661	196.43
705.849	216.91
706.037	259.92
706.226	307.02
706.414	237.39
706.602	163.67
706.79	249.68
706.979	108.37
707.167	235.35
707.355	22.36
707.543	216.91
707.731	180.05
707.919	190.29
708.107	194.39
708.296	71.51
708.484	202.58
708.672	298.83
708.86	257.87
709.048	235.35
709.236	145.24
709.424	143.19
709.612	223.06
709.8	83.8
709.988	241.49
710.176	194.39
710.364	372.56
710.551	178
710.739	200.53
710.927	231.25
711.115	233.3
711.303	206.67
711.491	266.07
711.679	79.7
711.866	276.31
712.054	153.43
712.242	284.5
712.43	319.31
712.617	178
712.805	200.53
712.993	198.48
713.181	126.8
713.368	221.01
713.556	200.53
713.744	198.48
713.931	366.42
714.119	221.01
714.306	130.9
714.494	225.11
714.682	231.25
714.869	96.08
715.057	171.86
715.244	83.8
715.432	165.71
715.619	149.33
715.807	212.82
715.994	229.2
716.182	255.83
716.369	266.07
716.556	309.07
716.744	98.13
716.931	126.8
717.119	251.73
717.306	223.06
717.493	223.06
717.681	180.05
717.868	114.52
718.055	284.5
718.242	288.59
718.43	202.58
718.617	251.73
718.804	173.91
718.991	356.18
719.179	192.34
719.366	169.81
719.553	235.35
719.74	270.16
719.927	274.26
720.114	196.43
720.301	167.76
720.488	202.58
720.676	167.76
720.863	259.92
721.05	309.07
721.237	196.43
721.424	216.91
721.611	204.63
721.798	147.28
721.985	257.87
722.172	261.97
722.358	231.25
722.545	341.84
722.732	257.87
722.919	436.05
723.106	317.26
723.293	196.43
723.48	288.59
723.667	194.39
723.853	350.03
724.04	309.07
724.227	319.31
724.414	233.3
724.6	255.83
724.787	419.66
724.974	456.53
725.161	163.67
725.347	175.95
725.534	261.97
725.72	276.31
725.907	276.31
726.094	325.46
726.28	237.39
726.467	155.47
726.653	151.38
726.84	352.08
727.027	384.85
727.213	192.34
727.4	401.23
727.586	249.68
727.773	180.05
727.959	253.78
728.145	278.35
728.332	202.58
728.518	247.63
728.705	286.54
728.891	214.87
729.077	272.21
729.264	208.72
729.45	251.73
729.636	309.07
729.823	204.63
730.009	302.93
730.195	288.59
730.382	274.26
730.568	55.12
730.754	212.82
730.94	251.73
731.126	270.16
731.313	315.22
731.499	235.35
731.685	327.5
731.871	317.26
732.057	243.54
732.243	323.41
732.429	167.76
732.615	362.32
732.801	321.36
732.987	282.45
733.173	296.78
733.359	196.43
733.545	243.54
733.731	139.09
733.917	431.95
734.103	272.21
734.289	321.36
734.475	233.3
734.661	352.08
734.847	272.21
735.033	266.07
735.219	298.83
735.404	233.3
735.59	313.17
735.776	237.39
735.962	311.12
736.148	292.69
736.333	296.78
736.519	243.54
736.705	214.87
736.89	237.39
737.076	202.58
737.262	192.34
737.447	237.39
737.633	298.83
737.819	327.5
738.004	255.83
738.19	335.7
738.375	294.74
738.561	315.22
738.747	284.5
738.932	145.24
739.118	347.98
739.303	339.79
739.489	360.27
739.674	241.49
739.859	190.29
740.045	233.3
740.23	282.45
740.416	106.32
740.601	307.02
740.786	313.17
740.972	268.11
741.157	231.25
741.342	186.19
741.528	77.65
741.713	386.9
741.898	266.07
742.084	290.64
742.269	139.09
742.454	264.02
742.639	341.84
742.824	264.02
743.01	407.38
743.195	378.7
743.38	272.21
743.565	276.31
743.75	284.5
743.935	315.22
744.12	354.13
744.305	255.83
744.49	233.3
744.675	284.5
744.86	184.15
745.045	261.97
745.23	210.77
745.415	229.2
745.6	327.5
745.785	317.26
745.97	294.74
746.155	378.7
746.34	376.66
746.525	221.01
746.71	415.57
746.895	124.76
747.079	175.95
747.264	202.58
747.449	247.63
747.634	229.2
747.819	255.83
748.003	216.91
748.188	161.62
748.373	225.11
748.557	337.74
748.742	221.01
748.927	225.11
749.111	157.52
749.296	300.88
749.481	229.2
749.665	192.34
749.85	184.15
750.034	266.07
750.219	241.49
750.404	178
750.588	208.72
750.773	102.23
750.957	190.29
751.141	196.43
751.326	223.06
751.51	104.28
751.695	245.59
751.879	264.02
752.064	339.79
752.248	206.67
752.432	345.94
752.617	284.5
752.801	192.34
752.985	165.71
753.17	300.88
753.354	304.98
753.538	212.82
753.722	159.57
753.907	147.28
754.091	145.24
754.275	190.29
754.459	178
754.643	186.19
754.828	196.43
755.012	237.39
755.196	104.28
755.38	282.45
755.564	130.9
755.748	137.04
755.932	233.3
756.116	255.83
756.3	225.11
756.484	167.76
756.668	239.44
756.852	46.93
757.036	180.05
757.22	83.8
757.404	104.28
757.588	135
757.772	221.01
757.956	135
758.14	307.02
758.323	149.33
758.507	196.43
758.691	108.37
758.875	198.48
759.059	118.61
759.242	46.93
759.426	89.94
759.61	204.63
759.794	98.13
759.977	147.28
760.161	335.7
760.345	235.35
760.528	212.82
760.712	188.24
760.895	147.28
761.079	151.38
761.263	-0.17
761.446	24.4
761.63	184.15
761.813	245.59
761.997	96.08
762.18	112.47
762.364	165.71
762.547	5.97
762.731	198.48
762.914	137.04
763.098	55.12
763.281	73.56
763.464	128.85
763.648	143.19
763.831	165.71
764.015	100.18
764.198	104.28
764.381	135
764.564	139.09
764.748	124.76
764.931	169.81
765.114	24.4
765.297	204.63
765.481	18.26
765.664	120.66
765.847	104.28
766.03	229.2
766.213	79.7
766.397	89.94
766.58	51.03
766.763	139.09
766.946	75.6
767.129	122.71
767.312	69.46
767.495	132.95
767.678	128.85
767.861	137.04
768.044	141.14
768.227	40.79
768.41	108.37
768.593	114.52
768.776	124.76
768.959	-18.6
769.142	182.1
769.324	98.13
769.507	91.99
769.69	36.69
769.873	73.56
770.056	233.3
770.239	87.89
770.421	192.34
770.604	120.66
770.787	83.8
770.97	98.13
771.152	53.08
771.335	178
771.518	28.5
771.7	182.1
771.883	147.28
772.066	16.21
772.248	151.38
772.431	143.19
772.613	89.94
772.796	165.71
772.978	157.52
773.161	249.68
773.343	38.74
773.526	-18.6
773.708	-45.23
773.891	-2.22
774.073	63.32
774.256	124.76
774.438	245.59
774.621	42.84
774.803	153.43
774.985	51.03
775.168	182.1
775.35	-6.31
775.532	114.52
775.715	61.27
775.897	153.43
776.079	102.23
776.261	137.04
776.444	135
776.626	1.88
776.808	122.71
776.99	-32.94
777.173	48.98
777.355	65.36
777.537	55.12
777.719	182.1
777.901	36.69
778.083	16.21
778.265	14.17
778.447	169.81
778.629	-10.41
778.811	30.55
778.993	94.04
779.175	132.95
779.357	20.31
779.539	-14.51
779.721	114.52
779.903	89.94
780.085	83.8
780.267	96.08
780.449	114.52
780.631	157.52
780.812	204.63
780.994	75.6
781.176	124.76
781.358	-10.41
781.54	14.17
781.721	106.32
781.903	151.38
782.085	-10.41
782.267	81.75
782.448	-39.08
782.63	65.36
782.812	110.42
782.993	89.94
783.175	96.08
783.357	61.27
783.538	81.75
783.72	10.07
783.901	69.46
784.083	22.36
784.264	87.89
784.446	55.12
784.627	-4.27
784.809	122.71
784.99	-77.99
785.172	110.42
785.353	94.04
785.535	94.04
785.716	-63.66
785.897	-80.04
786.079	91.99
786.26	63.32
786.441	91.99
786.623	-37.03
786.804	-12.46
786.985	102.23
787.167	83.8
787.348	53.08
787.529	18.26
787.71	135
787.891	128.85
788.073	5.97
788.254	12.12
788.435	126.8
788.616	128.85
788.797	-10.41
788.978	106.32
789.159	10.07
789.34	36.69
789.522	1.88
789.703	-32.94
789.884	81.75
790.065	89.94
790.246	126.8
790.427	63.32
790.607	208.72
790.788	126.8
790.969	-24.75
791.15	46.93
791.331	-6.31
791.512	79.7
791.693	5.97
791.874	30.55
792.054	221.01
792.235	87.89
792.416	69.46
792.597	-63.66
792.778	57.17
792.958	114.52
793.139	73.56
793.32	-12.46
793.5	-88.23
793.681	155.47
793.862	16.21
794.042	-16.55
794.223	-34.99
794.404	63.32
794.584	-96.43
794.765	14.17
794.945	1.88
795.126	126.8
795.306	14.17
795.487	-34.99
795.667	16.21
795.848	71.51
796.028	-51.37
796.209	79.7
796.389	55.12
796.57	55.12
796.75	-92.33
796.93	38.74
797.111	-61.61
797.291	-94.38
797.471	44.88
797.652	18.26
797.832	14.17
798.012	81.75
798.192	34.64
798.373	16.21
798.553	36.69
798.733	161.62
798.913	5.97
799.093	-41.13
799.274	20.31
799.454	91.99
799.634	-4.27
799.814	118.61
799.994	40.79
800.174	63.32
800.354	32.6
800.534	-170.15
800.714	75.6
800.894	-0.17
801.074	-67.75
801.254	-59.56
801.434	120.66
801.614	32.6
801.794	-75.95
801.974	1789.75
802.154	-53.42
802.334	83.8
802.514	-51.37
802.693	22.36
802.873	34.64
803.053	89.94
803.233	87.89
803.413	30.55
803.592	-18.6
803.772	-32.94
803.952	139.09
804.131	-51.37
804.311	34.64
804.491	112.47
804.67	-94.38
804.85	-84.14
805.03	57.17
805.209	89.94
805.389	-8.36
805.568	40.79
805.748	57.17
805.928	32.6
806.107	-10.41
806.287	28.5
806.466	57.17
806.646	8.02
806.825	61.27
807.004	-47.27
807.184	75.6
807.363	71.51
807.543	85.84
807.722	-67.75
807.901	106.32
808.081	79.7
808.26	-51.37
808.439	38.74
808.619	-4.27
808.798	-0.17
808.977	10.07
809.156	157.52
809.336	102.23
809.515	75.6
809.694	-28.84
809.873	-24.75
810.052	38.74
810.231	132.95
810.411	18.26
810.59	100.18
810.769	28.5
810.948	32.6
811.127	-55.47
811.306	-47.27
811.485	55.12
811.664	120.66
811.843	-45.23
812.022	16.21
812.201	-39.08
812.38	8.02
812.559	-12.46
812.737	94.04
812.916	-84.14
813.095	12.12
813.274	-16.55
813.453	-2.22
813.632	28.5
813.811	122.71
813.989	-22.7
814.168	87.89
814.347	-127.14
814.526	-6.31
814.704	124.76
814.883	106.32
815.062	16.21
815.24	104.28
815.419	-22.7
815.598	48.98
815.776	-43.18
815.955	61.27
816.133	-80.04
816.312	40.79
816.49	-90.28
816.669	3.93
816.847	-26.79
817.026	46.93
817.204	5.97
817.383	24.4
817.561	-45.23
817.74	-43.18
817.918	44.88
818.097	-6.31
818.275	-22.7
818.453	77.65
818.632	67.41
818.81	-2.22
818.988	1.88
819.167	-8.36
819.345	-10.41
819.523	34.64
819.701	24.4
819.879	8.02
820.058	-59.56
820.236	40.79
820.414	34.64
820.592	5.97
820.77	-28.84
820.948	10.07
821.127	24.4
821.305	14.17
821.483	-51.37
821.661	55.12
821.839	61.27
822.017	-2.22
822.195	-28.84
822.373	94.04
822.551	48.98
822.729	75.6
822.907	-41.13
823.085	-22.7
823.262	14.17
823.44	-57.51
823.618	-10.41
823.796	12.12
823.974	36.69
824.152	-16.55
824.329	18.26
824.507	46.93
824.685	79.7
824.863	-57.51
825.04	28.5
825.218	130.9
825.396	-12.46
825.574	30.55
825.751	73.56
825.929	104.28
826.107	-47.27
826.284	38.74
826.462	24.4
826.639	-77.99
826.817	-69.8
826.994	71.51
827.172	-8.36
827.349	104.28
827.527	-6.31
827.704	-10.41
827.882	32.6
828.059	46.93
828.237	-12.46
828.414	83.8
828.591	-114.86
828.769	81.75
828.946	-39.08
829.124	32.6
829.301	128.85
829.478	30.55
829.655	38.74
829.833	53.08
830.01	-159.91
830.187	81.75
830.364	26.45
830.542	28.5
830.719	110.42
830.896	79.7
831.073	22.36
831.25	57.17
831.427	106.32
831.604	53.08
831.782	-8.36
831.959	48.98
832.136	24.4
832.313	-8.36
832.49	-32.94
832.667	63.32
832.844	53.08
833.021	96.08
833.198	-32.94
833.374	-32.94
833.551	81.75
833.728	-4.27
833.905	100.18
834.082	-106.67
834.259	53.08
834.436	65.36
834.612	-53.42
834.789	79.7
834.966	87.89
835.143	-37.03
835.319	-77.99
835.496	147.28
835.673	87.89
835.85	108.37
836.026	40.79
836.203	63.32
836.38	-43.18
836.556	-80.04
836.733	5.97
836.909	120.66
837.086	10.07
837.262	-24.75
837.439	-16.55
837.616	3.93
837.792	-0.17
837.968	40.79
838.145	-129.19
838.321	40.79
838.498	79.7
838.674	51.03
838.851	51.03
839.027	-41.13
839.203	-6.31
839.38	89.94
839.556	-4.27
839.732	122.71
839.909	-0.17
840.085	124.76
840.261	22.36
840.437	32.6
840.614	-45.23
840.79	96.08
840.966	102.23
841.142	-4.27
841.318	-55.47
841.494	53.08
841.671	-14.51
841.847	28.5
842.023	-20.65
842.199	34.64
842.375	112.47
842.551	-41.13
842.727	-73.9
842.903	151.38
843.079	-69.8
843.255	89.94
843.431	-14.51
843.607	79.7
843.783	-121
843.959	-22.7
844.134	24.4
844.31	141.14
844.486	-106.67
844.662	-39.08
844.838	-16.55
845.013	128.85
845.189	57.17
845.365	-10.41
845.541	-4.27
845.716	44.88
845.892	114.52
846.068	30.55
846.244	-28.84
846.419	65.36
846.595	-53.42
846.77	-106.67
846.946	126.8
847.122	5.97
847.297	-16.55
847.473	159.57
847.648	-8.36
847.824	8.02
847.999	-153.77
848.175	22.36
848.35	34.64
848.526	159.57
848.701	79.7
848.876	126.8
849.052	122.71
849.227	-8.36
849.403	-8.36
849.578	-6.31
849.753	94.04
849.929	63.32
850.104	-59.56
850.279	30.55
850.454	61.27
850.63	71.51
850.805	46.93
850.98	18.26
851.155	-22.7
851.33	57.17
851.505	-34.99
851.681	108.37
851.856	-57.51
852.031	81.75
852.206	69.46
852.381	-10.41
852.556	-0.17
852.731	-24.75
852.906	22.36
853.081	75.6
853.256	57.17
853.431	5.97
853.606	1.88
853.781	-80.04
853.956	-127.14
854.131	46.93
854.305	-94.38
854.48	-37.03
854.655	-63.66
854.83	-12.46
855.005	8.02
855.18	8.02
855.354	-6.31
855.529	-0.17
855.704	-0.17
855.879	34.64
856.053	-16.55
856.228	30.55
856.403	-67.75
856.577	22.36
856.752	-82.09
856.926	-45.23
857.101	114.52
857.276	30.55
857.45	36.69
857.625	-2.22
857.799	40.79
857.974	36.69
858.148	-123.05
858.323	-24.75
858.497	14.17
858.672	-41.13
858.846	22.36
859.02	141.14
859.195	-71.85
859.369	24.4
859.543	75.6
859.718	-2.22
859.892	-26.79
860.066	89.94
860.241	1.88
860.415	-51.37
860.589	34.64
860.763	34.64
860.938	-41.13
861.112	26.45
861.286	-82.09
861.46	8.02
861.634	22.36
861.808	51.03
861.982	-18.6
862.157	-53.42
862.331	-26.79
862.505	-88.23
862.679	-108.71
862.853	-18.6
863.027	61.27
863.201	155.47
863.375	36.69
863.549	18.26
863.722	94.04
863.896	184.15
864.07	-69.8
864.244	-0.17
864.418	20.31
864.592	16.21
864.766	-84.14
864.939	22.36
865.113	-123.05
865.287	18.26
865.461	-43.18
865.634	14.17
865.808	8.02
865.982	73.56
866.156	30.55
866.329	-112.81
866.503	79.7
866.676	46.93
866.85	96.08
867.024	-82.09
867.197	18.26
867.371	10.07
867.544	57.17
867.718	-104.62
867.891	114.52
868.065	-57.51
868.238	30.55
868.412	67.41
868.585	-2.22
868.759	-61.61
868.932	-41.13
869.105	-73.9
869.279	22.36
869.452	-28.84
869.625	53.08
869.799	38.74
869.972	-86.19
870.145	42.84
870.319	112.47
870.492	-8.36
870.665	34.64
870.838	-73.9
871.011	-174.25
871.185	5.97
871.358	46.93
871.531	100.18
871.704	-30.89
871.877	-67.75
872.05	28.5
872.223	-80.04
872.396	42.84
872.569	87.89
872.742	-37.03
872.915	91.99
873.088	-49.32
873.261	-20.65
873.434	14.17
873.607	24.4
873.78	116.56
873.953	-30.89
874.126	-28.84
874.299	-47.27
874.471	-63.66
874.644	-8.36
874.817	34.64
874.99	102.23
875.163	28.5
875.335	51.03
875.508	87.89
875.681	106.32
875.853	-14.51
876.026	-37.03
876.199	38.74
876.371	-6.31
876.544	-14.51
876.717	-0.17
876.889	-16.55
877.062	46.93
877.234	-14.51
877.407	32.6
877.579	-20.65
877.752	46.93
877.924	106.32
878.097	57.17
878.269	28.5
878.442	46.93
878.614	-2.22
878.786	-18.6
878.959	16.21
879.131	65.36
879.303	-67.75
879.476	28.5
879.648	63.32
879.82	1.88
879.993	-94.38
880.165	-24.75
880.337	-149.67
880.509	-14.51
880.681	-53.42
880.854	-16.55
881.026	79.7
881.198	139.09
881.37	-77.99
881.542	40.79
881.714	79.7
881.886	-4.27
882.058	-6.31
882.23	8.02
882.402	44.88
882.574	79.7
882.746	120.66
882.918	128.85
883.09	75.6
883.262	-75.95
883.434	57.17
883.606	-92.33
883.778	-12.46
883.95	94.04
884.122	-20.65
884.293	94.04
884.465	10.07
884.637	73.56
884.809	-47.27
884.98	-4.27
885.152	10.07
885.324	59.22
885.496	-96.43
885.667	46.93
885.839	-80.04
886.011	100.18
886.182	57.17
886.354	98.13
886.525	8.02
886.697	12.12
886.869	-110.76
887.04	1.88
887.212	91.99
887.383	143.19
887.555	-12.46
887.726	-73.9
887.897	-2.22
888.069	38.74
888.24	120.66
888.412	16.21
888.583	-22.7
888.754	12.12
888.926	-53.42
889.097	16.21
889.268	-88.23
889.44	3.93
889.611	-61.61
889.782	-80.04
889.953	-88.23
890.125	46.93
890.296	-82.09
890.467	-14.51
890.638	14.17
890.809	-41.13
890.98	-41.13
891.151	89.94
891.323	61.27
891.494	30.55
891.665	69.46
891.836	-4.27
892.007	57.17
892.178	36.69
892.349	61.27
892.52	-55.47
892.691	-20.65
892.862	59.22
893.032	-114.86
893.203	-71.85
893.374	-0.17
893.545	106.32
893.716	-77.99
893.887	46.93
894.057	-71.85
894.228	-43.18
894.399	-18.6
894.57	132.95
894.74	-18.6
894.911	24.4
895.082	-8.36
895.253	-37.03
895.423	16.21
895.594	75.6
895.764	12.12
895.935	-84.14
896.106	-10.41
896.276	18.26
896.447	38.74
896.617	-106.67
896.788	-39.08
896.958	-24.75
897.129	-45.23
897.299	-69.8
897.47	53.08
897.64	89.94
897.81	-32.94
897.981	75.6
898.151	-94.38
898.322	81.75
898.492	30.55
898.662	-116.9
898.832	-51.37
899.003	-71.85
899.173	28.5
899.343	-0.17
899.513	-49.32
