Data from USB4F104151__206__11-05-40-430.txt Node

Date: Wed Feb 26 11:05:40 EST 2025
User: louis
Spectrometer: USB4F10415
Trigger mode: 4
Integration Time (sec): 1.000000E-1
Scans to average: 1
Electric dark correction enabled: true
Nonlinearity correction enabled: false
Boxcar width: 0
XAxis mode: Wavelengths
Number of Pixels in Spectrum: 3648
>>>>>Begin Spectral Data<<<<<
178.204	-446.29
178.424	-446.29
178.644	-446.29
178.864	-501.58
179.084	-470.86
179.304	-32.6
179.524	-10.07
179.744	12.46
179.964	86.19
180.184	57.51
180.404	10.41
180.624	-26.45
180.844	-5.97
181.064	-71.51
181.283	-16.21
181.503	-44.88
181.723	41.13
181.943	-73.56
182.163	233.64
182.383	-28.5
182.602	-34.64
182.822	110.76
183.042	20.65
183.262	14.51
183.482	34.99
183.701	24.75
183.921	106.67
184.141	-48.98
184.361	32.94
184.58	43.18
184.8	-26.45
185.02	-38.74
185.239	34.99
185.459	75.95
185.679	37.03
185.898	-40.79
186.118	49.32
186.338	34.99
186.557	118.95
186.777	-53.08
186.997	26.79
187.216	-5.97
187.436	186.54
187.655	69.8
187.875	151.72
188.095	47.27
188.314	127.14
188.534	110.76
188.753	-40.79
188.973	182.44
189.192	161.96
189.412	-8.02
189.631	-20.31
189.851	61.61
190.07	69.8
190.29	-69.46
190.509	0.17
190.729	-30.55
190.948	86.19
191.168	196.78
191.387	30.89
191.607	-16.21
191.826	166.06
192.045	-14.17
192.265	24.75
192.484	-18.26
192.704	84.14
192.923	-42.84
193.142	200.87
193.362	133.29
193.581	118.95
193.8	28.84
194.02	80.04
194.239	-8.02
194.458	118.95
194.678	39.08
194.897	2.22
195.116	47.27
195.335	73.9
195.555	69.8
195.774	-32.6
195.993	41.13
196.212	-20.31
196.432	-24.4
196.651	47.27
196.87	-32.6
197.089	151.72
197.308	-32.6
197.528	77.99
197.747	-65.36
197.966	8.36
198.185	106.67
198.404	-22.36
198.623	82.09
198.842	61.61
199.062	84.14
199.281	114.86
199.5	-24.4
199.719	41.13
199.938	8.36
200.157	98.47
200.376	123.05
200.595	100.52
200.814	8.36
201.033	-79.7
201.252	170.15
201.471	57.51
201.69	16.55
201.909	-28.5
202.128	82.09
202.347	96.43
202.566	12.46
202.785	-63.32
203.004	-51.03
203.223	178.34
203.442	73.9
203.661	-69.46
203.879	-18.26
204.098	184.49
204.317	-57.17
204.536	139.43
204.755	94.38
204.974	135.34
205.193	-18.26
205.411	67.75
205.63	110.76
205.849	8.36
206.068	14.51
206.287	-22.36
206.505	139.43
206.724	55.47
206.943	12.46
207.162	37.03
207.381	77.99
207.599	16.55
207.818	-12.12
208.037	-106.32
208.255	67.75
208.474	49.32
208.693	73.9
208.911	45.23
209.13	80.04
209.349	96.43
209.567	43.18
209.786	125.1
210.005	131.24
210.223	-32.6
210.442	-130.9
210.661	45.23
210.879	43.18
211.098	37.03
211.316	53.42
211.535	32.94
211.753	14.51
211.972	98.47
212.191	-98.13
212.409	-59.22
212.628	108.71
212.846	-12.12
213.065	24.75
213.283	96.43
213.502	-14.17
213.72	-44.88
213.938	53.42
214.157	39.08
214.375	84.14
214.594	-22.36
214.812	102.57
215.031	-57.17
215.249	-3.93
215.467	63.66
215.686	39.08
215.904	34.99
216.122	51.37
216.341	108.71
216.559	-28.5
216.778	135.34
216.996	51.37
217.214	53.42
217.432	6.31
217.651	-38.74
217.869	82.09
218.087	47.27
218.306	-67.41
218.524	-28.5
218.742	-32.6
218.96	88.23
219.179	24.75
219.397	22.7
219.615	159.91
219.833	86.19
220.051	-102.23
220.27	77.99
220.488	104.62
220.706	6.31
220.924	-16.21
221.142	-40.79
221.36	-28.5
221.578	155.82
221.796	55.47
222.015	47.27
222.233	51.37
222.451	159.91
222.669	16.55
222.887	55.47
223.105	123.05
223.323	-3.93
223.541	-12.12
223.759	65.71
223.977	-28.5
224.195	129.19
224.413	127.14
224.631	39.08
224.849	24.75
225.067	170.15
225.285	-112.47
225.503	-28.5
225.721	-91.99
225.939	41.13
226.157	-1.88
226.375	258.21
226.592	63.66
226.81	41.13
227.028	133.29
227.246	118.95
227.464	24.75
227.682	90.28
227.9	86.19
228.117	37.03
228.335	-5.97
228.553	18.6
228.771	41.13
228.989	14.51
229.206	73.9
229.424	22.7
229.642	-67.41
229.86	20.65
230.077	96.43
230.295	14.51
230.513	59.56
230.731	28.84
230.948	190.63
231.166	227.5
231.384	16.55
231.601	-61.27
231.819	213.16
232.037	18.6
232.254	-3.93
232.472	41.13
232.689	45.23
232.907	127.14
233.125	-26.45
233.342	-40.79
233.56	-26.45
233.777	-8.02
233.995	-48.98
234.213	10.41
234.43	67.75
234.648	16.55
234.865	-18.26
235.083	24.75
235.3	47.27
235.518	100.52
235.735	12.46
235.953	135.34
236.17	86.19
236.388	14.51
236.605	51.37
236.822	94.38
237.04	116.9
237.257	18.6
237.475	-18.26
237.692	49.32
237.909	32.94
238.127	88.23
238.344	43.18
238.562	114.86
238.779	-89.94
238.996	-42.84
239.214	125.1
239.431	133.29
239.648	-20.31
239.865	77.99
240.083	121
240.3	-69.46
240.517	67.75
240.735	-3.93
240.952	104.62
241.169	22.7
241.386	59.56
241.603	-55.12
241.821	55.47
242.038	71.85
242.255	32.94
242.472	-40.79
242.689	88.23
242.907	86.19
243.124	37.03
243.341	6.31
243.558	-42.84
243.775	-46.93
243.992	-46.93
244.209	32.94
244.426	121
244.643	43.18
244.86	-96.08
245.078	69.8
245.295	-8.02
245.512	-51.03
245.729	-28.5
245.946	114.86
246.163	73.9
246.38	10.41
246.597	102.57
246.814	34.99
247.031	67.75
247.248	-12.12
247.464	39.08
247.681	18.6
247.898	41.13
248.115	45.23
248.332	-55.12
248.549	39.08
248.766	221.35
248.983	51.37
249.2	75.95
249.417	182.44
249.633	0.17
249.85	43.18
250.067	26.79
250.284	20.65
250.501	86.19
250.717	73.9
250.934	-79.7
251.151	22.7
251.368	-26.45
251.585	41.13
251.801	82.09
252.018	-24.4
252.235	45.23
252.451	-12.12
252.668	-38.74
252.885	67.75
253.102	32.94
253.318	-57.17
253.535	37.03
253.752	-40.79
253.968	-3.93
254.185	-57.17
254.401	51.37
254.618	106.67
254.835	-8.02
255.051	112.81
255.268	63.66
255.484	59.56
255.701	34.99
255.917	73.9
256.134	-3.93
256.351	-1.88
256.567	-20.31
256.784	22.7
257	-63.32
257.217	106.67
257.433	77.99
257.65	6.31
257.866	108.71
258.082	-61.27
258.299	-98.13
258.515	75.95
258.732	0.17
258.948	-59.22
259.165	118.95
259.381	-26.45
259.597	39.08
259.814	-46.93
260.03	14.51
260.246	-40.79
260.463	77.99
260.679	145.58
260.895	26.79
261.112	86.19
261.328	-8.02
261.544	16.55
261.761	114.86
261.977	-16.21
262.193	-85.84
262.409	92.33
262.626	90.28
262.842	-36.69
263.058	-59.22
263.274	104.62
263.49	80.04
263.707	77.99
263.923	172.2
264.139	-8.02
264.355	-12.12
264.571	90.28
264.787	-12.12
265.004	112.81
265.22	41.13
265.436	-42.84
265.652	-14.17
265.868	80.04
266.084	-22.36
266.3	8.36
266.516	28.84
266.732	26.79
266.948	-38.74
267.164	-10.07
267.38	43.18
267.596	63.66
267.812	235.69
268.028	-26.45
268.244	-24.4
268.46	77.99
268.676	4.27
268.892	45.23
269.108	-67.41
269.324	-5.97
269.54	51.37
269.756	69.8
269.972	-34.64
270.188	0.17
270.403	-14.17
270.619	43.18
270.835	75.95
271.051	71.85
271.267	-12.12
271.483	-20.31
271.698	51.37
271.914	18.6
272.13	37.03
272.346	14.51
272.562	53.42
272.777	123.05
272.993	88.23
273.209	-51.03
273.425	67.75
273.64	-40.79
273.856	127.14
274.072	-12.12
274.287	-14.17
274.503	14.51
274.719	28.84
274.934	37.03
275.15	-16.21
275.366	43.18
275.581	22.7
275.797	24.75
276.012	14.51
276.228	-34.64
276.444	34.99
276.659	149.67
276.875	-34.64
277.09	47.27
277.306	37.03
277.521	30.89
277.737	-3.93
277.952	139.43
278.168	96.43
278.383	63.66
278.599	45.23
278.814	86.19
279.03	-3.93
279.245	143.53
279.461	-3.93
279.676	116.9
279.892	-75.6
280.107	34.99
280.322	2.22
280.538	8.36
280.753	10.41
280.969	61.61
281.184	24.75
281.399	92.33
281.615	34.99
281.83	88.23
282.045	41.13
282.26	-40.79
282.476	59.56
282.691	55.47
282.906	43.18
283.122	26.79
283.337	-26.45
283.552	65.71
283.767	0.17
283.983	153.77
284.198	-12.12
284.413	28.84
284.628	-65.36
284.843	-26.45
285.058	-22.36
285.274	71.85
285.489	-69.46
285.704	166.06
285.919	37.03
286.134	32.94
286.349	-8.02
286.564	20.65
286.779	137.38
286.995	4.27
287.21	-18.26
287.425	-20.31
287.64	-71.51
287.855	26.79
288.07	-14.17
288.285	96.43
288.5	118.95
288.715	90.28
288.93	-5.97
289.145	30.89
289.36	112.81
289.575	-1.88
289.79	178.34
290.004	14.51
290.219	65.71
290.434	-89.94
290.649	-3.93
290.864	-57.17
291.079	-94.04
291.294	-26.45
291.509	59.56
291.724	16.55
291.938	-30.55
292.153	69.8
292.368	-57.17
292.583	37.03
292.798	96.43
293.012	22.7
293.227	-10.07
293.442	28.84
293.657	94.38
293.871	61.61
294.086	16.55
294.301	243.88
294.516	92.33
294.73	34.99
294.945	6.31
295.16	10.41
295.374	180.39
295.589	49.32
295.804	8.36
296.018	82.09
296.233	75.95
296.447	100.52
296.662	22.7
296.877	114.86
297.091	63.66
297.306	51.37
297.52	-12.12
297.735	-12.12
297.949	30.89
298.164	2.22
298.378	67.75
298.593	-73.56
298.807	-53.08
299.022	110.76
299.236	147.62
299.451	14.51
299.665	65.71
299.88	-63.32
300.094	110.76
300.309	75.95
300.523	77.99
300.737	-46.93
300.952	121
301.166	86.19
301.381	-28.5
301.595	-63.32
301.809	26.79
302.024	4.27
302.238	-63.32
302.452	127.14
302.667	-28.5
302.881	73.9
303.095	22.7
303.309	-36.69
303.524	-14.17
303.738	0.17
303.952	14.51
304.166	67.75
304.381	-178
304.595	141.48
304.809	-65.36
305.023	6.31
305.237	24.75
305.452	-53.08
305.666	94.38
305.88	43.18
306.094	75.95
306.308	-28.5
306.522	118.95
306.736	106.67
306.95	141.48
307.164	16.55
307.379	26.79
307.593	133.29
307.807	149.67
308.021	65.71
308.235	53.42
308.449	-102.23
308.663	82.09
308.877	272.55
309.091	8.36
309.305	61.61
309.519	-73.56
309.733	180.39
309.947	-87.89
310.161	63.66
310.374	6.31
310.588	217.26
310.802	-32.6
311.016	-32.6
311.23	45.23
311.444	41.13
311.658	77.99
311.872	112.81
312.085	92.33
312.299	178.34
312.513	116.9
312.727	22.7
312.941	20.65
313.154	63.66
313.368	-12.12
313.582	67.75
313.796	129.19
314.009	-26.45
314.223	94.38
314.437	39.08
314.651	43.18
314.864	-20.31
315.078	45.23
315.292	-87.89
315.505	-30.55
315.719	20.65
315.933	118.95
316.146	65.71
316.36	-14.17
316.573	92.33
316.787	80.04
317.001	65.71
317.214	-98.13
317.428	55.47
317.641	-10.07
317.855	49.32
318.068	96.43
318.282	98.47
318.495	176.3
318.709	59.56
318.922	10.41
319.136	155.82
319.349	114.86
319.563	-10.07
319.776	118.95
319.99	-38.74
320.203	49.32
320.417	65.71
320.63	108.71
320.843	127.14
321.057	63.66
321.27	2.22
321.483	71.85
321.697	88.23
321.91	69.8
322.124	-20.31
322.337	22.7
322.55	-42.84
322.763	22.7
322.977	-42.84
323.19	14.51
323.403	-28.5
323.617	133.29
323.83	69.8
324.043	-1.88
324.256	43.18
324.469	-24.4
324.683	110.76
324.896	37.03
325.109	12.46
325.322	-73.56
325.535	100.52
325.748	155.82
325.962	-28.5
326.175	75.95
326.388	41.13
326.601	110.76
326.814	71.85
327.027	-14.17
327.24	121
327.453	-130.9
327.666	84.14
327.879	147.62
328.092	47.27
328.305	149.67
328.518	4.27
328.731	30.89
328.944	8.36
329.157	71.85
329.37	-1.88
329.583	139.43
329.796	161.96
330.009	-91.99
330.222	121
330.435	98.47
330.648	45.23
330.861	-5.97
331.073	49.32
331.286	118.95
331.499	45.23
331.712	-8.02
331.925	98.47
332.138	67.75
332.35	65.71
332.563	18.6
332.776	133.29
332.989	-61.27
333.202	-1.88
333.414	6.31
333.627	73.9
333.84	16.55
334.053	61.61
334.265	8.36
334.478	37.03
334.691	32.94
334.903	65.71
335.116	-12.12
335.329	77.99
335.541	104.62
335.754	106.67
335.966	-30.55
336.179	57.51
336.392	22.7
336.604	10.41
336.817	-53.08
337.029	32.94
337.242	-10.07
337.454	90.28
337.667	59.56
337.88	123.05
338.092	20.65
338.305	118.95
338.517	-3.93
338.729	71.85
338.942	118.95
339.154	-53.08
339.367	-1.88
339.579	45.23
339.792	-63.32
340.004	88.23
340.217	28.84
340.429	12.46
340.641	-20.31
340.854	-46.93
341.066	30.89
341.278	104.62
341.491	166.06
341.703	4.27
341.915	14.51
342.128	118.95
342.34	71.85
342.552	-8.02
342.764	49.32
342.977	-3.93
343.189	137.38
343.401	73.9
343.613	-67.41
343.826	-5.97
344.038	-61.27
344.25	59.56
344.462	-91.99
344.674	127.14
344.886	10.41
345.099	-36.69
345.311	94.38
345.523	0.17
345.735	-38.74
345.947	-3.93
346.159	73.9
346.371	69.8
346.583	-46.93
346.795	133.29
347.007	0.17
347.219	75.95
347.431	18.6
347.643	155.82
347.855	10.41
348.067	104.62
348.279	-53.08
348.491	37.03
348.703	102.57
348.915	-8.02
349.127	-98.13
349.339	-48.98
349.551	-3.93
349.763	172.2
349.975	51.37
350.187	114.86
350.399	184.49
350.61	20.65
350.822	-16.21
351.034	63.66
351.246	100.52
351.458	-59.22
351.669	106.67
351.881	45.23
352.093	102.57
352.305	204.97
352.517	65.71
352.728	139.43
352.94	20.65
353.152	108.71
353.363	-38.74
353.575	108.71
353.787	166.06
353.999	45.23
354.21	139.43
354.422	-8.02
354.633	39.08
354.845	116.9
355.057	-28.5
355.268	100.52
355.48	57.51
355.692	-61.27
355.903	32.94
356.115	30.89
356.326	-46.93
356.538	102.57
356.749	102.57
356.961	188.58
357.172	47.27
357.384	10.41
357.595	192.68
357.807	-36.69
358.018	18.6
358.23	106.67
358.441	137.38
358.653	80.04
358.864	-24.4
359.075	-75.6
359.287	37.03
359.498	147.62
359.709	102.57
359.921	41.13
360.132	121
360.344	4.27
360.555	4.27
360.766	75.95
360.977	-12.12
361.189	24.75
361.4	30.89
361.611	75.95
361.823	39.08
362.034	135.34
362.245	-40.79
362.456	88.23
362.667	153.77
362.879	-91.99
363.09	39.08
363.301	12.46
363.512	104.62
363.723	22.7
363.935	14.51
364.146	116.9
364.357	18.6
364.568	86.19
364.779	-85.84
364.99	143.53
365.201	14.51
365.412	59.56
365.623	-3.93
365.834	45.23
366.045	41.13
366.256	0.17
366.467	63.66
366.678	39.08
366.889	118.95
367.1	-34.64
367.311	100.52
367.522	-71.51
367.733	55.47
367.944	75.95
368.155	37.03
368.366	84.14
368.577	145.58
368.788	69.8
368.999	-1.88
369.209	69.8
369.42	155.82
369.631	225.45
369.842	57.51
370.053	20.65
370.264	106.67
370.474	-26.45
370.685	47.27
370.896	59.56
371.107	145.58
371.317	77.99
371.528	-14.17
371.739	164.01
371.95	149.67
372.16	100.52
372.371	-132.95
372.582	37.03
372.792	90.28
373.003	47.27
373.214	49.32
373.424	63.66
373.635	2.22
373.846	104.62
374.056	34.99
374.267	39.08
374.477	-8.02
374.688	59.56
374.898	-8.02
375.109	-51.03
375.319	26.79
375.53	55.47
375.74	168.1
375.951	18.6
376.161	47.27
376.372	149.67
376.582	-28.5
376.793	110.76
377.003	2.22
377.214	-51.03
377.424	51.37
377.635	94.38
377.845	-14.17
378.055	157.86
378.266	-98.13
378.476	65.71
378.686	112.81
378.897	-32.6
379.107	59.56
379.317	73.9
379.528	-34.64
379.738	155.82
379.948	20.65
380.158	53.42
380.369	75.95
380.579	59.56
380.789	-3.93
380.999	75.95
381.21	118.95
381.42	188.58
381.63	-36.69
381.84	131.24
382.05	84.14
382.261	84.14
382.471	69.8
382.681	88.23
382.891	116.9
383.101	80.04
383.311	20.65
383.521	-26.45
383.731	131.24
383.941	110.76
384.151	47.27
384.361	14.51
384.571	43.18
384.781	118.95
384.991	215.21
385.201	47.27
385.411	24.75
385.621	-14.17
385.831	53.42
386.041	67.75
386.251	90.28
386.461	86.19
386.671	67.75
386.881	34.99
387.091	18.6
387.301	82.09
387.511	22.7
387.72	69.8
387.93	133.29
388.14	-61.27
388.35	49.32
388.56	116.9
388.769	110.76
388.979	69.8
389.189	37.03
389.399	2.22
389.609	49.32
389.818	45.23
390.028	47.27
390.238	80.04
390.447	-3.93
390.657	63.66
390.867	24.75
391.076	2.22
391.286	127.14
391.496	24.75
391.705	24.75
391.915	139.43
392.125	88.23
392.334	4.27
392.544	139.43
392.753	24.75
392.963	28.84
393.172	86.19
393.382	8.36
393.591	141.48
393.801	-34.64
394.01	135.34
394.22	100.52
394.429	-12.12
394.639	2.22
394.848	30.89
395.058	57.51
395.267	59.56
395.477	65.71
395.686	28.84
395.895	164.01
396.105	180.39
396.314	96.43
396.524	-12.12
396.733	-3.93
396.942	100.52
397.152	90.28
397.361	147.62
397.57	90.28
397.78	32.94
397.989	116.9
398.198	178.34
398.407	-32.6
398.617	39.08
398.826	4.27
399.035	-16.21
399.244	102.57
399.453	43.18
399.663	61.61
399.872	86.19
400.081	-5.97
400.29	110.76
400.499	-22.36
400.708	135.34
400.917	-12.12
401.127	65.71
401.336	-44.88
401.545	155.82
401.754	100.52
401.963	77.99
402.172	0.17
402.381	-1.88
402.59	30.89
402.799	88.23
403.008	67.75
403.217	61.61
403.426	108.71
403.635	-89.94
403.844	110.76
404.053	47.27
404.262	6.31
404.471	194.73
404.68	145.58
404.888	49.32
405.097	73.9
405.306	45.23
405.515	139.43
405.724	67.75
405.933	34.99
406.142	100.52
406.35	127.14
406.559	20.65
406.768	112.81
406.977	176.3
407.185	100.52
407.394	53.42
407.603	-3.93
407.812	147.62
408.02	176.3
408.229	104.62
408.438	59.56
408.646	-132.95
408.855	-14.17
409.064	92.33
409.272	4.27
409.481	149.67
409.69	-16.21
409.898	-48.98
410.107	100.52
410.315	110.76
410.524	-16.21
410.733	110.76
410.941	41.13
411.15	123.05
411.358	82.09
411.567	106.67
411.775	84.14
411.984	108.71
412.192	75.95
412.401	22.7
412.609	190.63
412.818	127.14
413.026	20.65
413.234	39.08
413.443	-38.74
413.651	-1.88
413.86	57.51
414.068	188.58
414.276	121
414.485	67.75
414.693	188.58
414.901	219.3
415.11	84.14
415.318	26.79
415.526	18.6
415.734	143.53
415.943	77.99
416.151	96.43
416.359	16.55
416.567	112.81
416.776	104.62
416.984	94.38
417.192	180.39
417.4	20.65
417.608	32.94
417.817	28.84
418.025	139.43
418.233	164.01
418.441	-30.55
418.649	-26.45
418.857	-12.12
419.065	104.62
419.273	53.42
419.481	77.99
419.689	82.09
419.897	-30.55
420.105	0.17
420.313	49.32
420.521	137.38
420.729	143.53
420.937	30.89
421.145	-16.21
421.353	55.47
421.561	164.01
421.769	106.67
421.977	12.46
422.185	133.29
422.393	49.32
422.601	88.23
422.809	102.57
423.017	30.89
423.224	129.19
423.432	110.76
423.64	125.1
423.848	178.34
424.056	77.99
424.263	80.04
424.471	71.85
424.679	137.38
424.887	2.22
425.094	170.15
425.302	145.58
425.51	59.56
425.718	157.86
425.925	90.28
426.133	32.94
426.341	209.06
426.548	8.36
426.756	10.41
426.964	141.48
427.171	14.51
427.379	77.99
427.586	-14.17
427.794	88.23
428.001	161.96
428.209	127.14
428.417	166.06
428.624	245.93
428.832	88.23
429.039	129.19
429.247	100.52
429.454	98.47
429.662	155.82
429.869	118.95
430.076	104.62
430.284	180.39
430.491	172.2
430.699	151.72
430.906	184.49
431.114	211.11
431.321	198.82
431.528	194.73
431.736	170.15
431.943	188.58
432.15	268.45
432.358	157.86
432.565	290.98
432.772	20.65
432.979	272.55
433.187	143.53
433.394	311.46
433.601	135.34
433.808	239.78
434.016	311.46
434.223	276.65
434.43	284.84
434.637	303.27
434.844	252.07
435.052	266.41
435.259	272.55
435.466	295.08
435.673	229.54
435.88	352.42
436.087	385.19
436.294	391.33
436.501	333.99
436.708	286.89
436.915	372.9
437.122	450.72
437.329	321.7
437.537	362.66
437.743	452.77
437.95	395.43
438.157	344.23
438.364	415.91
438.571	428.2
438.778	602.27
438.985	506.02
439.192	602.27
439.399	487.59
439.606	450.72
439.813	497.83
440.02	690.34
440.227	702.62
440.433	610.47
440.64	575.65
440.847	571.55
441.054	678.05
441.261	823.45
441.467	782.49
441.674	671.9
441.881	780.45
442.088	809.12
442.294	817.31
442.501	895.13
442.708	905.37
442.914	901.28
443.121	975
443.328	962.72
443.534	1108.12
443.741	979.1
443.948	983.2
444.154	1147.03
444.361	1341.59
444.568	1196.18
444.774	1204.38
444.981	1140.89
445.187	1415.32
445.394	1386.65
445.6	1362.07
445.807	1450.13
446.013	1495.19
446.22	1482.9
446.426	1656.98
446.633	1767.57
446.839	1869.97
447.046	1734.8
447.252	1970.32
447.459	1990.8
447.665	1912.97
447.871	2066.57
448.078	2156.68
448.284	2185.35
448.491	2254.98
448.697	2408.58
448.903	2558.08
449.11	2558.08
449.316	2496.64
449.522	2773.12
449.728	2846.85
449.935	2936.96
450.141	3074.17
450.347	3184.76
450.553	3168.38
450.76	3250.3
450.966	3391.61
451.172	3485.81
451.378	3719.28
451.584	3747.95
451.791	4087.92
451.997	4147.31
452.203	4182.12
452.409	4431.98
452.615	4532.33
452.821	4431.98
453.027	4634.72
453.233	5079.13
453.44	4939.87
453.646	5212.25
453.852	5478.49
454.058	5681.24
454.264	5967.95
454.47	6301.77
454.676	5994.58
454.882	7018.56
455.088	6449.22
455.294	6953.02
455.5	7417.91
455.705	7657.53
455.911	7604.28
456.117	7786.55
456.323	8177.71
456.529	8210.48
456.735	8929.31
456.941	8986.66
457.147	9447.45
457.352	9869.33
457.558	10166.29
457.764	10717.19
457.97	10940.42
458.176	11282.43
458.381	12040.18
458.587	12097.52
458.793	12861.41
458.999	12638.19
459.204	14483.41
459.41	14763.98
459.616	14675.91
459.821	15513.53
460.027	16254.9
460.233	16906.15
460.438	16760.75
460.644	17854.36
460.85	17989.53
461.055	18947.98
461.261	19677.05
461.466	19478.4
461.672	19660.67
461.878	22222.68
462.083	21753.69
462.289	22224.73
462.494	23156.55
462.7	23234.38
462.905	23582.53
463.111	25376.55
463.316	26890
463.522	26797.84
463.727	28000
463.932	28925.68
464.138	30201.57
464.343	31309.52
464.549	31659.72
464.754	33613.48
464.959	34434.72
465.165	34991.76
465.37	34676.38
465.575	35026.58
465.781	37127.8
465.986	38680.16
466.191	37682.8
466.397	38033
466.602	37035.64
466.807	39077.46
467.012	40107.59
467.218	40511.04
467.423	40535.62
467.628	41975.34
467.833	43800.08
468.038	43013.66
468.244	42409.51
468.449	44631.55
468.654	43789.84
468.859	43722.26
469.064	43585.04
469.269	42509.86
469.474	42774.05
469.679	43849.23
469.885	42974.75
470.09	43486.74
470.295	43427.35
470.5	42589.73
470.705	43005.47
470.91	41537.07
471.115	41432.63
471.32	41823.79
471.525	41655.86
471.73	40216.13
471.935	40492.61
472.139	38594.14
472.344	38747.74
472.549	38712.92
472.754	37623.4
472.959	36996.73
473.164	35491.47
473.369	34915.99
473.574	36163.2
473.778	35399.31
473.983	34940.57
474.188	34250.4
474.393	32739
474.598	32612.03
474.802	31712.97
475.007	31512.27
475.212	31188.69
475.417	29796.07
475.621	29628.13
475.826	29218.54
476.031	28380.92
476.235	28057.34
476.44	27852.55
476.645	27197.2
476.849	27025.17
477.054	26341.14
477.259	26105.63
477.463	25847.58
477.668	25065.26
477.872	25087.79
478.077	24446.77
478.282	23650.11
478.486	23564.1
478.691	23428.93
478.895	22916.94
479.1	22802.25
479.304	22646.61
479.509	22026.07
479.713	22282.07
479.918	21643.1
480.122	21120.87
480.326	21536.61
480.531	21391.2
480.735	21147.5
480.94	20873.07
481.144	21477.22
481.348	20043.64
481.553	20473.71
481.757	19785.6
481.961	20268.92
482.166	20197.24
482.37	19785.6
482.574	19496.83
482.778	19423.11
482.983	19738.49
483.187	19396.48
483.391	19083.14
483.595	19013.51
483.8	18548.62
484.004	18612.11
484.208	18763.66
484.412	18540.43
484.616	18302.87
484.821	18161.56
485.025	17422.24
485.229	17803.16
485.433	17121.19
485.637	17276.84
485.841	16770.99
486.045	16799.66
486.249	16285.62
486.453	16050.1
486.657	16000.95
486.861	15693.76
487.065	15181.76
487.269	15263.68
487.473	14755.79
487.677	15134.66
487.881	14968.77
488.085	14172.11
488.289	14032.85
488.493	13756.38
488.697	13780.95
488.901	13303.78
489.105	13055.97
489.309	13043.68
489.512	12439.53
489.716	12380.14
489.92	11984.88
490.124	11911.16
490.328	12046.32
490.531	11528.19
490.735	11546.62
490.939	11200.51
491.143	11005.95
491.346	10846.21
491.55	10680.33
491.754	10563.59
491.958	10612.74
492.161	10291.21
492.365	10172.43
492.569	9779.22
492.772	9910.29
492.976	9637.91
493.18	9402.4
493.383	9377.82
493.587	9191.45
493.79	9441.31
493.994	8890.4
494.197	8900.64
494.401	8996.9
494.605	8785.96
494.808	8792.1
495.012	8667.17
495.215	8777.76
495.419	8773.67
495.622	8343.6
495.825	8515.62
496.029	8431.66
496.232	8357.93
496.436	8316.97
496.639	8532.01
496.843	8161.33
497.046	8384.55
497.249	8421.42
497.453	8179.76
497.656	8276.01
497.859	8228.91
498.063	8394.79
498.266	8374.31
498.469	8243.24
498.673	8304.68
498.876	8525.86
499.079	8319.02
499.282	8486.95
499.485	8796.2
499.689	8654.89
499.892	8556.58
500.095	8652.84
500.298	8642.6
500.501	8509.48
500.705	8759.33
500.908	9011.23
501.111	8937.51
501.314	9076.77
501.517	9095.2
501.72	9177.12
501.923	9244.7
502.126	9515.03
502.329	9703.45
502.532	9461.79
502.735	9668.63
502.938	9803.8
503.141	9971.73
503.344	10160.14
503.547	10043.41
503.75	10242.06
503.953	10272.78
504.156	10641.42
504.359	10833.93
504.562	10620.94
504.765	11104.26
504.968	11167.74
505.17	11423.74
505.373	11380.73
505.576	11775.99
505.779	11724.79
505.982	12017.65
506.185	12343.28
506.387	12206.06
506.59	12490.73
506.793	12820.46
506.996	12877.8
507.198	13406.17
507.401	13602.78
507.604	13838.3
507.807	14221.27
508.009	14563.28
508.212	14702.54
508.415	14845.9
508.617	15187.91
508.82	15540.16
509.022	15464.38
509.225	16377.78
509.428	16629.68
509.63	16711.6
509.833	17291.17
510.035	17698.72
510.238	17719.2
510.44	17987.48
510.643	18663.31
510.845	19027.85
511.048	19429.25
511.25	19705.73
511.453	20324.21
511.655	21147.5
511.858	21002.09
512.06	21739.36
512.262	21923.68
512.465	22880.08
512.667	23068.49
512.87	23514.95
513.072	24270.65
513.274	24676.15
513.477	25399.08
513.679	25736.99
513.881	26412.82
514.084	26959.63
514.286	27383.56
514.488	27936.51
514.69	29175.53
514.893	29316.84
515.095	29949.67
515.297	30562.01
515.499	31237.84
515.701	31796.93
515.904	32427.71
516.106	33130.16
516.308	33740.46
516.51	34344.61
516.712	34750.1
516.914	35784.33
517.116	36368
517.318	36939.38
517.52	37848.68
517.722	38477.41
517.925	38415.97
518.127	39847.5
518.329	40308.29
518.531	40293.96
518.733	41842.22
518.935	42315.3
519.136	42804.77
519.338	43587.09
519.54	44258.82
519.742	45182.46
519.944	45262.33
520.146	46687.71
520.348	46890.46
520.55	47150.56
520.752	47601.11
520.954	48713.16
521.155	48815.55
521.357	49735.09
521.559	50050.48
521.761	50840.99
521.963	50957.73
522.164	51410.33
522.366	51883.41
522.568	52596.1
522.77	53155.2
522.971	53222.78
523.173	53138.82
523.375	53718.39
523.576	53577.08
523.778	53736.82
523.98	54623.59
524.181	54852.97
524.383	54736.23
524.584	54961.51
524.786	55108.96
524.988	54816.1
525.189	55588.19
525.391	55870.81
525.592	55813.46
525.794	55264.61
525.995	55479.64
526.197	55141.73
526.398	55483.74
526.6	55221.6
526.801	54594.92
527.003	55139.68
527.204	54867.3
527.406	55004.52
527.607	54812.01
527.808	54578.54
528.01	53073.28
528.211	53364.09
528.412	53794.17
528.614	53179.78
528.815	52718.98
529.016	52913.54
529.218	51588.5
529.419	51594.65
529.62	51375.51
529.822	50525.61
530.023	50390.44
530.224	50152.88
530.425	49399.22
530.626	48328.14
530.828	48213.45
531.029	48553.41
531.23	47238.62
531.431	46910.94
531.632	46450.15
531.833	45944.3
532.035	45276.66
532.236	44758.53
532.437	44484.1
532.638	43613.71
532.839	43771.41
533.04	42855.96
533.241	42143.27
533.442	42321.44
533.643	41279.03
533.844	40431.17
534.045	40177.22
534.246	39335.51
534.447	39175.76
534.648	38458.98
534.849	38086.25
535.05	37312.11
535.251	36976.25
535.451	36226.69
535.652	36290.18
535.853	35497.61
536.054	34987.67
536.255	34653.85
536.456	33638.06
536.657	34268.83
536.857	33078.96
537.058	32480.96
537.259	32618.17
537.46	32087.75
537.66	31598.28
537.861	31153.87
538.062	30277.34
538.263	30037.73
538.463	29953.76
538.664	29390.57
538.865	29001.46
539.065	29161.2
539.266	28147.45
539.466	28108.54
539.667	27447.05
539.868	27666.18
540.068	26922.77
540.269	26803.99
540.469	26621.72
540.67	26046.24
540.87	25872.16
541.071	25409.32
541.271	25341.74
541.472	24944.43
541.672	24547.12
541.873	24211.26
542.073	23811.9
542.274	23971.64
542.474	23316.29
542.675	23240.52
542.875	23131.98
543.075	22546.26
543.276	21995.36
543.476	22327.13
543.676	21817.18
543.877	22181.72
544.077	21387.11
544.277	21137.26
544.478	20842.35
544.678	21092.2
544.878	20434.8
545.078	20322.16
545.279	20135.8
545.479	19621.76
545.679	19419.01
545.879	19226.5
546.079	19099.53
546.28	18929.55
546.48	18507.66
546.68	18567.06
546.88	18204.56
547.08	18010.01
547.28	17807.26
547.48	17614.75
547.68	17733.53
547.88	17199.01
548.081	17233.83
548.281	16936.87
548.481	16256.95
548.681	16594.86
548.881	15945.66
549.081	15787.96
549.28	15470.53
549.48	15519.68
549.68	15542.21
549.88	15226.82
550.08	14809.03
550.28	14743.5
550.48	14747.59
550.68	14364.62
550.88	14088.15
551.08	13879.25
551.279	13815.77
551.479	13365.21
551.679	13223.9
551.879	13072.36
552.079	12937.19
552.278	12740.58
552.478	12709.86
552.678	12410.86
552.878	12269.55
553.077	11712.5
553.277	11657.21
553.477	11679.74
553.676	11612.15
553.876	11188.22
554.076	10835.97
554.275	10835.97
554.475	10498.06
554.674	10618.89
554.874	10485.77
555.074	10225.68
555.273	10078.22
555.473	9973.78
555.672	9756.69
555.872	9599
556.071	9431.07
556.271	9441.31
556.47	9267.23
556.67	8980.51
556.869	8892.45
557.068	8745
557.268	8714.28
557.467	8345.64
557.667	8288.3
557.866	8165.42
558.065	7958.58
558.265	7804.98
558.464	7667.77
558.663	7538.74
558.863	7450.68
559.062	7454.78
559.261	7217.21
559.461	7333.95
559.66	7010.37
559.859	6903.87
560.058	6746.18
560.258	6795.33
560.457	6656.07
560.656	6559.81
560.855	6318.15
561.054	6471.75
561.253	6162.51
561.453	6246.48
561.652	6074.45
561.851	6043.73
562.05	5812.31
562.249	5597.27
562.448	5748.82
562.647	5470.3
562.846	5523.54
563.045	5505.11
563.244	5324.89
563.443	5380.18
563.642	5095.52
563.841	5093.47
564.04	5126.24
564.239	4954.21
564.438	4726.88
564.637	4743.27
564.836	4796.51
565.035	4665.44
565.234	4630.63
565.432	4485.22
565.631	4444.26
565.83	4388.97
566.029	4391.02
566.228	4120.68
566.427	4362.34
566.625	4116.59
566.824	4016.24
567.023	3999.85
567.222	3977.33
567.42	3776.63
567.619	3932.27
567.818	3868.78
568.016	3928.17
568.215	3731.57
568.414	3829.87
568.612	3729.52
568.811	3645.56
569.01	3459.19
569.208	3336.31
569.407	3432.57
569.605	3367.03
569.804	3307.64
570.002	3326.07
570.201	3068.03
570.4	3254.39
570.598	3043.45
570.797	2977.92
570.995	3068.03
571.193	2969.73
571.392	2959.49
571.59	2775.17
571.789	2869.37
571.987	2881.66
572.186	2855.04
572.384	2621.57
572.582	2742.4
572.781	2738.3
572.979	2562.18
573.177	2523.27
573.376	2502.79
573.574	2568.32
573.772	2431.11
573.971	2265.22
574.169	2291.85
574.367	2308.23
574.565	2277.51
574.763	2234.5
574.962	2277.51
575.16	2293.9
575.358	2037.9
575.556	2099.34
575.754	2031.76
575.952	1978.51
576.151	2119.82
576.349	1992.84
576.547	1857.68
576.745	1790.1
576.943	1986.7
577.141	1872.01
577.339	1812.62
577.537	1747.09
577.735	1753.23
577.933	1796.24
578.131	1765.52
578.329	1761.42
578.527	1714.32
578.725	1740.94
578.923	1507.48
579.121	1677.46
579.319	1413.27
579.516	1532.05
579.714	1740.94
579.912	1534.1
580.11	1464.47
580.308	1448.08
580.506	1456.28
580.704	1198.23
580.901	1355.93
581.099	1437.84
581.297	1294.49
581.495	1364.12
581.692	1386.65
581.89	1312.92
582.088	1417.37
582.285	1263.77
582.483	1292.44
582.681	1247.38
582.878	1187.99
583.076	1192.09
583.274	1165.46
583.471	1284.25
583.669	1163.42
583.866	979.1
584.064	1187.99
584.262	985.24
584.459	1024.16
584.657	1007.77
584.854	1063.07
585.052	1044.63
585.249	1140.89
585.447	1030.3
585.644	872.61
585.841	1052.83
586.039	962.72
586.236	999.58
586.434	972.96
586.631	837.79
586.828	942.24
587.026	802.97
587.223	784.54
587.42	878.75
587.618	850.08
587.815	952.48
588.012	897.18
588.21	702.62
588.407	798.88
588.604	774.3
588.801	778.4
588.999	731.3
589.196	903.32
589.393	780.45
589.59	805.02
589.787	874.65
589.984	721.06
590.182	739.49
590.379	741.54
590.576	745.63
590.773	798.88
590.97	747.68
591.167	702.62
591.364	903.32
591.561	716.96
591.758	874.65
591.955	751.78
592.152	702.62
592.349	635.04
592.546	663.71
592.743	563.36
592.94	712.86
593.137	737.44
593.334	794.78
593.531	735.39
593.727	731.3
593.924	688.29
594.121	741.54
594.318	684.19
594.515	827.55
594.712	850.08
594.908	923.8
595.105	684.19
595.302	827.55
595.499	788.64
595.696	862.37
595.892	706.72
596.089	901.28
596.286	721.06
596.482	1040.54
596.679	868.51
596.876	839.84
597.072	958.62
597.269	936.09
597.466	954.52
597.662	856.22
597.859	919.71
598.055	993.44
598.252	1073.31
598.448	1124.51
598.645	1200.28
598.841	1233.05
599.038	1325.21
599.234	1314.97
599.431	1427.6
599.627	1325.21
599.824	1386.65
600.02	1409.17
600.217	1454.23
600.413	1650.83
600.609	1544.34
600.806	1921.17
601.002	1847.44
601.198	1599.63
601.395	1962.12
601.591	1863.82
601.787	2130.06
601.984	2191.5
602.18	2224.26
602.376	2293.9
602.572	2500.74
602.769	2599.04
602.965	2535.56
603.161	2707.59
603.357	2705.54
603.553	2852.99
603.75	2842.75
603.946	2969.73
604.142	2994.3
604.338	3405.94
604.534	3334.26
604.73	3385.46
604.926	3508.34
605.122	3639.41
605.318	3745.91
605.514	3903.6
605.71	3823.73
605.906	4001.9
606.102	4139.12
606.298	4251.75
606.494	4466.79
606.69	4601.96
606.886	4720.74
607.082	4706.4
607.278	4968.54
607.474	5048.41
607.67	5255.26
607.866	5140.57
608.062	5603.41
608.257	5793.87
608.453	5777.49
608.649	6111.31
608.845	6064.21
609.041	6256.72
609.236	6447.18
609.432	6531.14
609.628	6828.1
609.824	6969.41
610.019	7166.01
610.215	7256.12
610.411	7721.01
610.606	7899.19
610.802	7917.62
610.998	8017.97
611.193	8550.44
611.389	8437.8
611.584	8869.92
611.78	8843.3
611.976	8996.9
612.171	9855
612.367	9967.63
612.562	10076.18
612.758	9981.97
612.953	10301.45
613.149	11020.29
613.344	10903.56
613.539	11491.32
613.735	11905.01
613.93	11874.29
614.126	12261.36
614.321	12658.67
614.517	13074.4
614.712	13213.67
614.907	13584.35
615.103	14108.63
615.298	14077.91
615.493	14794.7
615.688	14903.24
615.884	15697.85
616.079	15585.21
616.274	16185.27
616.47	16449.46
616.665	17223.59
616.86	17323.94
617.055	17926.04
617.25	18014.1
617.445	18796.43
617.641	19029.9
617.836	19576.7
618.031	19900.28
618.226	20871.02
618.421	21079.91
618.616	21538.66
618.811	21915.48
619.006	22749.01
619.201	22757.2
619.396	23572.29
619.591	23506.76
619.786	24811.31
619.981	24723.25
620.176	25601.83
620.371	25911.07
620.566	26625.81
620.761	26908.43
620.956	27901.7
621.151	27842.31
621.346	29009.65
621.541	29026.03
621.735	30054.11
621.93	29886.18
622.125	31260.37
622.32	31176.4
622.515	31835.84
622.709	32362.17
622.904	32947.89
623.099	33502.89
623.294	34535.07
623.488	34590.36
623.683	35661.45
623.878	35718.79
624.072	36439.68
624.267	36875.9
624.462	37676.65
624.656	37578.35
624.851	38977.11
625.046	38876.76
625.24	39360.08
625.435	39497.3
625.629	40433.22
625.824	40943.16
626.018	41547.31
626.213	41170.49
626.407	42661.41
626.602	42450.47
626.796	43331.09
626.991	43517.46
627.185	43857.42
627.38	43834.89
627.574	44125.71
627.768	44307.97
627.963	44369.41
628.157	44770.82
628.352	45237.75
628.546	44572.16
628.74	45229.56
628.935	44447.24
629.129	45311.48
629.323	44066.31
629.517	44279.3
629.712	43838.99
629.906	43697.68
630.1	42860.06
630.294	42921.5
630.489	42255.91
630.683	41999.91
630.877	40869.44
631.071	40433.22
631.265	39927.37
631.459	39071.32
631.653	38037.09
631.848	37189.24
632.042	36198.02
632.236	35751.56
632.43	34332.32
632.624	33382.06
632.818	32655.03
633.012	31495.88
633.206	30435.03
633.4	29683.43
633.594	28014.34
633.788	27748.1
633.982	26828.56
634.176	25773.86
634.369	24600.37
634.563	23889.73
634.757	22777.68
634.951	21993.31
635.145	21327.72
635.339	20619.12
635.533	19525.5
635.726	18759.56
635.92	17893.27
636.114	17438.62
636.308	16543.66
636.501	15941.56
636.695	15544.25
636.889	14645.2
637.083	14067.67
637.276	13340.64
637.47	12734.44
637.664	12220.4
637.857	11720.7
638.051	11366.4
638.244	10809.35
638.438	10442.76
638.632	10180.62
638.825	9717.78
639.019	9422.87
639.212	8906.79
639.406	8544.3
639.599	8136.75
639.793	7905.33
639.986	7503.93
640.18	7448.63
640.373	7000.13
640.567	6748.23
640.76	6400.07
640.954	6309.96
641.147	5933.14
641.34	5765.2
641.534	5587.03
641.727	5541.97
641.92	5150.81
642.114	5064.8
642.307	4710.5
642.5	4528.23
642.694	4374.63
642.887	4266.09
643.08	4200.55
643.273	3997.81
643.467	3919.98
643.66	3590.26
643.853	3444.85
644.046	3364.98
644.239	3192.95
644.432	3063.93
644.626	2928.77
644.819	2865.28
645.012	2705.54
645.205	2691.2
645.398	2642.05
645.591	2488.45
645.784	2377.86
645.977	2101.39
646.17	2166.92
646.363	1994.89
646.556	1990.8
646.749	1872.01
646.942	1927.31
647.135	1786
647.328	1636.5
647.521	1874.06
647.714	1620.11
647.907	1464.47
648.099	1425.56
648.292	1540.24
648.485	1290.39
648.678	1296.53
648.871	1222.81
649.064	1278.1
649.256	1198.23
649.449	1153.18
649.642	1003.68
649.835	1042.59
650.027	944.28
650.22	1128.6
650.413	940.19
650.605	950.43
650.798	882.85
650.991	845.98
651.183	805.02
651.376	870.56
651.568	862.37
651.761	766.11
651.954	751.78
652.146	708.77
652.339	815.26
652.531	762.02
652.724	610.47
652.916	567.46
653.109	557.22
653.301	639.14
653.494	686.24
653.686	563.36
653.879	620.71
654.071	549.03
654.263	495.78
654.456	471.2
654.648	506.02
654.84	520.35
655.033	471.2
655.225	563.36
655.417	290.98
655.61	604.32
655.802	471.2
655.994	434.34
656.186	397.48
656.379	458.92
656.571	270.5
656.763	379.04
656.955	323.75
657.148	364.71
657.34	428.2
657.532	317.61
657.724	305.32
657.916	303.27
658.108	440.48
658.3	354.47
658.492	417.96
658.684	274.6
658.876	405.67
659.068	202.92
659.26	141.48
659.452	284.84
659.644	213.16
659.836	340.13
660.028	250.02
660.22	174.25
660.412	241.83
660.604	188.58
660.796	225.45
660.988	313.51
661.18	188.58
661.372	264.36
661.563	161.96
661.755	204.97
661.947	135.34
662.139	168.1
662.331	137.38
662.522	182.44
662.714	161.96
662.906	135.34
663.097	200.87
663.289	80.04
663.481	73.9
663.673	153.77
663.864	129.19
664.056	180.39
664.247	71.85
664.439	258.21
664.631	192.68
664.822	168.1
665.014	88.23
665.205	182.44
665.397	102.57
665.588	121
665.78	114.86
665.971	241.83
666.163	106.67
666.354	141.48
666.546	102.57
666.737	34.99
666.929	131.24
667.12	194.73
667.311	184.49
667.503	194.73
667.694	90.28
667.885	147.62
668.077	166.06
668.268	24.75
668.459	157.86
668.651	149.67
668.842	108.71
669.033	106.67
669.224	26.79
669.416	264.36
669.607	121
669.798	37.03
669.989	243.88
670.18	63.66
670.371	164.01
670.563	71.85
670.754	164.01
670.945	168.1
671.136	274.6
671.327	137.38
671.518	209.06
671.709	245.93
671.9	151.72
672.091	217.26
672.282	233.64
672.473	139.43
672.664	77.99
672.855	161.96
673.046	188.58
673.237	186.54
673.428	125.1
673.619	178.34
673.809	73.9
674	237.74
674.191	51.37
674.382	112.81
674.573	170.15
674.764	182.44
674.954	295.08
675.145	59.56
675.336	10.41
675.527	174.25
675.717	129.19
675.908	112.81
676.099	94.38
676.289	143.53
676.48	45.23
676.671	147.62
676.861	41.13
677.052	90.28
677.243	149.67
677.433	67.75
677.624	161.96
677.814	196.78
678.005	106.67
678.195	270.5
678.386	86.19
678.576	65.71
678.767	53.42
678.957	108.71
679.148	231.59
679.338	243.88
679.529	114.86
679.719	131.24
679.909	233.64
680.1	184.49
680.29	114.86
680.481	37.03
680.671	178.34
680.861	176.3
681.052	190.63
681.242	202.92
681.432	137.38
681.622	161.96
681.813	102.57
682.003	114.86
682.193	55.47
682.383	153.77
682.573	135.34
682.764	157.86
682.954	145.58
683.144	258.21
683.334	129.19
683.524	168.1
683.714	254.12
683.904	184.49
684.094	204.97
684.284	92.33
684.474	245.93
684.664	161.96
684.854	239.78
685.044	258.21
685.234	221.35
685.424	229.54
685.614	137.38
685.804	348.33
685.994	227.5
686.184	153.77
686.374	264.36
686.564	139.43
686.753	217.26
686.943	61.61
687.133	225.45
687.323	170.15
687.513	256.17
687.702	274.6
687.892	88.23
688.082	286.89
688.272	331.94
688.461	174.25
688.651	348.33
688.841	135.34
689.03	180.39
689.22	213.16
689.41	266.41
689.599	274.6
689.789	82.09
689.979	227.5
690.168	231.59
690.358	254.12
690.547	217.26
690.737	219.3
690.926	237.74
691.116	184.49
691.305	172.2
691.495	254.12
691.684	104.62
691.874	200.87
692.063	215.21
692.252	227.5
692.442	207.02
692.631	164.01
692.82	116.9
693.01	159.91
693.199	166.06
693.388	247.97
693.578	227.5
693.767	182.44
693.956	270.5
694.146	168.1
694.335	133.29
694.524	131.24
694.713	215.21
694.902	188.58
695.092	186.54
695.281	188.58
695.47	174.25
695.659	143.53
695.848	188.58
696.037	133.29
696.226	241.83
696.415	159.91
696.604	223.4
696.793	256.17
696.982	90.28
697.171	370.85
697.36	102.57
697.549	137.38
697.738	47.27
697.927	184.49
698.116	39.08
698.305	127.14
698.494	174.25
698.683	82.09
698.872	385.19
699.061	198.82
699.25	170.15
699.438	151.72
699.627	155.82
699.816	344.23
700.005	92.33
700.193	172.2
700.382	270.5
700.571	219.3
700.76	209.06
700.948	252.07
701.137	223.4
701.326	198.82
701.514	143.53
701.703	204.97
701.892	161.96
702.08	374.95
702.269	260.26
702.457	86.19
702.646	161.96
702.834	108.71
703.023	239.78
703.212	190.63
703.4	207.02
703.589	143.53
703.777	131.24
703.965	96.43
704.154	112.81
704.342	145.58
704.531	151.72
704.719	168.1
704.907	260.26
705.096	168.1
705.284	73.9
705.472	176.3
705.661	270.5
705.849	278.69
706.037	200.87
706.226	211.11
706.414	247.97
706.602	110.76
706.79	133.29
706.979	166.06
707.167	159.91
707.355	20.65
707.543	202.92
707.731	164.01
707.919	213.16
708.107	190.63
708.296	149.67
708.484	164.01
708.672	192.68
708.86	196.78
709.048	141.48
709.236	151.72
709.424	252.07
709.612	188.58
709.8	116.9
709.988	157.86
710.176	219.3
710.364	221.35
710.551	200.87
710.739	315.56
710.927	157.86
711.115	170.15
711.303	250.02
711.491	258.21
711.679	147.62
711.866	278.69
712.054	118.95
712.242	147.62
712.43	204.97
712.617	145.58
712.805	172.2
712.993	178.34
713.181	112.81
713.368	245.93
713.556	153.77
713.744	190.63
713.931	440.48
714.119	80.04
714.306	125.1
714.494	143.53
714.682	186.54
714.869	106.67
715.057	110.76
715.244	90.28
715.432	145.58
715.619	190.63
715.807	194.73
715.994	211.11
716.182	190.63
716.369	250.02
716.556	166.06
716.744	77.99
716.931	104.62
717.119	231.59
717.306	223.4
717.493	241.83
717.681	86.19
717.868	127.14
718.055	217.26
718.242	190.63
718.43	237.74
718.617	192.68
718.804	147.62
718.991	290.98
719.179	207.02
719.366	198.82
719.553	170.15
719.74	153.77
719.927	176.3
720.114	194.73
720.301	129.19
720.488	90.28
720.676	141.48
720.863	315.56
721.05	329.89
721.237	262.31
721.424	303.27
721.611	247.97
721.798	69.8
721.985	59.56
722.172	231.59
722.358	196.78
722.545	290.98
722.732	237.74
722.919	315.56
723.106	233.64
723.293	202.92
723.48	172.2
723.667	164.01
723.853	311.46
724.04	243.88
724.227	342.18
724.414	233.64
724.6	262.31
724.787	250.02
724.974	358.57
725.161	307.37
725.347	98.47
725.534	243.88
725.72	188.58
725.907	256.17
726.094	297.13
726.28	235.69
726.467	223.4
726.653	166.06
726.84	286.89
727.027	331.94
727.213	204.97
727.4	323.75
727.586	309.41
727.773	286.89
727.959	252.07
728.145	237.74
728.332	237.74
728.518	159.91
728.705	303.27
728.891	288.93
729.077	262.31
729.264	217.26
729.45	241.83
729.636	247.97
729.823	268.45
730.009	293.03
730.195	272.55
730.382	301.22
730.568	164.01
730.754	149.67
730.94	137.38
731.126	270.5
731.313	262.31
731.499	172.2
731.685	260.26
731.871	213.16
732.057	346.28
732.243	299.17
732.429	182.44
732.615	381.09
732.801	276.65
732.987	202.92
733.173	254.12
733.359	194.73
733.545	264.36
733.731	270.5
733.917	315.56
734.103	270.5
734.289	311.46
734.475	184.49
734.661	348.33
734.847	303.27
735.033	286.89
735.219	299.17
735.404	227.5
735.59	221.35
735.776	200.87
735.962	274.6
736.148	307.37
736.333	268.45
736.519	262.31
736.705	270.5
736.89	239.78
737.076	207.02
737.262	82.09
737.447	227.5
737.633	245.93
737.819	282.79
738.004	303.27
738.19	245.93
738.375	207.02
738.561	252.07
738.747	227.5
738.932	164.01
739.118	420
739.303	290.98
739.489	262.31
739.674	231.59
739.859	133.29
740.045	241.83
740.23	284.84
740.416	184.49
740.601	252.07
740.786	188.58
740.972	200.87
741.157	266.41
741.342	182.44
741.528	149.67
741.713	297.13
741.898	198.82
742.084	182.44
742.269	211.11
742.454	260.26
742.639	278.69
742.824	276.65
743.01	329.89
743.195	434.34
743.38	256.17
743.565	178.34
743.75	202.92
743.935	282.79
744.12	252.07
744.305	104.62
744.49	221.35
744.675	217.26
744.86	196.78
745.045	268.45
745.23	278.69
745.415	194.73
745.6	264.36
745.785	106.67
745.97	276.65
746.155	327.85
746.34	348.33
746.525	172.2
746.71	293.03
746.895	184.49
747.079	127.14
747.264	241.83
747.449	264.36
747.634	266.41
747.819	196.78
748.003	200.87
748.188	37.03
748.373	161.96
748.557	241.83
748.742	141.48
748.927	186.54
749.111	164.01
749.296	260.26
749.481	141.48
749.665	180.39
749.85	180.39
750.034	243.88
750.219	186.54
750.404	149.67
750.588	233.64
750.773	147.62
750.957	204.97
751.141	166.06
751.326	155.82
751.51	131.24
751.695	157.86
751.879	204.97
752.064	270.5
752.248	245.93
752.432	225.45
752.617	231.59
752.801	204.97
752.985	170.15
753.17	209.06
753.354	192.68
753.538	215.21
753.722	188.58
753.907	186.54
754.091	59.56
754.275	176.3
754.459	32.94
754.643	135.34
754.828	192.68
755.012	198.82
755.196	127.14
755.38	231.59
755.564	96.43
755.748	139.43
755.932	184.49
756.116	178.34
756.3	164.01
756.484	45.23
756.668	164.01
756.852	63.66
757.036	121
757.22	176.3
757.404	135.34
757.588	114.86
757.772	198.82
757.956	129.19
758.14	241.83
758.323	94.38
758.507	102.57
758.691	77.99
758.875	213.16
759.059	204.97
759.242	86.19
759.426	121
759.61	170.15
759.794	67.75
759.977	110.76
760.161	297.13
760.345	231.59
760.528	170.15
760.712	118.95
760.895	125.1
761.079	118.95
761.263	59.56
761.446	41.13
761.63	200.87
761.813	211.11
761.997	69.8
762.18	133.29
762.364	121
762.547	88.23
762.731	75.95
762.914	104.62
763.098	65.71
763.281	28.84
763.464	88.23
763.648	180.39
763.831	94.38
764.015	59.56
764.198	143.53
764.381	125.1
764.564	166.06
764.748	118.95
764.931	137.38
765.114	151.72
765.297	127.14
765.481	22.7
765.664	108.71
765.847	26.79
766.03	157.86
766.213	106.67
766.397	94.38
766.58	20.65
766.763	125.1
766.946	65.71
767.129	45.23
767.312	86.19
767.495	45.23
767.678	53.42
767.861	75.95
768.044	92.33
768.227	98.47
768.41	18.6
768.593	59.56
768.776	94.38
768.959	94.38
769.142	176.3
769.324	2.22
769.507	51.37
769.69	41.13
769.873	121
770.056	204.97
770.239	51.37
770.421	6.31
770.604	159.91
770.787	100.52
770.97	110.76
771.152	69.8
771.335	161.96
771.518	51.37
771.7	166.06
771.883	118.95
772.066	4.27
772.248	77.99
772.431	118.95
772.613	121
772.796	49.32
772.978	75.95
773.161	260.26
773.343	18.6
773.526	39.08
773.708	-51.03
773.891	-46.93
774.073	65.71
774.256	37.03
774.438	213.16
774.621	61.61
774.803	20.65
774.985	106.67
775.168	53.42
775.35	-1.88
775.532	82.09
775.715	51.37
775.897	96.43
776.079	18.6
776.261	106.67
776.444	86.19
776.626	61.61
776.808	37.03
776.99	-42.84
777.173	71.85
777.355	41.13
777.537	137.38
777.719	71.85
777.901	73.9
778.083	-77.65
778.265	-12.12
778.447	139.43
778.629	16.55
778.811	26.79
778.993	116.9
779.175	118.95
779.357	61.61
779.539	-18.26
779.721	94.38
779.903	16.55
780.085	-1.88
780.267	55.47
780.449	-30.55
780.631	67.75
780.812	77.99
780.994	18.6
781.176	39.08
781.358	-10.07
781.54	16.55
781.721	92.33
781.903	-26.45
782.085	59.56
782.267	118.95
782.448	-63.32
782.63	-3.93
782.812	26.79
782.993	125.1
783.175	63.66
783.357	-40.79
783.538	92.33
783.72	-34.64
783.901	51.37
784.083	26.79
784.264	125.1
784.446	-73.56
784.627	-63.32
784.809	63.66
784.99	-3.93
785.172	131.24
785.353	80.04
785.535	49.32
785.716	8.36
785.897	26.79
786.079	-1.88
786.26	12.46
786.441	37.03
786.623	-67.41
786.804	-44.88
786.985	0.17
787.167	45.23
787.348	-36.69
787.529	45.23
787.71	137.38
787.891	43.18
788.073	-116.56
788.254	-34.64
788.435	141.48
788.616	-12.12
788.797	-34.64
788.978	-55.12
789.159	-61.27
789.34	157.86
789.522	2.22
789.703	-8.02
789.884	-26.45
790.065	41.13
790.246	164.01
790.427	-5.97
790.607	59.56
790.788	65.71
790.969	28.84
791.15	32.94
791.331	-24.4
791.512	43.18
791.693	-30.55
791.874	30.89
792.054	123.05
792.235	104.62
792.416	41.13
792.597	-20.31
792.778	102.57
792.958	14.51
793.139	0.17
793.32	53.42
793.5	-3.93
793.681	53.42
793.862	51.37
794.042	32.94
794.223	-77.65
794.404	-30.55
794.584	-106.32
794.765	-51.03
794.945	41.13
795.126	-8.02
795.306	135.34
795.487	-26.45
795.667	-28.5
795.848	20.65
796.028	51.37
796.209	67.75
796.389	102.57
796.57	-14.17
796.75	-59.22
796.93	20.65
797.111	-28.5
797.291	-22.36
797.471	8.36
797.652	-14.17
797.832	-75.6
798.012	39.08
798.192	-32.6
798.373	-69.46
798.553	-53.08
798.733	118.95
798.913	-96.08
799.093	14.51
799.274	-40.79
799.454	69.8
799.634	6.31
799.814	28.84
799.994	47.27
800.174	-32.6
800.354	39.08
800.534	-77.65
800.714	12.46
800.894	-106.32
801.074	-59.22
801.254	-48.98
801.434	37.03
801.614	-42.84
801.794	-28.5
801.974	1876.11
802.154	24.75
802.334	55.47
802.514	-42.84
802.693	4.27
802.873	4.27
803.053	121
803.233	49.32
803.413	-20.31
803.592	-51.03
803.772	-57.17
803.952	37.03
804.131	-73.56
804.311	12.46
804.491	112.81
804.67	-63.32
804.85	-28.5
805.03	75.95
805.209	2.22
805.389	-73.56
805.568	22.7
805.748	65.71
805.928	18.6
806.107	32.94
806.287	-53.08
806.466	73.9
806.646	-28.5
806.825	-28.5
807.004	-28.5
807.184	6.31
807.363	37.03
807.543	106.67
807.722	-67.41
807.901	135.34
808.081	94.38
808.26	-116.56
808.439	12.46
808.619	49.32
808.798	-79.7
808.977	20.65
809.156	51.37
809.336	12.46
809.515	125.1
809.694	-34.64
809.873	-30.55
810.052	43.18
810.231	73.9
810.411	-1.88
810.59	75.95
810.769	-3.93
810.948	90.28
811.127	-98.13
811.306	28.84
811.485	-36.69
811.664	75.95
811.843	-8.02
812.022	43.18
812.201	-77.65
812.38	-18.26
812.559	-63.32
812.737	43.18
812.916	-69.46
813.095	-46.93
813.274	16.55
813.453	-44.88
813.632	-51.03
813.811	57.51
813.989	-130.9
814.168	-1.88
814.347	-69.46
814.526	-12.12
814.704	114.86
814.883	92.33
815.062	-34.64
815.24	43.18
815.419	-36.69
815.598	16.55
815.776	-132.95
815.955	10.41
816.133	-112.47
816.312	-51.03
816.49	-55.12
816.669	-3.93
816.847	-16.21
817.026	4.27
817.204	-51.03
817.383	-18.26
817.561	-94.04
817.74	-16.21
817.918	57.51
818.097	-89.94
818.275	6.31
818.453	108.71
818.632	118.95
818.81	-71.51
818.988	-18.26
819.167	-20.31
819.345	-20.31
819.523	-89.94
819.701	-32.6
819.879	10.41
820.058	12.46
820.236	12.46
820.414	34.99
820.592	-44.88
820.77	37.03
820.948	-28.5
821.127	-83.8
821.305	14.51
821.483	-26.45
821.661	77.99
821.839	26.79
822.017	-149.33
822.195	24.75
822.373	2.22
822.551	-30.55
822.729	106.67
822.907	-32.6
823.085	32.94
823.262	51.37
823.44	-61.27
823.618	-51.03
823.796	-28.5
823.974	-26.45
824.152	-51.03
824.329	-55.12
824.507	4.27
824.685	73.9
824.863	-30.55
825.04	-51.03
825.218	47.27
825.396	-71.51
825.574	37.03
825.751	47.27
825.929	6.31
826.107	-145.24
826.284	-18.26
826.462	82.09
826.639	-34.64
826.817	-59.22
826.994	-22.36
827.172	-38.74
827.349	86.19
827.527	32.94
827.704	-22.36
827.882	24.75
828.059	49.32
828.237	-75.6
828.414	84.14
828.591	-165.71
828.769	-14.17
828.946	-114.52
829.124	69.8
829.301	24.75
829.478	-26.45
829.655	80.04
829.833	53.42
830.01	-102.23
830.187	26.79
830.364	-18.26
830.542	16.55
830.719	94.38
830.896	84.14
831.073	55.47
831.25	22.7
831.427	18.6
831.604	-16.21
831.782	-12.12
831.959	39.08
832.136	10.41
832.313	-40.79
832.49	-77.65
832.667	-5.97
832.844	-12.12
833.021	37.03
833.198	20.65
833.374	24.75
833.551	0.17
833.728	14.51
833.905	82.09
834.082	-61.27
834.259	49.32
834.436	82.09
834.612	-63.32
834.789	41.13
834.966	0.17
835.143	37.03
835.319	-102.23
835.496	30.89
835.673	-14.17
835.85	63.66
836.026	49.32
836.203	118.95
836.38	-67.41
836.556	-5.97
836.733	12.46
836.909	86.19
837.086	-10.07
837.262	-91.99
837.439	22.7
837.616	-104.28
837.792	-26.45
837.968	26.79
838.145	-79.7
838.321	-8.02
838.498	57.51
838.674	-1.88
838.851	28.84
839.027	-55.12
839.203	-16.21
839.38	14.51
839.556	-79.7
839.732	-1.88
839.909	-1.88
840.085	49.32
840.261	-48.98
840.437	20.65
840.614	-81.75
840.79	65.71
840.966	2.22
841.142	-26.45
841.318	-38.74
841.494	39.08
841.671	28.84
841.847	-3.93
842.023	-106.32
842.199	80.04
842.375	129.19
842.551	-69.46
842.727	-22.36
842.903	75.95
843.079	-73.56
843.255	77.99
843.431	12.46
843.607	-14.17
843.783	-192.34
843.959	34.99
844.134	-94.04
844.31	43.18
844.486	-85.84
844.662	59.56
844.838	-94.04
845.013	-36.69
845.189	53.42
845.365	-34.64
845.541	16.55
845.716	45.23
845.892	59.56
846.068	28.84
846.244	-61.27
846.419	75.95
846.595	-73.56
846.77	-65.36
846.946	20.65
847.122	-16.21
847.297	-48.98
847.473	67.75
847.648	-130.9
847.824	67.75
847.999	-112.47
848.175	-75.6
848.35	-10.07
848.526	43.18
848.701	-38.74
848.876	69.8
849.052	43.18
849.227	-83.8
849.403	30.89
849.578	-42.84
849.753	12.46
849.929	-5.97
850.104	-83.8
850.279	2.22
850.454	6.31
850.63	-26.45
850.805	14.51
850.98	-28.5
851.155	8.36
851.33	53.42
851.505	-139.09
851.681	108.71
851.856	-51.03
852.031	34.99
852.206	-24.4
852.381	-94.04
852.556	-44.88
852.731	61.61
852.906	28.84
853.081	112.81
853.256	16.55
853.431	-53.08
853.606	-34.64
853.781	-36.69
853.956	-186.19
854.131	4.27
854.305	-87.89
854.48	-28.5
854.655	-91.99
854.83	-67.41
855.005	-28.5
855.18	59.56
855.354	-5.97
855.529	2.22
855.704	-5.97
855.879	8.36
856.053	-55.12
856.228	28.84
856.403	-104.28
856.577	59.56
856.752	-79.7
856.926	-94.04
857.101	-48.98
857.276	-104.28
857.45	30.89
857.625	49.32
857.799	75.95
857.974	24.75
858.148	-139.09
858.323	-14.17
858.497	-53.08
858.672	-102.23
858.846	-48.98
859.02	125.1
859.195	-116.56
859.369	-57.17
859.543	-5.97
859.718	51.37
859.892	45.23
860.066	6.31
860.241	-38.74
860.415	-44.88
860.589	-63.32
860.763	22.7
860.938	-36.69
861.112	92.33
861.286	-44.88
861.46	12.46
861.634	-14.17
861.808	39.08
861.982	-96.08
862.157	-120.66
862.331	-38.74
862.505	-89.94
862.679	-165.71
862.853	16.55
863.027	-8.02
863.201	92.33
863.375	22.7
863.549	4.27
863.722	-16.21
863.896	63.66
864.07	-59.22
864.244	69.8
864.418	10.41
864.592	30.89
864.766	43.18
864.939	-44.88
865.113	-55.12
865.287	49.32
865.461	55.47
865.634	-63.32
865.808	12.46
865.982	-96.08
866.156	-94.04
866.329	-79.7
866.503	-5.97
866.676	-44.88
866.85	-32.6
867.024	-30.55
867.197	129.19
867.371	-5.97
867.544	-59.22
867.718	-96.08
867.891	69.8
868.065	-44.88
868.238	8.36
868.412	28.84
868.585	20.65
868.759	-106.32
868.932	-71.51
869.105	-102.23
869.279	2.22
869.452	-55.12
869.625	22.7
869.799	-81.75
869.972	-77.65
870.145	-108.37
870.319	14.51
870.492	-32.6
870.665	-79.7
870.838	4.27
871.011	-83.8
871.185	14.51
871.358	-79.7
871.531	24.75
871.704	-85.84
871.877	12.46
872.05	-36.69
872.223	-14.17
872.396	20.65
872.569	37.03
872.742	-137.04
872.915	47.27
873.088	-141.14
873.261	-110.42
873.434	47.27
873.607	-32.6
873.78	55.47
873.953	-98.13
874.126	-3.93
874.299	102.57
874.471	-81.75
874.644	-75.6
874.817	18.6
874.99	75.95
875.163	-48.98
875.335	47.27
875.508	41.13
875.681	96.43
875.853	-30.55
876.026	30.89
876.199	28.84
876.371	43.18
876.544	4.27
876.717	-42.84
876.889	0.17
877.062	6.31
877.234	-83.8
877.407	-83.8
877.579	-3.93
877.752	-18.26
877.924	41.13
878.097	14.51
878.269	12.46
878.442	-20.31
878.614	-18.26
878.786	14.51
878.959	-5.97
879.131	12.46
879.303	-79.7
879.476	41.13
879.648	57.51
879.82	-102.23
879.993	-5.97
880.165	45.23
880.337	-126.8
880.509	12.46
880.681	-106.32
880.854	-48.98
881.026	32.94
881.198	71.85
881.37	12.46
881.542	26.79
881.714	-46.93
881.886	-51.03
882.058	-94.04
882.23	16.55
882.402	-26.45
882.574	-51.03
882.746	41.13
882.918	69.8
883.09	96.43
883.262	-44.88
883.434	49.32
883.606	-124.76
883.778	-85.84
883.95	100.52
884.122	-46.93
884.293	-5.97
884.465	28.84
884.637	63.66
884.809	-67.41
884.98	12.46
885.152	6.31
885.324	-1.88
885.496	-75.6
885.667	22.7
885.839	-79.7
886.011	18.6
886.182	45.23
886.354	-14.17
886.525	-63.32
886.697	-28.5
886.869	-77.65
887.04	-108.37
887.212	14.51
887.383	116.9
887.555	-3.93
887.726	-32.6
887.897	-16.21
888.069	-46.93
888.24	-14.17
888.412	-20.31
888.583	-18.26
888.754	-10.07
888.926	-51.03
889.097	-46.93
889.268	4.27
889.44	4.27
889.611	-91.99
889.782	-110.42
889.953	-94.04
890.125	168.1
890.296	-38.74
890.467	-110.42
890.638	-10.07
890.809	0.17
890.98	-34.64
891.151	43.18
891.323	69.8
891.494	41.13
891.665	-71.51
891.836	-57.17
892.007	10.41
892.178	-3.93
892.349	0.17
892.52	-65.36
892.691	-8.02
892.862	-63.32
893.032	-77.65
893.203	0.17
893.374	-44.88
893.545	69.8
893.716	-98.13
893.887	73.9
894.057	-53.08
894.228	88.23
894.399	-51.03
894.57	47.27
894.74	-24.4
894.911	49.32
895.082	-30.55
895.253	0.17
895.423	22.7
895.594	67.75
895.764	30.89
895.935	-48.98
896.106	-24.4
896.276	-79.7
896.447	2.22
896.617	-34.64
896.788	-94.04
896.958	-106.32
897.129	-42.84
897.299	-1.88
897.47	63.66
897.64	0.17
897.81	-69.46
897.981	12.46
898.151	-69.46
898.322	12.46
898.492	2.22
898.662	-96.08
898.832	10.41
899.003	-110.42
899.173	20.65
899.343	-10.07
899.513	-98.13
