Data from USB4F104151__95__10-45-05-265.txt Node

Date: Wed Feb 26 10:45:05 EST 2025
User: louis
Spectrometer: USB4F10415
Trigger mode: 4
Integration Time (sec): 1.000000E-1
Scans to average: 1
Electric dark correction enabled: true
Nonlinearity correction enabled: false
Boxcar width: 0
XAxis mode: Wavelengths
Number of Pixels in Spectrum: 3648
>>>>>Begin Spectral Data<<<<<
178.204	-408.74
178.424	-408.74
178.644	-408.74
178.864	-445.6
179.084	-459.94
179.304	15.19
179.524	-68.78
179.744	47.96
179.964	23.38
180.184	43.86
180.404	-1.19
180.624	0.85
180.844	-31.91
181.064	-64.68
181.283	25.43
181.503	-56.49
181.723	66.39
181.943	-89.26
182.163	133.97
182.383	19.29
182.602	70.48
182.822	62.29
183.042	39.76
183.262	19.29
183.482	4.95
183.701	-33.96
183.921	131.92
184.141	-40.11
184.361	93.01
184.58	29.52
184.8	50
185.02	58.2
185.239	146.26
185.459	54.1
185.679	76.63
185.898	-62.63
186.118	47.96
186.338	2.9
186.557	99.16
186.777	-27.82
186.997	-13.48
187.216	-19.63
187.436	197.46
187.655	90.96
187.875	23.38
188.095	70.48
188.314	160.59
188.534	105.3
188.753	-25.77
188.973	70.48
189.192	217.94
189.412	13.14
189.631	-54.44
189.851	72.53
190.07	95.06
190.29	-25.77
190.509	-13.48
190.729	62.29
190.948	207.7
191.168	197.46
191.387	66.39
191.607	82.77
191.826	121.68
192.045	-52.39
192.265	15.19
192.484	25.43
192.704	-7.34
192.923	-76.97
193.142	160.59
193.362	76.63
193.581	129.88
193.8	50
194.02	70.48
194.239	58.2
194.458	117.59
194.678	2.9
194.897	17.24
195.116	4.95
195.335	60.24
195.555	99.16
195.774	-11.43
195.993	158.55
196.212	62.29
196.432	-38.06
196.651	50
196.87	76.63
197.089	265.04
197.308	88.92
197.528	66.39
197.747	23.38
197.966	78.68
198.185	133.97
198.404	-3.24
198.623	82.77
198.842	66.39
199.062	109.4
199.281	88.92
199.5	23.38
199.719	39.76
199.938	103.25
200.157	82.77
200.376	129.88
200.595	133.97
200.814	78.68
201.033	-13.48
201.252	125.78
201.471	68.44
201.69	68.44
201.909	101.2
202.128	125.78
202.347	97.11
202.566	35.67
202.785	-70.83
203.004	-48.3
203.223	265.04
203.442	-1.19
203.661	-46.25
203.879	82.77
204.098	109.4
204.317	4.95
204.536	121.68
204.755	54.1
204.974	119.64
205.193	37.72
205.411	117.59
205.63	125.78
205.849	43.86
206.068	11.09
206.287	2.9
206.505	93.01
206.724	47.96
206.943	-40.11
207.162	-83.11
207.381	113.49
207.599	37.72
207.818	64.34
208.037	-95.4
208.255	19.29
208.474	60.24
208.693	70.48
208.911	35.67
209.13	58.2
209.349	17.24
209.567	52.05
209.786	62.29
210.005	115.54
210.223	76.63
210.442	-44.2
210.661	-7.34
210.879	50
211.098	56.15
211.316	78.68
211.535	31.57
211.753	62.29
211.972	86.87
212.191	41.81
212.409	-1.19
212.628	82.77
212.846	101.2
213.065	21.33
213.283	105.3
213.502	-15.53
213.72	9.05
213.938	78.68
214.157	105.3
214.375	156.5
214.594	-38.06
214.812	107.35
215.031	62.29
215.249	78.68
215.467	35.67
215.686	-5.29
215.904	62.29
216.122	125.78
216.341	129.88
216.559	78.68
216.778	13.14
216.996	172.88
217.214	23.38
217.432	-25.77
217.651	0.85
217.869	76.63
218.087	-9.39
218.306	45.91
218.524	54.1
218.742	47.96
218.96	105.3
219.179	50
219.397	64.34
219.615	244.56
219.833	105.3
220.051	-23.72
220.27	37.72
220.488	115.54
220.706	56.15
220.924	-25.77
221.142	23.38
221.36	15.19
221.578	131.92
221.796	4.95
222.015	-11.43
222.233	109.4
222.451	166.74
222.669	-64.68
222.887	45.91
223.105	-1.19
223.323	4.95
223.541	-29.87
223.759	66.39
223.977	70.48
224.195	144.21
224.413	103.25
224.631	58.2
224.849	72.53
225.067	201.55
225.285	-27.82
225.503	-7.34
225.721	-93.35
225.939	37.72
226.157	105.3
226.375	213.84
226.592	17.24
226.81	-33.96
227.028	90.96
227.246	119.64
227.464	97.11
227.682	82.77
227.9	33.62
228.117	37.72
228.335	111.44
228.553	-1.19
228.771	58.2
228.989	76.63
229.206	64.34
229.424	33.62
229.642	76.63
229.86	-7.34
230.077	80.72
230.295	125.78
230.513	144.21
230.731	80.72
230.948	176.98
231.166	174.93
231.384	-62.63
231.601	33.62
231.819	230.23
232.037	-9.39
232.254	-31.91
232.472	66.39
232.689	82.77
232.907	115.54
233.125	-9.39
233.342	2.9
233.56	-27.82
233.777	-27.82
233.995	-3.24
234.213	117.59
234.43	97.11
234.648	-19.63
234.865	29.52
235.083	84.82
235.3	86.87
235.518	113.49
235.735	162.64
235.953	76.63
236.17	27.48
236.388	27.48
236.605	-7.34
236.822	86.87
237.04	70.48
237.257	119.64
237.475	-72.87
237.692	74.58
237.909	60.24
238.127	-42.15
238.344	60.24
238.562	-38.06
238.779	-44.2
238.996	9.05
239.214	9.05
239.431	119.64
239.648	43.86
239.865	70.48
240.083	109.4
240.3	29.52
240.517	-54.44
240.735	78.68
240.952	129.88
241.169	62.29
241.386	88.92
241.603	17.24
241.821	-33.96
242.038	121.68
242.255	156.5
242.472	-1.19
242.689	27.48
242.907	7
243.124	80.72
243.341	-1.19
243.558	13.14
243.775	-3.24
243.992	-40.11
244.209	144.21
244.426	109.4
244.643	99.16
244.86	39.76
245.078	86.87
245.295	52.05
245.512	13.14
245.729	-38.06
245.946	35.67
246.163	7
246.38	-19.63
246.597	27.48
246.814	23.38
247.031	4.95
247.248	21.33
247.464	74.58
247.681	-40.11
247.898	23.38
248.115	37.72
248.332	-9.39
248.549	70.48
248.766	201.55
248.983	97.11
249.2	101.2
249.417	125.78
249.633	-17.58
249.85	97.11
250.067	0.85
250.284	0.85
250.501	66.39
250.717	39.76
250.934	-42.15
251.151	-7.34
251.368	0.85
251.585	62.29
251.801	113.49
252.018	-54.44
252.235	60.24
252.451	11.09
252.668	86.87
252.885	154.45
253.102	-15.53
253.318	80.72
253.535	60.24
253.752	-36.01
253.968	-17.58
254.185	-33.96
254.401	17.24
254.618	52.05
254.835	-1.19
255.051	54.1
255.268	119.64
255.484	95.06
255.701	19.29
255.917	58.2
256.134	-42.15
256.351	37.72
256.567	-31.91
256.784	21.33
257	17.24
257.217	99.16
257.433	66.39
257.65	19.29
257.866	103.25
258.082	2.9
258.299	-29.87
258.515	60.24
258.732	27.48
258.948	27.48
259.165	78.68
259.381	60.24
259.597	-3.24
259.814	15.19
260.03	60.24
260.246	-9.39
260.463	86.87
260.679	168.79
260.895	70.48
261.112	56.15
261.328	72.53
261.544	-60.59
261.761	154.45
261.977	13.14
262.193	-17.58
262.409	86.87
262.626	-66.73
262.842	70.48
263.058	-7.34
263.274	37.72
263.49	45.91
263.707	39.76
263.923	109.4
264.139	-50.35
264.355	39.76
264.571	78.68
264.787	115.54
265.004	131.92
265.22	21.33
265.436	-93.35
265.652	-25.77
265.868	80.72
266.084	-5.29
266.3	19.29
266.516	-44.2
266.732	101.2
266.948	15.19
267.164	123.73
267.38	76.63
267.596	95.06
267.812	172.88
268.028	39.76
268.244	95.06
268.46	39.76
268.676	35.67
268.892	31.57
269.108	-17.58
269.324	-54.44
269.54	-66.73
269.756	123.73
269.972	-44.2
270.188	64.34
270.403	-42.15
270.619	-15.53
270.835	-13.48
271.051	27.48
271.267	13.14
271.483	-33.96
271.698	52.05
271.914	41.81
272.13	70.48
272.346	-21.67
272.562	103.25
272.777	107.35
272.993	33.62
273.209	23.38
273.425	111.44
273.64	-11.43
273.856	107.35
274.072	-5.29
274.287	25.43
274.503	129.88
274.719	158.55
274.934	-17.58
275.15	-89.26
275.366	45.91
275.581	-17.58
275.797	60.24
276.012	-19.63
276.228	-66.73
276.444	43.86
276.659	119.64
276.875	-13.48
277.09	2.9
277.306	-3.24
277.521	111.44
277.737	60.24
277.952	138.07
278.168	54.1
278.383	0.85
278.599	70.48
278.814	133.97
279.03	45.91
279.245	166.74
279.461	37.72
279.676	66.39
279.892	13.14
280.107	-58.54
280.322	4.95
280.538	54.1
280.753	-33.96
280.969	78.68
281.184	4.95
281.399	129.88
281.615	50
281.83	70.48
282.045	-36.01
282.26	50
282.476	43.86
282.691	107.35
282.906	11.09
283.122	54.1
283.337	-19.63
283.552	56.15
283.767	52.05
283.983	82.77
284.198	88.92
284.413	56.15
284.628	-25.77
284.843	95.06
285.058	107.35
285.274	-27.82
285.489	-21.67
285.704	150.36
285.919	-15.53
286.134	76.63
286.349	17.24
286.564	-70.83
286.779	115.54
286.995	13.14
287.21	-23.72
287.425	56.15
287.64	2.9
287.855	45.91
288.07	-134.31
288.285	93.01
288.5	68.44
288.715	88.92
288.93	54.1
289.145	13.14
289.36	-23.72
289.575	-76.97
289.79	125.78
290.004	33.62
290.219	78.68
290.434	-33.96
290.649	39.76
290.864	-5.29
291.079	-19.63
291.294	84.82
291.509	107.35
291.724	-15.53
291.938	2.9
292.153	62.29
292.368	56.15
292.583	56.15
292.798	101.2
293.012	64.34
293.227	29.52
293.442	-19.63
293.657	152.4
293.871	107.35
294.086	54.1
294.301	252.75
294.516	123.73
294.73	41.81
294.945	-52.39
295.16	37.72
295.374	115.54
295.589	80.72
295.804	-5.29
296.018	84.82
296.233	121.68
296.447	35.67
296.662	-33.96
296.877	174.93
297.091	41.81
297.306	72.53
297.52	-46.25
297.735	93.01
297.949	70.48
298.164	39.76
298.378	43.86
298.593	-52.39
298.807	13.14
299.022	-60.59
299.236	93.01
299.451	-3.24
299.665	33.62
299.88	66.39
300.094	33.62
300.309	25.43
300.523	17.24
300.737	43.86
300.952	121.68
301.166	64.34
301.381	-52.39
301.595	-19.63
301.809	54.1
302.024	-25.77
302.238	-17.58
302.452	142.16
302.667	-13.48
302.881	140.12
303.095	60.24
303.309	113.49
303.524	37.72
303.738	-7.34
303.952	-36.01
304.166	19.29
304.381	-44.2
304.595	97.11
304.809	0.85
305.023	68.44
305.237	93.01
305.452	-13.48
305.666	117.59
305.88	62.29
306.094	148.31
306.308	97.11
306.522	70.48
306.736	54.1
306.95	97.11
307.164	-13.48
307.379	11.09
307.593	113.49
307.807	70.48
308.021	72.53
308.235	115.54
308.449	-33.96
308.663	11.09
308.877	174.93
309.091	109.4
309.305	127.83
309.519	-148.65
309.733	181.07
309.947	-117.93
310.161	23.38
310.374	78.68
310.588	172.88
310.802	-23.72
311.016	-25.77
311.23	-1.19
311.444	-93.35
311.658	50
311.872	125.78
312.085	109.4
312.299	187.22
312.513	97.11
312.727	84.82
312.941	-5.29
313.154	93.01
313.368	115.54
313.582	11.09
313.796	90.96
314.009	62.29
314.223	88.92
314.437	58.2
314.651	99.16
314.864	107.35
315.078	50
315.292	9.05
315.505	-33.96
315.719	115.54
315.933	50
316.146	-33.96
316.36	19.29
316.573	95.06
316.787	93.01
317.001	121.68
317.214	-42.15
317.428	-1.19
317.641	31.57
317.855	84.82
318.068	105.3
318.282	21.33
318.495	113.49
318.709	93.01
318.922	-27.82
319.136	174.93
319.349	115.54
319.563	-21.67
319.776	131.92
319.99	-93.35
320.203	60.24
320.417	19.29
320.63	29.52
320.843	168.79
321.057	27.48
321.27	2.9
321.483	76.63
321.697	35.67
321.91	58.2
322.124	84.82
322.337	13.14
322.55	-1.19
322.763	13.14
322.977	72.53
323.19	23.38
323.403	78.68
323.617	50
323.83	103.25
324.043	-1.19
324.256	54.1
324.469	-42.15
324.683	80.72
324.896	117.59
325.109	60.24
325.322	-50.35
325.535	115.54
325.748	93.01
325.962	72.53
326.175	62.29
326.388	129.88
326.601	90.96
326.814	4.95
327.027	68.44
327.24	193.36
327.453	-42.15
327.666	117.59
327.879	97.11
328.092	50
328.305	119.64
328.518	78.68
328.731	105.3
328.944	33.62
329.157	21.33
329.37	-23.72
329.583	222.03
329.796	181.07
330.009	-70.83
330.222	52.05
330.435	113.49
330.648	115.54
330.861	68.44
331.073	45.91
331.286	123.73
331.499	-46.25
331.712	-19.63
331.925	62.29
332.138	52.05
332.35	131.92
332.563	-29.87
332.776	107.35
332.989	0.85
333.202	84.82
333.414	66.39
333.627	-7.34
333.84	-3.24
334.053	66.39
334.265	15.19
334.478	17.24
334.691	99.16
334.903	84.82
335.116	33.62
335.329	39.76
335.541	39.76
335.754	152.4
335.966	25.43
336.179	39.76
336.392	-25.77
336.604	-52.39
336.817	-56.49
337.029	37.72
337.242	-46.25
337.454	56.15
337.667	37.72
337.88	56.15
338.092	93.01
338.305	27.48
338.517	15.19
338.729	105.3
338.942	115.54
339.154	33.62
339.367	17.24
339.579	41.81
339.792	-9.39
340.004	41.81
340.217	-5.29
340.429	58.2
340.641	52.05
340.854	-79.02
341.066	-11.43
341.278	105.3
341.491	181.07
341.703	93.01
341.915	-17.58
342.128	103.25
342.34	123.73
342.552	-13.48
342.764	33.62
342.977	45.91
343.189	93.01
343.401	74.58
343.613	-124.07
343.826	4.95
344.038	0.85
344.25	4.95
344.462	54.1
344.674	101.2
344.886	37.72
345.099	70.48
345.311	129.88
345.523	-50.35
345.735	-130.22
345.947	70.48
346.159	35.67
346.371	15.19
346.583	64.34
346.795	103.25
347.007	43.86
347.219	17.24
347.431	-13.48
347.643	70.48
347.855	39.76
348.067	129.88
348.279	-48.3
348.491	-7.34
348.703	119.64
348.915	19.29
349.127	-60.59
349.339	66.39
349.551	-44.2
349.763	111.44
349.975	25.43
350.187	62.29
350.399	154.45
350.61	103.25
350.822	72.53
351.034	101.2
351.246	82.77
351.458	76.63
351.669	140.12
351.881	82.77
352.093	191.31
352.305	84.82
352.517	23.38
352.728	160.59
352.94	68.44
353.152	23.38
353.363	-25.77
353.575	121.68
353.787	164.69
353.999	25.43
354.21	148.31
354.422	-5.29
354.633	4.95
354.845	33.62
355.057	62.29
355.268	33.62
355.48	41.81
355.692	-83.11
355.903	-5.29
356.115	25.43
356.326	-93.35
356.538	152.4
356.749	123.73
356.961	66.39
357.172	-25.77
357.384	-1.19
357.595	252.75
357.807	54.1
358.018	9.05
358.23	-31.91
358.441	86.87
358.653	60.24
358.864	11.09
359.075	-52.39
359.287	29.52
359.498	68.44
359.709	125.78
359.921	86.87
360.132	99.16
360.344	117.59
360.555	-3.24
360.766	60.24
360.977	-9.39
361.189	84.82
361.4	-29.87
361.611	176.98
361.823	127.83
362.034	72.53
362.245	52.05
362.456	-5.29
362.667	52.05
362.879	47.96
363.09	50
363.301	21.33
363.512	50
363.723	-15.53
363.935	-38.06
364.146	164.69
364.357	9.05
364.568	52.05
364.779	-54.44
364.99	168.79
365.201	-15.53
365.412	140.12
365.623	29.52
365.834	43.86
366.045	99.16
366.256	88.92
366.467	17.24
366.678	35.67
366.889	-5.29
367.1	-81.07
367.311	80.72
367.522	-97.45
367.733	39.76
367.944	88.92
368.155	15.19
368.366	64.34
368.577	185.17
368.788	101.2
368.999	-56.49
369.209	31.57
369.42	189.27
369.631	246.61
369.842	101.2
370.053	90.96
370.264	86.87
370.474	-48.3
370.685	93.01
370.896	-31.91
371.107	82.77
371.317	86.87
371.528	72.53
371.739	162.64
371.95	58.2
372.16	62.29
372.371	-72.87
372.582	19.29
372.792	72.53
373.003	97.11
373.214	68.44
373.424	50
373.635	-87.21
373.846	181.07
374.056	50
374.267	41.81
374.477	76.63
374.688	-17.58
374.898	58.2
375.109	80.72
375.319	82.77
375.53	101.2
375.74	144.21
375.951	-38.06
376.161	29.52
376.372	150.36
376.582	9.05
376.793	131.92
377.003	21.33
377.214	-50.35
377.424	86.87
377.635	58.2
377.845	-29.87
378.055	78.68
378.266	-97.45
378.476	-52.39
378.686	107.35
378.897	58.2
379.107	189.27
379.317	-7.34
379.528	-50.35
379.738	95.06
379.948	23.38
380.158	142.16
380.369	43.86
380.579	31.57
380.789	74.58
380.999	84.82
381.21	129.88
381.42	207.7
381.63	41.81
381.84	105.3
382.05	129.88
382.261	138.07
382.471	107.35
382.681	-42.15
382.891	164.69
383.101	74.58
383.311	-7.34
383.521	43.86
383.731	125.78
383.941	136.02
384.151	25.43
384.361	52.05
384.571	17.24
384.781	64.34
384.991	205.65
385.201	287.57
385.411	107.35
385.621	84.82
385.831	74.58
386.041	52.05
386.251	13.14
386.461	156.5
386.671	50
386.881	82.77
387.091	99.16
387.301	11.09
387.511	-13.48
387.72	56.15
387.93	60.24
388.14	-93.35
388.35	47.96
388.56	109.4
388.769	179.03
388.979	101.2
389.189	19.29
389.399	9.05
389.609	129.88
389.818	29.52
390.028	47.96
390.238	101.2
390.447	60.24
390.657	78.68
390.867	39.76
391.076	-46.25
391.286	33.62
391.496	31.57
391.705	54.1
391.915	127.83
392.125	185.17
392.334	17.24
392.544	93.01
392.753	21.33
392.963	64.34
393.172	78.68
393.382	-11.43
393.591	160.59
393.801	47.96
394.01	148.31
394.22	78.68
394.429	50
394.639	54.1
394.848	27.48
395.058	103.25
395.267	-31.91
395.477	45.91
395.686	64.34
395.895	230.23
396.105	191.31
396.314	172.88
396.524	-46.25
396.733	50
396.942	80.72
397.152	242.51
397.361	136.02
397.57	62.29
397.78	140.12
397.989	144.21
398.198	211.79
398.407	113.49
398.617	70.48
398.826	58.2
399.035	-81.07
399.244	99.16
399.453	70.48
399.663	105.3
399.872	64.34
400.081	4.95
400.29	107.35
400.499	35.67
400.708	39.76
400.917	84.82
401.127	17.24
401.336	82.77
401.545	195.41
401.754	90.96
401.963	66.39
402.172	43.86
402.381	-9.39
402.59	9.05
402.799	58.2
403.008	52.05
403.217	62.29
403.426	43.86
403.635	-33.96
403.844	37.72
404.053	-13.48
404.262	45.91
404.471	203.6
404.68	138.07
404.888	15.19
405.097	33.62
405.306	35.67
405.515	119.64
405.724	-7.34
405.933	90.96
406.142	99.16
406.35	58.2
406.559	11.09
406.768	39.76
406.977	183.12
407.185	103.25
407.394	107.35
407.603	-27.82
407.812	60.24
408.02	113.49
408.229	35.67
408.438	82.77
408.646	-79.02
408.855	70.48
409.064	152.4
409.272	-1.19
409.481	43.86
409.69	-74.92
409.898	-19.63
410.107	37.72
410.315	111.44
410.524	27.48
410.733	45.91
410.941	31.57
411.15	123.73
411.358	142.16
411.567	64.34
411.775	52.05
411.984	17.24
412.192	123.73
412.401	0.85
412.609	174.93
412.818	60.24
413.026	121.68
413.234	9.05
413.443	150.36
413.651	4.95
413.86	86.87
414.068	113.49
414.276	170.83
414.485	-60.59
414.693	193.36
414.901	226.13
415.11	168.79
415.318	27.48
415.526	129.88
415.734	119.64
415.943	56.15
416.151	154.45
416.359	80.72
416.567	97.11
416.776	136.02
416.984	99.16
417.192	203.6
417.4	-48.3
417.608	29.52
417.817	-1.19
418.025	113.49
418.233	136.02
418.441	-76.97
418.649	-19.63
418.857	54.1
419.065	197.46
419.273	52.05
419.481	43.86
419.689	52.05
419.897	84.82
420.105	-44.2
420.313	84.82
420.521	172.88
420.729	95.06
420.937	7
421.145	2.9
421.353	111.44
421.561	197.46
421.769	95.06
421.977	-1.19
422.185	142.16
422.393	-11.43
422.601	148.31
422.809	45.91
423.017	62.29
423.224	17.24
423.432	138.07
423.64	37.72
423.848	174.93
424.056	15.19
424.263	72.53
424.471	78.68
424.679	234.32
424.887	9.05
425.094	131.92
425.302	119.64
425.51	43.86
425.718	156.5
425.925	93.01
426.133	-1.19
426.341	228.18
426.548	29.52
426.756	9.05
426.964	99.16
427.171	-3.24
427.379	62.29
427.586	119.64
427.794	142.16
428.001	115.54
428.209	99.16
428.417	183.12
428.624	11.09
428.832	201.55
429.039	-31.91
429.247	127.83
429.454	125.78
429.662	162.64
429.869	84.82
430.076	74.58
430.284	191.31
430.491	207.7
430.699	146.26
430.906	244.56
431.114	133.97
431.321	168.79
431.528	199.51
431.736	162.64
431.943	189.27
432.15	160.59
432.358	224.08
432.565	299.86
432.772	-3.24
432.979	125.78
433.187	86.87
433.394	185.17
433.601	82.77
433.808	310.1
434.016	297.81
434.223	260.95
434.43	105.3
434.637	293.71
434.844	306
435.052	260.95
435.259	260.95
435.466	336.72
435.673	242.51
435.88	228.18
436.087	328.53
436.294	365.39
436.501	377.68
436.708	306
436.915	369.49
437.122	392.02
437.329	355.15
437.537	396.11
437.743	332.62
437.95	473.93
438.157	312.14
438.364	441.17
438.571	398.16
438.778	416.59
438.985	484.17
439.192	500.56
439.399	359.25
439.606	334.67
439.813	510.8
440.02	613.2
440.227	676.68
440.433	676.68
440.64	578.38
440.847	566.09
441.054	619.34
441.261	760.65
441.467	643.92
441.674	621.39
441.881	605
442.088	731.98
442.294	750.41
442.501	797.51
442.708	774.99
442.914	856.9
443.121	826.18
443.328	887.62
443.534	983.88
443.741	990.02
443.948	850.76
444.154	1051.46
444.361	1213.25
444.568	1090.37
444.774	1127.24
444.981	1098.56
445.187	1190.72
445.394	1170.24
445.6	1272.64
445.807	1434.43
446.013	1313.6
446.22	1250.11
446.426	1430.34
446.633	1588.03
446.839	1741.63
447.046	1411.9
447.252	1733.43
447.459	1737.53
447.665	1739.58
447.871	1874.74
448.078	2136.88
448.284	1985.34
448.491	2196.28
448.697	2231.09
448.903	2267.95
449.11	2276.15
449.316	2376.5
449.522	2583.34
449.728	2683.69
449.935	2683.69
450.141	2675.5
450.347	2929.45
450.553	2876.2
450.76	2939.69
450.966	3189.54
451.172	3146.53
451.378	3500.83
451.584	3484.45
451.791	3588.89
451.997	3797.79
452.203	3844.89
452.409	4010.78
452.615	4115.22
452.821	4070.17
453.027	4039.45
453.233	4848.4
453.44	4414.23
453.646	4733.71
453.852	4926.22
454.058	5028.62
454.264	5147.4
454.47	5528.32
454.676	5481.22
454.882	6114.04
455.088	5935.87
455.294	6236.92
455.5	6515.44
455.705	6890.22
455.911	6922.99
456.117	7201.51
456.323	7430.88
456.529	7346.92
456.735	7979.74
456.941	8030.94
457.147	8547.03
457.352	8956.62
457.558	9134.79
457.764	9599.68
457.97	9956.03
458.176	10179.26
458.381	10941.1
458.587	10977.97
458.793	11442.85
458.999	11481.77
459.204	13007.5
459.41	13499.02
459.616	13267.59
459.821	14013.06
460.027	14508.66
460.233	15450.73
460.438	15069.81
460.644	15985.25
460.85	16222.81
461.055	16908.88
461.261	17648.2
461.466	17451.6
461.672	17650.25
461.878	19788.33
462.083	19872.29
462.289	19980.84
462.494	20982.29
462.7	21101.08
462.905	21070.36
463.111	23130.61
463.316	24302.05
463.522	24531.42
463.727	24951.26
463.932	26638.78
464.138	27359.67
464.343	28342.69
464.549	28707.23
464.754	30615.94
464.959	31144.31
465.165	31832.43
465.37	31383.93
465.575	31615.35
465.781	33718.61
465.986	34699.59
466.191	34169.16
466.397	34453.83
466.602	33691.99
466.807	35318.07
467.012	36260.14
467.218	36686.12
467.423	36784.42
467.628	38185.23
467.833	40012.02
468.038	39108.86
468.244	38629.64
468.449	40251.63
468.654	39670.01
468.859	39328
469.064	39614.71
469.269	38617.35
469.474	39319.81
469.679	40472.81
469.885	39166.21
470.09	39975.16
470.295	39579.9
470.5	38783.24
470.705	39041.28
470.91	38267.15
471.115	38105.36
471.32	38336.78
471.525	37978.39
471.73	37122.33
471.935	37286.17
472.139	35461.43
472.344	35586.36
472.549	35090.75
472.754	34625.86
472.959	33706.32
473.164	32756.07
473.369	32239.98
473.574	33282.39
473.778	32491.88
473.983	31861.1
474.188	31486.32
474.393	30400.9
474.598	30040.46
474.802	29110.68
475.007	28791.2
475.212	28598.69
475.417	27265.46
475.621	27359.67
475.826	27070.9
476.031	26200.52
476.235	25403.86
476.44	25651.66
476.645	24848.86
476.849	24838.62
477.054	24293.86
477.259	23620.08
477.463	23687.66
477.668	23007.73
477.872	23036.41
478.077	22706.68
478.282	21740.04
478.486	21608.97
478.691	21522.96
478.895	21307.92
479.1	21180.95
479.304	21123.6
479.509	20128.29
479.713	20666.91
479.918	20148.77
480.122	19698.22
480.326	19827.24
480.531	19667.5
480.735	19507.76
480.94	18991.67
481.144	19773.99
481.348	18784.82
481.553	19030.58
481.757	18281.02
481.961	18487.87
482.166	18932.28
482.37	18555.45
482.574	17924.68
482.778	17963.59
482.983	18252.35
483.187	17513.03
483.391	18020.93
483.595	17400.4
483.8	17195.6
484.004	17386.06
484.208	17113.68
484.412	16822.87
484.616	16845.4
484.821	16575.06
485.025	16360.03
485.229	16118.37
485.433	16093.79
485.637	15932
485.841	15411.82
486.045	15350.38
486.249	15237.74
486.453	15051.38
486.657	14842.48
486.861	14682.74
487.065	13957.76
487.269	14183.04
487.473	13552.26
487.677	13824.64
487.881	13781.64
488.085	13255.31
488.289	13187.72
488.493	12720.79
488.697	12821.14
488.901	12200.6
489.105	12284.57
489.309	11987.61
489.512	11924.13
489.716	11645.6
489.92	11217.58
490.124	11006.64
490.328	11070.12
490.531	10703.54
490.735	10818.22
490.939	10496.69
491.143	10236.6
491.346	9943.74
491.55	10119.87
491.754	9724.61
491.958	9765.57
492.161	9458.37
492.365	9368.26
492.569	9355.97
492.772	9087.69
492.976	9116.36
493.18	8696.53
493.383	8581.84
493.587	8694.48
493.79	8717.01
493.994	8311.51
494.197	8239.83
494.401	8342.23
494.605	8135.39
494.808	8147.67
495.012	7957.21
495.215	7854.81
495.419	7983.84
495.622	7727.84
495.825	7752.42
496.029	7733.98
496.232	7664.35
496.436	7596.77
496.639	7715.55
496.843	7346.92
497.046	7639.78
497.249	7754.46
497.453	7656.16
497.656	7545.57
497.859	7699.17
498.063	7791.33
498.266	7676.64
498.469	7475.94
498.673	7676.64
498.876	7832.29
499.079	7586.53
499.282	7637.73
499.485	8000.22
499.689	7707.36
499.892	7985.88
500.095	7744.22
500.298	7979.74
500.501	8004.32
500.705	8094.43
500.908	8092.38
501.111	8016.6
501.314	8301.27
501.517	8293.08
501.72	8217.3
501.923	8352.47
502.126	8544.98
502.329	9020.11
502.532	8577.75
502.735	8651.47
502.938	8911.57
503.141	9128.65
503.344	9071.31
503.547	9423.56
503.75	9151.18
503.953	9343.69
504.156	9671.36
504.359	9476.8
504.562	9558.72
504.765	9833.15
504.968	9974.46
505.17	10259.13
505.373	10322.62
505.576	10578.61
505.779	10738.35
505.982	10660.53
506.185	11084.46
506.387	11066.03
506.59	11283.11
506.793	11836.06
506.996	11702.95
507.198	12120.73
507.401	12165.79
507.604	12454.55
507.807	12741.27
508.009	12790.42
508.212	13161.1
508.415	13476.49
508.617	13709.96
508.82	13804.16
509.022	13890.18
509.225	14750.32
509.428	14789.24
509.63	15149.68
509.833	15432.3
510.035	15663.72
510.238	16020.06
510.44	16249.44
510.643	16880.21
510.845	17013.33
511.048	17390.16
511.25	17838.66
511.453	18033.22
511.655	18799.16
511.858	19081.78
512.06	19565.1
512.262	20118.05
512.465	20197.92
512.667	20724.25
512.87	21066.26
513.072	21731.85
513.274	21955.08
513.477	22641.15
513.679	23136.76
513.881	23548.4
514.084	24017.38
514.286	24512.99
514.488	25233.88
514.69	26057.16
514.893	26276.29
515.095	26816.96
515.297	27421.11
515.499	27756.97
515.701	28539.3
515.904	29032.86
516.106	29794.7
516.308	30128.52
516.51	31023.48
516.712	31385.97
516.914	32049.52
517.116	32733.54
517.318	33196.38
517.52	33808.72
517.722	34007.37
517.925	35096.89
518.127	35799.35
518.329	36421.93
518.531	36290.86
518.733	37484.83
518.935	38269.2
519.136	38375.69
519.338	39266.56
519.54	40069.36
519.742	40292.59
519.944	40804.58
520.146	41713.88
520.348	42524.88
520.55	42641.61
520.752	42778.82
520.954	43997.37
521.155	43528.38
521.357	44431.54
521.559	45263.01
521.761	46000.28
521.963	45506.72
522.164	46393.49
522.366	46876.81
522.568	47374.47
522.77	47786.11
522.971	48205.94
523.173	47691.9
523.375	48416.88
523.576	48625.78
523.778	48908.4
523.98	49027.18
524.181	49385.57
524.383	49373.28
524.584	49999.96
524.786	49868.89
524.988	49815.65
525.189	50491.47
525.391	50542.67
525.592	50481.24
525.794	50411.6
525.995	50305.11
526.197	50147.42
526.398	49868.89
526.6	50313.3
526.801	50186.33
527.003	49901.66
527.204	49872.99
527.406	49913.95
527.607	49408.1
527.808	49825.89
528.01	48302.2
528.211	48474.23
528.412	49102.95
528.614	48697.45
528.815	47765.63
529.016	48191.61
529.218	47468.67
529.419	47304.84
529.62	46442.64
529.822	46051.48
530.023	45881.5
530.224	45349.03
530.425	44834.99
530.626	44034.23
530.828	43774.14
531.029	44183.73
531.23	43012.29
531.431	42850.5
531.632	42322.13
531.833	41865.43
532.035	41216.22
532.236	40859.88
532.437	40702.18
532.638	39987.44
532.839	39360.76
533.04	39106.82
533.241	38404.36
533.442	38727.94
533.643	37566.74
533.844	37140.77
534.045	36567.34
534.246	35844.4
534.447	35862.83
534.648	34844.99
534.849	34888
535.05	33646.93
535.251	33542.49
535.451	33167.71
535.652	32862.56
535.853	32387.43
536.054	32100.72
536.255	31613.3
536.456	30951.81
536.657	30620.03
536.857	30224.78
537.058	29852.05
537.259	29485.46
537.46	29421.97
537.66	28629.41
537.861	28428.71
538.062	27924.91
538.263	27711.92
538.463	27255.22
538.664	27011.51
538.865	26819
539.065	26450.37
539.266	25973.19
539.466	25887.18
539.667	25127.38
539.868	25276.88
540.068	24541.66
540.269	24531.42
540.469	24566.24
540.67	24101.35
540.87	23724.52
541.071	23149.04
541.271	23144.95
541.472	22718.97
541.672	22698.49
541.873	22008.33
542.073	21979.65
542.274	22186.5
542.474	21623.31
542.675	21432.85
542.875	21395.98
543.075	20736.54
543.276	20664.86
543.476	20501.02
543.676	20111.91
543.877	19972.64
544.077	19917.35
544.277	19702.31
544.478	19307.05
544.678	19137.07
544.878	18764.34
545.078	18770.49
545.279	18367.04
545.479	18283.07
545.679	18070.08
545.879	17697.35
546.079	17461.83
546.28	17226.32
546.48	16947.79
546.68	17103.44
546.88	16872.02
547.08	16394.84
547.28	16511.58
547.48	16210.53
547.68	16110.18
547.88	15737.45
548.081	15864.42
548.281	15327.85
548.481	15049.33
548.681	14912.11
548.881	15030.9
549.081	14684.79
549.28	14418.55
549.48	14322.3
549.68	14242.43
549.88	13914.75
550.08	13722.24
550.28	13466.25
550.48	13351.56
550.68	13273.74
550.88	13052.56
551.08	12903.06
551.279	12814.99
551.479	12526.23
551.679	12145.31
551.879	11987.61
552.079	11895.46
552.278	11819.68
552.478	11676.32
552.678	11436.71
552.878	11403.94
553.077	11133.61
553.277	10724.02
553.477	10545.84
553.676	10822.32
553.876	10484.41
554.076	10228.41
554.275	10121.91
554.475	9798.34
554.674	9915.07
554.874	9554.63
555.074	9456.33
555.273	9282.25
555.473	9206.47
555.672	9083.59
555.872	8977.1
556.071	8784.59
556.271	8874.7
556.47	8571.6
556.67	8211.16
556.869	8260.31
557.068	8022.75
557.268	8000.22
557.467	7701.22
557.667	7766.75
557.866	7580.39
558.065	7531.23
558.265	7271.14
558.464	7193.32
558.663	7224.04
558.863	7066.35
559.062	6925.04
559.261	6888.17
559.461	6738.67
559.66	6449.91
559.859	6333.17
560.058	6191.86
560.258	6361.84
560.457	6165.24
560.656	6210.29
560.855	5851.9
561.054	6122.23
561.253	5733.12
561.453	5710.59
561.652	5600
561.851	5628.67
562.05	5239.56
562.249	5278.47
562.448	5389.06
562.647	5174.02
562.846	5090.06
563.045	5073.67
563.244	5108.49
563.443	5030.66
563.642	4907.79
563.841	4721.42
564.04	4705.04
564.239	4797.2
564.438	4594.45
564.637	4381.46
564.836	4330.26
565.035	4416.27
565.234	4324.12
565.432	4272.92
565.631	4221.72
565.83	4145.94
566.029	4102.93
566.228	4043.54
566.427	3967.77
566.625	3820.32
566.824	3887.9
567.023	3742.49
567.222	3646.24
567.42	3728.16
567.619	3607.33
567.818	3455.78
568.016	3631.9
568.215	3463.97
568.414	3642.14
568.612	3351.33
568.811	3326.75
569.01	3283.75
569.208	3210.02
569.407	3341.09
569.605	3175.2
569.804	3130.15
570.002	3007.27
570.201	2919.21
570.4	3052.33
570.598	2902.83
570.797	2884.39
570.995	2820.91
571.193	2857.77
571.392	2767.66
571.59	2646.83
571.789	2665.26
571.987	2659.12
572.186	2718.51
572.384	2470.7
572.582	2593.58
572.781	2548.53
572.979	2360.11
573.177	2450.22
573.376	2366.26
573.574	2378.55
573.772	2173.75
573.971	2241.33
574.169	2126.64
574.367	2227
574.565	2151.22
574.763	2167.6
574.962	2073.4
575.16	1927.99
575.358	2085.69
575.556	1956.66
575.754	1903.42
575.952	1919.8
576.151	1981.24
576.349	1991.48
576.547	1805.11
576.745	1930.04
576.943	1864.5
577.141	1706.81
577.339	1618.75
577.537	1633.08
577.735	1819.45
577.933	1764.15
578.131	1567.55
578.329	1686.33
578.527	1579.84
578.725	1598.27
578.923	1428.29
579.121	1538.88
579.319	1477.44
579.516	1438.53
579.714	1672
579.912	1448.77
580.11	1280.83
580.308	1381.18
580.506	1254.21
580.704	1213.25
580.901	1350.46
581.099	1395.52
581.297	1262.4
581.495	1325.89
581.692	1157.96
581.89	1397.57
582.088	1166.15
582.285	1264.45
582.483	1033.03
582.681	1143.62
582.878	1241.92
583.076	1127.24
583.274	1149.76
583.471	1184.58
583.669	1010.5
583.866	961.35
584.064	1059.65
584.262	1012.55
584.459	965.45
584.657	1098.56
584.854	1020.74
585.052	897.86
585.249	1051.46
585.447	938.82
585.644	856.9
585.841	1030.98
586.039	1069.89
586.236	1088.32
586.434	871.24
586.631	807.75
586.828	926.54
587.026	797.51
587.223	721.74
587.42	815.94
587.618	820.04
587.815	955.21
588.012	848.71
588.21	760.65
588.407	897.86
588.604	803.66
588.801	731.98
588.999	756.55
589.196	797.51
589.393	691.02
589.59	703.31
589.787	709.45
589.984	719.69
590.182	781.13
590.379	688.97
590.576	643.92
590.773	713.55
590.97	633.68
591.167	676.68
591.364	779.08
591.561	658.25
591.758	777.03
591.955	709.45
592.152	693.07
592.349	654.16
592.546	633.68
592.743	701.26
592.94	557.9
593.137	723.79
593.334	785.23
593.531	734.03
593.727	699.21
593.924	748.36
594.121	691.02
594.318	680.78
594.515	711.5
594.712	856.9
594.908	795.47
595.105	623.44
595.302	734.03
595.499	744.27
595.696	834.38
595.892	725.83
596.089	824.14
596.286	768.84
596.482	861
596.679	873.29
596.876	742.22
597.072	920.39
597.269	912.2
597.466	934.73
597.662	930.63
597.859	957.25
598.055	1016.65
598.252	1051.46
598.448	1051.46
598.645	1174.34
598.841	1100.61
599.038	1243.97
599.234	1172.29
599.431	1280.83
599.627	1399.62
599.824	1319.75
600.02	1336.13
600.217	1485.63
600.413	1469.25
600.609	1491.77
600.806	1860.41
601.002	1672
601.198	1608.51
601.395	1942.33
601.591	1848.12
601.787	1823.55
601.984	2016.05
602.18	2108.21
602.376	2173.75
602.572	2413.36
602.769	2417.46
602.965	2390.83
603.161	2546.48
603.357	2659.12
603.553	2814.76
603.75	2728.75
603.946	2808.62
604.142	2992.94
604.338	3224.36
604.534	3175.2
604.73	3316.51
604.926	3363.62
605.122	3584.8
605.318	3502.88
605.514	3756.83
605.71	3701.53
605.906	4035.35
606.102	4201.24
606.298	4293.4
606.494	4287.25
606.69	4573.97
606.886	4580.11
607.082	4590.35
607.278	4913.93
607.474	4938.51
607.67	5262.09
607.866	5106.44
608.062	5518.08
608.257	5487.36
608.453	5550.85
608.649	5853.95
608.845	5915.39
609.041	6068.98
609.236	6359.8
609.432	6507.25
609.628	6669.04
609.824	6830.83
610.019	7006.95
610.215	7232.23
610.411	7668.45
610.606	7607.01
610.802	7860.96
610.998	8094.43
611.193	8358.61
611.389	8479.44
611.584	8760.02
611.78	8927.95
611.976	8973
612.171	9466.56
612.367	9714.37
612.562	9853.63
612.758	10060.48
612.953	9990.84
613.149	10635.96
613.344	11023.02
613.539	11389.61
613.735	11590.31
613.93	11752.1
614.126	11983.52
614.321	12661.4
614.517	12929.68
614.712	13261.45
614.907	13460.1
615.103	13787.78
615.298	13963.9
615.493	14273.15
615.688	14842.48
615.884	15514.22
616.079	15493.74
616.274	15981.15
616.47	16460.38
616.665	16732.76
616.86	17087.06
617.055	17705.54
617.25	18000.45
617.445	18420.28
617.641	18999.86
617.836	19479.08
618.031	19771.94
618.226	20578.84
618.421	20765.21
618.616	21649.93
618.811	21826.06
619.006	22131.2
619.201	22905.34
619.396	23384.56
619.591	23411.18
619.786	24369.63
619.981	24734.17
620.176	25446.87
620.371	25561.55
620.566	26374.59
620.761	26653.12
620.956	27693.49
621.151	27847.08
621.346	28842.4
621.541	28453.28
621.735	29829.52
621.93	29880.72
622.125	30601.6
622.32	30810.5
622.515	31582.58
622.709	32334.18
622.904	32928.09
623.099	33778
623.294	34187.6
623.488	34484.55
623.683	35455.29
623.878	35367.23
624.072	36563.24
624.267	36804.9
624.462	37392.67
624.656	37964.05
624.851	39090.43
625.046	39028.99
625.24	39653.62
625.435	39995.64
625.629	40485.1
625.824	41529.56
626.018	41810.14
626.213	42053.84
626.407	42854.6
626.602	42682.57
626.796	43829.43
626.991	44378.29
627.185	44581.04
627.38	44622
627.574	44941.48
627.768	45199.52
627.963	45275.3
628.157	44900.52
628.352	45732
628.546	45738.14
628.74	46180.5
628.935	45404.32
629.129	45787.29
629.323	45299.87
629.517	45516.96
629.712	45033.64
629.906	44689.58
630.1	44013.75
630.294	44544.17
630.489	43821.24
630.683	43251.91
630.877	42301.65
631.071	41437.41
631.265	41289.95
631.459	40233.2
631.653	39569.66
631.848	38660.36
632.042	37607.7
632.236	37015.84
632.43	36038.96
632.624	35443
632.818	33704.28
633.012	33151.32
633.206	32078.19
633.4	31222.14
633.594	29999.5
633.788	29278.61
633.982	28287.4
634.176	27148.73
634.369	26040.78
634.563	25190.87
634.757	24213.99
634.951	23595.5
635.145	22862.33
635.339	21844.49
635.533	20742.68
635.726	20242.98
635.92	19032.63
636.114	18362.94
636.308	17379.92
636.501	16994.9
636.695	16423.51
636.889	15389.29
637.083	15141.49
637.276	14217.85
637.47	13648.52
637.664	13247.12
637.857	12757.65
638.051	12044.96
638.244	11815.59
638.438	11311.78
638.632	10830.51
638.825	10285.75
639.019	10162.87
639.212	9382.6
639.406	9325.26
639.599	8934.09
639.793	8526.55
639.986	8006.36
640.18	7813.85
640.373	7629.54
640.567	7131.88
640.76	7013.1
640.954	6656.75
641.147	6322.93
641.34	6212.34
641.534	6007.55
641.727	5776.13
641.92	5522.18
642.114	5430.02
642.307	5174.02
642.5	5069.58
642.694	4715.28
642.887	4514.58
643.08	4524.82
643.273	4350.74
643.467	4021.02
643.66	3859.23
643.853	3724.06
644.046	3715.87
644.239	3529.5
644.432	3283.75
644.626	3136.29
644.819	3076.9
645.012	2927.4
645.205	2980.65
645.398	2835.24
645.591	2724.65
645.784	2534.19
645.977	2456.37
646.17	2390.83
646.363	2233.14
646.556	2153.27
646.749	2075.45
646.942	1934.14
647.135	2020.15
647.328	1727.29
647.521	1876.79
647.714	1684.28
647.907	1770.3
648.099	1583.93
648.292	1628.99
648.485	1551.17
648.678	1512.25
648.871	1389.38
649.064	1311.55
649.256	1168.2
649.449	1293.12
649.642	1067.85
649.835	1223.49
650.027	979.78
650.22	1233.73
650.413	949.06
650.605	1026.89
650.798	1033.03
650.991	887.62
651.183	844.62
651.376	873.29
651.568	1018.69
651.761	680.78
651.954	824.14
652.146	838.47
652.339	934.73
652.531	918.34
652.724	605
652.916	691.02
653.109	541.52
653.301	643.92
653.494	666.44
653.686	592.72
653.879	658.25
654.071	652.11
654.263	576.33
654.456	516.94
654.648	551.76
654.84	602.96
655.033	443.21
655.225	576.33
655.417	330.58
655.61	602.96
655.802	469.84
655.994	475.98
656.186	369.49
656.379	496.46
656.571	471.89
656.763	439.12
656.955	422.73
657.148	414.54
657.34	451.41
657.532	396.11
657.724	369.49
657.916	299.86
658.108	475.98
658.3	426.83
658.492	369.49
658.684	250.71
658.876	410.45
659.068	219.99
659.26	179.03
659.452	162.64
659.644	289.62
659.836	418.64
660.028	314.19
660.22	310.1
660.412	328.53
660.604	230.23
660.796	236.37
660.988	355.15
661.18	308.05
661.372	299.86
661.563	174.93
661.755	246.61
661.947	136.02
662.139	154.45
662.331	260.95
662.522	138.07
662.714	156.5
662.906	174.93
663.097	232.27
663.289	201.55
663.481	109.4
663.673	193.36
663.864	160.59
664.056	205.65
664.247	68.44
664.439	205.65
664.631	205.65
664.822	240.47
665.014	205.65
665.205	113.49
665.397	213.84
665.588	160.59
665.78	201.55
665.971	234.32
666.163	105.3
666.354	176.98
666.546	193.36
666.737	197.46
666.929	88.92
667.12	99.16
667.311	213.84
667.503	166.74
667.694	148.31
667.885	262.99
668.077	176.98
668.268	19.29
668.459	183.12
668.651	170.83
668.842	189.27
669.033	86.87
669.224	21.33
669.416	357.2
669.607	33.62
669.798	64.34
669.989	262.99
670.18	150.36
670.371	205.65
670.563	29.52
670.754	242.51
670.945	219.99
671.136	181.07
671.327	127.83
671.518	166.74
671.709	283.47
671.9	201.55
672.091	267.09
672.282	254.8
672.473	156.5
672.664	113.49
672.855	105.3
673.046	168.79
673.237	195.41
673.428	119.64
673.619	140.12
673.809	103.25
674	215.89
674.191	166.74
674.382	125.78
674.573	181.07
674.764	142.16
674.954	207.7
675.145	66.39
675.336	37.72
675.527	205.65
675.717	146.26
675.908	115.54
676.099	109.4
676.289	127.83
676.48	-40.11
676.671	160.59
676.861	209.75
677.052	201.55
677.243	183.12
677.433	156.5
677.624	197.46
677.814	144.21
678.005	109.4
678.195	238.42
678.386	127.83
678.576	111.44
678.767	113.49
678.957	213.84
679.148	262.99
679.338	273.23
679.529	273.23
679.719	162.64
679.909	269.14
680.1	199.51
680.29	172.88
680.481	84.82
680.671	256.85
680.861	217.94
681.052	232.27
681.242	113.49
681.432	199.51
681.622	224.08
681.813	148.31
682.003	217.94
682.193	37.72
682.383	230.23
682.573	217.94
682.764	185.17
682.954	265.04
683.144	250.71
683.334	215.89
683.524	125.78
683.714	273.23
683.904	205.65
684.094	162.64
684.284	211.79
684.474	367.44
684.664	359.25
684.854	222.03
685.044	193.36
685.234	238.42
685.424	205.65
685.614	172.88
685.804	349.01
685.994	164.69
686.184	185.17
686.374	262.99
686.564	275.28
686.753	224.08
686.943	125.78
687.133	142.16
687.323	168.79
687.513	295.76
687.702	242.51
687.892	183.12
688.082	377.68
688.272	328.53
688.461	228.18
688.651	285.52
688.841	195.41
689.03	144.21
689.22	183.12
689.41	189.27
689.599	277.33
689.789	213.84
689.979	306
690.168	256.85
690.358	246.61
690.547	148.31
690.737	172.88
690.926	244.56
691.116	187.22
691.305	197.46
691.495	250.71
691.684	172.88
691.874	158.55
692.063	197.46
692.252	256.85
692.442	234.32
692.631	222.03
692.82	119.64
693.01	299.86
693.199	209.75
693.388	222.03
693.578	152.4
693.767	246.61
693.956	228.18
694.146	250.71
694.335	250.71
694.524	189.27
694.713	195.41
694.902	209.75
695.092	142.16
695.281	219.99
695.47	105.3
695.659	70.48
695.848	162.64
696.037	162.64
696.226	256.85
696.415	254.8
696.604	279.38
696.793	217.94
696.982	176.98
697.171	244.56
697.36	117.59
697.549	213.84
697.738	80.72
697.927	191.31
698.116	123.73
698.305	224.08
698.494	148.31
698.683	197.46
698.872	322.38
699.061	197.46
699.25	146.26
699.438	179.03
699.627	86.87
699.816	338.77
700.005	72.53
700.193	189.27
700.382	306
700.571	209.75
700.76	193.36
700.948	275.28
701.137	244.56
701.326	271.19
701.514	191.31
701.703	230.23
701.892	248.66
702.08	357.2
702.269	176.98
702.457	203.6
702.646	156.5
702.834	224.08
703.023	197.46
703.212	244.56
703.4	207.7
703.589	144.21
703.777	207.7
703.965	181.07
704.154	185.17
704.342	228.18
704.531	211.79
704.719	170.83
704.907	199.51
705.096	148.31
705.284	78.68
705.472	152.4
705.661	232.27
705.849	306
706.037	269.14
706.226	222.03
706.414	250.71
706.602	113.49
706.79	140.12
706.979	131.92
707.167	240.47
707.355	72.53
707.543	242.51
707.731	209.75
707.919	226.13
708.107	195.41
708.296	127.83
708.484	213.84
708.672	160.59
708.86	254.8
709.048	105.3
709.236	144.21
709.424	287.57
709.612	269.14
709.8	76.63
709.988	213.84
710.176	320.34
710.364	271.19
710.551	99.16
710.739	158.55
710.927	164.69
711.115	215.89
711.303	181.07
711.491	265.04
711.679	121.68
711.866	273.23
712.054	160.59
712.242	262.99
712.43	256.85
712.617	170.83
712.805	262.99
712.993	174.93
713.181	123.73
713.368	322.38
713.556	199.51
713.744	187.22
713.931	308.05
714.119	324.43
714.306	279.38
714.494	172.88
714.682	101.2
714.869	93.01
715.057	224.08
715.244	80.72
715.432	240.47
715.619	162.64
715.807	205.65
715.994	176.98
716.182	170.83
716.369	260.95
716.556	195.41
716.744	146.26
716.931	172.88
717.119	271.19
717.306	172.88
717.493	275.28
717.681	193.36
717.868	179.03
718.055	281.43
718.242	168.79
718.43	226.13
718.617	258.9
718.804	164.69
718.991	236.37
719.179	226.13
719.366	211.79
719.553	217.94
719.74	236.37
719.927	152.4
720.114	236.37
720.301	168.79
720.488	125.78
720.676	170.83
720.863	201.55
721.05	291.66
721.237	189.27
721.424	203.6
721.611	248.66
721.798	154.45
721.985	111.44
722.172	224.08
722.358	211.79
722.545	285.52
722.732	179.03
722.919	357.2
723.106	238.42
723.293	273.23
723.48	215.89
723.667	191.31
723.853	260.95
724.04	254.8
724.227	318.29
724.414	242.51
724.6	250.71
724.787	351.06
724.974	365.39
725.161	230.23
725.347	136.02
725.534	328.53
725.72	291.66
725.907	248.66
726.094	258.9
726.28	113.49
726.467	201.55
726.653	164.69
726.84	373.58
727.027	377.68
727.213	250.71
727.4	262.99
727.586	238.42
727.773	320.34
727.959	240.47
728.145	283.47
728.332	185.17
728.518	121.68
728.705	332.62
728.891	246.61
729.077	230.23
729.264	90.96
729.45	217.94
729.636	224.08
729.823	207.7
730.009	287.57
730.195	207.7
730.382	338.77
730.568	187.22
730.754	156.5
730.94	234.32
731.126	246.61
731.313	308.05
731.499	271.19
731.685	279.38
731.871	242.51
732.057	336.72
732.243	371.54
732.429	228.18
732.615	416.59
732.801	234.32
732.987	226.13
733.173	248.66
733.359	240.47
733.545	219.99
733.731	228.18
733.917	365.39
734.103	209.75
734.289	246.61
734.475	156.5
734.661	414.54
734.847	230.23
735.033	254.8
735.219	254.8
735.404	213.84
735.59	179.03
735.776	219.99
735.962	219.99
736.148	265.04
736.333	314.19
736.519	258.9
736.705	287.57
736.89	228.18
737.076	285.52
737.262	215.89
737.447	240.47
737.633	197.46
737.819	340.82
738.004	269.14
738.19	336.72
738.375	326.48
738.561	377.68
738.747	265.04
738.932	238.42
739.118	332.62
739.303	312.14
739.489	279.38
739.674	287.57
739.859	230.23
740.045	240.47
740.23	330.58
740.416	129.88
740.601	234.32
740.786	244.56
740.972	281.43
741.157	136.02
741.342	193.36
741.528	193.36
741.713	306
741.898	236.37
742.084	232.27
742.269	322.38
742.454	281.43
742.639	287.57
742.824	275.28
743.01	326.48
743.195	332.62
743.38	299.86
743.565	254.8
743.75	285.52
743.935	285.52
744.12	334.67
744.305	179.03
744.49	217.94
744.675	228.18
744.86	207.7
745.045	308.05
745.23	232.27
745.415	226.13
745.6	402.26
745.785	201.55
745.97	269.14
746.155	310.1
746.34	328.53
746.525	258.9
746.71	332.62
746.895	181.07
747.079	156.5
747.264	224.08
747.449	258.9
747.634	277.33
747.819	295.76
748.003	224.08
748.188	107.35
748.373	217.94
748.557	162.64
748.742	262.99
748.927	199.51
749.111	207.7
749.296	191.31
749.481	273.23
749.665	146.26
749.85	217.94
750.034	308.05
750.219	217.94
750.404	285.52
750.588	281.43
750.773	152.4
750.957	191.31
751.141	256.85
751.326	324.43
751.51	152.4
751.695	162.64
751.879	176.98
752.064	234.32
752.248	150.36
752.432	308.05
752.617	267.09
752.801	312.14
752.985	185.17
753.17	230.23
753.354	230.23
753.538	224.08
753.722	80.72
753.907	66.39
754.091	107.35
754.275	289.62
754.459	78.68
754.643	160.59
754.828	168.79
755.012	236.37
755.196	131.92
755.38	234.32
755.564	179.03
755.748	166.74
755.932	252.75
756.116	224.08
756.3	193.36
756.484	103.25
756.668	203.6
756.852	74.58
757.036	99.16
757.22	142.16
757.404	136.02
757.588	146.26
757.772	123.73
757.956	195.41
758.14	256.85
758.323	27.48
758.507	150.36
758.691	150.36
758.875	258.9
759.059	258.9
759.242	54.1
759.426	97.11
759.61	187.22
759.794	35.67
759.977	213.84
760.161	465.74
760.345	115.54
760.528	217.94
760.712	119.64
760.895	125.78
761.079	123.73
761.263	66.39
761.446	97.11
761.63	150.36
761.813	222.03
761.997	54.1
762.18	154.45
762.364	86.87
762.547	-17.58
762.731	121.68
762.914	50
763.098	35.67
763.281	144.21
763.464	29.52
763.648	156.5
763.831	72.53
764.015	76.63
764.198	203.6
764.381	103.25
764.564	99.16
764.748	119.64
764.931	109.4
765.114	62.29
765.297	103.25
765.481	41.81
765.664	119.64
765.847	93.01
766.03	230.23
766.213	25.43
766.397	113.49
766.58	-17.58
766.763	191.31
766.946	68.44
767.129	52.05
767.312	93.01
767.495	52.05
767.678	68.44
767.861	66.39
768.044	119.64
768.227	25.43
768.41	174.93
768.593	158.55
768.776	54.1
768.959	21.33
769.142	187.22
769.324	27.48
769.507	82.77
769.69	54.1
769.873	84.82
770.056	219.99
770.239	90.96
770.421	125.78
770.604	97.11
770.787	47.96
770.97	50
771.152	68.44
771.335	60.24
771.518	41.81
771.7	117.59
771.883	193.36
772.066	84.82
772.248	86.87
772.431	136.02
772.613	246.61
772.796	109.4
772.978	144.21
773.161	123.73
773.343	23.38
773.526	60.24
773.708	-44.2
773.891	-33.96
774.073	93.01
774.256	21.33
774.438	199.51
774.621	119.64
774.803	140.12
774.985	21.33
775.168	193.36
775.35	-11.43
775.532	76.63
775.715	68.44
775.897	115.54
776.079	58.2
776.261	9.05
776.444	99.16
776.626	9.05
776.808	31.57
776.99	-54.44
777.173	68.44
777.355	-19.63
777.537	27.48
777.719	60.24
777.901	4.95
778.083	23.38
778.265	15.19
778.447	121.68
778.629	-48.3
778.811	39.76
778.993	82.77
779.175	56.15
779.357	82.77
779.539	-58.54
779.721	58.2
779.903	113.49
780.085	64.34
780.267	13.14
780.449	107.35
780.631	47.96
780.812	119.64
780.994	0.85
781.176	64.34
781.358	-5.29
781.54	70.48
781.721	111.44
781.903	105.3
782.085	35.67
782.267	148.31
782.448	19.29
782.63	37.72
782.812	37.72
782.993	41.81
783.175	113.49
783.357	43.86
783.538	-17.58
783.72	15.19
783.901	58.2
784.083	156.5
784.264	99.16
784.446	-56.49
784.627	-1.19
784.809	58.2
784.99	-52.39
785.172	41.81
785.353	13.14
785.535	74.58
785.716	-25.77
785.897	-19.63
786.079	76.63
786.26	80.72
786.441	7
786.623	0.85
786.804	-48.3
786.985	-21.67
787.167	136.02
787.348	60.24
787.529	109.4
787.71	136.02
787.891	62.29
788.073	-66.73
788.254	-58.54
788.435	291.66
788.616	15.19
788.797	-60.59
788.978	7
789.159	-44.2
789.34	101.2
789.522	-9.39
789.703	9.05
789.884	74.58
790.065	86.87
790.246	174.93
790.427	-38.06
790.607	117.59
790.788	70.48
790.969	-3.24
791.15	86.87
791.331	11.09
791.512	-81.07
791.693	-11.43
791.874	11.09
792.054	224.08
792.235	109.4
792.416	-46.25
792.597	13.14
792.778	47.96
792.958	107.35
793.139	23.38
793.32	86.87
793.5	7
793.681	121.68
793.862	50
794.042	-23.72
794.223	-5.29
794.404	-3.24
794.584	-79.02
794.765	47.96
794.945	43.86
795.126	52.05
795.306	19.29
795.487	-13.48
795.667	23.38
795.848	86.87
796.028	21.33
796.209	70.48
796.389	58.2
796.57	2.9
796.75	-81.07
796.93	13.14
797.111	-27.82
797.291	52.05
797.471	37.72
797.652	62.29
797.832	4.95
798.012	64.34
798.192	11.09
798.373	-68.78
798.553	-23.72
798.733	21.33
798.913	-48.3
799.093	41.81
799.274	23.38
799.454	50
799.634	111.44
799.814	90.96
799.994	-29.87
800.174	37.72
800.354	-11.43
800.534	-66.73
800.714	64.34
800.894	-89.26
801.074	-79.02
801.254	29.52
801.434	45.91
801.614	-9.39
801.794	11.09
801.974	1657.66
802.154	-48.3
802.334	54.1
802.514	-36.01
802.693	45.91
802.873	21.33
803.053	68.44
803.233	60.24
803.413	37.72
803.592	-146.6
803.772	-134.31
803.952	-54.44
804.131	-87.21
804.311	47.96
804.491	129.88
804.67	-58.54
804.85	-33.96
805.03	64.34
805.209	101.2
805.389	-19.63
805.568	-113.83
805.748	2.9
805.928	31.57
806.107	-13.48
806.287	60.24
806.466	121.68
806.646	-13.48
806.825	-46.25
807.004	-13.48
807.184	13.14
807.363	84.82
807.543	19.29
807.722	-21.67
807.901	15.19
808.081	86.87
808.26	-48.3
808.439	54.1
808.619	25.43
808.798	-66.73
808.977	50
809.156	58.2
809.336	4.95
809.515	93.01
809.694	-56.49
809.873	-48.3
810.052	78.68
810.231	107.35
810.411	9.05
810.59	103.25
810.769	9.05
810.948	56.15
811.127	-132.26
811.306	-42.15
811.485	-38.06
811.664	113.49
811.843	37.72
812.022	47.96
812.201	-3.24
812.38	-40.11
812.559	19.29
812.737	99.16
812.916	-58.54
813.095	-79.02
813.274	58.2
813.453	7
813.632	-19.63
813.811	86.87
813.989	-56.49
814.168	-5.29
814.347	-105.64
814.526	33.62
814.704	66.39
814.883	39.76
815.062	-87.21
815.24	41.81
815.419	-52.39
815.598	62.29
815.776	-130.22
815.955	35.67
816.133	-119.98
816.312	-7.34
816.49	-5.29
816.669	27.48
816.847	-19.63
817.026	101.2
817.204	-40.11
817.383	-64.68
817.561	-83.11
817.74	88.92
817.918	25.43
818.097	19.29
818.275	4.95
818.453	109.4
818.632	17.24
818.81	101.2
818.988	-56.49
819.167	-44.2
819.345	11.09
819.523	-5.29
819.701	-5.29
819.879	2.9
820.058	33.62
820.236	129.88
820.414	41.81
820.592	-27.82
820.77	-25.77
820.948	4.95
821.127	-44.2
821.305	97.11
821.483	-23.72
821.661	90.96
821.839	-5.29
822.017	-93.35
822.195	-38.06
822.373	64.34
822.551	-11.43
822.729	56.15
822.907	-44.2
823.085	64.34
823.262	-11.43
823.44	-9.39
823.618	-83.11
823.796	-19.63
823.974	-91.31
824.152	-74.92
824.329	-15.53
824.507	15.19
824.685	-48.3
824.863	-36.01
825.04	9.05
825.218	68.44
825.396	35.67
825.574	41.81
825.751	33.62
825.929	27.48
826.107	-40.11
826.284	39.76
826.462	39.76
826.639	-56.49
826.817	-60.59
826.994	19.29
827.172	-19.63
827.349	164.69
827.527	66.39
827.704	0.85
827.882	121.68
828.059	-33.96
828.237	-7.34
828.414	138.07
828.591	-122.02
828.769	-7.34
828.946	-44.2
829.124	193.36
829.301	88.92
829.478	2.9
829.655	66.39
829.833	39.76
830.01	-175.27
830.187	9.05
830.364	-21.67
830.542	-62.63
830.719	150.36
830.896	39.76
831.073	-50.35
831.25	52.05
831.427	66.39
831.604	35.67
831.782	-56.49
831.959	27.48
832.136	-87.21
832.313	11.09
832.49	-70.83
832.667	-64.68
832.844	-93.35
833.021	103.25
833.198	43.86
833.374	0.85
833.551	50
833.728	-62.63
833.905	52.05
834.082	-144.55
834.259	-46.25
834.436	103.25
834.612	-33.96
834.789	33.62
834.966	-25.77
835.143	82.77
835.319	-42.15
835.496	25.43
835.673	-25.77
835.85	17.24
836.026	25.43
836.203	68.44
836.38	-40.11
836.556	-48.3
836.733	52.05
836.909	78.68
837.086	-60.59
837.262	-64.68
837.439	-38.06
837.616	-109.74
837.792	-38.06
837.968	-19.63
838.145	-187.56
838.321	29.52
838.498	39.76
838.674	29.52
838.851	-58.54
839.027	-23.72
839.203	13.14
839.38	181.07
839.556	-40.11
839.732	27.48
839.909	37.72
840.085	60.24
840.261	-101.55
840.437	-40.11
840.614	-79.02
840.79	37.72
840.966	37.72
841.142	-3.24
841.318	-19.63
841.494	56.15
841.671	17.24
841.847	-21.67
842.023	-85.16
842.199	-40.11
842.375	148.31
842.551	-79.02
842.727	-95.4
842.903	129.88
843.079	2.9
843.255	62.29
843.431	21.33
843.607	-3.24
843.783	-136.36
843.959	21.33
844.134	-144.55
844.31	41.81
844.486	-66.73
844.662	-40.11
844.838	25.43
845.013	9.05
845.189	101.2
845.365	-9.39
845.541	23.38
845.716	103.25
845.892	82.77
846.068	19.29
846.244	-44.2
846.419	2.9
846.595	-50.35
846.77	-42.15
846.946	97.11
847.122	-38.06
847.297	-56.49
847.473	154.45
847.648	-58.54
847.824	78.68
847.999	-109.74
848.175	11.09
848.35	45.91
848.526	82.77
848.701	29.52
848.876	64.34
849.052	80.72
849.227	-1.19
849.403	54.1
849.578	-72.87
849.753	29.52
849.929	60.24
850.104	-36.01
850.279	0.85
850.454	72.53
850.63	52.05
850.805	88.92
850.98	-23.72
851.155	-7.34
851.33	-11.43
851.505	-83.11
851.681	99.16
851.856	35.67
852.031	-9.39
852.206	-17.58
852.381	-95.4
852.556	39.76
852.731	13.14
852.906	41.81
853.081	-1.19
853.256	52.05
853.431	-60.59
853.606	-107.69
853.781	-107.69
853.956	-103.59
854.131	15.19
854.305	-60.59
854.48	-23.72
854.655	-58.54
854.83	-9.39
855.005	27.48
855.18	-36.01
855.354	2.9
855.529	0.85
855.704	11.09
855.879	21.33
856.053	-36.01
856.228	9.05
856.403	-15.53
856.577	19.29
856.752	-58.54
856.926	-38.06
857.101	-48.3
857.276	-126.12
857.45	-7.34
857.625	86.87
857.799	13.14
857.974	37.72
858.148	-74.92
858.323	29.52
858.497	25.43
858.672	-89.26
858.846	-31.91
859.02	66.39
859.195	-13.48
859.369	37.72
859.543	-29.87
859.718	54.1
859.892	19.29
860.066	109.4
860.241	-11.43
860.415	-54.44
860.589	-23.72
860.763	-27.82
860.938	4.95
861.112	25.43
861.286	-76.97
861.46	13.14
861.634	-44.2
861.808	86.87
861.982	25.43
862.157	-76.97
862.331	-48.3
862.505	-101.55
862.679	-99.5
862.853	-70.83
863.027	-27.82
863.201	133.97
863.375	-17.58
863.549	68.44
863.722	39.76
863.896	99.16
864.07	-31.91
864.244	-21.67
864.418	54.1
864.592	70.48
864.766	82.77
864.939	25.43
865.113	-44.2
865.287	27.48
865.461	-58.54
865.634	-13.48
865.808	-89.26
865.982	-107.69
866.156	-89.26
866.329	-60.59
866.503	47.96
866.676	43.86
866.85	-25.77
867.024	-68.78
867.197	62.29
867.371	60.24
867.544	50
867.718	-103.59
867.891	66.39
868.065	2.9
868.238	35.67
868.412	52.05
868.585	29.52
868.759	-29.87
868.932	-17.58
869.105	-48.3
869.279	-15.53
869.452	-72.87
869.625	113.49
869.799	-54.44
869.972	-60.59
870.145	15.19
870.319	-31.91
870.492	-79.02
870.665	21.33
870.838	-93.35
871.011	-117.93
871.185	-42.15
871.358	-83.11
871.531	4.95
871.704	-27.82
871.877	-15.53
872.05	-58.54
872.223	-46.25
872.396	39.76
872.569	-36.01
872.742	11.09
872.915	19.29
873.088	-87.21
873.261	-70.83
873.434	86.87
873.607	-1.19
873.78	-42.15
873.953	-117.93
874.126	31.57
874.299	50
874.471	-58.54
874.644	2.9
874.817	9.05
874.99	113.49
875.163	-79.02
875.335	86.87
875.508	9.05
875.681	117.59
875.853	-105.64
876.026	-1.19
876.199	17.24
876.371	-48.3
876.544	-72.87
876.717	15.19
876.889	-124.07
877.062	4.95
877.234	-95.4
877.407	-21.67
877.579	17.24
877.752	-31.91
877.924	99.16
878.097	45.91
878.269	-50.35
878.442	-11.43
878.614	27.48
878.786	-11.43
878.959	-60.59
879.131	11.09
879.303	-158.89
879.476	19.29
879.648	41.81
879.82	-29.87
879.993	-7.34
880.165	0.85
880.337	-7.34
880.509	11.09
880.681	-70.83
880.854	-132.26
881.026	33.62
881.198	174.93
881.37	41.81
881.542	-21.67
881.714	23.38
881.886	-7.34
882.058	-68.78
882.23	0.85
882.402	4.95
882.574	23.38
882.746	25.43
882.918	19.29
883.09	39.76
883.262	-11.43
883.434	54.1
883.606	-105.64
883.778	29.52
883.95	50
884.122	-33.96
884.293	56.15
884.465	17.24
884.637	95.06
884.809	-64.68
884.98	39.76
885.152	17.24
885.324	13.14
885.496	-95.4
885.667	-76.97
885.839	-54.44
886.011	39.76
886.182	-19.63
886.354	82.77
886.525	47.96
886.697	41.81
886.869	-46.25
887.04	15.19
887.212	133.97
887.383	160.59
887.555	0.85
887.726	-126.12
887.897	-19.63
888.069	25.43
888.24	50
888.412	84.82
888.583	-40.11
888.754	-38.06
888.926	-183.46
889.097	-50.35
889.268	-36.01
889.44	33.62
889.611	-19.63
889.782	-64.68
889.953	-66.73
890.125	76.63
890.296	-60.59
890.467	21.33
890.638	-19.63
890.809	-11.43
890.98	-40.11
891.151	17.24
891.323	43.86
891.494	37.72
891.665	84.82
891.836	27.48
892.007	-62.63
892.178	-11.43
892.349	41.81
892.52	-132.26
892.691	52.05
892.862	-46.25
893.032	-91.31
893.203	-99.5
893.374	93.01
893.545	127.83
893.716	-126.12
893.887	62.29
894.057	-44.2
894.228	41.81
894.399	33.62
894.57	50
894.74	-3.24
894.911	37.72
895.082	2.9
895.253	-97.45
895.423	-1.19
895.594	27.48
895.764	0.85
895.935	-152.74
896.106	74.58
896.276	-38.06
896.447	-7.34
896.617	-154.79
896.788	-19.63
896.958	-36.01
897.129	15.19
897.299	-64.68
897.47	148.31
897.64	-11.43
897.81	-40.11
897.981	97.11
898.151	-9.39
898.322	2.9
898.492	25.43
898.662	-60.59
898.832	21.33
899.003	-60.59
899.173	25.43
899.343	-58.54
899.513	-97.45
