Data from USB4F104151__112__10-45-52-459.txt Node

Date: Wed Feb 26 10:45:52 EST 2025
User: louis
Spectrometer: USB4F10415
Trigger mode: 4
Integration Time (sec): 1.000000E-1
Scans to average: 1
Electric dark correction enabled: true
Nonlinearity correction enabled: false
Boxcar width: 0
XAxis mode: Wavelengths
Number of Pixels in Spectrum: 3648
>>>>>Begin Spectral Data<<<<<
178.204	-391.16
178.424	-391.16
178.644	-391.16
178.864	-432.12
179.084	-393.21
179.304	-55.3
179.524	-10.24
179.744	-16.38
179.964	45.06
180.184	20.48
180.404	8.19
180.624	2.05
180.844	16.38
181.064	-57.34
181.283	38.91
181.503	-38.91
181.723	47.1
181.943	-49.15
182.163	190.46
182.383	-69.63
182.602	51.2
182.822	196.6
183.042	102.4
183.262	-40.96
183.482	-22.53
183.701	-26.62
183.921	94.21
184.141	-57.34
184.361	47.1
184.58	137.21
184.8	-14.34
185.02	-12.29
185.239	53.25
185.459	38.91
185.679	126.97
185.898	-32.77
186.118	34.82
186.338	67.58
186.557	102.4
186.777	-110.59
186.997	-63.49
187.216	-28.67
187.436	163.84
187.655	40.96
187.875	73.73
188.095	-28.67
188.314	167.93
188.534	180.22
188.753	-28.67
188.973	92.16
189.192	153.6
189.412	51.2
189.631	53.25
189.851	116.73
190.07	106.49
190.29	-49.15
190.509	-106.49
190.729	16.38
190.948	106.49
191.168	233.47
191.387	81.92
191.607	-57.34
191.826	63.49
192.045	6.14
192.265	16.38
192.484	71.68
192.704	-10.24
192.923	-79.87
193.142	202.75
193.362	57.34
193.581	155.65
193.8	57.34
194.02	139.26
194.239	-4.1
194.458	86.01
194.678	16.38
194.897	18.43
195.116	34.82
195.335	81.92
195.555	24.58
195.774	26.62
195.993	135.17
196.212	53.25
196.432	-14.34
196.651	-45.06
196.87	-20.48
197.089	266.24
197.308	86.01
197.528	24.58
197.747	-53.25
197.966	49.15
198.185	135.17
198.404	-26.62
198.623	110.59
198.842	75.77
199.062	98.3
199.281	83.97
199.5	45.06
199.719	53.25
199.938	16.38
200.157	53.25
200.376	141.31
200.595	141.31
200.814	65.53
201.033	-26.62
201.252	178.17
201.471	65.53
201.69	47.1
201.909	51.2
202.128	86.01
202.347	38.91
202.566	32.77
202.785	-55.3
203.004	12.29
203.223	303.1
203.442	38.91
203.661	-16.38
203.879	129.02
204.098	55.3
204.317	-43.01
204.536	14.34
204.755	112.64
204.974	124.93
205.193	-55.3
205.411	147.45
205.63	102.4
205.849	57.34
206.068	61.44
206.287	-8.19
206.505	122.88
206.724	8.19
206.943	-32.77
207.162	63.49
207.381	65.53
207.599	122.88
207.818	81.92
208.037	53.25
208.255	18.43
208.474	79.87
208.693	-16.38
208.911	16.38
209.13	69.63
209.349	178.17
209.567	112.64
209.786	-6.14
210.005	94.21
210.223	61.44
210.442	-77.82
210.661	49.15
210.879	49.15
211.098	30.72
211.316	43.01
211.535	98.3
211.753	81.92
211.972	94.21
212.191	-53.25
212.409	-36.86
212.628	14.34
212.846	-75.77
213.065	32.77
213.283	53.25
213.502	16.38
213.72	10.24
213.938	-38.91
214.157	-6.14
214.375	34.82
214.594	14.34
214.812	67.58
215.031	34.82
215.249	49.15
215.467	47.1
215.686	32.77
215.904	110.59
216.122	8.19
216.341	102.4
216.559	45.06
216.778	122.88
216.996	151.55
217.214	51.2
217.432	12.29
217.651	-49.15
217.869	32.77
218.087	30.72
218.306	24.58
218.524	49.15
218.742	4.1
218.96	57.34
219.179	-20.48
219.397	51.2
219.615	212.99
219.833	77.82
220.051	26.62
220.27	34.82
220.488	38.91
220.706	110.59
220.924	12.29
221.142	34.82
221.36	59.39
221.578	90.11
221.796	71.68
222.015	-4.1
222.233	57.34
222.451	208.89
222.669	2.05
222.887	45.06
223.105	-0
223.323	-14.34
223.541	-4.1
223.759	100.35
223.977	-2.05
224.195	176.13
224.413	83.97
224.631	73.73
224.849	88.06
225.067	272.38
225.285	38.91
225.503	-20.48
225.721	-30.72
225.939	100.35
226.157	69.63
226.375	188.41
226.592	-86.01
226.81	-6.14
227.028	61.44
227.246	112.64
227.464	90.11
227.682	86.01
227.9	106.49
228.117	59.39
228.335	36.86
228.553	88.06
228.771	43.01
228.989	28.67
229.206	147.45
229.424	53.25
229.642	71.68
229.86	6.14
230.077	135.17
230.295	120.83
230.513	124.93
230.731	34.82
230.948	268.28
231.166	126.97
231.384	14.34
231.601	16.38
231.819	79.87
232.037	12.29
232.254	-75.77
232.472	88.06
232.689	-24.58
232.907	129.02
233.125	34.82
233.342	34.82
233.56	2.05
233.777	73.73
233.995	-30.72
234.213	151.55
234.43	61.44
234.648	47.1
234.865	47.1
235.083	22.53
235.3	22.53
235.518	92.16
235.735	75.77
235.953	69.63
236.17	61.44
236.388	40.96
236.605	20.48
236.822	49.15
237.04	135.17
237.257	69.63
237.475	51.2
237.692	34.82
237.909	57.34
238.127	55.3
238.344	43.01
238.562	-69.63
238.779	-92.16
238.996	-22.53
239.214	55.3
239.431	71.68
239.648	-30.72
239.865	155.65
240.083	88.06
240.3	-34.82
240.517	-32.77
240.735	38.91
240.952	118.78
241.169	131.07
241.386	81.92
241.603	20.48
241.821	10.24
242.038	116.73
242.255	77.82
242.472	-49.15
242.689	38.91
242.907	86.01
243.124	16.38
243.341	28.67
243.558	2.05
243.775	-12.29
243.992	-30.72
244.209	83.97
244.426	137.21
244.643	4.1
244.86	65.53
245.078	90.11
245.295	114.69
245.512	30.72
245.729	-14.34
245.946	86.01
246.163	26.62
246.38	-4.1
246.597	65.53
246.814	6.14
247.031	65.53
247.248	77.82
247.464	-12.29
247.681	-24.58
247.898	40.96
248.115	30.72
248.332	34.82
248.549	147.45
248.766	167.93
248.983	149.5
249.2	94.21
249.417	108.54
249.633	32.77
249.85	81.92
250.067	-0
250.284	53.25
250.501	36.86
250.717	131.07
250.934	36.86
251.151	2.05
251.368	-0
251.585	51.2
251.801	75.77
252.018	40.96
252.235	139.26
252.451	-75.77
252.668	30.72
252.885	40.96
253.102	32.77
253.318	-12.29
253.535	-36.86
253.752	-0
253.968	-2.05
254.185	-112.64
254.401	47.1
254.618	24.58
254.835	-22.53
255.051	139.26
255.268	63.49
255.484	59.39
255.701	-45.06
255.917	71.68
256.134	-8.19
256.351	4.1
256.567	34.82
256.784	-12.29
257	-63.49
257.217	94.21
257.433	77.82
257.65	32.77
257.866	114.69
258.082	-36.86
258.299	-26.62
258.515	114.69
258.732	-4.1
258.948	-43.01
259.165	88.06
259.381	-86.01
259.597	-0
259.814	38.91
260.03	20.48
260.246	22.53
260.463	59.39
260.679	153.6
260.895	18.43
261.112	4.1
261.328	-65.54
261.544	-12.29
261.761	114.69
261.977	20.48
262.193	-129.02
262.409	53.25
262.626	65.53
262.842	43.01
263.058	-22.53
263.274	81.92
263.49	73.73
263.707	53.25
263.923	124.93
264.139	-100.35
264.355	47.1
264.571	36.86
264.787	81.92
265.004	73.73
265.22	20.48
265.436	22.53
265.652	-36.86
265.868	67.58
266.084	-79.87
266.3	32.77
266.516	-45.06
266.732	96.25
266.948	45.06
267.164	-2.05
267.38	122.88
267.596	36.86
267.812	169.98
268.028	32.77
268.244	38.91
268.46	69.63
268.676	16.38
268.892	14.34
269.108	-40.96
269.324	-16.38
269.54	-2.05
269.756	47.1
269.972	-153.6
270.188	6.14
270.403	-16.38
270.619	71.68
270.835	57.34
271.051	10.24
271.267	-73.73
271.483	-36.86
271.698	88.06
271.914	102.4
272.13	63.49
272.346	-2.05
272.562	-0
272.777	98.3
272.993	94.21
273.209	-30.72
273.425	32.77
273.64	-45.06
273.856	63.49
274.072	-22.53
274.287	40.96
274.503	18.43
274.719	65.53
274.934	45.06
275.15	57.34
275.366	-47.1
275.581	-14.34
275.797	22.53
276.012	63.49
276.228	-34.82
276.444	8.19
276.659	114.69
276.875	69.63
277.09	10.24
277.306	-24.58
277.521	4.1
277.737	-2.05
277.952	90.11
278.168	4.1
278.383	75.77
278.599	24.58
278.814	28.67
279.03	67.58
279.245	90.11
279.461	38.91
279.676	92.16
279.892	-40.96
280.107	-90.11
280.322	-20.48
280.538	67.58
280.753	-14.34
280.969	81.92
281.184	90.11
281.399	59.39
281.615	47.1
281.83	47.1
282.045	18.43
282.26	-28.67
282.476	120.83
282.691	120.83
282.906	51.2
283.122	-8.19
283.337	-0
283.552	129.02
283.767	-43.01
283.983	65.53
284.198	40.96
284.413	77.82
284.628	-26.62
284.843	38.91
285.058	51.2
285.274	-2.05
285.489	-22.53
285.704	155.65
285.919	45.06
286.134	36.86
286.349	8.19
286.564	36.86
286.779	114.69
286.995	-16.38
287.21	-22.53
287.425	124.93
287.64	-10.24
287.855	55.3
288.07	-63.49
288.285	116.73
288.5	86.01
288.715	106.49
288.93	28.67
289.145	28.67
289.36	47.1
289.575	71.68
289.79	131.07
290.004	-20.48
290.219	26.62
290.434	8.19
290.649	-24.58
290.864	69.63
291.079	45.06
291.294	55.3
291.509	118.78
291.724	24.58
291.938	-6.14
292.153	49.15
292.368	14.34
292.583	28.67
292.798	108.54
293.012	10.24
293.227	96.25
293.442	16.38
293.657	61.44
293.871	36.86
294.086	-45.06
294.301	83.97
294.516	53.25
294.73	63.49
294.945	32.77
295.16	28.67
295.374	63.49
295.589	163.84
295.804	79.87
296.018	73.73
296.233	45.06
296.447	53.25
296.662	55.3
296.877	57.34
297.091	20.48
297.306	131.07
297.52	22.53
297.735	57.34
297.949	49.15
298.164	28.67
298.378	-53.25
298.593	2.05
298.807	-47.1
299.022	14.34
299.236	88.06
299.451	-61.44
299.665	55.3
299.88	77.82
300.094	65.53
300.309	47.1
300.523	96.25
300.737	18.43
300.952	26.62
301.166	81.92
301.381	-2.05
301.595	-22.53
301.809	53.25
302.024	-34.82
302.238	-126.97
302.452	151.55
302.667	-24.58
302.881	112.64
303.095	149.5
303.309	98.3
303.524	-69.63
303.738	40.96
303.952	36.86
304.166	131.07
304.381	-174.08
304.595	147.45
304.809	24.58
305.023	-28.67
305.237	20.48
305.452	57.34
305.666	69.63
305.88	45.06
306.094	131.07
306.308	55.3
306.522	131.07
306.736	30.72
306.95	92.16
307.164	18.43
307.379	73.73
307.593	61.44
307.807	51.2
308.021	106.49
308.235	32.77
308.449	-106.49
308.663	53.25
308.877	200.7
309.091	30.72
309.305	81.92
309.519	-51.2
309.733	71.68
309.947	-73.73
310.161	10.24
310.374	20.48
310.588	118.78
310.802	-10.24
311.016	36.86
311.23	-8.19
311.444	-34.82
311.658	59.39
311.872	79.87
312.085	61.44
312.299	108.54
312.513	122.88
312.727	12.29
312.941	2.05
313.154	92.16
313.368	51.2
313.582	-36.86
313.796	34.82
314.009	32.77
314.223	178.17
314.437	77.82
314.651	51.2
314.864	-67.58
315.078	-18.43
315.292	-18.43
315.505	-16.38
315.719	61.44
315.933	83.97
316.146	-40.96
316.36	65.53
316.573	176.13
316.787	-32.77
317.001	69.63
317.214	-38.91
317.428	20.48
317.641	-38.91
317.855	-55.3
318.068	51.2
318.282	-30.72
318.495	229.37
318.709	22.53
318.922	4.1
319.136	153.6
319.349	131.07
319.563	53.25
319.776	34.82
319.99	-100.35
320.203	135.17
320.417	57.34
320.63	135.17
320.843	133.12
321.057	83.97
321.27	-2.05
321.483	61.44
321.697	147.45
321.91	120.83
322.124	18.43
322.337	34.82
322.55	-106.49
322.763	-12.29
322.977	-77.82
323.19	63.49
323.403	-4.1
323.617	149.5
323.83	122.88
324.043	43.01
324.256	38.91
324.469	10.24
324.683	135.17
324.896	-6.14
325.109	53.25
325.322	-67.58
325.535	92.16
325.748	75.77
325.962	18.43
326.175	59.39
326.388	61.44
326.601	94.21
326.814	-30.72
327.027	-40.96
327.24	145.41
327.453	-45.06
327.666	110.59
327.879	124.93
328.092	49.15
328.305	-0
328.518	-8.19
328.731	14.34
328.944	-0
329.157	-14.34
329.37	28.67
329.583	212.99
329.796	118.78
330.009	-30.72
330.222	98.3
330.435	75.77
330.648	22.53
330.861	32.77
331.073	16.38
331.286	110.59
331.499	45.06
331.712	-18.43
331.925	-34.82
332.138	-28.67
332.35	88.06
332.563	16.38
332.776	98.3
332.989	-43.01
333.202	14.34
333.414	57.34
333.627	49.15
333.84	30.72
334.053	4.1
334.265	-49.15
334.478	83.97
334.691	-83.97
334.903	26.62
335.116	45.06
335.329	6.14
335.541	165.89
335.754	167.93
335.966	-10.24
336.179	-61.44
336.392	-79.87
336.604	86.01
336.817	141.31
337.029	51.2
337.242	59.39
337.454	100.35
337.667	57.34
337.88	161.79
338.092	67.58
338.305	51.2
338.517	-20.48
338.729	-2.05
338.942	67.58
339.154	24.58
339.367	-16.38
339.579	106.49
339.792	-26.62
340.004	59.39
340.217	-12.29
340.429	45.06
340.641	-18.43
340.854	-20.48
341.066	-38.91
341.278	69.63
341.491	161.79
341.703	-16.38
341.915	36.86
342.128	67.58
342.34	14.34
342.552	-28.67
342.764	83.97
342.977	61.44
343.189	55.3
343.401	53.25
343.613	-106.49
343.826	49.15
344.038	-40.96
344.25	-4.1
344.462	51.2
344.674	49.15
344.886	8.19
345.099	94.21
345.311	-40.96
345.523	20.48
345.735	-45.06
345.947	57.34
346.159	63.49
346.371	73.73
346.583	26.62
346.795	172.03
347.007	40.96
347.219	63.49
347.431	81.92
347.643	43.01
347.855	-6.14
348.067	139.26
348.279	-6.14
348.491	77.82
348.703	98.3
348.915	40.96
349.127	-67.58
349.339	8.19
349.551	-24.58
349.763	6.14
349.975	-6.14
350.187	73.73
350.399	221.18
350.61	98.3
350.822	26.62
351.034	106.49
351.246	2.05
351.458	94.21
351.669	22.53
351.881	174.08
352.093	135.17
352.305	106.49
352.517	98.3
352.728	135.17
352.94	81.92
353.152	100.35
353.363	-63.49
353.575	79.87
353.787	165.89
353.999	61.44
354.21	143.36
354.422	34.82
354.633	-71.68
354.845	100.35
355.057	36.86
355.268	-32.77
355.48	63.49
355.692	-90.11
355.903	-2.05
356.115	-8.19
356.326	-45.06
356.538	120.83
356.749	16.38
356.961	174.08
357.172	77.82
357.384	12.29
357.595	212.99
357.807	2.05
358.018	-0
358.23	-108.54
358.441	153.6
358.653	40.96
358.864	51.2
359.075	14.34
359.287	22.53
359.498	65.53
359.709	40.96
359.921	53.25
360.132	92.16
360.344	55.3
360.555	-8.19
360.766	-43.01
360.977	30.72
361.189	143.36
361.4	28.67
361.611	94.21
361.823	63.49
362.034	22.53
362.245	-114.69
362.456	12.29
362.667	139.26
362.879	20.48
363.09	8.19
363.301	-16.38
363.512	-0
363.723	-8.19
363.935	-45.06
364.146	94.21
364.357	20.48
364.568	57.34
364.779	-77.82
364.99	194.56
365.201	26.62
365.412	114.69
365.623	24.58
365.834	57.34
366.045	-34.82
366.256	4.1
366.467	79.87
366.678	-26.62
366.889	75.77
367.1	24.58
367.311	98.3
367.522	24.58
367.733	98.3
367.944	38.91
368.155	24.58
368.366	147.45
368.577	139.26
368.788	90.11
368.999	-38.91
369.209	69.63
369.42	196.6
369.631	196.6
369.842	94.21
370.053	-4.1
370.264	55.3
370.474	-20.48
370.685	40.96
370.896	28.67
371.107	108.54
371.317	-12.29
371.528	14.34
371.739	49.15
371.95	88.06
372.16	102.4
372.371	-65.54
372.582	51.2
372.792	36.86
373.003	45.06
373.214	38.91
373.424	83.97
373.635	16.38
373.846	100.35
374.056	-24.58
374.267	75.77
374.477	-8.19
374.688	-96.25
374.898	131.07
375.109	108.54
375.319	81.92
375.53	38.91
375.74	22.53
375.951	-20.48
376.161	61.44
376.372	122.88
376.582	45.06
376.793	-14.34
377.003	-49.15
377.214	12.29
377.424	92.16
377.635	-38.91
377.845	55.3
378.055	112.64
378.266	-38.91
378.476	49.15
378.686	149.5
378.897	-6.14
379.107	102.4
379.317	69.63
379.528	-16.38
379.738	157.69
379.948	-24.58
380.158	94.21
380.369	83.97
380.579	165.89
380.789	-67.58
380.999	86.01
381.21	153.6
381.42	155.65
381.63	-57.34
381.84	57.34
382.05	34.82
382.261	176.13
382.471	98.3
382.681	-10.24
382.891	131.07
383.101	28.67
383.311	-55.3
383.521	-26.62
383.731	73.73
383.941	67.58
384.151	79.87
384.361	4.1
384.571	45.06
384.781	59.39
384.991	172.03
385.201	235.52
385.411	63.49
385.621	96.25
385.831	49.15
386.041	36.86
386.251	26.62
386.461	96.25
386.671	2.05
386.881	-0
387.091	94.21
387.301	104.45
387.511	88.06
387.72	73.73
387.93	2.05
388.14	-22.53
388.35	57.34
388.56	106.49
388.769	63.49
388.979	-75.77
389.189	-0
389.399	51.2
389.609	86.01
389.818	98.3
390.028	86.01
390.238	45.06
390.447	24.58
390.657	51.2
390.867	18.43
391.076	-24.58
391.286	49.15
391.496	59.39
391.705	40.96
391.915	131.07
392.125	118.78
392.334	-26.62
392.544	172.03
392.753	-0
392.963	36.86
393.172	67.58
393.382	12.29
393.591	110.59
393.801	-18.43
394.01	174.08
394.22	104.45
394.429	-10.24
394.639	92.16
394.848	106.49
395.058	69.63
395.267	57.34
395.477	81.92
395.686	36.86
395.895	208.89
396.105	217.08
396.314	83.97
396.524	47.1
396.733	10.24
396.942	139.26
397.152	24.58
397.361	129.02
397.57	131.07
397.78	147.45
397.989	57.34
398.198	143.36
398.407	24.58
398.617	-20.48
398.826	131.07
399.035	30.72
399.244	151.55
399.453	34.82
399.663	-53.25
399.872	69.63
400.081	-77.82
400.29	165.89
400.499	-8.19
400.708	102.4
400.917	100.35
401.127	-18.43
401.336	32.77
401.545	200.7
401.754	147.45
401.963	157.69
402.172	79.87
402.381	-28.67
402.59	26.62
402.799	18.43
403.008	143.36
403.217	67.58
403.426	63.49
403.635	6.14
403.844	88.06
404.053	51.2
404.262	-12.29
404.471	137.21
404.68	151.55
404.888	43.01
405.097	24.58
405.306	45.06
405.515	98.3
405.724	14.34
405.933	94.21
406.142	63.49
406.35	120.83
406.559	22.53
406.768	100.35
406.977	135.17
407.185	106.49
407.394	141.31
407.603	-51.2
407.812	40.96
408.02	63.49
408.229	26.62
408.438	145.41
408.646	-34.82
408.855	51.2
409.064	77.82
409.272	69.63
409.481	10.24
409.69	-77.82
409.898	-22.53
410.107	53.25
410.315	67.58
410.524	43.01
410.733	79.87
410.941	75.77
411.15	65.53
411.358	102.4
411.567	135.17
411.775	55.3
411.984	55.3
412.192	100.35
412.401	6.14
412.609	178.17
412.818	149.5
413.026	63.49
413.234	32.77
413.443	-0
413.651	-4.1
413.86	122.88
414.068	32.77
414.276	143.36
414.485	10.24
414.693	174.08
414.901	120.83
415.11	-6.14
415.318	34.82
415.526	36.86
415.734	69.63
415.943	20.48
416.151	182.27
416.359	28.67
416.567	53.25
416.776	71.68
416.984	143.36
417.192	137.21
417.4	-47.1
417.608	53.25
417.817	-67.58
418.025	116.73
418.233	151.55
418.441	51.2
418.649	-69.63
418.857	16.38
419.065	178.17
419.273	88.06
419.481	47.1
419.689	10.24
419.897	-12.29
420.105	-47.1
420.313	137.21
420.521	141.31
420.729	137.21
420.937	-0
421.145	-10.24
421.353	106.49
421.561	135.17
421.769	104.45
421.977	4.1
422.185	96.25
422.393	63.49
422.601	88.06
422.809	10.24
423.017	65.53
423.224	-24.58
423.432	129.02
423.64	10.24
423.848	126.97
424.056	-10.24
424.263	81.92
424.471	10.24
424.679	202.75
424.887	-83.97
425.094	241.66
425.302	81.92
425.51	30.72
425.718	100.35
425.925	34.82
426.133	-6.14
426.341	258.04
426.548	59.39
426.756	-26.62
426.964	75.77
427.171	-6.14
427.379	104.45
427.586	131.07
427.794	124.93
428.001	96.25
428.209	180.22
428.417	159.74
428.624	65.53
428.832	159.74
429.039	22.53
429.247	49.15
429.454	81.92
429.662	198.65
429.869	131.07
430.076	18.43
430.284	165.89
430.491	184.32
430.699	51.2
430.906	221.18
431.114	92.16
431.321	137.21
431.528	129.02
431.736	184.32
431.943	155.65
432.15	135.17
432.358	167.93
432.565	233.47
432.772	4.1
432.979	169.98
433.187	147.45
433.394	202.75
433.601	114.69
433.808	217.08
434.016	245.76
434.223	204.8
434.43	94.21
434.637	309.24
434.844	243.71
435.052	286.72
435.259	266.24
435.466	210.94
435.673	245.76
435.88	278.52
436.087	272.38
436.294	262.14
436.501	305.15
436.708	182.27
436.915	274.43
437.122	305.15
437.329	204.8
437.537	296.96
437.743	339.96
437.95	417.79
438.157	376.83
438.364	440.31
438.571	376.83
438.778	358.39
438.985	389.11
439.192	481.27
439.399	389.11
439.606	436.22
439.813	636.92
440.02	604.15
440.227	552.95
440.433	452.6
440.64	442.36
440.847	419.83
441.054	550.9
441.261	690.17
441.467	641.01
441.674	526.33
441.881	696.31
442.088	630.77
442.294	626.68
442.501	727.03
442.708	745.46
442.914	765.94
443.121	745.46
443.328	806.9
443.534	907.25
443.741	837.62
443.948	776.18
444.154	911.35
444.361	1075.18
444.568	983.02
444.774	806.9
444.981	933.87
445.187	1095.66
445.394	1124.33
445.6	972.79
445.807	1157.1
446.013	1204.21
446.22	1183.73
446.426	1325.04
446.633	1386.47
446.839	1548.26
447.046	1386.47
447.252	1511.4
447.459	1492.97
447.665	1544.17
447.871	1703.91
448.078	1794.02
448.284	1822.69
448.491	1826.79
448.697	1914.85
448.903	2105.31
449.11	2007.01
449.316	2013.15
449.522	2258.91
449.728	2230.24
449.935	2351.07
450.141	2318.3
450.347	2482.14
450.553	2494.43
450.76	2488.28
450.966	2731.99
451.172	2777.05
451.378	2885.59
451.584	2920.4
451.791	3186.64
451.997	3364.81
452.203	3428.3
452.409	3377.1
452.615	3729.35
452.821	3571.66
453.027	3622.86
453.233	4126.66
453.44	4018.11
453.646	4118.47
453.852	4372.41
454.058	4476.86
454.264	4609.98
454.47	4902.84
454.676	4792.25
454.882	5216.18
455.088	5117.87
455.294	5367.73
455.5	5644.2
455.705	6326.18
455.911	5994.4
456.117	6211.49
456.323	6502.3
456.529	6475.68
456.735	7004.05
456.941	7421.84
457.147	7559.05
457.352	7618.44
457.558	7989.13
457.764	8515.45
457.97	8603.52
458.176	9029.49
458.381	9328.5
458.587	9809.77
458.793	10164.07
458.999	9942.89
459.204	11312.98
459.41	11702.09
459.616	11552.59
459.821	12250.95
460.027	12840.76
460.233	13403.96
460.438	13397.81
460.644	13954.86
460.85	14319.4
461.055	15068.95
461.261	15286.04
461.466	15296.28
461.672	15591.19
461.878	17522.42
462.083	17291
462.289	17641.2
462.494	18028.27
462.7	18601.7
462.905	18622.18
463.111	20131.53
463.316	21176
463.522	21319.35
463.727	21972.66
463.932	23191.2
464.138	23559.83
464.343	24430.22
464.549	24819.33
464.754	26812.01
464.959	27324
465.165	27518.56
465.37	27717.21
465.575	27629.15
465.781	29378.11
465.986	30563.89
466.191	29939.26
466.397	30387.76
466.602	29423.17
466.807	31014.44
467.012	31548.96
467.218	32237.08
467.423	32355.86
467.628	33629.69
467.833	35405.28
468.038	34215.41
468.244	33836.54
468.449	35548.64
468.654	34264.57
468.859	34260.47
469.064	34964.97
469.269	33644.03
469.474	34113.02
469.679	35163.62
469.885	34348.53
470.09	34960.87
470.295	34700.78
470.5	33891.83
470.705	34153.97
470.91	33369.6
471.115	32859.66
471.32	33101.32
471.525	33482.24
471.73	32445.97
471.935	31868.44
472.139	30793.26
472.344	31147.56
472.549	30694.96
472.754	30144.05
472.959	29398.59
473.164	28708.43
473.369	28413.52
473.574	29150.79
473.778	28300.88
473.983	27805.27
474.188	27571.8
474.393	26127.99
474.598	26025.59
474.802	25233.02
475.007	24880.77
475.212	24809.09
475.417	23807.64
475.621	23733.91
475.826	23391.9
476.031	22902.43
476.235	22443.69
476.44	22212.27
476.645	21864.11
476.849	21567.16
477.054	21362.36
477.259	20819.65
477.463	20444.87
477.668	19979.98
477.872	19904.21
478.077	19345.11
478.282	19183.32
478.486	18732.77
478.691	18663.14
478.895	18501.35
479.1	18460.39
479.304	18304.74
479.509	17647.35
479.713	17762.03
479.918	17479.41
480.122	17086.2
480.326	17506.04
480.531	17141.5
480.735	16873.21
480.94	16670.47
481.144	17198.84
481.348	16461.57
481.553	16256.78
481.757	15994.64
481.961	16074.51
482.166	15998.73
482.37	15949.58
482.574	15582.99
482.778	15732.5
482.983	15879.95
483.187	15359.77
483.391	15249.18
483.595	15185.69
483.8	14946.08
484.004	14991.13
484.208	14886.68
484.412	14722.85
484.616	14432.04
484.821	14610.21
485.025	13893.42
485.229	13975.34
485.433	13891.37
485.637	13725.49
485.841	13561.65
486.045	13293.37
486.249	13285.17
486.453	13049.66
486.657	12928.83
486.861	12832.57
487.065	12164.93
487.269	12314.44
487.473	11976.52
487.677	11900.75
487.881	11956.04
488.085	11575.12
488.289	11474.77
488.493	10934.11
488.697	11106.13
488.901	10667.87
489.105	10583.9
489.309	10471.26
489.512	10166.12
489.716	10125.16
489.92	9908.07
490.124	9643.88
490.328	9611.12
490.531	9240.43
490.735	9166.71
490.939	9342.83
491.143	8806.27
491.346	8736.63
491.55	8564.61
491.754	8355.71
491.958	8259.46
492.161	8230.79
492.365	8183.68
492.569	8064.9
492.772	7724.94
492.976	7581.58
493.18	7772.04
493.383	7561.1
493.587	7434.13
493.79	7499.66
493.994	7081.88
494.197	7204.75
494.401	7221.14
494.605	7034.77
494.808	7124.88
495.012	6924.18
495.215	6946.71
495.419	7042.96
495.622	6768.54
495.825	6733.72
496.029	6696.86
496.232	6705.05
496.436	6459.29
496.639	6801.3
496.843	6629.27
497.046	6604.7
497.249	6672.28
497.453	6659.99
497.656	6504.35
497.859	6713.24
498.063	6700.95
498.266	6555.55
498.469	6401.95
498.673	6637.47
498.876	6594.46
499.079	6668.19
499.282	6608.8
499.485	6987.67
499.689	6780.82
499.892	6854.55
500.095	6723.48
500.298	6840.22
500.501	6817.69
500.705	7085.97
500.908	6854.55
501.111	7010.2
501.314	7153.55
501.517	7247.76
501.72	7204.75
501.923	7126.93
502.126	7305.1
502.329	7509.9
502.532	7542.67
502.735	7559.05
502.938	7927.69
503.141	7763.85
503.344	7710.6
503.547	8040.33
503.75	8007.56
503.953	8251.27
504.156	8349.57
504.359	8341.38
504.562	8464.25
504.765	8796.03
504.968	8765.31
505.17	8947.58
505.373	8867.7
505.576	9197.43
505.779	9531.25
505.982	9557.87
506.185	9781.1
506.387	9633.65
506.59	10030.95
506.793	9977.7
506.996	10354.53
507.198	10499.94
507.401	10800.99
507.604	10549.09
507.807	11052.89
508.009	11425.62
508.212	11462.48
508.415	11548.5
508.617	11980.62
508.82	12101.45
509.022	12255.05
509.225	12568.38
509.428	12615.49
509.63	12898.11
509.833	13182.77
510.035	13758.25
510.238	13877.04
510.44	14253.86
510.643	14698.27
510.845	14817.05
511.048	14841.63
511.25	15523.6
511.453	15652.63
511.655	16576.26
511.858	16432.9
512.06	17094.4
512.262	17368.82
512.465	17364.73
512.667	18188.01
512.87	18120.43
513.072	19070.68
513.274	19158.75
513.477	19855.06
513.679	19975.89
513.881	20668.1
514.084	20899.52
514.286	21522.1
514.488	21765.81
514.69	22431.4
514.893	22742.69
515.095	23037.6
515.297	23858.84
515.499	24090.26
515.701	24665.74
515.904	25482.88
516.106	25765.49
516.308	26383.98
516.51	27039.33
516.712	27426.4
516.914	27885.14
517.116	28651.08
517.318	28831.3
517.52	29302.34
517.722	30017.08
517.925	30453.3
518.127	31417.89
518.329	31735.32
518.531	31983.13
518.733	32480.78
518.935	33295.88
519.136	33519.1
519.338	34307.57
519.54	34751.98
519.742	35321.32
519.944	35896.8
520.146	36728.27
520.348	36885.97
520.55	37463.49
520.752	37787.07
520.954	38651.31
521.155	38395.32
521.357	39165.35
521.559	39622.05
521.761	40588.69
521.963	40367.51
522.164	40625.56
522.366	40832.4
522.568	41629.06
522.77	41835.91
522.971	42308.99
523.173	42255.74
523.375	42825.07
523.576	42780.02
523.778	42857.84
523.98	43935.07
524.181	43550.06
524.383	43466.09
524.584	44197.21
524.786	44086.62
524.988	43742.56
525.189	44264.8
525.391	44129.63
525.592	44545.37
525.794	44201.31
525.995	44062.05
526.197	44258.65
526.398	44041.57
526.6	44758.36
526.801	44215.65
527.003	44303.71
527.204	44270.94
527.406	44418.39
527.607	43642.21
527.808	43836.77
528.01	42853.75
528.211	43058.54
528.412	43279.72
528.614	42913.14
528.815	42091.9
529.016	42710.39
529.218	41414.02
529.419	41663.88
529.62	40942.99
529.822	41043.34
530.023	40435.09
530.224	40119.71
530.425	39585.19
530.626	39036.33
530.828	38682.03
531.029	39122.35
531.23	38041.02
531.431	37418.44
531.632	37303.75
531.833	37004.75
532.035	36978.12
532.236	35864.03
532.437	35882.46
532.638	35059.18
532.839	34549.23
533.04	34657.78
533.241	33707.52
533.442	33826.3
533.643	33549.82
533.844	32818.7
534.045	32661.01
534.246	31628.83
534.447	31645.21
534.648	31299.11
534.849	30651.95
535.05	30236.21
535.251	29529.66
535.451	29824.57
535.652	29183.55
535.853	28702.28
536.054	28259.92
536.255	27975.25
536.456	27477.6
536.657	27356.77
536.857	26957.41
537.058	26281.58
537.259	26289.77
537.46	25597.56
537.66	25345.66
537.861	25069.19
538.062	24542.86
538.263	24809.09
538.463	23994
538.664	23826.07
538.865	23594.65
539.065	23596.7
539.266	23029.41
539.466	22818.47
539.667	22249.13
539.868	22564.52
540.068	21874.35
540.269	22038.19
540.469	21411.51
540.67	21020.35
540.87	20842.18
541.071	20664
541.271	20524.74
541.472	19904.21
541.672	19844.82
541.873	19635.92
542.073	19218.14
542.274	19250.91
542.474	19146.46
542.675	18759.39
542.875	18544.36
543.075	18255.59
543.276	17788.66
543.476	17948.4
543.676	17757.94
543.877	17669.87
544.077	17616.63
544.277	16944.89
544.478	16772.86
544.678	16635.65
544.878	16285.45
545.078	16391.94
545.279	16219.91
545.479	15886.09
545.679	15941.39
545.879	15767.31
546.079	15468.31
546.28	15361.81
546.48	14958.36
546.68	15384.34
546.88	14774.05
547.08	14821.15
547.28	14364.45
547.48	14004.01
547.68	14067.5
547.88	13725.49
548.081	13958.95
548.281	13510.45
548.481	13438.77
548.681	13596.46
548.881	13043.51
549.081	12971.83
549.28	12681.02
549.48	12715.84
549.68	12513.09
549.88	12326.72
550.08	12023.62
550.28	11878.22
550.48	11827.02
550.68	11603.79
550.88	11226.96
551.08	11181.91
551.279	11321.17
551.479	10930.01
551.679	10909.53
551.879	10620.77
552.079	10532.7
552.278	10301.28
552.478	10334.05
552.678	9879.4
552.878	9961.32
553.077	9736.04
553.277	9516.91
553.477	9404.27
553.676	9318.26
553.876	9377.65
554.076	8933.24
554.275	9017.21
554.475	8449.92
554.674	8603.52
554.874	8464.25
555.074	8091.52
555.273	8284.03
555.473	8128.39
555.672	7921.54
555.872	7819.14
556.071	7696.27
556.271	7671.69
556.47	7610.25
556.67	7403.41
556.869	7282.58
557.068	7122.84
557.268	7006.1
557.467	6844.31
557.667	6791.06
557.866	6768.54
558.065	6524.83
558.265	6311.84
558.464	6344.61
558.663	6258.59
558.863	6041.51
559.062	6064.04
559.261	5855.14
559.461	6027.17
559.66	5732.26
559.859	5593
560.058	5595.05
560.258	5683.11
560.457	5277.62
560.656	5466.03
560.855	5029.81
561.054	5197.74
561.253	5103.54
561.453	5029.81
561.652	4937.65
561.851	5031.86
562.05	4655.03
562.249	4650.94
562.448	4612.03
562.647	4411.32
562.846	4370.37
563.045	4497.34
563.244	4390.84
563.443	4368.32
563.642	4329.41
563.841	4222.91
564.04	4087.75
564.239	4050.88
564.438	3942.34
564.637	3928
564.836	3823.56
565.035	3635.14
565.234	3624.9
565.432	3723.21
565.631	3758.02
565.83	3612.62
566.029	3469.26
566.228	3510.22
566.427	3477.45
566.625	3272.65
566.824	3362.76
567.023	3336.14
567.222	3297.23
567.42	3192.78
567.619	3071.95
567.818	3262.41
568.016	3131.34
568.215	2994.13
568.414	2990.03
568.612	2957.27
568.811	2969.55
569.01	2834.39
569.208	2756.57
569.407	2797.53
569.605	2711.51
569.804	2693.08
570.002	2619.35
570.201	2625.5
570.4	2607.06
570.598	2541.53
570.797	2496.47
570.995	2437.08
571.193	2363.36
571.392	2383.84
571.59	2303.96
571.789	2435.03
571.987	2426.84
572.186	2306.01
572.384	2191.33
572.582	2117.6
572.781	2179.04
572.979	1996.77
573.177	2072.54
573.376	2045.92
573.574	2068.45
573.772	1916.9
573.971	1945.57
574.169	1816.55
574.367	1968.1
574.565	1832.93
574.763	1783.78
574.962	1841.12
575.16	1667.05
575.358	1744.87
575.556	1662.95
575.754	1734.63
575.952	1615.85
576.151	1634.28
576.349	1634.28
576.547	1519.59
576.745	1638.37
576.943	1507.3
577.141	1499.11
577.339	1351.66
577.537	1505.26
577.735	1570.79
577.933	1531.88
578.131	1404.91
578.329	1583.08
578.527	1296.36
578.725	1437.67
578.923	1206.25
579.121	1312.75
579.319	1271.79
579.516	1277.93
579.714	1454.06
579.912	1169.39
580.11	1148.91
580.308	1161.2
580.506	1130.48
580.704	1048.56
580.901	1095.66
581.099	1165.29
581.297	1263.6
581.495	1120.24
581.692	1089.52
581.89	1261.55
582.088	1118.19
582.285	1032.18
582.483	960.5
582.681	952.31
582.878	956.4
583.076	1046.51
583.274	933.87
583.471	1044.46
583.669	964.59
583.866	876.53
584.064	901.11
584.262	759.8
584.459	804.85
584.657	933.87
584.854	913.39
585.052	956.4
585.249	923.63
585.447	780.28
585.644	718.84
585.841	778.23
586.039	784.37
586.236	905.2
586.434	608.25
586.631	675.83
586.828	663.54
587.026	737.27
587.223	647.16
587.42	651.25
587.618	690.17
587.815	774.13
588.012	602.1
588.21	686.07
588.407	753.65
588.604	665.59
588.801	720.88
588.999	663.54
589.196	716.79
589.393	610.29
589.59	595.96
589.787	600.05
589.984	722.93
590.182	630.77
590.379	561.14
590.576	616.44
590.773	567.29
590.97	546.81
591.167	655.35
591.364	563.19
591.561	587.77
591.758	688.12
591.955	718.84
592.152	552.95
592.349	540.66
592.546	534.52
592.743	540.66
592.94	608.25
593.137	663.54
593.334	661.49
593.531	618.49
593.727	571.38
593.924	638.97
594.121	595.96
594.318	565.24
594.515	622.58
594.712	581.62
594.908	628.73
595.105	497.66
595.302	690.17
595.499	593.91
595.696	743.41
595.892	651.25
596.089	716.79
596.286	677.88
596.482	845.81
596.679	759.8
596.876	647.16
597.072	767.99
597.269	743.41
597.466	806.9
597.662	813.04
597.859	724.98
598.055	808.95
598.252	806.9
598.448	935.92
598.645	927.73
598.841	937.97
599.038	1089.52
599.234	1110
599.431	1200.11
599.627	1107.95
599.824	1040.37
600.02	1200.11
600.217	1249.26
600.413	1251.31
600.609	1380.33
600.806	1628.14
601.002	1380.33
601.198	1398.76
601.395	1538.02
601.591	1654.76
601.787	1656.81
601.984	1722.34
602.18	1853.41
602.376	1765.35
602.572	1970.15
602.769	2093.02
602.965	2103.26
603.161	2189.28
603.357	2136.03
603.553	2385.88
603.75	2303.96
603.946	2367.45
604.142	2545.63
604.338	2772.95
604.534	2734.04
604.73	2682.84
604.926	2881.49
605.122	3074
605.318	2904.02
605.514	3184.59
605.71	3078.1
605.906	3428.3
606.102	3338.19
606.298	3563.47
606.494	3727.3
606.69	3733.45
606.886	3946.44
607.082	3956.68
607.278	4052.93
607.474	4278.21
607.67	4284.35
607.866	4282.3
608.062	4581.31
608.257	4571.07
608.453	4665.27
608.649	4937.65
608.845	4908.98
609.041	5052.34
609.236	5433.26
609.432	5431.21
609.628	5689.26
609.824	5738.41
610.019	5742.5
610.215	6139.81
610.411	6266.78
610.606	6510.49
610.802	6541.21
610.998	6789.02
611.193	6944.66
611.389	6887.32
611.584	7321.49
611.78	7378.83
611.976	7542.67
612.171	8085.38
612.367	7829.38
612.562	8277.89
612.758	8324.99
612.953	8603.52
613.149	8996.73
613.344	9047.93
613.539	9547.63
613.735	9584.49
613.93	10008.42
614.126	9994.09
614.321	10534.75
614.517	10647.39
614.712	11112.28
614.907	11272.02
615.103	11454.29
615.298	11781.96
615.493	12205.89
615.688	12283.72
615.884	12922.68
616.079	12916.54
616.274	13289.27
616.47	13756.21
616.665	14225.19
616.86	14483.24
617.055	14821.15
617.25	15036.19
617.445	15370.01
617.641	15681.3
617.836	16307.98
618.031	16477.96
618.226	17219.32
618.421	17606.39
618.616	18104.04
618.811	18020.08
619.006	18616.04
619.201	18759.39
619.396	19695.32
619.591	19558.1
619.786	20416.2
619.981	20573.89
620.176	21262.01
620.371	21309.11
620.566	22161.07
620.761	22204.08
620.956	23234.21
621.151	23117.47
621.346	23994
621.541	24006.29
621.735	24776.33
621.93	25241.21
622.125	25517.69
622.32	25839.22
622.515	26478.19
622.709	27094.63
622.904	27725.4
623.099	28100.18
623.294	28630.6
623.488	28575.31
623.683	29632.06
623.878	29718.07
624.072	30549.55
624.267	30887.46
624.462	31295.01
624.656	31841.82
624.851	32206.36
625.046	32618
625.24	32949.77
625.435	33465.86
625.629	34100.73
625.824	34420.21
626.018	34751.98
626.213	34528.75
626.407	35745.25
626.602	35714.53
626.796	36664.78
626.991	36892.11
627.185	37242.31
627.38	37338.57
627.574	37834.17
627.768	37492.16
627.963	37713.34
628.157	37666.24
628.352	38147.51
628.546	37580.23
628.74	38456.76
628.935	37983.68
629.129	38393.27
629.323	37840.32
629.517	37805.5
629.712	37649.86
629.906	37375.43
630.1	36541.91
630.294	37053.9
630.489	36275.67
630.683	36148.7
630.877	35165.67
631.071	34668.01
631.265	34387.44
631.459	33404.42
631.653	32919.05
631.848	31790.62
632.042	31702.56
632.236	30938.66
632.43	29861.43
632.624	28892.74
632.818	28108.37
633.012	27553.37
633.206	26629.74
633.4	25949.81
633.594	24639.11
633.788	24206.99
633.982	23525.02
634.176	22486.7
634.369	21597.88
634.563	20963.01
634.757	19930.83
634.951	19517.14
635.145	18390.76
635.339	18048.75
635.533	17110.78
635.726	16361.22
635.92	15537.94
636.114	14980.89
636.308	14608.16
636.501	14141.22
636.695	13418.29
636.889	12709.69
637.083	12234.57
637.276	12031.82
637.47	11143
637.664	11016.02
637.857	10401.63
638.051	10174.31
638.244	9668.46
638.438	9049.97
638.632	8959.86
638.825	8286.08
639.019	8279.94
639.212	7714.7
639.406	7679.88
639.599	7319.44
639.793	6850.46
639.986	6594.46
640.18	6449.05
640.373	6131.62
640.567	5881.77
640.76	5912.49
640.954	5601.19
641.147	5201.84
641.34	5085.11
641.534	4876.21
641.727	4847.54
641.92	4523.96
642.114	4442.04
642.307	4401.08
642.5	3983.3
642.694	3866.56
642.887	3817.41
643.08	3672.01
643.273	3608.52
643.467	3264.46
643.66	3282.89
643.853	3035.09
644.046	3069.91
644.239	2887.64
644.432	2658.26
644.626	2562.01
644.819	2541.53
645.012	2406.36
645.205	2387.93
645.398	2306.01
645.591	2334.68
645.784	1994.72
645.977	1978.34
646.17	1898.47
646.363	1912.8
646.556	1783.78
646.749	1705.96
646.942	1572.84
647.135	1691.62
647.328	1554.41
647.521	1486.83
647.714	1382.38
647.907	1345.52
648.099	1220.59
648.292	1331.18
648.485	1243.12
648.678	1171.44
648.871	1161.2
649.064	1132.53
649.256	1032.18
649.449	1042.42
649.642	962.55
649.835	919.54
650.027	831.48
650.22	960.5
650.413	880.63
650.605	860.15
650.798	808.95
650.991	675.83
651.183	798.71
651.376	692.21
651.568	763.89
651.761	649.21
651.954	774.13
652.146	690.17
652.339	638.97
652.531	675.83
652.724	557.05
652.916	583.67
653.109	464.89
653.301	577.53
653.494	530.42
653.686	536.57
653.879	606.2
654.071	483.32
654.263	370.68
654.456	323.58
654.648	526.33
654.84	378.87
655.033	358.39
655.225	507.9
655.417	303.1
655.61	516.09
655.802	442.36
655.994	399.35
656.186	323.58
656.379	446.46
656.571	270.33
656.763	387.07
656.955	256
657.148	274.43
657.34	315.39
657.532	309.24
657.724	237.56
657.916	307.2
658.108	378.87
658.3	348.15
658.492	258.04
658.684	151.55
658.876	292.86
659.068	253.95
659.26	215.04
659.452	180.22
659.644	286.72
659.836	409.59
660.028	221.18
660.22	186.37
660.412	229.37
660.604	212.99
660.796	229.37
660.988	286.72
661.18	266.24
661.372	231.42
661.563	256
661.755	227.32
661.947	114.69
662.139	118.78
662.331	167.93
662.522	198.65
662.714	186.37
662.906	108.54
663.097	194.56
663.289	116.73
663.481	30.72
663.673	155.65
663.864	126.97
664.056	270.33
664.247	137.21
664.439	229.37
664.631	131.07
664.822	194.56
665.014	122.88
665.205	47.1
665.397	137.21
665.588	120.83
665.78	180.22
665.971	178.17
666.163	124.93
666.354	262.14
666.546	32.77
666.737	184.32
666.929	67.58
667.12	112.64
667.311	108.54
667.503	163.84
667.694	155.65
667.885	192.51
668.077	129.02
668.268	57.34
668.459	59.39
668.651	126.97
668.842	178.17
669.033	8.19
669.224	16.38
669.416	327.67
669.607	102.4
669.798	137.21
669.989	194.56
670.18	69.63
670.371	155.65
670.563	-53.25
670.754	137.21
670.945	133.12
671.136	131.07
671.327	69.63
671.518	194.56
671.709	227.32
671.9	198.65
672.091	182.27
672.282	133.12
672.473	131.07
672.664	-0
672.855	120.83
673.046	137.21
673.237	102.4
673.428	131.07
673.619	124.93
673.809	57.34
674	143.36
674.191	159.74
674.382	149.5
674.573	161.79
674.764	61.44
674.954	256
675.145	-38.91
675.336	45.06
675.527	81.92
675.717	96.25
675.908	47.1
676.099	28.67
676.289	149.5
676.48	20.48
676.671	210.94
676.861	81.92
677.052	118.78
677.243	86.01
677.433	16.38
677.624	196.6
677.814	217.08
678.005	71.68
678.195	196.6
678.386	75.77
678.576	40.96
678.767	-0
678.957	147.45
679.148	202.75
679.338	239.61
679.529	49.15
679.719	67.58
679.909	196.6
680.1	225.28
680.29	208.89
680.481	59.39
680.671	202.75
680.861	165.89
681.052	133.12
681.242	-34.82
681.432	155.65
681.622	122.88
681.813	141.31
682.003	141.31
682.193	2.05
682.383	73.73
682.573	149.5
682.764	172.03
682.954	239.61
683.144	260.09
683.334	86.01
683.524	159.74
683.714	245.76
683.904	69.63
684.094	98.3
684.284	151.55
684.474	364.54
684.664	190.46
684.854	104.45
685.044	139.26
685.234	81.92
685.424	106.49
685.614	83.97
685.804	188.41
685.994	243.71
686.184	208.89
686.374	139.26
686.564	229.37
686.753	174.08
686.943	-10.24
687.133	157.69
687.323	147.45
687.513	215.04
687.702	135.17
687.892	77.82
688.082	262.14
688.272	268.28
688.461	96.25
688.651	241.66
688.841	247.8
689.03	149.5
689.22	122.88
689.41	165.89
689.599	182.27
689.789	94.21
689.979	192.51
690.168	135.17
690.358	188.41
690.547	137.21
690.737	169.98
690.926	180.22
691.116	176.13
691.305	190.46
691.495	272.38
691.684	129.02
691.874	122.88
692.063	118.78
692.252	210.94
692.442	266.24
692.631	147.45
692.82	153.6
693.01	188.41
693.199	151.55
693.388	106.49
693.578	196.6
693.767	227.32
693.956	215.04
694.146	114.69
694.335	186.37
694.524	133.12
694.713	217.08
694.902	137.21
695.092	143.36
695.281	253.95
695.47	159.74
695.659	133.12
695.848	143.36
696.037	22.53
696.226	276.48
696.415	180.22
696.604	217.08
696.793	221.18
696.982	122.88
697.171	299
697.36	49.15
697.549	90.11
697.738	90.11
697.927	94.21
698.116	96.25
698.305	280.57
698.494	151.55
698.683	100.35
698.872	346.11
699.061	75.77
699.25	94.21
699.438	165.89
699.627	126.97
699.816	280.57
700.005	71.68
700.193	122.88
700.382	217.08
700.571	190.46
700.76	190.46
700.948	280.57
701.137	196.6
701.326	206.84
701.514	141.31
701.703	188.41
701.892	32.77
702.08	313.34
702.269	190.46
702.457	55.3
702.646	165.89
702.834	155.65
703.023	215.04
703.212	202.75
703.4	167.93
703.589	100.35
703.777	106.49
703.965	83.97
704.154	114.69
704.342	55.3
704.531	194.56
704.719	73.73
704.907	178.17
705.096	157.69
705.284	77.82
705.472	94.21
705.661	178.17
705.849	208.89
706.037	235.52
706.226	186.37
706.414	190.46
706.602	133.12
706.79	200.7
706.979	47.1
707.167	118.78
707.355	20.48
707.543	184.32
707.731	172.03
707.919	157.69
708.107	223.23
708.296	133.12
708.484	100.35
708.672	139.26
708.86	215.04
709.048	147.45
709.236	186.37
709.424	200.7
709.612	194.56
709.8	-6.14
709.988	165.89
710.176	243.71
710.364	225.28
710.551	165.89
710.739	116.73
710.927	126.97
711.115	124.93
711.303	210.94
711.491	231.42
711.679	86.01
711.866	225.28
712.054	135.17
712.242	147.45
712.43	301.05
712.617	182.27
712.805	217.08
712.993	92.16
713.181	51.2
713.368	270.33
713.556	104.45
713.744	108.54
713.931	323.58
714.119	200.7
714.306	153.6
714.494	88.06
714.682	120.83
714.869	59.39
715.057	133.12
715.244	53.25
715.432	174.08
715.619	169.98
715.807	112.64
715.994	188.41
716.182	270.33
716.369	204.8
716.556	174.08
716.744	83.97
716.931	137.21
717.119	131.07
717.306	182.27
717.493	149.5
717.681	122.88
717.868	98.3
718.055	253.95
718.242	126.97
718.43	206.84
718.617	245.76
718.804	131.07
718.991	237.56
719.179	157.69
719.366	174.08
719.553	237.56
719.74	141.31
719.927	114.69
720.114	114.69
720.301	131.07
720.488	88.06
720.676	135.17
720.863	249.85
721.05	299
721.237	167.93
721.424	151.55
721.611	204.8
721.798	61.44
721.985	129.02
722.172	153.6
722.358	90.11
722.545	188.41
722.732	180.22
722.919	239.61
723.106	243.71
723.293	212.99
723.48	200.7
723.667	131.07
723.853	163.84
724.04	253.95
724.227	266.24
724.414	133.12
724.6	249.85
724.787	309.24
724.974	327.67
725.161	155.65
725.347	135.17
725.534	243.71
725.72	161.79
725.907	217.08
726.094	149.5
726.28	83.97
726.467	217.08
726.653	145.41
726.84	270.33
727.027	329.72
727.213	231.42
727.4	237.56
727.586	253.95
727.773	223.23
727.959	112.64
728.145	139.26
728.332	149.5
728.518	77.82
728.705	329.72
728.891	198.65
729.077	184.32
729.264	114.69
729.45	172.03
729.636	172.03
729.823	190.46
730.009	253.95
730.195	225.28
730.382	215.04
730.568	100.35
730.754	178.17
730.94	198.65
731.126	194.56
731.313	180.22
731.499	227.32
731.685	196.6
731.871	219.13
732.057	190.46
732.243	311.29
732.429	266.24
732.615	323.58
732.801	206.84
732.987	204.8
733.173	200.7
733.359	192.51
733.545	196.6
733.731	184.32
733.917	342.01
734.103	192.51
734.289	266.24
734.475	202.75
734.661	339.96
734.847	247.8
735.033	243.71
735.219	247.8
735.404	165.89
735.59	221.18
735.776	104.45
735.962	206.84
736.148	204.8
736.333	323.58
736.519	212.99
736.705	196.6
736.89	116.73
737.076	206.84
737.262	108.54
737.447	174.08
737.633	143.36
737.819	221.18
738.004	212.99
738.19	215.04
738.375	223.23
738.561	292.86
738.747	296.96
738.932	88.06
739.118	325.63
739.303	309.24
739.489	258.04
739.674	204.8
739.859	204.8
740.045	342.01
740.23	225.28
740.416	28.67
740.601	208.89
740.786	260.09
740.972	184.32
741.157	212.99
741.342	155.65
741.528	151.55
741.713	272.38
741.898	141.31
742.084	137.21
742.269	280.57
742.454	200.7
742.639	272.38
742.824	184.32
743.01	292.86
743.195	342.01
743.38	204.8
743.565	106.49
743.75	215.04
743.935	161.79
744.12	282.62
744.305	49.15
744.49	190.46
744.675	208.89
744.86	229.37
745.045	258.04
745.23	284.67
745.415	122.88
745.6	303.1
745.785	139.26
745.97	249.85
746.155	270.33
746.34	260.09
746.525	169.98
746.71	286.72
746.895	96.25
747.079	147.45
747.264	188.41
747.449	217.08
747.634	274.43
747.819	202.75
748.003	147.45
748.188	104.45
748.373	229.37
748.557	249.85
748.742	202.75
748.927	215.04
749.111	182.27
749.296	221.18
749.481	186.37
749.665	149.5
749.85	149.5
750.034	120.83
750.219	221.18
750.404	86.01
750.588	159.74
750.773	118.78
750.957	155.65
751.141	143.36
751.326	272.38
751.51	75.77
751.695	73.73
751.879	63.49
752.064	282.62
752.248	198.65
752.432	331.77
752.617	233.47
752.801	212.99
752.985	159.74
753.17	172.03
753.354	169.98
753.538	108.54
753.722	120.83
753.907	98.3
754.091	69.63
754.275	245.76
754.459	186.37
754.643	51.2
754.828	204.8
755.012	135.17
755.196	43.01
755.38	116.73
755.564	90.11
755.748	157.69
755.932	129.02
756.116	192.51
756.3	167.93
756.484	114.69
756.668	188.41
756.852	88.06
757.036	131.07
757.22	176.13
757.404	153.6
757.588	2.05
757.772	151.55
757.956	40.96
758.14	319.48
758.323	40.96
758.507	112.64
758.691	114.69
758.875	210.94
759.059	301.05
759.242	96.25
759.426	108.54
759.61	94.21
759.794	22.53
759.977	196.6
760.161	231.42
760.345	223.23
760.528	167.93
760.712	110.59
760.895	63.49
761.079	96.25
761.263	77.82
761.446	55.3
761.63	75.77
761.813	196.6
761.997	20.48
762.18	157.69
762.364	190.46
762.547	-20.48
762.731	18.43
762.914	71.68
763.098	90.11
763.281	88.06
763.464	38.91
763.648	167.93
763.831	20.48
764.015	36.86
764.198	139.26
764.381	67.58
764.564	69.63
764.748	40.96
764.931	83.97
765.114	30.72
765.297	88.06
765.481	-12.29
765.664	106.49
765.847	63.49
766.03	155.65
766.213	8.19
766.397	45.06
766.58	12.29
766.763	202.75
766.946	14.34
767.129	55.3
767.312	53.25
767.495	59.39
767.678	18.43
767.861	120.83
768.044	135.17
768.227	34.82
768.41	43.01
768.593	55.3
768.776	20.48
768.959	120.83
769.142	153.6
769.324	36.86
769.507	38.91
769.69	57.34
769.873	75.77
770.056	178.17
770.239	26.62
770.421	118.78
770.604	75.77
770.787	30.72
770.97	106.49
771.152	24.58
771.335	71.68
771.518	-22.53
771.7	157.69
771.883	223.23
772.066	28.67
772.248	63.49
772.431	149.5
772.613	94.21
772.796	67.58
772.978	86.01
773.161	118.78
773.343	-12.29
773.526	-28.67
773.708	-53.25
773.891	4.1
774.073	8.19
774.256	6.14
774.438	155.65
774.621	18.43
774.803	12.29
774.985	65.53
775.168	118.78
775.35	43.01
775.532	180.22
775.715	30.72
775.897	53.25
776.079	40.96
776.261	-14.34
776.444	32.77
776.626	-63.49
776.808	106.49
776.99	-75.77
777.173	51.2
777.355	53.25
777.537	8.19
777.719	36.86
777.901	36.86
778.083	-12.29
778.265	-36.86
778.447	81.92
778.629	-63.49
778.811	20.48
778.993	77.82
779.175	182.27
779.357	79.87
779.539	-6.14
779.721	-8.19
779.903	100.35
780.085	47.1
780.267	102.4
780.449	69.63
780.631	47.1
780.812	63.49
780.994	4.1
781.176	77.82
781.358	-53.25
781.54	2.05
781.721	16.38
781.903	28.67
782.085	-22.53
782.267	124.93
782.448	-14.34
782.63	-0
782.812	55.3
782.993	-32.77
783.175	165.89
783.357	51.2
783.538	34.82
783.72	-34.82
783.901	14.34
784.083	51.2
784.264	159.74
784.446	-47.1
784.627	-63.49
784.809	43.01
784.99	-43.01
785.172	20.48
785.353	34.82
785.535	47.1
785.716	-22.53
785.897	-4.1
786.079	26.62
786.26	122.88
786.441	75.77
786.623	-100.35
786.804	-32.77
786.985	40.96
787.167	43.01
787.348	-2.05
787.529	40.96
787.71	122.88
787.891	67.58
788.073	-22.53
788.254	26.62
788.435	55.3
788.616	141.31
788.797	-30.72
788.978	104.45
789.159	-61.44
789.34	4.1
789.522	57.34
789.703	-8.19
789.884	63.49
790.065	57.34
790.246	215.04
790.427	-16.38
790.607	155.65
790.788	104.45
790.969	4.1
791.15	69.63
791.331	71.68
791.512	12.29
791.693	-32.77
791.874	49.15
792.054	116.73
792.235	34.82
792.416	-61.44
792.597	61.44
792.778	69.63
792.958	51.2
793.139	55.3
793.32	57.34
793.5	-20.48
793.681	126.97
793.862	69.63
794.042	24.58
794.223	-88.06
794.404	-10.24
794.584	-88.06
794.765	88.06
794.945	-0
795.126	112.64
795.306	96.25
795.487	36.86
795.667	-65.54
795.848	79.87
796.028	36.86
796.209	-75.77
796.389	57.34
796.57	59.39
796.75	-8.19
796.93	32.77
797.111	-28.67
797.291	28.67
797.471	88.06
797.652	-32.77
797.832	-28.67
798.012	32.77
798.192	-12.29
798.373	-114.69
798.553	32.77
798.733	92.16
798.913	-45.06
799.093	-8.19
799.274	28.67
799.454	69.63
799.634	47.1
799.814	53.25
799.994	-0
800.174	4.1
800.354	30.72
800.534	-114.69
800.714	38.91
800.894	-32.77
801.074	-81.92
801.254	-43.01
801.434	32.77
801.614	-32.77
801.794	-96.25
801.974	1644.52
802.154	59.39
802.334	81.92
802.514	8.19
802.693	34.82
802.873	-26.62
803.053	118.78
803.233	57.34
803.413	32.77
803.592	-45.06
803.772	-51.2
803.952	34.82
804.131	-69.63
804.311	-4.1
804.491	139.26
804.67	-63.49
804.85	-36.86
805.03	34.82
805.209	83.97
805.389	73.73
805.568	-61.44
805.748	-24.58
805.928	94.21
806.107	16.38
806.287	124.93
806.466	47.1
806.646	47.1
806.825	-57.34
807.004	-0
807.184	67.58
807.363	67.58
807.543	-0
807.722	-26.62
807.901	102.4
808.081	102.4
808.26	-172.03
808.439	36.86
808.619	-45.06
808.798	-83.97
808.977	65.53
809.156	61.44
809.336	51.2
809.515	92.16
809.694	-153.6
809.873	-2.05
810.052	73.73
810.231	71.68
810.411	-55.3
810.59	59.39
810.769	49.15
810.948	36.86
811.127	-45.06
811.306	12.29
811.485	12.29
811.664	192.51
811.843	55.3
812.022	90.11
812.201	16.38
812.38	-57.34
812.559	-129.02
812.737	45.06
812.916	-90.11
813.095	-28.67
813.274	28.67
813.453	-8.19
813.632	-30.72
813.811	86.01
813.989	-79.87
814.168	51.2
814.347	-73.73
814.526	14.34
814.704	75.77
814.883	57.34
815.062	-0
815.24	57.34
815.419	-96.25
815.598	98.3
815.776	-8.19
815.955	2.05
816.133	-126.97
816.312	32.77
816.49	-24.58
816.669	-81.92
816.847	4.1
817.026	22.53
817.204	-30.72
817.383	-36.86
817.561	-24.58
817.74	-40.96
817.918	-16.38
818.097	-51.2
818.275	-28.67
818.453	14.34
818.632	53.25
818.81	6.14
818.988	-14.34
819.167	-61.44
819.345	10.24
819.523	-53.25
819.701	79.87
819.879	79.87
820.058	-30.72
820.236	69.63
820.414	-12.29
820.592	-8.19
820.77	53.25
820.948	-57.34
821.127	-69.63
821.305	53.25
821.483	-8.19
821.661	120.83
821.839	16.38
822.017	-88.06
822.195	12.29
822.373	36.86
822.551	2.05
822.729	65.53
822.907	49.15
823.085	79.87
823.262	-22.53
823.44	-26.62
823.618	53.25
823.796	-4.1
823.974	-65.54
824.152	-51.2
824.329	2.05
824.507	32.77
824.685	47.1
824.863	-12.29
825.04	-0
825.218	63.49
825.396	36.86
825.574	36.86
825.751	53.25
825.929	30.72
826.107	-69.63
826.284	-45.06
826.462	81.92
826.639	-45.06
826.817	-81.92
826.994	18.43
827.172	-118.78
827.349	100.35
827.527	-2.05
827.704	-0
827.882	49.15
828.059	10.24
828.237	-16.38
828.414	61.44
828.591	-149.5
828.769	-77.82
828.946	-133.12
829.124	51.2
829.301	61.44
829.478	40.96
829.655	53.25
829.833	36.86
830.01	-102.4
830.187	20.48
830.364	-45.06
830.542	-40.96
830.719	114.69
830.896	4.1
831.073	26.62
831.25	8.19
831.427	16.38
831.604	81.92
831.782	-36.86
831.959	2.05
832.136	-12.29
832.313	28.67
832.49	-77.82
832.667	63.49
832.844	-6.14
833.021	83.97
833.198	81.92
833.374	-38.91
833.551	-45.06
833.728	-16.38
833.905	30.72
834.082	-126.97
834.259	59.39
834.436	131.07
834.612	-86.01
834.789	49.15
834.966	-12.29
835.143	26.62
835.319	-94.21
835.496	-8.19
835.673	32.77
835.85	135.17
836.026	-14.34
836.203	34.82
836.38	-59.39
836.556	14.34
836.733	-4.1
836.909	92.16
837.086	-34.82
837.262	-110.59
837.439	47.1
837.616	-59.39
837.792	-61.44
837.968	34.82
838.145	-176.13
838.321	-71.68
838.498	30.72
838.674	18.43
838.851	-45.06
839.027	-77.82
839.203	-10.24
839.38	53.25
839.556	-18.43
839.732	100.35
839.909	-6.14
840.085	47.1
840.261	-24.58
840.437	26.62
840.614	-34.82
840.79	77.82
840.966	69.63
841.142	-34.82
841.318	-10.24
841.494	65.53
841.671	104.45
841.847	-118.78
842.023	-22.53
842.199	88.06
842.375	86.01
842.551	-26.62
842.727	-71.68
842.903	110.59
843.079	-129.02
843.255	145.41
843.431	-77.82
843.607	28.67
843.783	-63.49
843.959	14.34
844.134	-4.1
844.31	153.6
844.486	-51.2
844.662	-14.34
844.838	20.48
845.013	-16.38
845.189	73.73
845.365	65.53
845.541	-30.72
845.716	-18.43
845.892	83.97
846.068	-0
846.244	-30.72
846.419	-20.48
846.595	-22.53
846.77	-24.58
846.946	14.34
847.122	16.38
847.297	-69.63
847.473	12.29
847.648	-90.11
847.824	81.92
847.999	-120.83
848.175	-40.96
848.35	10.24
848.526	94.21
848.701	43.01
848.876	94.21
849.052	20.48
849.227	45.06
849.403	-2.05
849.578	-10.24
849.753	8.19
849.929	40.96
850.104	-153.6
850.279	-2.05
850.454	96.25
850.63	102.4
850.805	45.06
850.98	-40.96
851.155	-28.67
851.33	26.62
851.505	-124.93
851.681	49.15
851.856	-81.92
852.031	-67.58
852.206	16.38
852.381	-77.82
852.556	-51.2
852.731	-16.38
852.906	100.35
853.081	126.97
853.256	32.77
853.431	69.63
853.606	-22.53
853.781	-63.49
853.956	-73.73
854.131	24.58
854.305	-86.01
854.48	-63.49
854.655	-122.88
854.83	-20.48
855.005	-20.48
855.18	-6.14
855.354	-55.3
855.529	-18.43
855.704	-8.19
855.879	28.67
856.053	-86.01
856.228	8.19
856.403	-53.25
856.577	-0
856.752	-118.78
856.926	65.53
857.101	40.96
857.276	-129.02
857.45	-40.96
857.625	94.21
857.799	47.1
857.974	32.77
858.148	-149.5
858.323	18.43
858.497	-51.2
858.672	-2.05
858.846	12.29
859.02	24.58
859.195	-45.06
859.369	12.29
859.543	24.58
859.718	-67.58
859.892	45.06
860.066	14.34
860.241	20.48
860.415	-51.2
860.589	-73.73
860.763	-55.3
860.938	18.43
861.112	-12.29
861.286	-61.44
861.46	32.77
861.634	43.01
861.808	53.25
861.982	-8.19
862.157	-34.82
862.331	-40.96
862.505	-55.3
862.679	-86.01
862.853	36.86
863.027	-22.53
863.201	88.06
863.375	-40.96
863.549	26.62
863.722	73.73
863.896	61.44
864.07	2.05
864.244	-45.06
864.418	69.63
864.592	-22.53
864.766	40.96
864.939	-53.25
865.113	-55.3
865.287	120.83
865.461	-8.19
865.634	-57.34
865.808	-90.11
865.982	-12.29
866.156	-61.44
866.329	-69.63
866.503	-20.48
866.676	43.01
866.85	49.15
867.024	-122.88
867.197	-28.67
867.371	53.25
867.544	79.87
867.718	-96.25
867.891	100.35
868.065	-110.59
868.238	86.01
868.412	81.92
868.585	-8.19
868.759	-63.49
868.932	-32.77
869.105	-40.96
869.279	22.53
869.452	-106.49
869.625	67.58
869.799	-57.34
869.972	-73.73
870.145	-18.43
870.319	63.49
870.492	-8.19
870.665	-75.77
870.838	-40.96
871.011	-206.84
871.185	-53.25
871.358	-40.96
871.531	61.44
871.704	-83.97
871.877	22.53
872.05	-34.82
872.223	-6.14
872.396	34.82
872.569	51.2
872.742	-137.21
872.915	63.49
873.088	-53.25
873.261	4.1
873.434	124.93
873.607	-102.4
873.78	96.25
873.953	-4.1
874.126	59.39
874.299	79.87
874.471	-73.73
874.644	-30.72
874.817	43.01
874.99	92.16
875.163	-188.41
875.335	-6.14
875.508	14.34
875.681	69.63
875.853	-26.62
876.026	-24.58
876.199	-4.1
876.371	4.1
876.544	-8.19
876.717	86.01
876.889	-30.72
877.062	34.82
877.234	-118.78
877.407	-2.05
877.579	-34.82
877.752	77.82
877.924	38.91
878.097	32.77
878.269	49.15
878.442	4.1
878.614	108.54
878.786	43.01
878.959	-16.38
879.131	77.82
879.303	-69.63
879.476	-0
879.648	143.36
879.82	36.86
879.993	24.58
880.165	-110.59
880.337	-98.3
880.509	59.39
880.681	-61.44
880.854	-94.21
881.026	61.44
881.198	83.97
881.37	-53.25
881.542	6.14
881.714	-38.91
881.886	18.43
882.058	43.01
882.23	51.2
882.402	18.43
882.574	38.91
882.746	129.02
882.918	108.54
883.09	18.43
883.262	-24.58
883.434	-63.49
883.606	-114.69
883.778	-53.25
883.95	139.26
884.122	-53.25
884.293	18.43
884.465	-10.24
884.637	88.06
884.809	-32.77
884.98	-14.34
885.152	-8.19
885.324	40.96
885.496	4.1
885.667	-38.91
885.839	-16.38
886.011	98.3
886.182	24.58
886.354	67.58
886.525	-8.19
886.697	-18.43
886.869	-65.54
887.04	10.24
887.212	34.82
887.383	161.79
887.555	2.05
887.726	-102.4
887.897	43.01
888.069	-71.68
888.24	55.3
888.412	-8.19
888.583	-26.62
888.754	-65.54
888.926	-65.54
889.097	-55.3
889.268	-182.27
889.44	65.53
889.611	-120.83
889.782	-73.73
889.953	-55.3
890.125	81.92
890.296	-122.88
890.467	-69.63
890.638	-102.4
890.809	-22.53
890.98	-51.2
891.151	86.01
891.323	157.69
891.494	-38.91
891.665	-12.29
891.836	20.48
892.007	49.15
892.178	-67.58
892.349	16.38
892.52	-106.49
892.691	-18.43
892.862	-98.3
893.032	-137.21
893.203	-16.38
893.374	-30.72
893.545	98.3
893.716	-57.34
893.887	-24.58
894.057	-102.4
894.228	22.53
894.399	-26.62
894.57	43.01
894.74	32.77
894.911	-6.14
895.082	-53.25
895.253	16.38
895.423	-4.1
895.594	77.82
895.764	69.63
895.935	-98.3
896.106	22.53
896.276	-83.97
896.447	-51.2
896.617	-55.3
896.788	-86.01
896.958	-32.77
897.129	-8.19
897.299	-51.2
897.47	157.69
897.64	18.43
897.81	-43.01
897.981	32.77
898.151	12.29
898.322	92.16
898.492	104.45
898.662	-43.01
898.832	-90.11
899.003	-71.68
899.173	43.01
899.343	-106.49
899.513	-14.34
