Data from USB4F104151__258__11-20-14-235.txt Node

Date: Wed Feb 26 11:20:14 EST 2025
User: louis
Spectrometer: USB4F10415
Trigger mode: 4
Integration Time (sec): 1.000000E-1
Scans to average: 1
Electric dark correction enabled: true
Nonlinearity correction enabled: false
Boxcar width: 0
XAxis mode: Wavelengths
Number of Pixels in Spectrum: 3648
>>>>>Begin Spectral Data<<<<<
178.204	-418.81
178.424	-418.81
178.644	-418.81
178.864	-433.15
179.084	-431.1
179.304	7.17
179.524	-1.02
179.744	39.94
179.964	68.61
180.184	-11.26
180.404	1.02
180.624	-54.27
180.844	-7.17
181.064	-95.23
181.283	27.65
181.503	13.31
181.723	11.26
181.943	-101.37
182.163	205.82
182.383	-33.79
182.602	72.7
182.822	111.61
183.042	101.37
183.262	-80.89
183.482	5.12
183.701	7.17
183.921	109.57
184.141	-23.55
184.361	89.09
184.58	37.89
184.8	3.07
185.02	-21.5
185.239	99.33
185.459	46.08
185.679	93.18
185.898	-56.32
186.118	35.84
186.338	46.08
186.557	111.61
186.777	-7.17
186.997	27.65
187.216	-15.36
187.436	226.3
187.655	66.56
187.875	76.8
188.095	17.41
188.314	111.61
188.534	236.54
188.753	33.79
188.973	39.94
189.192	111.61
189.412	37.89
189.631	62.46
189.851	84.99
190.07	195.58
190.29	19.46
190.509	1.02
190.729	33.79
190.948	132.09
191.168	269.31
191.387	78.85
191.607	80.89
191.826	113.66
192.045	-13.31
192.265	50.18
192.484	113.66
192.704	74.75
192.923	-17.41
193.142	156.67
193.362	117.76
193.581	119.81
193.8	89.09
194.02	144.38
194.239	142.33
194.458	74.75
194.678	-19.46
194.897	21.5
195.116	105.47
195.335	87.04
195.555	117.76
195.774	-103.42
195.993	87.04
196.212	52.22
196.432	70.65
196.651	33.79
196.87	-11.26
197.089	236.54
197.308	11.26
197.528	80.89
197.747	-46.08
197.966	76.8
198.185	119.81
198.404	70.65
198.623	156.67
198.842	76.8
199.062	138.24
199.281	142.33
199.5	82.94
199.719	89.09
199.938	-9.22
200.157	1.02
200.376	125.95
200.595	125.95
200.814	46.08
201.033	-27.65
201.252	97.28
201.471	105.47
201.69	52.22
201.909	109.57
202.128	214.01
202.347	113.66
202.566	115.71
202.785	-46.08
203.004	-3.07
203.223	259.07
203.442	-21.5
203.661	-5.12
203.879	25.6
204.098	158.72
204.317	39.94
204.536	103.42
204.755	160.77
204.974	105.47
205.193	23.55
205.411	138.24
205.63	89.09
205.849	54.27
206.068	64.51
206.287	-76.8
206.505	80.89
206.724	87.04
206.943	-33.79
207.162	25.6
207.381	19.46
207.599	84.99
207.818	103.42
208.037	25.6
208.255	62.46
208.474	54.27
208.693	44.03
208.911	-15.36
209.13	107.52
209.349	119.81
209.567	97.28
209.786	134.14
210.005	103.42
210.223	-1.02
210.442	-68.61
210.661	113.66
210.879	68.61
211.098	52.22
211.316	113.66
211.535	15.36
211.753	11.26
211.972	66.56
212.191	7.17
212.409	95.23
212.628	97.28
212.846	54.27
213.065	41.98
213.283	101.37
213.502	25.6
213.72	56.32
213.938	25.6
214.157	60.42
214.375	72.7
214.594	56.32
214.812	138.24
215.031	87.04
215.249	123.9
215.467	39.94
215.686	25.6
215.904	52.22
216.122	89.09
216.341	224.25
216.559	84.99
216.778	107.52
216.996	185.34
217.214	68.61
217.432	54.27
217.651	-62.46
217.869	52.22
218.087	3.07
218.306	17.41
218.524	72.7
218.742	25.6
218.96	168.96
219.179	84.99
219.397	29.7
219.615	257.02
219.833	99.33
220.051	-44.03
220.27	87.04
220.488	177.15
220.706	25.6
220.924	41.98
221.142	13.31
221.36	17.41
221.578	95.23
221.796	-5.12
222.015	19.46
222.233	87.04
222.451	197.63
222.669	-31.74
222.887	128
223.105	37.89
223.323	17.41
223.541	-1.02
223.759	11.26
223.977	-13.31
224.195	168.96
224.413	154.62
224.631	9.22
224.849	132.09
225.067	154.62
225.285	-25.6
225.503	-7.17
225.721	-64.51
225.939	5.12
226.157	111.61
226.375	240.64
226.592	80.89
226.81	41.98
227.028	142.33
227.246	150.53
227.464	33.79
227.682	95.23
227.9	91.13
228.117	107.52
228.335	27.65
228.553	33.79
228.771	46.08
228.989	50.18
229.206	123.9
229.424	52.22
229.642	15.36
229.86	-84.99
230.077	93.18
230.295	-33.79
230.513	146.43
230.731	144.38
230.948	185.34
231.166	99.33
231.384	54.27
231.601	-7.17
231.819	191.49
232.037	-54.27
232.254	-13.31
232.472	21.5
232.689	5.12
232.907	109.57
233.125	-5.12
233.342	-7.17
233.56	33.79
233.777	68.61
233.995	44.03
234.213	52.22
234.43	82.94
234.648	74.75
234.865	-11.26
235.083	111.61
235.3	84.99
235.518	101.37
235.735	187.39
235.953	136.19
236.17	13.31
236.388	72.7
236.605	82.94
236.822	54.27
237.04	156.67
237.257	78.85
237.475	29.7
237.692	72.7
237.909	132.09
238.127	13.31
238.344	7.17
238.562	62.46
238.779	-13.31
238.996	-23.55
239.214	29.7
239.431	76.8
239.648	-29.7
239.865	87.04
240.083	115.71
240.3	11.26
240.517	58.37
240.735	50.18
240.952	140.29
241.169	130.05
241.386	82.94
241.603	80.89
241.821	-23.55
242.038	148.48
242.255	117.76
242.472	44.03
242.689	128
242.907	136.19
243.124	9.22
243.341	19.46
243.558	37.89
243.775	-23.55
243.992	-50.18
244.209	46.08
244.426	254.97
244.643	125.95
244.86	39.94
245.078	56.32
245.295	66.56
245.512	62.46
245.729	-21.5
245.946	44.03
246.163	56.32
246.38	11.26
246.597	80.89
246.814	29.7
247.031	9.22
247.248	111.61
247.464	111.61
247.681	105.47
247.898	35.84
248.115	107.52
248.332	-3.07
248.549	154.62
248.766	148.48
248.983	15.36
249.2	181.25
249.417	121.85
249.633	-19.46
249.85	84.99
250.067	-3.07
250.284	-41.98
250.501	48.13
250.717	121.85
250.934	17.41
251.151	21.5
251.368	64.51
251.585	87.04
251.801	97.28
252.018	-11.26
252.235	107.52
252.451	35.84
252.668	29.7
252.885	156.67
253.102	87.04
253.318	62.46
253.535	-7.17
253.752	19.46
253.968	-15.36
254.185	-68.61
254.401	46.08
254.618	58.37
254.835	-35.84
255.051	123.9
255.268	140.29
255.484	103.42
255.701	62.46
255.917	113.66
256.134	19.46
256.351	31.74
256.567	41.98
256.784	58.37
257	1.02
257.217	162.81
257.433	93.18
257.65	107.52
257.866	179.2
258.082	7.17
258.299	19.46
258.515	105.47
258.732	-5.12
258.948	-21.5
259.165	46.08
259.381	-13.31
259.597	95.23
259.814	31.74
260.03	-17.41
260.246	41.98
260.463	111.61
260.679	37.89
260.895	87.04
261.112	132.09
261.328	80.89
261.544	-15.36
261.761	160.77
261.977	52.22
262.193	-31.74
262.409	138.24
262.626	25.6
262.842	9.22
263.058	41.98
263.274	46.08
263.49	54.27
263.707	119.81
263.923	91.13
264.139	-33.79
264.355	60.42
264.571	62.46
264.787	93.18
265.004	156.67
265.22	97.28
265.436	50.18
265.652	7.17
265.868	105.47
266.084	1.02
266.3	17.41
266.516	19.46
266.732	156.67
266.948	41.98
267.164	48.13
267.38	68.61
267.596	37.89
267.812	177.15
268.028	84.99
268.244	-1.02
268.46	1.02
268.676	21.5
268.892	54.27
269.108	-29.7
269.324	27.65
269.54	-35.84
269.756	128
269.972	-3.07
270.188	29.7
270.403	-35.84
270.619	9.22
270.835	113.66
271.051	58.37
271.267	3.07
271.483	33.79
271.698	166.91
271.914	121.85
272.13	80.89
272.346	64.51
272.562	27.65
272.777	89.09
272.993	5.12
273.209	82.94
273.425	132.09
273.64	33.79
273.856	37.89
274.072	-7.17
274.287	5.12
274.503	164.86
274.719	27.65
274.934	35.84
275.15	-91.13
275.366	15.36
275.581	37.89
275.797	50.18
276.012	121.85
276.228	-35.84
276.444	103.42
276.659	95.23
276.875	-48.13
277.09	-13.31
277.306	46.08
277.521	95.23
277.737	72.7
277.952	54.27
278.168	60.42
278.383	87.04
278.599	52.22
278.814	87.04
279.03	111.61
279.245	107.52
279.461	58.37
279.676	158.72
279.892	-70.65
280.107	-5.12
280.322	-19.46
280.538	113.66
280.753	13.31
280.969	103.42
281.184	23.55
281.399	109.57
281.615	109.57
281.83	97.28
282.045	-23.55
282.26	-25.6
282.476	31.74
282.691	123.9
282.906	117.76
283.122	74.75
283.337	-9.22
283.552	111.61
283.767	1.02
283.983	142.33
284.198	91.13
284.413	84.99
284.628	-3.07
284.843	60.42
285.058	13.31
285.274	13.31
285.489	1.02
285.704	46.08
285.919	-11.26
286.134	-21.5
286.349	64.51
286.564	-23.55
286.779	168.96
286.995	64.51
287.21	-70.65
287.425	175.1
287.64	27.65
287.855	41.98
288.07	-54.27
288.285	181.25
288.5	211.96
288.715	54.27
288.93	76.8
289.145	-7.17
289.36	76.8
289.575	-70.65
289.79	103.42
290.004	7.17
290.219	105.47
290.434	44.03
290.649	64.51
290.864	17.41
291.079	9.22
291.294	54.27
291.509	142.33
291.724	9.22
291.938	62.46
292.153	74.75
292.368	-5.12
292.583	95.23
292.798	119.81
293.012	76.8
293.227	31.74
293.442	52.22
293.657	113.66
293.871	187.39
294.086	107.52
294.301	193.53
294.516	134.14
294.73	130.05
294.945	-35.84
295.16	19.46
295.374	132.09
295.589	91.13
295.804	-19.46
296.018	52.22
296.233	209.92
296.447	44.03
296.662	-27.65
296.877	123.9
297.091	136.19
297.306	35.84
297.52	9.22
297.735	35.84
297.949	95.23
298.164	123.9
298.378	76.8
298.593	44.03
298.807	-9.22
299.022	-17.41
299.236	138.24
299.451	-33.79
299.665	31.74
299.88	9.22
300.094	117.76
300.309	70.65
300.523	66.56
300.737	-52.22
300.952	31.74
301.166	99.33
301.381	-39.94
301.595	-31.74
301.809	25.6
302.024	-19.46
302.238	-115.71
302.452	154.62
302.667	25.6
302.881	185.34
303.095	31.74
303.309	134.14
303.524	54.27
303.738	17.41
303.952	7.17
304.166	168.96
304.381	-37.89
304.595	109.57
304.809	41.98
305.023	5.12
305.237	-11.26
305.452	5.12
305.666	74.75
305.88	9.22
306.094	166.91
306.308	138.24
306.522	132.09
306.736	23.55
306.95	197.63
307.164	-46.08
307.379	35.84
307.593	189.44
307.807	222.2
308.021	3.07
308.235	80.89
308.449	-48.13
308.663	82.94
308.877	222.2
309.091	140.29
309.305	58.37
309.519	-56.32
309.733	142.33
309.947	5.12
310.161	27.65
310.374	130.05
310.588	103.42
310.802	-5.12
311.016	78.85
311.23	72.7
311.444	-9.22
311.658	48.13
311.872	168.96
312.085	128
312.299	191.49
312.513	128
312.727	35.84
312.941	121.85
313.154	21.5
313.368	54.27
313.582	44.03
313.796	82.94
314.009	48.13
314.223	209.92
314.437	46.08
314.651	134.14
314.864	80.89
315.078	-15.36
315.292	-87.04
315.505	13.31
315.719	121.85
315.933	39.94
316.146	3.07
316.36	19.46
316.573	154.62
316.787	154.62
317.001	58.37
317.214	-48.13
317.428	21.5
317.641	-31.74
317.855	58.37
318.068	93.18
318.282	44.03
318.495	140.29
318.709	89.09
318.922	70.65
319.136	193.53
319.349	113.66
319.563	41.98
319.776	74.75
319.99	-7.17
320.203	58.37
320.417	50.18
320.63	91.13
320.843	193.53
321.057	72.7
321.27	29.7
321.483	111.61
321.697	105.47
321.91	58.37
322.124	46.08
322.337	35.84
322.55	64.51
322.763	74.75
322.977	35.84
323.19	-39.94
323.403	-1.02
323.617	48.13
323.83	91.13
324.043	19.46
324.256	37.89
324.469	3.07
324.683	99.33
324.896	121.85
325.109	82.94
325.322	-37.89
325.535	54.27
325.748	142.33
325.962	9.22
326.175	62.46
326.388	78.85
326.601	-15.36
326.814	17.41
327.027	64.51
327.24	168.96
327.453	-17.41
327.666	72.7
327.879	130.05
328.092	35.84
328.305	148.48
328.518	1.02
328.731	-5.12
328.944	39.94
329.157	121.85
329.37	-1.02
329.583	87.04
329.796	183.29
330.009	-48.13
330.222	27.65
330.435	146.43
330.648	87.04
330.861	-25.6
331.073	37.89
331.286	142.33
331.499	142.33
331.712	11.26
331.925	103.42
332.138	97.28
332.35	105.47
332.563	3.07
332.776	195.58
332.989	48.13
333.202	50.18
333.414	74.75
333.627	-7.17
333.84	41.98
334.053	54.27
334.265	-33.79
334.478	15.36
334.691	60.42
334.903	171.01
335.116	5.12
335.329	58.37
335.541	82.94
335.754	211.96
335.966	11.26
336.179	27.65
336.392	13.31
336.604	107.52
336.817	150.53
337.029	199.68
337.242	84.99
337.454	54.27
337.667	7.17
337.88	187.39
338.092	80.89
338.305	80.89
338.517	-13.31
338.729	125.95
338.942	216.06
339.154	111.61
339.367	-21.5
339.579	115.71
339.792	-1.02
340.004	76.8
340.217	97.28
340.429	89.09
340.641	46.08
340.854	25.6
341.066	62.46
341.278	128
341.491	173.05
341.703	33.79
341.915	-15.36
342.128	99.33
342.34	64.51
342.552	29.7
342.764	7.17
342.977	68.61
343.189	39.94
343.401	19.46
343.613	-21.5
343.826	74.75
344.038	101.37
344.25	101.37
344.462	3.07
344.674	84.99
344.886	44.03
345.099	33.79
345.311	107.52
345.523	9.22
345.735	-31.74
345.947	64.51
346.159	56.32
346.371	39.94
346.583	33.79
346.795	156.67
347.007	11.26
347.219	68.61
347.431	-58.37
347.643	160.77
347.855	-3.07
348.067	125.95
348.279	-1.02
348.491	134.14
348.703	128
348.915	31.74
349.127	-82.94
349.339	70.65
349.551	-44.03
349.763	93.18
349.975	60.42
350.187	164.86
350.399	185.34
350.61	52.22
350.822	46.08
351.034	41.98
351.246	72.7
351.458	191.49
351.669	132.09
351.881	119.81
352.093	80.89
352.305	117.76
352.517	29.7
352.728	158.72
352.94	113.66
353.152	58.37
353.363	1.02
353.575	56.32
353.787	148.48
353.999	76.8
354.21	173.05
354.422	-125.95
354.633	-31.74
354.845	76.8
355.057	91.13
355.268	66.56
355.48	19.46
355.692	50.18
355.903	48.13
356.115	-62.46
356.326	-70.65
356.538	128
356.749	74.75
356.961	171.01
357.172	33.79
357.384	-21.5
357.595	185.34
357.807	74.75
358.018	11.26
358.23	91.13
358.441	138.24
358.653	117.76
358.864	109.57
359.075	52.22
359.287	109.57
359.498	185.34
359.709	82.94
359.921	62.46
360.132	160.77
360.344	99.33
360.555	107.52
360.766	121.85
360.977	-11.26
361.189	121.85
361.4	93.18
361.611	158.72
361.823	113.66
362.034	76.8
362.245	-101.37
362.456	82.94
362.667	54.27
362.879	-17.41
363.09	123.9
363.301	66.56
363.512	41.98
363.723	44.03
363.935	15.36
364.146	130.05
364.357	-19.46
364.568	46.08
364.779	-31.74
364.99	187.39
365.201	-29.7
365.412	74.75
365.623	-37.89
365.834	148.48
366.045	21.5
366.256	27.65
366.467	87.04
366.678	23.55
366.889	19.46
367.1	21.5
367.311	171.01
367.522	50.18
367.733	152.57
367.944	105.47
368.155	-29.7
368.366	175.1
368.577	168.96
368.788	140.29
368.999	-31.74
369.209	93.18
369.42	218.11
369.631	277.5
369.842	70.65
370.053	46.08
370.264	164.86
370.474	13.31
370.685	72.7
370.896	27.65
371.107	150.53
371.317	54.27
371.528	13.31
371.739	222.2
371.95	99.33
372.16	44.03
372.371	-41.98
372.582	5.12
372.792	95.23
373.003	3.07
373.214	50.18
373.424	72.7
373.635	-41.98
373.846	146.43
374.056	54.27
374.267	70.65
374.477	48.13
374.688	-56.32
374.898	74.75
375.109	50.18
375.319	123.9
375.53	222.2
375.74	125.95
375.951	52.22
376.161	119.81
376.372	132.09
376.582	13.31
376.793	80.89
377.003	17.41
377.214	1.02
377.424	35.84
377.635	39.94
377.845	64.51
378.055	128
378.266	5.12
378.476	41.98
378.686	13.31
378.897	68.61
379.107	154.62
379.317	93.18
379.528	70.65
379.738	123.9
379.948	7.17
380.158	5.12
380.369	-5.12
380.579	87.04
380.789	-41.98
380.999	168.96
381.21	191.49
381.42	248.83
381.63	41.98
381.84	39.94
382.05	70.65
382.261	103.42
382.471	117.76
382.681	39.94
382.891	201.72
383.101	123.9
383.311	-9.22
383.521	52.22
383.731	105.47
383.941	78.85
384.151	123.9
384.361	5.12
384.571	191.49
384.781	97.28
384.991	205.82
385.201	150.53
385.411	48.13
385.621	89.09
385.831	125.95
386.041	80.89
386.251	-15.36
386.461	171.01
386.671	17.41
386.881	95.23
387.091	-11.26
387.301	189.44
387.511	78.85
387.72	103.42
387.93	99.33
388.14	-41.98
388.35	64.51
388.56	160.77
388.769	156.67
388.979	56.32
389.189	11.26
389.399	99.33
389.609	144.38
389.818	87.04
390.028	82.94
390.238	103.42
390.447	-25.6
390.657	-9.22
390.867	33.79
391.076	-48.13
391.286	41.98
391.496	56.32
391.705	35.84
391.915	128
392.125	164.86
392.334	19.46
392.544	117.76
392.753	142.33
392.963	9.22
393.172	107.52
393.382	39.94
393.591	156.67
393.801	41.98
394.01	134.14
394.22	148.48
394.429	68.61
394.639	23.55
394.848	72.7
395.058	101.37
395.267	50.18
395.477	125.95
395.686	48.13
395.895	250.88
396.105	224.25
396.314	87.04
396.524	44.03
396.733	50.18
396.942	82.94
397.152	84.99
397.361	138.24
397.57	107.52
397.78	70.65
397.989	218.11
398.198	162.81
398.407	117.76
398.617	80.89
398.826	117.76
399.035	39.94
399.244	93.18
399.453	99.33
399.663	132.09
399.872	80.89
400.081	-44.03
400.29	84.99
400.499	-44.03
400.708	95.23
400.917	125.95
401.127	105.47
401.336	15.36
401.545	183.29
401.754	97.28
401.963	138.24
402.172	140.29
402.381	9.22
402.59	-29.7
402.799	48.13
403.008	160.77
403.217	62.46
403.426	74.75
403.635	-5.12
403.844	64.51
404.053	93.18
404.262	60.42
404.471	248.83
404.68	35.84
404.888	132.09
405.097	70.65
405.306	115.71
405.515	136.19
405.724	-29.7
405.933	185.34
406.142	9.22
406.35	152.57
406.559	33.79
406.768	44.03
406.977	234.49
407.185	115.71
407.394	56.32
407.603	-17.41
407.812	54.27
408.02	142.33
408.229	87.04
408.438	97.28
408.646	-60.42
408.855	93.18
409.064	72.7
409.272	72.7
409.481	130.05
409.69	25.6
409.898	-25.6
410.107	134.14
410.315	177.15
410.524	80.89
410.733	27.65
410.941	39.94
411.15	72.7
411.358	78.85
411.567	144.38
411.775	117.76
411.984	160.77
412.192	89.09
412.401	72.7
412.609	140.29
412.818	60.42
413.026	142.33
413.234	84.99
413.443	46.08
413.651	52.22
413.86	17.41
414.068	162.81
414.276	220.16
414.485	13.31
414.693	168.96
414.901	144.38
415.11	105.47
415.318	66.56
415.526	121.85
415.734	97.28
415.943	146.43
416.151	173.05
416.359	68.61
416.567	64.51
416.776	84.99
416.984	103.42
417.192	220.16
417.4	39.94
417.608	39.94
417.817	-50.18
418.025	199.68
418.233	113.66
418.441	21.5
418.649	-7.17
418.857	37.89
419.065	154.62
419.273	89.09
419.481	23.55
419.689	-3.07
419.897	-21.5
420.105	-35.84
420.313	132.09
420.521	222.2
420.729	132.09
420.937	29.7
421.145	25.6
421.353	91.13
421.561	220.16
421.769	103.42
421.977	50.18
422.185	74.75
422.393	105.47
422.601	119.81
422.809	99.33
423.017	84.99
423.224	132.09
423.432	152.57
423.64	33.79
423.848	218.11
424.056	48.13
424.263	142.33
424.471	89.09
424.679	226.3
424.887	17.41
425.094	191.49
425.302	39.94
425.51	72.7
425.718	175.1
425.925	82.94
426.133	48.13
426.341	207.87
426.548	183.29
426.756	41.98
426.964	107.52
427.171	60.42
427.379	132.09
427.586	48.13
427.794	123.9
428.001	207.87
428.209	142.33
428.417	199.68
428.624	93.18
428.832	93.18
429.039	66.56
429.247	142.33
429.454	205.82
429.662	257.02
429.869	220.16
430.076	148.48
430.284	179.2
430.491	175.1
430.699	171.01
430.906	285.69
431.114	121.85
431.321	168.96
431.528	185.34
431.736	175.1
431.943	183.29
432.15	181.25
432.358	240.64
432.565	306.17
432.772	130.05
432.979	265.21
433.187	214.01
433.394	271.36
433.601	128
433.808	279.55
434.016	207.87
434.223	211.96
434.43	209.92
434.637	343.03
434.844	390.14
435.052	306.17
435.259	363.51
435.466	359.42
435.673	265.21
435.88	367.61
436.087	517.11
436.294	392.19
436.501	416.76
436.708	314.36
436.915	297.98
437.122	439.29
437.329	338.94
437.537	396.28
437.743	418.81
437.95	484.34
438.157	418.81
438.364	390.14
438.571	494.58
438.778	578.55
438.985	572.41
439.192	529.4
439.399	539.64
439.606	523.26
439.813	599.03
440.02	668.66
440.227	683
440.433	680.95
440.64	642.04
440.847	525.3
441.054	642.04
441.261	809.97
441.467	754.68
441.674	762.87
441.881	752.63
442.088	711.67
442.294	855.03
442.501	867.31
442.708	867.31
442.914	963.57
443.121	1045.49
443.328	1104.88
443.534	1047.54
443.741	986.1
443.948	1037.3
444.154	1162.22
444.361	1334.25
444.568	1197.04
444.774	1213.42
444.981	1123.31
445.187	1424.36
445.394	1371.12
445.6	1319.92
445.807	1514.47
446.013	1489.9
446.22	1504.23
446.426	1674.21
446.633	1700.84
446.839	1836
447.046	1604.58
447.252	1858.53
447.459	1766.37
447.665	1852.39
447.871	2085.86
448.078	2137.06
448.284	2077.66
448.491	2325.47
448.697	2323.42
448.903	2601.94
449.11	2569.18
449.316	2429.91
449.522	2753.49
449.728	2808.79
449.935	3013.59
450.141	2933.72
450.347	3036.11
450.553	3066.83
450.76	3214.29
450.966	3484.62
451.172	3419.08
451.378	3699.66
451.584	3605.45
451.791	4086.72
451.997	3976.13
452.203	4258.75
452.409	4305.85
452.615	4404.16
452.821	4582.33
453.027	4410.3
453.233	5004.21
453.44	4860.85
453.646	5172.15
453.852	5362.61
454.058	5688.23
454.264	5759.91
454.47	6081.44
454.676	6267.81
454.882	6603.68
455.088	6341.54
455.294	6716.31
455.5	7269.27
455.705	7775.11
455.911	7621.52
456.117	7838.6
456.323	8213.38
456.529	8115.08
456.735	8819.58
456.941	9100.15
457.147	9302.9
457.352	9708.4
457.558	9974.63
457.764	10576.73
457.97	10873.69
458.176	11369.3
458.381	11871.05
458.587	11973.45
458.793	12608.32
458.999	12544.83
459.204	14068.52
459.41	14723.87
459.616	14273.32
459.821	15362.84
460.027	15991.56
460.233	16685.83
460.438	16753.41
460.644	17519.35
460.85	18043.63
461.055	18572
461.261	19249.88
461.466	19157.72
461.672	19567.32
461.878	21725.88
462.083	21811.89
462.289	21885.62
462.494	22842.02
462.7	22893.22
462.905	23356.06
463.111	25186.94
463.316	26284.65
463.522	26995.3
463.727	27652.7
463.932	28772.94
464.138	29919.8
464.343	30898.73
464.549	30859.82
464.754	33192.45
464.959	34202.1
465.165	34468.34
465.37	34812.4
465.575	33958.39
465.781	37032.39
465.986	37935.55
466.191	37249.48
466.397	37796.29
466.602	36981.2
466.807	39147.95
467.012	39401.89
467.218	40515.99
467.423	40368.54
467.628	41859.46
467.833	43360.62
468.038	42758.52
468.244	42289.53
468.449	43714.92
468.654	43168.11
468.859	43475.3
469.064	43137.39
469.269	42604.92
469.474	42703.22
469.679	43850.08
469.885	42996.08
470.09	43196.78
470.295	43649.38
470.5	42379.64
470.705	42508.66
470.91	41625.99
471.115	41390.47
471.32	41820.55
471.525	41826.69
471.73	40491.41
471.935	40151.45
472.139	38367.67
472.344	38937.01
472.549	38965.68
472.754	37937.6
472.959	36987.34
473.164	35983.83
473.369	35428.84
473.574	36368.85
473.778	35676.64
473.983	34777.58
474.188	34615.79
474.393	32707.08
474.598	32731.66
474.802	31891.99
475.007	31920.66
475.212	31195.68
475.417	30022.2
475.621	30034.49
475.826	29393.47
476.031	28910.15
476.235	27941.46
476.44	28140.11
476.645	27081.31
476.849	27144.8
477.054	26641
477.259	26227.31
477.463	25967.22
477.668	25090.69
477.872	25385.6
478.077	24789.64
478.282	23978.64
478.486	23679.64
478.691	23362.2
478.895	23124.64
479.1	23184.03
479.304	23292.57
479.509	22309.55
479.713	22577.83
479.918	22176.43
480.122	21609.14
480.326	21883.57
480.531	21756.6
480.735	21392.06
480.94	21119.68
481.144	21881.52
481.348	20505.29
481.553	21035.71
481.757	20140.75
481.961	20603.59
482.166	20628.17
482.37	20493
482.574	19966.67
482.778	19710.68
482.983	20099.79
483.187	19542.74
483.391	19339.99
483.595	19360.47
483.8	18770.66
484.004	19161.82
484.208	18723.55
484.412	18643.68
484.616	18334.44
484.821	18299.62
485.025	17734.39
485.229	18021.1
485.433	17447.67
485.637	17398.52
485.841	17134.33
486.045	16780.03
486.249	16810.75
486.453	16255.75
486.657	16173.83
486.861	15938.32
487.065	15330.07
487.269	15893.26
487.473	15072.03
487.677	15141.66
487.881	15196.95
488.085	14703.39
488.289	14390.05
488.493	14062.38
488.697	14070.57
488.901	13691.7
489.105	13691.7
489.309	13210.42
489.512	13042.49
489.716	12733.25
489.92	12524.35
490.124	12458.82
490.328	12473.15
490.531	11965.26
490.735	11897.67
490.939	11666.25
491.143	11357.01
491.346	11301.72
491.55	11227.99
491.754	10777.44
491.958	10683.23
492.161	10576.73
492.365	10269.54
492.569	9984.87
492.772	10117.99
492.976	10173.28
493.18	9982.82
493.383	9818.99
493.587	9765.74
493.79	9726.83
493.994	9284.47
494.197	9282.42
494.401	9220.98
494.605	9190.26
494.808	9128.82
495.012	9073.53
495.215	9089.91
495.419	8909.69
495.622	8655.74
495.825	8649.6
496.029	8721.27
496.232	8799.1
496.436	8518.53
496.639	8663.93
496.843	8473.47
497.046	8803.19
497.249	8602.49
497.453	8670.08
497.656	8700.8
497.859	8633.21
498.063	8760.19
498.266	8688.51
498.469	8541.05
498.673	8741.75
498.876	8723.32
499.079	8721.27
499.282	8686.46
499.485	9067.38
499.689	9022.33
499.892	9089.91
500.095	8823.67
500.298	9167.73
500.501	9124.72
500.705	9223.03
500.908	9462.64
501.111	9214.84
501.314	9509.74
501.517	9655.15
501.72	9591.66
501.923	9751.4
502.126	9778.03
502.329	10025.83
502.532	9905
502.735	10077.03
502.938	10355.55
503.141	10560.35
503.344	10617.69
503.547	10785.63
503.75	10781.53
503.953	10851.16
504.156	11244.37
504.359	11215.7
504.562	11297.62
504.765	11543.38
504.968	11768.65
505.17	12122.95
505.373	12165.96
505.576	12520.26
505.779	12704.57
505.982	12667.71
506.185	13073.21
506.387	13185.85
506.59	13411.12
506.793	13525.81
506.996	13665.07
507.198	14240.55
507.401	14406.44
507.604	14893.85
507.807	15127.32
508.009	15342.36
508.212	15356.69
508.415	15729.42
508.617	16276.23
508.82	16519.94
509.022	16237.32
509.225	17396.47
509.428	17429.24
509.63	18053.87
509.833	18150.12
510.035	18907.87
510.238	18928.35
510.44	19409.62
510.643	19954.38
510.845	20318.92
511.048	20800.19
511.25	21078.72
511.453	21494.46
511.655	22457
511.858	22612.65
512.06	22956.71
512.262	23718.55
512.465	23935.63
512.667	24785.54
512.87	25414.27
513.072	25373.31
513.274	26614.38
513.477	27040.36
513.679	27521.63
513.881	28258.9
514.084	28926.53
514.286	29198.91
514.488	29981.24
514.69	31167.01
514.893	31265.31
515.095	31943.19
515.297	32555.54
515.499	33143.3
515.701	34208.25
515.904	34777.58
516.106	35299.81
516.308	36073.95
516.51	37030.35
516.712	37341.64
516.914	38328.76
517.116	39049.64
517.318	39625.12
517.52	40391.06
517.722	40929.68
517.925	41990.53
518.127	42580.34
518.329	43297.13
518.531	43514.22
518.733	44489.05
518.935	45525.32
519.136	46172.48
519.338	46909.75
519.54	47255.85
519.742	48232.74
519.944	48634.14
520.146	49826.06
520.348	50635
520.55	50921.72
520.752	51192.05
520.954	52279.52
521.155	52328.67
521.357	53383.38
521.559	53936.33
521.761	54653.12
521.963	54786.24
522.164	55077.05
522.366	55306.42
522.568	56494.24
522.77	56383.65
522.971	57542.8
523.173	57219.22
523.375	57747.6
523.576	57503.89
523.778	57874.57
523.98	58503.3
524.181	59261.05
524.383	59003
524.584	59734.13
524.786	59396.21
524.988	58980.48
525.189	59859.05
525.391	59697.27
525.592	59746.42
525.794	60037.23
525.995	59760.75
526.197	59512.95
526.398	59883.63
526.6	59840.62
526.801	59877.49
527.003	59254.9
527.204	59396.21
527.406	59111.55
527.607	58826.88
527.808	59107.45
528.01	57856.14
528.211	58030.22
528.412	58599.55
528.614	57854.09
528.815	57354.39
529.016	57579.67
529.218	56322.21
529.419	56019.11
529.62	55265.46
529.822	55240.89
530.023	55081.14
530.224	54311.11
530.425	54018.25
530.626	52771.03
530.828	52293.86
531.029	52904.15
531.23	51644.65
531.431	50811.13
531.632	50555.13
531.833	50188.55
532.035	49494.28
532.236	48986.39
532.437	48365.85
532.638	47358.25
532.839	47569.19
533.04	46752.05
533.241	45996.35
533.442	45853
533.643	44958.03
533.844	44153.18
534.045	43954.53
534.246	43022.7
534.447	42803.57
534.648	42097.02
534.849	42000.77
535.05	40948.11
535.251	40597.91
535.451	39913.89
535.652	39760.29
535.853	38947.25
536.054	38322.62
536.255	38066.62
536.456	37267.91
536.657	37255.62
536.857	36682.19
537.058	35998.17
537.259	35617.25
537.46	35361.25
537.66	34593.26
537.861	34695.66
538.062	33423.87
538.263	33128.97
538.463	32864.78
538.664	32430.61
538.865	32016.92
539.065	32012.82
539.266	31173.16
539.466	31107.62
539.667	30140.98
539.868	30388.78
540.068	29866.55
540.269	29563.45
540.469	29170.24
540.67	28650.06
540.87	28478.03
541.071	28037.72
541.271	27861.59
541.472	27361.89
541.672	26958.44
541.873	26587.75
542.073	26442.35
542.274	26473.07
542.474	25969.27
542.675	25363.07
542.875	25545.34
543.075	25182.85
543.276	24328.84
543.476	24660.62
543.676	24312.46
543.877	23874.2
544.077	23937.68
544.277	23458.46
544.478	23296.67
544.678	23390.88
544.878	22561.45
545.078	22684.33
545.279	22084.27
545.479	21844.66
545.679	21621.43
545.879	21445.3
546.079	21344.95
546.28	21045.95
546.48	20697.8
546.68	20519.62
546.88	20175.56
547.08	19995.34
547.28	19811.03
547.48	19354.33
547.68	19301.08
547.88	19059.42
548.081	19102.43
548.281	18475.75
548.481	18303.72
548.681	18078.44
548.881	17941.23
549.081	17816.3
549.28	17119.99
549.48	17406.71
549.68	16505.6
549.88	16849.66
550.08	16276.23
550.28	16560.9
550.48	16173.83
550.68	16106.25
550.88	15573.78
551.08	15344.41
551.279	15016.73
551.479	15043.35
551.679	14979.87
551.879	14422.82
552.079	14676.77
552.278	14031.66
552.478	14256.93
552.678	13814.57
552.878	13779.76
553.077	13349.68
553.277	12907.32
553.477	13026.11
553.676	12913.47
553.876	12671.81
554.076	12254.02
554.275	12157.77
554.475	11791.18
554.674	11942.73
554.874	11520.85
555.074	11275.09
555.273	11434.83
555.473	11107.16
555.672	10980.18
555.872	10548.06
556.071	10701.66
556.271	10713.95
556.47	9976.68
556.67	10050.41
556.869	9999.21
557.068	9694.06
557.268	9704.3
557.467	9382.77
557.667	9188.21
557.866	9225.08
558.065	8921.98
558.265	8926.07
558.464	8459.13
558.663	8786.81
558.863	8338.3
559.062	8352.64
559.261	8131.46
559.461	8283.01
559.66	7875.46
559.859	8006.53
560.058	7725.96
560.258	7332.75
560.457	7211.92
560.656	7412.62
560.855	6980.5
561.054	7177.11
561.253	7017.36
561.453	6747.03
561.652	6863.77
561.851	6683.55
562.05	6425.5
562.249	6491.04
562.448	6441.89
562.647	6304.67
562.846	6118.31
563.045	6175.65
563.244	5966.76
563.443	5901.22
563.642	5858.21
563.841	5819.3
564.04	5634.99
564.239	5596.07
564.438	5475.24
564.637	5499.82
564.836	5274.54
565.035	5041.08
565.234	5096.37
565.432	5094.32
565.631	5090.23
565.83	4971.44
566.029	4881.33
566.228	4785.08
566.427	4922.29
566.625	4527.03
566.824	4541.37
567.023	4604.86
567.222	4393.92
567.42	4240.32
567.619	4428.73
567.818	4268.99
568.016	4330.43
568.215	4172.74
568.414	4185.02
568.612	4203.46
568.811	4094.91
569.01	3890.12
569.208	3869.64
569.407	3896.26
569.605	3752.9
569.804	3693.51
570.002	3679.18
570.201	3378.12
570.4	3660.74
570.598	3582.92
570.797	3458
570.995	3392.46
571.193	3302.35
571.392	3353.55
571.59	3265.49
571.789	3353.55
571.987	3230.67
572.186	3222.48
572.384	3083.22
572.582	2900.95
572.781	3097.55
572.979	2935.76
573.177	2816.98
573.376	2808.79
573.574	2909.14
573.772	2819.03
573.971	2710.49
574.169	2589.66
574.367	2741.21
574.565	2573.27
574.763	2591.7
574.962	2620.38
575.16	2360.28
575.358	2505.69
575.556	2462.68
575.754	2434.01
575.952	2485.21
576.151	2366.43
576.349	2210.78
576.547	2239.45
576.745	2204.64
576.943	2325.47
577.141	2024.42
577.339	2135.01
577.537	2128.86
577.735	2040.8
577.933	1936.35
578.131	1928.16
578.329	2040.8
578.527	1975.27
578.725	2032.61
578.923	1797.09
579.121	1842.15
579.319	1760.23
579.516	1795.04
579.714	1856.48
579.912	1674.21
580.11	1678.31
580.308	1575.91
580.506	1512.42
580.704	1438.7
580.901	1534.95
581.099	1661.93
581.297	1674.21
581.495	1575.91
581.692	1446.89
581.89	1561.58
582.088	1479.66
582.285	1442.79
582.483	1424.36
582.681	1414.12
582.878	1293.29
583.076	1336.3
583.274	1448.94
583.471	1446.89
583.669	1291.24
583.866	1203.18
584.064	1225.71
584.262	1172.46
584.459	1197.04
584.657	1201.13
584.854	1285.1
585.052	1135.6
585.249	1221.61
585.447	1262.57
585.644	1045.49
585.841	1135.6
586.039	1170.41
586.236	1166.32
586.434	1072.11
586.631	1041.39
586.828	936.95
587.026	1014.77
587.223	859.12
587.42	1031.15
587.618	1018.86
587.815	1057.78
588.012	1012.72
588.21	889.84
588.407	1100.78
588.604	984.05
588.801	895.99
588.999	895.99
589.196	982
589.393	926.71
589.59	930.8
589.787	787.44
589.984	959.47
590.182	912.37
590.379	803.83
590.576	812.02
590.773	787.44
590.97	754.68
591.167	848.88
591.364	906.23
591.561	803.83
591.758	875.51
591.955	887.79
592.152	904.18
592.349	746.48
592.546	818.16
592.743	803.83
592.94	816.12
593.137	844.79
593.334	861.17
593.531	873.46
593.727	938.99
593.924	879.6
594.121	740.34
594.318	809.97
594.515	922.61
594.712	992.24
594.908	857.07
595.105	793.59
595.302	957.43
595.499	820.21
595.696	1022.96
595.892	846.84
596.089	1049.58
596.286	951.28
596.482	994.29
596.679	936.95
596.876	1049.58
597.072	1170.41
597.269	1115.12
597.466	1131.5
597.662	1072.11
597.859	1141.74
598.055	1194.99
598.252	1151.98
598.448	1278.96
598.645	1317.87
598.841	1336.3
599.038	1487.85
599.234	1530.86
599.431	1457.13
599.627	1539.05
599.824	1569.77
600.02	1608.68
600.217	1698.79
600.413	1737.7
600.609	1870.82
600.806	2057.18
601.002	1969.12
601.198	1907.68
601.395	2182.11
601.591	2155.49
601.787	2229.21
601.984	2380.76
602.18	2575.32
602.376	2491.35
602.572	2589.66
602.769	2898.9
602.965	2857.94
603.161	2913.24
603.357	3105.74
603.553	3122.13
603.75	3300.3
603.946	3277.77
604.142	3365.84
604.338	3787.72
604.534	3658.7
604.73	3711.94
604.926	3855.3
605.122	4238.27
605.318	4117.44
605.514	4430.78
605.71	4377.53
605.906	4600.76
606.102	4746.17
606.298	4854.71
606.494	4887.48
606.69	5258.16
606.886	5217.2
607.082	5166
607.278	5579.69
607.474	5944.23
607.67	5958.57
607.866	6015.91
608.062	6327.2
608.257	6476.7
608.453	6402.97
608.649	6706.07
608.845	6808.47
609.041	6986.65
609.236	7256.98
609.432	7476.11
609.628	7623.56
609.824	7838.6
610.019	8018.82
610.215	8385.41
610.411	8567.68
610.606	8833.91
610.802	8989.56
610.998	9165.68
611.193	9722.73
611.389	9597.81
611.584	9876.33
611.78	10144.61
611.976	10369.89
612.171	10992.47
612.367	10990.42
612.562	11205.46
612.758	11420.5
612.953	11629.39
613.149	12276.55
613.344	12456.77
613.539	12663.61
613.735	13228.85
613.93	13419.32
614.126	13865.77
614.321	14218.02
614.517	14451.49
614.712	15000.35
614.907	15260.44
615.103	15803.15
615.298	16046.86
615.493	16481.03
615.688	16651.01
615.884	17406.71
616.079	17474.29
616.274	18057.96
616.47	18516.71
616.665	18993.89
616.86	19610.32
617.055	20169.42
617.25	20206.28
617.445	21209.79
617.641	21340.86
617.836	22315.69
618.031	22573.74
618.226	23319.2
618.421	23595.67
618.616	24287.89
618.811	24736.39
619.006	25494.14
619.201	25557.63
619.396	26559.08
619.591	26456.68
619.786	27763.29
619.981	28035.67
620.176	29024.84
620.371	29155.91
620.566	29839.93
620.761	30480.94
620.956	31265.31
621.151	31025.7
621.346	32299.54
621.541	32655.89
621.735	34032.12
621.93	33960.44
622.125	34388.47
622.32	35047.91
622.515	35789.28
622.709	36323.8
622.904	37011.92
623.099	37493.19
623.294	38752.69
623.488	38902.19
623.683	39872.93
623.878	40169.88
624.072	41089.42
624.267	41744.77
624.462	42310.01
624.656	42989.94
624.851	43876.71
625.046	44144.99
625.24	44859.73
625.435	45504.84
625.629	46201.15
625.824	46709.05
626.018	47233.33
626.213	47266.09
626.407	48316.7
626.602	48216.35
626.796	49178.9
626.991	49565.96
627.185	50010.37
627.38	49846.54
627.574	50256.13
627.768	50592
627.963	51017.97
628.157	50514.17
628.352	51476.72
628.546	51218.67
628.74	51929.32
628.935	51120.37
629.129	51587.31
629.323	50837.75
629.517	50868.47
629.712	50391.3
629.906	50358.53
630.1	49529.1
630.294	49684.75
630.489	48603.42
630.683	48523.55
630.877	47147.31
631.071	46807.35
631.265	46426.43
631.459	45742.41
631.653	44159.33
631.848	43551.08
632.042	42363.26
632.236	41683.33
632.43	40116.64
632.624	39266.73
632.818	38402.49
633.012	36989.39
633.206	35750.37
633.4	35066.34
633.594	33362.43
633.788	32463.38
633.982	31599.13
634.176	30296.63
634.369	29409.86
634.563	28490.32
634.757	26970.72
634.951	26651.24
635.145	25326.21
635.339	24052.37
635.533	23362.2
635.726	22753.96
635.92	21240.51
636.114	20427.46
636.308	19552.98
636.501	19006.17
636.695	18455.27
636.889	17089.28
637.083	16685.83
637.276	15950.6
637.47	15385.37
637.664	14770.97
637.857	14306.09
638.051	13808.43
638.244	13067.06
638.438	12493.63
638.632	12258.12
638.825	11555.66
639.019	11197.27
639.212	10627.93
639.406	10244.96
639.599	9802.6
639.793	9489.26
639.986	9085.81
640.18	8731.51
640.373	8522.62
640.567	8070.02
640.76	7781.26
640.954	7586.7
641.147	6996.89
641.34	6773.66
641.534	6853.53
641.727	6499.23
641.92	6276
642.114	5811.11
642.307	5856.17
642.5	5497.77
642.694	5329.84
642.887	5100.47
643.08	4885.43
643.273	4787.13
643.467	4377.53
643.66	4359.1
643.853	4058.05
644.046	4045.76
644.239	3943.36
644.432	3630.02
644.626	3496.91
644.819	3572.68
645.012	3331.02
645.205	3105.74
645.398	3189.71
645.591	2986.96
645.784	2853.84
645.977	2718.68
646.17	2653.14
646.363	2536.41
646.556	2421.72
646.749	2173.92
646.942	2243.55
647.135	2251.74
647.328	2194.4
647.521	1915.87
647.714	1868.77
647.907	1956.83
648.099	1762.28
648.292	1833.96
648.485	1688.55
648.678	1502.19
648.871	1633.26
649.064	1489.9
649.256	1371.12
649.449	1389.55
649.642	1281
649.835	1281
650.027	1244.14
650.22	1231.85
650.413	1174.51
650.605	1178.61
650.798	1027.06
650.991	1018.86
651.183	998.38
651.376	977.91
651.568	947.19
651.761	859.12
651.954	1016.82
652.146	836.6
652.339	891.89
652.531	910.32
652.724	709.62
652.916	703.48
653.109	619.51
653.301	789.49
653.494	762.87
653.686	721.91
653.879	791.54
654.071	654.33
654.263	560.12
654.456	590.84
654.648	674.81
654.84	580.6
655.033	537.59
655.225	609.27
655.417	431.1
655.61	685.05
655.802	556.02
655.994	621.56
656.186	392.19
656.379	572.41
656.571	433.15
656.763	371.71
656.955	424.95
657.148	363.51
657.34	508.92
657.532	424.95
657.724	406.52
657.916	400.38
658.108	443.39
658.3	357.37
658.492	437.24
658.684	338.94
658.876	533.5
659.068	277.5
659.26	240.64
659.452	257.02
659.644	259.07
659.836	416.76
660.028	269.31
660.22	234.49
660.412	297.98
660.604	265.21
660.796	289.79
660.988	324.6
661.18	345.08
661.372	336.89
661.563	209.92
661.755	300.03
661.947	218.11
662.139	187.39
662.331	220.16
662.522	232.44
662.714	168.96
662.906	218.11
663.097	273.4
663.289	160.77
663.481	177.15
663.673	230.4
663.864	160.77
664.056	265.21
664.247	154.62
664.439	332.79
664.631	236.54
664.822	205.82
665.014	162.81
665.205	201.72
665.397	197.63
665.588	242.68
665.78	105.47
665.971	242.68
666.163	197.63
666.354	232.44
666.546	121.85
666.737	148.48
666.929	203.77
667.12	207.87
667.311	209.92
667.503	136.19
667.694	113.66
667.885	187.39
668.077	195.58
668.268	72.7
668.459	132.09
668.651	111.61
668.842	197.63
669.033	175.1
669.224	64.51
669.416	361.47
669.607	168.96
669.798	105.47
669.989	252.92
670.18	156.67
670.371	173.05
670.563	54.27
670.754	285.69
670.945	214.01
671.136	168.96
671.327	7.17
671.518	232.44
671.709	293.88
671.9	189.44
672.091	230.4
672.282	128
672.473	97.28
672.664	48.13
672.855	148.48
673.046	142.33
673.237	193.53
673.428	158.72
673.619	216.06
673.809	76.8
674	248.83
674.191	175.1
674.382	187.39
674.573	152.57
674.764	121.85
674.954	273.4
675.145	82.94
675.336	64.51
675.527	97.28
675.717	160.77
675.908	144.38
676.099	105.47
676.289	115.71
676.48	119.81
676.671	136.19
676.861	156.67
677.052	201.72
677.243	144.38
677.433	29.7
677.624	138.24
677.814	156.67
678.005	195.58
678.195	281.6
678.386	103.42
678.576	99.33
678.767	27.65
678.957	142.33
679.148	207.87
679.338	312.32
679.529	234.49
679.719	89.09
679.909	269.31
680.1	226.3
680.29	171.01
680.481	72.7
680.671	242.68
680.861	189.44
681.052	175.1
681.242	113.66
681.432	171.01
681.622	162.81
681.813	64.51
682.003	207.87
682.193	82.94
682.383	183.29
682.573	119.81
682.764	113.66
682.954	183.29
683.144	263.16
683.334	132.09
683.524	113.66
683.714	267.26
683.904	234.49
684.094	156.67
684.284	105.47
684.474	291.84
684.664	279.55
684.854	138.24
685.044	166.91
685.234	197.63
685.424	162.81
685.614	201.72
685.804	330.75
685.994	214.01
686.184	113.66
686.374	228.35
686.564	222.2
686.753	209.92
686.943	134.14
687.133	214.01
687.323	121.85
687.513	244.73
687.702	162.81
687.892	154.62
688.082	189.44
688.272	189.44
688.461	222.2
688.651	322.56
688.841	197.63
689.03	132.09
689.22	138.24
689.41	252.92
689.599	193.53
689.789	160.77
689.979	287.74
690.168	181.25
690.358	234.49
690.547	242.68
690.737	166.91
690.926	191.49
691.116	248.83
691.305	254.97
691.495	154.62
691.684	123.9
691.874	189.44
692.063	140.29
692.252	248.83
692.442	230.4
692.631	134.14
692.82	140.29
693.01	248.83
693.199	222.2
693.388	261.12
693.578	265.21
693.767	211.96
693.956	214.01
694.146	82.94
694.335	154.62
694.524	154.62
694.713	209.92
694.902	216.06
695.092	189.44
695.281	259.07
695.47	181.25
695.659	164.86
695.848	132.09
696.037	156.67
696.226	152.57
696.415	103.42
696.604	236.54
696.793	164.86
696.982	115.71
697.171	246.78
697.36	121.85
697.549	207.87
697.738	125.95
697.927	80.89
698.116	183.29
698.305	236.54
698.494	193.53
698.683	78.85
698.872	316.41
699.061	138.24
699.25	187.39
699.438	197.63
699.627	123.9
699.816	209.92
700.005	130.05
700.193	125.95
700.382	216.06
700.571	168.96
700.76	144.38
700.948	263.16
701.137	312.32
701.326	103.42
701.514	121.85
701.703	130.05
701.892	185.34
702.08	332.79
702.269	128
702.457	140.29
702.646	185.34
702.834	142.33
703.023	236.54
703.212	279.55
703.4	101.37
703.589	197.63
703.777	173.05
703.965	103.42
704.154	148.48
704.342	66.56
704.531	66.56
704.719	267.26
704.907	281.6
705.096	89.09
705.284	76.8
705.472	248.83
705.661	115.71
705.849	179.2
706.037	226.3
706.226	203.77
706.414	203.77
706.602	117.76
706.79	214.01
706.979	109.57
707.167	160.77
707.355	171.01
707.543	207.87
707.731	144.38
707.919	211.96
708.107	97.28
708.296	265.21
708.484	115.71
708.672	154.62
708.86	179.2
709.048	201.72
709.236	101.37
709.424	136.19
709.612	297.98
709.8	50.18
709.988	226.3
710.176	216.06
710.364	279.55
710.551	152.57
710.739	179.2
710.927	193.53
711.115	142.33
711.303	269.31
711.491	185.34
711.679	134.14
711.866	230.4
712.054	105.47
712.242	177.15
712.43	248.83
712.617	156.67
712.805	211.96
712.993	177.15
713.181	66.56
713.368	271.36
713.556	193.53
713.744	177.15
713.931	404.47
714.119	291.84
714.306	123.9
714.494	207.87
714.682	132.09
714.869	123.9
715.057	138.24
715.244	109.57
715.432	136.19
715.619	66.56
715.807	156.67
715.994	121.85
716.182	193.53
716.369	236.54
716.556	197.63
716.744	74.75
716.931	130.05
717.119	197.63
717.306	234.49
717.493	199.68
717.681	109.57
717.868	168.96
718.055	226.3
718.242	252.92
718.43	232.44
718.617	209.92
718.804	152.57
718.991	287.74
719.179	179.2
719.366	154.62
719.553	240.64
719.74	179.2
719.927	179.2
720.114	173.05
720.301	103.42
720.488	146.43
720.676	125.95
720.863	257.02
721.05	461.82
721.237	211.96
721.424	171.01
721.611	171.01
721.798	91.13
721.985	103.42
722.172	199.68
722.358	267.26
722.545	261.12
722.732	197.63
722.919	242.68
723.106	209.92
723.293	185.34
723.48	125.95
723.667	156.67
723.853	214.01
724.04	238.59
724.227	234.49
724.414	228.35
724.6	259.07
724.787	287.74
724.974	324.6
725.161	189.44
725.347	95.23
725.534	232.44
725.72	230.4
725.907	269.31
726.094	244.73
726.28	132.09
726.467	226.3
726.653	189.44
726.84	285.69
727.027	304.12
727.213	222.2
727.4	205.82
727.586	259.07
727.773	168.96
727.959	250.88
728.145	250.88
728.332	138.24
728.518	164.86
728.705	295.93
728.891	226.3
729.077	281.6
729.264	41.98
729.45	158.72
729.636	283.64
729.823	187.39
730.009	246.78
730.195	234.49
730.382	193.53
730.568	187.39
730.754	257.02
730.94	173.05
731.126	230.4
731.313	275.45
731.499	138.24
731.685	209.92
731.871	265.21
732.057	293.88
732.243	207.87
732.429	259.07
732.615	250.88
732.801	244.73
732.987	185.34
733.173	240.64
733.359	181.25
733.545	220.16
733.731	185.34
733.917	287.74
734.103	214.01
734.289	289.79
734.475	179.2
734.661	357.37
734.847	226.3
735.033	187.39
735.219	343.03
735.404	142.33
735.59	238.59
735.776	269.31
735.962	132.09
736.148	269.31
736.333	332.79
736.519	312.32
736.705	193.53
736.89	179.2
737.076	164.86
737.262	183.29
737.447	140.29
737.633	263.16
737.819	218.11
738.004	216.06
738.19	211.96
738.375	248.83
738.561	326.65
738.747	240.64
738.932	130.05
739.118	351.23
739.303	279.55
739.489	304.12
739.674	152.57
739.859	185.34
740.045	267.26
740.23	265.21
740.416	76.8
740.601	250.88
740.786	250.88
740.972	152.57
741.157	162.81
741.342	175.1
741.528	87.04
741.713	297.98
741.898	189.44
742.084	220.16
742.269	205.82
742.454	267.26
742.639	343.03
742.824	201.72
743.01	297.98
743.195	273.4
743.38	220.16
743.565	187.39
743.75	197.63
743.935	214.01
744.12	281.6
744.305	209.92
744.49	195.58
744.675	152.57
744.86	128
745.045	279.55
745.23	168.96
745.415	117.76
745.6	287.74
745.785	179.2
745.97	273.4
746.155	281.6
746.34	265.21
746.525	273.4
746.71	285.69
746.895	154.62
747.079	130.05
747.264	160.77
747.449	259.07
747.634	271.36
747.819	207.87
748.003	146.43
748.188	142.33
748.373	189.44
748.557	136.19
748.742	277.5
748.927	242.68
749.111	119.81
749.296	181.25
749.481	289.79
749.665	166.91
749.85	121.85
750.034	250.88
750.219	275.45
750.404	168.96
750.588	216.06
750.773	105.47
750.957	230.4
751.141	177.15
751.326	173.05
751.51	99.33
751.695	246.78
751.879	156.67
752.064	277.5
752.248	166.91
752.432	306.17
752.617	211.96
752.801	187.39
752.985	199.68
753.17	246.78
753.354	242.68
753.538	228.35
753.722	132.09
753.907	164.86
754.091	56.32
754.275	242.68
754.459	23.55
754.643	134.14
754.828	189.44
755.012	211.96
755.196	58.37
755.38	179.2
755.564	72.7
755.748	187.39
755.932	236.54
756.116	175.1
756.3	209.92
756.484	113.66
756.668	220.16
756.852	46.08
757.036	121.85
757.22	193.53
757.404	123.9
757.588	166.91
757.772	166.91
757.956	99.33
758.14	232.44
758.323	128
758.507	134.14
758.691	72.7
758.875	177.15
759.059	232.44
759.242	87.04
759.426	195.58
759.61	64.51
759.794	117.76
759.977	123.9
760.161	267.26
760.345	195.58
760.528	189.44
760.712	154.62
760.895	254.97
761.079	103.42
761.263	134.14
761.446	107.52
761.63	191.49
761.813	195.58
761.997	-35.84
762.18	148.48
762.364	142.33
762.547	-29.7
762.731	54.27
762.914	146.43
763.098	105.47
763.281	78.85
763.464	60.42
763.648	107.52
763.831	128
764.015	-7.17
764.198	187.39
764.381	-11.26
764.564	107.52
764.748	70.65
764.931	119.81
765.114	68.61
765.297	130.05
765.481	54.27
765.664	27.65
765.847	78.85
766.03	226.3
766.213	99.33
766.397	128
766.58	-11.26
766.763	132.09
766.946	-11.26
767.129	130.05
767.312	37.89
767.495	80.89
767.678	41.98
767.861	181.25
768.044	15.36
768.227	150.53
768.41	91.13
768.593	84.99
768.776	136.19
768.959	31.74
769.142	154.62
769.324	31.74
769.507	13.31
769.69	76.8
769.873	66.56
770.056	269.31
770.239	76.8
770.421	189.44
770.604	33.79
770.787	74.75
770.97	119.81
771.152	41.98
771.335	54.27
771.518	-9.22
771.7	168.96
771.883	201.72
772.066	56.32
772.248	125.95
772.431	152.57
772.613	132.09
772.796	101.37
772.978	132.09
773.161	175.1
773.343	160.77
773.526	41.98
773.708	-9.22
773.891	-19.46
774.073	17.41
774.256	37.89
774.438	113.66
774.621	58.37
774.803	78.85
774.985	123.9
775.168	216.06
775.35	76.8
775.532	138.24
775.715	-35.84
775.897	91.13
776.079	15.36
776.261	111.61
776.444	29.7
776.626	64.51
776.808	44.03
776.99	-5.12
777.173	23.55
777.355	105.47
777.537	82.94
777.719	74.75
777.901	66.56
778.083	23.55
778.265	74.75
778.447	138.24
778.629	46.08
778.811	111.61
778.993	134.14
779.175	80.89
779.357	60.42
779.539	-91.13
779.721	103.42
779.903	150.53
780.085	21.5
780.267	48.13
780.449	29.7
780.631	111.61
780.812	183.29
780.994	-48.13
781.176	-29.7
781.358	15.36
781.54	50.18
781.721	111.61
781.903	66.56
782.085	39.94
782.267	107.52
782.448	-41.98
782.63	91.13
782.812	35.84
782.993	197.63
783.175	119.81
783.357	101.37
783.538	64.51
783.72	-52.22
783.901	21.5
784.083	113.66
784.264	46.08
784.446	-70.65
784.627	76.8
784.809	144.38
784.99	23.55
785.172	97.28
785.353	101.37
785.535	70.65
785.716	17.41
785.897	-39.94
786.079	58.37
786.26	7.17
786.441	91.13
786.623	-56.32
786.804	-13.31
786.985	19.46
787.167	76.8
787.348	-19.46
787.529	62.46
787.71	205.82
787.891	48.13
788.073	68.61
788.254	-39.94
788.435	154.62
788.616	23.55
788.797	13.31
788.978	19.46
789.159	48.13
789.34	115.71
789.522	3.07
789.703	-1.02
789.884	95.23
790.065	60.42
790.246	89.09
790.427	1.02
790.607	121.85
790.788	95.23
790.969	-23.55
791.15	105.47
791.331	-19.46
791.512	72.7
791.693	-39.94
791.874	-21.5
792.054	119.81
792.235	99.33
792.416	-17.41
792.597	23.55
792.778	35.84
792.958	56.32
793.139	87.04
793.32	44.03
793.5	9.22
793.681	156.67
793.862	76.8
794.042	7.17
794.223	-41.98
794.404	-13.31
794.584	-74.75
794.765	39.94
794.945	48.13
795.126	1.02
795.306	101.37
795.487	-19.46
795.667	-62.46
795.848	84.99
796.028	84.99
796.209	35.84
796.389	117.76
796.57	31.74
796.75	-39.94
796.93	-27.65
797.111	21.5
797.291	-91.13
797.471	209.92
797.652	-58.37
797.832	7.17
798.012	130.05
798.192	7.17
798.373	19.46
798.553	-66.56
798.733	103.42
798.913	15.36
799.093	-23.55
799.274	64.51
799.454	52.22
799.634	128
799.814	99.33
799.994	1.02
800.174	39.94
800.354	13.31
800.534	13.31
800.714	87.04
800.894	-9.22
801.074	-48.13
801.254	-17.41
801.434	158.72
801.614	33.79
801.794	35.84
801.974	1809.38
802.154	-27.65
802.334	25.6
802.514	-50.18
802.693	-9.22
802.873	-13.31
803.053	74.75
803.233	39.94
803.413	-11.26
803.592	-29.7
803.772	-37.89
803.952	48.13
804.131	-52.22
804.311	103.42
804.491	115.71
804.67	35.84
804.85	-44.03
805.03	72.7
805.209	134.14
805.389	60.42
805.568	-29.7
805.748	-15.36
805.928	11.26
806.107	41.98
806.287	39.94
806.466	58.37
806.646	-3.07
806.825	62.46
807.004	37.89
807.184	44.03
807.363	64.51
807.543	50.18
807.722	-97.28
807.901	121.85
808.081	164.86
808.26	-76.8
808.439	-11.26
808.619	31.74
808.798	-35.84
808.977	35.84
809.156	54.27
809.336	103.42
809.515	84.99
809.694	-48.13
809.873	33.79
810.052	123.9
810.231	103.42
810.411	-46.08
810.59	33.79
810.769	-9.22
810.948	60.42
811.127	-111.61
811.306	9.22
811.485	-27.65
811.664	111.61
811.843	-15.36
812.022	13.31
812.201	-1.02
812.38	37.89
812.559	25.6
812.737	48.13
812.916	-60.42
813.095	-80.89
813.274	3.07
813.453	-27.65
813.632	66.56
813.811	97.28
813.989	-119.81
814.168	23.55
814.347	-44.03
814.526	39.94
814.704	44.03
814.883	60.42
815.062	-19.46
815.24	125.95
815.419	-52.22
815.598	66.56
815.776	-68.61
815.955	-29.7
816.133	-177.15
816.312	3.07
816.49	23.55
816.669	-23.55
816.847	-29.7
817.026	15.36
817.204	7.17
817.383	-52.22
817.561	-93.18
817.74	41.98
817.918	82.94
818.097	23.55
818.275	1.02
818.453	31.74
818.632	13.31
818.81	80.89
818.988	-41.98
819.167	-70.65
819.345	-5.12
819.523	13.31
819.701	25.6
819.879	33.79
820.058	9.22
820.236	35.84
820.414	-11.26
820.592	-23.55
820.77	27.65
820.948	-80.89
821.127	-60.42
821.305	35.84
821.483	-62.46
821.661	46.08
821.839	-46.08
822.017	-46.08
822.195	7.17
822.373	52.22
822.551	-27.65
822.729	23.55
822.907	-1.02
823.085	123.9
823.262	25.6
823.44	-130.05
823.618	-3.07
823.796	50.18
823.974	27.65
824.152	9.22
824.329	7.17
824.507	97.28
824.685	54.27
824.863	37.89
825.04	44.03
825.218	78.85
825.396	-19.46
825.574	-3.07
825.751	80.89
825.929	9.22
826.107	-72.7
826.284	46.08
826.462	52.22
826.639	-64.51
826.817	-17.41
826.994	-1.02
827.172	-68.61
827.349	121.85
827.527	23.55
827.704	-58.37
827.882	66.56
828.059	46.08
828.237	-23.55
828.414	25.6
828.591	-160.77
828.769	23.55
828.946	-48.13
829.124	52.22
829.301	146.43
829.478	89.09
829.655	58.37
829.833	64.51
830.01	17.41
830.187	91.13
830.364	-11.26
830.542	46.08
830.719	138.24
830.896	41.98
831.073	46.08
831.25	68.61
831.427	54.27
831.604	54.27
831.782	-29.7
831.959	9.22
832.136	-29.7
832.313	-7.17
832.49	25.6
832.667	-9.22
832.844	-33.79
833.021	138.24
833.198	23.55
833.374	-21.5
833.551	29.7
833.728	-46.08
833.905	60.42
834.082	-107.52
834.259	44.03
834.436	82.94
834.612	-13.31
834.789	111.61
834.966	-41.98
835.143	60.42
835.319	-35.84
835.496	68.61
835.673	13.31
835.85	19.46
836.026	101.37
836.203	39.94
836.38	11.26
836.556	-48.13
836.733	-17.41
836.909	152.57
837.086	3.07
837.262	-80.89
837.439	25.6
837.616	3.07
837.792	-70.65
837.968	33.79
838.145	-107.52
838.321	-33.79
838.498	19.46
838.674	76.8
838.851	37.89
839.027	-52.22
839.203	84.99
839.38	21.5
839.556	-5.12
839.732	89.09
839.909	-5.12
840.085	-19.46
840.261	82.94
840.437	-9.22
840.614	-9.22
840.79	60.42
840.966	27.65
841.142	21.5
841.318	23.55
841.494	-7.17
841.671	27.65
841.847	-37.89
842.023	-80.89
842.199	78.85
842.375	132.09
842.551	-56.32
842.727	-52.22
842.903	82.94
843.079	-11.26
843.255	60.42
843.431	39.94
843.607	5.12
843.783	-74.75
843.959	41.98
844.134	-37.89
844.31	87.04
844.486	-66.56
844.662	-80.89
844.838	76.8
845.013	46.08
845.189	31.74
845.365	-9.22
845.541	25.6
845.716	25.6
845.892	173.05
846.068	-76.8
846.244	-27.65
846.419	46.08
846.595	-68.61
846.77	-91.13
846.946	87.04
847.122	-52.22
847.297	-9.22
847.473	93.18
847.648	-44.03
847.824	31.74
847.999	-181.25
848.175	-3.07
848.35	-27.65
848.526	91.13
848.701	56.32
848.876	58.37
849.052	46.08
849.227	-7.17
849.403	-70.65
849.578	21.5
849.753	29.7
849.929	89.09
850.104	-31.74
850.279	-21.5
850.454	13.31
850.63	1.02
850.805	11.26
850.98	11.26
851.155	-15.36
851.33	37.89
851.505	-89.09
851.681	130.05
851.856	-35.84
852.031	-19.46
852.206	82.94
852.381	3.07
852.556	25.6
852.731	29.7
852.906	48.13
853.081	41.98
853.256	103.42
853.431	-1.02
853.606	9.22
853.781	-62.46
853.956	-5.12
854.131	19.46
854.305	-35.84
854.48	-19.46
854.655	-103.42
854.83	-9.22
855.005	-9.22
855.18	-15.36
855.354	13.31
855.529	23.55
855.704	3.07
855.879	-48.13
856.053	-46.08
856.228	44.03
856.403	-95.23
856.577	52.22
856.752	-68.61
856.926	17.41
857.101	-13.31
857.276	-64.51
857.45	-35.84
857.625	89.09
857.799	66.56
857.974	89.09
858.148	-80.89
858.323	-50.18
858.497	7.17
858.672	-39.94
858.846	7.17
859.02	41.98
859.195	-48.13
859.369	56.32
859.543	-35.84
859.718	-17.41
859.892	56.32
860.066	5.12
860.241	-39.94
860.415	-50.18
860.589	-93.18
860.763	52.22
860.938	13.31
861.112	19.46
861.286	-109.57
861.46	-1.02
861.634	-1.02
861.808	128
861.982	-70.65
862.157	-91.13
862.331	-64.51
862.505	-60.42
862.679	-7.17
862.853	1.02
863.027	-19.46
863.201	72.7
863.375	13.31
863.549	60.42
863.722	35.84
863.896	60.42
864.07	-191.49
864.244	33.79
864.418	74.75
864.592	11.26
864.766	74.75
864.939	-23.55
865.113	19.46
865.287	60.42
865.461	-72.7
865.634	19.46
865.808	-25.6
865.982	5.12
866.156	-41.98
866.329	-109.57
866.503	-13.31
866.676	15.36
866.85	37.89
867.024	-62.46
867.197	99.33
867.371	74.75
867.544	39.94
867.718	-78.85
867.891	-7.17
868.065	-58.37
868.238	27.65
868.412	175.1
868.585	-9.22
868.759	-39.94
868.932	-7.17
869.105	-29.7
869.279	48.13
869.452	-66.56
869.625	76.8
869.799	-1.02
869.972	-17.41
870.145	-17.41
870.319	9.22
870.492	19.46
870.665	-1.02
870.838	11.26
871.011	-138.24
871.185	39.94
871.358	-80.89
871.531	-17.41
871.704	-21.5
871.877	35.84
872.05	-23.55
872.223	-56.32
872.396	74.75
872.569	58.37
872.742	-41.98
872.915	70.65
873.088	9.22
873.261	-66.56
873.434	95.23
873.607	9.22
873.78	146.43
873.953	-74.75
874.126	33.79
874.299	-9.22
874.471	-44.03
874.644	-64.51
874.817	-1.02
874.99	150.53
875.163	1.02
875.335	46.08
875.508	66.56
875.681	37.89
875.853	-35.84
876.026	9.22
876.199	66.56
876.371	9.22
876.544	-58.37
876.717	3.07
876.889	35.84
877.062	56.32
877.234	-78.85
877.407	-64.51
877.579	-82.94
877.752	72.7
877.924	-21.5
878.097	-13.31
878.269	17.41
878.442	-50.18
878.614	-9.22
878.786	52.22
878.959	27.65
879.131	41.98
879.303	-125.95
879.476	-29.7
879.648	52.22
879.82	25.6
879.993	11.26
880.165	-58.37
880.337	-101.37
880.509	7.17
880.681	-72.7
880.854	-50.18
881.026	105.47
881.198	123.9
881.37	-70.65
881.542	17.41
881.714	-31.74
881.886	-39.94
882.058	-7.17
882.23	-39.94
882.402	9.22
882.574	58.37
882.746	89.09
882.918	93.18
883.09	52.22
883.262	-27.65
883.434	15.36
883.606	-44.03
883.778	-25.6
883.95	152.57
884.122	-58.37
884.293	-27.65
884.465	5.12
884.637	89.09
884.809	-41.98
884.98	72.7
885.152	56.32
885.324	23.55
885.496	37.89
885.667	-56.32
885.839	19.46
886.011	162.81
886.182	68.61
886.354	37.89
886.525	107.52
886.697	-35.84
886.869	-82.94
887.04	48.13
887.212	107.52
887.383	60.42
887.555	1.02
887.726	-11.26
887.897	-15.36
888.069	5.12
888.24	56.32
888.412	44.03
888.583	-13.31
888.754	19.46
888.926	-105.47
889.097	-97.28
889.268	-128
889.44	-7.17
889.611	-37.89
889.782	33.79
889.953	-68.61
890.125	134.14
890.296	-164.86
890.467	1.02
890.638	48.13
890.809	56.32
890.98	-25.6
891.151	48.13
891.323	109.57
891.494	-27.65
891.665	-19.46
891.836	31.74
892.007	72.7
892.178	68.61
892.349	-9.22
892.52	-74.75
892.691	27.65
892.862	-7.17
893.032	-187.39
893.203	25.6
893.374	54.27
893.545	48.13
893.716	-17.41
893.887	64.51
894.057	35.84
894.228	44.03
894.399	-27.65
894.57	31.74
894.74	5.12
894.911	41.98
895.082	-11.26
895.253	-66.56
895.423	33.79
895.594	41.98
895.764	-31.74
895.935	-13.31
896.106	5.12
896.276	-70.65
896.447	17.41
896.617	-64.51
896.788	-115.71
896.958	56.32
897.129	-7.17
897.299	15.36
897.47	121.85
897.64	101.37
897.81	-48.13
897.981	91.13
898.151	-25.6
898.322	64.51
898.492	37.89
898.662	7.17
898.832	3.07
899.003	23.55
899.173	130.05
899.343	-35.84
899.513	-58.37
