Data from USB4F104151__266__11-20-33-032.txt Node

Date: Wed Feb 26 11:20:33 EST 2025
User: louis
Spectrometer: USB4F10415
Trigger mode: 4
Integration Time (sec): 1.000000E-1
Scans to average: 1
Electric dark correction enabled: true
Nonlinearity correction enabled: false
Boxcar width: 0
XAxis mode: Wavelengths
Number of Pixels in Spectrum: 3648
>>>>>Begin Spectral Data<<<<<
178.204	-443.73
178.424	-443.73
178.644	-443.73
178.864	-376.14
179.084	-367.95
179.304	2.73
179.524	-21.85
179.744	-32.08
179.964	51.88
180.184	-23.89
180.404	76.46
180.624	-68.95
180.844	-60.76
181.064	-25.94
181.283	33.45
181.503	27.31
181.723	41.64
181.943	-142.68
182.163	125.61
182.383	8.87
182.602	107.18
182.822	135.85
183.042	35.5
183.262	-75.09
183.482	12.97
183.701	6.83
183.921	10.92
184.141	0.68
184.361	55.98
184.58	133.8
184.8	47.79
185.02	-77.14
185.239	58.03
185.459	33.45
185.679	82.6
185.898	-138.58
186.118	115.37
186.338	51.88
186.557	115.37
186.777	-13.65
186.997	-7.51
187.216	72.36
187.436	137.9
187.655	8.87
187.875	78.51
188.095	60.07
188.314	109.22
188.534	8.87
188.753	27.31
188.973	98.99
189.192	141.99
189.412	64.17
189.631	105.13
189.851	92.84
190.07	103.08
190.29	-52.56
190.509	-3.41
190.729	49.83
190.948	174.76
191.168	256.68
191.387	-1.37
191.607	-30.04
191.826	64.17
192.045	51.88
192.265	12.97
192.484	15.02
192.704	31.4
192.923	-36.18
193.142	156.33
193.362	115.37
193.581	174.76
193.8	66.22
194.02	72.36
194.239	64.17
194.458	82.6
194.678	47.79
194.897	60.07
195.116	60.07
195.335	4.78
195.555	60.07
195.774	17.07
195.993	88.75
196.212	62.12
196.432	-11.61
196.651	-15.7
196.87	-36.18
197.089	275.11
197.308	60.07
197.528	12.97
197.747	-46.42
197.966	58.03
198.185	180.9
198.404	47.79
198.623	101.03
198.842	58.03
199.062	191.14
199.281	127.66
199.5	23.21
199.719	144.04
199.938	62.12
200.157	119.46
200.376	111.27
200.595	127.66
200.814	6.83
201.033	-25.94
201.252	160.42
201.471	-5.46
201.69	58.03
201.909	41.64
202.128	70.31
202.347	2.73
202.566	43.69
202.785	-75.09
203.004	-5.46
203.223	238.25
203.442	25.26
203.661	0.68
203.879	105.13
204.098	113.32
204.317	0.68
204.536	154.28
204.755	6.83
204.974	45.74
205.193	-13.65
205.411	78.51
205.63	107.18
205.849	86.7
206.068	-32.08
206.287	2.73
206.505	78.51
206.724	33.45
206.943	21.16
207.162	33.45
207.381	82.6
207.599	-48.47
207.818	10.92
208.037	-11.61
208.255	45.74
208.474	55.98
208.693	70.31
208.911	80.55
209.13	84.65
209.349	58.03
209.567	131.75
209.786	117.42
210.005	109.22
210.223	-32.08
210.442	-97.62
210.661	15.02
210.879	66.22
211.098	78.51
211.316	21.16
211.535	74.41
211.753	31.4
211.972	121.51
212.191	0.68
212.409	-30.04
212.628	137.9
212.846	-25.94
213.065	-27.99
213.283	96.94
213.502	35.5
213.72	-17.75
213.938	21.16
214.157	45.74
214.375	88.75
214.594	-23.89
214.812	12.97
215.031	-99.67
215.249	-3.41
215.467	84.65
215.686	23.21
215.904	66.22
216.122	21.16
216.341	209.58
216.559	15.02
216.778	31.4
216.996	199.34
217.214	74.41
217.432	4.78
217.651	-9.56
217.869	25.26
218.087	109.22
218.306	23.21
218.524	12.97
218.742	8.87
218.96	107.18
219.179	-40.28
219.397	19.11
219.615	197.29
219.833	160.42
220.051	-21.85
220.27	80.55
220.488	137.9
220.706	82.6
220.924	21.16
221.142	-27.99
221.36	15.02
221.578	101.03
221.796	-19.8
222.015	45.74
222.233	113.32
222.451	117.42
222.669	43.69
222.887	82.6
223.105	39.59
223.323	8.87
223.541	17.07
223.759	94.89
223.977	92.84
224.195	125.61
224.413	111.27
224.631	-7.51
224.849	51.88
225.067	187.05
225.285	-11.61
225.503	49.83
225.721	-128.34
225.939	53.93
226.157	72.36
226.375	246.44
226.592	31.4
226.81	-15.7
227.028	78.51
227.246	113.32
227.464	60.07
227.682	178.86
227.9	31.4
228.117	76.46
228.335	92.84
228.553	39.59
228.771	4.78
228.989	64.17
229.206	8.87
229.424	-9.56
229.642	29.35
229.86	23.21
230.077	185
230.295	90.79
230.513	141.99
230.731	103.08
230.948	211.62
231.166	146.09
231.384	-15.7
231.601	0.68
231.819	129.7
232.037	-107.86
232.254	-11.61
232.472	-3.41
232.689	-32.08
232.907	111.27
233.125	-1.37
233.342	-5.46
233.56	-19.8
233.777	-54.61
233.995	21.16
234.213	123.56
234.43	152.23
234.648	-32.08
234.865	10.92
235.083	33.45
235.3	107.18
235.518	139.94
235.735	55.98
235.953	84.65
236.17	2.73
236.388	-21.85
236.605	29.35
236.822	154.28
237.04	137.9
237.257	125.61
237.475	-75.09
237.692	74.41
237.909	76.46
238.127	37.55
238.344	109.22
238.562	-13.65
238.779	-93.52
238.996	-101.72
239.214	-30.04
239.431	66.22
239.648	23.21
239.865	101.03
240.083	74.41
240.3	-7.51
240.517	8.87
240.735	88.75
240.952	162.47
241.169	31.4
241.386	107.18
241.603	60.07
241.821	-101.72
242.038	-17.75
242.255	45.74
242.472	-40.28
242.689	78.51
242.907	76.46
243.124	117.42
243.341	90.79
243.558	0.68
243.775	-83.28
243.992	-73.04
244.209	37.55
244.426	121.51
244.643	17.07
244.86	-38.23
245.078	127.66
245.295	82.6
245.512	66.22
245.729	-19.8
245.946	88.75
246.163	31.4
246.38	49.83
246.597	84.65
246.814	6.83
247.031	55.98
247.248	96.94
247.464	187.05
247.681	-42.32
247.898	70.31
248.115	76.46
248.332	39.59
248.549	90.79
248.766	129.7
248.983	25.26
249.2	92.84
249.417	111.27
249.633	-75.09
249.85	74.41
250.067	21.16
250.284	90.79
250.501	53.93
250.717	98.99
250.934	-15.7
251.151	64.17
251.368	-25.94
251.585	121.51
251.801	82.6
252.018	47.79
252.235	53.93
252.451	-38.23
252.668	29.35
252.885	119.46
253.102	68.27
253.318	-27.99
253.535	35.5
253.752	27.31
253.968	47.79
254.185	-89.43
254.401	64.17
254.618	109.22
254.835	49.83
255.051	146.09
255.268	127.66
255.484	53.93
255.701	33.45
255.917	115.37
256.134	-64.85
256.351	45.74
256.567	-81.24
256.784	62.12
257	-25.94
257.217	127.66
257.433	109.22
257.65	49.83
257.866	119.46
258.082	-91.48
258.299	-25.94
258.515	45.74
258.732	-62.8
258.948	25.26
259.165	70.31
259.381	-97.62
259.597	152.23
259.814	-42.32
260.03	-9.56
260.246	19.11
260.463	64.17
260.679	137.9
260.895	-3.41
261.112	29.35
261.328	19.11
261.544	-25.94
261.761	123.56
261.977	-62.8
262.193	-56.66
262.409	37.55
262.626	146.09
262.842	-11.61
263.058	39.59
263.274	98.99
263.49	51.88
263.707	33.45
263.923	19.11
264.139	-27.99
264.355	-13.65
264.571	103.08
264.787	121.51
265.004	144.04
265.22	58.03
265.436	-5.46
265.652	82.6
265.868	-27.99
266.084	12.97
266.3	80.55
266.516	27.31
266.732	60.07
266.948	148.14
267.164	12.97
267.38	62.12
267.596	21.16
267.812	221.86
268.028	60.07
268.244	21.16
268.46	-13.65
268.676	62.12
268.892	82.6
269.108	-50.52
269.324	-56.66
269.54	-19.8
269.756	119.46
269.972	-5.46
270.188	0.68
270.403	-13.65
270.619	-9.56
270.835	101.03
271.051	78.51
271.267	0.68
271.483	12.97
271.698	92.84
271.914	37.55
272.13	-7.51
272.346	29.35
272.562	119.46
272.777	109.22
272.993	33.45
273.209	-5.46
273.425	19.11
273.64	53.93
273.856	107.18
274.072	4.78
274.287	-5.46
274.503	35.5
274.719	66.22
274.934	60.07
275.15	-83.28
275.366	53.93
275.581	-71
275.797	29.35
276.012	10.92
276.228	-32.08
276.444	4.78
276.659	150.18
276.875	-1.37
277.09	29.35
277.306	86.7
277.521	92.84
277.737	84.65
277.952	127.66
278.168	4.78
278.383	37.55
278.599	109.22
278.814	121.51
279.03	80.55
279.245	119.46
279.461	103.08
279.676	109.22
279.892	-32.08
280.107	10.92
280.322	-42.32
280.538	41.64
280.753	-13.65
280.969	60.07
281.184	10.92
281.399	187.05
281.615	-21.85
281.83	92.84
282.045	-36.18
282.26	43.69
282.476	113.32
282.691	74.41
282.906	78.51
283.122	74.41
283.337	27.31
283.552	86.7
283.767	49.83
283.983	82.6
284.198	-9.56
284.413	137.9
284.628	17.07
284.843	-13.65
285.058	121.51
285.274	17.07
285.489	-32.08
285.704	74.41
285.919	31.4
286.134	-11.61
286.349	21.16
286.564	66.22
286.779	123.56
286.995	58.03
287.21	-5.46
287.425	101.03
287.64	21.16
287.855	2.73
288.07	-111.96
288.285	109.22
288.5	111.27
288.715	53.93
288.93	58.03
289.145	0.68
289.36	96.94
289.575	17.07
289.79	217.77
290.004	10.92
290.219	76.46
290.434	27.31
290.649	80.55
290.864	47.79
291.079	19.11
291.294	4.78
291.509	84.65
291.724	8.87
291.938	43.69
292.153	88.75
292.368	-48.47
292.583	90.79
292.798	35.5
293.012	-46.42
293.227	84.65
293.442	-46.42
293.657	31.4
293.871	76.46
294.086	82.6
294.301	180.9
294.516	88.75
294.73	-1.37
294.945	-25.94
295.16	19.11
295.374	127.66
295.589	113.32
295.804	33.45
296.018	144.04
296.233	125.61
296.447	-56.66
296.662	-15.7
296.877	88.75
297.091	15.02
297.306	31.4
297.52	-9.56
297.735	55.98
297.949	62.12
298.164	58.03
298.378	113.32
298.593	6.83
298.807	29.35
299.022	8.87
299.236	74.41
299.451	8.87
299.665	-7.51
299.88	-58.71
300.094	53.93
300.309	31.4
300.523	76.46
300.737	-30.04
300.952	70.31
301.166	45.74
301.381	12.97
301.595	-3.41
301.809	49.83
302.024	17.07
302.238	-25.94
302.452	88.75
302.667	-36.18
302.881	105.13
303.095	117.42
303.309	68.27
303.524	-5.46
303.738	-42.32
303.952	-46.42
304.166	76.46
304.381	-34.13
304.595	90.79
304.809	-36.18
305.023	-5.46
305.237	8.87
305.452	-99.67
305.666	31.4
305.88	156.33
306.094	107.18
306.308	109.22
306.522	55.98
306.736	53.93
306.95	23.21
307.164	117.42
307.379	0.68
307.593	189.1
307.807	127.66
308.021	35.5
308.235	119.46
308.449	-64.85
308.663	-21.85
308.877	187.05
309.091	43.69
309.305	55.98
309.519	-13.65
309.733	176.81
309.947	-56.66
310.161	111.27
310.374	123.56
310.588	127.66
310.802	-19.8
311.016	-21.85
311.23	94.89
311.444	-71
311.658	55.98
311.872	168.62
312.085	62.12
312.299	158.38
312.513	129.7
312.727	74.41
312.941	66.22
313.154	70.31
313.368	33.45
313.582	94.89
313.796	51.88
314.009	41.64
314.223	146.09
314.437	55.98
314.651	55.98
314.864	41.64
315.078	4.78
315.292	-42.32
315.505	-23.89
315.719	74.41
315.933	119.46
316.146	-7.51
316.36	-7.51
316.573	90.79
316.787	76.46
317.001	-7.51
317.214	-9.56
317.428	25.26
317.641	-87.38
317.855	4.78
318.068	86.7
318.282	96.94
318.495	203.43
318.709	111.27
318.922	88.75
319.136	129.7
319.349	86.7
319.563	103.08
319.776	68.27
319.99	-136.53
320.203	68.27
320.417	23.21
320.63	98.99
320.843	191.14
321.057	62.12
321.27	-17.75
321.483	66.22
321.697	82.6
321.91	27.31
322.124	0.68
322.337	31.4
322.55	-93.52
322.763	31.4
322.977	8.87
323.19	19.11
323.403	58.03
323.617	58.03
323.83	86.7
324.043	12.97
324.256	72.36
324.469	-89.43
324.683	107.18
324.896	62.12
325.109	45.74
325.322	-87.38
325.535	78.51
325.748	88.75
325.962	8.87
326.175	2.73
326.388	119.46
326.601	129.7
326.814	-13.65
327.027	98.99
327.24	154.28
327.453	-79.19
327.666	70.31
327.879	105.13
328.092	72.36
328.305	88.75
328.518	-36.18
328.731	-3.41
328.944	0.68
329.157	23.21
329.37	0.68
329.583	158.38
329.796	82.6
330.009	-48.47
330.222	92.84
330.435	133.8
330.648	21.16
330.861	152.23
331.073	60.07
331.286	49.83
331.499	98.99
331.712	15.02
331.925	-30.04
332.138	88.75
332.35	107.18
332.563	-54.61
332.776	55.98
332.989	-42.32
333.202	12.97
333.414	72.36
333.627	84.65
333.84	51.88
334.053	121.51
334.265	49.83
334.478	-81.24
334.691	-17.75
334.903	64.17
335.116	64.17
335.329	47.79
335.541	37.55
335.754	158.38
335.966	-44.37
336.179	47.79
336.392	10.92
336.604	37.55
336.817	96.94
337.029	113.32
337.242	31.4
337.454	15.02
337.667	23.21
337.88	109.22
338.092	111.27
338.305	49.83
338.517	2.73
338.729	111.27
338.942	115.37
339.154	-71
339.367	-77.14
339.579	72.36
339.792	53.93
340.004	113.32
340.217	10.92
340.429	137.9
340.641	43.69
340.854	-56.66
341.066	12.97
341.278	76.46
341.491	236.2
341.703	-25.94
341.915	21.16
342.128	53.93
342.34	-11.61
342.552	8.87
342.764	31.4
342.977	51.88
343.189	33.45
343.401	-5.46
343.613	17.07
343.826	37.55
344.038	-5.46
344.25	27.31
344.462	-32.08
344.674	58.03
344.886	-27.99
345.099	115.37
345.311	119.46
345.523	6.83
345.735	-58.71
345.947	51.88
346.159	37.55
346.371	-19.8
346.583	6.83
346.795	141.99
347.007	117.42
347.219	41.64
347.431	-30.04
347.643	162.47
347.855	-27.99
348.067	150.18
348.279	-54.61
348.491	70.31
348.703	51.88
348.915	41.64
349.127	8.87
349.339	2.73
349.551	-1.37
349.763	146.09
349.975	51.88
350.187	98.99
350.399	141.99
350.61	146.09
350.822	-38.23
351.034	60.07
351.246	66.22
351.458	88.75
351.669	37.55
351.881	98.99
352.093	103.08
352.305	96.94
352.517	21.16
352.728	47.79
352.94	96.94
353.152	109.22
353.363	6.83
353.575	117.42
353.787	117.42
353.999	60.07
354.21	156.33
354.422	-25.94
354.633	70.31
354.845	37.55
355.057	15.02
355.268	47.79
355.48	12.97
355.692	2.73
355.903	49.83
356.115	-32.08
356.326	-89.43
356.538	189.1
356.749	86.7
356.961	74.41
357.172	35.5
357.384	-27.99
357.595	185
357.807	2.73
358.018	8.87
358.23	113.32
358.441	223.91
358.653	98.99
358.864	37.55
359.075	23.21
359.287	55.98
359.498	47.79
359.709	105.13
359.921	76.46
360.132	4.78
360.344	68.27
360.555	19.11
360.766	-5.46
360.977	8.87
361.189	88.75
361.4	49.83
361.611	150.18
361.823	141.99
362.034	8.87
362.245	-21.85
362.456	23.21
362.667	111.27
362.879	-58.71
363.09	90.79
363.301	64.17
363.512	15.02
363.723	-19.8
363.935	-13.65
364.146	176.81
364.357	31.4
364.568	78.51
364.779	-75.09
364.99	84.65
365.201	-27.99
365.412	82.6
365.623	-44.37
365.834	31.4
366.045	39.59
366.256	131.75
366.467	31.4
366.678	6.83
366.889	47.79
367.1	4.78
367.311	141.99
367.522	-13.65
367.733	58.03
367.944	15.02
368.155	23.21
368.366	64.17
368.577	82.6
368.788	109.22
368.999	45.74
369.209	-15.7
369.42	164.52
369.631	252.58
369.842	113.32
370.053	96.94
370.264	162.47
370.474	-38.23
370.685	60.07
370.896	101.03
371.107	176.81
371.317	60.07
371.528	60.07
371.739	60.07
371.95	58.03
372.16	64.17
372.371	-48.47
372.582	-87.38
372.792	84.65
373.003	141.99
373.214	21.16
373.424	45.74
373.635	-32.08
373.846	117.42
374.056	-7.51
374.267	103.08
374.477	123.56
374.688	-9.56
374.898	49.83
375.109	98.99
375.319	92.84
375.53	66.22
375.74	121.51
375.951	47.79
376.161	45.74
376.372	152.23
376.582	-3.41
376.793	37.55
377.003	15.02
377.214	96.94
377.424	131.75
377.635	92.84
377.845	2.73
378.055	80.55
378.266	-25.94
378.476	101.03
378.686	96.94
378.897	21.16
379.107	133.8
379.317	82.6
379.528	47.79
379.738	31.4
379.948	-73.04
380.158	185
380.369	109.22
380.579	152.23
380.789	33.45
380.999	90.79
381.21	129.7
381.42	127.66
381.63	2.73
381.84	88.75
382.05	47.79
382.261	139.94
382.471	123.56
382.681	4.78
382.891	205.48
383.101	-79.19
383.311	-5.46
383.521	19.11
383.731	135.85
383.941	187.05
384.151	58.03
384.361	-17.75
384.571	96.94
384.781	88.75
384.991	232.1
385.201	150.18
385.411	133.8
385.621	101.03
385.831	51.88
386.041	96.94
386.251	58.03
386.461	109.22
386.671	-7.51
386.881	80.55
387.091	-46.42
387.301	27.31
387.511	-36.18
387.72	105.13
387.93	74.41
388.14	-64.85
388.35	39.59
388.56	94.89
388.769	107.18
388.979	86.7
389.189	-56.66
389.399	115.37
389.609	76.46
389.818	70.31
390.028	103.08
390.238	51.88
390.447	-23.89
390.657	51.88
390.867	25.26
391.076	-58.71
391.286	27.31
391.496	62.12
391.705	-40.28
391.915	148.14
392.125	68.27
392.334	51.88
392.544	146.09
392.753	111.27
392.963	-107.86
393.172	47.79
393.382	-54.61
393.591	219.82
393.801	-13.65
394.01	156.33
394.22	78.51
394.429	72.36
394.639	53.93
394.848	131.75
395.058	129.7
395.267	-56.66
395.477	146.09
395.686	55.98
395.895	209.58
396.105	197.29
396.314	21.16
396.524	4.78
396.733	-5.46
396.942	96.94
397.152	82.6
397.361	103.08
397.57	115.37
397.78	33.45
397.989	125.61
398.198	234.15
398.407	47.79
398.617	23.21
398.826	-21.85
399.035	62.12
399.244	115.37
399.453	80.55
399.663	80.55
399.872	29.35
400.081	-19.8
400.29	109.22
400.499	25.26
400.708	78.51
400.917	55.98
401.127	-3.41
401.336	-50.52
401.545	191.14
401.754	82.6
401.963	47.79
402.172	-13.65
402.381	-36.18
402.59	29.35
402.799	-40.28
403.008	146.09
403.217	19.11
403.426	68.27
403.635	-58.71
403.844	8.87
404.053	60.07
404.262	29.35
404.471	53.93
404.68	86.7
404.888	37.55
405.097	80.55
405.306	139.94
405.515	101.03
405.724	-34.13
405.933	105.13
406.142	72.36
406.35	166.57
406.559	76.46
406.768	76.46
406.977	144.04
407.185	117.42
407.394	43.69
407.603	41.64
407.812	74.41
408.02	160.42
408.229	25.26
408.438	113.32
408.646	6.83
408.855	35.5
409.064	47.79
409.272	47.79
409.481	162.47
409.69	82.6
409.898	-32.08
410.107	31.4
410.315	53.93
410.524	-56.66
410.733	12.97
410.941	25.26
411.15	90.79
411.358	88.75
411.567	160.42
411.775	47.79
411.984	23.21
412.192	98.99
412.401	23.21
412.609	219.82
412.818	82.6
413.026	68.27
413.234	-11.61
413.443	27.31
413.651	-54.61
413.86	-3.41
414.068	51.88
414.276	160.42
414.485	-17.75
414.693	180.9
414.901	201.38
415.11	64.17
415.318	74.41
415.526	-60.76
415.734	160.42
415.943	10.92
416.151	115.37
416.359	115.37
416.567	53.93
416.776	150.18
416.984	131.75
417.192	252.58
417.4	8.87
417.608	31.4
417.817	-66.9
418.025	133.8
418.233	152.23
418.441	-19.8
418.649	-99.67
418.857	119.46
419.065	103.08
419.273	-56.66
419.481	62.12
419.689	-62.8
419.897	-42.32
420.105	-32.08
420.313	19.11
420.521	144.04
420.729	70.31
420.937	-79.19
421.145	-9.56
421.353	129.7
421.561	160.42
421.769	47.79
421.977	-23.89
422.185	74.41
422.393	66.22
422.601	211.62
422.809	47.79
423.017	105.13
423.224	76.46
423.432	96.94
423.64	49.83
423.848	133.8
424.056	-54.61
424.263	156.33
424.471	96.94
424.679	146.09
424.887	4.78
425.094	150.18
425.302	-32.08
425.51	51.88
425.718	187.05
425.925	43.69
426.133	49.83
426.341	176.81
426.548	86.7
426.756	94.89
426.964	139.94
427.171	70.31
427.379	125.61
427.586	98.99
427.794	150.18
428.001	199.34
428.209	39.59
428.417	156.33
428.624	109.22
428.832	156.33
429.039	84.65
429.247	80.55
429.454	141.99
429.662	203.43
429.869	137.9
430.076	195.24
430.284	137.9
430.491	207.53
430.699	66.22
430.906	152.23
431.114	133.8
431.321	80.55
431.528	84.65
431.736	80.55
431.943	170.66
432.15	258.73
432.358	205.48
432.565	244.39
432.772	84.65
432.979	234.15
433.187	107.18
433.394	158.38
433.601	119.46
433.808	225.96
434.016	297.64
434.223	191.14
434.43	258.73
434.637	228.01
434.844	277.16
435.052	232.1
435.259	256.68
435.466	250.53
435.673	162.47
435.88	209.58
436.087	248.49
436.294	389.8
436.501	377.51
436.708	180.9
436.915	279.21
437.122	385.7
437.329	252.58
437.537	232.1
437.743	287.4
437.95	354.98
438.157	299.69
438.364	330.41
438.571	377.51
438.778	426.66
438.985	481.96
439.192	481.96
439.399	385.7
439.606	389.8
439.813	465.57
440.02	500.39
440.227	617.12
440.433	484
440.64	510.63
440.847	447.14
441.054	502.43
441.261	672.42
441.467	682.66
441.674	518.82
441.881	629.41
442.088	551.59
442.294	723.62
442.501	742.05
442.708	752.29
442.914	826.01
443.121	760.48
443.328	850.59
443.534	817.82
443.741	813.73
443.948	707.23
444.154	928.41
444.361	1137.31
444.568	977.56
444.774	957.08
444.981	903.84
445.187	1092.25
445.394	1075.87
445.6	985.76
445.807	1229.46
446.013	1280.66
446.22	1247.9
446.426	1348.25
446.633	1458.84
446.839	1616.53
447.046	1424.02
447.252	1585.81
447.459	1503.89
447.665	1534.61
447.871	1616.53
448.078	1890.96
448.284	1786.51
448.491	1821.33
448.697	1944.2
448.903	2001.55
449.11	1880.72
449.316	2038.41
449.522	2112.14
449.728	2181.77
449.935	2396.81
450.141	2343.56
450.347	2556.55
450.553	2400.9
450.76	2605.7
450.966	2749.06
451.172	2757.25
451.378	2982.53
451.584	3017.34
451.791	3187.32
451.997	3195.51
452.203	3304.06
452.409	3519.09
452.615	3648.11
452.821	3512.95
453.027	3603.06
453.233	4045.42
453.44	3797.62
453.646	4119.15
453.852	4369
454.058	4455.01
454.264	4508.26
454.47	4903.52
454.676	4895.33
454.882	5149.28
455.088	5048.93
455.294	5403.22
455.5	5558.87
455.705	5933.65
455.911	6103.63
456.117	6091.34
456.323	6459.98
456.529	6337.1
456.735	7027.26
456.941	7141.95
457.147	7602.74
457.352	7506.49
457.558	8014.38
457.764	8288.81
457.97	8395.31
458.176	8735.27
458.381	9247.26
458.587	9572.89
458.793	9921.04
458.999	9695.77
459.204	11117.06
459.41	11508.22
459.616	11426.3
459.821	12151.28
460.027	12409.33
460.233	12970.47
460.438	13257.18
460.644	13908.44
460.85	14037.46
461.055	14674.38
461.261	15292.87
461.466	14887.37
461.672	15100.36
461.878	17082.79
462.083	16705.96
462.289	17361.31
462.494	18137.49
462.7	18004.38
462.905	18104.73
463.111	19571.07
463.316	20689.26
463.522	20689.26
463.727	21709.15
463.932	22810.96
464.138	23638.34
464.343	24158.52
464.549	24279.35
464.754	26036.51
464.959	26972.43
465.165	27511.05
465.37	27212.04
465.575	27087.12
465.781	29018.35
465.986	29890.79
466.191	29214.96
466.397	29743.33
466.602	29026.54
466.807	30548.18
467.012	31219.92
467.218	31609.03
467.423	31629.51
467.628	32604.35
467.833	34142.37
468.038	33376.43
468.244	32911.54
468.449	34916.5
468.654	34103.46
468.859	34136.23
469.064	34261.15
469.269	33286.32
469.474	33276.08
469.679	34568.35
469.885	33736.87
470.09	34171.04
470.295	34066.59
470.5	33366.19
470.705	33527.98
470.91	32710.84
471.115	32338.11
471.32	32839.86
471.525	33114.29
471.73	31693
471.935	31752.39
472.139	30195.93
472.344	30437.59
472.549	30083.3
472.754	29685.99
472.959	28985.58
473.164	27793.67
473.369	27803.91
473.574	28324.09
473.778	27625.73
473.983	27328.78
474.188	27095.31
474.393	25610.53
474.598	25540.9
474.802	25043.24
475.007	24353.08
475.212	24359.22
475.417	23406.92
475.621	23329.09
475.826	22903.12
476.031	22616.4
476.235	21778.78
476.44	22096.22
476.645	21494.11
476.849	21352.8
477.054	20726.13
477.259	20373.88
477.463	20515.19
477.668	19511.68
477.872	19849.6
478.077	19054.98
478.282	18588.05
478.486	18489.74
478.691	18067.86
478.895	18018.71
479.1	17965.46
479.304	17697.18
479.509	17373.6
479.713	17430.94
479.918	17066.41
480.122	16802.22
480.326	16857.51
480.531	16761.26
480.735	16535.98
480.94	16198.07
481.144	16705.96
481.348	15976.89
481.553	15980.98
481.757	15368.64
481.961	15620.54
482.166	15798.71
482.37	15309.25
482.574	14979.53
482.778	15247.81
482.983	15624.64
483.187	15114.69
483.391	14993.86
483.595	14782.92
483.8	14473.68
484.004	14692.81
484.208	14436.81
484.412	14389.71
484.616	14330.32
484.821	14025.17
485.025	13670.87
485.229	13760.98
485.433	13535.71
485.637	13525.47
485.841	13031.91
486.045	12937.7
486.249	13019.62
486.453	12636.65
486.657	12468.72
486.861	12397.04
487.065	11889.14
487.269	12200.43
487.473	11614.71
487.677	11708.92
487.881	11905.52
488.085	11241.98
488.289	11248.13
488.493	10861.06
488.697	10961.41
488.901	10398.22
489.105	10363.4
489.309	10168.85
489.512	10144.27
489.716	9859.6
489.92	9648.66
490.124	9413.15
490.328	9570.84
490.531	9142.82
490.735	9144.86
490.939	8935.97
491.143	8651.3
491.346	8485.42
491.55	8596.01
491.754	8241.71
491.958	8145.45
492.161	8088.11
492.365	7977.52
492.569	7850.55
492.772	7791.16
492.976	7629.37
493.18	7451.19
493.383	7526.97
493.587	7391.8
493.79	7377.47
493.994	7017.02
494.197	7057.98
494.401	6888
494.605	6844.99
494.808	6906.43
495.012	6906.43
495.215	6656.58
495.419	6816.32
495.622	6558.28
495.825	6695.49
496.029	6558.28
496.232	6720.07
496.436	6595.14
496.639	6490.7
496.843	6533.7
497.046	6404.68
497.249	6586.95
497.453	6537.8
497.656	6611.53
497.859	6449.74
498.063	6619.72
498.266	6658.63
498.469	6453.83
498.673	6556.23
498.876	6545.99
499.079	6601.29
499.282	6431.3
499.485	6701.64
499.689	6662.73
499.892	6718.02
500.095	6613.57
500.298	6906.43
500.501	6910.53
500.705	6957.63
500.908	6902.34
501.111	6947.39
501.314	6986.3
501.517	7260.73
501.72	7066.17
501.923	7187
502.126	7399.99
502.329	7598.65
502.532	7486.01
502.735	7440.95
502.938	7694.9
503.141	7819.83
503.344	7680.57
503.547	7918.13
503.75	7920.18
503.953	8194.61
504.156	8337.96
504.359	8227.37
504.562	8389.16
504.765	8522.28
504.968	8671.78
505.17	8999.46
505.373	9030.18
505.576	9306.65
505.779	9298.46
505.982	9292.32
506.185	9605.66
506.387	9462.3
506.59	9964.05
506.793	10144.27
506.996	10222.09
507.198	10639.88
507.401	10527.24
507.604	10840.58
507.807	10996.23
508.009	11239.94
508.212	11680.25
508.415	11674.1
508.617	11919.86
508.82	12083.7
509.022	12366.32
509.225	12886.5
509.428	12753.38
509.63	13234.66
509.833	13320.67
510.035	13806.04
510.238	13814.23
510.44	14197.2
510.643	14655.95
510.845	15069.64
511.048	15180.23
511.25	15815.1
511.453	15589.82
511.655	16548.27
511.858	16687.53
512.06	17041.83
512.262	17371.55
512.465	17748.38
512.667	18190.74
512.87	18381.2
513.072	18823.56
513.274	19546.5
513.477	19960.19
513.679	20138.36
513.881	20683.12
514.084	21123.43
514.286	21731.68
514.488	22380.89
514.69	22903.12
514.893	23050.57
515.095	23460.16
515.297	24238.39
515.499	24613.17
515.701	24826.16
515.904	25706.79
516.106	26007.84
516.308	26616.08
516.51	27115.79
516.712	27552.01
516.914	28455.16
517.116	28942.58
517.318	29581.54
517.52	29884.64
517.722	30009.57
517.925	31045.84
518.127	31805.64
518.329	32192.7
518.531	32186.56
518.733	33310.89
518.935	33843.37
519.136	34252.96
519.338	34820.25
519.54	35610.76
519.742	35883.14
519.944	36128.9
520.146	37230.71
520.348	37521.52
520.55	37836.91
520.752	38189.16
520.954	38946.9
521.155	39018.58
521.357	40036.42
521.559	40403.01
521.761	40912.95
521.963	41431.09
522.164	41812.01
522.366	42182.69
522.568	42377.25
522.77	42713.12
522.971	43429.91
523.173	42872.86
523.375	43444.24
523.576	43638.8
523.778	43833.36
523.98	44328.97
524.181	44773.38
524.383	44791.81
524.584	45264.89
524.786	45164.54
524.988	45076.47
525.189	45094.91
525.391	45445.11
525.592	45465.59
525.794	45793.26
525.995	45291.51
526.197	45162.49
526.398	45375.48
526.6	45469.68
526.801	45309.94
527.003	45236.22
527.204	45156.35
527.406	45058.04
527.607	45053.95
527.808	45023.23
528.01	44316.68
528.211	44271.62
528.412	44740.61
528.614	43708.43
528.815	43745.3
529.016	43683.86
529.218	43141.14
529.419	42827.81
529.62	42377.25
529.822	41740.33
530.023	41840.68
530.224	41211.96
530.425	40527.94
530.626	39919.69
530.828	39585.87
531.029	40054.86
531.23	39110.74
531.431	38789.21
531.632	38475.87
531.833	38383.71
532.035	37544.05
532.236	37314.67
532.437	36819.06
532.638	36606.08
532.839	35870.86
533.04	35694.73
533.241	34898.07
533.442	34932.89
533.643	34291.87
533.844	33851.56
534.045	33351.85
534.246	32813.24
534.447	32807.09
534.648	31875.27
534.849	31768.77
535.05	31080.66
535.251	30806.23
535.451	30316.76
535.652	29780.2
535.853	29532.39
536.054	29270.25
536.255	28936.43
536.456	28061.95
536.657	28387.58
536.857	27705.6
537.058	27103.5
537.259	26994.96
537.46	26681.62
537.66	26364.18
537.861	25932.06
538.062	25506.09
538.263	25270.57
538.463	24611.12
538.664	24693.04
538.865	24443.19
539.065	23929.15
539.266	23456.07
539.466	23417.16
539.667	22798.67
539.868	23048.52
540.068	22446.42
540.269	22503.76
540.469	22073.69
540.67	21926.24
540.87	21367.14
541.071	21293.41
541.271	21061.99
541.472	20816.24
541.672	20552.05
541.873	20355.44
542.073	19745.15
542.274	20007.29
542.474	19526.02
542.675	19450.24
542.875	19247.49
543.075	18688.4
543.276	18633.1
543.476	18796.94
543.676	18313.62
543.877	18028.95
544.077	18108.82
544.277	17981.85
544.478	17682.84
544.678	17658.27
544.878	17054.12
545.078	16986.54
545.279	16673.2
545.479	16435.63
545.679	16439.73
545.879	16497.07
546.079	15786.43
546.28	15532.48
546.48	15393.22
546.68	15614.4
546.88	15196.61
547.08	15147.46
547.28	14813.64
547.48	14393.81
547.68	14539.21
547.88	14350.8
548.081	14379.47
548.281	14004.69
548.481	13838.81
548.681	13746.65
548.881	13375.97
549.081	13181.41
549.28	13025.76
549.48	13195.75
549.68	13058.53
549.88	12816.87
550.08	12356.08
550.28	12282.35
550.48	12296.69
550.68	12114.42
550.88	11649.53
551.08	11442.68
551.279	11293.18
551.479	11237.89
551.679	11344.38
551.879	11053.57
552.079	10830.34
552.278	10781.19
552.478	10476.04
552.678	10400.27
552.878	10125.84
553.077	10023.44
553.277	9855.51
553.477	10027.54
553.676	9433.63
553.876	9521.69
554.076	9427.48
554.275	9230.88
554.475	8925.73
554.674	8942.11
554.874	8602.15
555.074	8497.7
555.273	8530.47
555.473	8239.66
555.672	7969.33
555.872	7907.89
556.071	7926.32
556.271	7926.32
556.47	7672.37
556.67	7637.56
556.869	7539.26
557.068	7197.24
557.268	7098.94
557.467	7010.88
557.667	6986.3
557.866	6836.8
558.065	6820.42
558.265	6533.7
558.464	6425.16
558.663	6552.13
558.863	6345.29
559.062	6177.36
559.261	6128.21
559.461	6052.43
559.66	5907.02
559.859	5739.09
560.058	5552.73
560.258	5550.68
560.457	5544.53
560.656	5642.84
560.855	5458.52
561.054	5347.93
561.253	5180
561.453	5210.72
561.652	5079.65
561.851	5204.57
562.05	5022.3
562.249	4717.15
562.448	4694.63
562.647	4606.56
562.846	4588.13
563.045	4688.48
563.244	4418.15
563.443	4571.75
563.642	4328.04
563.841	4274.79
564.04	4153.96
564.239	4123.24
564.438	3965.55
564.637	3945.07
564.836	4072.04
565.035	3830.38
565.234	3865.2
565.432	3738.23
565.631	3863.15
565.83	3805.81
566.029	3592.82
566.228	3488.37
566.427	3529.33
566.625	3392.12
566.824	3471.99
567.023	3359.35
567.222	3318.39
567.42	3299.96
567.619	3275.38
567.818	3156.6
568.016	3390.07
568.215	3113.6
568.414	3111.55
568.612	3035.77
568.811	2962.05
569.01	2986.62
569.208	2876.03
569.407	2845.31
569.605	2753.15
569.804	2710.15
570.002	2761.34
570.201	2609.79
570.4	2689.67
570.598	2574.98
570.797	2613.89
570.995	2327.18
571.193	2400.9
571.392	2534.02
571.59	2337.41
571.789	2421.38
571.987	2267.78
572.186	2425.48
572.384	2167.43
572.582	2261.64
572.781	2292.36
572.979	2282.12
573.177	2165.39
573.376	1983.12
573.574	2085.51
573.772	1991.31
573.971	1976.97
574.169	1794.7
574.367	1917.58
574.565	1936.01
574.763	1827.47
574.962	1780.37
575.16	1825.42
575.358	1745.55
575.556	1761.94
575.754	1682.06
575.952	1608.34
576.151	1639.06
576.349	1716.88
576.547	1442.45
576.745	1686.16
576.943	1643.15
577.141	1550.99
577.339	1436.31
577.537	1569.43
577.735	1460.88
577.933	1485.46
578.131	1305.24
578.329	1489.56
578.527	1206.94
578.725	1452.69
578.923	1301.14
579.121	1231.51
579.319	1245.85
579.516	1329.81
579.714	1510.04
579.912	1188.5
580.11	1182.36
580.308	1194.65
580.506	1184.41
580.704	1018.52
580.901	1112.73
581.099	1303.19
581.297	1084.06
581.495	1098.39
581.692	1026.71
581.89	1211.03
582.088	1133.21
582.285	1047.19
582.483	1014.43
582.681	1016.48
582.878	938.65
583.076	961.18
583.274	977.56
583.471	1079.96
583.669	842.4
583.866	828.06
584.064	903.84
584.262	799.39
584.459	850.59
584.657	932.51
584.854	879.26
585.052	879.26
585.249	815.77
585.447	809.63
585.644	727.71
585.841	826.01
586.039	787.1
586.236	821.92
586.434	699.04
586.631	692.9
586.828	633.5
587.026	809.63
587.223	629.41
587.42	629.41
587.618	770.72
587.815	811.68
588.012	731.81
588.21	711.33
588.407	633.5
588.604	709.28
588.801	592.55
588.999	567.97
589.196	707.23
589.393	594.59
589.59	699.04
589.787	600.74
589.984	694.94
590.182	647.84
590.379	588.45
590.576	572.07
590.773	639.65
590.97	627.36
591.167	647.84
591.364	633.5
591.561	516.77
591.758	715.42
591.955	606.88
592.152	608.93
592.349	494.24
592.546	547.49
592.743	574.11
592.94	643.74
593.137	658.08
593.334	643.74
593.531	649.89
593.727	600.74
593.924	576.16
594.121	580.26
594.318	592.55
594.515	701.09
594.712	692.9
594.908	703.14
595.105	461.48
595.302	664.22
595.499	621.22
595.696	799.39
595.892	649.89
596.089	705.18
596.286	645.79
596.482	731.81
596.679	721.57
596.876	643.74
597.072	848.54
597.269	701.09
597.466	860.83
597.662	815.77
597.859	713.38
598.055	848.54
598.252	838.3
598.448	869.02
598.645	944.8
598.841	895.64
599.038	1016.48
599.234	1092.25
599.431	1024.67
599.627	1071.77
599.824	1204.89
600.02	1125.02
600.217	1112.73
600.413	1211.03
600.609	1313.43
600.806	1526.42
601.002	1419.92
601.198	1237.66
601.395	1493.65
601.591	1436.31
601.787	1571.47
601.984	1688.21
602.18	1692.3
602.376	1725.07
602.572	1845.9
602.769	1987.21
602.965	2007.69
603.161	2108.04
603.357	2122.38
603.553	2179.72
603.75	2091.66
603.946	2273.93
604.142	2388.61
604.338	2611.84
604.534	2554.5
604.73	2650.75
604.926	2665.09
605.122	2908.8
605.318	2798.21
605.514	3031.68
605.71	3068.54
605.906	3222.14
606.102	3338.87
606.298	3392.12
606.494	3365.5
606.69	3799.66
606.886	3666.55
607.082	3721.84
607.278	3943.02
607.474	3887.73
607.67	4035.18
607.866	4020.85
608.062	4330.09
608.257	4385.38
608.453	4481.64
608.649	4672.1
608.845	4670.05
609.041	4741.73
609.236	5014.11
609.432	5188.19
609.628	5284.44
609.824	5423.7
610.019	5501.53
610.215	5671.51
610.411	5937.74
610.606	5945.94
610.802	6181.45
610.998	6285.9
611.193	6421.06
611.389	6500.94
611.584	6939.2
611.78	6949.44
611.976	7055.93
612.171	7297.6
612.367	7639.61
612.562	7799.35
612.758	7883.31
612.953	7983.66
613.149	8182.32
613.344	8475.18
613.539	8665.64
613.735	9005.6
613.93	9110.05
614.126	9155.1
614.321	9615.9
614.517	10086.93
614.712	10318.35
614.907	10236.43
615.103	10846.73
615.298	10832.39
615.493	11463.16
615.688	11305.47
615.884	11893.24
616.079	11860.47
616.274	12431.85
616.47	12653.03
616.665	13044.2
616.86	13158.88
617.055	13568.48
617.25	14002.64
617.445	14270.93
617.641	14318.03
617.836	14913.99
618.031	15157.7
618.226	15641.02
618.421	16069.05
618.616	16406.96
618.811	16587.18
619.006	17146.28
619.201	17295.78
619.396	17895.83
619.591	17947.03
619.786	18823.56
619.981	18973.07
620.176	19708.29
620.371	19370.37
620.566	20343.16
620.761	20455.79
620.956	20996.46
621.151	21229.93
621.346	21950.81
621.541	22159.7
621.735	22939.98
621.93	22927.69
622.125	23124.3
622.32	23384.39
622.515	24260.92
622.709	24914.22
622.904	25370.92
623.099	25401.64
623.294	26267.93
623.488	26310.94
623.683	27111.69
623.878	27054.35
624.072	27703.56
624.267	27998.46
624.462	28473.59
624.656	28823.79
624.851	29534.44
625.046	29733.09
625.24	30060.77
625.435	30789.84
625.629	30853.33
625.824	31240.4
626.018	31611.08
626.213	31611.08
626.407	32403.64
626.602	32503.99
626.796	33247.41
626.991	33298.61
627.185	33525.93
627.38	33878.18
627.574	34279.58
627.768	34375.84
627.963	34504.86
628.157	34050.21
628.352	34814.1
628.546	34355.36
628.74	35219.6
628.935	34166.95
629.129	34820.25
629.323	34148.51
629.517	34095.27
629.712	34050.21
629.906	33853.61
630.1	33493.16
630.294	33511.6
630.489	32948.4
630.683	32893.11
630.877	31975.62
631.071	31328.46
631.265	31238.35
631.459	30517.47
631.653	29841.64
631.848	29442.28
632.042	28551.41
632.236	27949.31
632.43	26874.13
632.624	26458.39
632.818	25702.69
633.012	24975.66
633.206	23986.49
633.4	23312.71
633.594	22370.65
633.788	21805.41
633.982	21258.6
634.176	20627.82
634.369	19470.72
634.563	18821.52
634.757	18043.29
634.951	17473.95
635.145	16730.54
635.339	16216.5
635.533	15323.58
635.726	14922.18
635.92	14088.66
636.114	13715.93
636.308	13103.59
636.501	12665.32
636.695	12079.6
636.889	11409.92
637.083	10983.94
637.276	10580.49
637.47	10099.22
637.664	9757.21
637.857	9607.7
638.051	8878.63
638.244	8626.73
638.438	8350.25
638.632	8018.48
638.825	7692.85
639.019	7457.34
639.212	7098.94
639.406	6709.83
639.599	6664.77
639.793	6400.59
639.986	6050.38
640.18	5952.08
640.373	5524.05
640.567	5415.51
640.76	5120.6
640.954	4995.68
641.147	4768.35
641.34	4426.34
641.534	4448.87
641.727	4262.51
641.92	4151.92
642.114	3969.65
642.307	3736.18
642.5	3555.96
642.694	3517.05
642.887	3469.94
643.08	3435.13
643.273	3162.75
643.467	3060.35
643.66	2902.65
643.853	2720.39
644.046	2730.62
644.239	2652.8
644.432	2312.84
644.626	2263.69
644.819	2161.29
645.012	2257.54
645.205	2253.45
645.398	2048.65
645.591	1886.86
645.784	1966.73
645.977	1661.59
646.17	1759.89
646.363	1624.72
646.556	1616.53
646.749	1405.59
646.942	1487.51
647.135	1514.13
647.328	1297.05
647.521	1348.25
647.714	1229.46
647.907	1254.04
648.099	1153.69
648.292	1215.13
648.485	1135.26
648.678	1047.19
648.871	987.8
649.064	1053.34
649.256	864.93
649.449	936.6
649.642	727.71
649.835	778.91
650.027	742.05
650.22	840.35
650.413	719.52
650.605	717.47
650.798	672.42
650.991	643.74
651.183	653.98
651.376	645.79
651.568	684.7
651.761	649.89
651.954	711.33
652.146	527.01
652.339	684.7
652.531	565.92
652.724	400.04
652.916	486.05
653.109	354.98
653.301	535.2
653.494	524.96
653.686	461.48
653.879	508.58
654.071	494.24
654.263	357.03
654.456	332.45
654.648	418.47
654.84	387.75
655.033	391.84
655.225	494.24
655.417	320.17
655.61	395.94
655.802	422.56
655.994	316.07
656.186	172.71
656.379	334.5
656.571	256.68
656.763	289.45
656.955	246.44
657.148	260.77
657.34	375.46
657.532	252.58
657.724	141.99
657.916	314.02
658.108	332.45
658.3	293.54
658.492	240.29
658.684	164.52
658.876	281.25
659.068	125.61
659.26	121.51
659.452	156.33
659.644	205.48
659.836	365.22
660.028	258.73
660.22	230.06
660.412	199.34
660.604	334.5
660.796	254.63
660.988	311.97
661.18	193.19
661.372	260.77
661.563	258.73
661.755	213.67
661.947	103.08
662.139	195.24
662.331	162.47
662.522	178.86
662.714	119.46
662.906	119.46
663.097	98.99
663.289	154.28
663.481	55.98
663.673	213.67
663.864	109.22
664.056	72.36
664.247	168.62
664.439	187.05
664.631	213.67
664.822	189.1
665.014	88.75
665.205	125.61
665.397	137.9
665.588	125.61
665.78	78.51
665.971	139.94
666.163	127.66
666.354	109.22
666.546	154.28
666.737	164.52
666.929	82.6
667.12	60.07
667.311	182.95
667.503	72.36
667.694	105.13
667.885	86.7
668.077	137.9
668.268	47.79
668.459	111.27
668.651	148.14
668.842	176.81
669.033	115.37
669.224	29.35
669.416	293.54
669.607	117.42
669.798	51.88
669.989	172.71
670.18	111.27
670.371	197.29
670.563	66.22
670.754	185
670.945	137.9
671.136	219.82
671.327	35.5
671.518	141.99
671.709	141.99
671.9	176.81
672.091	223.91
672.282	144.04
672.473	178.86
672.664	2.73
672.855	164.52
673.046	176.81
673.237	137.9
673.428	236.2
673.619	240.29
673.809	92.84
674	295.59
674.191	232.1
674.382	72.36
674.573	139.94
674.764	141.99
674.954	225.96
675.145	49.83
675.336	72.36
675.527	101.03
675.717	127.66
675.908	129.7
676.099	113.32
676.289	113.32
676.48	78.51
676.671	185
676.861	-3.41
677.052	164.52
677.243	66.22
677.433	94.89
677.624	275.11
677.814	168.62
678.005	131.75
678.195	283.3
678.386	41.64
678.576	117.42
678.767	119.46
678.957	137.9
679.148	199.34
679.338	250.53
679.529	127.66
679.719	90.79
679.909	260.77
680.1	207.53
680.29	215.72
680.481	58.03
680.671	197.29
680.861	197.29
681.052	160.42
681.242	150.18
681.432	246.44
681.622	131.75
681.813	103.08
682.003	146.09
682.193	82.6
682.383	168.62
682.573	180.9
682.764	58.03
682.954	131.75
683.144	311.97
683.334	121.51
683.524	170.66
683.714	217.77
683.904	215.72
684.094	164.52
684.284	207.53
684.474	242.34
684.664	244.39
684.854	146.09
685.044	174.76
685.234	125.61
685.424	185
685.614	191.14
685.804	344.74
685.994	207.53
686.184	166.57
686.374	170.66
686.564	156.33
686.753	244.39
686.943	72.36
687.133	174.76
687.323	144.04
687.513	168.62
687.702	166.57
687.892	82.6
688.082	246.44
688.272	252.58
688.461	170.66
688.651	346.79
688.841	185
689.03	135.85
689.22	223.91
689.41	193.19
689.599	223.91
689.789	125.61
689.979	318.12
690.168	223.91
690.358	379.56
690.547	244.39
690.737	164.52
690.926	193.19
691.116	141.99
691.305	213.67
691.495	195.24
691.684	178.86
691.874	174.76
692.063	197.29
692.252	203.43
692.442	240.29
692.631	187.05
692.82	113.32
693.01	191.14
693.199	240.29
693.388	264.87
693.578	117.42
693.767	228.01
693.956	244.39
694.146	207.53
694.335	185
694.524	150.18
694.713	236.2
694.902	133.8
695.092	55.98
695.281	225.96
695.47	232.1
695.659	158.38
695.848	107.18
696.037	64.17
696.226	215.72
696.415	148.14
696.604	240.29
696.793	228.01
696.982	223.91
697.171	281.25
697.36	238.25
697.549	139.94
697.738	68.27
697.927	166.57
698.116	72.36
698.305	234.15
698.494	164.52
698.683	185
698.872	281.25
699.061	219.82
699.25	185
699.438	182.95
699.627	66.22
699.816	295.59
700.005	94.89
700.193	129.7
700.382	248.49
700.571	213.67
700.76	174.76
700.948	254.63
701.137	228.01
701.326	189.1
701.514	117.42
701.703	230.06
701.892	141.99
702.08	322.21
702.269	127.66
702.457	127.66
702.646	187.05
702.834	146.09
703.023	166.57
703.212	371.37
703.4	150.18
703.589	107.18
703.777	121.51
703.965	135.85
704.154	111.27
704.342	107.18
704.531	119.46
704.719	199.34
704.907	242.34
705.096	96.94
705.284	131.75
705.472	141.99
705.661	150.18
705.849	187.05
706.037	230.06
706.226	223.91
706.414	258.73
706.602	92.84
706.79	201.38
706.979	113.32
707.167	139.94
707.355	39.59
707.543	301.73
707.731	123.56
707.919	172.71
708.107	158.38
708.296	197.29
708.484	88.75
708.672	154.28
708.86	228.01
709.048	170.66
709.236	37.55
709.424	178.86
709.612	180.9
709.8	53.93
709.988	141.99
710.176	318.12
710.364	191.14
710.551	232.1
710.739	182.95
710.927	131.75
711.115	201.38
711.303	260.77
711.491	307.88
711.679	154.28
711.866	176.81
712.054	121.51
712.242	287.4
712.43	264.87
712.617	131.75
712.805	232.1
712.993	207.53
713.181	78.51
713.368	230.06
713.556	135.85
713.744	121.51
713.931	291.49
714.119	236.2
714.306	88.75
714.494	131.75
714.682	240.29
714.869	146.09
715.057	168.62
715.244	146.09
715.432	199.34
715.619	207.53
715.807	162.47
715.994	223.91
716.182	213.67
716.369	246.44
716.556	201.38
716.744	74.41
716.931	172.71
717.119	166.57
717.306	193.19
717.493	211.62
717.681	66.22
717.868	158.38
718.055	115.37
718.242	201.38
718.43	219.82
718.617	289.45
718.804	168.62
718.991	281.25
719.179	254.63
719.366	193.19
719.553	228.01
719.74	211.62
719.927	191.14
720.114	160.42
720.301	160.42
720.488	125.61
720.676	111.27
720.863	240.29
721.05	316.07
721.237	244.39
721.424	199.34
721.611	283.3
721.798	72.36
721.985	158.38
722.172	111.27
722.358	201.38
722.545	228.01
722.732	254.63
722.919	238.25
723.106	273.06
723.293	168.62
723.48	230.06
723.667	158.38
723.853	209.58
724.04	299.69
724.227	277.16
724.414	211.62
724.6	223.91
724.787	359.08
724.974	305.83
725.161	195.24
725.347	125.61
725.534	189.1
725.72	180.9
725.907	256.68
726.094	232.1
726.28	250.53
726.467	201.38
726.653	176.81
726.84	287.4
727.027	352.93
727.213	213.67
727.4	252.58
727.586	221.86
727.773	246.44
727.959	211.62
728.145	260.77
728.332	236.2
728.518	76.46
728.705	221.86
728.891	279.21
729.077	232.1
729.264	180.9
729.45	223.91
729.636	334.5
729.823	238.25
730.009	295.59
730.195	209.58
730.382	303.78
730.568	178.86
730.754	180.9
730.94	162.47
731.126	207.53
731.313	338.6
731.499	213.67
731.685	338.6
731.871	211.62
732.057	252.58
732.243	268.97
732.429	244.39
732.615	391.84
732.801	328.36
732.987	258.73
733.173	230.06
733.359	180.9
733.545	279.21
733.731	172.71
733.917	314.02
734.103	219.82
734.289	139.94
734.475	185
734.661	309.93
734.847	223.91
735.033	252.58
735.219	293.54
735.404	193.19
735.59	176.81
735.776	203.43
735.962	246.44
736.148	248.49
736.333	365.22
736.519	277.16
736.705	260.77
736.89	191.14
737.076	236.2
737.262	191.14
737.447	197.29
737.633	180.9
737.819	314.02
738.004	277.16
738.19	217.77
738.375	291.49
738.561	260.77
738.747	273.06
738.932	191.14
739.118	404.13
739.303	254.63
739.489	244.39
739.674	123.56
739.859	203.43
740.045	242.34
740.23	131.75
740.416	68.27
740.601	252.58
740.786	162.47
740.972	193.19
741.157	217.77
741.342	141.99
741.528	70.31
741.713	354.98
741.898	230.06
742.084	178.86
742.269	174.76
742.454	273.06
742.639	314.02
742.824	195.24
743.01	359.08
743.195	258.73
743.38	238.25
743.565	283.3
743.75	187.05
743.935	273.06
744.12	283.3
744.305	101.03
744.49	146.09
744.675	205.48
744.86	185
745.045	285.35
745.23	262.82
745.415	156.33
745.6	297.64
745.785	228.01
745.97	248.49
746.155	275.11
746.34	303.78
746.525	197.29
746.71	348.84
746.895	180.9
747.079	160.42
747.264	205.48
747.449	291.49
747.634	271.01
747.819	221.86
748.003	219.82
748.188	111.27
748.373	168.62
748.557	195.24
748.742	232.1
748.927	144.04
749.111	166.57
749.296	252.58
749.481	258.73
749.665	197.29
749.85	178.86
750.034	348.84
750.219	148.14
750.404	168.62
750.588	271.01
750.773	160.42
750.957	172.71
751.141	195.24
751.326	164.52
751.51	94.89
751.695	211.62
751.879	174.76
752.064	322.21
752.248	70.31
752.432	285.35
752.617	211.62
752.801	279.21
752.985	244.39
753.17	170.66
753.354	111.27
753.538	254.63
753.722	158.38
753.907	115.37
754.091	47.79
754.275	289.45
754.459	101.03
754.643	68.27
754.828	154.28
755.012	144.04
755.196	113.32
755.38	101.03
755.564	133.8
755.748	141.99
755.932	244.39
756.116	242.34
756.3	185
756.484	162.47
756.668	242.34
756.852	-19.8
757.036	174.76
757.22	131.75
757.404	84.65
757.588	135.85
757.772	174.76
757.956	92.84
758.14	213.67
758.323	58.03
758.507	141.99
758.691	58.03
758.875	244.39
759.059	195.24
759.242	37.55
759.426	131.75
759.61	168.62
759.794	101.03
759.977	137.9
760.161	309.93
760.345	213.67
760.528	266.92
760.712	172.71
760.895	139.94
761.079	70.31
761.263	6.83
761.446	39.59
761.63	121.51
761.813	238.25
761.997	-27.99
762.18	125.61
762.364	172.71
762.547	78.51
762.731	49.83
762.914	51.88
763.098	121.51
763.281	43.69
763.464	60.07
763.648	113.32
763.831	72.36
764.015	35.5
764.198	137.9
764.381	80.55
764.564	109.22
764.748	154.28
764.931	133.8
765.114	76.46
765.297	203.43
765.481	23.21
765.664	64.17
765.847	90.79
766.03	178.86
766.213	33.45
766.397	12.97
766.58	-7.51
766.763	86.7
766.946	88.75
767.129	31.4
767.312	101.03
767.495	76.46
767.678	37.55
767.861	158.38
768.044	123.56
768.227	64.17
768.41	133.8
768.593	94.89
768.776	90.79
768.959	29.35
769.142	170.66
769.324	88.75
769.507	119.46
769.69	76.46
769.873	62.12
770.056	211.62
770.239	35.5
770.421	168.62
770.604	131.75
770.787	21.16
770.97	68.27
771.152	6.83
771.335	88.75
771.518	37.55
771.7	129.7
771.883	170.66
772.066	35.5
772.248	45.74
772.431	211.62
772.613	137.9
772.796	27.31
772.978	60.07
773.161	238.25
773.343	6.83
773.526	33.45
773.708	-91.48
773.891	2.73
774.073	66.22
774.256	12.97
774.438	199.34
774.621	39.59
774.803	90.79
774.985	86.7
775.168	150.18
775.35	53.93
775.532	53.93
775.715	19.11
775.897	90.79
776.079	45.74
776.261	92.84
776.444	80.55
776.626	154.28
776.808	62.12
776.99	19.11
777.173	72.36
777.355	2.73
777.537	111.27
777.719	-5.46
777.901	6.83
778.083	25.26
778.265	-79.19
778.447	146.09
778.629	-5.46
778.811	39.59
778.993	45.74
779.175	66.22
779.357	119.46
779.539	-122.2
779.721	47.79
779.903	107.18
780.085	51.88
780.267	137.9
780.449	68.27
780.631	80.55
780.812	156.33
780.994	98.99
781.176	-9.56
781.358	66.22
781.54	-5.46
781.721	109.22
781.903	107.18
782.085	70.31
782.267	101.03
782.448	-17.75
782.63	21.16
782.812	76.46
782.993	51.88
783.175	86.7
783.357	6.83
783.538	86.7
783.72	86.7
783.901	76.46
784.083	86.7
784.264	88.75
784.446	27.31
784.627	-23.89
784.809	88.75
784.99	-1.37
785.172	88.75
785.353	139.94
785.535	-19.8
785.716	10.92
785.897	-30.04
786.079	19.11
786.26	51.88
786.441	111.27
786.623	-42.32
786.804	19.11
786.985	-46.42
787.167	60.07
787.348	84.65
787.529	92.84
787.71	166.57
787.891	86.7
788.073	-83.28
788.254	-7.51
788.435	182.95
788.616	88.75
788.797	8.87
788.978	4.78
789.159	12.97
789.34	33.45
789.522	29.35
789.703	-50.52
789.884	55.98
790.065	29.35
790.246	219.82
790.427	-107.86
790.607	86.7
790.788	86.7
790.969	21.16
791.15	6.83
791.331	41.64
791.512	2.73
791.693	-36.18
791.874	12.97
792.054	148.14
792.235	154.28
792.416	-34.13
792.597	-27.99
792.778	107.18
792.958	31.4
793.139	139.94
793.32	35.5
793.5	-23.89
793.681	74.41
793.862	129.7
794.042	51.88
794.223	-62.8
794.404	72.36
794.584	-114
794.765	43.69
794.945	31.4
795.126	37.55
795.306	96.94
795.487	15.02
795.667	45.74
795.848	15.02
796.028	10.92
796.209	62.12
796.389	90.79
796.57	25.26
796.75	-42.32
796.93	84.65
797.111	-3.41
797.291	19.11
797.471	80.55
797.652	47.79
797.832	45.74
798.012	80.55
798.192	-68.95
798.373	-68.95
798.553	-38.23
798.733	53.93
798.913	-50.52
799.093	-58.71
799.274	-27.99
799.454	96.94
799.634	19.11
799.814	92.84
799.994	88.75
800.174	135.85
800.354	-48.47
800.534	-54.61
800.714	23.21
800.894	-56.66
801.074	-114
801.254	-52.56
801.434	158.38
801.614	8.87
801.794	-77.14
801.974	1800.85
802.154	-66.9
802.334	109.22
802.514	-15.7
802.693	8.87
802.873	21.16
803.053	105.13
803.233	12.97
803.413	-15.7
803.592	-34.13
803.772	-91.48
803.952	2.73
804.131	-79.19
804.311	58.03
804.491	68.27
804.67	-42.32
804.85	-48.47
805.03	72.36
805.209	15.02
805.389	-23.89
805.568	-52.56
805.748	25.26
805.928	4.78
806.107	129.7
806.287	60.07
806.466	-13.65
806.646	35.5
806.825	41.64
807.004	-34.13
807.184	15.02
807.363	25.26
807.543	4.78
807.722	-9.56
807.901	103.08
808.081	117.42
808.26	-157.01
808.439	37.55
808.619	-42.32
808.798	-44.37
808.977	47.79
809.156	2.73
809.336	33.45
809.515	88.75
809.694	-19.8
809.873	-34.13
810.052	80.55
810.231	109.22
810.411	-5.46
810.59	96.94
810.769	60.07
810.948	43.69
811.127	-116.05
811.306	35.5
811.485	-79.19
811.664	127.66
811.843	-38.23
812.022	45.74
812.201	39.59
812.38	10.92
812.559	12.97
812.737	35.5
812.916	-60.76
813.095	-60.76
813.274	-21.85
813.453	-34.13
813.632	39.59
813.811	23.21
813.989	-38.23
814.168	66.22
814.347	-95.57
814.526	-27.99
814.704	43.69
814.883	109.22
815.062	6.83
815.24	94.89
815.419	-36.18
815.598	45.74
815.776	-101.72
815.955	17.07
816.133	-130.39
816.312	53.93
816.49	23.21
816.669	53.93
816.847	8.87
817.026	-7.51
817.204	4.78
817.383	-7.51
817.561	-40.28
817.74	80.55
817.918	12.97
818.097	-79.19
818.275	-50.52
818.453	70.31
818.632	96.94
818.81	10.92
818.988	-105.81
819.167	-71
819.345	-32.08
819.523	-73.04
819.701	55.98
819.879	-36.18
820.058	12.97
820.236	47.79
820.414	2.73
820.592	39.59
820.77	-50.52
820.948	-68.95
821.127	-5.46
821.305	-62.8
821.483	-42.32
821.661	76.46
821.839	51.88
822.017	-9.56
822.195	17.07
822.373	49.83
822.551	25.26
822.729	51.88
822.907	-89.43
823.085	43.69
823.262	58.03
823.44	-46.42
823.618	-17.75
823.796	105.13
823.974	-44.37
824.152	-11.61
824.329	107.18
824.507	29.35
824.685	47.79
824.863	-36.18
825.04	-40.28
825.218	19.11
825.396	-60.76
825.574	101.03
825.751	-1.37
825.929	47.79
826.107	-73.04
826.284	43.69
826.462	49.83
826.639	-17.75
826.817	-64.85
826.994	55.98
827.172	-56.66
827.349	82.6
827.527	12.97
827.704	-15.7
827.882	27.31
828.059	-71
828.237	-91.48
828.414	70.31
828.591	-144.72
828.769	-9.56
828.946	-15.7
829.124	43.69
829.301	92.84
829.478	-13.65
829.655	37.55
829.833	-13.65
830.01	-118.1
830.187	-7.51
830.364	35.5
830.542	0.68
830.719	113.32
830.896	101.03
831.073	47.79
831.25	39.59
831.427	119.46
831.604	-116.05
831.782	-48.47
831.959	74.41
832.136	-5.46
832.313	-19.8
832.49	-25.94
832.667	47.79
832.844	-15.7
833.021	139.94
833.198	49.83
833.374	17.07
833.551	-11.61
833.728	-34.13
833.905	27.31
834.082	-36.18
834.259	12.97
834.436	55.98
834.612	-75.09
834.789	55.98
834.966	-17.75
835.143	76.46
835.319	-114
835.496	98.99
835.673	4.78
835.85	35.5
836.026	47.79
836.203	88.75
836.38	-32.08
836.556	-62.8
836.733	-9.56
836.909	131.75
837.086	-62.8
837.262	-77.14
837.439	25.26
837.616	-27.99
837.792	-17.75
837.968	51.88
838.145	-142.68
838.321	29.35
838.498	25.26
838.674	64.17
838.851	-38.23
839.027	15.02
839.203	10.92
839.38	10.92
839.556	-77.14
839.732	8.87
839.909	-19.8
840.085	21.16
840.261	-95.57
840.437	-3.41
840.614	-5.46
840.79	27.31
840.966	12.97
841.142	6.83
841.318	-97.62
841.494	43.69
841.671	49.83
841.847	-87.38
842.023	-11.61
842.199	35.5
842.375	148.14
842.551	-101.72
842.727	-9.56
842.903	121.51
843.079	-114
843.255	62.12
843.431	-40.28
843.607	12.97
843.783	-134.48
843.959	49.83
844.134	-62.8
844.31	49.83
844.486	-54.61
844.662	0.68
844.838	-46.42
845.013	-3.41
845.189	2.73
845.365	27.31
845.541	33.45
845.716	-36.18
845.892	78.51
846.068	19.11
846.244	-25.94
846.419	41.64
846.595	-32.08
846.77	-107.86
846.946	49.83
847.122	45.74
847.297	21.16
847.473	109.22
847.648	-38.23
847.824	-32.08
847.999	-114
848.175	-3.41
848.35	27.31
848.526	84.65
848.701	-25.94
848.876	88.75
849.052	127.66
849.227	-36.18
849.403	55.98
849.578	6.83
849.753	-1.37
849.929	-97.62
850.104	-99.67
850.279	27.31
850.454	62.12
850.63	33.45
850.805	-56.66
850.98	19.11
851.155	23.21
851.33	19.11
851.505	-79.19
851.681	117.42
851.856	4.78
852.031	31.4
852.206	21.16
852.381	-56.66
852.556	12.97
852.731	55.98
852.906	60.07
853.081	-5.46
853.256	76.46
853.431	-30.04
853.606	-60.76
853.781	-68.95
853.956	-116.05
854.131	58.03
854.305	-17.75
854.48	-5.46
854.655	-103.76
854.83	-103.76
855.005	-54.61
855.18	111.27
855.354	-77.14
855.529	49.83
855.704	-17.75
855.879	45.74
856.053	-56.66
856.228	39.59
856.403	-54.61
856.577	6.83
856.752	-173.39
856.926	-79.19
857.101	80.55
857.276	-99.67
857.45	113.32
857.625	47.79
857.799	-42.32
857.974	33.45
858.148	-136.53
858.323	29.35
858.497	47.79
858.672	-44.37
858.846	-7.51
859.02	-15.7
859.195	-25.94
859.369	-46.42
859.543	2.73
859.718	-3.41
859.892	115.37
860.066	19.11
860.241	-34.13
860.415	-64.85
860.589	60.07
860.763	29.35
860.938	-48.47
861.112	49.83
861.286	-54.61
861.46	-11.61
861.634	43.69
861.808	74.41
861.982	10.92
862.157	-46.42
862.331	-19.8
862.505	-81.24
862.679	-124.24
862.853	47.79
863.027	-23.89
863.201	156.33
863.375	-58.71
863.549	-25.94
863.722	-62.8
863.896	109.22
864.07	-79.19
864.244	8.87
864.418	84.65
864.592	-38.23
864.766	-75.09
864.939	-9.56
865.113	-46.42
865.287	15.02
865.461	-30.04
865.634	-32.08
865.808	-38.23
865.982	-40.28
866.156	-89.43
866.329	-163.15
866.503	-3.41
866.676	8.87
866.85	6.83
867.024	25.26
867.197	-1.37
867.371	2.73
867.544	76.46
867.718	-109.91
867.891	90.79
868.065	-105.81
868.238	49.83
868.412	58.03
868.585	-11.61
868.759	-73.04
868.932	-50.52
869.105	-136.53
869.279	29.35
869.452	-58.71
869.625	-36.18
869.799	-15.7
869.972	-62.8
870.145	58.03
870.319	27.31
870.492	-81.24
870.665	-5.46
870.838	-62.8
871.011	-206.16
871.185	-19.8
871.358	-62.8
871.531	10.92
871.704	-107.86
871.877	-9.56
872.05	-38.23
872.223	-101.72
872.396	-7.51
872.569	37.55
872.742	-120.15
872.915	45.74
873.088	-23.89
873.261	-36.18
873.434	12.97
873.607	-56.66
873.78	121.51
873.953	-128.34
874.126	41.64
874.299	45.74
874.471	17.07
874.644	-58.71
874.817	49.83
874.99	119.46
875.163	-23.89
875.335	105.13
875.508	-30.04
875.681	55.98
875.853	15.02
876.026	-56.66
876.199	10.92
876.371	31.4
876.544	-46.42
876.717	2.73
876.889	15.02
877.062	2.73
877.234	-150.87
877.407	-13.65
877.579	8.87
877.752	21.16
877.924	86.7
878.097	41.64
878.269	2.73
878.442	41.64
878.614	101.03
878.786	49.83
878.959	-1.37
879.131	-15.7
879.303	-111.96
879.476	-64.85
879.648	39.59
879.82	0.68
879.993	-64.85
880.165	-56.66
880.337	0.68
880.509	33.45
880.681	-87.38
880.854	-56.66
881.026	-27.99
881.198	236.2
881.37	12.97
881.542	-19.8
881.714	-118.1
881.886	-99.67
882.058	29.35
882.23	-48.47
882.402	4.78
882.574	33.45
882.746	78.51
882.918	127.66
883.09	39.59
883.262	-34.13
883.434	6.83
883.606	-111.96
883.778	0.68
883.95	2.73
884.122	-81.24
884.293	76.46
884.465	25.26
884.637	76.46
884.809	-36.18
884.98	74.41
885.152	58.03
885.324	10.92
885.496	-42.32
885.667	-5.46
885.839	-25.94
886.011	174.76
886.182	66.22
886.354	55.98
886.525	-36.18
886.697	0.68
886.869	-38.23
887.04	-60.76
887.212	162.47
887.383	70.31
887.555	29.35
887.726	-19.8
887.897	-32.08
888.069	-66.9
888.24	37.55
888.412	-27.99
888.583	-30.04
888.754	-75.09
888.926	-136.53
889.097	-118.1
889.268	-89.43
889.44	53.93
889.611	-91.48
889.782	-140.63
889.953	-60.76
890.125	146.09
890.296	-34.13
890.467	25.26
890.638	-58.71
890.809	-83.28
890.98	4.78
891.151	39.59
891.323	62.12
891.494	37.55
891.665	-83.28
891.836	-25.94
892.007	23.21
892.178	66.22
892.349	-9.56
892.52	0.68
892.691	17.07
892.862	4.78
893.032	-136.53
893.203	-54.61
893.374	-62.8
893.545	51.88
893.716	-111.96
893.887	68.27
894.057	-87.38
894.228	8.87
894.399	29.35
894.57	66.22
894.74	-21.85
894.911	-66.9
895.082	29.35
895.253	-13.65
895.423	-38.23
895.594	0.68
895.764	33.45
895.935	-114
896.106	33.45
896.276	-62.8
896.447	12.97
896.617	-62.8
896.788	-30.04
896.958	-58.71
897.129	-15.7
897.299	-73.04
897.47	68.27
897.64	60.07
897.81	-34.13
897.981	37.55
898.151	-114
898.322	-13.65
898.492	-46.42
898.662	-46.42
898.832	-27.99
899.003	8.87
899.173	-11.61
899.343	-1.37
899.513	-71
