Data from USB4F104151__271__11-20-42-231.txt Node

Date: Wed Feb 26 11:20:42 EST 2025
User: louis
Spectrometer: USB4F10415
Trigger mode: 4
Integration Time (sec): 1.000000E-1
Scans to average: 1
Electric dark correction enabled: true
Nonlinearity correction enabled: false
Boxcar width: 0
XAxis mode: Wavelengths
Number of Pixels in Spectrum: 3648
>>>>>Begin Spectral Data<<<<<
178.204	-406.52
178.424	-406.52
178.644	-406.52
178.864	-408.57
179.084	-390.14
179.304	33.79
179.524	-15.36
179.744	-23.55
179.964	52.22
180.184	9.22
180.404	11.26
180.624	-64.51
180.844	-50.18
181.064	-76.8
181.283	27.65
181.503	-21.5
181.723	117.76
181.943	-109.57
182.163	183.29
182.383	1.02
182.602	13.31
182.822	64.51
183.042	142.33
183.262	-70.65
183.482	-29.7
183.701	76.8
183.921	19.46
184.141	-1.02
184.361	70.65
184.58	46.08
184.8	41.98
185.02	87.04
185.239	48.13
185.459	111.61
185.679	87.04
185.898	-58.37
186.118	31.74
186.338	78.85
186.557	101.37
186.777	11.26
186.997	46.08
187.216	25.6
187.436	160.77
187.655	70.65
187.875	111.61
188.095	7.17
188.314	187.39
188.534	123.9
188.753	-60.42
188.973	128
189.192	91.13
189.412	-15.36
189.631	48.13
189.851	87.04
190.07	134.14
190.29	56.32
190.509	-23.55
190.729	44.03
190.948	109.57
191.168	201.72
191.387	60.42
191.607	7.17
191.826	58.37
192.045	21.5
192.265	25.6
192.484	103.42
192.704	5.12
192.923	-50.18
193.142	148.48
193.362	130.05
193.581	107.52
193.8	74.75
194.02	89.09
194.239	44.03
194.458	123.9
194.678	-5.12
194.897	19.46
195.116	123.9
195.335	37.89
195.555	80.89
195.774	31.74
195.993	134.14
196.212	19.46
196.432	21.5
196.651	21.5
196.87	-19.46
197.089	330.75
197.308	21.5
197.528	58.37
197.747	-31.74
197.966	80.89
198.185	168.96
198.404	-31.74
198.623	74.75
198.842	107.52
199.062	130.05
199.281	162.81
199.5	76.8
199.719	103.42
199.938	19.46
200.157	64.51
200.376	103.42
200.595	146.43
200.814	87.04
201.033	25.6
201.252	201.72
201.471	11.26
201.69	72.7
201.909	113.66
202.128	82.94
202.347	181.25
202.566	54.27
202.785	-109.57
203.004	-56.32
203.223	152.57
203.442	66.56
203.661	-48.13
203.879	50.18
204.098	197.63
204.317	7.17
204.536	103.42
204.755	44.03
204.974	87.04
205.193	39.94
205.411	207.87
205.63	160.77
205.849	-56.32
206.068	13.31
206.287	54.27
206.505	13.31
206.724	82.94
206.943	1.02
207.162	11.26
207.381	144.38
207.599	125.95
207.818	44.03
208.037	-31.74
208.255	39.94
208.474	19.46
208.693	56.32
208.911	72.7
209.13	175.1
209.349	107.52
209.567	134.14
209.786	156.67
210.005	72.7
210.223	25.6
210.442	-56.32
210.661	62.46
210.879	-15.36
211.098	64.51
211.316	52.22
211.535	89.09
211.753	70.65
211.972	76.8
212.191	78.85
212.409	-33.79
212.628	154.62
212.846	7.17
213.065	33.79
213.283	80.89
213.502	33.79
213.72	72.7
213.938	-3.07
214.157	3.07
214.375	31.74
214.594	76.8
214.812	132.09
215.031	68.61
215.249	-3.07
215.467	58.37
215.686	84.99
215.904	33.79
216.122	76.8
216.341	132.09
216.559	3.07
216.778	23.55
216.996	132.09
217.214	48.13
217.432	48.13
217.651	-46.08
217.869	35.84
218.087	64.51
218.306	27.65
218.524	87.04
218.742	54.27
218.96	82.94
219.179	3.07
219.397	29.7
219.615	242.68
219.833	128
220.051	-15.36
220.27	111.61
220.488	72.7
220.706	115.71
220.924	11.26
221.142	-37.89
221.36	70.65
221.578	58.37
221.796	103.42
222.015	17.41
222.233	25.6
222.451	211.96
222.669	5.12
222.887	138.24
223.105	-48.13
223.323	31.74
223.541	37.89
223.759	103.42
223.977	70.65
224.195	146.43
224.413	117.76
224.631	78.85
224.849	62.46
225.067	175.1
225.285	-109.57
225.503	-3.07
225.721	-123.9
225.939	39.94
226.157	7.17
226.375	211.96
226.592	1.02
226.81	9.22
227.028	150.53
227.246	89.09
227.464	13.31
227.682	107.52
227.9	78.85
228.117	48.13
228.335	74.75
228.553	74.75
228.771	136.19
228.989	101.37
229.206	54.27
229.424	-31.74
229.642	39.94
229.86	21.5
230.077	166.91
230.295	-82.94
230.513	115.71
230.731	89.09
230.948	201.72
231.166	191.49
231.384	29.7
231.601	-25.6
231.819	183.29
232.037	-13.31
232.254	-50.18
232.472	56.32
232.689	52.22
232.907	152.57
233.125	-7.17
233.342	-50.18
233.56	64.51
233.777	-11.26
233.995	39.94
234.213	95.23
234.43	134.14
234.648	50.18
234.865	41.98
235.083	91.13
235.3	64.51
235.518	89.09
235.735	179.2
235.953	58.37
236.17	23.55
236.388	29.7
236.605	107.52
236.822	93.18
237.04	132.09
237.257	41.98
237.475	-35.84
237.692	41.98
237.909	150.53
238.127	121.85
238.344	52.22
238.562	37.89
238.779	-19.46
238.996	-68.61
239.214	9.22
239.431	142.33
239.648	44.03
239.865	35.84
240.083	44.03
240.3	-19.46
240.517	56.32
240.735	54.27
240.952	107.52
241.169	17.41
241.386	93.18
241.603	66.56
241.821	-46.08
242.038	117.76
242.255	87.04
242.472	-37.89
242.689	93.18
242.907	56.32
243.124	50.18
243.341	46.08
243.558	23.55
243.775	-68.61
243.992	-97.28
244.209	105.47
244.426	240.64
244.643	29.7
244.86	5.12
245.078	15.36
245.295	109.57
245.512	29.7
245.729	-1.02
245.946	27.65
246.163	84.99
246.38	78.85
246.597	41.98
246.814	41.98
247.031	82.94
247.248	-17.41
247.464	82.94
247.681	93.18
247.898	103.42
248.115	-1.02
248.332	-37.89
248.549	128
248.766	203.77
248.983	109.57
249.2	125.95
249.417	91.13
249.633	-15.36
249.85	123.9
250.067	91.13
250.284	64.51
250.501	76.8
250.717	103.42
250.934	-35.84
251.151	-46.08
251.368	80.89
251.585	93.18
251.801	95.23
252.018	21.5
252.235	156.67
252.451	-41.98
252.668	58.37
252.885	93.18
253.102	84.99
253.318	25.6
253.535	15.36
253.752	35.84
253.968	64.51
254.185	-84.99
254.401	37.89
254.618	84.99
254.835	50.18
255.051	97.28
255.268	142.33
255.484	54.27
255.701	-37.89
255.917	35.84
256.134	5.12
256.351	41.98
256.567	-80.89
256.784	23.55
257	5.12
257.217	150.53
257.433	111.61
257.65	82.94
257.866	123.9
258.082	-48.13
258.299	-35.84
258.515	128
258.732	-15.36
258.948	25.6
259.165	29.7
259.381	19.46
259.597	80.89
259.814	64.51
260.03	23.55
260.246	107.52
260.463	173.05
260.679	111.61
260.895	37.89
261.112	-11.26
261.328	111.61
261.544	-41.98
261.761	136.19
261.977	-58.37
262.193	-29.7
262.409	74.75
262.626	103.42
262.842	76.8
263.058	11.26
263.274	66.56
263.49	132.09
263.707	136.19
263.923	37.89
264.139	-68.61
264.355	82.94
264.571	156.67
264.787	60.42
265.004	62.46
265.22	23.55
265.436	56.32
265.652	76.8
265.868	44.03
266.084	13.31
266.3	3.07
266.516	-11.26
266.732	13.31
266.948	35.84
267.164	37.89
267.38	107.52
267.596	50.18
267.812	183.29
268.028	13.31
268.244	107.52
268.46	60.42
268.676	15.36
268.892	101.37
269.108	35.84
269.324	-15.36
269.54	-9.22
269.756	113.66
269.972	-27.65
270.188	48.13
270.403	-7.17
270.619	60.42
270.835	138.24
271.051	15.36
271.267	19.46
271.483	-29.7
271.698	156.67
271.914	-46.08
272.13	23.55
272.346	60.42
272.562	48.13
272.777	211.96
272.993	-15.36
273.209	11.26
273.425	193.53
273.64	-64.51
273.856	119.81
274.072	-25.6
274.287	-1.02
274.503	113.66
274.719	82.94
274.934	17.41
275.15	-41.98
275.366	97.28
275.581	21.5
275.797	56.32
276.012	54.27
276.228	48.13
276.444	130.05
276.659	179.2
276.875	-97.28
277.09	15.36
277.306	-5.12
277.521	19.46
277.737	52.22
277.952	123.9
278.168	140.29
278.383	21.5
278.599	89.09
278.814	97.28
279.03	70.65
279.245	160.77
279.461	-9.22
279.676	113.66
279.892	-111.61
280.107	15.36
280.322	7.17
280.538	58.37
280.753	56.32
280.969	119.81
281.184	70.65
281.399	154.62
281.615	136.19
281.83	74.75
282.045	-101.37
282.26	11.26
282.476	-23.55
282.691	91.13
282.906	54.27
283.122	25.6
283.337	-84.99
283.552	48.13
283.767	76.8
283.983	109.57
284.198	-1.02
284.413	93.18
284.628	-66.56
284.843	46.08
285.058	97.28
285.274	19.46
285.489	31.74
285.704	84.99
285.919	-1.02
286.134	33.79
286.349	50.18
286.564	13.31
286.779	175.1
286.995	5.12
287.21	-123.9
287.425	39.94
287.64	-15.36
287.855	99.33
288.07	-60.42
288.285	162.81
288.5	115.71
288.715	128
288.93	-3.07
289.145	-68.61
289.36	60.42
289.575	-58.37
289.79	136.19
290.004	-29.7
290.219	115.71
290.434	-17.41
290.649	-25.6
290.864	-15.36
291.079	70.65
291.294	58.37
291.509	50.18
291.724	-31.74
291.938	9.22
292.153	48.13
292.368	52.22
292.583	128
292.798	72.7
293.012	58.37
293.227	78.85
293.442	-19.46
293.657	111.61
293.871	95.23
294.086	107.52
294.301	185.34
294.516	89.09
294.73	15.36
294.945	-39.94
295.16	37.89
295.374	140.29
295.589	82.94
295.804	-21.5
296.018	15.36
296.233	80.89
296.447	121.85
296.662	39.94
296.877	113.66
297.091	82.94
297.306	13.31
297.52	62.46
297.735	66.56
297.949	44.03
298.164	76.8
298.378	105.47
298.593	-35.84
298.807	48.13
299.022	113.66
299.236	183.29
299.451	15.36
299.665	-84.99
299.88	50.18
300.094	58.37
300.309	25.6
300.523	5.12
300.737	-31.74
300.952	39.94
301.166	84.99
301.381	-31.74
301.595	-37.89
301.809	78.85
302.024	64.51
302.238	-7.17
302.452	109.57
302.667	50.18
302.881	195.58
303.095	68.61
303.309	44.03
303.524	-37.89
303.738	68.61
303.952	37.89
304.166	68.61
304.381	-76.8
304.595	224.25
304.809	-33.79
305.023	39.94
305.237	48.13
305.452	21.5
305.666	68.61
305.88	107.52
306.094	74.75
306.308	66.56
306.522	50.18
306.736	13.31
306.95	91.13
307.164	3.07
307.379	35.84
307.593	236.54
307.807	136.19
308.021	70.65
308.235	150.53
308.449	-103.42
308.663	-56.32
308.877	189.44
309.091	-23.55
309.305	48.13
309.519	-80.89
309.733	158.72
309.947	-76.8
310.161	117.76
310.374	138.24
310.588	130.05
310.802	41.98
311.016	-15.36
311.23	27.65
311.444	17.41
311.658	39.94
311.872	134.14
312.085	111.61
312.299	177.15
312.513	130.05
312.727	23.55
312.941	23.55
313.154	80.89
313.368	46.08
313.582	27.65
313.796	87.04
314.009	35.84
314.223	142.33
314.437	101.37
314.651	50.18
314.864	-31.74
315.078	-52.22
315.292	-52.22
315.505	-1.02
315.719	142.33
315.933	82.94
316.146	62.46
316.36	-62.46
316.573	109.57
316.787	76.8
317.001	25.6
317.214	-35.84
317.428	68.61
317.641	70.65
317.855	35.84
318.068	68.61
318.282	19.46
318.495	171.01
318.709	144.38
318.922	11.26
319.136	125.95
319.349	87.04
319.563	-29.7
319.776	80.89
319.99	-64.51
320.203	156.67
320.417	56.32
320.63	109.57
320.843	152.57
321.057	13.31
321.27	-3.07
321.483	97.28
321.697	177.15
321.91	144.38
322.124	113.66
322.337	82.94
322.55	-50.18
322.763	87.04
322.977	84.99
323.19	58.37
323.403	95.23
323.617	117.76
323.83	113.66
324.043	41.98
324.256	82.94
324.469	-70.65
324.683	142.33
324.896	13.31
325.109	58.37
325.322	-17.41
325.535	68.61
325.748	117.76
325.962	37.89
326.175	97.28
326.388	87.04
326.601	39.94
326.814	-21.5
327.027	66.56
327.24	207.87
327.453	-17.41
327.666	64.51
327.879	93.18
328.092	105.47
328.305	35.84
328.518	-13.31
328.731	62.46
328.944	-66.56
329.157	54.27
329.37	-33.79
329.583	226.3
329.796	109.57
330.009	-84.99
330.222	132.09
330.435	46.08
330.648	64.51
330.861	19.46
331.073	107.52
331.286	191.49
331.499	84.99
331.712	1.02
331.925	25.6
332.138	89.09
332.35	95.23
332.563	-35.84
332.776	146.43
332.989	-33.79
333.202	15.36
333.414	74.75
333.627	25.6
333.84	74.75
334.053	50.18
334.265	-9.22
334.478	64.51
334.691	50.18
334.903	76.8
335.116	-48.13
335.329	37.89
335.541	66.56
335.754	160.77
335.966	7.17
336.179	37.89
336.392	-17.41
336.604	44.03
336.817	132.09
337.029	56.32
337.242	78.85
337.454	62.46
337.667	-41.98
337.88	144.38
338.092	70.65
338.305	35.84
338.517	7.17
338.729	97.28
338.942	189.44
339.154	-56.32
339.367	-23.55
339.579	128
339.792	-7.17
340.004	62.46
340.217	7.17
340.429	37.89
340.641	-80.89
340.854	99.33
341.066	54.27
341.278	78.85
341.491	240.64
341.703	82.94
341.915	23.55
342.128	84.99
342.34	148.48
342.552	50.18
342.764	35.84
342.977	66.56
343.189	62.46
343.401	31.74
343.613	-35.84
343.826	64.51
344.038	-68.61
344.25	-17.41
344.462	13.31
344.674	175.1
344.886	7.17
345.099	60.42
345.311	107.52
345.523	29.7
345.735	-19.46
345.947	87.04
346.159	123.9
346.371	72.7
346.583	-33.79
346.795	240.64
347.007	21.5
347.219	78.85
347.431	52.22
347.643	109.57
347.855	-52.22
348.067	130.05
348.279	11.26
348.491	60.42
348.703	144.38
348.915	70.65
349.127	66.56
349.339	37.89
349.551	31.74
349.763	142.33
349.975	41.98
350.187	119.81
350.399	130.05
350.61	160.77
350.822	-23.55
351.034	107.52
351.246	64.51
351.458	76.8
351.669	128
351.881	138.24
352.093	66.56
352.305	128
352.517	35.84
352.728	146.43
352.94	-44.03
353.152	56.32
353.363	-1.02
353.575	80.89
353.787	134.14
353.999	68.61
354.21	58.37
354.422	44.03
354.633	33.79
354.845	160.77
355.057	72.7
355.268	56.32
355.48	54.27
355.692	-48.13
355.903	109.57
356.115	5.12
356.326	-132.09
356.538	205.82
356.749	70.65
356.961	130.05
357.172	93.18
357.384	-89.09
357.595	189.44
357.807	-78.85
358.018	7.17
358.23	37.89
358.441	146.43
358.653	-29.7
358.864	101.37
359.075	7.17
359.287	56.32
359.498	99.33
359.709	29.7
359.921	50.18
360.132	62.46
360.344	31.74
360.555	105.47
360.766	33.79
360.977	21.5
361.189	232.44
361.4	23.55
361.611	162.81
361.823	89.09
362.034	17.41
362.245	-74.75
362.456	5.12
362.667	107.52
362.879	-76.8
363.09	44.03
363.301	31.74
363.512	115.71
363.723	25.6
363.935	41.98
364.146	140.29
364.357	21.5
364.568	64.51
364.779	15.36
364.99	144.38
365.201	21.5
365.412	160.77
365.623	23.55
365.834	76.8
366.045	33.79
366.256	87.04
366.467	123.9
366.678	23.55
366.889	29.7
367.1	-13.31
367.311	78.85
367.522	-3.07
367.733	111.61
367.944	54.27
368.155	48.13
368.366	99.33
368.577	101.37
368.788	125.95
368.999	46.08
369.209	44.03
369.42	160.77
369.631	246.78
369.842	181.25
370.053	37.89
370.264	39.94
370.474	-11.26
370.685	50.18
370.896	44.03
371.107	150.53
371.317	25.6
371.528	27.65
371.739	162.81
371.95	111.61
372.16	138.24
372.371	-33.79
372.582	-33.79
372.792	140.29
373.003	7.17
373.214	48.13
373.424	138.24
373.635	-13.31
373.846	191.49
374.056	123.9
374.267	-50.18
374.477	136.19
374.688	-27.65
374.898	80.89
375.109	58.37
375.319	95.23
375.53	138.24
375.74	128
375.951	48.13
376.161	52.22
376.372	56.32
376.582	27.65
376.793	105.47
377.003	-46.08
377.214	9.22
377.424	78.85
377.635	41.98
377.845	-35.84
378.055	138.24
378.266	-119.81
378.476	17.41
378.686	87.04
378.897	99.33
379.107	117.76
379.317	62.46
379.528	29.7
379.738	226.3
379.948	-50.18
380.158	72.7
380.369	97.28
380.579	78.85
380.789	121.85
380.999	72.7
381.21	123.9
381.42	205.82
381.63	35.84
381.84	123.9
382.05	95.23
382.261	130.05
382.471	168.96
382.681	62.46
382.891	84.99
383.101	35.84
383.311	46.08
383.521	19.46
383.731	76.8
383.941	148.48
384.151	68.61
384.361	5.12
384.571	128
384.781	70.65
384.991	211.96
385.201	199.68
385.411	50.18
385.621	64.51
385.831	82.94
386.041	23.55
386.251	74.75
386.461	154.62
386.671	31.74
386.881	33.79
387.091	-11.26
387.301	125.95
387.511	50.18
387.72	17.41
387.93	152.57
388.14	-48.13
388.35	70.65
388.56	130.05
388.769	187.39
388.979	87.04
389.189	64.51
389.399	52.22
389.609	154.62
389.818	87.04
390.028	93.18
390.238	89.09
390.447	13.31
390.657	89.09
390.867	9.22
391.076	-82.94
391.286	48.13
391.496	82.94
391.705	29.7
391.915	173.05
392.125	99.33
392.334	11.26
392.544	144.38
392.753	103.42
392.963	-56.32
393.172	13.31
393.382	125.95
393.591	257.02
393.801	-9.22
394.01	125.95
394.22	154.62
394.429	-7.17
394.639	52.22
394.848	17.41
395.058	132.09
395.267	19.46
395.477	115.71
395.686	62.46
395.895	205.82
396.105	152.57
396.314	64.51
396.524	5.12
396.733	41.98
396.942	158.72
397.152	109.57
397.361	128
397.57	142.33
397.78	-58.37
397.989	123.9
398.198	207.87
398.407	66.56
398.617	-7.17
398.826	50.18
399.035	54.27
399.244	138.24
399.453	70.65
399.663	-3.07
399.872	80.89
400.081	-48.13
400.29	175.1
400.499	11.26
400.708	173.05
400.917	41.98
401.127	9.22
401.336	-29.7
401.545	218.11
401.754	136.19
401.963	97.28
402.172	58.37
402.381	-54.27
402.59	52.22
402.799	117.76
403.008	56.32
403.217	19.46
403.426	80.89
403.635	-119.81
403.844	-3.07
404.053	25.6
404.262	76.8
404.471	150.53
404.68	97.28
404.888	74.75
405.097	37.89
405.306	78.85
405.515	87.04
405.724	3.07
405.933	189.44
406.142	78.85
406.35	109.57
406.559	70.65
406.768	109.57
406.977	146.43
407.185	21.5
407.394	87.04
407.603	-31.74
407.812	78.85
408.02	136.19
408.229	15.36
408.438	123.9
408.646	-68.61
408.855	31.74
409.064	111.61
409.272	-7.17
409.481	66.56
409.69	-5.12
409.898	-41.98
410.107	41.98
410.315	80.89
410.524	52.22
410.733	58.37
410.941	50.18
411.15	128
411.358	76.8
411.567	105.47
411.775	105.47
411.984	29.7
412.192	115.71
412.401	11.26
412.609	123.9
412.818	173.05
413.026	130.05
413.234	56.32
413.443	103.42
413.651	52.22
413.86	21.5
414.068	93.18
414.276	224.25
414.485	23.55
414.693	130.05
414.901	156.67
415.11	70.65
415.318	-44.03
415.526	177.15
415.734	117.76
415.943	103.42
416.151	177.15
416.359	115.71
416.567	113.66
416.776	130.05
416.984	168.96
417.192	164.86
417.4	3.07
417.608	76.8
417.817	-23.55
418.025	136.19
418.233	177.15
418.441	58.37
418.649	-56.32
418.857	39.94
419.065	189.44
419.273	31.74
419.481	97.28
419.689	76.8
419.897	9.22
420.105	-52.22
420.313	140.29
420.521	136.19
420.729	211.96
420.937	56.32
421.145	1.02
421.353	193.53
421.561	232.44
421.769	87.04
421.977	31.74
422.185	113.66
422.393	35.84
422.601	97.28
422.809	125.95
423.017	17.41
423.224	64.51
423.432	119.81
423.64	72.7
423.848	111.61
424.056	19.46
424.263	91.13
424.471	39.94
424.679	152.57
424.887	95.23
425.094	128
425.302	162.81
425.51	66.56
425.718	168.96
425.925	128
426.133	5.12
426.341	238.59
426.548	50.18
426.756	35.84
426.964	101.37
427.171	78.85
427.379	91.13
427.586	52.22
427.794	115.71
428.001	136.19
428.209	128
428.417	197.63
428.624	89.09
428.832	91.13
429.039	46.08
429.247	111.61
429.454	123.9
429.662	238.59
429.869	123.9
430.076	119.81
430.284	148.48
430.491	226.3
430.699	130.05
430.906	177.15
431.114	99.33
431.321	132.09
431.528	78.85
431.736	189.44
431.943	214.01
432.15	150.53
432.358	214.01
432.565	293.88
432.772	7.17
432.979	160.77
433.187	95.23
433.394	230.4
433.601	132.09
433.808	189.44
434.016	195.58
434.223	244.73
434.43	195.58
434.637	214.01
434.844	273.4
435.052	250.88
435.259	246.78
435.466	306.17
435.673	236.54
435.88	283.64
436.087	269.31
436.294	332.79
436.501	234.49
436.708	265.21
436.915	257.02
437.122	396.28
437.329	226.3
437.537	312.32
437.743	326.65
437.95	349.18
438.157	420.86
438.364	326.65
438.571	326.65
438.778	406.52
438.985	396.28
439.192	381.95
439.399	381.95
439.606	398.33
439.813	478.2
440.02	623.61
440.227	590.84
440.433	498.68
440.64	474.1
440.847	343.03
441.054	504.82
441.261	707.57
441.467	603.13
441.674	461.82
441.881	670.71
442.088	486.39
442.294	691.19
442.501	685.05
442.708	691.19
442.914	617.46
443.121	766.96
443.328	723.96
443.534	857.07
443.741	861.17
443.948	771.06
444.154	850.93
444.361	1086.45
444.568	869.36
444.774	996.34
444.981	842.74
445.187	1020.91
445.394	979.95
445.6	1123.31
445.807	1147.89
446.013	1174.51
446.22	1092.59
446.426	1194.99
446.633	1338.35
446.839	1504.23
447.046	1248.24
447.252	1545.19
447.459	1498.09
447.665	1407.98
447.871	1637.35
448.078	1747.94
448.284	1604.58
448.491	1809.38
448.697	1823.72
448.903	2016.23
449.11	1997.79
449.316	1909.73
449.522	2102.24
449.728	2139.1
449.935	2163.68
450.141	2184.16
450.347	2438.11
450.553	2436.06
450.76	2534.36
450.966	2630.62
451.172	2665.43
451.378	2946
451.584	2780.12
451.791	3105.74
451.997	3085.26
452.203	3075.03
452.409	3519.43
452.615	3646.41
452.821	3509.19
453.027	3412.94
453.233	3769.29
453.44	3695.56
453.646	3904.45
453.852	4047.81
454.058	4205.5
454.264	4344.77
454.47	4670.39
454.676	4551.61
454.882	5084.08
455.088	4965.3
455.294	5082.03
455.5	5456.81
455.705	5610.41
455.911	5792.68
456.117	5940.13
456.323	6081.44
456.529	6079.4
456.735	6618.01
456.941	6792.09
457.147	7060.37
457.352	7373.71
457.558	7381.9
457.764	8022.92
457.97	8252.29
458.176	8489.85
458.381	9126.77
458.587	9073.53
458.793	9630.57
458.999	9540.46
459.204	10724.19
459.41	11086.68
459.616	10883.93
459.821	11463.51
460.027	12012.36
460.233	12616.51
460.438	12571.46
460.644	13466.42
460.85	13536.05
461.055	13984.55
461.261	14662.43
461.466	14439.2
461.672	14873.37
461.878	16345.86
462.083	15966.99
462.289	16524.04
462.494	17269.5
462.7	17263.35
462.905	17650.42
463.111	19065.57
463.316	20021.97
463.522	20366.03
463.727	21101.25
463.932	21854.9
464.138	22555.3
464.343	23480.99
464.549	23655.06
464.754	25367.16
464.959	25944.69
465.165	26307.18
465.37	26331.76
465.575	26139.25
465.781	27906.65
465.986	28799.56
466.191	27990.61
466.397	28842.57
466.602	27937.37
466.807	29194.82
467.012	29936.18
467.218	30571.05
467.423	30487.09
467.628	31908.38
467.833	33096.2
468.038	32762.38
468.244	32012.82
468.449	33288.71
468.654	32725.52
468.859	33331.72
469.064	32934.41
469.269	32264.72
469.474	32555.54
469.679	33556.99
469.885	32559.63
470.09	32674.32
470.295	33202.69
470.5	32369.17
470.705	32580.11
470.91	31601.18
471.115	31058.47
471.32	32203.28
471.525	31623.71
471.73	30999.08
471.935	30411.31
472.139	29213.25
472.344	29393.47
472.549	29260.35
472.754	28639.82
472.959	28176.98
473.164	27173.47
473.369	26874.47
473.574	27626.07
473.778	26935.91
473.983	26251.89
474.188	25922.16
474.393	24851.08
474.598	24597.13
474.802	23984.79
475.007	23997.07
475.212	23736.98
475.417	22409.9
475.621	22338.22
475.826	22413.99
476.031	21895.86
476.235	21383.87
476.44	21193.4
476.645	20742.85
476.849	20447.94
477.054	20251.34
477.259	19737.3
477.463	19432.15
477.668	19346.14
477.872	19589.85
478.077	18567.91
478.282	18283.24
478.486	17965.81
478.691	17705.71
478.895	17754.87
479.1	17488.63
479.304	17584.88
479.509	16802.56
479.713	16896.77
479.918	16569.09
480.122	16386.82
480.326	16476.93
480.531	16624.39
480.735	15997.71
480.94	15852.3
481.144	16380.68
481.348	15514.39
481.553	15637.27
481.757	15364.89
481.961	15225.62
482.166	15237.91
482.37	15506.2
482.574	15014.68
482.778	14531.36
482.983	15063.83
483.187	14521.12
483.391	14670.62
483.595	14218.02
483.8	14318.37
484.004	14271.27
484.208	14273.32
484.412	13976.36
484.616	14011.18
484.821	13720.37
485.025	13466.42
485.229	13398.84
485.433	13091.64
485.637	13226.81
485.841	12849.98
486.045	12675.9
486.249	12800.83
486.453	12049.22
486.657	12190.53
486.861	11965.26
487.065	11543.38
487.269	11719.5
487.473	11342.67
487.677	11498.32
487.881	11529.04
488.085	10949.46
488.289	11019.1
488.493	10718.04
488.697	10562.4
488.901	10175.33
489.105	10144.61
489.309	9980.78
489.512	9841.51
489.716	9806.7
489.92	9450.35
490.124	9180.02
490.328	9393.01
490.531	9085.81
490.735	8840.06
490.939	8596.35
491.143	8440.7
491.346	8524.67
491.55	8405.89
491.754	8139.65
491.958	8059.78
492.161	8033.16
492.365	7869.32
492.569	7529.36
492.772	7566.22
492.976	7396.24
493.18	7177.11
493.383	7265.17
493.587	7115.67
493.79	7242.64
493.994	6849.43
494.197	6865.82
494.401	6921.11
494.605	6826.9
494.808	6898.58
495.012	6591.39
495.215	6892.44
495.419	6624.15
495.622	6427.55
495.825	6509.47
496.029	6448.03
496.232	6579.1
496.436	6380.45
496.639	6667.16
496.843	6372.25
497.046	6321.06
497.249	6310.82
497.453	6501.28
497.656	6329.25
497.859	6427.55
498.063	6405.02
498.266	6484.89
498.469	6372.25
498.673	6398.88
498.876	6435.74
499.079	6339.49
499.282	6284.19
499.485	6570.91
499.689	6589.34
499.892	6718.36
500.095	6648.73
500.298	6708.12
500.501	6597.53
500.705	6798.23
500.908	6763.42
501.111	6939.54
501.314	6898.58
501.517	7160.72
501.72	7201.68
501.923	7097.24
502.126	7351.18
502.329	7465.87
502.532	7312.27
502.735	7478.16
502.938	7639.95
503.141	7791.5
503.344	7693.19
503.547	7865.22
503.75	7879.56
503.953	7992.2
504.156	8035.21
504.359	8268.67
504.562	8469.37
504.765	8602.49
504.968	8795
505.17	8774.52
505.373	8911.74
505.576	9073.53
505.779	9149.3
505.982	9263.99
506.185	9593.71
506.387	9544.56
506.59	9782.12
506.793	9984.87
506.996	9970.54
507.198	10507.1
507.401	10476.38
507.604	10658.65
507.807	11076.44
508.009	11207.51
508.212	11563.86
508.415	11547.47
508.617	11744.08
508.82	11897.67
509.022	12069.7
509.225	12593.98
509.428	12639.04
509.63	12995.39
509.833	13259.57
510.035	13894.44
510.238	13939.5
510.44	14310.18
510.643	14699.3
510.845	14816.03
511.048	15016.73
511.25	15397.65
511.453	15749.9
511.655	16577.28
511.858	16521.99
512.06	16847.61
512.262	17363.7
512.465	17369.85
512.667	17828.59
512.87	18311.91
513.072	18434.79
513.274	19227.35
513.477	19751.63
513.679	19935.95
513.881	20411.08
514.084	21058.24
514.286	21324.47
514.488	21916.34
514.69	22491.82
514.893	22973.09
515.095	23263.9
515.297	23773.85
515.499	24167.06
515.701	24590.98
515.904	25414.27
516.106	25662.07
516.308	26319.47
516.51	26917.48
516.712	27380.32
516.914	27824.73
517.116	28559.95
517.318	29047.36
517.52	29358.66
517.722	29817.4
517.925	30558.77
518.127	31009.32
518.329	31988.25
518.531	31443.49
518.733	32825.87
518.935	33417.73
519.136	33899
519.338	34593.26
519.54	34922.99
519.742	35688.93
519.944	35946.97
520.146	36440.53
520.348	37286.34
520.55	37308.87
520.752	37900.73
520.954	38496.69
521.155	38457.78
521.357	39135.66
521.559	39504.29
521.761	40796.56
521.963	40380.82
522.164	40974.73
522.366	40749.46
522.568	41818.5
522.77	41965.95
522.971	43047.28
523.173	42092.93
523.375	42779
523.576	43041.14
523.778	42971.5
523.98	44001.63
524.181	43694.44
524.383	43616.61
524.584	44599.64
524.786	44341.6
524.988	44540.25
525.189	44603.74
525.391	44775.76
525.592	44495.19
525.794	44818.77
525.995	44669.27
526.197	44788.05
526.398	44757.33
526.6	45156.69
526.801	44386.65
527.003	44263.77
527.204	44061.02
527.406	44310.88
527.607	43907.43
527.808	43946.34
528.01	43323.75
528.211	43342.19
528.412	44329.31
528.614	43155.82
528.815	42975.6
529.016	43135.34
529.218	42006.91
529.419	42246.52
529.62	41595.27
529.822	41218.44
530.023	40958.35
530.224	40503.7
530.425	40413.59
530.626	39676.32
530.828	39238.06
531.029	39260.58
531.23	38734.26
531.431	37820.86
531.632	37784
531.833	37452.23
532.035	37179.85
532.236	36913.61
532.437	36323.8
532.638	35779.04
532.839	35547.62
533.04	34937.32
533.241	34017.78
533.442	34454
533.643	33935.87
533.844	33380.87
534.045	32684.56
534.246	31951.38
534.447	32223.76
534.648	31324.71
534.849	30962.22
535.05	30612.01
535.251	30292.53
535.451	29491.77
535.652	29413.95
535.853	28832.33
536.054	28334.67
536.255	28537.42
536.456	27861.59
536.657	27763.29
536.857	27150.95
537.058	26454.64
537.259	26649.19
537.46	26342
537.66	25733.75
537.861	25315.97
538.062	24906.37
538.263	24951.43
538.463	24650.38
538.664	24064.66
538.865	23995.03
539.065	23790.23
539.266	23069.34
539.466	23470.75
539.667	22887.07
539.868	22583.98
540.068	22336.17
540.269	21590.71
540.469	21844.66
540.67	21510.84
540.87	21310.14
541.071	20980.42
541.271	20847.3
541.472	20650.69
541.672	20212.43
541.873	20124.36
542.073	19514.07
542.274	19796.69
542.474	19530.45
542.675	19094.24
542.875	18952.93
543.075	18537.19
543.276	18250.47
543.476	18586.34
543.676	18150.12
543.877	17918.7
544.077	17619.7
544.277	17564.4
544.478	17400.57
544.678	17515.25
544.878	16907.01
545.078	17140.47
545.279	16569.09
545.479	16395.01
545.679	16364.29
545.879	15923.98
546.079	16065.29
546.28	15557.39
546.48	15717.14
546.68	15614.74
546.88	15342.36
547.08	14940.96
547.28	14983.96
547.48	14488.35
547.68	14355.24
547.88	14089
548.081	14240.55
548.281	13962.03
548.481	13912.88
548.681	13675.31
548.881	13593.39
549.081	12940.09
549.28	12886.84
549.48	13132.6
549.68	12802.88
549.88	12538.69
550.08	12266.31
550.28	12303.17
550.48	12243.78
550.68	11893.58
550.88	11715.41
551.08	11705.17
551.279	11543.38
551.479	11262.8
551.679	11037.53
551.879	10787.68
552.079	10820.44
552.278	10607.45
552.478	10636.13
552.678	10351.46
552.878	10095.46
553.077	9962.34
553.277	9722.73
553.477	9657.2
553.676	9501.55
553.876	9493.36
554.076	9120.63
554.275	9184.12
554.475	9081.72
554.674	8815.48
554.874	8792.95
555.074	8588.16
555.273	8436.61
555.473	8352.64
555.672	8207.23
555.872	7924.62
556.071	7811.98
556.271	7842.7
556.47	7607.18
556.67	7304.08
556.869	7519.12
557.068	7340.94
557.268	7283.6
557.467	7109.52
557.667	7222.16
557.866	6962.07
558.065	6671.26
558.265	6722.46
558.464	6314.91
558.663	6534.04
558.863	6226.85
559.062	6261.66
559.261	5905.32
559.461	6202.27
559.66	5931.94
559.859	5761.96
560.058	5641.13
560.258	5444.52
560.457	5596.07
560.656	5526.44
560.855	5276.59
561.054	5446.57
561.253	5329.84
561.453	5209.01
561.652	5045.17
561.851	4942.77
562.05	4811.7
562.249	4623.29
562.448	4836.28
562.647	4574.14
562.846	4606.91
563.045	4600.76
563.244	4451.26
563.443	4580.28
563.642	4363.2
563.841	4211.65
564.04	4045.76
564.239	4215.74
564.438	4156.35
564.637	3832.77
564.836	4092.87
565.035	3791.81
565.234	3724.23
565.432	3789.77
565.631	3750.85
565.83	3781.57
566.029	3666.89
566.228	3503.05
566.427	3587.02
566.625	3312.59
566.824	3433.42
567.023	3328.97
567.222	3290.06
567.42	3306.45
567.619	3396.56
567.818	3251.15
568.016	3285.97
568.215	3216.33
568.414	3111.89
568.612	3150.8
568.811	2995.15
569.01	2933.72
569.208	2847.7
569.407	2855.89
569.605	2683.86
569.804	2802.65
570.002	2706.39
570.201	2771.93
570.4	2712.53
570.598	2601.94
570.797	2460.63
570.995	2491.35
571.193	2567.13
571.392	2464.73
571.59	2393.05
571.789	2448.35
571.987	2474.97
572.186	2362.33
572.384	2249.69
572.582	2276.32
572.781	2372.57
572.979	2139.1
573.177	2100.19
573.376	2225.12
573.574	2196.45
573.772	2057.18
573.971	1928.16
574.169	1801.19
574.367	1948.64
574.565	1944.55
574.763	1993.7
574.962	1797.09
575.16	1862.63
575.358	1793
575.556	1743.85
575.754	1815.52
575.952	1778.66
576.151	1704.93
576.349	1776.61
576.547	1635.3
576.745	1653.73
576.943	1706.98
577.141	1508.33
577.339	1469.42
577.537	1547.24
577.735	1612.78
577.933	1496.04
578.131	1469.42
578.329	1553.38
578.527	1383.4
578.725	1510.38
578.923	1207.28
579.121	1436.65
579.319	1141.74
579.516	1315.82
579.714	1393.64
579.912	1287.15
580.11	1209.33
580.308	1168.37
580.506	1176.56
580.704	1131.5
580.901	1188.85
581.099	1223.66
581.297	1090.54
581.495	1205.23
581.692	1063.92
581.89	1127.41
582.088	1098.74
582.285	1145.84
582.483	1025.01
582.681	1000.43
582.878	1025.01
583.076	994.29
583.274	1049.58
583.471	1055.73
583.669	1010.67
583.866	881.65
584.064	906.23
584.262	850.93
584.459	863.22
584.657	936.95
584.854	846.84
585.052	871.41
585.249	828.4
585.447	924.66
585.644	777.2
585.841	938.99
586.039	803.83
586.236	938.99
586.434	746.48
586.631	801.78
586.828	779.25
587.026	830.45
587.223	693.24
587.42	662.52
587.618	797.68
587.815	830.45
588.012	726
588.21	639.99
588.407	846.84
588.604	685.05
588.801	648.18
588.999	639.99
589.196	668.66
589.393	646.13
589.59	668.66
589.787	730.1
589.984	734.2
590.182	750.58
590.379	572.41
590.576	601.08
590.773	623.61
590.97	658.42
591.167	705.53
591.364	687.09
591.561	553.98
591.758	750.58
591.955	674.81
592.152	566.26
592.349	615.41
592.546	502.78
592.743	650.23
592.94	660.47
593.137	693.24
593.334	691.19
593.531	627.7
593.727	680.95
593.924	697.33
594.121	502.78
594.318	543.74
594.515	574.46
594.712	723.96
594.908	738.29
595.105	613.37
595.302	635.89
595.499	619.51
595.696	820.21
595.892	594.93
596.089	769.01
596.286	531.45
596.482	824.31
596.679	662.52
596.876	703.48
597.072	820.21
597.269	779.25
597.466	859.12
597.662	781.3
597.859	832.5
598.055	902.13
598.252	891.89
598.448	900.08
598.645	1039.34
598.841	1045.49
599.038	1094.64
599.234	1068.02
599.431	1106.93
599.627	1223.66
599.824	1227.76
600.02	1108.98
600.217	1176.56
600.413	1276.91
600.609	1340.4
600.806	1551.34
601.002	1434.6
601.198	1444.84
601.395	1571.82
601.591	1584.1
601.787	1649.64
601.984	1811.43
602.18	1833.96
602.376	1776.61
602.572	1991.65
602.769	2077.66
602.965	2171.87
603.161	2225.12
603.357	2307.04
603.553	2360.28
603.75	2354.14
603.946	2403.29
604.142	2431.96
604.338	2773.97
604.534	2522.07
604.73	2728.92
604.926	2829.27
605.122	3052.5
605.318	2925.52
605.514	3095.5
605.71	3208.14
605.906	3394.51
606.102	3406.8
606.298	3613.64
606.494	3681.22
606.69	3937.22
606.886	3763.14
607.082	3881.92
607.278	3926.98
607.474	4111.3
607.67	4271.04
607.866	4264.89
608.062	4637.63
608.257	4877.24
608.453	4672.44
608.649	4852.66
608.845	5172.15
609.041	5075.89
609.236	5399.47
609.432	5608.36
609.628	5657.51
609.824	5759.91
610.019	5835.69
610.215	5888.93
610.411	6384.54
610.606	6480.8
610.802	6536.09
610.998	6697.88
611.193	6857.62
611.389	6884.25
611.584	7211.92
611.78	7476.11
611.976	7639.95
612.171	7977.86
612.367	8110.98
612.562	8186.76
612.758	8385.41
612.953	8414.08
613.149	8850.3
613.344	8954.74
613.539	9497.46
613.735	9661.29
613.93	9612.14
614.126	10021.74
614.321	10341.22
614.517	10750.81
614.712	10826.59
614.907	11195.22
615.103	11539.28
615.298	11682.64
615.493	11963.21
615.688	12043.08
615.884	12735.29
616.079	12677.95
616.274	13368.12
616.47	13323.06
616.665	13849.39
616.86	14132.01
617.055	14383.91
617.25	14584.61
617.445	15336.21
617.641	15508.24
617.836	15864.59
618.031	16093.96
618.226	16728.83
618.421	16917.25
618.616	17566.45
618.811	17543.92
619.006	18334.44
619.201	18324.2
619.396	19055.33
619.591	19319.51
619.786	20060.88
619.981	19874.51
620.176	20945.6
620.371	20959.94
620.566	21666.49
620.761	21899.95
620.956	22772.39
621.151	22555.3
621.346	23249.57
621.541	23507.61
621.735	24601.22
621.93	24494.73
622.125	24916.61
622.32	25535.1
622.515	26014.32
622.709	26569.32
622.904	27011.68
623.099	27347.55
623.294	28029.52
623.488	28068.44
623.683	28949.06
623.878	28899.91
624.072	29473.34
624.267	30462.51
624.462	30419.5
624.656	30747.18
624.851	31406.62
625.046	31990.3
625.24	32481.81
625.435	32866.83
625.629	33399.3
625.824	33743.36
626.018	34460.15
626.213	34015.74
626.407	34818.54
626.602	35240.42
626.796	35852.76
626.991	36100.57
627.185	36166.1
627.38	36538.83
627.574	36567.51
627.768	36583.89
627.963	37378.5
628.157	37118.41
628.352	37587.39
628.546	37294.53
628.74	37749.18
628.935	37173.7
629.129	37620.16
629.323	37272.01
629.517	36960.72
629.712	36776.4
629.906	36825.55
630.1	35756.51
630.294	36239.83
630.489	35348.96
630.683	35465.7
630.877	34404.85
631.071	33845.76
631.265	33700.35
631.459	32899.59
631.653	32254.48
631.848	31803.93
632.042	31005.22
632.236	30325.3
632.43	29389.38
632.624	28635.72
632.818	27478.62
633.012	26831.46
633.206	25840.25
633.4	25113.22
633.594	24320.65
633.788	23669.4
633.982	23065.25
634.176	21920.43
634.369	21144.25
634.563	20415.18
634.757	19436.25
634.951	19110.62
635.145	18131.69
635.339	17550.07
635.533	16646.91
635.726	16190.22
635.92	15418.13
636.114	14895.9
636.308	14304.04
636.501	13808.43
636.695	13132.6
636.889	12596.03
637.083	12139.33
637.276	11608.91
637.47	11168.6
637.664	10554.21
637.857	10177.38
638.051	10003.3
638.244	9569.13
638.438	9081.72
638.632	8878.97
638.825	8164.23
639.019	8014.73
639.212	7605.13
639.406	7371.66
639.599	6982.55
639.793	6884.25
639.986	6675.35
640.18	6460.32
640.373	6054.82
640.567	5882.79
640.76	5663.66
640.954	5297.07
641.147	5082.03
641.34	4856.76
641.534	4957.11
641.727	4711.35
641.92	4654.01
642.114	4152.26
642.307	4338.62
642.5	4060.1
642.694	3720.14
642.887	3701.7
643.08	3627.98
643.273	3544.01
643.467	3230.67
643.66	3161.04
643.853	3083.22
644.046	2909.14
644.239	2827.22
644.432	2673.62
644.626	2483.16
644.819	2438.11
645.012	2511.83
645.205	2429.91
645.398	2243.55
645.591	2186.21
645.784	1926.11
645.977	1848.29
646.17	1958.88
646.363	1844.2
646.556	1670.12
646.749	1663.97
646.942	1639.4
647.135	1567.72
647.328	1582.06
647.521	1614.82
647.714	1528.81
647.907	1467.37
648.099	1268.72
648.292	1278.96
648.485	1221.61
648.678	1227.76
648.871	1229.81
649.064	1092.59
649.256	900.08
649.449	949.23
649.642	832.5
649.835	969.71
650.027	928.75
650.22	955.38
650.413	818.16
650.605	861.17
650.798	769.01
650.991	785.4
651.183	732.15
651.376	723.96
651.568	783.35
651.761	678.9
651.954	717.81
652.146	664.57
652.339	658.42
652.531	699.38
652.724	580.6
652.916	586.74
653.109	375.8
653.301	623.61
653.494	502.78
653.686	523.26
653.879	627.7
654.071	568.31
654.263	451.58
654.456	420.86
654.648	513.02
654.84	510.97
655.033	433.15
655.225	594.93
655.417	318.46
655.61	498.68
655.802	500.73
655.994	461.82
656.186	291.84
656.379	422.91
656.571	318.46
656.763	312.32
656.955	289.79
657.148	310.27
657.34	363.51
657.532	267.26
657.724	340.99
657.916	285.69
658.108	363.51
658.3	365.56
658.492	283.64
658.684	281.6
658.876	359.42
659.068	232.44
659.26	166.91
659.452	166.91
659.644	197.63
659.836	433.15
660.028	265.21
660.22	142.33
660.412	252.92
660.604	228.35
660.796	197.63
660.988	300.03
661.18	248.83
661.372	304.12
661.563	224.25
661.755	218.11
661.947	84.99
662.139	160.77
662.331	179.2
662.522	189.44
662.714	201.72
662.906	136.19
663.097	261.12
663.289	224.25
663.481	95.23
663.673	193.53
663.864	248.83
664.056	236.54
664.247	152.57
664.439	218.11
664.631	150.53
664.822	207.87
665.014	203.77
665.205	121.85
665.397	171.01
665.588	222.2
665.78	119.81
665.971	203.77
666.163	164.86
666.354	218.11
666.546	166.91
666.737	185.34
666.929	119.81
667.12	68.61
667.311	228.35
667.503	101.37
667.694	228.35
667.885	238.59
668.077	254.97
668.268	35.84
668.459	115.71
668.651	103.42
668.842	201.72
669.033	138.24
669.224	-1.02
669.416	310.27
669.607	115.71
669.798	56.32
669.989	289.79
670.18	107.52
670.371	252.92
670.563	162.81
670.754	203.77
670.945	254.97
671.136	285.69
671.327	171.01
671.518	310.27
671.709	343.03
671.9	257.02
672.091	283.64
672.282	197.63
672.473	191.49
672.664	76.8
672.855	207.87
673.046	193.53
673.237	252.92
673.428	152.57
673.619	177.15
673.809	130.05
674	242.68
674.191	222.2
674.382	136.19
674.573	171.01
674.764	162.81
674.954	226.3
675.145	175.1
675.336	99.33
675.527	181.25
675.717	164.86
675.908	146.43
676.099	152.57
676.289	205.82
676.48	99.33
676.671	152.57
676.861	218.11
677.052	230.4
677.243	228.35
677.433	111.61
677.624	203.77
677.814	246.78
678.005	87.04
678.195	338.94
678.386	142.33
678.576	226.3
678.767	78.85
678.957	293.88
679.148	277.5
679.338	306.17
679.529	291.84
679.719	220.16
679.909	195.58
680.1	300.03
680.29	314.36
680.481	158.72
680.671	273.4
680.861	220.16
681.052	293.88
681.242	248.83
681.432	318.46
681.622	240.64
681.813	171.01
682.003	287.74
682.193	109.57
682.383	207.87
682.573	293.88
682.764	246.78
682.954	226.3
683.144	365.56
683.334	224.25
683.524	201.72
683.714	351.23
683.904	254.97
684.094	340.99
684.284	275.45
684.474	353.27
684.664	302.08
684.854	361.47
685.044	273.4
685.234	222.2
685.424	285.69
685.614	214.01
685.804	394.23
685.994	318.46
686.184	257.02
686.374	312.32
686.564	277.5
686.753	259.07
686.943	168.96
687.133	246.78
687.323	232.44
687.513	328.7
687.702	236.54
687.892	320.51
688.082	373.75
688.272	351.23
688.461	367.61
688.651	484.34
688.841	359.42
689.03	240.64
689.22	283.64
689.41	310.27
689.599	291.84
689.789	232.44
689.979	353.27
690.168	295.93
690.358	312.32
690.547	193.53
690.737	261.12
690.926	238.59
691.116	295.93
691.305	291.84
691.495	340.99
691.684	214.01
691.874	228.35
692.063	244.73
692.252	340.99
692.442	328.7
692.631	216.06
692.82	295.93
693.01	297.98
693.199	285.69
693.388	355.32
693.578	302.08
693.767	283.64
693.956	336.89
694.146	281.6
694.335	300.03
694.524	267.26
694.713	353.27
694.902	244.73
695.092	246.78
695.281	230.4
695.47	287.74
695.659	136.19
695.848	310.27
696.037	183.29
696.226	281.6
696.415	269.31
696.604	375.8
696.793	306.17
696.982	240.64
697.171	361.47
697.36	156.67
697.549	201.72
697.738	199.68
697.927	224.25
698.116	201.72
698.305	300.03
698.494	250.88
698.683	197.63
698.872	375.8
699.061	324.6
699.25	246.78
699.438	283.64
699.627	230.4
699.816	349.18
700.005	189.44
700.193	220.16
700.382	343.03
700.571	330.75
700.76	326.65
700.948	297.98
701.137	263.16
701.326	306.17
701.514	224.25
701.703	230.4
701.892	275.45
702.08	429.05
702.269	236.54
702.457	142.33
702.646	224.25
702.834	150.53
703.023	279.55
703.212	314.36
703.4	320.51
703.589	150.53
703.777	207.87
703.965	132.09
704.154	285.69
704.342	201.72
704.531	201.72
704.719	234.49
704.907	320.51
705.096	189.44
705.284	302.08
705.472	254.97
705.661	234.49
705.849	328.7
706.037	351.23
706.226	242.68
706.414	289.79
706.602	171.01
706.79	293.88
706.979	230.4
707.167	240.64
707.355	128
707.543	295.93
707.731	277.5
707.919	291.84
708.107	234.49
708.296	263.16
708.484	230.4
708.672	236.54
708.86	277.5
709.048	230.4
709.236	183.29
709.424	400.38
709.612	304.12
709.8	164.86
709.988	297.98
710.176	310.27
710.364	371.71
710.551	222.2
710.739	259.07
710.927	224.25
711.115	293.88
711.303	252.92
711.491	343.03
711.679	207.87
711.866	250.88
712.054	263.16
712.242	226.3
712.43	328.7
712.617	275.45
712.805	334.84
712.993	283.64
713.181	136.19
713.368	318.46
713.556	291.84
713.744	228.35
713.931	447.48
714.119	334.84
714.306	259.07
714.494	220.16
714.682	263.16
714.869	222.2
715.057	271.36
715.244	152.57
715.432	222.2
715.619	185.34
715.807	283.64
715.994	195.58
716.182	310.27
716.369	412.67
716.556	291.84
716.744	158.72
716.931	218.11
717.119	340.99
717.306	277.5
717.493	259.07
717.681	267.26
717.868	254.97
718.055	308.22
718.242	254.97
718.43	275.45
718.617	332.79
718.804	283.64
718.991	412.67
719.179	324.6
719.366	287.74
719.553	291.84
719.74	218.11
719.927	250.88
720.114	306.17
720.301	236.54
720.488	291.84
720.676	230.4
720.863	322.56
721.05	410.62
721.237	254.97
721.424	269.31
721.611	340.99
721.798	173.05
721.985	291.84
722.172	267.26
722.358	242.68
722.545	373.75
722.732	369.66
722.919	424.95
723.106	310.27
723.293	246.78
723.48	306.17
723.667	273.4
723.853	310.27
724.04	429.05
724.227	343.03
724.414	269.31
724.6	314.36
724.787	431.1
724.974	457.72
725.161	353.27
725.347	234.49
725.534	322.56
725.72	439.29
725.907	400.38
726.094	300.03
726.28	277.5
726.467	304.12
726.653	218.11
726.84	429.05
727.027	480.25
727.213	326.65
727.4	361.47
727.586	316.41
727.773	277.5
727.959	400.38
728.145	349.18
728.332	310.27
728.518	242.68
728.705	340.99
728.891	396.28
729.077	310.27
729.264	338.94
729.45	257.02
729.636	396.28
729.823	316.41
730.009	408.57
730.195	322.56
730.382	410.62
730.568	224.25
730.754	400.38
730.94	279.55
731.126	324.6
731.313	357.37
731.499	349.18
731.685	408.57
731.871	318.46
732.057	357.37
732.243	347.13
732.429	377.85
732.615	431.1
732.801	408.57
732.987	347.13
733.173	338.94
733.359	306.17
733.545	310.27
733.731	234.49
733.917	392.19
734.103	306.17
734.289	379.9
734.475	377.85
734.661	500.73
734.847	289.79
735.033	322.56
735.219	396.28
735.404	320.51
735.59	236.54
735.776	369.66
735.962	406.52
736.148	394.23
736.333	453.63
736.519	408.57
736.705	289.79
736.89	312.32
737.076	383.99
737.262	306.17
737.447	297.98
737.633	252.92
737.819	441.34
738.004	343.03
738.19	343.03
738.375	476.15
738.561	414.71
738.747	320.51
738.932	347.13
739.118	416.76
739.303	400.38
739.489	414.71
739.674	330.75
739.859	230.4
740.045	410.62
740.23	386.04
740.416	269.31
740.601	343.03
740.786	404.47
740.972	289.79
741.157	275.45
741.342	279.55
741.528	283.64
741.713	416.76
741.898	377.85
742.084	340.99
742.269	326.65
742.454	365.56
742.639	353.27
742.824	318.46
743.01	433.15
743.195	451.58
743.38	381.95
743.565	297.98
743.75	310.27
743.935	357.37
744.12	353.27
744.305	209.92
744.49	408.57
744.675	343.03
744.86	304.12
745.045	347.13
745.23	369.66
745.415	310.27
745.6	361.47
745.785	306.17
745.97	414.71
746.155	336.89
746.34	390.14
746.525	332.79
746.71	439.29
746.895	226.3
747.079	269.31
747.264	269.31
747.449	304.12
747.634	400.38
747.819	318.46
748.003	283.64
748.188	193.53
748.373	324.6
748.557	222.2
748.742	320.51
748.927	293.88
749.111	207.87
749.296	273.4
749.481	240.64
749.665	277.5
749.85	279.55
750.034	328.7
750.219	273.4
750.404	254.97
750.588	283.64
750.773	205.82
750.957	304.12
751.141	216.06
751.326	308.22
751.51	254.97
751.695	230.4
751.879	242.68
752.064	377.85
752.248	244.73
752.432	357.37
752.617	295.93
752.801	267.26
752.985	234.49
753.17	375.8
753.354	304.12
753.538	211.96
753.722	265.21
753.907	187.39
754.091	136.19
754.275	283.64
754.459	148.48
754.643	261.12
754.828	285.69
755.012	248.83
755.196	123.9
755.38	308.22
755.564	193.53
755.748	218.11
755.932	359.42
756.116	277.5
756.3	259.07
756.484	252.92
756.668	316.41
756.852	123.9
757.036	123.9
757.22	240.64
757.404	164.86
757.588	232.44
757.772	203.77
757.956	168.96
758.14	326.65
758.323	123.9
758.507	246.78
758.691	189.44
758.875	302.08
759.059	322.56
759.242	160.77
759.426	193.53
759.61	232.44
759.794	144.38
759.977	209.92
760.161	408.57
760.345	363.51
760.528	193.53
760.712	191.49
760.895	203.77
761.079	205.82
761.263	156.67
761.446	107.52
761.63	193.53
761.813	257.02
761.997	119.81
762.18	68.61
762.364	234.49
762.547	91.13
762.731	191.49
762.914	201.72
763.098	56.32
763.281	185.34
763.464	70.65
763.648	95.23
763.831	113.66
764.015	107.52
764.198	234.49
764.381	168.96
764.564	162.81
764.748	160.77
764.931	150.53
765.114	132.09
765.297	316.41
765.481	123.9
765.664	183.29
765.847	160.77
766.03	232.44
766.213	144.38
766.397	78.85
766.58	78.85
766.763	193.53
766.946	152.57
767.129	76.8
767.312	119.81
767.495	72.7
767.678	134.14
767.861	130.05
768.044	130.05
768.227	125.95
768.41	148.48
768.593	166.91
768.776	173.05
768.959	105.47
769.142	177.15
769.324	56.32
769.507	99.33
769.69	89.09
769.873	105.47
770.056	338.94
770.239	97.28
770.421	115.71
770.604	95.23
770.787	144.38
770.97	97.28
771.152	87.04
771.335	152.57
771.518	93.18
771.7	187.39
771.883	228.35
772.066	44.03
772.248	136.19
772.431	158.72
772.613	138.24
772.796	25.6
772.978	150.53
773.161	201.72
773.343	68.61
773.526	87.04
773.708	3.07
773.891	1.02
774.073	78.85
774.256	134.14
774.438	216.06
774.621	121.85
774.803	78.85
774.985	115.71
775.168	117.76
775.35	99.33
775.532	134.14
775.715	123.9
775.897	132.09
776.079	76.8
776.261	146.43
776.444	80.89
776.626	60.42
776.808	132.09
776.99	-78.85
777.173	95.23
777.355	103.42
777.537	17.41
777.719	89.09
777.901	54.27
778.083	97.28
778.265	9.22
778.447	209.92
778.629	-7.17
778.811	84.99
778.993	91.13
779.175	156.67
779.357	31.74
779.539	-29.7
779.721	50.18
779.903	183.29
780.085	23.55
780.267	123.9
780.449	107.52
780.631	199.68
780.812	111.61
780.994	58.37
781.176	27.65
781.358	-23.55
781.54	130.05
781.721	48.13
781.903	144.38
782.085	9.22
782.267	158.72
782.448	27.65
782.63	21.5
782.812	58.37
782.993	107.52
783.175	175.1
783.357	-29.7
783.538	109.57
783.72	15.36
783.901	39.94
784.083	128
784.264	121.85
784.446	23.55
784.627	-15.36
784.809	66.56
784.99	-19.46
785.172	70.65
785.353	68.61
785.535	33.79
785.716	-82.94
785.897	19.46
786.079	27.65
786.26	87.04
786.441	66.56
786.623	1.02
786.804	41.98
786.985	17.41
787.167	33.79
787.348	134.14
787.529	29.7
787.71	164.86
787.891	58.37
788.073	17.41
788.254	11.26
788.435	146.43
788.616	58.37
788.797	-54.27
788.978	44.03
789.159	33.79
789.34	50.18
789.522	39.94
789.703	1.02
789.884	142.33
790.065	89.09
790.246	168.96
790.427	-7.17
790.607	216.06
790.788	113.66
790.969	-62.46
791.15	74.75
791.331	31.74
791.512	13.31
791.693	-93.18
791.874	-3.07
792.054	228.35
792.235	140.29
792.416	48.13
792.597	-19.46
792.778	103.42
792.958	82.94
793.139	17.41
793.32	109.57
793.5	-37.89
793.681	132.09
793.862	64.51
794.042	-3.07
794.223	-74.75
794.404	19.46
794.584	-27.65
794.765	66.56
794.945	66.56
795.126	84.99
795.306	150.53
795.487	13.31
795.667	58.37
795.848	62.46
796.028	113.66
796.209	48.13
796.389	115.71
796.57	23.55
796.75	-80.89
796.93	52.22
797.111	82.94
797.291	-13.31
797.471	111.61
797.652	-17.41
797.832	23.55
798.012	111.61
798.192	-25.6
798.373	-27.65
798.553	66.56
798.733	25.6
798.913	-29.7
799.093	-15.36
799.274	80.89
799.454	70.65
799.634	74.75
799.814	76.8
799.994	44.03
800.174	17.41
800.354	-13.31
800.534	-54.27
800.714	91.13
800.894	-9.22
801.074	-13.31
801.254	-9.22
801.434	101.37
801.614	21.5
801.794	-3.07
801.974	1975.27
802.154	21.5
802.334	84.99
802.514	-89.09
802.693	93.18
802.873	17.41
803.053	220.16
803.233	134.14
803.413	-29.7
803.592	11.26
803.772	-23.55
803.952	84.99
804.131	-44.03
804.311	74.75
804.491	60.42
804.67	-23.55
804.85	-70.65
805.03	29.7
805.209	140.29
805.389	15.36
805.568	1.02
805.748	-29.7
805.928	50.18
806.107	115.71
806.287	58.37
806.466	115.71
806.646	-1.02
806.825	-70.65
807.004	-33.79
807.184	89.09
807.363	78.85
807.543	-29.7
807.722	54.27
807.901	87.04
808.081	64.51
808.26	-156.67
808.439	-13.31
808.619	56.32
808.798	-11.26
808.977	46.08
809.156	185.34
809.336	25.6
809.515	60.42
809.694	1.02
809.873	-29.7
810.052	70.65
810.231	91.13
810.411	-64.51
810.59	103.42
810.769	25.6
810.948	11.26
811.127	-44.03
811.306	-58.37
811.485	-11.26
811.664	179.2
811.843	35.84
812.022	44.03
812.201	-9.22
812.38	-25.6
812.559	-9.22
812.737	33.79
812.916	-17.41
813.095	-35.84
813.274	46.08
813.453	91.13
813.632	31.74
813.811	33.79
813.989	-64.51
814.168	-48.13
814.347	-33.79
814.526	23.55
814.704	97.28
814.883	74.75
815.062	1.02
815.24	41.98
815.419	-33.79
815.598	7.17
815.776	-76.8
815.955	-1.02
816.133	-64.51
816.312	35.84
816.49	-95.23
816.669	19.46
816.847	-5.12
817.026	46.08
817.204	9.22
817.383	37.89
817.561	-46.08
817.74	113.66
817.918	78.85
818.097	-21.5
818.275	-3.07
818.453	78.85
818.632	103.42
818.81	60.42
818.988	-23.55
819.167	-21.5
819.345	23.55
819.523	-33.79
819.701	80.89
819.879	1.02
820.058	105.47
820.236	70.65
820.414	-5.12
820.592	5.12
820.77	46.08
820.948	-25.6
821.127	58.37
821.305	48.13
821.483	-23.55
821.661	91.13
821.839	29.7
822.017	-105.47
822.195	-5.12
822.373	60.42
822.551	-15.36
822.729	58.37
822.907	-80.89
823.085	15.36
823.262	29.7
823.44	33.79
823.618	-70.65
823.796	119.81
823.974	-23.55
824.152	-80.89
824.329	76.8
824.507	-37.89
824.685	78.85
824.863	64.51
825.04	54.27
825.218	87.04
825.396	21.5
825.574	-21.5
825.751	-29.7
825.929	-5.12
826.107	-99.33
826.284	-68.61
826.462	-13.31
826.639	-46.08
826.817	-70.65
826.994	64.51
827.172	11.26
827.349	97.28
827.527	25.6
827.704	70.65
827.882	144.38
828.059	-35.84
828.237	25.6
828.414	41.98
828.591	-89.09
828.769	82.94
828.946	-44.03
829.124	-3.07
829.301	148.48
829.478	-52.22
829.655	17.41
829.833	29.7
830.01	-78.85
830.187	7.17
830.364	44.03
830.542	-11.26
830.719	101.37
830.896	25.6
831.073	99.33
831.25	82.94
831.427	27.65
831.604	39.94
831.782	19.46
831.959	97.28
832.136	-31.74
832.313	46.08
832.49	17.41
832.667	-1.02
832.844	-41.98
833.021	93.18
833.198	76.8
833.374	29.7
833.551	27.65
833.728	-31.74
833.905	60.42
834.082	-74.75
834.259	19.46
834.436	107.52
834.612	19.46
834.789	72.7
834.966	39.94
835.143	52.22
835.319	-33.79
835.496	33.79
835.673	56.32
835.85	117.76
836.026	23.55
836.203	70.65
836.38	7.17
836.556	5.12
836.733	-39.94
836.909	58.37
837.086	7.17
837.262	-109.57
837.439	44.03
837.616	35.84
837.792	-23.55
837.968	46.08
838.145	-132.09
838.321	-21.5
838.498	70.65
838.674	107.52
838.851	105.47
839.027	9.22
839.203	-9.22
839.38	35.84
839.556	-62.46
839.732	87.04
839.909	64.51
840.085	-11.26
840.261	-76.8
840.437	41.98
840.614	-33.79
840.79	113.66
840.966	39.94
841.142	52.22
841.318	-41.98
841.494	80.89
841.671	78.85
841.847	-11.26
842.023	-13.31
842.199	54.27
842.375	123.9
842.551	-95.23
842.727	-125.95
842.903	158.72
843.079	-11.26
843.255	109.57
843.431	27.65
843.607	31.74
843.783	-187.39
843.959	95.23
844.134	-46.08
844.31	74.75
844.486	5.12
844.662	-29.7
844.838	68.61
845.013	23.55
845.189	70.65
845.365	19.46
845.541	76.8
845.716	25.6
845.892	74.75
846.068	-74.75
846.244	-48.13
846.419	115.71
846.595	-31.74
846.77	7.17
846.946	-64.51
847.122	-15.36
847.297	-64.51
847.473	152.57
847.648	-134.14
847.824	-17.41
847.999	-72.7
848.175	-29.7
848.35	56.32
848.526	44.03
848.701	123.9
848.876	60.42
849.052	17.41
849.227	29.7
849.403	-52.22
849.578	19.46
849.753	56.32
849.929	41.98
850.104	-19.46
850.279	-11.26
850.454	41.98
850.63	1.02
850.805	7.17
850.98	-29.7
851.155	-13.31
851.33	15.36
851.505	-15.36
851.681	199.68
851.856	27.65
852.031	50.18
852.206	9.22
852.381	35.84
852.556	-31.74
852.731	60.42
852.906	37.89
853.081	74.75
853.256	95.23
853.431	-1.02
853.606	19.46
853.781	-82.94
853.956	-146.43
854.131	15.36
854.305	-27.65
854.48	-13.31
854.655	-23.55
854.83	-5.12
855.005	-29.7
855.18	87.04
855.354	7.17
855.529	11.26
855.704	-15.36
855.879	21.5
856.053	-107.52
856.228	80.89
856.403	-13.31
856.577	-17.41
856.752	-54.27
856.926	17.41
857.101	7.17
857.276	-56.32
857.45	35.84
857.625	119.81
857.799	78.85
857.974	37.89
858.148	-48.13
858.323	68.61
858.497	-68.61
858.672	-56.32
858.846	-134.14
859.02	29.7
859.195	9.22
859.369	9.22
859.543	72.7
859.718	19.46
859.892	39.94
860.066	15.36
860.241	44.03
860.415	-44.03
860.589	-62.46
860.763	33.79
860.938	17.41
861.112	72.7
861.286	-9.22
861.46	33.79
861.634	9.22
861.808	80.89
861.982	-95.23
862.157	-66.56
862.331	-33.79
862.505	-68.61
862.679	-54.27
862.853	3.07
863.027	-7.17
863.201	138.24
863.375	-27.65
863.549	-3.07
863.722	97.28
863.896	136.19
864.07	-27.65
864.244	5.12
864.418	99.33
864.592	66.56
864.766	50.18
864.939	46.08
865.113	-1.02
865.287	97.28
865.461	-35.84
865.634	-23.55
865.808	19.46
865.982	-54.27
866.156	-123.9
866.329	-84.99
866.503	-17.41
866.676	56.32
866.85	60.42
867.024	-23.55
867.197	44.03
867.371	64.51
867.544	21.5
867.718	-80.89
867.891	72.7
868.065	-136.19
868.238	78.85
868.412	50.18
868.585	41.98
868.759	-76.8
868.932	-19.46
869.105	-3.07
869.279	41.98
869.452	-46.08
869.625	95.23
869.799	-33.79
869.972	-50.18
870.145	33.79
870.319	52.22
870.492	-23.55
870.665	-56.32
870.838	23.55
871.011	-132.09
871.185	70.65
871.358	41.98
871.531	80.89
871.704	-50.18
871.877	23.55
872.05	-29.7
872.223	-117.76
872.396	41.98
872.569	117.76
872.742	-21.5
872.915	19.46
873.088	-52.22
873.261	-113.66
873.434	39.94
873.607	-39.94
873.78	164.86
873.953	-56.32
874.126	19.46
874.299	33.79
874.471	-13.31
874.644	-33.79
874.817	58.37
874.99	119.81
875.163	-46.08
875.335	-25.6
875.508	-27.65
875.681	80.89
875.853	-11.26
876.026	-39.94
876.199	19.46
876.371	-37.89
876.544	-1.02
876.717	-1.02
876.889	-99.33
877.062	44.03
877.234	-111.61
877.407	-11.26
877.579	27.65
877.752	-15.36
877.924	41.98
878.097	31.74
878.269	58.37
878.442	-78.85
878.614	-9.22
878.786	-54.27
878.959	41.98
879.131	-15.36
879.303	-113.66
879.476	-37.89
879.648	128
879.82	123.9
879.993	9.22
880.165	27.65
880.337	-91.13
880.509	-23.55
880.681	-183.29
880.854	-74.75
881.026	50.18
881.198	148.48
881.37	64.51
881.542	31.74
881.714	-21.5
881.886	3.07
882.058	-11.26
882.23	-19.46
882.402	-19.46
882.574	27.65
882.746	15.36
882.918	115.71
883.09	82.94
883.262	25.6
883.434	41.98
883.606	-103.42
883.778	-25.6
883.95	121.85
884.122	-58.37
884.293	91.13
884.465	76.8
884.637	93.18
884.809	-9.22
884.98	-27.65
885.152	41.98
885.324	31.74
885.496	-3.07
885.667	-1.02
885.839	-35.84
886.011	146.43
886.182	128
886.354	11.26
886.525	99.33
886.697	3.07
886.869	-5.12
887.04	25.6
887.212	58.37
887.383	107.52
887.555	37.89
887.726	-68.61
887.897	-25.6
888.069	-17.41
888.24	29.7
888.412	13.31
888.583	7.17
888.754	31.74
888.926	-97.28
889.097	-82.94
889.268	-44.03
889.44	1.02
889.611	-78.85
889.782	-111.61
889.953	-109.57
890.125	142.33
890.296	-84.99
890.467	3.07
890.638	-105.47
890.809	-1.02
890.98	-29.7
891.151	-7.17
891.323	109.57
891.494	-13.31
891.665	33.79
891.836	41.98
892.007	-48.13
892.178	89.09
892.349	48.13
892.52	-9.22
892.691	11.26
892.862	-33.79
893.032	-89.09
893.203	-54.27
893.374	123.9
893.545	82.94
893.716	-52.22
893.887	80.89
894.057	-29.7
894.228	-15.36
894.399	-56.32
894.57	-11.26
894.74	1.02
894.911	27.65
895.082	-7.17
895.253	-50.18
895.423	-60.42
895.594	37.89
895.764	95.23
895.935	-56.32
896.106	66.56
896.276	-3.07
896.447	41.98
896.617	-27.65
896.788	-132.09
896.958	3.07
897.129	-66.56
897.299	-35.84
897.47	117.76
897.64	115.71
897.81	-68.61
897.981	41.98
898.151	-68.61
898.322	31.74
898.492	33.79
898.662	-142.33
898.832	-23.55
899.003	-1.02
899.173	68.61
899.343	-115.71
899.513	-44.03
