Data from USB4F104151__201__11-05-32-530.txt Node

Date: Wed Feb 26 11:05:32 EST 2025
User: louis
Spectrometer: USB4F10415
Trigger mode: 4
Integration Time (sec): 1.000000E-1
Scans to average: 1
Electric dark correction enabled: true
Nonlinearity correction enabled: false
Boxcar width: 0
XAxis mode: Wavelengths
Number of Pixels in Spectrum: 3648
>>>>>Begin Spectral Data<<<<<
178.204	-383.31
178.424	-383.31
178.644	-383.31
178.864	-430.41
179.084	-426.32
179.304	-16.73
179.524	-43.35
179.744	-6.49
179.964	87.72
180.184	30.38
180.404	16.04
180.624	-6.49
180.844	-8.53
181.064	-96.6
181.283	1.71
181.503	-47.44
181.723	89.77
181.943	-104.79
182.163	167.59
182.383	-78.16
182.602	65.19
182.822	169.64
183.042	-6.49
183.262	-31.06
183.482	-20.82
183.701	-26.96
183.921	-18.77
184.141	-67.92
184.361	42.67
184.58	30.38
184.8	54.95
185.02	36.52
185.239	73.39
185.459	102.06
185.679	65.19
185.898	-125.27
186.118	50.86
186.338	91.82
186.557	81.58
186.777	-80.21
186.997	36.52
187.216	87.72
187.436	110.25
187.655	34.47
187.875	71.34
188.095	-24.92
188.314	100.01
188.534	112.3
188.753	-49.49
188.973	102.06
189.192	194.22
189.412	9.9
189.631	104.11
189.851	54.95
190.07	110.25
190.29	-51.54
190.509	-35.16
190.729	65.19
190.948	124.58
191.168	165.54
191.387	59.05
191.607	28.33
191.826	65.19
192.045	42.67
192.265	-22.87
192.484	36.52
192.704	13.99
192.923	-88.4
193.142	128.68
193.362	140.97
193.581	104.11
193.8	87.72
194.02	116.39
194.239	11.95
194.458	112.3
194.678	-43.35
194.897	42.67
195.116	28.33
195.335	13.99
195.555	87.72
195.774	-29.01
195.993	38.57
196.212	1.71
196.432	-37.2
196.651	-33.11
196.87	5.8
197.089	259.75
197.308	65.19
197.528	54.95
197.747	-29.01
197.966	57
198.185	61.1
198.404	-55.64
198.623	110.25
198.842	106.15
199.062	40.62
199.281	54.95
199.5	50.86
199.719	52.91
199.938	83.63
200.157	5.8
200.376	89.77
200.595	149.16
200.814	13.99
201.033	16.04
201.252	175.78
201.471	83.63
201.69	69.29
201.909	48.81
202.128	128.68
202.347	91.82
202.566	28.33
202.785	-61.78
203.004	-74.07
203.223	298.66
203.442	3.75
203.661	-35.16
203.879	132.78
204.098	54.95
204.317	-59.73
204.536	100.01
204.755	120.49
204.974	63.15
205.193	-55.64
205.411	54.95
205.63	169.64
205.849	38.57
206.068	24.23
206.287	1.71
206.505	159.4
206.724	32.43
206.943	-16.73
207.162	-0.34
207.381	120.49
207.599	54.95
207.818	40.62
208.037	-47.44
208.255	-2.39
208.474	95.91
208.693	-4.44
208.911	-6.49
209.13	18.09
209.349	79.53
209.567	81.58
209.786	112.3
210.005	106.15
210.223	112.3
210.442	-102.74
210.661	-65.88
210.879	77.48
211.098	-33.11
211.316	69.29
211.535	63.15
211.753	-18.77
211.972	59.05
212.191	22.19
212.409	5.8
212.628	130.73
212.846	-51.54
213.065	-4.44
213.283	110.25
213.502	44.71
213.72	44.71
213.938	83.63
214.157	-14.68
214.375	132.78
214.594	46.76
214.812	77.48
215.031	-35.16
215.249	-14.68
215.467	-47.44
215.686	44.71
215.904	124.58
216.122	-37.2
216.341	181.93
216.559	-6.49
216.778	52.91
216.996	81.58
217.214	22.19
217.432	-2.39
217.651	-53.59
217.869	63.15
218.087	73.39
218.306	-65.88
218.524	9.9
218.742	46.76
218.96	132.78
219.179	18.09
219.397	28.33
219.615	222.89
219.833	157.35
220.051	-104.79
220.27	63.15
220.488	100.01
220.706	100.01
220.924	11.95
221.142	9.9
221.36	91.82
221.578	30.38
221.796	-10.58
222.015	79.53
222.233	26.28
222.451	171.69
222.669	22.19
222.887	73.39
223.105	18.09
223.323	36.52
223.541	-63.83
223.759	87.72
223.977	32.43
224.195	155.3
224.413	100.01
224.631	46.76
224.849	87.72
225.067	183.98
225.285	-12.63
225.503	-76.12
225.721	-96.6
225.939	75.43
226.157	95.91
226.375	165.54
226.592	46.76
226.81	-4.44
227.028	79.53
227.246	153.26
227.464	44.71
227.682	71.34
227.9	-0.34
228.117	26.28
228.335	65.19
228.553	26.28
228.771	50.86
228.989	-2.39
229.206	75.43
229.424	40.62
229.642	-12.63
229.86	46.76
230.077	134.82
230.295	-14.68
230.513	130.73
230.731	26.28
230.948	118.44
231.166	173.74
231.384	-10.58
231.601	-69.97
231.819	165.54
232.037	-26.96
232.254	5.8
232.472	20.14
232.689	1.71
232.907	140.97
233.125	16.04
233.342	-57.68
233.56	-24.92
233.777	-49.49
233.995	11.95
234.213	95.91
234.43	59.05
234.648	7.85
234.865	81.58
235.083	81.58
235.3	63.15
235.518	128.68
235.735	175.78
235.953	173.74
236.17	85.67
236.388	-16.73
236.605	28.33
236.822	161.45
237.04	116.39
237.257	57
237.475	-63.83
237.692	110.25
237.909	118.44
238.127	-4.44
238.344	75.43
238.562	104.11
238.779	-10.58
238.996	-106.84
239.214	48.81
239.431	54.95
239.648	30.38
239.865	157.35
240.083	95.91
240.3	9.9
240.517	-72.02
240.735	-6.49
240.952	116.39
241.169	52.91
241.386	30.38
241.603	83.63
241.821	-37.2
242.038	-4.44
242.255	83.63
242.472	9.9
242.689	147.11
242.907	18.09
243.124	50.86
243.341	61.1
243.558	-43.35
243.775	-26.96
243.992	-59.73
244.209	83.63
244.426	165.54
244.643	75.43
244.86	-10.58
245.078	136.87
245.295	97.96
245.512	-41.3
245.729	-31.06
245.946	73.39
246.163	46.76
246.38	42.67
246.597	95.91
246.814	71.34
247.031	9.9
247.248	7.85
247.464	93.87
247.681	-35.16
247.898	59.05
248.115	54.95
248.332	-37.2
248.549	97.96
248.766	93.87
248.983	85.67
249.2	124.58
249.417	44.71
249.633	-67.92
249.85	104.11
250.067	89.77
250.284	104.11
250.501	79.53
250.717	106.15
250.934	-72.02
251.151	85.67
251.368	13.99
251.585	108.2
251.801	-20.82
252.018	-65.88
252.235	81.58
252.451	-115.03
252.668	50.86
252.885	69.29
253.102	63.15
253.318	32.43
253.535	-35.16
253.752	-33.11
253.968	50.86
254.185	-119.12
254.401	54.95
254.618	79.53
254.835	-8.53
255.051	116.39
255.268	44.71
255.484	40.62
255.701	24.23
255.917	42.67
256.134	-49.49
256.351	89.77
256.567	-45.4
256.784	36.52
257	-2.39
257.217	85.67
257.433	104.11
257.65	-14.68
257.866	57
258.082	-26.96
258.299	-10.58
258.515	42.67
258.732	-6.49
258.948	-108.88
259.165	30.38
259.381	-12.63
259.597	126.63
259.814	36.52
260.03	38.57
260.246	-41.3
260.463	73.39
260.679	65.19
260.895	46.76
261.112	112.3
261.328	34.47
261.544	36.52
261.761	147.11
261.977	-8.53
262.193	-2.39
262.409	110.25
262.626	79.53
262.842	-0.34
263.058	-24.92
263.274	65.19
263.49	-26.96
263.707	108.2
263.923	63.15
264.139	7.85
264.355	36.52
264.571	102.06
264.787	83.63
265.004	151.21
265.22	28.33
265.436	-43.35
265.652	-39.25
265.868	38.57
266.084	-29.01
266.3	20.14
266.516	-74.07
266.732	110.25
266.948	1.71
267.164	18.09
267.38	28.33
267.596	102.06
267.812	114.34
268.028	40.62
268.244	-35.16
268.46	44.71
268.676	-65.88
268.892	-8.53
269.108	-47.44
269.324	-18.77
269.54	-84.31
269.756	93.87
269.972	-39.25
270.188	73.39
270.403	-63.83
270.619	5.8
270.835	161.45
271.051	42.67
271.267	-10.58
271.483	7.85
271.698	42.67
271.914	71.34
272.13	-8.53
272.346	81.58
272.562	16.04
272.777	102.06
272.993	-67.92
273.209	-86.36
273.425	-10.58
273.64	-139.6
273.856	42.67
274.072	-14.68
274.287	-10.58
274.503	116.39
274.719	30.38
274.934	95.91
275.15	9.9
275.366	63.15
275.581	-78.16
275.797	7.85
276.012	-18.77
276.228	13.99
276.444	16.04
276.659	13.99
276.875	-51.54
277.09	-16.73
277.306	7.85
277.521	13.99
277.737	59.05
277.952	16.04
278.168	48.81
278.383	40.62
278.599	65.19
278.814	50.86
279.03	-41.3
279.245	163.5
279.461	36.52
279.676	108.2
279.892	-6.49
280.107	16.04
280.322	57
280.538	42.67
280.753	20.14
280.969	-20.82
281.184	48.81
281.399	136.87
281.615	81.58
281.83	71.34
282.045	-2.39
282.26	9.9
282.476	63.15
282.691	11.95
282.906	26.28
283.122	65.19
283.337	5.8
283.552	5.8
283.767	-4.44
283.983	79.53
284.198	-10.58
284.413	124.58
284.628	-82.26
284.843	40.62
285.058	-8.53
285.274	38.57
285.489	-8.53
285.704	85.67
285.919	-119.12
286.134	22.19
286.349	65.19
286.564	5.8
286.779	147.11
286.995	42.67
287.21	-84.31
287.425	79.53
287.64	-16.73
287.855	-26.96
288.07	-47.44
288.285	81.58
288.5	143.02
288.715	75.43
288.93	-14.68
289.145	57
289.36	63.15
289.575	46.76
289.79	132.78
290.004	59.05
290.219	132.78
290.434	-33.11
290.649	5.8
290.864	-14.68
291.079	-6.49
291.294	93.87
291.509	75.43
291.724	1.71
291.938	-6.49
292.153	63.15
292.368	-22.87
292.583	69.29
292.798	-14.68
293.012	50.86
293.227	79.53
293.442	42.67
293.657	147.11
293.871	73.39
294.086	38.57
294.301	186.02
294.516	122.54
294.73	-78.16
294.945	-47.44
295.16	20.14
295.374	81.58
295.589	149.16
295.804	-2.39
296.018	50.86
296.233	132.78
296.447	106.15
296.662	5.8
296.877	143.02
297.091	147.11
297.306	46.76
297.52	36.52
297.735	7.85
297.949	100.01
298.164	22.19
298.378	91.82
298.593	-2.39
298.807	-43.35
299.022	100.01
299.236	140.97
299.451	24.23
299.665	-10.58
299.88	-0.34
300.094	44.71
300.309	48.81
300.523	63.15
300.737	30.38
300.952	50.86
301.166	126.63
301.381	18.09
301.595	69.29
301.809	-12.63
302.024	54.95
302.238	-22.87
302.452	155.3
302.667	20.14
302.881	192.17
303.095	54.95
303.309	132.78
303.524	-31.06
303.738	85.67
303.952	44.71
304.166	61.1
304.381	-100.69
304.595	136.87
304.809	-72.02
305.023	61.1
305.237	-16.73
305.452	-10.58
305.666	102.06
305.88	52.91
306.094	81.58
306.308	38.57
306.522	100.01
306.736	-20.82
306.95	89.77
307.164	40.62
307.379	36.52
307.593	179.88
307.807	114.34
308.021	124.58
308.235	18.09
308.449	-33.11
308.663	20.14
308.877	247.46
309.091	34.47
309.305	71.34
309.519	-57.68
309.733	102.06
309.947	-57.68
310.161	83.63
310.374	118.44
310.588	167.59
310.802	-26.96
311.016	16.04
311.23	95.91
311.444	-26.96
311.658	52.91
311.872	128.68
312.085	140.97
312.299	136.87
312.513	159.4
312.727	-41.3
312.941	-37.2
313.154	75.43
313.368	26.28
313.582	20.14
313.796	91.82
314.009	-10.58
314.223	95.91
314.437	20.14
314.651	138.92
314.864	20.14
315.078	-16.73
315.292	-43.35
315.505	22.19
315.719	38.57
315.933	42.67
316.146	-20.82
316.36	-31.06
316.573	83.63
316.787	48.81
317.001	91.82
317.214	20.14
317.428	85.67
317.641	-59.73
317.855	-63.83
318.068	106.15
318.282	36.52
318.495	77.48
318.709	165.54
318.922	42.67
319.136	112.3
319.349	44.71
319.563	-29.01
319.776	77.48
319.99	-98.64
320.203	54.95
320.417	-43.35
320.63	59.05
320.843	120.49
321.057	130.73
321.27	-12.63
321.483	91.82
321.697	126.63
321.91	20.14
322.124	106.15
322.337	79.53
322.55	-29.01
322.763	11.95
322.977	9.9
323.19	-63.83
323.403	32.43
323.617	67.24
323.83	95.91
324.043	-29.01
324.256	36.52
324.469	-59.73
324.683	124.58
324.896	7.85
325.109	54.95
325.322	-90.45
325.535	61.1
325.748	34.47
325.962	9.9
326.175	34.47
326.388	-20.82
326.601	143.02
326.814	-33.11
327.027	5.8
327.24	106.15
327.453	-94.55
327.666	63.15
327.879	95.91
328.092	73.39
328.305	34.47
328.518	-37.2
328.731	-2.39
328.944	5.8
329.157	77.48
329.37	52.91
329.583	181.93
329.796	83.63
330.009	-51.54
330.222	106.15
330.435	77.48
330.648	52.91
330.861	-2.39
331.073	81.58
331.286	83.63
331.499	-51.54
331.712	61.1
331.925	5.8
332.138	11.95
332.35	89.77
332.563	-2.39
332.776	188.07
332.989	-57.68
333.202	61.1
333.414	26.28
333.627	-2.39
333.84	-31.06
334.053	13.99
334.265	-6.49
334.478	-33.11
334.691	91.82
334.903	61.1
335.116	-12.63
335.329	-22.87
335.541	75.43
335.754	194.22
335.966	16.04
336.179	-45.4
336.392	16.04
336.604	73.39
336.817	122.54
337.029	38.57
337.242	5.8
337.454	83.63
337.667	44.71
337.88	186.02
338.092	69.29
338.305	32.43
338.517	-41.3
338.729	42.67
338.942	126.63
339.154	-65.88
339.367	-65.88
339.579	100.01
339.792	-31.06
340.004	102.06
340.217	38.57
340.429	63.15
340.641	-22.87
340.854	-20.82
341.066	40.62
341.278	188.07
341.491	122.54
341.703	13.99
341.915	32.43
342.128	65.19
342.34	1.71
342.552	-110.93
342.764	52.91
342.977	18.09
343.189	81.58
343.401	61.1
343.613	-55.64
343.826	75.43
344.038	-33.11
344.25	52.91
344.462	-47.44
344.674	67.24
344.886	-24.92
345.099	65.19
345.311	69.29
345.523	42.67
345.735	-53.59
345.947	52.91
346.159	16.04
346.371	3.75
346.583	-4.44
346.795	186.02
347.007	-26.96
347.219	-37.2
347.431	128.68
347.643	46.76
347.855	-45.4
348.067	89.77
348.279	-94.55
348.491	91.82
348.703	122.54
348.915	79.53
349.127	-39.25
349.339	89.77
349.551	-39.25
349.763	81.58
349.975	-31.06
350.187	46.76
350.399	157.35
350.61	69.29
350.822	5.8
351.034	52.91
351.246	71.34
351.458	106.15
351.669	77.48
351.881	122.54
352.093	177.83
352.305	124.58
352.517	32.43
352.728	85.67
352.94	11.95
353.152	5.8
353.363	34.47
353.575	73.39
353.787	220.84
353.999	63.15
354.21	134.82
354.422	-20.82
354.633	22.19
354.845	54.95
355.057	40.62
355.268	65.19
355.48	63.15
355.692	-72.02
355.903	73.39
356.115	7.85
356.326	-112.98
356.538	112.3
356.749	63.15
356.961	97.96
357.172	61.1
357.384	-37.2
357.595	179.88
357.807	20.14
358.018	-49.49
358.23	46.76
358.441	161.45
358.653	20.14
358.864	48.81
359.075	26.28
359.287	54.95
359.498	57
359.709	16.04
359.921	1.71
360.132	79.53
360.344	75.43
360.555	-35.16
360.766	-29.01
360.977	-0.34
361.189	110.25
361.4	-90.45
361.611	75.43
361.823	106.15
362.034	57
362.245	-29.01
362.456	54.95
362.667	79.53
362.879	-78.16
363.09	46.76
363.301	1.71
363.512	36.52
363.723	48.81
363.935	63.15
364.146	153.26
364.357	69.29
364.568	52.91
364.779	-8.53
364.99	65.19
365.201	3.75
365.412	52.91
365.623	-123.22
365.834	79.53
366.045	48.81
366.256	85.67
366.467	87.72
366.678	48.81
366.889	97.96
367.1	36.52
367.311	18.09
367.522	38.57
367.733	30.38
367.944	36.52
368.155	30.38
368.366	116.39
368.577	110.25
368.788	59.05
368.999	-8.53
369.209	-47.44
369.42	224.94
369.631	151.21
369.842	91.82
370.053	20.14
370.264	59.05
370.474	-2.39
370.685	106.15
370.896	-0.34
371.107	114.34
371.317	48.81
371.528	-16.73
371.739	79.53
371.95	93.87
372.16	7.85
372.371	-47.44
372.582	5.8
372.792	120.49
373.003	65.19
373.214	50.86
373.424	69.29
373.635	-76.12
373.846	67.24
374.056	-0.34
374.267	112.3
374.477	44.71
374.688	-12.63
374.898	20.14
375.109	-14.68
375.319	13.99
375.53	93.87
375.74	128.68
375.951	20.14
376.161	100.01
376.372	65.19
376.582	-35.16
376.793	20.14
377.003	-8.53
377.214	5.8
377.424	-0.34
377.635	87.72
377.845	30.38
378.055	26.28
378.266	-86.36
378.476	18.09
378.686	85.67
378.897	71.34
379.107	116.39
379.317	48.81
379.528	-6.49
379.738	67.24
379.948	52.91
380.158	140.97
380.369	54.95
380.579	85.67
380.789	-41.3
380.999	128.68
381.21	114.34
381.42	183.98
381.63	7.85
381.84	46.76
382.05	130.73
382.261	50.86
382.471	165.54
382.681	20.14
382.891	110.25
383.101	30.38
383.311	-67.92
383.521	-8.53
383.731	95.91
383.941	104.11
384.151	38.57
384.361	71.34
384.571	75.43
384.781	44.71
384.991	245.41
385.201	155.3
385.411	22.19
385.621	122.54
385.831	-35.16
386.041	-45.4
386.251	-2.39
386.461	54.95
386.671	38.57
386.881	9.9
387.091	57
387.301	81.58
387.511	85.67
387.72	59.05
387.93	161.45
388.14	-37.2
388.35	46.76
388.56	116.39
388.769	116.39
388.979	77.48
389.189	-84.31
389.399	87.72
389.609	75.43
389.818	97.96
390.028	34.47
390.238	136.87
390.447	24.23
390.657	134.82
390.867	26.28
391.076	-39.25
391.286	65.19
391.496	100.01
391.705	13.99
391.915	155.3
392.125	106.15
392.334	38.57
392.544	165.54
392.753	61.1
392.963	-41.3
393.172	40.62
393.382	57
393.591	198.31
393.801	24.23
394.01	183.98
394.22	54.95
394.429	22.19
394.639	75.43
394.848	83.63
395.058	44.71
395.267	-12.63
395.477	124.58
395.686	26.28
395.895	155.3
396.105	175.78
396.314	38.57
396.524	97.96
396.733	52.91
396.942	54.95
397.152	87.72
397.361	108.2
397.57	114.34
397.78	16.04
397.989	210.6
398.198	247.46
398.407	52.91
398.617	5.8
398.826	65.19
399.035	-14.68
399.244	81.58
399.453	61.1
399.663	40.62
399.872	28.33
400.081	-53.59
400.29	138.92
400.499	-0.34
400.708	38.57
400.917	32.43
401.127	1.71
401.336	-16.73
401.545	229.03
401.754	116.39
401.963	126.63
402.172	7.85
402.381	-80.21
402.59	67.24
402.799	26.28
403.008	83.63
403.217	50.86
403.426	81.58
403.635	-31.06
403.844	-0.34
404.053	-43.35
404.262	-67.92
404.471	155.3
404.68	71.34
404.888	32.43
405.097	67.24
405.306	128.68
405.515	79.53
405.724	52.91
405.933	97.96
406.142	81.58
406.35	85.67
406.559	89.77
406.768	93.87
406.977	130.73
407.185	93.87
407.394	69.29
407.603	-82.26
407.812	85.67
408.02	50.86
408.229	18.09
408.438	75.43
408.646	-20.82
408.855	-0.34
409.064	65.19
409.272	-24.92
409.481	83.63
409.69	-26.96
409.898	9.9
410.107	3.75
410.315	36.52
410.524	-63.83
410.733	30.38
410.941	67.24
411.15	171.69
411.358	87.72
411.567	231.08
411.775	46.76
411.984	71.34
412.192	38.57
412.401	40.62
412.609	143.02
412.818	143.02
413.026	100.01
413.234	50.86
413.443	61.1
413.651	-41.3
413.86	18.09
414.068	108.2
414.276	155.3
414.485	50.86
414.693	157.35
414.901	190.12
415.11	89.77
415.318	54.95
415.526	34.47
415.734	132.78
415.943	-35.16
416.151	159.4
416.359	16.04
416.567	161.45
416.776	79.53
416.984	65.19
417.192	118.44
417.4	7.85
417.608	-26.96
417.817	-10.58
418.025	48.81
418.233	208.55
418.441	-24.92
418.649	-67.92
418.857	67.24
419.065	224.94
419.273	38.57
419.481	63.15
419.689	-26.96
419.897	57
420.105	-78.16
420.313	73.39
420.521	73.39
420.729	102.06
420.937	108.2
421.145	-4.44
421.353	65.19
421.561	149.16
421.769	-16.73
421.977	-16.73
422.185	151.21
422.393	-4.44
422.601	128.68
422.809	75.43
423.017	11.95
423.224	75.43
423.432	169.64
423.64	32.43
423.848	134.82
424.056	-45.4
424.263	132.78
424.471	-18.77
424.679	196.26
424.887	-18.77
425.094	108.2
425.302	110.25
425.51	75.43
425.718	163.5
425.925	54.95
426.133	32.43
426.341	165.54
426.548	30.38
426.756	114.34
426.964	132.78
427.171	-33.11
427.379	83.63
427.586	118.44
427.794	93.87
428.001	81.58
428.209	132.78
428.417	163.5
428.624	220.84
428.832	104.11
429.039	165.54
429.247	145.06
429.454	110.25
429.662	130.73
429.869	214.7
430.076	89.77
430.284	153.26
430.491	239.27
430.699	163.5
430.906	233.13
431.114	214.7
431.321	237.22
431.528	143.02
431.736	216.74
431.943	147.11
432.15	159.4
432.358	194.22
432.565	194.22
432.772	26.28
432.979	237.22
433.187	138.92
433.394	245.41
433.601	116.39
433.808	192.17
434.016	253.61
434.223	210.6
434.43	247.46
434.637	292.52
434.844	317.09
435.052	220.84
435.259	259.75
435.466	296.61
435.673	267.94
435.88	272.04
436.087	358.05
436.294	315.05
436.501	278.18
436.708	304.81
436.915	323.24
437.122	351.91
437.329	349.86
437.537	245.41
437.743	267.94
437.95	394.92
438.157	366.25
438.364	376.48
438.571	384.68
438.778	499.36
438.985	442.02
439.192	384.68
439.399	417.44
439.606	462.5
439.813	587.43
440.02	593.57
440.227	693.92
440.433	525.99
440.64	497.32
440.847	458.4
441.054	640.67
441.261	685.73
441.467	667.3
441.674	661.15
441.881	792.22
442.088	708.26
442.294	863.9
442.501	741.02
442.708	949.92
442.914	810.65
443.121	874.14
443.328	906.91
443.534	937.63
443.741	796.32
443.948	847.52
444.154	1001.12
444.361	1261.21
444.568	1097.37
444.774	1060.51
444.981	1083.03
445.187	1244.82
445.394	1248.92
445.6	1144.47
445.807	1408.66
446.013	1293.97
446.22	1273.5
446.426	1484.44
446.633	1578.64
446.839	1654.42
447.046	1543.83
447.252	1969.8
447.459	1740.43
447.665	1744.53
447.871	1851.02
448.078	2000.52
448.284	2004.62
448.491	2156.17
448.697	2145.93
448.903	2393.73
449.11	2391.69
449.316	2258.57
449.522	2475.65
449.728	2690.69
449.935	2709.12
450.141	2621.06
450.347	2817.66
450.553	2918.01
450.76	2973.31
450.966	3102.33
451.172	3190.39
451.378	3292.79
451.584	3276.41
451.791	3599.99
451.997	3726.96
452.203	3599.99
452.409	3958.38
452.615	4101.74
452.821	4044.4
453.027	4105.84
453.233	4445.8
453.44	4398.7
453.646	4687.46
453.852	4968.03
454.058	5148.25
454.264	5262.94
454.47	5715.54
454.676	5443.16
454.882	6301.26
455.088	5934.67
455.294	6205
455.5	6682.18
455.705	6768.2
455.911	7140.93
456.117	6995.52
456.323	7487.03
456.529	7351.87
456.735	8064.56
456.941	8224.3
457.147	8769.06
457.352	9074.21
457.558	9016.87
457.764	9672.22
457.97	10042.9
458.176	10161.68
458.381	10886.66
458.587	11095.55
458.793	11593.21
458.999	11437.56
459.204	13047.27
459.41	13471.2
459.616	13231.58
459.821	14046.68
460.027	14556.62
460.233	15291.84
460.438	15519.17
460.644	16121.27
460.85	16444.85
461.055	17135.01
461.261	17841.56
461.466	17560.99
461.672	17685.92
461.878	20194.68
462.083	19762.56
462.289	20086.14
462.494	21034.35
462.7	20817.26
462.905	21171.56
463.111	23002.44
463.316	24452.41
463.522	24509.75
463.727	25472.29
463.932	26961.17
464.138	27264.27
464.343	28382.46
464.549	28527.86
464.754	30401.75
464.959	31118.54
465.165	31843.52
465.37	31630.54
465.575	31470.79
465.781	33778.86
465.986	34710.68
466.191	34026.66
466.397	34577.56
466.602	33862.82
466.807	35589.26
467.012	36269.19
467.218	36877.43
467.423	36838.52
467.628	37674.09
467.833	39709.77
468.038	38784.09
468.244	38480.99
468.449	40281.16
468.654	39312.47
468.859	39228.5
469.064	39427.15
469.269	38163.56
469.474	38616.16
469.679	40115.27
469.885	38642.78
470.09	39472.21
470.295	39171.16
470.5	38519.9
470.705	39021.66
470.91	37608.56
471.115	37237.87
471.32	38069.35
471.525	37653.61
471.73	36471.93
471.935	36050.05
472.139	34839.7
472.344	35034.26
472.549	35263.63
472.754	34280.61
472.959	33617.07
473.164	32369.85
473.369	31575.24
473.574	32779.45
473.778	31847.62
473.983	31519.95
474.188	31120.59
474.393	29072.62
474.598	29406.44
474.802	28880.11
475.007	28648.69
475.212	28202.24
475.417	26692.88
475.621	26729.75
475.826	26686.74
476.031	25877.79
476.235	25191.72
476.44	25457.96
476.645	24530.23
476.849	24098.11
477.054	24083.77
477.259	23020.88
477.463	23450.95
477.668	22642
477.872	22596.95
478.077	22261.08
478.282	21353.83
478.486	21185.9
478.691	21230.95
478.895	20686.19
479.1	20391.28
479.304	20272.5
479.509	19852.67
479.713	20045.18
479.918	19668.35
480.122	19363.2
480.326	19326.34
480.531	19248.52
480.735	19006.86
480.94	18603.41
481.144	19479.94
481.348	18247.06
481.553	18482.58
481.757	17804.7
481.961	18195.86
482.166	18269.59
482.37	17980.82
482.574	17434.02
482.778	17632.67
482.983	17763.74
483.187	17378.72
483.391	17524.13
483.595	17087.91
483.8	16819.63
484.004	16960.94
484.208	16815.53
484.412	16770.47
484.616	16446.9
484.821	16143.8
485.025	15734.2
485.229	15916.47
485.433	15738.3
485.637	15435.2
485.841	15463.87
486.045	15115.72
486.249	15005.13
486.453	14548.43
486.657	14458.32
486.861	14454.22
487.065	13587.93
487.269	13927.89
487.473	13422.05
487.677	13358.56
487.881	13417.95
488.085	12910.05
488.289	13084.13
488.493	12314.09
488.697	12320.24
488.901	12178.93
489.105	11865.59
489.309	11818.49
489.512	11623.93
489.716	11279.87
489.92	11062.79
490.124	10997.25
490.328	11042.31
490.531	10522.12
490.735	10419.72
490.939	10227.21
491.143	10006.03
491.346	9791
491.55	9850.39
491.754	9659.93
491.958	9391.64
492.161	9360.92
492.365	9188.89
492.569	9020.96
492.772	9031.2
492.976	8891.94
493.18	8689.19
493.383	8648.23
493.587	8402.47
493.79	8420.91
493.994	8234.54
494.197	8195.63
494.401	8042.03
494.605	8240.68
494.808	8113.71
495.012	7935.54
495.215	8029.74
495.419	7996.98
495.622	7728.69
495.825	7659.06
496.029	7716.4
496.232	7779.89
496.436	7614.01
496.639	7738.93
496.843	7517.75
497.046	7630.39
497.249	7683.64
497.453	7777.84
497.656	7659.06
497.859	7556.66
498.063	7708.21
498.266	7712.31
498.469	7546.42
498.673	7630.39
498.876	7704.12
499.079	7585.33
499.282	7585.33
499.485	8111.66
499.689	7861.81
499.892	8093.23
500.095	8074.8
500.298	8377.9
500.501	7910.96
500.705	8218.16
500.908	8185.39
501.111	8205.87
501.314	8379.95
501.517	8582.7
501.72	8533.54
501.923	8656.42
502.126	8683.05
502.329	8922.66
502.532	8924.71
502.735	9100.83
502.938	9338.4
503.141	9299.48
503.344	9168.41
503.547	9459.23
503.75	9594.39
503.953	9909.78
504.156	9840.15
504.359	9831.96
504.562	10071.57
504.765	10249.74
504.968	10491.4
505.17	10737.16
505.373	10583.56
505.576	11185.66
505.779	11140.61
505.982	11410.94
506.185	11582.97
506.387	11847.16
506.59	11992.56
506.793	12033.52
506.996	12291.57
507.198	12830.18
507.401	12830.18
507.604	13098.47
507.807	13286.88
508.009	13753.82
508.212	13817.3
508.415	14095.83
508.617	14132.69
508.82	14679.5
509.022	14484.94
509.225	15291.84
509.428	15812.03
509.63	15965.62
509.833	16281.01
510.035	16729.52
510.238	16905.64
510.44	17284.51
510.643	17771.93
510.845	18398.61
511.048	18369.94
511.25	18793.87
511.453	19043.72
511.655	20131.19
511.858	20288.89
512.06	20577.65
512.262	21108.07
512.465	21370.21
512.667	22000.99
512.87	22279.51
513.072	23004.49
513.274	23670.08
513.477	24094.01
513.679	24790.32
513.881	25373.99
514.084	25672.99
514.286	25959.71
514.488	26832.15
514.69	27522.31
514.893	28345.59
515.095	28464.38
515.297	28787.96
515.499	29256.94
515.701	30258.4
515.904	30794.96
516.106	31552.71
516.308	31976.64
516.51	33143.98
516.712	33234.1
516.914	33965.22
517.116	35032.21
517.318	35466.38
517.52	35966.09
517.722	36453.5
517.925	37461.1
518.127	38194.28
518.329	38562.91
518.531	39005.27
518.733	40131.65
518.935	40723.52
519.136	40846.4
519.338	42030.12
519.54	42531.87
519.742	43060.25
519.944	43351.06
520.146	44833.79
520.348	44676.1
520.55	45528.05
520.752	45489.14
520.954	46705.63
521.155	46537.7
521.357	47373.27
521.559	48264.14
521.761	48542.66
521.963	48559.05
522.164	49519.54
522.366	49767.35
522.568	50824.1
522.77	50674.6
522.971	51332
523.173	51094.43
523.375	51504.02
523.576	51700.63
523.778	51893.14
523.98	52497.29
524.181	52669.32
524.383	52439.95
524.584	53259.13
524.786	53656.44
524.988	52622.22
525.189	53169.02
525.391	53590.9
525.592	53285.76
525.794	53703.54
525.995	53648.25
526.197	53398.4
526.398	53283.71
526.6	53160.83
526.801	53216.13
527.003	53117.82
527.204	52898.69
527.406	52947.84
527.607	52300.68
527.808	52437.9
528.01	51010.46
528.211	51248.03
528.412	51622.81
528.614	51266.46
528.815	50951.07
529.016	50721.7
529.218	49988.53
529.419	49726.39
529.62	49562.55
529.822	48937.92
530.023	48317.39
530.224	48004.05
530.425	47991.76
530.626	46783.46
530.828	46570.47
531.029	46787.55
531.23	45652.98
531.431	45165.56
531.632	44897.28
531.833	44520.45
532.035	43721.74
532.236	43123.74
532.437	42591.26
532.638	42161.19
532.839	41909.29
533.04	41444.4
533.241	40367.17
533.442	40516.67
533.643	39851.08
533.844	39093.33
534.045	38745.18
534.246	37887.08
534.447	37749.87
534.648	37002.36
534.849	36617.34
535.05	36269.19
535.251	35681.42
535.451	35138.71
535.652	34909.33
535.853	34434.21
536.054	33705.13
536.255	33461.42
536.456	32709.82
536.657	32828.6
536.857	31876.29
537.058	31661.26
537.259	31153.36
537.46	31149.26
537.66	30315.74
537.861	30219.49
538.062	29404.39
538.263	28949.74
538.463	28650.74
538.664	28155.13
538.865	27968.77
539.065	27931.9
539.266	27276.55
539.466	27360.52
539.667	26207.51
539.868	26830.1
540.068	26062.11
540.269	25867.55
540.469	25806.11
540.67	25103.66
540.87	24911.15
541.071	24542.52
541.271	24456.5
541.472	24296.76
541.672	23799.1
541.873	23381.32
542.073	22805.84
542.274	23264.58
542.474	22596.95
542.675	22345.05
542.875	22158.68
543.075	21878.11
543.276	21151.08
543.476	21593.44
543.676	21200.23
543.877	20911.47
544.077	20827.5
544.277	20491.63
544.478	20231.54
544.678	20079.99
544.878	19772.8
545.078	19551.62
545.279	19023.24
545.479	19275.14
545.679	18881.93
545.879	18593.17
546.079	18558.35
546.28	18245.01
546.48	17905.05
546.68	18034.07
546.88	17599.9
547.08	17497.5
547.28	17278.37
547.48	16926.12
547.68	16833.96
547.88	16498.09
548.081	16448.94
548.281	16410.03
548.481	15838.65
548.681	16133.56
548.881	15486.4
549.081	15408.58
549.28	15300.03
549.48	14966.21
549.68	14837.19
549.88	14773.71
550.08	14095.83
550.28	14112.21
550.48	13970.9
550.68	13921.75
550.88	13508.06
551.08	13362.65
551.279	13223.39
551.479	12922.34
551.679	12801.51
551.879	12488.17
552.079	12602.86
552.278	12226.03
552.478	12361.2
552.678	12043.76
552.878	11886.07
553.077	11601.4
553.277	11070.98
553.477	11200
553.676	10921.48
553.876	10892.8
554.076	10642.95
554.275	10653.19
554.475	10245.65
554.674	10198.54
554.874	10102.29
555.074	9694.74
555.273	9563.67
555.473	9629.21
555.672	9440.79
555.872	9324.06
556.071	9127.46
556.271	9156.13
556.47	8846.88
556.67	8730.15
556.869	8551.98
557.068	8674.85
557.268	8361.52
557.467	8128.05
557.667	8177.2
557.866	7951.92
558.065	7886.39
558.265	7663.16
558.464	7394.87
558.663	7554.62
558.863	7280.19
559.062	7173.69
559.261	6991.42
559.461	6962.75
559.66	6874.69
559.859	6858.31
560.058	6616.65
560.258	6467.14
560.457	6405.7
560.656	6454.86
560.855	6164.04
561.054	6018.64
561.253	6008.4
561.453	6024.78
561.652	5887.57
561.851	5885.52
562.05	5422.68
562.249	5242.46
562.448	5572.18
562.647	5385.82
562.846	5115.48
563.045	5260.89
563.244	5052
563.443	5199.45
563.642	4968.03
563.841	4970.08
564.04	4765.28
564.239	4796
564.438	4836.96
564.637	4617.83
564.836	4578.92
565.035	4537.96
565.234	4542.05
565.432	4415.08
565.631	4331.11
565.83	4247.15
566.029	4322.92
566.228	4136.56
566.427	4073.07
566.625	3921.52
566.824	3970.67
567.023	4124.27
567.222	3737.2
567.42	3755.63
567.619	3851.89
567.818	3606.13
568.016	3880.56
568.215	3577.46
568.414	3673.71
568.612	3489.4
568.811	3323.51
569.01	3397.24
569.208	3268.22
569.407	3360.38
569.605	3171.96
569.804	3364.47
570.002	3231.35
570.201	2989.69
570.4	3055.23
570.598	2940.54
570.797	2950.78
570.995	2825.86
571.193	2848.38
571.392	2856.58
571.59	2643.59
571.789	2797.18
571.987	2659.97
572.186	2805.38
572.384	2657.92
572.582	2625.15
572.781	2655.87
572.979	2338.44
573.177	2428.55
573.376	2461.32
573.574	2522.76
573.772	2330.25
573.971	2377.35
574.169	2225.8
574.367	2285.19
574.565	2213.51
574.763	2057.87
574.962	2168.46
575.16	2078.35
575.358	2018.96
575.556	1873.55
575.754	2014.86
575.952	1988.24
576.151	1965.71
576.349	2000.52
576.547	1857.17
576.745	1918.61
576.943	1824.4
577.141	1771.15
577.339	1756.82
577.537	1853.07
577.735	1808.02
577.933	1738.38
578.131	1492.63
578.329	1781.39
578.527	1576.59
578.725	1689.23
578.923	1474.2
579.121	1646.23
579.319	1400.47
579.516	1441.43
579.714	1660.56
579.912	1527.44
580.11	1304.21
580.308	1412.76
580.506	1353.37
580.704	1244.82
580.901	1322.65
581.099	1339.03
581.297	1441.43
581.495	1377.94
581.692	1162.9
581.89	1341.08
582.088	1232.54
582.285	1201.82
582.483	1148.57
582.681	1126.04
582.878	1230.49
583.076	1201.82
583.274	1078.94
583.471	1173.14
583.669	1037.98
583.866	1060.51
584.064	1058.46
584.262	980.64
584.459	902.81
584.657	964.25
584.854	1068.7
585.052	1005.21
585.249	1023.64
585.447	954.01
585.644	781.98
585.841	1097.37
586.039	1060.51
586.236	992.92
586.434	849.57
586.631	908.96
586.828	851.61
587.026	835.23
587.223	720.54
587.42	796.32
587.618	923.29
587.815	874.14
588.012	831.13
588.21	767.65
588.407	814.75
588.604	759.46
588.801	771.74
588.999	765.6
589.196	835.23
589.393	689.82
589.59	759.46
589.787	788.13
589.984	665.25
590.182	763.55
590.379	655.01
590.576	689.82
590.773	769.69
590.97	624.29
591.167	751.26
591.364	734.88
591.561	757.41
591.758	749.22
591.955	747.17
592.152	671.39
592.349	685.73
592.546	646.82
592.743	632.48
592.94	589.47
593.137	624.29
593.334	720.54
593.531	812.7
593.727	632.48
593.924	681.63
594.121	724.64
594.318	734.88
594.515	673.44
594.712	784.03
594.908	784.03
595.105	620.19
595.302	722.59
595.499	577.19
595.696	763.55
595.892	759.46
596.089	870.05
596.286	802.46
596.482	841.37
596.679	824.99
596.876	777.89
597.072	870.05
597.269	861.85
597.466	894.62
597.662	882.33
597.859	896.67
598.055	933.53
598.252	1019.55
598.448	1056.41
598.645	1144.47
598.841	1154.71
599.038	1265.3
599.234	1281.69
599.431	1232.54
599.627	1316.5
599.824	1353.37
600.02	1291.93
600.217	1396.37
600.413	1463.96
600.609	1427.09
600.806	1785.49
601.002	1681.04
601.198	1558.16
601.395	1742.48
601.591	1803.92
601.787	1873.55
601.984	1957.52
602.18	1965.71
602.376	1955.47
602.572	2221.7
602.769	2369.16
602.965	2233.99
603.161	2399.88
603.357	2459.27
603.553	2696.83
603.75	2623.11
603.946	2752.13
604.142	2819.71
604.338	3036.8
604.534	3012.22
604.73	2954.88
604.926	3208.83
605.122	3456.63
605.318	3319.42
605.514	3432.05
605.71	3475.06
605.906	3796.59
606.102	3747.44
606.298	4052.59
606.494	4023.92
606.69	4230.76
606.886	4320.87
607.082	4468.33
607.278	4443.75
607.474	4540.01
607.67	4724.32
607.866	4802.15
608.062	5131.87
608.257	5269.08
608.453	5199.45
608.649	5498.45
608.845	5658.2
609.041	5639.76
609.236	5922.38
609.432	6080.08
609.628	6088.27
609.824	6219.34
610.019	6618.69
610.215	6815.3
610.411	6874.69
610.606	7239.23
610.802	7157.31
610.998	7360.06
611.193	7646.77
611.389	7734.84
611.584	8173.1
611.78	7980.59
611.976	8324.65
612.171	8943.14
612.367	8885.8
612.562	9014.82
612.758	9195.04
612.953	9354.78
613.149	9862.68
613.344	9895.44
613.539	10479.11
613.735	10636.81
613.93	11001.35
614.126	11187.71
614.321	11597.31
614.517	11546.11
614.712	12031.48
614.907	12299.76
615.103	12486.12
615.298	12824.04
615.493	13247.97
615.688	13477.34
615.884	14065.11
616.079	13966.81
616.274	14691.79
616.47	14747.08
616.665	15396.29
616.86	15646.14
617.055	16135.6
617.25	16199.09
617.445	16907.69
617.641	17030.57
617.836	17687.96
618.031	17878.43
618.226	18896.27
618.421	18861.45
618.616	19590.53
618.811	19780.99
619.006	20323.7
619.201	20723.05
619.396	21335.4
619.591	21650.78
619.786	22064.47
619.981	22547.79
620.176	23059.79
620.371	23199.05
620.566	24173.88
620.761	24053.05
620.956	24890.67
621.151	24960.3
621.346	25795.87
621.541	25912.61
621.735	26807.57
621.93	26918.16
622.125	27759.88
622.32	27692.29
622.515	28775.67
622.709	29265.13
622.904	29752.55
623.099	30397.66
623.294	30682.33
623.488	31370.44
623.683	32259.26
623.878	31886.53
624.072	32779.45
624.267	33250.48
624.462	33797.29
624.656	33936.55
624.851	34671.77
625.046	35052.69
625.24	35933.32
625.435	36002.95
625.629	36666.49
625.824	36752.51
626.018	37702.76
626.213	37231.73
626.407	38323.3
626.602	38558.81
626.796	39257.17
626.991	39271.51
627.185	39392.34
627.38	39861.32
627.574	39785.55
627.768	39875.66
627.963	40059.98
628.157	39840.84
628.352	40641.6
628.546	40250.44
628.74	40803.39
628.935	40059.98
629.129	40393.79
629.323	40121.41
629.517	39840.84
629.712	39519.31
629.906	39156.82
630.1	38810.71
630.294	38718.56
630.489	38001.77
630.683	37667.95
630.877	36271.23
631.071	35732.62
631.265	35912.84
631.459	34872.47
631.653	34155.68
631.848	33748.14
632.042	32689.34
632.236	32029.89
632.43	30899.41
632.624	30100.7
632.818	29113.58
633.012	28208.38
633.206	27372.81
633.4	26389.78
633.594	25476.39
633.788	24657.2
633.982	23997.76
634.176	22943.05
634.369	22252.89
634.563	21343.59
634.757	20395.38
634.951	19918.2
635.145	19131.78
635.339	18118.04
635.533	17501.6
635.726	16854.44
635.92	15963.58
636.114	15644.09
636.308	14861.77
636.501	14310.86
636.695	13497.82
636.889	12787.18
637.083	12410.35
637.276	12008.95
637.47	11462.14
637.664	10843.65
637.857	10661.38
638.051	10282.51
638.244	9774.61
638.438	9268.77
638.632	9111.07
638.825	8472.11
639.019	8547.88
639.212	8107.57
639.406	7765.56
639.599	7366.2
639.793	7249.47
639.986	6626.89
640.18	6489.67
640.373	6362.7
640.567	6010.45
640.76	5887.57
640.954	5580.37
641.147	5324.38
641.34	5103.2
641.534	5031.52
641.727	4925.02
641.92	4650.6
642.114	4474.47
642.307	4247.15
642.5	4152.94
642.694	3987.05
642.887	3802.74
643.08	3726.96
643.273	3520.12
643.467	3360.38
643.66	3182.2
643.853	3200.63
644.046	2995.84
644.239	2788.99
644.432	2719.36
644.626	2420.36
644.819	2494.08
645.012	2539.14
645.205	2399.88
645.398	2381.45
645.591	2240.14
645.784	2072.2
645.977	2115.21
646.17	1898.13
646.363	1904.27
646.556	1697.42
646.749	1576.59
646.942	1650.32
647.135	1652.37
647.328	1584.79
647.521	1494.68
647.714	1453.72
647.907	1445.52
648.099	1345.17
648.292	1353.37
648.485	1195.67
648.678	1132.19
648.871	1134.23
649.064	1056.41
649.256	964.25
649.449	941.72
649.642	943.77
649.835	906.91
650.027	747.17
650.22	1011.36
650.413	853.66
650.605	908.96
650.798	751.26
650.991	743.07
651.183	765.6
651.376	673.44
651.568	792.22
651.761	655.01
651.954	689.82
652.146	632.48
652.339	640.67
652.531	736.93
652.724	589.47
652.916	489.12
653.109	446.12
653.301	593.57
653.494	532.13
653.686	579.23
653.879	546.47
654.071	523.94
654.263	435.88
654.456	409.25
654.648	513.7
654.84	491.17
655.033	356.01
655.225	489.12
655.417	212.65
655.61	513.7
655.802	509.6
655.994	474.79
656.186	249.51
656.379	382.63
656.571	317.09
656.763	317.09
656.955	235.18
657.148	353.96
657.34	421.54
657.532	208.55
657.724	267.94
657.916	235.18
658.108	251.56
658.3	261.8
658.492	306.85
658.684	300.71
658.876	282.28
659.068	208.55
659.26	95.91
659.452	145.06
659.644	261.8
659.836	409.25
660.028	218.79
660.22	274.09
660.412	229.03
660.604	284.33
660.796	233.13
660.988	331.43
661.18	140.97
661.372	226.98
661.563	243.37
661.755	181.93
661.947	130.73
662.139	192.17
662.331	149.16
662.522	186.02
662.714	143.02
662.906	229.03
663.097	183.98
663.289	130.73
663.481	36.52
663.673	173.74
663.864	233.13
664.056	263.85
664.247	81.58
664.439	257.7
664.631	147.11
664.822	163.5
665.014	169.64
665.205	106.15
665.397	81.58
665.588	192.17
665.78	171.69
665.971	196.26
666.163	102.06
666.354	171.69
666.546	38.57
666.737	54.95
666.929	83.63
667.12	100.01
667.311	61.1
667.503	231.08
667.694	140.97
667.885	136.87
668.077	206.5
668.268	67.24
668.459	140.97
668.651	77.48
668.842	106.15
669.033	24.23
669.224	-84.31
669.416	376.48
669.607	28.33
669.798	108.2
669.989	247.46
670.18	153.26
670.371	171.69
670.563	-37.2
670.754	214.7
670.945	188.07
671.136	212.65
671.327	136.87
671.518	138.92
671.709	192.17
671.9	149.16
672.091	177.83
672.282	116.39
672.473	91.82
672.664	77.48
672.855	149.16
673.046	149.16
673.237	263.85
673.428	190.12
673.619	132.78
673.809	106.15
674	122.54
674.191	220.84
674.382	22.19
674.573	69.29
674.764	97.96
674.954	175.78
675.145	102.06
675.336	-35.16
675.527	67.24
675.717	157.35
675.908	63.15
676.099	95.91
676.289	114.34
676.48	59.05
676.671	149.16
676.861	73.39
677.052	175.78
677.243	143.02
677.433	114.34
677.624	165.54
677.814	186.02
678.005	48.81
678.195	241.32
678.386	79.53
678.576	169.64
678.767	77.48
678.957	114.34
679.148	97.96
679.338	247.46
679.529	145.06
679.719	89.77
679.909	323.24
680.1	206.5
680.29	214.7
680.481	63.15
680.671	167.59
680.861	136.87
681.052	93.87
681.242	32.43
681.432	196.26
681.622	128.68
681.813	52.91
682.003	120.49
682.193	100.01
682.383	104.11
682.573	116.39
682.764	149.16
682.954	267.94
683.144	294.57
683.334	177.83
683.524	151.21
683.714	95.91
683.904	231.08
684.094	143.02
684.284	206.5
684.474	198.31
684.664	247.46
684.854	192.17
685.044	136.87
685.234	181.93
685.424	194.22
685.614	42.67
685.804	292.52
685.994	110.25
686.184	108.2
686.374	243.37
686.564	165.54
686.753	231.08
686.943	69.29
687.133	122.54
687.323	167.59
687.513	138.92
687.702	134.82
687.892	114.34
688.082	255.65
688.272	290.47
688.461	220.84
688.651	251.56
688.841	216.74
689.03	124.58
689.22	171.69
689.41	245.41
689.599	202.41
689.789	138.92
689.979	245.41
690.168	196.26
690.358	259.75
690.547	251.56
690.737	188.07
690.926	196.26
691.116	257.7
691.305	218.79
691.495	226.98
691.684	93.87
691.874	220.84
692.063	112.3
692.252	286.37
692.442	243.37
692.631	73.39
692.82	153.26
693.01	222.89
693.199	226.98
693.388	196.26
693.578	241.32
693.767	202.41
693.956	267.94
694.146	198.31
694.335	290.47
694.524	140.97
694.713	233.13
694.902	214.7
695.092	89.77
695.281	245.41
695.47	140.97
695.659	145.06
695.848	186.02
696.037	61.1
696.226	218.79
696.415	173.74
696.604	386.72
696.793	239.27
696.982	106.15
697.171	315.05
697.36	153.26
697.549	91.82
697.738	83.63
697.927	136.87
698.116	104.11
698.305	226.98
698.494	188.07
698.683	194.22
698.872	296.61
699.061	159.4
699.25	116.39
699.438	186.02
699.627	196.26
699.816	263.85
700.005	61.1
700.193	167.59
700.382	237.22
700.571	179.88
700.76	229.03
700.948	181.93
701.137	143.02
701.326	267.94
701.514	89.77
701.703	253.61
701.892	132.78
702.08	259.75
702.269	169.64
702.457	157.35
702.646	216.74
702.834	120.49
703.023	255.65
703.212	261.8
703.4	212.65
703.589	85.67
703.777	128.68
703.965	87.72
704.154	155.3
704.342	112.3
704.531	151.21
704.719	177.83
704.907	274.09
705.096	108.2
705.284	73.39
705.472	77.48
705.661	194.22
705.849	259.75
706.037	198.31
706.226	247.46
706.414	296.61
706.602	69.29
706.79	206.5
706.979	104.11
707.167	206.5
707.355	1.71
707.543	204.46
707.731	226.98
707.919	190.12
708.107	93.87
708.296	165.54
708.484	110.25
708.672	183.98
708.86	147.11
709.048	149.16
709.236	190.12
709.424	204.46
709.612	167.59
709.8	-0.34
709.988	128.68
710.176	267.94
710.364	292.52
710.551	145.06
710.739	147.11
710.927	108.2
711.115	181.93
711.303	192.17
711.491	263.85
711.679	167.59
711.866	208.55
712.054	192.17
712.242	188.07
712.43	261.8
712.617	149.16
712.805	226.98
712.993	214.7
713.181	77.48
713.368	136.87
713.556	153.26
713.744	106.15
713.931	370.34
714.119	214.7
714.306	181.93
714.494	183.98
714.682	179.88
714.869	104.11
715.057	216.74
715.244	140.97
715.432	214.7
715.619	267.94
715.807	194.22
715.994	147.11
716.182	208.55
716.369	261.8
716.556	296.61
716.744	102.06
716.931	140.97
717.119	177.83
717.306	165.54
717.493	216.74
717.681	73.39
717.868	157.35
718.055	284.33
718.242	138.92
718.43	343.72
718.617	364.2
718.804	108.2
718.991	351.91
719.179	212.65
719.366	298.66
719.553	194.22
719.74	224.94
719.927	241.32
720.114	157.35
720.301	110.25
720.488	54.95
720.676	87.72
720.863	360.1
721.05	358.05
721.237	175.78
721.424	118.44
721.611	155.3
721.798	126.63
721.985	186.02
722.172	120.49
722.358	140.97
722.545	157.35
722.732	204.46
722.919	284.33
723.106	280.23
723.293	167.59
723.48	231.08
723.667	134.82
723.853	292.52
724.04	267.94
724.227	294.57
724.414	173.74
724.6	241.32
724.787	308.9
724.974	323.24
725.161	274.09
725.347	198.31
725.534	188.07
725.72	366.25
725.907	255.65
726.094	257.7
726.28	179.88
726.467	183.98
726.653	177.83
726.84	274.09
727.027	366.25
727.213	292.52
727.4	267.94
727.586	313
727.773	222.89
727.959	169.64
728.145	192.17
728.332	216.74
728.518	181.93
728.705	267.94
728.891	245.41
729.077	241.32
729.264	177.83
729.45	165.54
729.636	310.95
729.823	171.69
730.009	358.05
730.195	251.56
730.382	261.8
730.568	132.78
730.754	186.02
730.94	206.5
731.126	204.46
731.313	259.75
731.499	196.26
731.685	272.04
731.871	237.22
732.057	183.98
732.243	313
732.429	183.98
732.615	360.1
732.801	261.8
732.987	241.32
733.173	306.85
733.359	136.87
733.545	237.22
733.731	167.59
733.917	349.86
734.103	343.72
734.289	290.47
734.475	200.36
734.661	374.44
734.847	247.46
735.033	284.33
735.219	263.85
735.404	190.12
735.59	204.46
735.776	198.31
735.962	202.41
736.148	269.99
736.333	321.19
736.519	304.81
736.705	181.93
736.89	284.33
737.076	198.31
737.262	85.67
737.447	224.94
737.633	153.26
737.819	237.22
738.004	300.71
738.19	233.13
738.375	298.66
738.561	345.77
738.747	245.41
738.932	153.26
739.118	380.58
739.303	345.77
739.489	364.2
739.674	202.41
739.859	157.35
740.045	249.51
740.23	222.89
740.416	116.39
740.601	196.26
740.786	239.27
740.972	159.4
741.157	224.94
741.342	204.46
741.528	194.22
741.713	345.77
741.898	206.5
742.084	202.41
742.269	198.31
742.454	224.94
742.639	302.76
742.824	214.7
743.01	405.16
743.195	261.8
743.38	210.6
743.565	165.54
743.75	286.37
743.935	226.98
744.12	282.28
744.305	161.45
744.49	237.22
744.675	257.7
744.86	165.54
745.045	222.89
745.23	247.46
745.415	239.27
745.6	376.48
745.785	196.26
745.97	329.38
746.155	331.43
746.34	296.61
746.525	241.32
746.71	362.15
746.895	208.55
747.079	110.25
747.264	73.39
747.449	263.85
747.634	286.37
747.819	255.65
748.003	202.41
748.188	165.54
748.373	308.9
748.557	222.89
748.742	214.7
748.927	255.65
749.111	267.94
749.296	231.08
749.481	302.76
749.665	126.63
749.85	190.12
750.034	265.89
750.219	194.22
750.404	200.36
750.588	183.98
750.773	157.35
750.957	183.98
751.141	171.69
751.326	181.93
751.51	124.58
751.695	126.63
751.879	163.5
752.064	278.18
752.248	108.2
752.432	274.09
752.617	276.13
752.801	202.41
752.985	165.54
753.17	231.08
753.354	173.74
753.538	155.3
753.722	140.97
753.907	36.52
754.091	120.49
754.275	272.04
754.459	71.34
754.643	175.78
754.828	173.74
755.012	112.3
755.196	67.24
755.38	218.79
755.564	89.77
755.748	116.39
755.932	173.74
756.116	257.7
756.3	249.51
756.484	138.92
756.668	188.07
756.852	30.38
757.036	167.59
757.22	190.12
757.404	163.5
757.588	104.11
757.772	112.3
757.956	85.67
758.14	183.98
758.323	65.19
758.507	198.31
758.691	159.4
758.875	214.7
759.059	237.22
759.242	63.15
759.426	73.39
759.61	198.31
759.794	40.62
759.977	204.46
760.161	272.04
760.345	216.74
760.528	224.94
760.712	102.06
760.895	177.83
761.079	114.34
761.263	93.87
761.446	46.76
761.63	77.48
761.813	192.17
761.997	75.43
762.18	67.24
762.364	157.35
762.547	-35.16
762.731	54.95
762.914	95.91
763.098	59.05
763.281	48.81
763.464	9.9
763.648	91.82
763.831	34.47
764.015	50.86
764.198	153.26
764.381	153.26
764.564	71.34
764.748	206.5
764.931	122.54
765.114	124.58
765.297	188.07
765.481	50.86
765.664	44.71
765.847	-18.77
766.03	161.45
766.213	124.58
766.397	120.49
766.58	20.14
766.763	118.44
766.946	83.63
767.129	73.39
767.312	102.06
767.495	50.86
767.678	13.99
767.861	128.68
768.044	16.04
768.227	87.72
768.41	24.23
768.593	95.91
768.776	95.91
768.959	30.38
769.142	140.97
769.324	87.72
769.507	-18.77
769.69	-14.68
769.873	71.34
770.056	212.65
770.239	57
770.421	151.21
770.604	128.68
770.787	34.47
770.97	140.97
771.152	-33.11
771.335	106.15
771.518	48.81
771.7	194.22
771.883	169.64
772.066	28.33
772.248	67.24
772.431	128.68
772.613	67.24
772.796	71.34
772.978	112.3
773.161	214.7
773.343	69.29
773.526	-29.01
773.708	13.99
773.891	-31.06
774.073	75.43
774.256	100.01
774.438	155.3
774.621	-12.63
774.803	79.53
774.985	75.43
775.168	52.91
775.35	69.29
775.532	69.29
775.715	-6.49
775.897	30.38
776.079	54.95
776.261	112.3
776.444	42.67
776.626	54.95
776.808	91.82
776.99	-18.77
777.173	63.15
777.355	50.86
777.537	44.71
777.719	28.33
777.901	73.39
778.083	20.14
778.265	-47.44
778.447	40.62
778.629	3.75
778.811	85.67
778.993	140.97
779.175	36.52
779.357	69.29
779.539	-74.07
779.721	54.95
779.903	71.34
780.085	40.62
780.267	-8.53
780.449	9.9
780.631	32.43
780.812	145.06
780.994	44.71
781.176	3.75
781.358	110.25
781.54	67.24
781.721	100.01
781.903	93.87
782.085	7.85
782.267	130.73
782.448	30.38
782.63	87.72
782.812	54.95
782.993	67.24
783.175	69.29
783.357	83.63
783.538	75.43
783.72	28.33
783.901	26.28
784.083	97.96
784.264	73.39
784.446	-29.01
784.627	-20.82
784.809	100.01
784.99	-4.44
785.172	42.67
785.353	65.19
785.535	38.57
785.716	42.67
785.897	-88.4
786.079	85.67
786.26	-31.06
786.441	79.53
786.623	-39.25
786.804	11.95
786.985	48.81
787.167	71.34
787.348	71.34
787.529	-41.3
787.71	143.02
787.891	7.85
788.073	26.28
788.254	-100.69
788.435	44.71
788.616	-12.63
788.797	-33.11
788.978	-110.93
789.159	54.95
789.34	100.01
789.522	100.01
789.703	-26.96
789.884	7.85
790.065	65.19
790.246	198.31
790.427	-51.54
790.607	57
790.788	20.14
790.969	-45.4
791.15	-26.96
791.331	-39.25
791.512	-8.53
791.693	-74.07
791.874	-33.11
792.054	202.41
792.235	75.43
792.416	-43.35
792.597	-49.49
792.778	40.62
792.958	42.67
793.139	16.04
793.32	30.38
793.5	20.14
793.681	93.87
793.862	-8.53
794.042	-14.68
794.223	-108.88
794.404	-20.82
794.584	-106.84
794.765	-10.58
794.945	-37.2
795.126	16.04
795.306	140.97
795.487	16.04
795.667	93.87
795.848	73.39
796.028	32.43
796.209	36.52
796.389	104.11
796.57	18.09
796.75	-53.59
796.93	-18.77
797.111	-24.92
797.291	-57.68
797.471	59.05
797.652	-47.44
797.832	20.14
798.012	32.43
798.192	-80.21
798.373	-94.55
798.553	75.43
798.733	-10.58
798.913	-35.16
799.093	-29.01
799.274	24.23
799.454	81.58
799.634	13.99
799.814	77.48
799.994	36.52
800.174	32.43
800.354	-45.4
800.534	-59.73
800.714	-6.49
800.894	-123.22
801.074	-20.82
801.254	-63.83
801.434	59.05
801.614	-59.73
801.794	-10.58
801.974	1969.8
802.154	24.23
802.334	79.53
802.514	-72.02
802.693	13.99
802.873	-78.16
803.053	81.58
803.233	97.96
803.413	-41.3
803.592	-84.31
803.772	-55.64
803.952	-4.44
804.131	-24.92
804.311	57
804.491	59.05
804.67	-65.88
804.85	-72.02
805.03	28.33
805.209	46.76
805.389	-16.73
805.568	18.09
805.748	-65.88
805.928	22.19
806.107	13.99
806.287	46.76
806.466	54.95
806.646	-67.92
806.825	-33.11
807.004	-65.88
807.184	-41.3
807.363	11.95
807.543	13.99
807.722	-59.73
807.901	91.82
808.081	67.24
808.26	-78.16
808.439	63.15
808.619	73.39
808.798	-33.11
808.977	-31.06
809.156	97.96
809.336	22.19
809.515	65.19
809.694	-86.36
809.873	-90.45
810.052	63.15
810.231	126.63
810.411	67.24
810.59	104.11
810.769	1.71
810.948	9.9
811.127	-88.4
811.306	54.95
811.485	-6.49
811.664	102.06
811.843	-22.87
812.022	54.95
812.201	32.43
812.38	-4.44
812.559	-39.25
812.737	79.53
812.916	-110.93
813.095	-72.02
813.274	36.52
813.453	-39.25
813.632	9.9
813.811	46.76
813.989	-102.74
814.168	24.23
814.347	-0.34
814.526	11.95
814.704	104.11
814.883	65.19
815.062	-31.06
815.24	36.52
815.419	-49.49
815.598	-12.63
815.776	-92.5
815.955	-16.73
816.133	-121.17
816.312	22.19
816.49	-26.96
816.669	7.85
816.847	-61.78
817.026	73.39
817.204	22.19
817.383	-69.97
817.561	-59.73
817.74	-6.49
817.918	40.62
818.097	-63.83
818.275	-82.26
818.453	63.15
818.632	30.38
818.81	-47.44
818.988	-51.54
819.167	-96.6
819.345	-61.78
819.523	-102.74
819.701	-51.54
819.879	22.19
820.058	-98.64
820.236	3.75
820.414	-37.2
820.592	-39.25
820.77	18.09
820.948	-12.63
821.127	-72.02
821.305	-33.11
821.483	-26.96
821.661	-29.01
821.839	16.04
822.017	-88.4
822.195	-2.39
822.373	-6.49
822.551	-86.36
822.729	42.67
822.907	-88.4
823.085	57
823.262	38.57
823.44	-61.78
823.618	-6.49
823.796	-57.68
823.974	-0.34
824.152	-65.88
824.329	-10.58
824.507	-10.58
824.685	67.24
824.863	-90.45
825.04	16.04
825.218	30.38
825.396	-22.87
825.574	50.86
825.751	7.85
825.929	-4.44
826.107	-22.87
826.284	9.9
826.462	-0.34
826.639	-35.16
826.817	-112.98
826.994	1.71
827.172	-39.25
827.349	91.82
827.527	-6.49
827.704	-10.58
827.882	32.43
828.059	7.85
828.237	-33.11
828.414	-16.73
828.591	-141.65
828.769	-10.58
828.946	-2.39
829.124	34.47
829.301	42.67
829.478	11.95
829.655	95.91
829.833	-67.92
830.01	-131.41
830.187	-47.44
830.364	-24.92
830.542	40.62
830.719	34.47
830.896	67.24
831.073	-33.11
831.25	63.15
831.427	-0.34
831.604	-20.82
831.782	-20.82
831.959	63.15
832.136	18.09
832.313	-8.53
832.49	-10.58
832.667	-2.39
832.844	-2.39
833.021	-29.01
833.198	40.62
833.374	28.33
833.551	59.05
833.728	-20.82
833.905	26.28
834.082	-141.65
834.259	11.95
834.436	36.52
834.612	-29.01
834.789	112.3
834.966	65.19
835.143	-4.44
835.319	-80.21
835.496	81.58
835.673	-6.49
835.85	44.71
836.026	-45.4
836.203	57
836.38	-24.92
836.556	-49.49
836.733	-59.73
836.909	104.11
837.086	-14.68
837.262	-115.03
837.439	-31.06
837.616	-102.74
837.792	-29.01
837.968	-22.87
838.145	-69.97
838.321	-69.97
838.498	69.29
838.674	63.15
838.851	95.91
839.027	-63.83
839.203	-0.34
839.38	26.28
839.556	-102.74
839.732	48.81
839.909	-2.39
840.085	18.09
840.261	-78.16
840.437	89.77
840.614	-2.39
840.79	65.19
840.966	-16.73
841.142	-31.06
841.318	-37.2
841.494	-20.82
841.671	38.57
841.847	-100.69
842.023	-51.54
842.199	-2.39
842.375	75.43
842.551	-129.36
842.727	-55.64
842.903	102.06
843.079	-88.4
843.255	46.76
843.431	-16.73
843.607	44.71
843.783	-76.12
843.959	-12.63
844.134	-61.78
844.31	54.95
844.486	22.19
844.662	-117.08
844.838	1.71
845.013	-10.58
845.189	44.71
845.365	120.49
845.541	-65.88
845.716	-49.49
845.892	50.86
846.068	1.71
846.244	-61.78
846.419	1.71
846.595	5.8
846.77	-47.44
846.946	75.43
847.122	-37.2
847.297	-69.97
847.473	175.78
847.648	-125.27
847.824	44.71
847.999	-172.37
848.175	-65.88
848.35	13.99
848.526	40.62
848.701	81.58
848.876	89.77
849.052	69.29
849.227	-18.77
849.403	73.39
849.578	-51.54
849.753	11.95
849.929	16.04
850.104	-80.21
850.279	-78.16
850.454	-45.4
850.63	-35.16
850.805	36.52
850.98	-8.53
851.155	1.71
851.33	-37.2
851.505	-37.2
851.681	79.53
851.856	-104.79
852.031	-2.39
852.206	40.62
852.381	-29.01
852.556	-12.63
852.731	42.67
852.906	40.62
853.081	26.28
853.256	30.38
853.431	-47.44
853.606	-6.49
853.781	-45.4
853.956	-100.69
854.131	-18.77
854.305	-59.73
854.48	-92.5
854.655	-47.44
854.83	-0.34
855.005	-20.82
855.18	-26.96
855.354	-12.63
855.529	54.95
855.704	-26.96
855.879	24.23
856.053	-98.64
856.228	-67.92
856.403	-55.64
856.577	-14.68
856.752	-76.12
856.926	-55.64
857.101	-41.3
857.276	-162.13
857.45	52.91
857.625	20.14
857.799	-49.49
857.974	-55.64
858.148	-47.44
858.323	-12.63
858.497	7.85
858.672	-84.31
858.846	-47.44
859.02	65.19
859.195	-80.21
859.369	-76.12
859.543	-4.44
859.718	-4.44
859.892	-6.49
860.066	-10.58
860.241	9.9
860.415	-12.63
860.589	-78.16
860.763	-8.53
860.938	-16.73
861.112	-22.87
861.286	-8.53
861.46	13.99
861.634	-88.4
861.808	46.76
861.982	-65.88
862.157	-59.73
862.331	-41.3
862.505	-67.92
862.679	-127.32
862.853	-74.07
863.027	9.9
863.201	126.63
863.375	-47.44
863.549	57
863.722	65.19
863.896	91.82
864.07	-31.06
864.244	44.71
864.418	18.09
864.592	-39.25
864.766	-35.16
864.939	-26.96
865.113	-14.68
865.287	97.96
865.461	-160.08
865.634	32.43
865.808	-33.11
865.982	-45.4
866.156	-29.01
866.329	-51.54
866.503	13.99
866.676	-35.16
866.85	34.47
867.024	-41.3
867.197	-0.34
867.371	22.19
867.544	-0.34
867.718	-78.16
867.891	95.91
868.065	-84.31
868.238	-2.39
868.412	42.67
868.585	3.75
868.759	-86.36
868.932	-18.77
869.105	-133.46
869.279	-45.4
869.452	-22.87
869.625	-45.4
869.799	-10.58
869.972	-67.92
870.145	-69.97
870.319	22.19
870.492	-49.49
870.665	-72.02
870.838	-125.27
871.011	-196.95
871.185	-67.92
871.358	-16.73
871.531	11.95
871.704	-49.49
871.877	11.95
872.05	7.85
872.223	-98.64
872.396	112.3
872.569	83.63
872.742	-131.41
872.915	20.14
873.088	-4.44
873.261	-41.3
873.434	9.9
873.607	-53.59
873.78	59.05
873.953	-76.12
874.126	-26.96
874.299	57
874.471	-69.97
874.644	-49.49
874.817	3.75
874.99	153.26
875.163	-53.59
875.335	-18.77
875.508	-29.01
875.681	40.62
875.853	-72.02
876.026	-63.83
876.199	-8.53
876.371	-20.82
876.544	-31.06
876.717	-10.58
876.889	-10.58
877.062	18.09
877.234	-6.49
877.407	-133.46
877.579	-31.06
877.752	-47.44
877.924	42.67
878.097	40.62
878.269	34.47
878.442	24.23
878.614	57
878.786	-69.97
878.959	-43.35
879.131	13.99
879.303	-133.46
879.476	-51.54
879.648	11.95
879.82	-45.4
879.993	-31.06
880.165	-4.44
880.337	-26.96
880.509	13.99
880.681	-172.37
880.854	-88.4
881.026	-6.49
881.198	177.83
881.37	-4.44
881.542	5.8
881.714	-59.73
881.886	-43.35
882.058	5.8
882.23	57
882.402	-2.39
882.574	26.28
882.746	-14.68
882.918	36.52
883.09	44.71
883.262	-2.39
883.434	-43.35
883.606	-125.27
883.778	-22.87
883.95	136.87
884.122	-51.54
884.293	-37.2
884.465	7.85
884.637	97.96
884.809	-24.92
884.98	13.99
885.152	13.99
885.324	50.86
885.496	-164.18
885.667	-31.06
885.839	-94.55
886.011	63.15
886.182	46.76
886.354	67.24
886.525	3.75
886.697	-45.4
886.869	-65.88
887.04	-18.77
887.212	50.86
887.383	128.68
887.555	42.67
887.726	13.99
887.897	-110.93
888.069	-0.34
888.24	36.52
888.412	-94.55
888.583	9.9
888.754	26.28
888.926	-102.74
889.097	-84.31
889.268	-92.5
889.44	63.15
889.611	-129.36
889.782	-106.84
889.953	-55.64
890.125	73.39
890.296	-0.34
890.467	-29.01
890.638	-112.98
890.809	-10.58
890.98	-90.45
891.151	-82.26
891.323	81.58
891.494	5.8
891.665	-20.82
891.836	75.43
892.007	11.95
892.178	1.71
892.349	65.19
892.52	-69.97
892.691	-22.87
892.862	-14.68
893.032	-65.88
893.203	-6.49
893.374	-22.87
893.545	73.39
893.716	-26.96
893.887	20.14
894.057	-57.68
894.228	59.05
894.399	-47.44
894.57	71.34
894.74	-16.73
894.911	85.67
895.082	26.28
895.253	-59.73
895.423	-35.16
895.594	-12.63
895.764	-33.11
895.935	-119.12
896.106	34.47
896.276	-33.11
896.447	-2.39
896.617	-41.3
896.788	-6.49
896.958	-59.73
897.129	-72.02
897.299	-53.59
897.47	63.15
897.64	32.43
897.81	-4.44
897.981	-35.16
898.151	-18.77
898.322	-29.01
898.492	3.75
898.662	-80.21
898.832	-104.79
899.003	-63.83
899.173	38.57
899.343	-102.74
899.513	-61.78
