Data from USB4F104151__175__11-05-01-435.txt Node

Date: Wed Feb 26 11:05:01 EST 2025
User: louis
Spectrometer: USB4F10415
Trigger mode: 4
Integration Time (sec): 1.000000E-1
Scans to average: 1
Electric dark correction enabled: true
Nonlinearity correction enabled: false
Boxcar width: 0
XAxis mode: Wavelengths
Number of Pixels in Spectrum: 3648
>>>>>Begin Spectral Data<<<<<
178.204	-401.06
178.424	-401.06
178.644	-401.06
178.864	-384.68
179.084	-468.64
179.304	-1.71
179.524	-32.43
179.744	22.87
179.964	29.01
180.184	-20.14
180.404	33.11
180.624	-30.38
180.844	16.73
181.064	-24.23
181.283	-9.9
181.503	6.49
181.723	10.58
181.943	-145.06
182.163	98.64
182.383	-48.81
182.602	20.82
182.822	110.93
183.042	29.01
183.262	18.77
183.482	-93.87
183.701	20.82
183.921	26.96
184.141	-87.72
184.361	31.06
184.58	108.88
184.8	51.54
185.02	-16.04
185.239	121.17
185.459	90.45
185.679	155.99
185.898	-71.34
186.118	35.16
186.338	106.84
186.557	80.21
186.777	-11.95
186.997	31.06
187.216	29.01
187.436	145.75
187.655	16.73
187.875	94.55
188.095	14.68
188.314	141.65
188.534	94.55
188.753	-28.33
188.973	139.6
189.192	69.97
189.412	41.3
189.631	86.36
189.851	102.74
190.07	149.84
190.29	-34.47
190.509	-36.52
190.729	29.01
190.948	209.23
191.168	256.34
191.387	-3.75
191.607	-32.43
191.826	39.25
192.045	-20.14
192.265	-5.8
192.484	31.06
192.704	55.64
192.923	-38.57
193.142	172.37
193.362	61.78
193.581	121.17
193.8	-11.95
194.02	104.79
194.239	82.26
194.458	74.07
194.678	-36.52
194.897	-36.52
195.116	57.68
195.335	115.03
195.555	92.5
195.774	8.53
195.993	88.4
196.212	-34.47
196.432	12.63
196.651	-40.62
196.87	2.39
197.089	291.15
197.308	18.77
197.528	47.44
197.747	-50.86
197.966	-11.95
198.185	133.46
198.404	-36.52
198.623	158.03
198.842	82.26
199.062	35.16
199.281	133.46
199.5	78.16
199.719	123.22
199.938	53.59
200.157	65.88
200.376	149.84
200.595	176.47
200.814	55.64
201.033	-9.9
201.252	115.03
201.471	31.06
201.69	125.27
201.909	2.39
202.128	119.12
202.347	2.39
202.566	33.11
202.785	-38.57
203.004	-69.29
203.223	246.1
203.442	-22.19
203.661	-91.82
203.879	98.64
204.098	98.64
204.317	-26.28
204.536	104.79
204.755	104.79
204.974	137.56
205.193	4.44
205.411	147.8
205.63	141.65
205.849	98.64
206.068	-46.76
206.287	-52.91
206.505	123.22
206.724	16.73
206.943	-52.91
207.162	41.3
207.381	119.12
207.599	84.31
207.818	0.34
208.037	-77.48
208.255	6.49
208.474	78.16
208.693	102.74
208.911	12.63
209.13	63.83
209.349	33.11
209.567	0.34
209.786	82.26
210.005	86.36
210.223	162.13
210.442	-104.11
210.661	61.78
210.879	41.3
211.098	4.44
211.316	8.53
211.535	49.49
211.753	-13.99
211.972	86.36
212.191	31.06
212.409	-7.85
212.628	88.4
212.846	12.63
213.065	-16.04
213.283	166.23
213.502	-54.95
213.72	-36.52
213.938	8.53
214.157	53.59
214.375	158.03
214.594	31.06
214.812	149.84
215.031	26.96
215.249	0.34
215.467	76.12
215.686	8.53
215.904	55.64
216.122	-16.04
216.341	162.13
216.559	74.07
216.778	29.01
216.996	80.21
217.214	-52.91
217.432	-52.91
217.651	-102.06
217.869	43.35
218.087	-13.99
218.306	8.53
218.524	-16.04
218.742	100.69
218.96	82.26
219.179	12.63
219.397	20.82
219.615	227.67
219.833	80.21
220.051	-63.15
220.27	143.7
220.488	96.6
220.706	0.34
220.924	-85.67
221.142	-9.9
221.36	67.92
221.578	78.16
221.796	88.4
222.015	31.06
222.233	53.59
222.451	180.56
222.669	43.35
222.887	104.79
223.105	16.73
223.323	22.87
223.541	-79.53
223.759	-1.71
223.977	-32.43
224.195	184.66
224.413	80.21
224.631	57.68
224.849	69.97
225.067	127.32
225.285	-26.28
225.503	4.44
225.721	-100.01
225.939	51.54
226.157	41.3
226.375	221.52
226.592	-87.72
226.81	65.88
227.028	115.03
227.246	51.54
227.464	96.6
227.682	94.55
227.9	82.26
228.117	31.06
228.335	104.79
228.553	41.3
228.771	63.83
228.989	59.73
229.206	121.17
229.424	18.77
229.642	12.63
229.86	-22.19
230.077	67.92
230.295	59.73
230.513	78.16
230.731	65.88
230.948	100.69
231.166	115.03
231.384	-5.8
231.601	-24.23
231.819	147.8
232.037	-110.25
232.254	-26.28
232.472	-57
232.689	24.92
232.907	94.55
233.125	-38.57
233.342	8.53
233.56	-54.95
233.777	-46.76
233.995	24.92
234.213	158.03
234.43	-7.85
234.648	39.25
234.865	-42.67
235.083	119.12
235.3	63.83
235.518	110.93
235.735	170.32
235.953	135.51
236.17	33.11
236.388	26.96
236.605	18.77
236.822	72.02
237.04	123.22
237.257	43.35
237.475	-30.38
237.692	-16.04
237.909	125.27
238.127	33.11
238.344	104.79
238.562	-26.28
238.779	-7.85
238.996	-46.76
239.214	57.68
239.431	67.92
239.648	45.4
239.865	76.12
240.083	63.83
240.3	-40.62
240.517	33.11
240.735	55.64
240.952	35.16
241.169	86.36
241.386	45.4
241.603	6.49
241.821	76.12
242.038	131.41
242.255	49.49
242.472	-34.47
242.689	39.25
242.907	57.68
243.124	33.11
243.341	31.06
243.558	-116.39
243.775	-134.82
243.992	-52.91
244.209	55.64
244.426	135.51
244.643	-11.95
244.86	22.87
245.078	117.08
245.295	53.59
245.512	43.35
245.729	-93.87
245.946	10.58
246.163	49.49
246.38	-3.75
246.597	65.88
246.814	63.83
247.031	61.78
247.248	41.3
247.464	69.97
247.681	47.44
247.898	76.12
248.115	-1.71
248.332	-28.33
248.549	37.2
248.766	117.08
248.983	49.49
249.2	51.54
249.417	63.83
249.633	6.49
249.85	31.06
250.067	74.07
250.284	59.73
250.501	43.35
250.717	6.49
250.934	-36.52
251.151	37.2
251.368	24.92
251.585	37.2
251.801	82.26
252.018	-46.76
252.235	104.79
252.451	-79.53
252.668	43.35
252.885	110.93
253.102	76.12
253.318	20.82
253.535	-7.85
253.752	35.16
253.968	-36.52
254.185	-52.91
254.401	51.54
254.618	26.96
254.835	-59.05
255.051	88.4
255.268	129.36
255.484	16.73
255.701	63.83
255.917	61.78
256.134	-32.43
256.351	-38.57
256.567	-69.29
256.784	-9.9
257	-73.39
257.217	-26.28
257.433	127.32
257.65	49.49
257.866	119.12
258.082	-42.67
258.299	-38.57
258.515	22.87
258.732	39.25
258.948	12.63
259.165	69.97
259.381	-1.71
259.597	47.44
259.814	8.53
260.03	24.92
260.246	20.82
260.463	78.16
260.679	125.27
260.895	-5.8
261.112	26.96
261.328	35.16
261.544	-46.76
261.761	125.27
261.977	-57
262.193	33.11
262.409	74.07
262.626	55.64
262.842	-34.47
263.058	63.83
263.274	106.84
263.49	-11.95
263.707	74.07
263.923	90.45
264.139	-54.95
264.355	8.53
264.571	72.02
264.787	121.17
265.004	123.22
265.22	-18.09
265.436	-46.76
265.652	-1.71
265.868	131.41
266.084	-7.85
266.3	67.92
266.516	-42.67
266.732	51.54
266.948	69.97
267.164	-24.23
267.38	104.79
267.596	31.06
267.812	205.14
268.028	98.64
268.244	-18.09
268.46	82.26
268.676	86.36
268.892	39.25
269.108	-48.81
269.324	-57
269.54	-38.57
269.756	69.97
269.972	-3.75
270.188	-36.52
270.403	-73.39
270.619	61.78
270.835	33.11
271.051	6.49
271.267	37.2
271.483	57.68
271.698	84.31
271.914	41.3
272.13	37.2
272.346	59.73
272.562	29.01
272.777	112.98
272.993	41.3
273.209	-22.19
273.425	106.84
273.64	-13.99
273.856	115.03
274.072	-110.25
274.287	26.96
274.503	100.69
274.719	37.2
274.934	-32.43
275.15	-81.58
275.366	26.96
275.581	-32.43
275.797	51.54
276.012	6.49
276.228	12.63
276.444	-32.43
276.659	47.44
276.875	0.34
277.09	39.25
277.306	12.63
277.521	106.84
277.737	-9.9
277.952	72.02
278.168	37.2
278.383	10.58
278.599	22.87
278.814	47.44
279.03	84.31
279.245	119.12
279.461	0.34
279.676	49.49
279.892	-83.63
280.107	14.68
280.322	-13.99
280.538	72.02
280.753	-28.33
280.969	47.44
281.184	8.53
281.399	84.31
281.615	47.44
281.83	31.06
282.045	-22.19
282.26	-18.09
282.476	8.53
282.691	55.64
282.906	57.68
283.122	37.2
283.337	-89.77
283.552	112.98
283.767	-57
283.983	104.79
284.198	-5.8
284.413	67.92
284.628	-26.28
284.843	-3.75
285.058	80.21
285.274	-24.23
285.489	-85.67
285.704	61.78
285.919	-11.95
286.134	-9.9
286.349	-1.71
286.564	-7.85
286.779	65.88
286.995	31.06
287.21	-77.48
287.425	86.36
287.64	-20.14
287.855	53.59
288.07	-40.62
288.285	45.4
288.5	162.13
288.715	37.2
288.93	-34.47
289.145	-38.57
289.36	26.96
289.575	-11.95
289.79	102.74
290.004	-16.04
290.219	102.74
290.434	-73.39
290.649	14.68
290.864	-61.1
291.079	16.73
291.294	-5.8
291.509	29.01
291.724	24.92
291.938	-48.81
292.153	39.25
292.368	35.16
292.583	14.68
292.798	31.06
293.012	18.77
293.227	119.12
293.442	-81.58
293.657	14.68
293.871	149.84
294.086	-13.99
294.301	139.6
294.516	127.32
294.73	41.3
294.945	-46.76
295.16	-3.75
295.374	129.36
295.589	100.69
295.804	31.06
296.018	117.08
296.233	51.54
296.447	59.73
296.662	0.34
296.877	115.03
297.091	45.4
297.306	35.16
297.52	49.49
297.735	49.49
297.949	-1.71
298.164	24.92
298.378	57.68
298.593	-79.53
298.807	-7.85
299.022	-13.99
299.236	104.79
299.451	-9.9
299.665	43.35
299.88	12.63
300.094	-1.71
300.309	24.92
300.523	123.22
300.737	33.11
300.952	37.2
301.166	-3.75
301.381	10.58
301.595	-32.43
301.809	24.92
302.024	-38.57
302.238	65.88
302.452	143.7
302.667	-18.09
302.881	47.44
303.095	37.2
303.309	59.73
303.524	-69.29
303.738	57.68
303.952	8.53
304.166	6.49
304.381	-153.26
304.595	121.17
304.809	-54.95
305.023	-3.75
305.237	-7.85
305.452	6.49
305.666	119.12
305.88	115.03
306.094	35.16
306.308	47.44
306.522	172.37
306.736	45.4
306.95	133.46
307.164	55.64
307.379	20.82
307.593	92.5
307.807	162.13
308.021	69.97
308.235	47.44
308.449	-112.3
308.663	16.73
308.877	158.03
309.091	-34.47
309.305	33.11
309.519	-100.01
309.733	86.36
309.947	-100.01
310.161	76.12
310.374	51.54
310.588	115.03
310.802	-44.71
311.016	-9.9
311.23	26.96
311.444	-46.76
311.658	86.36
311.872	127.32
312.085	96.6
312.299	115.03
312.513	158.03
312.727	57.68
312.941	-9.9
313.154	43.35
313.368	-7.85
313.582	12.63
313.796	59.73
314.009	84.31
314.223	108.88
314.437	65.88
314.651	88.4
314.864	-7.85
315.078	-7.85
315.292	-54.95
315.505	-63.15
315.719	31.06
315.933	82.26
316.146	4.44
316.36	-13.99
316.573	110.93
316.787	143.7
317.001	82.26
317.214	-40.62
317.428	63.83
317.641	12.63
317.855	4.44
318.068	8.53
318.282	8.53
318.495	119.12
318.709	90.45
318.922	10.58
319.136	143.7
319.349	67.92
319.563	-71.34
319.776	20.82
319.99	-79.53
320.203	35.16
320.417	22.87
320.63	55.64
320.843	119.12
321.057	106.84
321.27	41.3
321.483	102.74
321.697	92.5
321.91	45.4
322.124	47.44
322.337	94.55
322.55	-48.81
322.763	12.63
322.977	0.34
323.19	6.49
323.403	61.78
323.617	69.97
323.83	115.03
324.043	49.49
324.256	53.59
324.469	-97.96
324.683	88.4
324.896	-28.33
325.109	43.35
325.322	-16.04
325.535	115.03
325.748	139.6
325.962	-9.9
326.175	100.69
326.388	41.3
326.601	55.64
326.814	2.39
327.027	35.16
327.24	117.08
327.453	-118.44
327.666	47.44
327.879	147.8
328.092	35.16
328.305	121.17
328.518	-54.95
328.731	-34.47
328.944	59.73
329.157	104.79
329.37	-100.01
329.583	147.8
329.796	72.02
330.009	-26.28
330.222	123.22
330.435	80.21
330.648	55.64
330.861	84.31
331.073	82.26
331.286	31.06
331.499	6.49
331.712	4.44
331.925	10.58
332.138	33.11
332.35	65.88
332.563	-79.53
332.776	106.84
332.989	-7.85
333.202	-73.39
333.414	41.3
333.627	41.3
333.84	-44.71
334.053	92.5
334.265	-69.29
334.478	-3.75
334.691	16.73
334.903	29.01
335.116	-44.71
335.329	22.87
335.541	-3.75
335.754	147.8
335.966	-28.33
336.179	6.49
336.392	0.34
336.604	6.49
336.817	94.55
337.029	47.44
337.242	22.87
337.454	39.25
337.667	72.02
337.88	106.84
338.092	55.64
338.305	55.64
338.517	-65.19
338.729	57.68
338.942	164.18
339.154	-52.91
339.367	-9.9
339.579	-3.75
339.792	-26.28
340.004	61.78
340.217	-46.76
340.429	59.73
340.641	20.82
340.854	-46.76
341.066	-40.62
341.278	100.69
341.491	90.45
341.703	51.54
341.915	-22.19
342.128	51.54
342.34	108.88
342.552	-85.67
342.764	53.59
342.977	100.69
343.189	26.96
343.401	33.11
343.613	-22.19
343.826	-5.8
344.038	-7.85
344.25	-11.95
344.462	-20.14
344.674	102.74
344.886	-34.47
345.099	45.4
345.311	20.82
345.523	18.77
345.735	-50.86
345.947	98.64
346.159	133.46
346.371	-22.19
346.583	24.92
346.795	162.13
347.007	39.25
347.219	31.06
347.431	74.07
347.643	137.56
347.855	22.87
348.067	164.18
348.279	-46.76
348.491	8.53
348.703	47.44
348.915	-28.33
349.127	-136.87
349.339	80.21
349.551	-3.75
349.763	45.4
349.975	43.35
350.187	47.44
350.399	164.18
350.61	-7.85
350.822	4.44
351.034	14.68
351.246	10.58
351.458	115.03
351.669	-3.75
351.881	47.44
352.093	74.07
352.305	86.36
352.517	65.88
352.728	72.02
352.94	-20.14
353.152	86.36
353.363	-28.33
353.575	125.27
353.787	69.97
353.999	47.44
354.21	176.47
354.422	-18.09
354.633	31.06
354.845	20.82
355.057	6.49
355.268	37.2
355.48	96.6
355.692	6.49
355.903	96.6
356.115	-16.04
356.326	-75.43
356.538	90.45
356.749	86.36
356.961	188.75
357.172	-7.85
357.384	16.73
357.595	127.32
357.807	37.2
358.018	-20.14
358.23	31.06
358.441	160.08
358.653	110.93
358.864	-26.28
359.075	12.63
359.287	0.34
359.498	98.64
359.709	76.12
359.921	35.16
360.132	14.68
360.344	14.68
360.555	37.2
360.766	84.31
360.977	43.35
361.189	84.31
361.4	-34.47
361.611	129.36
361.823	127.32
362.034	10.58
362.245	-3.75
362.456	-11.95
362.667	98.64
362.879	-11.95
363.09	-52.91
363.301	63.83
363.512	51.54
363.723	-42.67
363.935	-42.67
364.146	24.92
364.357	20.82
364.568	104.79
364.779	-42.67
364.99	119.12
365.201	-77.48
365.412	86.36
365.623	-46.76
365.834	108.88
366.045	31.06
366.256	80.21
366.467	26.96
366.678	-61.1
366.889	-24.23
367.1	16.73
367.311	61.78
367.522	10.58
367.733	78.16
367.944	69.97
368.155	8.53
368.366	76.12
368.577	100.69
368.788	108.88
368.999	-24.23
369.209	6.49
369.42	201.04
369.631	186.71
369.842	96.6
370.053	-13.99
370.264	67.92
370.474	49.49
370.685	131.41
370.896	86.36
371.107	172.37
371.317	160.08
371.528	41.3
371.739	86.36
371.95	67.92
372.16	61.78
372.371	-77.48
372.582	-42.67
372.792	16.73
373.003	96.6
373.214	16.73
373.424	49.49
373.635	6.49
373.846	74.07
374.056	8.53
374.267	76.12
374.477	16.73
374.688	-87.72
374.898	69.97
375.109	55.64
375.319	-36.52
375.53	119.12
375.74	12.63
375.951	33.11
376.161	59.73
376.372	78.16
376.582	-1.71
376.793	8.53
377.003	24.92
377.214	22.87
377.424	76.12
377.635	72.02
377.845	10.58
378.055	108.88
378.266	-28.33
378.476	-63.15
378.686	37.2
378.897	108.88
379.107	45.4
379.317	69.97
379.528	-20.14
379.738	131.41
379.948	-3.75
380.158	49.49
380.369	-24.23
380.579	139.6
380.789	-106.15
380.999	100.69
381.21	110.93
381.42	149.84
381.63	86.36
381.84	82.26
382.05	65.88
382.261	162.13
382.471	49.49
382.681	0.34
382.891	178.51
383.101	112.98
383.311	-34.47
383.521	-79.53
383.731	65.88
383.941	104.79
384.151	121.17
384.361	-38.57
384.571	0.34
384.781	80.21
384.991	106.84
385.201	123.22
385.411	63.83
385.621	39.25
385.831	92.5
386.041	8.53
386.251	45.4
386.461	115.03
386.671	37.2
386.881	4.44
387.091	12.63
387.301	188.75
387.511	-11.95
387.72	74.07
387.93	145.75
388.14	-77.48
388.35	39.25
388.56	55.64
388.769	127.32
388.979	-24.23
389.189	-1.71
389.399	112.98
389.609	16.73
389.818	88.4
390.028	88.4
390.238	72.02
390.447	63.83
390.657	102.74
390.867	51.54
391.076	-73.39
391.286	100.69
391.496	20.82
391.705	6.49
391.915	67.92
392.125	125.27
392.334	10.58
392.544	63.83
392.753	-18.09
392.963	-5.8
393.172	76.12
393.382	-3.75
393.591	180.56
393.801	47.44
394.01	125.27
394.22	39.25
394.429	10.58
394.639	29.01
394.848	-26.28
395.058	147.8
395.267	20.82
395.477	98.64
395.686	31.06
395.895	168.27
396.105	164.18
396.314	49.49
396.524	10.58
396.733	-20.14
396.942	76.12
397.152	67.92
397.361	168.27
397.57	63.83
397.78	92.5
397.989	80.21
398.198	133.46
398.407	-20.14
398.617	16.73
398.826	31.06
399.035	-34.47
399.244	69.97
399.453	82.26
399.663	63.83
399.872	41.3
400.081	18.77
400.29	96.6
400.499	-13.99
400.708	96.6
400.917	53.59
401.127	-48.81
401.336	59.73
401.545	198.99
401.754	227.67
401.963	6.49
402.172	-42.67
402.381	-48.81
402.59	6.49
402.799	8.53
403.008	49.49
403.217	8.53
403.426	94.55
403.635	14.68
403.844	65.88
404.053	-20.14
404.262	0.34
404.471	135.51
404.68	63.83
404.888	-7.85
405.097	4.44
405.306	86.36
405.515	61.78
405.724	-30.38
405.933	92.5
406.142	98.64
406.35	110.93
406.559	-100.01
406.768	20.82
406.977	88.4
407.185	-9.9
407.394	29.01
407.603	-50.86
407.812	37.2
408.02	76.12
408.229	4.44
408.438	65.88
408.646	-120.49
408.855	29.01
409.064	74.07
409.272	-40.62
409.481	102.74
409.69	-28.33
409.898	-69.29
410.107	94.55
410.315	153.94
410.524	-79.53
410.733	20.82
410.941	-11.95
411.15	98.64
411.358	108.88
411.567	135.51
411.775	35.16
411.984	16.73
412.192	80.21
412.401	33.11
412.609	110.93
412.818	78.16
413.026	57.68
413.234	-11.95
413.443	-3.75
413.651	-26.28
413.86	35.16
414.068	123.22
414.276	137.56
414.485	-30.38
414.693	121.17
414.901	162.13
415.11	41.3
415.318	102.74
415.526	43.35
415.734	94.55
415.943	65.88
416.151	164.18
416.359	-1.71
416.567	26.96
416.776	61.78
416.984	57.68
417.192	127.32
417.4	-52.91
417.608	51.54
417.817	51.54
418.025	131.41
418.233	168.27
418.441	-95.91
418.649	-30.38
418.857	18.77
419.065	100.69
419.273	-7.85
419.481	-38.57
419.689	18.77
419.897	6.49
420.105	-7.85
420.313	131.41
420.521	170.32
420.729	100.69
420.937	6.49
421.145	20.82
421.353	112.98
421.561	119.12
421.769	57.68
421.977	45.4
422.185	129.36
422.393	59.73
422.601	57.68
422.809	74.07
423.017	98.64
423.224	98.64
423.432	72.02
423.64	67.92
423.848	80.21
424.056	-36.52
424.263	129.36
424.471	82.26
424.679	155.99
424.887	-85.67
425.094	51.54
425.302	78.16
425.51	47.44
425.718	108.88
425.925	45.4
426.133	14.68
426.341	262.48
426.548	53.59
426.756	2.39
426.964	65.88
427.171	37.2
427.379	86.36
427.586	92.5
427.794	115.03
428.001	119.12
428.209	72.02
428.417	131.41
428.624	155.99
428.832	24.92
429.039	45.4
429.247	51.54
429.454	100.69
429.662	145.75
429.869	72.02
430.076	31.06
430.284	186.71
430.491	196.95
430.699	108.88
430.906	203.09
431.114	18.77
431.321	160.08
431.528	117.08
431.736	143.7
431.943	160.08
432.15	149.84
432.358	172.37
432.565	196.95
432.772	-22.19
432.979	190.8
433.187	78.16
433.394	219.47
433.601	100.69
433.808	168.27
434.016	272.72
434.223	231.76
434.43	182.61
434.637	256.34
434.844	274.77
435.052	217.43
435.259	239.95
435.466	227.67
435.673	237.91
435.88	332.11
436.087	252.24
436.294	313.68
436.501	264.53
436.708	252.24
436.915	213.33
437.122	332.11
437.329	239.95
437.537	256.34
437.743	371.02
437.95	424.27
438.157	381.26
438.364	323.92
438.571	332.11
438.778	366.93
438.985	340.3
439.192	438.61
439.399	358.74
439.606	475.47
439.813	549.2
440.02	571.72
440.227	629.07
440.433	598.35
440.64	409.94
440.847	506.19
441.054	569.68
441.261	620.88
441.467	581.96
441.674	502.09
441.881	655.69
442.088	569.68
442.294	676.17
442.501	747.85
442.708	700.75
442.914	710.99
443.121	825.67
443.328	674.12
443.534	1014.09
443.741	870.73
443.948	762.19
444.154	954.69
444.361	1171.78
444.568	936.26
444.774	1075.52
444.981	895.3
445.187	1014.09
445.394	1100.1
445.6	1132.87
445.807	1245.51
446.013	1261.89
446.22	1194.31
446.426	1321.28
446.633	1425.73
446.839	1524.03
447.046	1380.67
447.252	1603.9
447.459	1642.81
447.665	1591.61
447.871	1689.92
448.078	1890.62
448.284	1741.11
448.491	1900.86
448.697	1923.38
448.903	2089.27
449.11	2156.85
449.316	2013.49
449.522	2244.92
449.728	2287.92
449.935	2449.71
450.141	2431.28
450.347	2609.45
450.553	2472.24
450.76	2703.66
450.966	2791.72
451.172	3010.86
451.378	3037.48
451.584	2910.5
451.791	3455.26
451.997	3291.43
452.203	3344.67
452.409	3586.33
452.615	3758.36
452.821	3748.12
453.027	3662.11
453.233	4155.67
453.44	4094.23
453.646	4239.64
453.852	4356.37
454.058	4526.35
454.264	4645.13
454.47	5042.44
454.676	5038.34
454.882	5587.2
455.088	5157.13
455.294	5632.26
455.5	5959.93
455.705	6373.62
455.911	6371.57
456.117	6439.16
456.323	6691.06
456.529	6541.55
456.735	7190.76
456.941	7473.38
457.147	7854.3
457.352	7860.45
457.558	8141.02
457.764	8890.57
457.97	9027.79
458.176	9269.45
458.381	9928.89
458.587	9898.17
458.793	10430.65
458.999	10510.52
459.204	11886.75
459.41	12089.5
459.616	11860.13
459.821	12634.26
460.027	13254.8
460.233	13850.75
460.438	13777.03
460.644	14735.48
460.85	14684.28
461.055	15505.51
461.261	16306.27
461.466	15902.82
461.672	16302.17
461.878	17913.92
462.083	17983.55
462.289	18124.86
462.494	18987.06
462.7	18982.96
462.905	19386.41
463.111	21274.64
463.316	21995.53
463.522	22650.88
463.727	22859.77
463.932	24176.61
464.138	25161.69
464.343	26126.28
464.549	26011.59
464.754	27983.79
464.959	28661.66
465.165	29007.77
465.37	28940.19
465.575	28899.23
465.781	30760.83
465.986	31727.47
466.191	31352.69
466.397	31893.36
466.602	30797.7
466.807	32681.83
467.012	33169.24
467.218	33687.38
467.423	33668.95
467.628	34879.3
467.833	36210.48
468.038	35456.82
468.244	35010.37
468.449	37162.78
468.654	36394.79
468.859	36130.61
469.064	36276.01
469.269	35129.15
469.474	35815.22
469.679	36312.88
469.885	35594.04
470.09	36114.22
470.295	36103.98
470.5	35501.88
470.705	35393.34
470.91	34520.9
471.115	34092.88
471.32	34871.11
471.525	34395.98
471.73	33486.68
471.935	33077.08
472.139	31952.75
472.344	32384.87
472.549	32307.05
472.754	31377.27
472.959	30783.36
473.164	29929.36
473.369	29046.68
473.574	30291.85
473.778	29370.26
473.983	29026.2
474.188	28397.48
474.393	26828.73
474.598	27084.73
474.802	26347.46
475.007	26240.96
475.212	25663.44
475.417	25075.67
475.621	24496.1
475.826	24563.68
476.031	23488.49
476.235	23316.47
476.44	23431.15
476.645	22538.24
476.849	22054.92
477.054	22036.49
477.259	21501.97
477.463	21344.27
477.668	20680.73
477.872	20887.57
478.077	20336.67
478.282	19716.14
478.486	19755.05
478.691	19468.33
478.895	19023.92
479.1	19038.26
479.304	18911.28
479.509	18417.72
479.713	18595.9
479.918	18298.94
480.122	17547.34
480.326	17995.84
480.531	17854.53
480.735	17430.6
480.94	17229.9
481.144	18110.53
481.348	17068.11
481.553	17082.45
481.757	16638.04
481.961	16795.73
482.166	16846.93
482.37	16789.59
482.574	16373.85
482.778	16324.7
482.983	16648.28
483.187	16173.15
483.391	15988.83
483.595	15771.75
483.8	15431.79
484.004	15743.08
484.208	15417.45
484.412	15394.92
484.616	15145.07
484.821	15181.93
485.025	14671.99
485.229	14739.57
485.433	14438.52
485.637	14405.75
485.841	13940.86
486.045	13936.77
486.249	13813.89
486.453	13392.01
486.657	13238.41
486.861	13136.01
487.065	12644.5
487.269	12525.72
487.473	12361.88
487.677	12456.09
487.881	12505.24
488.085	12026.01
488.289	11866.27
488.493	11669.67
488.697	11501.73
488.901	11133.1
489.105	10926.25
489.309	10846.38
489.512	10784.94
489.716	10367.16
489.92	10318.01
490.124	10121.4
490.328	9976
490.531	9715.91
490.735	9799.87
490.939	9435.33
491.143	9007.31
491.346	8878.29
491.55	8986.83
491.754	8847.57
491.958	8704.21
492.161	8456.4
492.365	8423.64
492.569	8210.65
492.772	8186.07
492.976	8106.2
493.18	7766.24
493.383	7954.65
493.587	7600.35
493.79	7676.13
493.994	7682.27
494.197	7270.63
494.401	7315.69
494.605	7196.9
494.808	7311.59
495.012	7196.9
495.215	7241.96
495.419	7203.05
495.622	6869.23
495.825	6953.2
496.029	6818.03
496.232	7024.87
496.436	6744.3
496.639	6996.2
496.843	6619.38
497.046	6793.45
497.249	6951.15
497.453	6865.13
497.656	6697.2
497.859	6711.53
498.063	6832.37
498.266	7028.97
498.469	6848.75
498.673	6947.05
498.876	6799.6
499.079	6924.52
499.282	6861.04
499.485	6801.65
499.689	7051.5
499.892	7184.62
500.095	7131.37
500.298	7143.66
500.501	7055.59
500.705	7256.29
500.908	7452.9
501.111	7198.95
501.314	7475.43
501.517	7680.22
501.72	7606.5
501.923	7645.41
502.126	7819.49
502.329	7700.7
502.532	7897.31
502.735	7813.34
502.938	8261.85
503.141	8130.78
503.344	8102.11
503.547	8237.27
503.75	8229.08
503.953	8493.27
504.156	8648.91
504.359	8759.5
504.562	8714.45
504.765	8927.44
504.968	8952.01
505.17	9162.95
505.373	9390.28
505.576	9631.94
505.779	9795.78
505.982	9631.94
506.185	10244.28
506.387	10180.79
506.59	10387.64
506.793	10549.43
506.996	10768.56
507.198	11077.8
507.401	11036.84
507.604	11188.39
507.807	11591.84
508.009	11681.96
508.212	11999.39
508.415	12171.42
508.617	12486.81
508.82	12830.87
509.022	12787.86
509.225	12961.94
509.428	13144.2
509.63	13701.25
509.833	13750.4
510.035	14448.76
510.238	14549.11
510.44	14663.8
510.643	15265.9
510.845	15487.08
511.048	15579.24
511.25	16107.62
511.453	16572.5
511.655	17270.86
511.858	17373.26
512.06	17453.13
512.262	17989.7
512.465	18382.91
512.667	18835.51
512.87	19292.21
513.072	19507.24
513.274	20332.58
513.477	20715.55
513.679	21002.26
513.881	21577.74
514.084	22214.66
514.286	22384.64
514.488	22970.36
514.69	23713.77
514.893	24328.16
515.095	24786.91
515.297	25118.68
515.499	25466.83
515.701	25839.56
515.904	26664.89
516.106	27303.86
516.308	27609.01
516.51	28417.96
516.712	28753.82
516.914	29122.46
517.116	30066.57
517.318	30244.74
517.52	30842.75
517.722	31545.2
517.925	32096.11
518.127	32966.49
518.329	33511.25
518.531	33730.39
518.733	34674.5
518.935	35094.33
519.136	35704.63
519.338	36247.34
519.54	36548.39
519.742	37238.56
519.944	38024.98
520.146	38620.94
520.348	38788.87
520.55	39171.84
520.752	39683.83
520.954	40392.43
521.155	40797.93
521.357	41389.79
521.559	42016.47
521.761	42641.1
521.963	42847.94
522.164	43007.69
522.366	43470.53
522.568	43566.78
522.77	44033.72
522.971	44215.99
523.173	44373.68
523.375	45289.12
523.576	45131.43
523.778	45248.16
523.98	45235.88
524.181	46098.07
524.383	45948.57
524.584	46581.39
524.786	46003.86
524.988	46155.41
525.189	46552.72
525.391	47085.19
525.592	46583.44
525.794	46757.52
525.995	46823.05
526.197	46597.77
526.398	46528.14
526.6	46511.76
526.801	46323.35
527.003	46104.21
527.204	46108.31
527.406	46435.98
527.607	45854.36
527.808	45682.33
528.01	45156
528.211	44922.54
528.412	45831.83
528.614	45174.44
528.815	44584.62
529.016	44666.54
529.218	43495.1
529.419	43290.3
529.62	43124.42
529.822	42741.45
530.023	42512.08
530.224	41924.31
530.425	41727.7
530.626	40916.71
530.828	40613.61
531.029	40832.74
531.23	39872.24
531.431	39759.61
531.632	39227.13
531.833	38809.35
532.035	38276.88
532.236	37889.81
532.437	37508.89
532.638	36835.11
532.839	36321.07
533.04	36669.22
533.241	35422.01
533.442	35622.71
533.643	34649.92
533.844	34133.84
534.045	34072.4
534.246	33202.01
534.447	33163.1
534.648	32352.1
534.849	32257.9
535.05	31104.89
535.251	31188.86
535.451	30943.1
535.652	30406.53
535.853	29861.77
536.054	29718.42
536.255	29159.32
536.456	28819.36
536.657	28768.16
536.857	28090.28
537.058	27727.79
537.259	27535.28
537.46	27232.18
537.66	26421.19
537.861	26030.02
538.062	25896.91
538.263	25618.38
538.463	25180.12
538.664	24778.72
538.865	24807.39
539.065	24309.73
539.266	23939.05
539.466	23715.82
539.667	23201.78
539.868	23433.2
540.068	23050.23
540.269	22704.12
540.469	22550.53
540.67	22046.72
540.87	21882.89
541.071	21551.12
541.271	21481.49
541.472	21147.67
541.672	20897.81
541.873	20492.32
542.073	20142.11
542.274	20316.19
542.474	19965.99
542.675	19703.85
542.875	19658.79
543.075	19265.58
543.276	19044.4
543.476	19099.7
543.676	18751.54
543.877	18542.65
544.077	18198.59
544.277	17862.72
544.478	17764.42
544.678	17758.28
544.878	17471.56
545.078	17551.43
545.279	16848.98
545.479	16881.75
545.679	16533.59
545.879	16347.23
546.079	16279.64
546.28	15960.16
546.48	15609.96
546.68	15728.74
546.88	15444.07
547.08	15216.75
547.28	15102.06
547.48	14710.9
547.68	14778.48
547.88	14508.15
548.081	14530.68
548.281	14026.88
548.481	14243.96
548.681	14190.72
548.881	13760.64
549.081	13633.67
549.28	13297.8
549.48	12912.78
549.68	13123.73
549.88	12980.37
550.08	12499.09
550.28	12343.45
550.48	12478.61
550.68	12249.24
550.88	11770.02
551.08	11745.44
551.279	11837.6
551.479	11536.55
551.679	11321.51
551.879	11118.76
552.079	11151.53
552.278	10803.38
552.478	10846.38
552.678	10678.45
552.878	10668.21
553.077	10107.07
553.277	10074.3
553.477	9865.41
553.676	9803.97
553.876	9648.32
554.076	9306.31
554.275	9400.52
554.475	9222.34
554.674	9165
554.874	9052.36
555.074	8722.64
555.273	8466.64
555.473	8569.04
555.672	8325.33
555.872	8237.27
556.071	8067.29
556.271	7917.79
556.47	8003.8
556.67	7590.11
556.869	7612.64
557.068	7538.91
557.268	7293.16
557.467	7354.6
557.667	7184.62
557.866	6795.5
558.065	6861.04
558.265	6664.43
558.464	6727.92
558.663	6504.69
558.863	6408.44
559.062	6240.5
559.261	6248.69
559.461	6146.3
559.66	5982.46
559.859	5964.03
560.058	5779.71
560.258	5579.01
560.457	5546.24
560.656	5800.19
560.855	5357.83
561.054	5429.51
561.253	5302.53
561.453	5173.51
561.652	5200.13
561.851	5075.21
562.05	5087.5
562.249	4686.09
562.448	5009.67
562.647	4739.34
562.846	4616.46
563.045	4649.23
563.244	4561.17
563.443	4491.54
563.642	4403.47
563.841	4374.8
564.04	4307.22
564.239	4161.81
564.438	4323.6
564.637	4004.12
564.836	4000.02
565.035	3946.78
565.234	3963.16
565.432	3866.91
565.631	3836.19
565.83	3805.47
566.029	3639.58
566.228	3703.07
566.427	3670.3
566.625	3485.98
566.824	3526.94
567.023	3426.59
567.222	3481.89
567.42	3307.81
567.619	3229.99
567.818	3279.14
568.016	3447.07
568.215	3164.45
568.414	3240.23
568.612	3096.87
568.811	3164.45
569.01	2959.66
569.208	2994.47
569.407	2875.69
569.605	2799.91
569.804	2879.79
570.002	2863.4
570.201	2701.61
570.4	2877.74
570.598	2646.32
570.797	2591.02
570.995	2533.68
571.193	2560.3
571.392	2564.4
571.59	2312.5
571.789	2509.1
571.987	2392.37
572.186	2453.81
572.384	2230.58
572.582	2163
572.781	2367.79
572.979	2064.69
573.177	2017.59
573.376	1978.68
573.574	2224.44
573.772	2158.9
573.971	2056.5
574.169	1820.99
574.367	2040.12
574.565	1907
574.763	2003.25
574.962	1947.96
575.16	1814.84
575.358	1972.54
575.556	1839.42
575.754	1786.17
575.952	1728.83
576.151	1737.02
576.349	1689.92
576.547	1624.38
576.745	1745.21
576.943	1726.78
577.141	1646.91
577.339	1478.97
577.537	1634.62
577.735	1573.18
577.933	1595.71
578.131	1435.97
578.329	1458.5
578.527	1401.15
578.725	1530.17
578.923	1233.22
579.121	1380.67
579.319	1282.37
579.516	1352
579.714	1464.64
579.912	1356.1
580.11	1222.98
580.308	1130.82
580.506	1190.21
580.704	1143.11
580.901	1210.69
581.099	1282.37
581.297	1147.2
581.495	1161.54
581.692	1136.96
581.89	1165.64
582.088	1151.3
582.285	1124.68
582.483	958.79
582.681	1024.33
582.878	1007.94
583.076	1079.62
583.274	1028.42
583.471	1110.34
583.669	907.59
583.866	842.06
584.064	942.41
584.262	895.3
584.459	858.44
584.657	889.16
584.854	921.93
585.052	917.83
585.249	919.88
585.447	934.22
585.644	770.38
585.841	815.43
586.039	831.82
586.236	872.78
586.434	768.33
586.631	672.08
586.828	784.71
587.026	835.91
587.223	676.17
587.42	710.99
587.618	749.9
587.815	860.49
588.012	684.36
588.21	641.36
588.407	721.23
588.604	868.68
588.801	594.25
588.999	633.16
589.196	805.19
589.393	684.36
589.59	672.08
589.787	635.21
589.984	688.46
590.182	688.46
590.379	639.31
590.576	653.64
590.773	606.54
590.97	624.97
591.167	651.6
591.364	655.69
591.561	586.06
591.758	698.7
591.955	747.85
592.152	651.6
592.349	551.24
592.546	549.2
592.743	598.35
592.94	604.49
593.137	614.73
593.334	717.13
593.531	633.16
593.727	696.65
593.924	676.17
594.121	602.44
594.318	639.31
594.515	702.79
594.712	753.99
594.908	686.41
595.105	545.1
595.302	614.73
595.499	586.06
595.696	737.61
595.892	684.36
596.089	756.04
596.286	731.47
596.482	813.38
596.679	790.86
596.876	741.71
597.072	827.72
597.269	835.91
597.466	837.96
597.662	926.02
597.859	825.67
598.055	790.86
598.252	952.65
598.448	1075.52
598.645	1069.38
598.841	1077.57
599.038	1059.14
599.234	1186.12
599.431	1091.91
599.627	1202.5
599.824	1263.94
600.02	1229.12
600.217	1339.71
600.413	1354.05
600.609	1548.61
600.806	1726.78
601.002	1591.61
601.198	1474.88
601.395	1745.21
601.591	1646.91
601.787	1863.99
601.984	1777.98
602.18	1925.43
602.376	2050.36
602.572	2064.69
602.769	2136.37
602.965	2173.24
603.161	2326.83
603.357	2378.03
603.553	2517.29
603.75	2437.42
603.946	2648.36
604.142	2707.76
604.338	2916.65
604.534	2722.09
604.73	2867.5
604.926	3057.96
605.122	3297.57
605.318	3123.49
605.514	3426.59
605.71	3447.07
605.906	3594.53
606.102	3741.98
606.298	3780.89
606.494	3993.88
606.69	4139.29
606.886	4045.08
607.082	4274.45
607.278	4360.47
607.474	4339.99
607.67	4557.07
607.866	4722.96
608.062	4843.79
608.257	4972.81
608.453	5114.12
608.649	5247.24
608.845	5130.5
609.041	5404.93
609.236	5656.83
609.432	5802.24
609.628	6074.62
609.824	6099.19
610.019	6205.69
610.215	6441.2
610.411	6629.62
610.606	6863.08
610.802	6906.09
610.998	7135.46
611.193	7399.65
611.389	7356.65
611.584	7678.18
611.78	7934.17
611.976	8038.62
612.171	8468.69
612.367	8409.3
612.562	8736.98
612.758	8872.14
612.953	9040.08
613.149	9377.99
613.344	9617.6
613.539	9949.37
613.735	10195.13
613.93	10412.21
614.126	10598.58
614.321	11075.76
614.517	11509.93
614.712	11679.91
614.907	11935.9
615.103	12282.01
615.298	12441.75
615.493	12773.52
615.688	13050
615.884	13803.65
616.079	13566.09
616.274	14080.13
616.47	14557.3
616.665	14913.65
616.86	15237.23
617.055	15388.78
617.25	15937.63
617.445	16441.43
617.641	16427.1
617.836	17225.81
618.031	17487.95
618.226	17719.37
618.421	18290.75
618.616	19132.47
618.811	19140.66
619.006	19824.68
619.201	19929.13
619.396	20756.5
619.591	20604.95
619.786	21454.86
619.981	21600.27
620.176	22525.95
620.371	22480.89
620.566	23220.21
620.761	23640.04
620.956	24010.73
621.151	24383.46
621.346	25003.99
621.541	25061.33
621.735	26267.59
621.93	26218.44
622.125	27039.67
622.32	27043.77
622.515	27674.54
622.709	28295.08
622.904	29022.11
623.099	28995.48
623.294	29826.96
623.488	29886.35
623.683	30930.81
623.878	30951.29
624.072	31584.12
624.267	32409.45
624.462	32640.87
624.656	32794.46
624.851	33539.93
625.046	34033.49
625.24	34809.67
625.435	34568.01
625.629	35376.95
625.824	35698.48
626.018	36261.68
626.213	36099.89
626.407	37164.83
626.602	37091.1
626.796	37869.33
626.991	38231.82
627.185	38655.75
627.38	38074.13
627.574	38833.92
627.768	38461.19
627.963	38647.56
628.157	38858.5
628.352	39427.84
628.546	38672.14
628.74	39261.95
628.935	39012.1
629.129	39354.11
629.323	38389.52
629.517	38692.61
629.712	38360.84
629.906	38203.15
630.1	37269.28
630.294	37252.89
630.489	36955.94
630.683	36235.05
630.877	35448.63
631.071	34887.49
631.265	34514.76
631.459	33558.36
631.653	32730.98
631.848	32515.94
632.042	31438.71
632.236	31031.16
632.43	29562.77
632.624	28866.46
632.818	27903.92
633.012	26924.99
633.206	26030.02
633.4	25655.25
633.594	24463.33
633.788	24014.82
633.982	23117.81
634.176	22124.55
634.369	21205.01
634.563	20588.57
634.757	19576.87
634.951	19015.73
635.145	18382.91
635.339	17612.87
635.533	16801.88
635.726	16181.34
635.92	15190.13
636.114	14815.35
636.308	14016.64
636.501	13697.16
636.695	13269.13
636.889	12523.67
637.083	11954.33
637.276	11442.34
637.47	10938.54
637.664	10518.71
637.857	9851.07
638.051	9758.91
638.244	9230.54
638.438	9072.84
638.632	8820.94
638.825	8159.45
639.019	7962.84
639.212	7504.1
639.406	7377.12
639.599	7057.64
639.793	6830.32
639.986	6531.31
640.18	6535.41
640.373	6007.03
640.567	5722.37
640.76	5705.98
640.954	5257.48
641.147	5136.65
641.34	5021.96
641.534	4894.99
641.727	4782.35
641.92	4413.71
642.114	4362.51
642.307	4086.04
642.5	3879.19
642.694	3770.65
642.887	3584.29
643.08	3641.63
643.273	3451.17
643.467	3236.13
643.66	2953.51
643.853	2892.07
644.046	2781.48
644.239	2791.72
644.432	2695.47
644.626	2373.94
644.819	2396.46
645.012	2310.45
645.205	2353.46
645.398	2277.68
645.591	2148.66
645.784	1913.14
645.977	1870.14
646.17	1802.55
646.363	1820.99
646.556	1599.8
646.749	1673.53
646.942	1610.04
647.135	1583.42
647.328	1550.65
647.521	1356.1
647.714	1411.39
647.907	1261.89
648.099	1179.97
648.292	1286.47
648.485	1139.01
648.678	1104.2
648.871	1083.72
649.064	1057.09
649.256	964.93
649.449	987.46
649.642	827.72
649.835	835.91
650.027	887.11
650.22	1012.04
650.413	813.38
650.605	835.91
650.798	688.46
650.991	764.23
651.183	629.07
651.376	694.6
651.568	739.66
651.761	567.63
651.954	651.6
652.146	645.45
652.339	637.26
652.531	600.4
652.724	528.72
652.916	422.22
653.109	467.28
653.301	528.72
653.494	567.63
653.686	414.03
653.879	563.53
654.071	422.22
654.263	407.89
654.456	399.7
654.648	549.2
654.84	405.84
655.033	377.17
655.225	518.48
655.417	254.29
655.61	473.42
655.802	477.52
655.994	477.52
656.186	246.1
656.379	426.32
656.571	342.35
656.763	334.16
656.955	225.62
657.148	317.78
657.34	295.25
657.532	297.3
657.724	233.81
657.916	301.39
658.108	225.62
658.3	366.93
658.492	274.77
658.684	227.67
658.876	276.82
659.068	100.69
659.26	94.55
659.452	235.86
659.644	250.19
659.836	280.91
660.028	198.99
660.22	174.42
660.412	203.09
660.604	166.23
660.796	145.75
660.988	315.73
661.18	227.67
661.372	305.49
661.563	155.99
661.755	164.18
661.947	29.01
662.139	133.46
662.331	133.46
662.522	155.99
662.714	67.92
662.906	61.78
663.097	53.59
663.289	194.9
663.481	0.34
663.673	104.79
663.864	164.18
664.056	155.99
664.247	74.07
664.439	205.14
664.631	115.03
664.822	229.71
665.014	127.32
665.205	72.02
665.397	117.08
665.588	170.32
665.78	141.65
665.971	170.32
666.163	94.55
666.354	147.8
666.546	65.88
666.737	55.64
666.929	49.49
667.12	86.36
667.311	166.23
667.503	139.6
667.694	145.75
667.885	174.42
668.077	149.84
668.268	96.6
668.459	59.73
668.651	121.17
668.842	203.09
669.033	74.07
669.224	37.2
669.416	237.91
669.607	164.18
669.798	26.96
669.989	137.56
670.18	110.93
670.371	86.36
670.563	51.54
670.754	168.27
670.945	106.84
671.136	119.12
671.327	49.49
671.518	194.9
671.709	160.08
671.9	209.23
672.091	192.85
672.282	129.36
672.473	123.22
672.664	102.74
672.855	129.36
673.046	119.12
673.237	176.47
673.428	119.12
673.619	178.51
673.809	49.49
674	168.27
674.191	125.27
674.382	164.18
674.573	74.07
674.764	94.55
674.954	229.71
675.145	24.92
675.336	39.25
675.527	98.64
675.717	100.69
675.908	72.02
676.099	16.73
676.289	115.03
676.48	22.87
676.671	106.84
676.861	127.32
677.052	141.65
677.243	108.88
677.433	20.82
677.624	141.65
677.814	217.43
678.005	65.88
678.195	278.87
678.386	100.69
678.576	78.16
678.767	-50.86
678.957	137.56
679.148	155.99
679.338	209.23
679.529	237.91
679.719	41.3
679.909	180.56
680.1	164.18
680.29	176.47
680.481	76.12
680.671	106.84
680.861	74.07
681.052	137.56
681.242	18.77
681.432	84.31
681.622	180.56
681.813	37.2
682.003	98.64
682.193	211.28
682.383	176.47
682.573	121.17
682.764	174.42
682.954	151.89
683.144	213.33
683.334	57.68
683.524	61.78
683.714	135.51
683.904	129.36
684.094	141.65
684.284	74.07
684.474	297.3
684.664	203.09
684.854	139.6
685.044	110.93
685.234	115.03
685.424	129.36
685.614	63.83
685.804	219.47
685.994	231.76
686.184	123.22
686.374	201.04
686.564	166.23
686.753	63.83
686.943	51.54
687.133	94.55
687.323	90.45
687.513	176.47
687.702	186.71
687.892	88.4
688.082	248.15
688.272	239.95
688.461	123.22
688.651	291.15
688.841	164.18
689.03	125.27
689.22	158.03
689.41	237.91
689.599	258.39
689.789	96.6
689.979	198.99
690.168	168.27
690.358	123.22
690.547	227.67
690.737	217.43
690.926	198.99
691.116	190.8
691.305	215.38
691.495	141.65
691.684	78.16
691.874	55.64
692.063	106.84
692.252	180.56
692.442	139.6
692.631	115.03
692.82	153.94
693.01	194.9
693.199	51.54
693.388	217.43
693.578	125.27
693.767	164.18
693.956	207.19
694.146	198.99
694.335	188.75
694.524	125.27
694.713	244.05
694.902	88.4
695.092	98.64
695.281	119.12
695.47	143.7
695.659	96.6
695.848	153.94
696.037	125.27
696.226	260.43
696.415	184.66
696.604	223.57
696.793	168.27
696.982	196.95
697.171	215.38
697.36	96.6
697.549	133.46
697.738	61.78
697.927	61.78
698.116	53.59
698.305	250.19
698.494	110.93
698.683	170.32
698.872	172.37
699.061	127.32
699.25	108.88
699.438	168.27
699.627	174.42
699.816	289.1
700.005	67.92
700.193	98.64
700.382	198.99
700.571	92.5
700.76	129.36
700.948	160.08
701.137	129.36
701.326	252.24
701.514	55.64
701.703	162.13
701.892	188.75
702.08	266.58
702.269	74.07
702.457	94.55
702.646	106.84
702.834	139.6
703.023	182.61
703.212	166.23
703.4	207.19
703.589	12.63
703.777	69.97
703.965	45.4
704.154	155.99
704.342	117.08
704.531	108.88
704.719	90.45
704.907	141.65
705.096	65.88
705.284	82.26
705.472	117.08
705.661	205.14
705.849	196.95
706.037	196.95
706.226	160.08
706.414	231.76
706.602	78.16
706.79	184.66
706.979	33.11
707.167	158.03
707.355	61.78
707.543	139.6
707.731	94.55
707.919	115.03
708.107	135.51
708.296	137.56
708.484	47.44
708.672	149.84
708.86	158.03
709.048	192.85
709.236	94.55
709.424	262.48
709.612	219.47
709.8	-38.57
709.988	164.18
710.176	229.71
710.364	188.75
710.551	149.84
710.739	119.12
710.927	119.12
711.115	121.17
711.303	178.51
711.491	252.24
711.679	98.64
711.866	272.72
712.054	115.03
712.242	88.4
712.43	205.14
712.617	74.07
712.805	303.44
712.993	110.93
713.181	10.58
713.368	166.23
713.556	184.66
713.744	151.89
713.931	379.22
714.119	160.08
714.306	108.88
714.494	137.56
714.682	178.51
714.869	90.45
715.057	160.08
715.244	78.16
715.432	198.99
715.619	201.04
715.807	84.31
715.994	108.88
716.182	153.94
716.369	117.08
716.556	182.61
716.744	86.36
716.931	12.63
717.119	119.12
717.306	153.94
717.493	184.66
717.681	90.45
717.868	94.55
718.055	201.04
718.242	35.16
718.43	127.32
718.617	282.96
718.804	127.32
718.991	285.01
719.179	143.7
719.366	194.9
719.553	125.27
719.74	100.69
719.927	149.84
720.114	143.7
720.301	223.57
720.488	133.46
720.676	115.03
720.863	203.09
721.05	258.39
721.237	174.42
721.424	205.14
721.611	207.19
721.798	47.44
721.985	78.16
722.172	162.13
722.358	119.12
722.545	207.19
722.732	254.29
722.919	166.23
723.106	209.23
723.293	61.78
723.48	112.98
723.667	108.88
723.853	196.95
724.04	209.23
724.227	217.43
724.414	106.84
724.6	272.72
724.787	188.75
724.974	325.97
725.161	139.6
725.347	143.7
725.534	115.03
725.72	221.52
725.907	205.14
726.094	123.22
726.28	65.88
726.467	115.03
726.653	125.27
726.84	278.87
727.027	237.91
727.213	141.65
727.4	223.57
727.586	196.95
727.773	162.13
727.959	96.6
728.145	145.75
728.332	198.99
728.518	168.27
728.705	227.67
728.891	135.51
729.077	164.18
729.264	172.37
729.45	182.61
729.636	307.54
729.823	155.99
730.009	244.05
730.195	172.37
730.382	323.92
730.568	182.61
730.754	141.65
730.94	147.8
731.126	155.99
731.313	258.39
731.499	278.87
731.685	209.23
731.871	174.42
732.057	254.29
732.243	192.85
732.429	213.33
732.615	178.51
732.801	198.99
732.987	96.6
733.173	182.61
733.359	110.93
733.545	205.14
733.731	121.17
733.917	270.67
734.103	198.99
734.289	174.42
734.475	82.26
734.661	305.49
734.847	219.47
735.033	115.03
735.219	321.87
735.404	164.18
735.59	158.03
735.776	203.09
735.962	246.1
736.148	233.81
736.333	301.39
736.519	233.81
736.705	155.99
736.89	211.28
737.076	205.14
737.262	74.07
737.447	162.13
737.633	192.85
737.819	233.81
738.004	196.95
738.19	203.09
738.375	190.8
738.561	184.66
738.747	285.01
738.932	174.42
739.118	321.87
739.303	287.06
739.489	205.14
739.674	162.13
739.859	100.69
740.045	211.28
740.23	227.67
740.416	41.3
740.601	274.77
740.786	149.84
740.972	112.98
741.157	160.08
741.342	84.31
741.528	139.6
741.713	246.1
741.898	192.85
742.084	184.66
742.269	153.94
742.454	194.9
742.639	211.28
742.824	258.39
743.01	258.39
743.195	295.25
743.38	198.99
743.565	217.43
743.75	155.99
743.935	162.13
744.12	196.95
744.305	135.51
744.49	153.94
744.675	178.51
744.86	155.99
745.045	184.66
745.23	102.74
745.415	149.84
745.6	250.19
745.785	121.17
745.97	207.19
746.155	213.33
746.34	244.05
746.525	184.66
746.71	250.19
746.895	41.3
747.079	61.78
747.264	131.41
747.449	289.1
747.634	264.53
747.819	219.47
748.003	119.12
748.188	92.5
748.373	225.62
748.557	205.14
748.742	162.13
748.927	213.33
749.111	158.03
749.296	141.65
749.481	190.8
749.665	170.32
749.85	121.17
750.034	239.95
750.219	149.84
750.404	92.5
750.588	174.42
750.773	102.74
750.957	153.94
751.141	45.4
751.326	198.99
751.51	74.07
751.695	117.08
751.879	65.88
752.064	280.91
752.248	108.88
752.432	262.48
752.617	215.38
752.801	213.33
752.985	141.65
753.17	180.56
753.354	201.04
753.538	127.32
753.722	98.64
753.907	153.94
754.091	84.31
754.275	192.85
754.459	2.39
754.643	131.41
754.828	166.23
755.012	147.8
755.196	129.36
755.38	162.13
755.564	115.03
755.748	155.99
755.932	94.55
756.116	121.17
756.3	168.27
756.484	121.17
756.668	86.36
756.852	-9.9
757.036	131.41
757.22	160.08
757.404	4.44
757.588	53.59
757.772	196.95
757.956	84.31
758.14	219.47
758.323	43.35
758.507	119.12
758.691	74.07
758.875	178.51
759.059	110.93
759.242	72.02
759.426	57.68
759.61	90.45
759.794	-18.09
759.977	129.36
760.161	362.83
760.345	196.95
760.528	227.67
760.712	94.55
760.895	192.85
761.079	155.99
761.263	37.2
761.446	45.4
761.63	63.83
761.813	166.23
761.997	-48.81
762.18	88.4
762.364	106.84
762.547	-87.72
762.731	53.59
762.914	63.83
763.098	14.68
763.281	69.97
763.464	20.82
763.648	129.36
763.831	117.08
764.015	-18.09
764.198	168.27
764.381	65.88
764.564	69.97
764.748	84.31
764.931	51.54
765.114	59.73
765.297	151.89
765.481	-1.71
765.664	29.01
765.847	12.63
766.03	137.56
766.213	-50.86
766.397	90.45
766.58	8.53
766.763	86.36
766.946	115.03
767.129	49.49
767.312	-22.19
767.495	47.44
767.678	35.16
767.861	67.92
768.044	22.87
768.227	-3.75
768.41	24.92
768.593	72.02
768.776	26.96
768.959	59.73
769.142	155.99
769.324	22.87
769.507	-57
769.69	69.97
769.873	49.49
770.056	225.62
770.239	135.51
770.421	149.84
770.604	137.56
770.787	86.36
770.97	47.44
771.152	0.34
771.335	112.98
771.518	104.79
771.7	72.02
771.883	133.46
772.066	-16.04
772.248	98.64
772.431	125.27
772.613	117.08
772.796	74.07
772.978	45.4
773.161	153.94
773.343	90.45
773.526	51.54
773.708	72.02
773.891	-100.01
774.073	63.83
774.256	-32.43
774.438	98.64
774.621	37.2
774.803	98.64
774.985	33.11
775.168	129.36
775.35	4.44
775.532	88.4
775.715	-36.52
775.897	12.63
776.079	-1.71
776.261	65.88
776.444	102.74
776.626	41.3
776.808	-16.04
776.99	-38.57
777.173	49.49
777.355	-57
777.537	6.49
777.719	2.39
777.901	63.83
778.083	-36.52
778.265	-7.85
778.447	108.88
778.629	4.44
778.811	-36.52
778.993	88.4
779.175	115.03
779.357	86.36
779.539	0.34
779.721	41.3
779.903	39.25
780.085	-11.95
780.267	4.44
780.449	0.34
780.631	117.08
780.812	129.36
780.994	41.3
781.176	61.78
781.358	-46.76
781.54	-61.1
781.721	69.97
781.903	78.16
782.085	-28.33
782.267	45.4
782.448	-30.38
782.63	8.53
782.812	53.59
782.993	33.11
783.175	129.36
783.357	61.78
783.538	39.25
783.72	0.34
783.901	-38.57
784.083	57.68
784.264	94.55
784.446	-48.81
784.627	-52.91
784.809	37.2
784.99	-16.04
785.172	31.06
785.353	41.3
785.535	51.54
785.716	-30.38
785.897	-36.52
786.079	74.07
786.26	57.68
786.441	100.69
786.623	-52.91
786.804	-112.3
786.985	-11.95
787.167	-7.85
787.348	35.16
787.529	-7.85
787.71	137.56
787.891	78.16
788.073	6.49
788.254	-91.82
788.435	135.51
788.616	-32.43
788.797	-61.1
788.978	-65.19
789.159	-48.81
789.34	43.35
789.522	-87.72
789.703	4.44
789.884	43.35
790.065	59.73
790.246	69.97
790.427	-44.71
790.607	74.07
790.788	98.64
790.969	-11.95
791.15	35.16
791.331	65.88
791.512	0.34
791.693	-16.04
791.874	-5.8
792.054	147.8
792.235	115.03
792.416	-20.14
792.597	6.49
792.778	14.68
792.958	31.06
793.139	16.73
793.32	49.49
793.5	-36.52
793.681	168.27
793.862	33.11
794.042	-44.71
794.223	-65.19
794.404	57.68
794.584	-83.63
794.765	37.2
794.945	8.53
795.126	20.82
795.306	20.82
795.487	16.73
795.667	18.77
795.848	35.16
796.028	-28.33
796.209	16.73
796.389	14.68
796.57	-28.33
796.75	-50.86
796.93	-38.57
797.111	31.06
797.291	-11.95
797.471	39.25
797.652	-106.15
797.832	-42.67
798.012	35.16
798.192	-13.99
798.373	-79.53
798.553	-24.23
798.733	74.07
798.913	-81.58
799.093	-81.58
799.274	29.01
799.454	-16.04
799.634	119.12
799.814	61.78
799.994	86.36
800.174	31.06
800.354	31.06
800.534	-73.39
800.714	16.73
800.894	-108.2
801.074	-40.62
801.254	-9.9
801.434	86.36
801.614	-18.09
801.794	-67.24
801.974	2003.25
802.154	-77.48
802.334	72.02
802.514	-59.05
802.693	-63.15
802.873	26.96
803.053	82.26
803.233	18.77
803.413	2.39
803.592	-67.24
803.772	26.96
803.952	82.26
804.131	-48.81
804.311	131.41
804.491	55.64
804.67	-48.81
804.85	-24.23
805.03	33.11
805.209	12.63
805.389	-52.91
805.568	-50.86
805.748	49.49
805.928	14.68
806.107	41.3
806.287	-50.86
806.466	53.59
806.646	8.53
806.825	-79.53
807.004	8.53
807.184	45.4
807.363	53.59
807.543	72.02
807.722	-102.06
807.901	102.74
808.081	69.97
808.26	-126.63
808.439	-46.76
808.619	41.3
808.798	-67.24
808.977	-20.14
809.156	37.2
809.336	24.92
809.515	82.26
809.694	-34.47
809.873	-85.67
810.052	10.58
810.231	78.16
810.411	49.49
810.59	153.94
810.769	12.63
810.948	29.01
811.127	-171.69
811.306	-20.14
811.485	-50.86
811.664	133.46
811.843	55.64
812.022	35.16
812.201	26.96
812.38	16.73
812.559	-63.15
812.737	12.63
812.916	-95.91
813.095	-40.62
813.274	-7.85
813.453	-83.63
813.632	-9.9
813.811	24.92
813.989	-95.91
814.168	33.11
814.347	-147.11
814.526	-5.8
814.704	119.12
814.883	29.01
815.062	55.64
815.24	31.06
815.419	-54.95
815.598	45.4
815.776	-151.21
815.955	-44.71
816.133	-118.44
816.312	-57
816.49	-54.95
816.669	-67.24
816.847	-102.06
817.026	-34.47
817.204	-11.95
817.383	63.83
817.561	-106.15
817.74	-1.71
817.918	-50.86
818.097	39.25
818.275	6.49
818.453	31.06
818.632	6.49
818.81	4.44
818.988	24.92
819.167	16.73
819.345	-5.8
819.523	-77.48
819.701	-34.47
819.879	-30.38
820.058	-24.23
820.236	14.68
820.414	-20.14
820.592	-69.29
820.77	-77.48
820.948	4.44
821.127	-40.62
821.305	26.96
821.483	-83.63
821.661	76.12
821.839	59.73
822.017	-34.47
822.195	-46.76
822.373	67.92
822.551	-7.85
822.729	16.73
822.907	8.53
823.085	51.54
823.262	26.96
823.44	-73.39
823.618	-50.86
823.796	55.64
823.974	-44.71
824.152	-59.05
824.329	8.53
824.507	33.11
824.685	35.16
824.863	14.68
825.04	26.96
825.218	41.3
825.396	39.25
825.574	-44.71
825.751	-28.33
825.929	39.25
826.107	-161.45
826.284	39.25
826.462	-28.33
826.639	-50.86
826.817	-36.52
826.994	-22.19
827.172	-104.11
827.349	76.12
827.527	121.17
827.704	-38.57
827.882	69.97
828.059	-40.62
828.237	-79.53
828.414	92.5
828.591	-147.11
828.769	29.01
828.946	-81.58
829.124	94.55
829.301	69.97
829.478	20.82
829.655	6.49
829.833	16.73
830.01	-100.01
830.187	-52.91
830.364	59.73
830.542	55.64
830.719	18.77
830.896	22.87
831.073	-24.23
831.25	-38.57
831.427	168.27
831.604	39.25
831.782	-54.95
831.959	55.64
832.136	-54.95
832.313	-20.14
832.49	-46.76
832.667	22.87
832.844	-61.1
833.021	69.97
833.198	63.83
833.374	0.34
833.551	43.35
833.728	-18.09
833.905	2.39
834.082	-42.67
834.259	22.87
834.436	43.35
834.612	-36.52
834.789	-16.04
834.966	8.53
835.143	-18.09
835.319	-63.15
835.496	69.97
835.673	43.35
835.85	33.11
836.026	76.12
836.203	94.55
836.38	-30.38
836.556	-52.91
836.733	-42.67
836.909	100.69
837.086	-44.71
837.262	-104.11
837.439	-11.95
837.616	-75.43
837.792	2.39
837.968	-46.76
838.145	-22.19
838.321	-57
838.498	6.49
838.674	33.11
838.851	-20.14
839.027	8.53
839.203	18.77
839.38	2.39
839.556	-24.23
839.732	-3.75
839.909	22.87
840.085	39.25
840.261	-16.04
840.437	-26.28
840.614	29.01
840.79	24.92
840.966	45.4
841.142	-13.99
841.318	-59.05
841.494	22.87
841.671	78.16
841.847	-128.68
842.023	-85.67
842.199	39.25
842.375	61.78
842.551	-106.15
842.727	-110.25
842.903	153.94
843.079	12.63
843.255	57.68
843.431	-52.91
843.607	49.49
843.783	-171.69
843.959	14.68
844.134	-32.43
844.31	47.44
844.486	-36.52
844.662	-40.62
844.838	-28.33
845.013	-3.75
845.189	-30.38
845.365	49.49
845.541	16.73
845.716	-26.28
845.892	100.69
846.068	-34.47
846.244	-73.39
846.419	22.87
846.595	-69.29
846.77	-57
846.946	-24.23
847.122	-38.57
847.297	31.06
847.473	82.26
847.648	-87.72
847.824	22.87
847.999	-118.44
848.175	-71.34
848.35	65.88
848.526	67.92
848.701	-26.28
848.876	-52.91
849.052	57.68
849.227	37.2
849.403	0.34
849.578	-32.43
849.753	12.63
849.929	-30.38
850.104	-97.96
850.279	-85.67
850.454	-42.67
850.63	20.82
850.805	20.82
850.98	47.44
851.155	35.16
851.33	29.01
851.505	-85.67
851.681	127.32
851.856	-16.04
852.031	-9.9
852.206	-18.09
852.381	-83.63
852.556	29.01
852.731	78.16
852.906	-5.8
853.081	22.87
853.256	67.92
853.431	-18.09
853.606	-36.52
853.781	-89.77
853.956	-106.15
854.131	-59.05
854.305	-95.91
854.48	-46.76
854.655	-44.71
854.83	22.87
855.005	16.73
855.18	-1.71
855.354	-40.62
855.529	-1.71
855.704	-97.96
855.879	8.53
856.053	-73.39
856.228	45.4
856.403	-73.39
856.577	74.07
856.752	-61.1
856.926	-61.1
857.101	14.68
857.276	-95.91
857.45	-9.9
857.625	-28.33
857.799	8.53
857.974	-18.09
858.148	-124.58
858.323	-67.24
858.497	-83.63
858.672	-124.58
858.846	-22.19
859.02	65.88
859.195	-126.63
859.369	-24.23
859.543	-16.04
859.718	37.2
859.892	65.88
860.066	-42.67
860.241	-69.29
860.415	-34.47
860.589	-3.75
860.763	8.53
860.938	-28.33
861.112	8.53
861.286	-46.76
861.46	69.97
861.634	-3.75
861.808	-26.28
861.982	-57
862.157	-112.3
862.331	-75.43
862.505	-28.33
862.679	-106.15
862.853	-46.76
863.027	-9.9
863.201	57.68
863.375	-26.28
863.549	35.16
863.722	10.58
863.896	69.97
864.07	-52.91
864.244	-11.95
864.418	24.92
864.592	82.26
864.766	-20.14
864.939	-20.14
865.113	-61.1
865.287	139.6
865.461	-69.29
865.634	8.53
865.808	-24.23
865.982	-71.34
866.156	-118.44
866.329	-155.3
866.503	-32.43
866.676	96.6
866.85	26.96
867.024	-73.39
867.197	14.68
867.371	74.07
867.544	29.01
867.718	-91.82
867.891	39.25
868.065	-95.91
868.238	47.44
868.412	-3.75
868.585	16.73
868.759	-24.23
868.932	24.92
869.105	-77.48
869.279	6.49
869.452	-106.15
869.625	-32.43
869.799	-40.62
869.972	-61.1
870.145	-104.11
870.319	51.54
870.492	-81.58
870.665	-59.05
870.838	-69.29
871.011	-110.25
871.185	-48.81
871.358	-52.91
871.531	29.01
871.704	-52.91
871.877	-38.57
872.05	-57
872.223	-30.38
872.396	35.16
872.569	33.11
872.742	-11.95
872.915	63.83
873.088	-91.82
873.261	-50.86
873.434	72.02
873.607	-11.95
873.78	33.11
873.953	-126.63
874.126	-28.33
874.299	-1.71
874.471	-100.01
874.644	-38.57
874.817	-32.43
874.99	102.74
875.163	24.92
875.335	10.58
875.508	-106.15
875.681	117.08
875.853	-57
876.026	-77.48
876.199	92.5
876.371	-52.91
876.544	31.06
876.717	-9.9
876.889	-63.15
877.062	20.82
877.234	-46.76
877.407	-18.09
877.579	2.39
877.752	-9.9
877.924	-5.8
878.097	59.73
878.269	57.68
878.442	-57
878.614	14.68
878.786	94.55
878.959	0.34
879.131	4.44
879.303	-104.11
879.476	-57
879.648	88.4
879.82	-1.71
879.993	-16.04
880.165	-118.44
880.337	-85.67
880.509	16.73
880.681	-67.24
880.854	-52.91
881.026	22.87
881.198	137.56
881.37	16.73
881.542	-5.8
881.714	-22.19
881.886	-13.99
882.058	-16.04
882.23	35.16
882.402	4.44
882.574	63.83
882.746	47.44
882.918	190.8
883.09	33.11
883.262	-46.76
883.434	12.63
883.606	-108.2
883.778	2.39
883.95	96.6
884.122	-57
884.293	57.68
884.465	-24.23
884.637	51.54
884.809	37.2
884.98	-9.9
885.152	49.49
885.324	26.96
885.496	-54.95
885.667	-57
885.839	-1.71
886.011	102.74
886.182	-44.71
886.354	-44.71
886.525	6.49
886.697	-26.28
886.869	-112.3
887.04	37.2
887.212	129.36
887.383	129.36
887.555	-18.09
887.726	-57
887.897	-65.19
888.069	43.35
888.24	41.3
888.412	-26.28
888.583	4.44
888.754	39.25
888.926	-89.77
889.097	-120.49
889.268	-134.82
889.44	26.96
889.611	-126.63
889.782	-108.2
889.953	-130.73
890.125	102.74
890.296	-65.19
890.467	-7.85
890.638	-153.26
890.809	-65.19
890.98	-124.58
891.151	63.83
891.323	100.69
891.494	-75.43
891.665	-16.04
891.836	-7.85
892.007	6.49
892.178	-65.19
892.349	-1.71
892.52	-61.1
892.691	-22.19
892.862	-50.86
893.032	-130.73
893.203	-97.96
893.374	22.87
893.545	84.31
893.716	-52.91
893.887	86.36
894.057	-59.05
894.228	-48.81
894.399	-46.76
894.57	49.49
894.74	33.11
894.911	37.2
895.082	-50.86
895.253	-16.04
895.423	-9.9
895.594	-32.43
895.764	-44.71
895.935	-34.47
896.106	-46.76
896.276	-108.2
896.447	24.92
896.617	-63.15
896.788	-77.48
896.958	41.3
897.129	-50.86
897.299	-42.67
897.47	57.68
897.64	117.08
897.81	8.53
897.981	-18.09
898.151	-104.11
898.322	29.01
898.492	-65.19
898.662	-9.9
898.832	-36.52
899.003	-46.76
899.173	98.64
899.343	-83.63
899.513	-100.01
