Data from USB4F104151__18__10-41-54-386.txt Node

Date: Wed Feb 26 10:41:54 EST 2025
User: louis
Spectrometer: USB4F10415
Trigger mode: 4
Integration Time (sec): 1.000000E-1
Scans to average: 1
Electric dark correction enabled: true
Nonlinearity correction enabled: false
Boxcar width: 0
XAxis mode: Wavelengths
Number of Pixels in Spectrum: 3648
>>>>>Begin Spectral Data<<<<<
178.204	-402.6
178.424	-402.6
178.644	-402.6
178.864	-400.55
179.084	-414.88
179.304	13.14
179.524	-7.34
179.744	76.63
179.964	9.05
180.184	-11.43
180.404	101.2
180.624	-52.39
180.844	56.15
181.064	-160.94
181.283	31.57
181.503	-91.31
181.723	35.67
181.943	-105.64
182.163	160.59
182.383	-48.3
182.602	101.2
182.822	117.59
183.042	19.29
183.262	-101.55
183.482	-44.2
183.701	4.95
183.921	-9.39
184.141	-44.2
184.361	23.38
184.58	9.05
184.8	72.53
185.02	-25.77
185.239	101.2
185.459	70.48
185.679	97.11
185.898	-109.74
186.118	0.85
186.338	4.95
186.557	50
186.777	-42.15
186.997	4.95
187.216	-83.11
187.436	138.07
187.655	125.78
187.875	41.81
188.095	-15.53
188.314	103.25
188.534	84.82
188.753	-66.73
188.973	31.57
189.192	125.78
189.412	7
189.631	-3.24
189.851	45.91
190.07	133.97
190.29	-29.87
190.509	-42.15
190.729	-13.48
190.948	56.15
191.168	209.75
191.387	97.11
191.607	-23.72
191.826	29.52
192.045	35.67
192.265	11.09
192.484	25.43
192.704	-15.53
192.923	-111.78
193.142	156.5
193.362	52.05
193.581	140.12
193.8	0.85
194.02	41.81
194.239	19.29
194.458	76.63
194.678	13.14
194.897	-5.29
195.116	70.48
195.335	-1.19
195.555	37.72
195.774	45.91
195.993	150.36
196.212	-3.24
196.432	-36.01
196.651	-89.26
196.87	-17.58
197.089	162.64
197.308	54.1
197.528	76.63
197.747	-87.21
197.966	47.96
198.185	109.4
198.404	-91.31
198.623	76.63
198.842	84.82
199.062	62.29
199.281	56.15
199.5	68.44
199.719	-56.49
199.938	41.81
200.157	31.57
200.376	68.44
200.595	54.1
200.814	-1.19
201.033	-128.17
201.252	140.12
201.471	64.34
201.69	45.91
201.909	60.24
202.128	123.73
202.347	95.06
202.566	-44.2
202.785	-83.11
203.004	-50.35
203.223	181.07
203.442	103.25
203.661	-107.69
203.879	58.2
204.098	84.82
204.317	-29.87
204.536	76.63
204.755	93.01
204.974	125.78
205.193	4.95
205.411	101.2
205.63	152.4
205.849	41.81
206.068	-36.01
206.287	-50.35
206.505	168.79
206.724	-40.11
206.943	-66.73
207.162	-21.67
207.381	84.82
207.599	-1.19
207.818	-19.63
208.037	-107.69
208.255	23.38
208.474	13.14
208.693	-3.24
208.911	9.05
209.13	27.48
209.349	54.1
209.567	27.48
209.786	95.06
210.005	88.92
210.223	60.24
210.442	-103.59
210.661	56.15
210.879	13.14
211.098	27.48
211.316	-19.63
211.535	31.57
211.753	31.57
211.972	-11.43
212.191	31.57
212.409	56.15
212.628	138.07
212.846	2.9
213.065	4.95
213.283	74.58
213.502	113.49
213.72	41.81
213.938	21.33
214.157	39.76
214.375	23.38
214.594	-56.49
214.812	54.1
215.031	33.62
215.249	21.33
215.467	54.1
215.686	66.39
215.904	133.97
216.122	50
216.341	78.68
216.559	37.72
216.778	170.83
216.996	103.25
217.214	17.24
217.432	-23.72
217.651	-74.92
217.869	66.39
218.087	-36.01
218.306	-48.3
218.524	56.15
218.742	-15.53
218.96	25.43
219.179	41.81
219.397	-17.58
219.615	273.23
219.833	76.63
220.051	-66.73
220.27	58.2
220.488	88.92
220.706	95.06
220.924	-15.53
221.142	-11.43
221.36	31.57
221.578	99.16
221.796	21.33
222.015	62.29
222.233	-33.96
222.451	101.2
222.669	-15.53
222.887	50
223.105	-31.91
223.323	0.85
223.541	-72.87
223.759	37.72
223.977	29.52
224.195	160.59
224.413	107.35
224.631	19.29
224.849	4.95
225.067	185.17
225.285	-68.78
225.503	-33.96
225.721	-128.17
225.939	66.39
226.157	43.86
226.375	176.98
226.592	4.95
226.81	4.95
227.028	56.15
227.246	95.06
227.464	-15.53
227.682	39.76
227.9	68.44
228.117	-3.24
228.335	84.82
228.553	17.24
228.771	-138.41
228.989	17.24
229.206	99.16
229.424	13.14
229.642	-27.82
229.86	-70.83
230.077	90.96
230.295	52.05
230.513	78.68
230.731	62.29
230.948	125.78
231.166	123.73
231.384	31.57
231.601	41.81
231.819	170.83
232.037	-46.25
232.254	2.9
232.472	-15.53
232.689	-58.54
232.907	109.4
233.125	-87.21
233.342	-48.3
233.56	17.24
233.777	-42.15
233.995	21.33
234.213	78.68
234.43	52.05
234.648	-40.11
234.865	41.81
235.083	29.52
235.3	-38.06
235.518	107.35
235.735	58.2
235.953	33.62
236.17	39.76
236.388	-19.63
236.605	21.33
236.822	88.92
237.04	113.49
237.257	43.86
237.475	29.52
237.692	58.2
237.909	56.15
238.127	27.48
238.344	7
238.562	23.38
238.779	-58.54
238.996	-44.2
239.214	68.44
239.431	9.05
239.648	-52.39
239.865	93.01
240.083	-36.01
240.3	-15.53
240.517	17.24
240.735	17.24
240.952	146.26
241.169	19.29
241.386	101.2
241.603	35.67
241.821	-25.77
242.038	84.82
242.255	52.05
242.472	-31.91
242.689	113.49
242.907	13.14
243.124	39.76
243.341	-72.87
243.558	-83.11
243.775	-29.87
243.992	-56.49
244.209	39.76
244.426	138.07
244.643	15.19
244.86	-52.39
245.078	168.79
245.295	50
245.512	33.62
245.729	-68.78
245.946	35.67
246.163	-87.21
246.38	-25.77
246.597	29.52
246.814	50
247.031	-29.87
247.248	27.48
247.464	109.4
247.681	19.29
247.898	-21.67
248.115	56.15
248.332	-83.11
248.549	107.35
248.766	179.03
248.983	64.34
249.2	31.57
249.417	45.91
249.633	-11.43
249.85	56.15
250.067	58.2
250.284	72.53
250.501	41.81
250.717	43.86
250.934	-111.78
251.151	-21.67
251.368	31.57
251.585	90.96
251.801	-21.67
252.018	-72.87
252.235	166.74
252.451	-48.3
252.668	58.2
252.885	101.2
253.102	50
253.318	-11.43
253.535	-7.34
253.752	43.86
253.968	-42.15
254.185	-91.31
254.401	23.38
254.618	93.01
254.835	41.81
255.051	136.02
255.268	99.16
255.484	29.52
255.701	109.4
255.917	80.72
256.134	0.85
256.351	0.85
256.567	-19.63
256.784	47.96
257	-115.88
257.217	31.57
257.433	127.83
257.65	31.57
257.866	113.49
258.082	-111.78
258.299	-52.39
258.515	0.85
258.732	-1.19
258.948	-83.11
259.165	15.19
259.381	-81.07
259.597	115.54
259.814	-25.77
260.03	4.95
260.246	-13.48
260.463	133.97
260.679	-3.24
260.895	21.33
261.112	52.05
261.328	56.15
261.544	-29.87
261.761	131.92
261.977	33.62
262.193	-74.92
262.409	103.25
262.626	-9.39
262.842	-9.39
263.058	-13.48
263.274	68.44
263.49	37.72
263.707	62.29
263.923	19.29
264.139	-95.4
264.355	-1.19
264.571	111.44
264.787	33.62
265.004	95.06
265.22	0.85
265.436	-89.26
265.652	-17.58
265.868	52.05
266.084	-93.35
266.3	-44.2
266.516	-48.3
266.732	95.06
266.948	25.43
267.164	-19.63
267.38	66.39
267.596	31.57
267.812	146.26
268.028	17.24
268.244	21.33
268.46	-15.53
268.676	-11.43
268.892	76.63
269.108	-33.96
269.324	-33.96
269.54	-13.48
269.756	107.35
269.972	-66.73
270.188	-25.77
270.403	-58.54
270.619	-19.63
270.835	19.29
271.051	21.33
271.267	-56.49
271.483	-13.48
271.698	43.86
271.914	45.91
272.13	31.57
272.346	29.52
272.562	115.54
272.777	76.63
272.993	62.29
273.209	39.76
273.425	-1.19
273.64	-19.63
273.856	90.96
274.072	-62.63
274.287	39.76
274.503	179.03
274.719	127.83
274.934	-21.67
275.15	-76.97
275.366	4.95
275.581	-46.25
275.797	29.52
276.012	31.57
276.228	35.67
276.444	29.52
276.659	162.64
276.875	-46.25
277.09	-1.19
277.306	-1.19
277.521	54.1
277.737	68.44
277.952	82.77
278.168	-29.87
278.383	0.85
278.599	72.53
278.814	-13.48
279.03	88.92
279.245	138.07
279.461	37.72
279.676	150.36
279.892	-56.49
280.107	-27.82
280.322	-52.39
280.538	19.29
280.753	-50.35
280.969	-15.53
281.184	31.57
281.399	166.74
281.615	-5.29
281.83	47.96
282.045	-5.29
282.26	-50.35
282.476	-17.58
282.691	129.88
282.906	33.62
283.122	109.4
283.337	45.91
283.552	72.53
283.767	-68.78
283.983	88.92
284.198	-23.72
284.413	62.29
284.628	-91.31
284.843	-21.67
285.058	72.53
285.274	13.14
285.489	-40.11
285.704	56.15
285.919	78.68
286.134	-50.35
286.349	109.4
286.564	-27.82
286.779	119.64
286.995	-13.48
287.21	-66.73
287.425	99.16
287.64	-27.82
287.855	68.44
288.07	-111.78
288.285	72.53
288.5	111.44
288.715	54.1
288.93	-60.59
289.145	-13.48
289.36	9.05
289.575	2.9
289.79	111.44
290.004	2.9
290.219	64.34
290.434	-13.48
290.649	25.43
290.864	56.15
291.079	9.05
291.294	-1.19
291.509	11.09
291.724	21.33
291.938	7
292.153	101.2
292.368	56.15
292.583	-72.87
292.798	93.01
293.012	41.81
293.227	80.72
293.442	-66.73
293.657	45.91
293.871	50
294.086	97.11
294.301	99.16
294.516	113.49
294.73	66.39
294.945	-40.11
295.16	74.58
295.374	133.97
295.589	109.4
295.804	-9.39
296.018	86.87
296.233	88.92
296.447	76.63
296.662	-21.67
296.877	64.34
297.091	95.06
297.306	11.09
297.52	68.44
297.735	47.96
297.949	-3.24
298.164	109.4
298.378	15.19
298.593	-40.11
298.807	23.38
299.022	-17.58
299.236	111.44
299.451	70.48
299.665	27.48
299.88	-25.77
300.094	68.44
300.309	-62.63
300.523	66.39
300.737	-46.25
300.952	45.91
301.166	84.82
301.381	-25.77
301.595	-33.96
301.809	29.52
302.024	97.11
302.238	-152.74
302.452	107.35
302.667	11.09
302.881	113.49
303.095	41.81
303.309	47.96
303.524	-66.73
303.738	27.48
303.952	-56.49
304.166	117.59
304.381	-119.98
304.595	168.79
304.809	41.81
305.023	-56.49
305.237	41.81
305.452	39.76
305.666	127.83
305.88	25.43
306.094	90.96
306.308	95.06
306.522	54.1
306.736	41.81
306.95	109.4
307.164	43.86
307.379	-44.2
307.593	197.46
307.807	76.63
308.021	84.82
308.235	66.39
308.449	-87.21
308.663	-56.49
308.877	189.27
309.091	97.11
309.305	23.38
309.519	-42.15
309.733	86.87
309.947	-144.55
310.161	29.52
310.374	95.06
310.588	211.79
310.802	2.9
311.016	7
311.23	45.91
311.444	-13.48
311.658	54.1
311.872	103.25
312.085	86.87
312.299	168.79
312.513	148.31
312.727	-21.67
312.941	-25.77
313.154	115.54
313.368	62.29
313.582	33.62
313.796	43.86
314.009	-87.21
314.223	90.96
314.437	103.25
314.651	93.01
314.864	-36.01
315.078	-23.72
315.292	-5.29
315.505	-15.53
315.719	47.96
315.933	-13.48
316.146	-33.96
316.36	70.48
316.573	125.78
316.787	82.77
317.001	72.53
317.214	-68.78
317.428	11.09
317.641	-99.5
317.855	33.62
318.068	27.48
318.282	33.62
318.495	191.31
318.709	121.68
318.922	33.62
319.136	181.07
319.349	64.34
319.563	-13.48
319.776	31.57
319.99	-79.02
320.203	35.67
320.417	0.85
320.63	27.48
320.843	187.22
321.057	9.05
321.27	-48.3
321.483	27.48
321.697	29.52
321.91	66.39
322.124	7
322.337	103.25
322.55	-25.77
322.763	35.67
322.977	-7.34
323.19	-31.91
323.403	23.38
323.617	39.76
323.83	176.98
324.043	7
324.256	60.24
324.469	-101.55
324.683	115.54
324.896	2.9
325.109	13.14
325.322	-38.06
325.535	207.7
325.748	97.11
325.962	-27.82
326.175	60.24
326.388	-3.24
326.601	72.53
326.814	17.24
327.027	74.58
327.24	86.87
327.453	-27.82
327.666	90.96
327.879	47.96
328.092	142.16
328.305	45.91
328.518	19.29
328.731	-52.39
328.944	54.1
329.157	66.39
329.37	-15.53
329.583	56.15
329.796	90.96
330.009	-68.78
330.222	43.86
330.435	60.24
330.648	35.67
330.861	-38.06
331.073	-9.39
331.286	111.44
331.499	2.9
331.712	25.43
331.925	45.91
332.138	70.48
332.35	88.92
332.563	-9.39
332.776	172.88
332.989	29.52
333.202	-7.34
333.414	2.9
333.627	-3.24
333.84	11.09
334.053	7
334.265	0.85
334.478	45.91
334.691	4.95
334.903	-15.53
335.116	-50.35
335.329	19.29
335.541	58.2
335.754	150.36
335.966	7
336.179	127.83
336.392	-27.82
336.604	-9.39
336.817	84.82
337.029	31.57
337.242	-15.53
337.454	21.33
337.667	-27.82
337.88	84.82
338.092	13.14
338.305	84.82
338.517	-3.24
338.729	117.59
338.942	64.34
339.154	-68.78
339.367	-50.35
339.579	74.58
339.792	62.29
340.004	45.91
340.217	82.77
340.429	35.67
340.641	-3.24
340.854	0.85
341.066	-21.67
341.278	86.87
341.491	168.79
341.703	17.24
341.915	-1.19
342.128	113.49
342.34	11.09
342.552	-38.06
342.764	-36.01
342.977	-46.25
343.189	72.53
343.401	50
343.613	-38.06
343.826	50
344.038	-54.44
344.25	43.86
344.462	-17.58
344.674	15.19
344.886	-52.39
345.099	58.2
345.311	45.91
345.523	-19.63
345.735	-62.63
345.947	62.29
346.159	-25.77
346.371	15.19
346.583	-62.63
346.795	209.75
347.007	-31.91
347.219	47.96
347.431	-13.48
347.643	86.87
347.855	-42.15
348.067	52.05
348.279	-76.97
348.491	11.09
348.703	39.76
348.915	-64.68
349.127	-113.83
349.339	2.9
349.551	-38.06
349.763	136.02
349.975	25.43
350.187	68.44
350.399	23.38
350.61	21.33
350.822	7
351.034	82.77
351.246	33.62
351.458	31.57
351.669	103.25
351.881	7
352.093	140.12
352.305	138.07
352.517	84.82
352.728	99.16
352.94	54.1
353.152	90.96
353.363	-5.29
353.575	50
353.787	185.17
353.999	84.82
354.21	90.96
354.422	-33.96
354.633	-33.96
354.845	80.72
355.057	66.39
355.268	-11.43
355.48	27.48
355.692	-52.39
355.903	4.95
356.115	-81.07
356.326	-107.69
356.538	113.49
356.749	66.39
356.961	103.25
357.172	-17.58
357.384	-40.11
357.595	142.16
357.807	19.29
358.018	9.05
358.23	15.19
358.441	160.59
358.653	95.06
358.864	37.72
359.075	-42.15
359.287	50
359.498	58.2
359.709	52.05
359.921	64.34
360.132	47.96
360.344	33.62
360.555	2.9
360.766	-9.39
360.977	-15.53
361.189	97.11
361.4	47.96
361.611	45.91
361.823	66.39
362.034	76.63
362.245	-136.36
362.456	47.96
362.667	80.72
362.879	58.2
363.09	82.77
363.301	82.77
363.512	54.1
363.723	-1.19
363.935	-79.02
364.146	64.34
364.357	-23.72
364.568	-3.24
364.779	17.24
364.99	148.31
365.201	-31.91
365.412	195.41
365.623	-44.2
365.834	4.95
366.045	54.1
366.256	62.29
366.467	144.21
366.678	72.53
366.889	23.38
367.1	-25.77
367.311	-13.48
367.522	-70.83
367.733	64.34
367.944	19.29
368.155	-48.3
368.366	150.36
368.577	54.1
368.788	66.39
368.999	52.05
369.209	60.24
369.42	187.22
369.631	224.08
369.842	95.06
370.053	15.19
370.264	119.64
370.474	-5.29
370.685	119.64
370.896	47.96
371.107	138.07
371.317	11.09
371.528	27.48
371.739	129.88
371.95	107.35
372.16	58.2
372.371	-79.02
372.582	-1.19
372.792	80.72
373.003	21.33
373.214	52.05
373.424	62.29
373.635	-91.31
373.846	174.93
374.056	17.24
374.267	82.77
374.477	47.96
374.688	-62.63
374.898	74.58
375.109	-40.11
375.319	68.44
375.53	82.77
375.74	93.01
375.951	-31.91
376.161	90.96
376.372	0.85
376.582	-62.63
376.793	88.92
377.003	2.9
377.214	-15.53
377.424	64.34
377.635	-27.82
377.845	-5.29
378.055	183.12
378.266	2.9
378.476	-11.43
378.686	0.85
378.897	45.91
379.107	90.96
379.317	15.19
379.528	-60.59
379.738	90.96
379.948	-15.53
380.158	64.34
380.369	72.53
380.579	142.16
380.789	27.48
380.999	15.19
381.21	105.3
381.42	201.55
381.63	47.96
381.84	93.01
382.05	72.53
382.261	142.16
382.471	107.35
382.681	-21.67
382.891	125.78
383.101	50
383.311	-62.63
383.521	-79.02
383.731	99.16
383.941	43.86
384.151	-17.58
384.361	0.85
384.571	95.06
384.781	-38.06
384.991	95.06
385.201	187.22
385.411	86.87
385.621	-13.48
385.831	95.06
386.041	31.57
386.251	27.48
386.461	23.38
386.671	-15.53
386.881	35.67
387.091	-29.87
387.301	29.52
387.511	19.29
387.72	56.15
387.93	125.78
388.14	-42.15
388.35	64.34
388.56	52.05
388.769	152.4
388.979	70.48
389.189	-42.15
389.399	29.52
389.609	78.68
389.818	60.24
390.028	25.43
390.238	72.53
390.447	-111.78
390.657	72.53
390.867	47.96
391.076	-9.39
391.286	-5.29
391.496	23.38
391.705	33.62
391.915	72.53
392.125	37.72
392.334	45.91
392.544	140.12
392.753	39.76
392.963	-15.53
393.172	29.52
393.382	-87.21
393.591	136.02
393.801	-38.06
394.01	105.3
394.22	103.25
394.429	-25.77
394.639	27.48
394.848	21.33
395.058	52.05
395.267	19.29
395.477	60.24
395.686	113.49
395.895	129.88
396.105	201.55
396.314	39.76
396.524	-19.63
396.733	15.19
396.942	54.1
397.152	93.01
397.361	109.4
397.57	93.01
397.78	-23.72
397.989	25.43
398.198	140.12
398.407	35.67
398.617	29.52
398.826	41.81
399.035	-36.01
399.244	19.29
399.453	60.24
399.663	17.24
399.872	88.92
400.081	-42.15
400.29	131.92
400.499	47.96
400.708	78.68
400.917	52.05
401.127	7
401.336	68.44
401.545	146.26
401.754	19.29
401.963	82.77
402.172	15.19
402.381	-142.5
402.59	0.85
402.799	-9.39
403.008	35.67
403.217	127.83
403.426	70.48
403.635	25.43
403.844	70.48
404.053	-40.11
404.262	9.05
404.471	185.17
404.68	56.15
404.888	-15.53
405.097	31.57
405.306	37.72
405.515	60.24
405.724	4.95
405.933	56.15
406.142	86.87
406.35	93.01
406.559	21.33
406.768	27.48
406.977	72.53
407.185	37.72
407.394	29.52
407.603	-70.83
407.812	9.05
408.02	72.53
408.229	43.86
408.438	43.86
408.646	-27.82
408.855	-36.01
409.064	-5.29
409.272	0.85
409.481	76.63
409.69	-64.68
409.898	-48.3
410.107	99.16
410.315	66.39
410.524	35.67
410.733	29.52
410.941	43.86
411.15	23.38
411.358	150.36
411.567	133.97
411.775	125.78
411.984	111.44
412.192	33.62
412.401	2.9
412.609	230.23
412.818	179.03
413.026	29.52
413.234	-83.11
413.443	45.91
413.651	43.86
413.86	4.95
414.068	123.73
414.276	203.6
414.485	-15.53
414.693	138.07
414.901	197.46
415.11	107.35
415.318	41.81
415.526	72.53
415.734	76.63
415.943	105.3
416.151	166.74
416.359	56.15
416.567	129.88
416.776	172.88
416.984	13.14
417.192	138.07
417.4	29.52
417.608	-7.34
417.817	11.09
418.025	209.75
418.233	119.64
418.441	-128.17
418.649	-9.39
418.857	76.63
419.065	119.64
419.273	39.76
419.481	66.39
419.689	52.05
419.897	-58.54
420.105	-19.63
420.313	90.96
420.521	72.53
420.729	131.92
420.937	-11.43
421.145	-3.24
421.353	82.77
421.561	193.36
421.769	127.83
421.977	9.05
422.185	99.16
422.393	23.38
422.601	62.29
422.809	-48.3
423.017	-5.29
423.224	107.35
423.432	168.79
423.64	62.29
423.848	136.02
424.056	-36.01
424.263	101.2
424.471	39.76
424.679	199.51
424.887	62.29
425.094	111.44
425.302	41.81
425.51	31.57
425.718	123.73
425.925	97.11
426.133	-7.34
426.341	179.03
426.548	64.34
426.756	45.91
426.964	74.58
427.171	-50.35
427.379	115.54
427.586	70.48
427.794	99.16
428.001	154.45
428.209	160.59
428.417	142.16
428.624	125.78
428.832	66.39
429.039	113.49
429.247	103.25
429.454	27.48
429.662	203.6
429.869	176.98
430.076	111.44
430.284	123.73
430.491	140.12
430.699	160.59
430.906	265.04
431.114	131.92
431.321	93.01
431.528	109.4
431.736	195.41
431.943	158.55
432.15	189.27
432.358	199.51
432.565	256.85
432.772	-42.15
432.979	258.9
433.187	154.45
433.394	269.14
433.601	189.27
433.808	230.23
434.016	240.47
434.223	246.61
434.43	164.69
434.637	318.29
434.844	176.98
435.052	256.85
435.259	260.95
435.466	299.86
435.673	199.51
435.88	287.57
436.087	385.87
436.294	437.07
436.501	355.15
436.708	301.9
436.915	334.67
437.122	402.26
437.329	291.66
437.537	338.77
437.743	406.35
437.95	400.21
438.157	346.96
438.364	418.64
438.571	432.97
438.778	437.07
438.985	488.27
439.192	492.37
439.399	529.23
439.606	482.13
439.813	654.16
440.02	713.55
440.227	746.31
440.433	674.64
440.64	637.77
440.847	559.95
441.054	652.11
441.261	785.23
441.467	672.59
441.674	699.21
441.881	754.51
442.088	740.17
442.294	863.05
442.501	803.66
442.708	953.16
442.914	865.1
443.121	969.54
443.328	1039.17
443.534	1059.65
443.741	1000.26
443.948	863.05
444.154	1088.32
444.361	1309.51
444.568	1153.86
444.774	1223.49
444.981	1139.52
445.187	1291.07
445.394	1389.38
445.6	1336.13
445.807	1524.54
446.013	1542.97
446.22	1387.33
446.426	1495.87
446.633	1542.97
446.839	1891.13
447.046	1583.93
447.252	1919.8
447.459	1872.7
447.665	1958.71
447.871	2085.69
448.078	2216.76
448.284	2218.8
448.491	2263.86
448.697	2329.39
448.903	2501.42
449.11	2534.19
449.316	2487.09
449.522	2816.81
449.728	2671.4
449.935	2868.01
450.141	2820.91
450.347	3132.2
450.553	3019.56
450.76	3302.18
450.966	3388.19
451.172	3238.69
451.378	3631.9
451.584	3724.06
451.791	3978.01
451.997	4057.88
452.203	4078.36
452.409	4377.36
452.615	4541.2
452.821	4512.53
453.027	4336.4
453.233	4981.51
453.44	4813.58
453.646	5120.78
453.852	5440.26
454.058	5421.83
454.264	5784.32
454.47	6064.89
454.676	6103.8
454.882	6490.87
455.088	6294.26
455.294	6642.42
455.5	7086.83
455.705	7520.99
455.911	7688.93
456.117	7746.27
456.323	8018.65
456.529	7903.96
456.735	8674
456.941	8725.2
457.147	9200.33
457.352	9806.53
457.558	10072.76
457.764	10511.03
457.97	10754.74
458.176	11246.25
458.381	11768.48
458.587	12006.05
458.793	12663.44
458.999	12483.22
459.204	14051.97
459.41	14445.18
459.616	14242.43
459.821	15313.52
460.027	15796.84
460.233	16593.5
460.438	16716.37
460.644	17816.13
460.85	17906.24
461.055	18549.31
461.261	19575.34
461.466	18983.48
461.672	19354.16
461.878	21568.01
462.083	21463.57
462.289	21871.11
462.494	22761.98
462.7	23063.03
462.905	23177.72
463.111	25135.57
463.316	26110.41
463.522	26747.33
463.727	27783.6
463.932	28576.16
464.138	29403.54
464.343	30638.47
464.549	30994.81
464.754	33106.27
464.959	34107.72
465.165	34681.16
465.37	34304.33
465.575	34150.73
465.781	36561.19
465.986	37845.27
466.191	37693.72
466.397	37540.12
466.602	36450.6
466.807	38691.08
467.012	39543.03
467.218	39979.25
467.423	39796.98
467.628	41015.52
467.833	43098.31
468.038	42541.26
468.244	41754.84
468.449	43780.28
468.654	43126.98
468.859	43212.99
469.064	42950.85
469.269	42031.32
469.474	42313.94
469.679	43483.33
469.885	42133.71
470.09	43071.68
470.295	42938.57
470.5	41732.31
470.705	42594.51
470.91	41349.34
471.115	40728.81
471.32	41502.94
471.525	41435.36
471.73	40095.99
471.935	39919.86
472.139	38564.1
472.344	38539.53
472.549	38078.74
472.754	37495.07
472.959	36569.38
473.164	35211.58
473.369	34851.14
473.574	35952.94
473.778	35260.73
473.983	34793.79
474.188	33907.02
474.393	32088.43
474.598	32338.28
474.802	31553.91
475.007	31129.98
475.212	31224.18
475.417	29675.92
475.621	29559.19
475.826	29024.67
476.031	28359.08
476.235	28139.94
476.44	27947.43
476.645	27210.17
476.849	26913.21
477.054	26354.12
477.259	25741.77
477.463	25643.47
477.668	25012.7
477.872	25119.19
478.077	24527.33
478.282	23693.8
478.486	23794.15
478.691	23292.4
478.895	23028.21
479.1	22970.87
479.304	22917.62
479.509	22100.48
479.713	22245.89
479.918	21758.47
480.122	21035.54
480.326	21248.53
480.531	21549.58
480.735	21080.6
480.94	20931.09
481.144	21303.82
481.348	20177.44
481.553	20478.49
481.757	19665.45
481.961	20087.33
482.166	20015.65
482.37	19997.22
482.574	19702.31
482.778	19614.25
482.983	19712.55
483.187	19315.25
483.391	18930.23
483.595	18836.02
483.8	18518.59
484.004	18735.67
484.208	18723.38
484.412	18547.26
484.616	18141.76
484.821	18182.72
485.025	17412.68
485.229	17793.61
485.433	17285.71
485.637	17261.13
485.841	16962.13
486.045	16456.28
486.249	16400.99
486.453	16276.06
486.657	15845.99
486.861	15657.57
487.065	15084.14
487.269	15231.6
487.473	14826.1
487.677	14865.01
487.881	14717.56
488.085	14244.48
488.289	14215.8
488.493	13935.23
488.697	13886.08
488.901	13531.78
489.105	13064.85
489.309	13093.52
489.512	12649.11
489.716	12423.83
489.92	12380.82
490.124	11924.13
490.328	12391.06
490.531	11674.28
490.735	11592.36
490.939	11184.81
491.143	11096.75
491.346	10711.73
491.55	10848.94
491.754	10435.25
491.958	10357.43
492.161	10228.41
492.365	10078.91
492.569	10064.57
492.772	9835.2
492.976	9827.01
493.18	9644.74
493.383	9673.41
493.587	9317.06
493.79	9241.29
493.994	9175.75
494.197	9136.84
494.401	9085.64
494.605	8782.54
494.808	8886.99
495.012	8516.31
495.215	8614.61
495.419	8575.7
495.622	8393.43
495.825	8405.72
496.029	8104.67
496.232	8448.72
496.436	8323.8
496.639	8469.2
496.843	8110.81
497.046	8440.53
497.249	8288.98
497.453	8321.75
497.656	8250.07
497.859	8129.24
498.063	8397.53
498.266	8395.48
498.469	8149.72
498.673	8159.96
498.876	8516.31
499.079	8483.54
499.282	8350.42
499.485	8618.71
499.689	8633.04
499.892	8696.53
500.095	8540.88
500.298	8782.54
500.501	8544.98
500.705	9040.59
500.908	8823.5
501.111	8864.46
501.314	9007.82
501.517	9282.25
501.72	9226.95
501.923	9138.89
502.126	9460.42
502.329	9722.56
502.532	9476.8
502.735	9790.14
502.938	9939.65
503.141	9859.77
503.344	9988.8
503.547	10083
503.75	10044.09
503.953	10508.98
504.156	10554.04
504.359	10564.28
504.562	10711.73
504.765	11016.88
504.968	11225.77
505.17	11330.22
505.373	11350.7
505.576	11653.8
505.779	11963.04
505.982	11844.26
506.185	12395.16
506.387	12464.79
506.59	12726.93
506.793	13046.41
506.996	13030.03
507.198	13787.78
507.401	13632.13
507.604	13804.16
507.807	14180.99
508.009	14125.69
508.212	14688.89
508.415	14912.11
508.617	15207.02
508.82	15360.62
509.022	15624.81
509.225	16226.91
509.428	16415.32
509.63	16771.67
509.833	16958.03
510.035	17691.21
510.238	17867.33
510.44	17998.4
510.643	18604.6
510.845	19083.83
511.048	19020.34
511.25	19647.02
511.453	20089.38
511.655	21084.69
511.858	21160.47
512.06	21578.25
512.262	21801.48
512.465	22249.99
512.667	23052.79
512.87	23417.33
513.072	23878.12
513.274	24906.2
513.477	25244.12
513.679	25645.52
513.881	26124.74
514.084	26710.46
514.286	27230.65
514.488	27519.41
514.69	28701.09
514.893	29116.83
515.095	29741.46
515.297	30368.13
515.499	30878.08
515.701	31656.31
515.904	32196.97
516.106	32797.02
516.308	33771.86
516.51	34115.92
516.712	34875.71
516.914	35592.5
517.116	36454.7
517.318	36606.25
517.52	37103.9
517.722	38168.85
517.925	38560.01
518.127	39588.09
518.329	40542.44
518.531	40155.38
518.733	41683.16
518.935	42143.95
519.136	42512.59
519.338	43258.05
519.54	43684.03
519.742	44992.68
519.944	44972.2
520.146	46297.23
520.348	45887.64
520.55	46798.99
520.752	47501.44
520.954	48459.89
521.155	47775.87
521.357	49172.58
521.559	49883.23
521.761	50663.5
521.963	50450.52
522.164	51253.32
522.366	51433.54
522.568	51763.26
522.77	52217.91
522.971	52850.73
523.173	52662.32
523.375	53334.06
523.576	53508.13
523.778	53545
523.98	53753.89
524.181	54022.17
524.383	54216.73
524.584	55152.65
524.786	54470.68
524.988	54124.57
525.189	55099.4
525.391	55320.59
525.592	55087.12
525.794	55287.82
525.995	54724.63
526.197	54874.13
526.398	55158.8
526.6	54974.48
526.801	54550.55
527.003	54861.84
527.204	54310.94
527.406	54566.93
527.607	54312.98
527.808	53790.75
528.01	53067.82
528.211	53633.06
528.412	53645.35
528.614	53104.68
528.815	52443.19
529.016	52699.19
529.218	51325
529.419	51402.82
529.62	50958.41
529.822	50370.64
530.023	50171.99
530.224	49647.71
530.425	49219.69
530.626	48320.63
530.828	47796.35
531.029	48441.46
531.23	47159.43
531.431	46624.91
531.632	46272.66
531.833	46020.76
532.035	45074.6
532.236	44644.52
532.437	44458.16
532.638	43710.65
532.839	43327.68
533.04	42866.89
533.241	41556.19
533.442	41758.94
533.643	41046.24
533.844	40349.93
534.045	39846.13
534.246	38856.96
534.447	39026.95
534.648	37976.34
534.849	38076.69
535.05	37232.93
535.251	36972.83
535.451	36284.72
535.652	35971.38
535.853	35387.71
536.054	35123.52
536.255	34548.04
536.456	34034
536.657	33904.98
536.857	33190.23
537.058	32715.11
537.259	32471.4
537.46	31816.05
537.66	31428.98
537.861	31287.67
538.062	30697.86
538.263	30568.83
538.463	29542.8
538.664	29606.29
538.865	28740
539.065	28750.24
539.266	28352.93
539.466	28180.9
539.667	27591.09
539.868	27853.23
540.068	27017.66
540.269	26773.95
540.469	26751.42
540.67	26087.88
540.87	25770.44
541.071	25586.13
541.271	25180.63
541.472	25033.18
541.672	24607.2
541.873	24226.28
542.073	23925.22
542.274	23943.66
542.474	23515.63
542.675	23288.31
542.875	22977.01
543.075	22542.85
543.276	22522.37
543.476	22407.68
543.676	22317.57
543.877	21975.56
544.077	21463.57
544.277	21256.72
544.478	21037.59
544.678	20830.74
544.878	20572.7
545.078	20351.52
545.279	20103.71
545.479	19878.44
545.679	19458.6
545.879	19403.31
546.079	19436.08
546.28	19014.2
546.48	18868.79
546.68	18698.81
546.88	18281.02
547.08	18315.84
547.28	18031.17
547.48	17357.39
547.68	17447.5
547.88	17218.13
548.081	17111.63
548.281	16855.64
548.481	16609.88
548.681	16489.05
548.881	16319.07
549.081	16114.27
549.28	15727.21
549.48	15755.88
549.68	15401.58
549.88	15217.26
550.08	14789.24
550.28	14928.5
550.48	14582.39
550.68	14432.89
550.88	13978.24
551.08	13871.75
551.279	13779.59
551.479	13529.73
551.679	13286.03
551.879	13398.66
552.079	13118.09
552.278	12747.41
552.478	12810.9
552.678	12266.14
552.878	12354.2
553.077	12010.14
553.277	11924.13
553.477	11840.16
553.676	11582.12
553.876	11389.61
554.076	11260.59
554.275	10963.63
554.475	10764.98
554.674	10844.85
554.874	10480.31
555.074	10195.64
555.273	10089.15
555.473	10003.13
555.672	9870.01
555.872	9491.14
556.071	9450.18
556.271	9437.89
556.47	9202.38
556.67	9050.83
556.869	8825.55
557.068	8805.07
557.268	8493.78
557.467	8616.66
557.667	8465.11
557.866	8176.34
558.065	8135.39
558.265	7920.35
558.464	7666.4
558.663	7865.05
558.863	7541.47
559.062	7512.8
559.261	7348.97
559.461	7373.54
559.66	7019.24
559.859	7115.5
560.058	6685.42
560.258	6806.25
560.457	6609.65
560.656	6638.32
560.855	6484.72
561.054	6447.86
561.253	6116.09
561.453	6220.53
561.652	6099.7
561.851	6157.05
562.05	5870.33
562.249	5659.39
562.448	5853.95
562.647	5595.9
562.846	5450.5
563.045	5430.02
563.244	5405.44
563.443	5460.74
563.642	5270.28
563.841	5194.5
564.04	5073.67
564.239	5081.86
564.438	4924.17
564.637	4631.31
564.836	4823.82
565.035	4651.79
565.234	4610.83
565.432	4535.06
565.631	4414.23
565.83	4459.28
566.029	4363.03
566.228	4191
566.427	4365.07
566.625	4002.58
566.824	4125.46
567.023	4094.74
567.222	3980.06
567.42	3990.3
567.619	3994.39
567.818	3842.84
568.016	3889.95
568.215	3668.77
568.414	3746.59
568.612	3697.44
568.811	3564.32
569.01	3549.98
569.208	3355.43
569.407	3736.35
569.605	3412.77
569.804	3253.03
570.002	3318.56
570.201	3078.95
570.4	3183.4
570.598	3056.42
570.797	3017.51
570.995	3019.56
571.193	3033.9
571.392	2919.21
571.59	2863.91
571.789	2890.54
571.987	2820.91
572.186	2788.14
572.384	2679.6
572.582	2628.4
572.781	2724.65
572.979	2513.71
573.177	2552.62
573.376	2556.72
573.574	2722.6
573.772	2444.08
573.971	2429.74
574.169	2329.39
574.367	2396.98
574.565	2249.52
574.763	2186.04
574.962	2249.52
575.16	2173.75
575.358	2028.34
575.556	2126.64
575.754	2120.5
575.952	2106.17
576.151	1981.24
576.349	2079.54
576.547	1870.65
576.745	2016.05
576.943	2075.45
577.141	1874.74
577.339	1794.87
577.537	1794.87
577.735	1803.07
577.933	1801.02
578.131	1747.77
578.329	1823.55
578.527	1655.61
578.725	1725.24
578.923	1440.58
579.121	1661.76
579.319	1375.04
579.516	1485.63
579.714	1766.2
579.912	1463.1
580.11	1375.04
580.308	1497.92
580.506	1397.57
580.704	1309.51
580.901	1416
581.099	1428.29
581.297	1272.64
581.495	1377.09
581.692	1319.75
581.89	1401.66
582.088	1280.83
582.285	1121.09
582.483	1248.07
582.681	1217.35
582.878	1178.44
583.076	1178.44
583.274	1219.39
583.471	1317.7
583.669	1233.73
583.866	961.35
584.064	1067.85
584.262	969.54
584.459	1104.71
584.657	1088.32
584.854	1106.76
585.052	1110.85
585.249	998.21
585.447	1067.85
585.644	953.16
585.841	1043.27
586.039	1033.03
586.236	961.35
586.434	875.34
586.631	836.42
586.828	817.99
587.026	908.1
587.223	797.51
587.42	875.34
587.618	981.83
587.815	904.01
588.012	873.29
588.21	723.79
588.407	891.72
588.604	721.74
588.801	809.8
588.999	731.98
589.196	906.06
589.393	693.07
589.59	725.83
589.787	828.23
589.984	811.85
590.182	848.71
590.379	641.87
590.576	791.37
590.773	820.04
590.97	693.07
591.167	828.23
591.364	707.4
591.561	727.88
591.758	852.81
591.955	772.94
592.152	713.55
592.349	664.4
592.546	658.25
592.743	662.35
592.94	678.73
593.137	711.5
593.334	770.89
593.531	754.51
593.727	772.94
593.924	744.27
594.121	750.41
594.318	715.59
594.515	764.75
594.712	801.61
594.908	807.75
595.105	598.86
595.302	764.75
595.499	795.47
595.696	863.05
595.892	697.16
596.089	901.96
596.286	803.66
596.482	930.63
596.679	811.85
596.876	912.2
597.072	891.72
597.269	850.76
597.466	994.12
597.662	936.78
597.859	942.92
598.055	1049.41
598.252	1094.47
598.448	1055.56
598.645	1205.06
598.841	1182.53
599.038	1221.44
599.234	1344.32
599.431	1280.83
599.627	1395.52
599.824	1475.39
600.02	1483.58
600.217	1442.62
600.413	1559.36
600.609	1569.6
600.806	1815.35
601.002	1655.61
601.198	1715
601.395	2042.68
601.591	1852.22
601.787	2050.87
601.984	2071.35
602.18	2188.08
602.376	2308.91
602.572	2313.01
602.769	2491.18
602.965	2521.9
603.161	2738.99
603.357	2831.15
603.553	2757.42
603.75	2986.79
603.946	2970.41
604.142	3162.92
604.338	3343.14
604.534	3287.84
604.73	3222.31
604.926	3336.99
605.122	3785.5
605.318	3666.72
605.514	3963.67
605.71	4076.31
605.906	4270.87
606.102	4229.91
606.298	4492.05
606.494	4545.3
606.69	4795.15
606.886	4645.65
607.082	4875.02
607.278	4934.41
607.474	5155.59
607.67	5450.5
607.866	5417.73
608.062	5710.59
608.257	5722.88
608.453	5798.65
608.649	6046.46
608.845	6173.43
609.041	6351.6
609.236	6802.16
609.432	6886.12
609.628	7166.7
609.824	7109.35
610.019	7236.33
610.215	7516.9
610.411	7908.06
610.606	8012.51
610.802	8370.9
610.998	8438.48
611.193	8661.71
611.389	8671.95
611.584	9032.4
611.78	9153.23
611.976	9460.42
612.171	10091.2
612.367	9994.94
612.562	10404.53
612.758	10279.61
612.953	10732.21
613.149	11102.89
613.344	11354.79
613.539	11829.92
613.735	11993.76
613.93	12397.21
614.126	12487.32
614.321	13036.17
614.517	13283.98
614.712	13687.43
614.907	13972.1
615.103	14189.18
615.298	14705.27
615.493	14922.35
615.688	15110.77
615.884	15999.59
616.079	16085.6
616.274	16769.62
616.47	16788.05
616.665	17597
616.86	17648.2
617.055	18084.42
617.25	18434.62
617.445	19348.01
617.641	19292.72
617.836	20210.21
618.031	20324.9
618.226	21094.93
618.421	21776.91
618.616	21989.89
618.811	22469.12
619.006	23392.75
619.201	23333.36
619.396	24386.02
619.591	24230.37
619.786	25287.12
619.981	25641.42
620.176	26550.72
620.371	26333.64
620.566	27212.21
620.761	27937.2
620.956	28598.69
621.151	29112.73
621.346	29555.09
621.541	29641.11
621.735	30802.3
621.93	30929.28
622.125	31666.55
622.32	31848.82
622.515	32672.1
622.709	33333.59
622.904	34193.74
623.099	34509.13
623.294	35033.41
623.488	35836.21
623.683	36444.46
623.878	36546.86
624.072	37359.9
624.267	37869.84
624.462	38674.7
624.656	38873.35
624.851	39858.42
625.046	39727.35
625.24	40816.87
625.435	41427.17
625.629	41853.14
625.824	42315.98
626.018	43122.88
626.213	42920.13
626.407	43749.56
626.602	43776.19
626.796	44990.63
626.991	45494.43
627.185	45150.37
627.38	45746.33
627.574	45678.75
627.768	46424.21
627.963	46110.87
628.157	45979.8
628.352	46868.62
628.546	46475.41
628.74	47313.03
628.935	46481.55
629.129	46952.58
629.323	46203.03
629.517	46416.02
629.712	45815.96
629.906	45719.71
630.1	45072.55
630.294	44910.76
630.489	44290.23
630.683	43958.45
630.877	42725.58
631.071	42315.98
631.265	41955.54
631.459	41060.58
631.653	39512.31
631.848	39201.02
632.042	38250.77
632.236	37564.7
632.43	35987.76
632.624	35742
632.818	34359.63
633.012	32999.77
633.206	32438.63
633.4	31404.41
633.594	30089.61
633.788	29198.74
633.982	28279.21
634.176	27482.55
634.369	26264
634.563	25430.48
634.757	24207.84
634.951	23591.41
635.145	22798.84
635.339	21852.68
635.533	20754.97
635.726	20191.78
635.92	19137.07
636.114	18563.64
636.308	17621.58
636.501	16966.23
636.695	16458.33
636.889	15415.91
637.083	14844.53
637.276	14350.97
637.47	13806.21
637.664	13120.14
637.857	12503.7
638.051	12245.66
638.244	11764.39
638.438	11133.61
638.632	10910.38
638.825	10474.17
639.019	10019.52
639.212	9560.77
639.406	9417.41
639.599	8981.2
639.793	8372.95
639.986	8078.04
640.18	7793.37
640.373	7615.2
640.567	7201.51
640.76	7074.54
640.954	6781.68
641.147	6404.85
641.34	6060.79
641.534	6032.12
641.727	5972.73
641.92	5421.83
642.114	5145.35
642.307	5094.15
642.5	4836.11
642.694	4672.27
642.887	4401.94
643.08	4504.34
643.273	4133.65
643.467	4092.69
643.66	3873.56
643.853	3752.73
644.046	3531.55
644.239	3525.41
644.432	3377.95
644.626	3054.37
644.819	3021.61
645.012	2956.07
645.205	2841.39
645.398	2741.04
645.591	2577.2
645.784	2519.85
645.977	2435.89
646.17	2317.11
646.363	2220.85
646.556	1989.43
646.749	2001.72
646.942	2050.87
647.135	2024.25
647.328	1893.18
647.521	1704.76
647.714	1657.66
647.907	1684.28
648.099	1512.25
648.292	1600.32
648.485	1489.73
648.678	1405.76
648.871	1362.75
649.064	1407.81
649.256	1207.11
649.449	1106.76
649.642	1121.09
649.835	1047.37
650.027	971.59
650.22	1092.42
650.413	1076.04
650.605	1000.26
650.798	863.05
650.991	897.86
651.183	858.95
651.376	885.58
651.568	813.9
651.761	791.37
651.954	828.23
652.146	750.41
652.339	797.51
652.531	795.47
652.724	527.18
652.916	668.49
653.109	553.8
653.301	781.13
653.494	658.25
653.686	555.85
653.879	668.49
654.071	584.52
654.263	457.55
654.456	547.66
654.648	574.28
654.84	576.33
655.033	396.11
655.225	551.76
655.417	353.1
655.61	504.65
655.802	525.13
655.994	586.57
656.186	369.49
656.379	480.08
656.571	318.29
656.763	283.47
656.955	361.3
657.148	392.02
657.34	488.27
657.532	381.78
657.724	359.25
657.916	367.44
658.108	430.93
658.3	383.82
658.492	332.62
658.684	275.28
658.876	346.96
659.068	240.47
659.26	191.31
659.452	275.28
659.644	303.95
659.836	355.15
660.028	262.99
660.22	160.59
660.412	242.51
660.604	246.61
660.796	262.99
660.988	308.05
661.18	217.94
661.372	297.81
661.563	252.75
661.755	211.79
661.947	238.42
662.139	150.36
662.331	242.51
662.522	207.7
662.714	219.99
662.906	199.51
663.097	256.85
663.289	174.93
663.481	33.62
663.673	174.93
663.864	160.59
664.056	273.23
664.247	172.88
664.439	181.07
664.631	101.2
664.822	217.94
665.014	193.36
665.205	176.98
665.397	125.78
665.588	179.03
665.78	127.83
665.971	140.12
666.163	125.78
666.354	213.84
666.546	95.06
666.737	156.5
666.929	117.59
667.12	123.73
667.311	238.42
667.503	115.54
667.694	187.22
667.885	168.79
668.077	236.37
668.268	78.68
668.459	185.17
668.651	150.36
668.842	144.21
669.033	74.58
669.224	88.92
669.416	310.1
669.607	121.68
669.798	86.87
669.989	277.33
670.18	205.65
670.371	230.23
670.563	97.11
670.754	363.34
670.945	111.44
671.136	240.47
671.327	113.49
671.518	324.43
671.709	308.05
671.9	181.07
672.091	289.62
672.282	154.45
672.473	273.23
672.664	166.74
672.855	213.84
673.046	187.22
673.237	187.22
673.428	109.4
673.619	224.08
673.809	109.4
674	267.09
674.191	330.58
674.382	234.32
674.573	181.07
674.764	166.74
674.954	308.05
675.145	217.94
675.336	113.49
675.527	117.59
675.717	176.98
675.908	254.8
676.099	95.06
676.289	168.79
676.48	121.68
676.671	170.83
676.861	283.47
677.052	262.99
677.243	273.23
677.433	262.99
677.624	230.23
677.814	238.42
678.005	193.36
678.195	318.29
678.386	156.5
678.576	144.21
678.767	146.26
678.957	246.61
679.148	252.75
679.338	318.29
679.529	281.43
679.719	181.07
679.909	330.58
680.1	308.05
680.29	297.81
680.481	224.08
680.671	301.9
680.861	303.95
681.052	265.04
681.242	209.75
681.432	308.05
681.622	262.99
681.813	209.75
682.003	207.7
682.193	121.68
682.383	349.01
682.573	199.51
682.764	340.82
682.954	287.57
683.144	314.19
683.334	291.66
683.524	275.28
683.714	324.43
683.904	383.82
684.094	258.9
684.284	320.34
684.474	377.68
684.664	369.49
684.854	320.34
685.044	363.34
685.234	379.73
685.424	373.58
685.614	351.06
685.804	478.03
685.994	377.68
686.184	297.81
686.374	344.91
686.564	359.25
686.753	248.66
686.943	224.08
687.133	297.81
687.323	252.75
687.513	279.38
687.702	306
687.892	219.99
688.082	396.11
688.272	373.58
688.461	295.76
688.651	400.21
688.841	359.25
689.03	291.66
689.22	367.44
689.41	396.11
689.599	387.92
689.789	213.84
689.979	412.5
690.168	355.15
690.358	365.39
690.547	224.08
690.737	359.25
690.926	361.3
691.116	375.63
691.305	320.34
691.495	297.81
691.684	258.9
691.874	193.36
692.063	291.66
692.252	367.44
692.442	277.33
692.631	197.46
692.82	281.43
693.01	277.33
693.199	222.03
693.388	289.62
693.578	324.43
693.767	283.47
693.956	285.52
694.146	236.37
694.335	332.62
694.524	213.84
694.713	351.06
694.902	207.7
695.092	181.07
695.281	303.95
695.47	285.52
695.659	273.23
695.848	246.61
696.037	166.74
696.226	283.47
696.415	258.9
696.604	402.26
696.793	320.34
696.982	262.99
697.171	369.49
697.36	242.51
697.549	260.95
697.738	170.83
697.927	203.6
698.116	156.5
698.305	355.15
698.494	228.18
698.683	228.18
698.872	387.92
699.061	252.75
699.25	164.69
699.438	219.99
699.627	242.51
699.816	437.07
700.005	90.96
700.193	166.74
700.382	367.44
700.571	262.99
700.76	271.19
700.948	400.21
701.137	328.53
701.326	299.86
701.514	140.12
701.703	222.03
701.892	244.56
702.08	404.3
702.269	242.51
702.457	205.65
702.646	275.28
702.834	283.47
703.023	326.48
703.212	326.48
703.4	379.73
703.589	205.65
703.777	254.8
703.965	271.19
704.154	181.07
704.342	258.9
704.531	189.27
704.719	267.09
704.907	279.38
705.096	154.45
705.284	160.59
705.472	213.84
705.661	297.81
705.849	316.24
706.037	287.57
706.226	273.23
706.414	275.28
706.602	187.22
706.79	338.77
706.979	121.68
707.167	211.79
707.355	148.31
707.543	244.56
707.731	346.96
707.919	267.09
708.107	256.85
708.296	238.42
708.484	195.41
708.672	334.67
708.86	285.52
709.048	219.99
709.236	224.08
709.424	324.43
709.612	271.19
709.8	224.08
709.988	303.95
710.176	260.95
710.364	344.91
710.551	238.42
710.739	262.99
710.927	131.92
711.115	246.61
711.303	338.77
711.491	338.77
711.679	185.17
711.866	248.66
712.054	250.71
712.242	306
712.43	375.63
712.617	228.18
712.805	359.25
712.993	297.81
713.181	160.59
713.368	281.43
713.556	179.03
713.744	140.12
713.931	398.16
714.119	285.52
714.306	240.47
714.494	219.99
714.682	252.75
714.869	84.82
715.057	281.43
715.244	76.63
715.432	328.53
715.619	193.36
715.807	330.58
715.994	219.99
716.182	318.29
716.369	299.86
716.556	310.1
716.744	168.79
716.931	183.12
717.119	394.06
717.306	254.8
717.493	258.9
717.681	232.27
717.868	234.32
718.055	240.47
718.242	285.52
718.43	320.34
718.617	369.49
718.804	310.1
718.991	344.91
719.179	351.06
719.366	312.14
719.553	277.33
719.74	256.85
719.927	213.84
720.114	346.96
720.301	273.23
720.488	330.58
720.676	199.51
720.863	383.82
721.05	381.78
721.237	314.19
721.424	328.53
721.611	254.8
721.798	271.19
721.985	281.43
722.172	262.99
722.358	158.55
722.545	340.82
722.732	291.66
722.919	365.39
723.106	310.1
723.293	342.86
723.48	269.14
723.667	248.66
723.853	371.54
724.04	357.2
724.227	463.69
724.414	213.84
724.6	277.33
724.787	375.63
724.974	420.69
725.161	330.58
725.347	215.89
725.534	242.51
725.72	322.38
725.907	412.5
726.094	385.87
726.28	279.38
726.467	285.52
726.653	308.05
726.84	414.54
727.027	453.45
727.213	342.86
727.4	320.34
727.586	424.78
727.773	281.43
727.959	365.39
728.145	301.9
728.332	232.27
728.518	310.1
728.705	363.34
728.891	275.28
729.077	297.81
729.264	322.38
729.45	285.52
729.636	387.92
729.823	222.03
730.009	353.1
730.195	310.1
730.382	375.63
730.568	299.86
730.754	351.06
730.94	312.14
731.126	279.38
731.313	349.01
731.499	230.23
731.685	379.73
731.871	273.23
732.057	262.99
732.243	392.02
732.429	308.05
732.615	449.36
732.801	355.15
732.987	414.54
733.173	303.95
733.359	308.05
733.545	310.1
733.731	355.15
733.917	420.69
734.103	396.11
734.289	424.78
734.475	273.23
734.661	435.02
734.847	330.58
735.033	332.62
735.219	426.83
735.404	340.82
735.59	363.34
735.776	275.28
735.962	326.48
736.148	306
736.333	328.53
736.519	338.77
736.705	396.11
736.89	334.67
737.076	377.68
737.262	275.28
737.447	320.34
737.633	291.66
737.819	349.01
738.004	340.82
738.19	420.69
738.375	375.63
738.561	428.88
738.747	383.82
738.932	285.52
739.118	492.37
739.303	285.52
739.489	377.68
739.674	303.95
739.859	303.95
740.045	359.25
740.23	461.65
740.416	215.89
740.601	336.72
740.786	416.59
740.972	279.38
741.157	256.85
741.342	289.62
741.528	297.81
741.713	443.21
741.898	306
742.084	265.04
742.269	258.9
742.454	400.21
742.639	297.81
742.824	346.96
743.01	428.88
743.195	428.88
743.38	389.97
743.565	232.27
743.75	412.5
743.935	338.77
744.12	412.5
744.305	260.95
744.49	344.91
744.675	306
744.86	262.99
745.045	342.86
745.23	328.53
745.415	344.91
745.6	424.78
745.785	271.19
745.97	396.11
746.155	357.2
746.34	349.01
746.525	306
746.71	473.93
746.895	199.51
747.079	248.66
747.264	295.76
747.449	336.72
747.634	379.73
747.819	336.72
748.003	310.1
748.188	269.14
748.373	322.38
748.557	322.38
748.742	265.04
748.927	248.66
749.111	281.43
749.296	236.37
749.481	314.19
749.665	228.18
749.85	271.19
750.034	342.86
750.219	332.62
750.404	185.17
750.588	224.08
750.773	181.07
750.957	301.9
751.141	148.31
751.326	279.38
751.51	179.03
751.695	240.47
751.879	236.37
752.064	355.15
752.248	228.18
752.432	330.58
752.617	367.44
752.801	277.33
752.985	162.64
753.17	285.52
753.354	203.6
753.538	269.14
753.722	170.83
753.907	201.55
754.091	62.29
754.275	314.19
754.459	187.22
754.643	170.83
754.828	144.21
755.012	234.32
755.196	170.83
755.38	228.18
755.564	133.97
755.748	265.04
755.932	238.42
756.116	238.42
756.3	314.19
756.484	172.88
756.668	244.56
756.852	86.87
757.036	150.36
757.22	240.47
757.404	103.25
757.588	101.2
757.772	195.41
757.956	123.73
758.14	283.47
758.323	133.97
758.507	201.55
758.691	183.12
758.875	250.71
759.059	242.51
759.242	211.79
759.426	164.69
759.61	236.37
759.794	56.15
759.977	232.27
760.161	379.73
760.345	228.18
760.528	199.51
760.712	148.31
760.895	228.18
761.079	111.44
761.263	111.44
761.446	146.26
761.63	166.74
761.813	217.94
761.997	138.07
762.18	138.07
762.364	205.65
762.547	-79.02
762.731	-7.34
762.914	181.07
763.098	115.54
763.281	131.92
763.464	90.96
763.648	154.45
763.831	117.59
764.015	19.29
764.198	244.56
764.381	201.55
764.564	117.59
764.748	144.21
764.931	113.49
765.114	54.1
765.297	148.31
765.481	56.15
765.664	123.73
765.847	123.73
766.03	258.9
766.213	70.48
766.397	113.49
766.58	41.81
766.763	207.7
766.946	123.73
767.129	115.54
767.312	56.15
767.495	52.05
767.678	136.02
767.861	158.55
768.044	78.68
768.227	35.67
768.41	58.2
768.593	138.07
768.776	84.82
768.959	109.4
769.142	162.64
769.324	138.07
769.507	138.07
769.69	103.25
769.873	76.63
770.056	275.28
770.239	19.29
770.421	217.94
770.604	129.88
770.787	115.54
770.97	35.67
771.152	45.91
771.335	150.36
771.518	17.24
771.7	156.5
771.883	179.03
772.066	136.02
772.248	152.4
772.431	138.07
772.613	115.54
772.796	101.2
772.978	97.11
773.161	201.55
773.343	41.81
773.526	86.87
773.708	-52.39
773.891	-27.82
774.073	113.49
774.256	47.96
774.438	217.94
774.621	29.52
774.803	138.07
774.985	60.24
775.168	47.96
775.35	47.96
775.532	117.59
775.715	7
775.897	80.72
776.079	78.68
776.261	41.81
776.444	33.62
776.626	70.48
776.808	29.52
776.99	-58.54
777.173	78.68
777.355	35.67
777.537	62.29
777.719	109.4
777.901	82.77
778.083	-29.87
778.265	-56.49
778.447	127.83
778.629	50
778.811	101.2
778.993	84.82
779.175	140.12
779.357	50
779.539	-40.11
779.721	174.93
779.903	93.01
780.085	35.67
780.267	95.06
780.449	80.72
780.631	58.2
780.812	219.99
780.994	19.29
781.176	-1.19
781.358	-3.24
781.54	0.85
781.721	140.12
781.903	125.78
782.085	35.67
782.267	181.07
782.448	-46.25
782.63	9.05
782.812	21.33
782.993	70.48
783.175	103.25
783.357	0.85
783.538	35.67
783.72	-5.29
783.901	76.63
784.083	105.3
784.264	35.67
784.446	-91.31
784.627	-48.3
784.809	66.39
784.99	23.38
785.172	80.72
785.353	47.96
785.535	45.91
785.716	-64.68
785.897	-85.16
786.079	31.57
786.26	11.09
786.441	64.34
786.623	-74.92
786.804	-5.29
786.985	43.86
787.167	19.29
787.348	-21.67
787.529	-46.25
787.71	207.7
787.891	109.4
788.073	-17.58
788.254	9.05
788.435	117.59
788.616	13.14
788.797	27.48
788.978	45.91
789.159	-36.01
789.34	7
789.522	47.96
789.703	-13.48
789.884	86.87
790.065	-15.53
790.246	148.31
790.427	25.43
790.607	115.54
790.788	93.01
790.969	-117.93
791.15	103.25
791.331	66.39
791.512	17.24
791.693	-81.07
791.874	2.9
792.054	191.31
792.235	86.87
792.416	-38.06
792.597	7
792.778	113.49
792.958	109.4
793.139	-7.34
793.32	41.81
793.5	-95.4
793.681	121.68
793.862	76.63
794.042	27.48
794.223	-85.16
794.404	-46.25
794.584	-36.01
794.765	84.82
794.945	-42.15
795.126	60.24
795.306	101.2
795.487	11.09
795.667	-27.82
795.848	-44.2
796.028	43.86
796.209	17.24
796.389	66.39
796.57	9.05
796.75	-46.25
796.93	11.09
797.111	-60.59
797.291	-5.29
797.471	60.24
797.652	2.9
797.832	13.14
798.012	31.57
798.192	2.9
798.373	-38.06
798.553	21.33
798.733	19.29
798.913	-5.29
799.093	-19.63
799.274	7
799.454	52.05
799.634	54.1
799.814	25.43
799.994	58.2
800.174	15.19
800.354	-3.24
800.534	-68.78
800.714	0.85
800.894	-40.11
801.074	-95.4
801.254	-52.39
801.434	31.57
801.614	-33.96
801.794	-21.67
801.974	1790.78
802.154	9.05
802.334	43.86
802.514	-60.59
802.693	68.44
802.873	-60.59
803.053	56.15
803.233	-29.87
803.413	-38.06
803.592	-91.31
803.772	-15.53
803.952	47.96
804.131	-70.83
804.311	88.92
804.491	66.39
804.67	-109.74
804.85	-70.83
805.03	4.95
805.209	45.91
805.389	-38.06
805.568	-48.3
805.748	9.05
805.928	45.91
806.107	70.48
806.287	-42.15
806.466	86.87
806.646	-46.25
806.825	25.43
807.004	-44.2
807.184	-15.53
807.363	31.57
807.543	-33.96
807.722	-58.54
807.901	90.96
808.081	19.29
808.26	-89.26
808.439	-3.24
808.619	19.29
808.798	-56.49
808.977	-5.29
809.156	60.24
809.336	-74.92
809.515	21.33
809.694	-152.74
809.873	-7.34
810.052	72.53
810.231	76.63
810.411	74.58
810.59	19.29
810.769	27.48
810.948	23.38
811.127	-72.87
811.306	-95.4
811.485	15.19
811.664	76.63
811.843	-122.02
812.022	-19.63
812.201	-87.21
812.38	-7.34
812.559	-66.73
812.737	27.48
812.916	-128.17
813.095	-74.92
813.274	39.76
813.453	-48.3
813.632	-33.96
813.811	90.96
813.989	-48.3
814.168	39.76
814.347	-76.97
814.526	-9.39
814.704	72.53
814.883	111.44
815.062	-103.59
815.24	95.06
815.419	-111.78
815.598	25.43
815.776	-54.44
815.955	-74.92
816.133	-119.98
816.312	-36.01
816.49	-13.48
816.669	35.67
816.847	-31.91
817.026	19.29
817.204	-25.77
817.383	-7.34
817.561	-46.25
817.74	-1.19
817.918	-13.48
818.097	-66.73
818.275	-97.45
818.453	37.72
818.632	0.85
818.81	-60.59
818.988	11.09
819.167	-138.41
819.345	-72.87
819.523	-60.59
819.701	11.09
819.879	23.38
820.058	97.11
820.236	-62.63
820.414	95.06
820.592	-1.19
820.77	23.38
820.948	-52.39
821.127	-46.25
821.305	-50.35
821.483	-97.45
821.661	136.02
821.839	-66.73
822.017	58.2
822.195	-105.64
822.373	119.64
822.551	-13.48
822.729	70.48
822.907	15.19
823.085	-9.39
823.262	45.91
823.44	-23.72
823.618	21.33
823.796	-83.11
823.974	-13.48
824.152	-64.68
824.329	-60.59
824.507	4.95
824.685	56.15
824.863	-76.97
825.04	-23.72
825.218	37.72
825.396	19.29
825.574	-62.63
825.751	-9.39
825.929	15.19
826.107	-5.29
826.284	-50.35
826.462	-17.58
826.639	-60.59
826.817	-105.64
826.994	-5.29
827.172	-91.31
827.349	88.92
827.527	-5.29
827.704	-1.19
827.882	78.68
828.059	31.57
828.237	-46.25
828.414	70.48
828.591	-156.84
828.769	-29.87
828.946	-23.72
829.124	33.62
829.301	119.64
829.478	-13.48
829.655	37.72
829.833	-15.53
830.01	-132.26
830.187	9.05
830.364	-54.44
830.542	-70.83
830.719	90.96
830.896	2.9
831.073	-3.24
831.25	56.15
831.427	-9.39
831.604	-1.19
831.782	-81.07
831.959	17.24
832.136	29.52
832.313	-7.34
832.49	-46.25
832.667	-40.11
832.844	-128.17
833.021	93.01
833.198	13.14
833.374	52.05
833.551	-27.82
833.728	-62.63
833.905	7
834.082	-97.45
834.259	-13.48
834.436	4.95
834.612	-83.11
834.789	25.43
834.966	-68.78
835.143	-48.3
835.319	-46.25
835.496	-72.87
835.673	4.95
835.85	25.43
836.026	19.29
836.203	27.48
836.38	-93.35
836.556	-66.73
836.733	-81.07
836.909	62.29
837.086	11.09
837.262	-185.51
837.439	-89.26
837.616	-122.02
837.792	-33.96
837.968	47.96
838.145	-175.27
838.321	-36.01
838.498	17.24
838.674	97.11
838.851	41.81
839.027	-33.96
839.203	52.05
839.38	66.39
839.556	-36.01
839.732	70.48
839.909	-107.69
840.085	19.29
840.261	-87.21
840.437	2.9
840.614	-23.72
840.79	80.72
840.966	7
841.142	-15.53
841.318	21.33
841.494	17.24
841.671	78.68
841.847	-44.2
842.023	-44.2
842.199	-5.29
842.375	39.76
842.551	-44.2
842.727	-66.73
842.903	74.58
843.079	-74.92
843.255	52.05
843.431	-42.15
843.607	84.82
843.783	-154.79
843.959	74.58
844.134	-60.59
844.31	88.92
844.486	-83.11
844.662	-152.74
844.838	-87.21
845.013	41.81
845.189	43.86
845.365	25.43
845.541	-15.53
845.716	-60.59
845.892	25.43
846.068	-56.49
846.244	-36.01
846.419	13.14
846.595	-87.21
846.77	-74.92
846.946	45.91
847.122	2.9
847.297	-19.63
847.473	123.73
847.648	-83.11
847.824	-42.15
847.999	-136.36
848.175	-29.87
848.35	70.48
848.526	50
848.701	131.92
848.876	-9.39
849.052	70.48
849.227	9.05
849.403	-52.39
849.578	-44.2
849.753	-1.19
849.929	-1.19
850.104	-13.48
850.279	21.33
850.454	-23.72
850.63	21.33
850.805	-99.5
850.98	13.14
851.155	37.72
851.33	17.24
851.505	-140.46
851.681	129.88
851.856	-66.73
852.031	-15.53
852.206	68.44
852.381	-9.39
852.556	-68.78
852.731	50
852.906	31.57
853.081	23.38
853.256	105.3
853.431	56.15
853.606	-31.91
853.781	-111.78
853.956	-177.32
854.131	54.1
854.305	-171.18
854.48	-29.87
854.655	-107.69
854.83	-64.68
855.005	-25.77
855.18	9.05
855.354	4.95
855.529	-5.29
855.704	-60.59
855.879	45.91
856.053	-19.63
856.228	4.95
856.403	-42.15
856.577	7
856.752	-31.91
856.926	-64.68
857.101	-42.15
857.276	-101.55
857.45	72.53
857.625	45.91
857.799	-36.01
857.974	-36.01
858.148	-81.07
858.323	33.62
858.497	-44.2
858.672	-83.11
858.846	-79.02
859.02	70.48
859.195	-68.78
859.369	11.09
859.543	-19.63
859.718	19.29
859.892	-31.91
860.066	66.39
860.241	-42.15
860.415	-13.48
860.589	2.9
860.763	-99.5
860.938	-70.83
861.112	9.05
861.286	17.24
861.46	-60.59
861.634	-46.25
861.808	47.96
861.982	-46.25
862.157	-142.5
862.331	-103.59
862.505	-95.4
862.679	-113.83
862.853	-115.88
863.027	-29.87
863.201	39.76
863.375	-72.87
863.549	29.52
863.722	-19.63
863.896	123.73
864.07	-70.83
864.244	-29.87
864.418	-33.96
864.592	15.19
864.766	2.9
864.939	15.19
865.113	-95.4
865.287	11.09
865.461	-74.92
865.634	2.9
865.808	-76.97
865.982	-101.55
866.156	-44.2
866.329	-134.31
866.503	52.05
866.676	66.39
866.85	-5.29
867.024	-58.54
867.197	-1.19
867.371	54.1
867.544	25.43
867.718	-148.65
867.891	39.76
868.065	-64.68
868.238	-17.58
868.412	68.44
868.585	-9.39
868.759	-81.07
868.932	101.2
869.105	-76.97
869.279	-23.72
869.452	-81.07
869.625	50
869.799	-21.67
869.972	-79.02
870.145	-44.2
870.319	35.67
870.492	-91.31
870.665	-17.58
870.838	-27.82
871.011	-138.41
871.185	-52.39
871.358	-17.58
871.531	-27.82
871.704	-50.35
871.877	47.96
872.05	-83.11
872.223	-130.22
872.396	33.62
872.569	-3.24
872.742	-76.97
872.915	52.05
873.088	-48.3
873.261	-81.07
873.434	56.15
873.607	-64.68
873.78	82.77
873.953	-150.7
874.126	-64.68
874.299	58.2
874.471	-119.98
874.644	-40.11
874.817	-23.72
874.99	107.35
875.163	-58.54
875.335	-7.34
875.508	-66.73
875.681	84.82
875.853	-93.35
876.026	-29.87
876.199	60.24
876.371	-1.19
876.544	-152.74
876.717	2.9
876.889	-52.39
877.062	-11.43
877.234	-62.63
877.407	-119.98
877.579	-72.87
877.752	-56.49
877.924	9.05
878.097	17.24
878.269	17.24
878.442	-33.96
878.614	133.97
878.786	-72.87
878.959	35.67
879.131	-42.15
879.303	-193.7
879.476	-138.41
879.648	86.87
879.82	23.38
879.993	-46.25
880.165	-25.77
880.337	-89.26
880.509	39.76
880.681	-134.31
880.854	-7.34
881.026	13.14
881.198	111.44
881.37	-52.39
881.542	19.29
881.714	-70.83
881.886	-87.21
882.058	-9.39
882.23	-3.24
882.402	-9.39
882.574	-38.06
882.746	-7.34
882.918	115.54
883.09	-1.19
883.262	-97.45
883.434	15.19
883.606	-122.02
883.778	-3.24
883.95	39.76
884.122	-107.69
884.293	29.52
884.465	-13.48
884.637	15.19
884.809	-1.19
884.98	-46.25
885.152	-29.87
885.324	23.38
885.496	-126.12
885.667	-54.44
885.839	-66.73
886.011	101.2
886.182	-3.24
886.354	50
886.525	78.68
886.697	11.09
886.869	-101.55
887.04	-81.07
887.212	88.92
887.383	97.11
887.555	0.85
887.726	-85.16
887.897	-64.68
888.069	-25.77
888.24	56.15
888.412	-31.91
888.583	-13.48
888.754	-27.82
888.926	-117.93
889.097	-87.21
889.268	-91.31
889.44	17.24
889.611	-165.03
889.782	-156.84
889.953	-79.02
890.125	109.4
890.296	-36.01
890.467	-142.5
890.638	-54.44
890.809	-42.15
890.98	-58.54
891.151	29.52
891.323	54.1
891.494	-50.35
891.665	-9.39
891.836	-25.77
892.007	-13.48
892.178	35.67
892.349	29.52
892.52	-52.39
892.691	-15.53
892.862	-50.35
893.032	-95.4
893.203	-74.92
893.374	13.14
893.545	45.91
893.716	-79.02
893.887	33.62
894.057	-58.54
894.228	-38.06
894.399	-33.96
894.57	7
894.74	4.95
894.911	-68.78
895.082	-66.73
895.253	-66.73
895.423	-1.19
895.594	-1.19
895.764	39.76
895.935	-89.26
896.106	15.19
896.276	4.95
896.447	29.52
896.617	-85.16
896.788	-189.61
896.958	-52.39
897.129	-38.06
897.299	-117.93
897.47	23.38
897.64	95.06
897.81	11.09
897.981	66.39
898.151	-72.87
898.322	17.24
898.492	-1.19
898.662	-130.22
898.832	-115.88
899.003	-66.73
899.173	68.44
899.343	-48.3
899.513	-70.83
