Data from USB4F104151__71__10-44-04-172.txt Node

Date: Wed Feb 26 10:44:04 EST 2025
User: louis
Spectrometer: USB4F10415
Trigger mode: 4
Integration Time (sec): 1.000000E-1
Scans to average: 1
Electric dark correction enabled: true
Nonlinearity correction enabled: false
Boxcar width: 0
XAxis mode: Wavelengths
Number of Pixels in Spectrum: 3648
>>>>>Begin Spectral Data<<<<<
178.204	-398.33
178.424	-398.33
178.644	-398.33
178.864	-437.24
179.084	-306.17
179.304	7.17
179.524	31.74
179.744	-50.18
179.964	66.56
180.184	-5.12
180.404	17.41
180.624	-48.13
180.844	-52.22
181.064	-33.79
181.283	82.94
181.503	-44.03
181.723	27.65
181.943	-80.89
182.163	207.87
182.383	66.56
182.602	35.84
182.822	119.81
183.042	107.52
183.262	52.22
183.482	-11.26
183.701	3.07
183.921	99.33
184.141	-27.65
184.361	58.37
184.58	109.57
184.8	154.62
185.02	17.41
185.239	91.13
185.459	123.9
185.679	138.24
185.898	-62.46
186.118	99.33
186.338	74.75
186.557	68.61
186.777	-11.26
186.997	48.13
187.216	68.61
187.436	201.72
187.655	60.42
187.875	99.33
188.095	-7.17
188.314	121.85
188.534	99.33
188.753	-23.55
188.973	171.01
189.192	134.14
189.412	95.23
189.631	101.37
189.851	19.46
190.07	181.25
190.29	-1.02
190.509	13.31
190.729	5.12
190.948	150.53
191.168	259.07
191.387	113.66
191.607	11.26
191.826	207.87
192.045	72.7
192.265	41.98
192.484	117.76
192.704	80.89
192.923	-11.26
193.142	164.86
193.362	39.94
193.581	156.67
193.8	33.79
194.02	128
194.239	119.81
194.458	158.72
194.678	-21.5
194.897	1.02
195.116	29.7
195.335	125.95
195.555	60.42
195.774	23.55
195.993	97.28
196.212	46.08
196.432	29.7
196.651	50.18
196.87	41.98
197.089	185.34
197.308	13.31
197.528	44.03
197.747	11.26
197.966	158.72
198.185	152.57
198.404	44.03
198.623	68.61
198.842	87.04
199.062	103.42
199.281	128
199.5	99.33
199.719	58.37
199.938	121.85
200.157	70.65
200.376	150.53
200.595	97.28
200.814	78.85
201.033	-17.41
201.252	154.62
201.471	134.14
201.69	164.86
201.909	-17.41
202.128	105.47
202.347	29.7
202.566	78.85
202.785	-48.13
203.004	19.46
203.223	273.4
203.442	66.56
203.661	-3.07
203.879	56.32
204.098	87.04
204.317	-68.61
204.536	70.65
204.755	109.57
204.974	158.72
205.193	-19.46
205.411	117.76
205.63	87.04
205.849	1.02
206.068	23.55
206.287	-21.5
206.505	119.81
206.724	-1.02
206.943	64.51
207.162	7.17
207.381	107.52
207.599	-27.65
207.818	41.98
208.037	1.02
208.255	105.47
208.474	91.13
208.693	119.81
208.911	-9.22
209.13	189.44
209.349	148.48
209.567	99.33
209.786	87.04
210.005	158.72
210.223	17.41
210.442	-54.27
210.661	21.5
210.879	66.56
211.098	-19.46
211.316	123.9
211.535	89.09
211.753	44.03
211.972	78.85
212.191	27.65
212.409	78.85
212.628	121.85
212.846	-39.94
213.065	93.18
213.283	68.61
213.502	70.65
213.72	66.56
213.938	9.22
214.157	-1.02
214.375	103.42
214.594	44.03
214.812	187.39
215.031	54.27
215.249	68.61
215.467	95.23
215.686	-1.02
215.904	136.19
216.122	91.13
216.341	132.09
216.559	72.7
216.778	72.7
216.996	152.57
217.214	23.55
217.432	1.02
217.651	7.17
217.869	93.18
218.087	29.7
218.306	-11.26
218.524	72.7
218.742	-11.26
218.96	99.33
219.179	39.94
219.397	15.36
219.615	263.16
219.833	70.65
220.051	-13.31
220.27	119.81
220.488	72.7
220.706	99.33
220.924	23.55
221.142	-54.27
221.36	56.32
221.578	21.5
221.796	113.66
222.015	93.18
222.233	97.28
222.451	132.09
222.669	15.36
222.887	25.6
223.105	-25.6
223.323	35.84
223.541	-7.17
223.759	80.89
223.977	15.36
224.195	173.05
224.413	82.94
224.631	52.22
224.849	80.89
225.067	220.16
225.285	21.5
225.503	-7.17
225.721	-33.79
225.939	60.42
226.157	130.05
226.375	201.72
226.592	-21.5
226.81	27.65
227.028	152.57
227.246	173.05
227.464	138.24
227.682	82.94
227.9	66.56
228.117	123.9
228.335	150.53
228.553	9.22
228.771	78.85
228.989	37.89
229.206	156.67
229.424	13.31
229.642	89.09
229.86	-68.61
230.077	134.14
230.295	84.99
230.513	97.28
230.731	82.94
230.948	148.48
231.166	115.71
231.384	37.89
231.601	-82.94
231.819	205.82
232.037	39.94
232.254	-64.51
232.472	66.56
232.689	41.98
232.907	158.72
233.125	-19.46
233.342	31.74
233.56	-19.46
233.777	23.55
233.995	1.02
234.213	72.7
234.43	87.04
234.648	44.03
234.865	5.12
235.083	134.14
235.3	-5.12
235.518	119.81
235.735	132.09
235.953	82.94
236.17	39.94
236.388	21.5
236.605	119.81
236.822	113.66
237.04	48.13
237.257	58.37
237.475	29.7
237.692	97.28
237.909	60.42
238.127	1.02
238.344	89.09
238.562	41.98
238.779	15.36
238.996	-29.7
239.214	70.65
239.431	68.61
239.648	-19.46
239.865	48.13
240.083	197.63
240.3	58.37
240.517	15.36
240.735	48.13
240.952	142.33
241.169	17.41
241.386	50.18
241.603	-1.02
241.821	-21.5
242.038	21.5
242.255	173.05
242.472	-23.55
242.689	66.56
242.907	232.44
243.124	-27.65
243.341	78.85
243.558	3.07
243.775	-101.37
243.992	-62.46
244.209	82.94
244.426	132.09
244.643	52.22
244.86	37.89
245.078	56.32
245.295	-13.31
245.512	17.41
245.729	9.22
245.946	93.18
246.163	46.08
246.38	-3.07
246.597	41.98
246.814	66.56
247.031	7.17
247.248	31.74
247.464	105.47
247.681	15.36
247.898	84.99
248.115	168.96
248.332	-31.74
248.549	138.24
248.766	168.96
248.983	109.57
249.2	168.96
249.417	119.81
249.633	1.02
249.85	117.76
250.067	140.29
250.284	72.7
250.501	66.56
250.717	121.85
250.934	19.46
251.151	46.08
251.368	31.74
251.585	144.38
251.801	140.29
252.018	-76.8
252.235	74.75
252.451	-11.26
252.668	-60.42
252.885	82.94
253.102	142.33
253.318	56.32
253.535	35.84
253.752	-5.12
253.968	-15.36
254.185	-35.84
254.401	50.18
254.618	76.8
254.835	-19.46
255.051	125.95
255.268	54.27
255.484	-7.17
255.701	80.89
255.917	138.24
256.134	39.94
256.351	21.5
256.567	19.46
256.784	103.42
257	-48.13
257.217	82.94
257.433	66.56
257.65	11.26
257.866	164.86
258.082	-9.22
258.299	13.31
258.515	64.51
258.732	44.03
258.948	-60.42
259.165	52.22
259.381	-80.89
259.597	64.51
259.814	27.65
260.03	-64.51
260.246	97.28
260.463	62.46
260.679	128
260.895	54.27
261.112	44.03
261.328	39.94
261.544	23.55
261.761	109.57
261.977	-70.65
262.193	-89.09
262.409	74.75
262.626	46.08
262.842	15.36
263.058	-1.02
263.274	68.61
263.49	80.89
263.707	107.52
263.923	72.7
264.139	-46.08
264.355	13.31
264.571	105.47
264.787	107.52
265.004	125.95
265.22	-68.61
265.436	-21.5
265.652	46.08
265.868	52.22
266.084	-46.08
266.3	66.56
266.516	1.02
266.732	58.37
266.948	37.89
267.164	29.7
267.38	89.09
267.596	97.28
267.812	144.38
268.028	76.8
268.244	27.65
268.46	99.33
268.676	23.55
268.892	93.18
269.108	48.13
269.324	31.74
269.54	9.22
269.756	33.79
269.972	-1.02
270.188	-25.6
270.403	-5.12
270.619	80.89
270.835	87.04
271.051	-3.07
271.267	-3.07
271.483	-72.7
271.698	99.33
271.914	21.5
272.13	60.42
272.346	109.57
272.562	25.6
272.777	148.48
272.993	15.36
273.209	19.46
273.425	54.27
273.64	-33.79
273.856	150.53
274.072	9.22
274.287	-29.7
274.503	35.84
274.719	9.22
274.934	23.55
275.15	29.7
275.366	50.18
275.581	-13.31
275.797	72.7
276.012	101.37
276.228	-19.46
276.444	62.46
276.659	74.75
276.875	11.26
277.09	62.46
277.306	21.5
277.521	113.66
277.737	-7.17
277.952	56.32
278.168	82.94
278.383	52.22
278.599	41.98
278.814	138.24
279.03	54.27
279.245	150.53
279.461	74.75
279.676	128
279.892	9.22
280.107	-11.26
280.322	-15.36
280.538	35.84
280.753	9.22
280.969	39.94
281.184	58.37
281.399	160.77
281.615	46.08
281.83	41.98
282.045	5.12
282.26	37.89
282.476	17.41
282.691	89.09
282.906	99.33
283.122	134.14
283.337	-33.79
283.552	58.37
283.767	41.98
283.983	205.82
284.198	60.42
284.413	99.33
284.628	-46.08
284.843	136.19
285.058	82.94
285.274	68.61
285.489	-19.46
285.704	87.04
285.919	-41.98
286.134	62.46
286.349	21.5
286.564	25.6
286.779	105.47
286.995	62.46
287.21	-78.85
287.425	123.9
287.64	56.32
287.855	115.71
288.07	-50.18
288.285	91.13
288.5	144.38
288.715	115.71
288.93	39.94
289.145	25.6
289.36	109.57
289.575	1.02
289.79	160.77
290.004	-27.65
290.219	191.49
290.434	72.7
290.649	-41.98
290.864	27.65
291.079	35.84
291.294	103.42
291.509	72.7
291.724	17.41
291.938	11.26
292.153	78.85
292.368	117.76
292.583	-23.55
292.798	44.03
293.012	134.14
293.227	44.03
293.442	50.18
293.657	115.71
293.871	142.33
294.086	-1.02
294.301	105.47
294.516	132.09
294.73	39.94
294.945	-13.31
295.16	58.37
295.374	209.92
295.589	125.95
295.804	66.56
296.018	101.37
296.233	201.72
296.447	91.13
296.662	46.08
296.877	125.95
297.091	119.81
297.306	33.79
297.52	46.08
297.735	33.79
297.949	119.81
298.164	109.57
298.378	1.02
298.593	-21.5
298.807	21.5
299.022	82.94
299.236	218.11
299.451	44.03
299.665	3.07
299.88	33.79
300.094	95.23
300.309	76.8
300.523	17.41
300.737	17.41
300.952	33.79
301.166	117.76
301.381	-82.94
301.595	-7.17
301.809	56.32
302.024	80.89
302.238	-44.03
302.452	107.52
302.667	31.74
302.881	80.89
303.095	70.65
303.309	130.05
303.524	-52.22
303.738	21.5
303.952	27.65
304.166	111.61
304.381	-113.66
304.595	160.77
304.809	19.46
305.023	5.12
305.237	50.18
305.452	9.22
305.666	33.79
305.88	125.95
306.094	111.61
306.308	105.47
306.522	19.46
306.736	33.79
306.95	70.65
307.164	56.32
307.379	80.89
307.593	138.24
307.807	113.66
308.021	97.28
308.235	113.66
308.449	-91.13
308.663	1.02
308.877	207.87
309.091	64.51
309.305	80.89
309.519	-107.52
309.733	115.71
309.947	-27.65
310.161	56.32
310.374	136.19
310.588	203.77
310.802	15.36
311.016	-1.02
311.23	93.18
311.444	-37.89
311.658	99.33
311.872	195.58
312.085	166.91
312.299	125.95
312.513	123.9
312.727	58.37
312.941	-27.65
313.154	78.85
313.368	48.13
313.582	7.17
313.796	123.9
314.009	27.65
314.223	187.39
314.437	134.14
314.651	136.19
314.864	74.75
315.078	41.98
315.292	-31.74
315.505	-56.32
315.719	162.81
315.933	72.7
316.146	7.17
316.36	-1.02
316.573	175.1
316.787	48.13
317.001	107.52
317.214	-13.31
317.428	27.65
317.641	48.13
317.855	50.18
318.068	95.23
318.282	76.8
318.495	197.63
318.709	56.32
318.922	3.07
319.136	111.61
319.349	113.66
319.563	44.03
319.776	52.22
319.99	-37.89
320.203	78.85
320.417	-7.17
320.63	70.65
320.843	136.19
321.057	84.99
321.27	44.03
321.483	82.94
321.697	142.33
321.91	158.72
322.124	99.33
322.337	82.94
322.55	5.12
322.763	66.56
322.977	48.13
323.19	1.02
323.403	64.51
323.617	9.22
323.83	164.86
324.043	89.09
324.256	91.13
324.469	23.55
324.683	117.76
324.896	78.85
325.109	84.99
325.322	-35.84
325.535	76.8
325.748	74.75
325.962	58.37
326.175	113.66
326.388	29.7
326.601	111.61
326.814	89.09
327.027	-7.17
327.24	189.44
327.453	-78.85
327.666	15.36
327.879	105.47
328.092	156.67
328.305	74.75
328.518	-11.26
328.731	-27.65
328.944	9.22
329.157	70.65
329.37	50.18
329.583	91.13
329.796	218.11
330.009	19.46
330.222	17.41
330.435	121.85
330.648	68.61
330.861	78.85
331.073	152.57
331.286	101.37
331.499	121.85
331.712	-48.13
331.925	35.84
332.138	27.65
332.35	95.23
332.563	64.51
332.776	189.44
332.989	-3.07
333.202	80.89
333.414	19.46
333.627	54.27
333.84	50.18
334.053	128
334.265	39.94
334.478	-19.46
334.691	15.36
334.903	44.03
335.116	-54.27
335.329	76.8
335.541	82.94
335.754	138.24
335.966	41.98
336.179	-11.26
336.392	72.7
336.604	44.03
336.817	115.71
337.029	50.18
337.242	76.8
337.454	130.05
337.667	44.03
337.88	156.67
338.092	33.79
338.305	80.89
338.517	-9.22
338.729	80.89
338.942	177.15
339.154	-21.5
339.367	64.51
339.579	44.03
339.792	-7.17
340.004	148.48
340.217	66.56
340.429	-29.7
340.641	19.46
340.854	13.31
341.066	76.8
341.278	138.24
341.491	195.58
341.703	-17.41
341.915	-48.13
342.128	87.04
342.34	152.57
342.552	62.46
342.764	109.57
342.977	68.61
343.189	68.61
343.401	66.56
343.613	-50.18
343.826	44.03
344.038	29.7
344.25	27.65
344.462	-25.6
344.674	50.18
344.886	58.37
345.099	76.8
345.311	93.18
345.523	-9.22
345.735	-50.18
345.947	56.32
346.159	35.84
346.371	62.46
346.583	44.03
346.795	224.25
347.007	1.02
347.219	64.51
347.431	17.41
347.643	140.29
347.855	3.07
348.067	197.63
348.279	-9.22
348.491	93.18
348.703	-3.07
348.915	3.07
349.127	-1.02
349.339	44.03
349.551	-21.5
349.763	70.65
349.975	7.17
350.187	115.71
350.399	152.57
350.61	105.47
350.822	15.36
351.034	123.9
351.246	44.03
351.458	54.27
351.669	113.66
351.881	91.13
352.093	164.86
352.305	93.18
352.517	44.03
352.728	148.48
352.94	105.47
353.152	3.07
353.363	-62.46
353.575	101.37
353.787	156.67
353.999	37.89
354.21	195.58
354.422	-39.94
354.633	37.89
354.845	33.79
355.057	39.94
355.268	70.65
355.48	76.8
355.692	-37.89
355.903	41.98
356.115	21.5
356.326	-70.65
356.538	87.04
356.749	70.65
356.961	105.47
357.172	46.08
357.384	-54.27
357.595	306.17
357.807	48.13
358.018	13.31
358.23	95.23
358.441	134.14
358.653	134.14
358.864	9.22
359.075	7.17
359.287	13.31
359.498	25.6
359.709	70.65
359.921	89.09
360.132	72.7
360.344	5.12
360.555	-5.12
360.766	3.07
360.977	39.94
361.189	105.47
361.4	21.5
361.611	99.33
361.823	80.89
362.034	64.51
362.245	-9.22
362.456	11.26
362.667	95.23
362.879	11.26
363.09	46.08
363.301	66.56
363.512	113.66
363.723	7.17
363.935	27.65
364.146	160.77
364.357	95.23
364.568	27.65
364.779	35.84
364.99	168.96
365.201	-62.46
365.412	121.85
365.623	-74.75
365.834	9.22
366.045	64.51
366.256	121.85
366.467	115.71
366.678	31.74
366.889	82.94
367.1	1.02
367.311	191.49
367.522	-11.26
367.733	125.95
367.944	84.99
368.155	11.26
368.366	97.28
368.577	91.13
368.788	109.57
368.999	56.32
369.209	17.41
369.42	216.06
369.631	250.88
369.842	111.61
370.053	48.13
370.264	107.52
370.474	-44.03
370.685	103.42
370.896	1.02
371.107	175.1
371.317	87.04
371.528	56.32
371.739	193.53
371.95	109.57
372.16	162.81
372.371	3.07
372.582	68.61
372.792	33.79
373.003	80.89
373.214	66.56
373.424	68.61
373.635	-19.46
373.846	140.29
374.056	-9.22
374.267	115.71
374.477	33.79
374.688	-29.7
374.898	123.9
375.109	97.28
375.319	54.27
375.53	97.28
375.74	109.57
375.951	103.42
376.161	148.48
376.372	95.23
376.582	-27.65
376.793	1.02
377.003	-23.55
377.214	1.02
377.424	111.61
377.635	56.32
377.845	17.41
378.055	123.9
378.266	-13.31
378.476	48.13
378.686	37.89
378.897	50.18
379.107	97.28
379.317	99.33
379.528	-39.94
379.738	78.85
379.948	-54.27
380.158	111.61
380.369	3.07
380.579	78.85
380.789	68.61
380.999	111.61
381.21	164.86
381.42	187.39
381.63	-48.13
381.84	109.57
382.05	68.61
382.261	183.29
382.471	111.61
382.681	-13.31
382.891	140.29
383.101	50.18
383.311	5.12
383.521	-23.55
383.731	115.71
383.941	134.14
384.151	7.17
384.361	-5.12
384.571	91.13
384.781	31.74
384.991	265.21
385.201	220.16
385.411	68.61
385.621	17.41
385.831	60.42
386.041	60.42
386.251	74.75
386.461	138.24
386.671	3.07
386.881	152.57
387.091	17.41
387.301	103.42
387.511	48.13
387.72	60.42
387.93	72.7
388.14	-48.13
388.35	52.22
388.56	44.03
388.769	156.67
388.979	54.27
389.189	-23.55
389.399	54.27
389.609	103.42
389.818	46.08
390.028	82.94
390.238	91.13
390.447	-23.55
390.657	132.09
390.867	-19.46
391.076	-21.5
391.286	99.33
391.496	-17.41
391.705	21.5
391.915	78.85
392.125	189.44
392.334	29.7
392.544	156.67
392.753	33.79
392.963	15.36
393.172	17.41
393.382	-17.41
393.591	175.1
393.801	39.94
394.01	115.71
394.22	156.67
394.429	52.22
394.639	87.04
394.848	58.37
395.058	105.47
395.267	11.26
395.477	140.29
395.686	39.94
395.895	209.92
396.105	197.63
396.314	44.03
396.524	128
396.733	11.26
396.942	177.15
397.152	56.32
397.361	89.09
397.57	66.56
397.78	31.74
397.989	89.09
398.198	195.58
398.407	41.98
398.617	17.41
398.826	-9.22
399.035	37.89
399.244	97.28
399.453	56.32
399.663	46.08
399.872	41.98
400.081	-33.79
400.29	99.33
400.499	1.02
400.708	105.47
400.917	11.26
401.127	39.94
401.336	9.22
401.545	148.48
401.754	130.05
401.963	101.37
402.172	21.5
402.381	-74.75
402.59	35.84
402.799	39.94
403.008	128
403.217	136.19
403.426	39.94
403.635	-35.84
403.844	27.65
404.053	27.65
404.262	39.94
404.471	162.81
404.68	146.43
404.888	35.84
405.097	72.7
405.306	123.9
405.515	91.13
405.724	9.22
405.933	158.72
406.142	52.22
406.35	136.19
406.559	44.03
406.768	29.7
406.977	166.91
407.185	5.12
407.394	103.42
407.603	-48.13
407.812	78.85
408.02	171.01
408.229	56.32
408.438	87.04
408.646	-82.94
408.855	103.42
409.064	35.84
409.272	91.13
409.481	148.48
409.69	-21.5
409.898	-35.84
410.107	117.76
410.315	146.43
410.524	15.36
410.733	44.03
410.941	76.8
411.15	105.47
411.358	-1.02
411.567	207.87
411.775	41.98
411.984	29.7
412.192	70.65
412.401	-29.7
412.609	154.62
412.818	82.94
413.026	173.05
413.234	74.75
413.443	101.37
413.651	39.94
413.86	62.46
414.068	160.77
414.276	134.14
414.485	82.94
414.693	216.06
414.901	113.66
415.11	99.33
415.318	87.04
415.526	1.02
415.734	89.09
415.943	201.72
416.151	189.44
416.359	48.13
416.567	39.94
416.776	197.63
416.984	111.61
417.192	138.24
417.4	21.5
417.608	5.12
417.817	23.55
418.025	80.89
418.233	216.06
418.441	-17.41
418.649	13.31
418.857	95.23
419.065	117.76
419.273	-13.31
419.481	-29.7
419.689	13.31
419.897	-15.36
420.105	-17.41
420.313	80.89
420.521	134.14
420.729	117.76
420.937	9.22
421.145	-7.17
421.353	128
421.561	171.01
421.769	58.37
421.977	72.7
422.185	76.8
422.393	60.42
422.601	179.2
422.809	87.04
423.017	27.65
423.224	66.56
423.432	152.57
423.64	97.28
423.848	150.53
424.056	25.6
424.263	148.48
424.471	91.13
424.679	95.23
424.887	76.8
425.094	140.29
425.302	152.57
425.51	41.98
425.718	107.52
425.925	97.28
426.133	17.41
426.341	144.38
426.548	31.74
426.756	99.33
426.964	128
427.171	-3.07
427.379	140.29
427.586	109.57
427.794	152.57
428.001	144.38
428.209	103.42
428.417	136.19
428.624	107.52
428.832	107.52
429.039	99.33
429.247	144.38
429.454	132.09
429.662	230.4
429.869	152.57
430.076	107.52
430.284	232.44
430.491	197.63
430.699	148.48
430.906	191.49
431.114	146.43
431.321	136.19
431.528	72.7
431.736	211.96
431.943	140.29
432.15	226.3
432.358	162.81
432.565	279.55
432.772	15.36
432.979	226.3
433.187	107.52
433.394	222.2
433.601	95.23
433.808	244.73
434.016	271.36
434.223	259.07
434.43	189.44
434.637	252.92
434.844	238.59
435.052	193.53
435.259	222.2
435.466	293.88
435.673	220.16
435.88	340.99
436.087	259.07
436.294	363.51
436.501	283.64
436.708	340.99
436.915	304.12
437.122	351.23
437.329	173.05
437.537	338.94
437.743	324.6
437.95	453.63
438.157	375.8
438.364	279.55
438.571	310.27
438.778	404.47
438.985	408.57
439.192	525.3
439.399	437.24
439.606	414.71
439.813	443.39
440.02	531.45
440.227	588.79
440.433	547.83
440.64	467.96
440.847	416.76
441.054	619.51
441.261	623.61
441.467	627.7
441.674	484.34
441.881	644.09
442.088	525.3
442.294	687.09
442.501	705.53
442.708	793.59
442.914	773.11
443.121	793.59
443.328	846.84
443.534	918.51
443.741	771.06
443.948	695.29
444.154	1016.82
444.361	1029.1
444.568	965.62
444.774	932.85
444.981	926.71
445.187	1135.6
445.394	1070.06
445.6	1029.1
445.807	1194.99
446.013	1215.47
446.22	1172.46
446.426	1219.57
446.633	1436.65
446.839	1545.19
447.046	1281
447.252	1532.9
447.459	1549.29
447.665	1504.23
447.871	1702.89
448.078	1874.92
448.284	1737.7
448.491	1876.96
448.697	2001.89
448.903	2034.66
449.11	1985.51
449.316	1930.21
449.522	2278.37
449.728	2393.05
449.935	2325.47
450.141	2286.56
450.347	2563.03
450.553	2489.31
450.76	2700.25
450.966	2782.17
451.172	2773.97
451.378	2956.24
451.584	2810.84
451.791	3128.27
451.997	3245.01
452.203	3212.24
452.409	3478.47
452.615	3658.7
452.821	3501
453.027	3546.06
453.233	4117.44
453.44	3949.51
453.646	4180.93
453.852	4246.46
454.058	4463.55
454.264	4436.92
454.47	4821.94
454.676	4873.14
454.882	5313.45
455.088	5166
455.294	5602.22
455.5	5710.76
455.705	6175.65
455.911	5989.28
456.117	6103.97
456.323	6466.46
456.529	6464.41
456.735	6953.88
456.941	7238.55
457.147	7543.69
457.352	7738.25
457.558	7754.63
457.764	8450.94
457.97	8780.67
458.176	9016.18
458.381	9286.51
458.587	9507.69
458.793	9982.82
458.999	9788.27
459.204	11252.56
459.41	11666.25
459.616	11545.42
459.821	12106.57
460.027	12610.37
460.233	13202.23
460.438	13427.51
460.644	14148.39
460.85	14121.77
461.055	14629.66
461.261	15366.93
461.466	14957.34
461.672	15305.49
461.878	17222.39
462.083	16972.54
462.289	17552.12
462.494	18244.33
462.7	18404.07
462.905	18275.05
463.111	20067.02
463.316	21121.73
463.522	21246.65
463.727	22141.61
463.932	22751.91
464.138	23646.87
464.343	24355.47
464.549	24801.93
464.754	26290.8
464.959	27456.09
465.165	27667.03
465.37	27603.55
465.575	27365.98
465.781	29377.09
465.986	30444.08
466.191	29774.39
466.397	30181.94
466.602	29350.46
466.807	30994.98
467.012	31912.47
467.218	32051.73
467.423	32174.61
467.628	33167.88
467.833	34697.71
468.038	34085.37
468.244	33741.31
468.449	35219.94
468.654	34370.04
468.859	34525.68
469.064	34415.09
469.269	34034.17
469.474	34365.94
469.679	35265
469.885	33976.83
470.09	34390.52
470.295	34664.94
470.5	33595.9
470.705	34011.64
470.91	33233.41
471.115	33051.14
471.32	33595.9
471.525	33313.28
471.73	32342.55
471.935	32238.1
472.139	30714.41
472.344	30968.36
472.549	30673.45
472.754	30253.62
472.959	29690.43
473.164	28504.65
473.369	28734.03
473.574	28957.25
473.778	28279.38
473.983	27746.9
474.188	27562.59
474.393	25936.5
474.598	26135.15
474.802	25496.19
475.007	25248.38
475.212	24965.76
475.417	24105.62
475.621	23829.14
475.826	23474.84
476.031	22905.51
476.235	22379.18
476.44	22702.76
476.645	22090.41
476.849	21775.03
477.054	21447.35
477.259	20761.28
477.463	20810.43
477.668	20269.77
477.872	20296.39
478.077	19778.26
478.282	19055.33
478.486	18762.47
478.691	18701.03
478.895	18655.97
479.1	18492.13
479.304	18535.14
479.509	17566.45
479.713	18264.81
479.918	17486.58
480.122	17044.22
480.326	17160.95
480.531	17244.92
480.735	17126.14
480.94	16878.33
481.144	17386.23
481.348	16401.16
481.553	16601.86
481.757	16079.63
481.961	16458.5
482.166	16415.49
482.37	16069.39
482.574	15729.42
482.778	15930.12
482.983	16071.43
483.187	15594.26
483.391	15518.48
483.595	15379.22
483.8	15188.76
484.004	15164.18
484.208	15160.09
484.412	14981.92
484.616	14809.89
484.821	14617.38
485.025	14064.43
485.229	14316.33
485.433	13921.07
485.637	13882.16
485.841	13447.99
486.045	13540.15
486.249	13687.6
486.453	13237.05
486.657	13028.15
486.861	12815.16
487.065	12241.73
487.269	12413.76
487.473	12059.46
487.677	12000.07
487.881	12168.01
488.085	11526.99
488.289	11463.51
488.493	11223.89
488.697	11365.2
488.901	10933.08
489.105	10783.58
489.309	10632.03
489.512	10351.46
489.716	10253.16
489.92	10025.83
490.124	9886.57
490.328	9827.18
490.531	9534.32
490.735	9382.77
490.939	9165.68
491.143	9173.88
491.346	8790.91
491.55	8766.33
491.754	8684.41
491.958	8455.04
492.161	8414.08
492.365	8405.89
492.569	8125.32
492.772	8031.11
492.976	7848.84
493.18	7615.37
493.383	7797.64
493.587	7576.46
493.79	7682.95
493.994	7318.42
494.197	7256.98
494.401	7408.53
494.605	7240.59
494.808	7078.8
495.012	6982.55
495.215	6974.36
495.419	7082.9
495.622	6796.18
495.825	6957.97
496.029	6835.1
496.232	6929.3
496.436	6656.92
496.639	7013.27
496.843	6751.13
497.046	6732.7
497.249	6970.26
497.453	6828.95
497.656	6826.9
497.859	6724.51
498.063	6808.47
498.266	6927.25
498.469	6689.69
498.673	6943.64
498.876	6792.09
499.079	6966.17
499.282	6704.03
499.485	7183.25
499.689	7080.85
499.892	7148.43
500.095	6923.16
500.298	7230.35
500.501	6988.69
500.705	7162.77
500.908	7242.64
501.111	7328.66
501.314	7648.14
501.517	7564.17
501.72	7537.55
501.923	7467.92
502.126	7652.24
502.329	7930.76
502.532	7865.22
502.735	7926.66
502.938	7986.05
503.141	8076.16
503.344	8225.67
503.547	8344.45
503.75	8250.24
503.953	8510.33
504.156	8749.95
504.359	8792.95
504.562	8774.52
504.765	8872.82
504.968	9235.32
505.17	9112.44
505.373	9505.65
505.576	9632.62
505.779	9495.41
505.982	9747.31
506.185	10144.61
506.387	10042.21
506.59	10261.35
506.793	10517.34
506.996	10521.44
507.198	11047.77
507.401	11076.44
507.604	11455.31
507.807	11397.97
508.009	11860.81
508.212	11942.73
508.415	12227.4
508.617	12399.43
508.82	12723.01
509.022	13069.11
509.225	13331.25
509.428	13419.32
509.63	13572.91
509.833	13706.03
510.035	14549.79
510.238	14418.72
510.44	14764.83
510.643	15358.74
510.845	15479.57
511.048	15690.51
511.25	16044.81
511.453	16255.75
511.655	17341.18
511.858	17089.28
512.06	17812.21
512.262	17982.19
512.465	18246.38
512.667	18645.73
512.87	18946.78
513.072	19344.09
513.274	19987.15
513.477	20497.1
513.679	20937.41
513.881	21596.85
514.084	21969.58
514.286	22028.98
514.488	22997.67
514.69	23544.47
514.893	23693.97
515.095	24150.67
515.297	24941.19
515.499	25397.88
515.701	25713.27
515.904	26565.23
516.106	26987.11
516.308	27417.18
516.51	28058.2
516.712	28555.85
516.914	28934.73
517.116	29745.72
517.318	30253.62
517.52	30317.11
517.722	30976.55
517.925	31908.38
518.127	32766.48
518.329	33182.21
518.531	33155.59
518.733	34155
518.935	34574.83
519.136	35058.15
519.338	35707.36
519.54	36104.67
519.742	36968.91
519.944	37622.21
520.146	37925.31
520.348	38314.42
520.55	38668.72
520.752	39125.42
520.954	40229.27
521.155	39981.47
521.357	40858
521.559	41240.97
521.761	41748.87
521.963	41585.03
522.164	42393.98
522.366	42842.48
522.568	42817.91
522.77	43719.01
522.971	43962.72
523.173	43919.71
523.375	44644.69
523.576	44849.49
523.778	44388.7
523.98	45099.34
524.181	45228.37
524.383	45418.83
524.584	45992.26
524.786	45472.07
524.988	45472.07
525.189	45957.44
525.391	46246.21
525.592	45900.1
525.794	46299.45
525.995	46135.62
526.197	45990.21
526.398	46154.05
526.6	45764.93
526.801	46115.14
527.003	45834.56
527.204	45480.27
527.406	45867.33
527.607	45326.67
527.808	45261.13
528.01	44130.65
528.211	44736.85
528.412	45236.56
528.614	44562.78
528.815	43678.05
529.016	44104.03
529.218	43387.24
529.419	43258.22
529.62	42332.54
529.822	42252.67
530.023	41771.39
530.224	41462.15
530.425	41025.93
530.626	40513.94
530.828	40247.71
531.029	40663.44
531.23	39385.51
531.431	38922.67
531.632	38779.31
531.833	38488.5
532.035	37779.9
532.236	37513.67
532.437	37587.39
532.638	36485.59
532.839	36217.3
533.04	35584.48
533.241	34707.95
533.442	35340.77
533.643	34324.98
533.844	34355.7
534.045	33626.62
534.246	32694.8
534.447	33112.58
534.648	32107.03
534.849	31812.12
535.05	31189.54
535.251	30822.95
535.451	30431.79
535.652	30065.21
535.853	29954.61
536.054	29188.67
536.255	29200.96
536.456	28328.53
536.657	28490.32
536.857	27763.29
537.058	27019.88
537.259	27142.75
537.46	26853.99
537.66	25942.64
537.861	26102.39
538.062	25721.46
538.263	25207.42
538.463	24881.8
538.664	24777.35
538.865	24494.73
539.065	24162.96
539.266	23782.04
539.466	23933.59
539.667	23229.09
539.868	22971.04
540.068	22506.15
540.269	22395.56
540.469	22219.44
540.67	21869.23
540.87	21627.57
541.071	21539.51
541.271	20998.85
541.472	20943.55
541.672	20339.4
541.873	20206.28
542.073	19827.41
542.274	20077.26
542.474	19528.41
542.675	19473.11
542.875	19360.47
543.075	19182.3
543.276	18475.75
543.476	19024.61
543.676	18340.58
543.877	18019.05
544.077	18078.44
544.277	17992.43
544.478	17736.43
544.678	17613.56
544.878	17144.57
545.078	16843.52
545.279	16438.02
545.479	16728.83
545.679	16554.76
545.879	16071.43
546.079	15983.37
546.28	16153.35
546.48	15811.34
546.68	15686.42
546.88	15385.37
547.08	15590.16
547.28	14938.91
547.48	14877.47
547.68	14781.21
547.88	14289.7
548.081	14168.87
548.281	14000.94
548.481	13927.21
548.681	13765.42
548.881	13722.41
549.081	13353.78
549.28	13173.56
549.48	12819.26
549.68	13069.11
549.88	12950.33
550.08	12512.07
550.28	12311.36
550.48	12419.91
550.68	12051.27
550.88	11776.84
551.08	11524.94
551.279	11766.6
551.479	11176.79
551.679	11205.46
551.879	10914.65
552.079	11107.16
552.278	10763.1
552.478	10722.14
552.678	10490.72
552.878	10427.23
553.077	10197.86
553.277	9812.84
553.477	9984.87
553.676	9784.17
553.876	9593.71
554.076	9333.62
554.275	9401.2
554.475	8960.89
554.674	9007.99
554.874	8874.87
555.074	8606.59
555.273	8526.72
555.473	8438.66
555.672	8143.75
555.872	8172.42
556.071	7984.01
556.271	7926.66
556.47	7623.56
556.67	7615.37
556.869	7426.96
557.068	7611.28
557.268	7377.81
557.467	7148.43
557.667	7197.59
557.866	7007.13
558.065	6671.26
558.265	6665.11
558.464	6497.18
558.663	6441.89
558.863	6448.03
559.062	6443.93
559.261	6376.35
559.461	6206.37
559.66	5903.27
559.859	5929.89
560.058	5860.26
560.258	5663.66
560.457	5583.79
560.656	5606.31
560.855	5381.04
561.054	5522.35
561.253	5364.65
561.453	5127.09
561.652	5166
561.851	5209.01
562.05	4897.72
562.249	4989.88
562.448	4940.72
562.647	4701.11
562.846	4680.63
563.045	4654.01
563.244	4524.99
563.443	4547.51
563.642	4418.49
563.841	4527.03
564.04	4178.88
564.239	4328.38
564.438	4195.26
564.637	4070.34
564.836	4000.71
565.035	3969.99
565.234	3916.74
565.432	3836.87
565.631	3802.05
565.83	3611.59
566.029	3668.94
566.228	3652.55
566.427	3716.04
566.625	3478.47
566.824	3519.43
567.023	3517.39
567.222	3408.84
567.42	3359.69
567.619	3355.6
567.818	3222.48
568.016	3277.77
568.215	3288.01
568.414	3191.76
568.612	2952.15
568.811	3040.21
569.01	3040.21
569.208	2962.39
569.407	3019.73
569.605	2835.41
569.804	2769.88
570.002	2679.77
570.201	2622.42
570.4	2737.11
570.598	2671.58
570.797	2679.77
570.995	2558.94
571.193	2571.22
571.392	2569.18
571.59	2317.28
571.789	2548.7
571.987	2548.7
572.186	2372.57
572.384	2343.9
572.582	2405.34
572.781	2405.34
572.979	2098.14
573.177	2241.5
573.376	2161.63
573.574	2286.56
573.772	2151.39
573.971	2110.43
574.169	2005.99
574.367	2059.23
574.565	1977.31
574.763	1854.44
574.962	1971.17
575.16	1917.92
575.358	1844.2
575.556	1915.87
575.754	1823.72
575.952	1809.38
576.151	1829.86
576.349	1747.94
576.547	1623.02
576.745	1612.78
576.943	1698.79
577.141	1467.37
577.339	1479.66
577.537	1567.72
577.735	1588.2
577.933	1543.14
578.131	1524.71
578.329	1598.44
578.527	1493.99
578.725	1453.03
578.923	1260.52
579.121	1547.24
579.319	1240.05
579.516	1330.16
579.714	1467.37
579.912	1285.1
580.11	1225.71
580.308	1274.86
580.506	1238
580.704	1020.91
580.901	1197.04
581.099	1258.48
581.297	1194.99
581.495	1088.5
581.692	1143.79
581.89	1207.28
582.088	1111.02
582.285	1154.03
582.483	1174.51
582.681	1139.69
582.878	1031.15
583.076	1043.44
583.274	1043.44
583.471	1115.12
583.669	924.66
583.866	1008.62
584.064	992.24
584.262	842.74
584.459	932.85
584.657	953.33
584.854	1002.48
585.052	900.08
585.249	1004.53
585.447	990.19
585.644	730.1
585.841	887.79
586.039	893.94
586.236	900.08
586.434	814.07
586.631	752.63
586.828	746.48
587.026	797.68
587.223	736.24
587.42	730.1
587.618	703.48
587.815	863.22
588.012	762.87
588.21	701.43
588.407	824.31
588.604	635.89
588.801	564.22
588.999	691.19
589.196	783.35
589.393	664.57
589.59	609.27
589.787	744.44
589.984	680.95
590.182	734.2
590.379	642.04
590.576	685.05
590.773	662.52
590.97	652.28
591.167	648.18
591.364	644.09
591.561	658.42
591.758	828.4
591.955	666.61
592.152	660.47
592.349	545.78
592.546	553.98
592.743	556.02
592.94	588.79
593.137	613.37
593.334	758.77
593.531	769.01
593.727	693.24
593.924	674.81
594.121	599.03
594.318	601.08
594.515	629.75
594.712	791.54
594.908	812.02
595.105	654.33
595.302	779.25
595.499	691.19
595.696	764.92
595.892	658.42
596.089	779.25
596.286	639.99
596.482	787.44
596.679	758.77
596.876	754.68
597.072	875.51
597.269	850.93
597.466	834.55
597.662	791.54
597.859	760.82
598.055	871.41
598.252	982
598.448	994.29
598.645	1199.09
598.841	1125.36
599.038	1262.57
599.234	1205.23
599.431	1244.14
599.627	1154.03
599.824	1229.81
600.02	1231.85
600.217	1287.15
600.413	1307.63
600.609	1524.71
600.806	1633.26
601.002	1616.87
601.198	1504.23
601.395	1860.58
601.591	1719.27
601.787	1733.61
601.984	1960.93
602.18	1952.74
602.376	1930.21
602.572	2083.81
602.769	2243.55
602.965	2253.79
603.161	2311.13
603.357	2474.97
603.553	2571.22
603.75	2544.6
603.946	2626.52
604.142	2720.73
604.338	3005.39
604.534	2933.72
604.73	2896.85
604.926	3064.79
605.122	3318.73
605.318	3183.57
605.514	3417.04
605.71	3507.15
605.906	3681.22
606.102	3677.13
606.298	3920.84
606.494	4109.25
606.69	4111.3
606.886	4193.22
607.082	4066.24
607.278	4316.09
607.474	4686.78
607.67	4555.71
607.866	4699.06
608.062	4965.3
608.257	5012.4
608.453	5147.57
608.649	5417.9
608.845	5303.22
609.041	5598.12
609.236	5880.74
609.432	5997.48
609.628	6212.51
609.824	6118.31
610.019	6486.94
610.215	6581.15
610.411	6831
610.606	7076.76
610.802	7035.8
610.998	7299.98
611.193	7562.12
611.389	7658.38
611.584	7981.96
611.78	8035.21
611.976	8723.32
612.171	8715.13
612.367	8805.24
612.562	9073.53
612.758	9032.57
612.953	9190.26
613.149	9857.9
613.344	9847.66
613.539	10132.33
613.735	10470.24
613.93	10906.46
614.126	11141.97
614.321	11537.23
614.517	11762.51
614.712	11907.91
614.907	11971.4
615.103	12864.32
615.298	12655.42
615.493	13017.91
615.688	13523.76
615.884	14246.69
616.079	14097.19
616.274	14635.81
616.47	14951.2
616.665	15475.48
616.86	15350.55
617.055	15975.18
617.25	16472.84
617.445	16974.59
617.641	17298.17
617.836	17693.43
618.031	17781.49
618.226	18664.16
618.421	18893.54
618.616	19471.06
618.811	19729.11
619.006	20845.25
619.201	20667.08
619.396	21193.4
619.591	21406.39
619.786	22241.96
619.981	22661.8
620.176	23141.02
620.371	23452.31
620.566	23982.74
620.761	24572.55
620.956	25373.31
621.151	25596.54
621.346	26344.05
621.541	26272.37
621.735	27109.99
621.93	27368.03
622.125	27896.41
622.32	28363.34
622.515	29076.04
622.709	29557.31
622.904	30106.16
623.099	30941.74
623.294	30931.5
623.488	31394.34
623.683	32506.38
623.878	32160.28
624.072	33143.3
624.267	33499.65
624.462	34572.78
624.656	34664.94
624.851	35185.13
625.046	35301.86
625.24	36010.46
625.435	36254.17
625.629	37095.88
625.824	37165.51
626.018	38009.28
626.213	37865.92
626.407	39162.28
626.602	38689.2
626.796	39772.58
626.991	39889.31
627.185	40208.79
627.38	40378.78
627.574	40665.49
627.768	40827.28
627.963	41212.3
628.157	40925.58
628.352	41531.78
628.546	40917.39
628.74	41941.38
628.935	41513.35
629.129	41488.77
629.323	41011.6
629.517	41015.69
629.712	40628.63
629.906	40872.34
630.1	39762.34
630.294	40116.64
630.489	39133.61
630.683	38965.68
630.877	37898.69
631.071	37538.24
631.265	37042.63
631.459	36686.29
631.653	35729.89
631.848	34998.76
632.042	34013.69
632.236	33530.37
632.43	32434.71
632.624	31607.33
632.818	30620.2
633.012	29540.93
633.206	28875.34
633.4	28353.1
633.594	26552.94
633.788	26024.56
633.982	25201.28
634.176	24435.34
634.369	23546.52
634.563	22624.93
634.757	21748.4
634.951	21267.13
635.145	20294.35
635.339	19632.85
635.533	18285.29
635.726	18146.03
635.92	17093.37
636.114	16589.57
636.308	15772.43
636.501	15223.58
636.695	14496.55
636.889	13923.12
637.083	13441.84
637.276	12856.12
637.47	12143.43
637.664	11664.21
637.857	11320.15
638.051	10830.68
638.244	10386.27
638.438	10138.47
638.632	9773.93
638.825	9094.01
639.019	8915.83
639.212	8502.14
639.406	8299.39
639.599	7863.18
639.793	7582.6
639.986	7388.05
640.18	7111.57
640.373	6814.62
640.567	6267.81
640.76	6185.89
640.954	5981.09
641.147	5684.14
641.34	5491.63
641.534	5413.81
641.727	5102.51
641.92	5243.82
642.114	4789.17
642.307	4520.89
642.5	4490.17
642.694	4213.7
642.887	4049.86
643.08	4062.15
643.273	4015.04
643.467	3595.21
643.66	3576.78
643.853	3193.81
644.046	3101.65
644.239	3066.83
644.432	2993.11
644.626	2810.84
644.819	2606.04
645.012	2614.23
645.205	2659.29
645.398	2565.08
645.591	2368.48
645.784	2247.65
645.977	2087.9
646.17	2065.38
646.363	2151.39
646.556	1987.55
646.749	1721.32
646.942	1819.62
647.135	1815.52
647.328	1666.02
647.521	1559.53
647.714	1573.86
647.907	1567.72
648.099	1436.65
648.292	1407.98
648.485	1330.16
648.678	1334.25
648.871	1188.85
649.064	1229.81
649.256	1137.65
649.449	1047.54
649.642	936.95
649.835	1070.06
650.027	938.99
650.22	1059.82
650.413	887.79
650.605	951.28
650.798	828.4
650.991	871.41
651.183	779.25
651.376	766.96
651.568	807.92
651.761	826.36
651.954	812.02
652.146	627.7
652.339	728.05
652.531	801.78
652.724	558.07
652.916	584.7
653.109	359.42
653.301	560.12
653.494	580.6
653.686	533.5
653.879	685.05
654.071	533.5
654.263	500.73
654.456	433.15
654.648	513.02
654.84	613.37
655.033	400.38
655.225	562.17
655.417	347.13
655.61	480.25
655.802	492.54
655.994	580.6
656.186	347.13
656.379	472.06
656.571	386.04
656.763	353.27
656.955	365.56
657.148	312.32
657.34	410.62
657.532	353.27
657.724	246.78
657.916	377.85
658.108	371.71
658.3	381.95
658.492	437.24
658.684	181.25
658.876	304.12
659.068	265.21
659.26	140.29
659.452	171.01
659.644	279.55
659.836	371.71
660.028	252.92
660.22	330.75
660.412	252.92
660.604	197.63
660.796	183.29
660.988	363.51
661.18	271.36
661.372	332.79
661.563	252.92
661.755	281.6
661.947	216.06
662.139	183.29
662.331	230.4
662.522	187.39
662.714	199.68
662.906	168.96
663.097	197.63
663.289	189.44
663.481	70.65
663.673	214.01
663.864	207.87
664.056	275.45
664.247	187.39
664.439	336.89
664.631	209.92
664.822	171.01
665.014	164.86
665.205	140.29
665.397	205.82
665.588	224.25
665.78	50.18
665.971	265.21
666.163	119.81
666.354	185.34
666.546	95.23
666.737	140.29
666.929	162.81
667.12	216.06
667.311	226.3
667.503	193.53
667.694	160.77
667.885	181.25
668.077	218.11
668.268	134.14
668.459	115.71
668.651	160.77
668.842	265.21
669.033	160.77
669.224	80.89
669.416	287.74
669.607	109.57
669.798	48.13
669.989	195.58
670.18	142.33
670.371	175.1
670.563	78.85
670.754	211.96
670.945	218.11
671.136	246.78
671.327	128
671.518	259.07
671.709	293.88
671.9	214.01
672.091	199.68
672.282	193.53
672.473	232.44
672.664	82.94
672.855	177.15
673.046	171.01
673.237	240.64
673.428	226.3
673.619	185.34
673.809	130.05
674	173.05
674.191	226.3
674.382	142.33
674.573	123.9
674.764	162.81
674.954	230.4
675.145	64.51
675.336	146.43
675.527	72.7
675.717	117.76
675.908	123.9
676.099	162.81
676.289	218.11
676.48	56.32
676.671	156.67
676.861	125.95
677.052	164.86
677.243	107.52
677.433	175.1
677.624	242.68
677.814	121.85
678.005	216.06
678.195	238.59
678.386	125.95
678.576	238.59
678.767	93.18
678.957	263.16
679.148	175.1
679.338	293.88
679.529	218.11
679.719	154.62
679.909	181.25
680.1	222.2
680.29	203.77
680.481	121.85
680.671	257.02
680.861	230.4
681.052	191.49
681.242	193.53
681.432	226.3
681.622	164.86
681.813	166.91
682.003	158.72
682.193	154.62
682.383	209.92
682.573	199.68
682.764	154.62
682.954	248.83
683.144	240.64
683.334	197.63
683.524	312.32
683.714	224.25
683.904	275.45
684.094	289.79
684.284	257.02
684.474	220.16
684.664	351.23
684.854	250.88
685.044	211.96
685.234	269.31
685.424	168.96
685.614	168.96
685.804	361.47
685.994	320.51
686.184	156.67
686.374	193.53
686.564	189.44
686.753	211.96
686.943	87.04
687.133	199.68
687.323	183.29
687.513	248.83
687.702	142.33
687.892	228.35
688.082	302.08
688.272	261.12
688.461	209.92
688.651	351.23
688.841	332.79
689.03	226.3
689.22	279.55
689.41	302.08
689.599	308.22
689.789	191.49
689.979	312.32
690.168	250.88
690.358	336.89
690.547	261.12
690.737	244.73
690.926	269.31
691.116	197.63
691.305	281.6
691.495	295.93
691.684	168.96
691.874	214.01
692.063	164.86
692.252	304.12
692.442	297.98
692.631	97.28
692.82	175.1
693.01	220.16
693.199	162.81
693.388	250.88
693.578	242.68
693.767	216.06
693.956	246.78
694.146	158.72
694.335	259.07
694.524	230.4
694.713	271.36
694.902	238.59
695.092	134.14
695.281	252.92
695.47	226.3
695.659	240.64
695.848	226.3
696.037	189.44
696.226	338.94
696.415	201.72
696.604	242.68
696.793	312.32
696.982	152.57
697.171	263.16
697.36	199.68
697.549	316.41
697.738	123.9
697.927	197.63
698.116	146.43
698.305	207.87
698.494	273.4
698.683	259.07
698.872	386.04
699.061	207.87
699.25	152.57
699.438	244.73
699.627	142.33
699.816	318.46
700.005	82.94
700.193	201.72
700.382	187.39
700.571	199.68
700.76	187.39
700.948	324.6
701.137	203.77
701.326	224.25
701.514	123.9
701.703	197.63
701.892	211.96
702.08	336.89
702.269	224.25
702.457	154.62
702.646	289.79
702.834	185.34
703.023	300.03
703.212	267.26
703.4	105.47
703.589	211.96
703.777	156.67
703.965	154.62
704.154	254.97
704.342	156.67
704.531	156.67
704.719	205.82
704.907	211.96
705.096	41.98
705.284	179.2
705.472	232.44
705.661	183.29
705.849	252.92
706.037	254.97
706.226	140.29
706.414	281.6
706.602	132.09
706.79	244.73
706.979	128
707.167	205.82
707.355	76.8
707.543	197.63
707.731	228.35
707.919	166.91
708.107	203.77
708.296	136.19
708.484	134.14
708.672	197.63
708.86	259.07
709.048	240.64
709.236	173.05
709.424	283.64
709.612	222.2
709.8	99.33
709.988	203.77
710.176	259.07
710.364	304.12
710.551	250.88
710.739	252.92
710.927	238.59
711.115	273.4
711.303	189.44
711.491	187.39
711.679	150.53
711.866	226.3
712.054	142.33
712.242	257.02
712.43	289.79
712.617	226.3
712.805	281.6
712.993	226.3
713.181	93.18
713.368	246.78
713.556	193.53
713.744	189.44
713.931	390.14
714.119	220.16
714.306	162.81
714.494	244.73
714.682	205.82
714.869	130.05
715.057	166.91
715.244	140.29
715.432	216.06
715.619	166.91
715.807	150.53
715.994	222.2
716.182	222.2
716.369	197.63
716.556	160.77
716.744	148.48
716.931	134.14
717.119	150.53
717.306	115.71
717.493	271.36
717.681	140.29
717.868	103.42
718.055	242.68
718.242	140.29
718.43	207.87
718.617	300.03
718.804	144.38
718.991	273.4
719.179	173.05
719.366	279.55
719.553	334.84
719.74	267.26
719.927	273.4
720.114	246.78
720.301	154.62
720.488	164.86
720.676	222.2
720.863	349.18
721.05	435.19
721.237	175.1
721.424	228.35
721.611	222.2
721.798	175.1
721.985	130.05
722.172	177.15
722.358	209.92
722.545	320.51
722.732	310.27
722.919	246.78
723.106	263.16
723.293	230.4
723.48	254.97
723.667	138.24
723.853	230.4
724.04	336.89
724.227	275.45
724.414	156.67
724.6	314.36
724.787	295.93
724.974	351.23
725.161	240.64
725.347	162.81
725.534	287.74
725.72	252.92
725.907	300.03
726.094	283.64
726.28	187.39
726.467	177.15
726.653	146.43
726.84	318.46
727.027	410.62
727.213	254.97
727.4	244.73
727.586	248.83
727.773	289.79
727.959	285.69
728.145	252.92
728.332	259.07
728.518	189.44
728.705	248.83
728.891	300.03
729.077	277.5
729.264	263.16
729.45	234.49
729.636	289.79
729.823	236.54
730.009	338.94
730.195	293.88
730.382	365.56
730.568	234.49
730.754	351.23
730.94	250.88
731.126	295.93
731.313	320.51
731.499	242.68
731.685	404.47
731.871	242.68
732.057	283.64
732.243	363.51
732.429	302.08
732.615	375.8
732.801	254.97
732.987	322.56
733.173	218.11
733.359	220.16
733.545	269.31
733.731	308.22
733.917	328.7
734.103	261.12
734.289	265.21
734.475	171.01
734.661	429.05
734.847	308.22
735.033	314.36
735.219	400.38
735.404	179.2
735.59	257.02
735.776	269.31
735.962	293.88
736.148	281.6
736.333	351.23
736.519	177.15
736.705	369.66
736.89	275.45
737.076	291.84
737.262	238.59
737.447	345.08
737.633	257.02
737.819	388.09
738.004	318.46
738.19	269.31
738.375	336.89
738.561	343.03
738.747	302.08
738.932	234.49
739.118	326.65
739.303	353.27
739.489	287.74
739.674	189.44
739.859	160.77
740.045	302.08
740.23	248.83
740.416	95.23
740.601	254.97
740.786	306.17
740.972	244.73
741.157	171.01
741.342	265.21
741.528	193.53
741.713	238.59
741.898	283.64
742.084	277.5
742.269	234.49
742.454	343.03
742.639	320.51
742.824	230.4
743.01	433.15
743.195	418.81
743.38	246.78
743.565	222.2
743.75	248.83
743.935	308.22
744.12	306.17
744.305	189.44
744.49	254.97
744.675	281.6
744.86	269.31
745.045	326.65
745.23	222.2
745.415	244.73
745.6	412.67
745.785	257.02
745.97	379.9
746.155	300.03
746.34	306.17
746.525	287.74
746.71	275.45
746.895	156.67
747.079	113.66
747.264	218.11
747.449	259.07
747.634	300.03
747.819	232.44
748.003	265.21
748.188	121.85
748.373	336.89
748.557	310.27
748.742	199.68
748.927	201.72
749.111	195.58
749.296	238.59
749.481	279.55
749.665	269.31
749.85	207.87
750.034	343.03
750.219	252.92
750.404	228.35
750.588	203.77
750.773	218.11
750.957	259.07
751.141	138.24
751.326	271.36
751.51	164.86
751.695	252.92
751.879	250.88
752.064	271.36
752.248	154.62
752.432	332.79
752.617	314.36
752.801	345.08
752.985	158.72
753.17	349.18
753.354	218.11
753.538	207.87
753.722	119.81
753.907	132.09
754.091	156.67
754.275	242.68
754.459	187.39
754.643	160.77
754.828	160.77
755.012	175.1
755.196	87.04
755.38	250.88
755.564	74.75
755.748	193.53
755.932	193.53
756.116	246.78
756.3	191.49
756.484	101.37
756.668	177.15
756.852	56.32
757.036	107.52
757.22	218.11
757.404	125.95
757.588	156.67
757.772	195.58
757.956	99.33
758.14	246.78
758.323	115.71
758.507	166.91
758.691	166.91
758.875	164.86
759.059	228.35
759.242	39.94
759.426	152.57
759.61	111.61
759.794	103.42
759.977	230.4
760.161	324.6
760.345	263.16
760.528	222.2
760.712	158.72
760.895	101.37
761.079	132.09
761.263	117.76
761.446	121.85
761.63	175.1
761.813	207.87
761.997	41.98
762.18	179.2
762.364	183.29
762.547	21.5
762.731	119.81
762.914	160.77
763.098	80.89
763.281	109.57
763.464	74.75
763.648	130.05
763.831	121.85
764.015	111.61
764.198	189.44
764.381	101.37
764.564	175.1
764.748	142.33
764.931	74.75
765.114	91.13
765.297	134.14
765.481	52.22
765.664	11.26
765.847	72.7
766.03	269.31
766.213	128
766.397	128
766.58	-7.17
766.763	107.52
766.946	105.47
767.129	48.13
767.312	37.89
767.495	23.55
767.678	95.23
767.861	113.66
768.044	109.57
768.227	37.89
768.41	99.33
768.593	115.71
768.776	150.53
768.959	66.56
769.142	203.77
769.324	19.46
769.507	89.09
769.69	7.17
769.873	89.09
770.056	306.17
770.239	103.42
770.421	218.11
770.604	95.23
770.787	107.52
770.97	111.61
771.152	33.79
771.335	164.86
771.518	89.09
771.7	158.72
771.883	173.05
772.066	-27.65
772.248	128
772.431	203.77
772.613	109.57
772.796	99.33
772.978	97.28
773.161	144.38
773.343	84.99
773.526	66.56
773.708	1.02
773.891	-15.36
774.073	144.38
774.256	9.22
774.438	193.53
774.621	58.37
774.803	80.89
774.985	70.65
775.168	142.33
775.35	21.5
775.532	113.66
775.715	7.17
775.897	113.66
776.079	48.13
776.261	113.66
776.444	66.56
776.626	5.12
776.808	58.37
776.99	15.36
777.173	48.13
777.355	78.85
777.537	66.56
777.719	60.42
777.901	15.36
778.083	5.12
778.265	-37.89
778.447	179.2
778.629	13.31
778.811	95.23
778.993	109.57
779.175	144.38
779.357	101.37
779.539	-41.98
779.721	84.99
779.903	89.09
780.085	46.08
780.267	54.27
780.449	17.41
780.631	216.06
780.812	144.38
780.994	105.47
781.176	97.28
781.358	56.32
781.54	27.65
781.721	50.18
781.903	160.77
782.085	46.08
782.267	136.19
782.448	52.22
782.63	-1.02
782.812	99.33
782.993	168.96
783.175	99.33
783.357	27.65
783.538	48.13
783.72	48.13
783.901	9.22
784.083	166.91
784.264	166.91
784.446	19.46
784.627	25.6
784.809	56.32
784.99	50.18
785.172	91.13
785.353	13.31
785.535	21.5
785.716	41.98
785.897	-19.46
786.079	78.85
786.26	-19.46
786.441	78.85
786.623	-74.75
786.804	13.31
786.985	46.08
787.167	37.89
787.348	64.51
787.529	60.42
787.71	130.05
787.891	91.13
788.073	-3.07
788.254	-50.18
788.435	171.01
788.616	95.23
788.797	-21.5
788.978	-31.74
789.159	66.56
789.34	33.79
789.522	68.61
789.703	46.08
789.884	78.85
790.065	99.33
790.246	162.81
790.427	25.6
790.607	121.85
790.788	87.04
790.969	9.22
791.15	62.46
791.331	-3.07
791.512	-41.98
791.693	-5.12
791.874	44.03
792.054	166.91
792.235	134.14
792.416	-52.22
792.597	-21.5
792.778	84.99
792.958	58.37
793.139	50.18
793.32	58.37
793.5	82.94
793.681	93.18
793.862	68.61
794.042	78.85
794.223	-54.27
794.404	46.08
794.584	-50.18
794.765	-7.17
794.945	52.22
795.126	56.32
795.306	95.23
795.487	107.52
795.667	-3.07
795.848	80.89
796.028	25.6
796.209	19.46
796.389	58.37
796.57	46.08
796.75	-37.89
796.93	11.26
797.111	-3.07
797.291	-23.55
797.471	58.37
797.652	-17.41
797.832	-52.22
798.012	74.75
798.192	9.22
798.373	-44.03
798.553	1.02
798.733	66.56
798.913	50.18
799.093	74.75
799.274	-5.12
799.454	48.13
799.634	7.17
799.814	101.37
799.994	41.98
800.174	99.33
800.354	29.7
800.534	-46.08
800.714	128
800.894	-91.13
801.074	-78.85
801.254	7.17
801.434	76.8
801.614	-35.84
801.794	-15.36
801.974	1686.5
802.154	-74.75
802.334	87.04
802.514	-44.03
802.693	37.89
802.873	50.18
803.053	228.35
803.233	76.8
803.413	48.13
803.592	-27.65
803.772	-39.94
803.952	33.79
804.131	-17.41
804.311	87.04
804.491	103.42
804.67	-64.51
804.85	-58.37
805.03	64.51
805.209	91.13
805.389	-46.08
805.568	-21.5
805.748	15.36
805.928	37.89
806.107	150.53
806.287	66.56
806.466	52.22
806.646	-13.31
806.825	11.26
807.004	60.42
807.184	29.7
807.363	76.8
807.543	-29.7
807.722	-5.12
807.901	148.48
808.081	148.48
808.26	-84.99
808.439	25.6
808.619	64.51
808.798	-7.17
808.977	-23.55
809.156	130.05
809.336	-1.02
809.515	95.23
809.694	-44.03
809.873	-31.74
810.052	74.75
810.231	97.28
810.411	21.5
810.59	130.05
810.769	17.41
810.948	21.5
811.127	-54.27
811.306	-82.94
811.485	5.12
811.664	99.33
811.843	50.18
812.022	35.84
812.201	72.7
812.38	25.6
812.559	1.02
812.737	60.42
812.916	-56.32
813.095	3.07
813.274	27.65
813.453	27.65
813.632	50.18
813.811	56.32
813.989	-54.27
814.168	140.29
814.347	-21.5
814.526	-13.31
814.704	107.52
814.883	107.52
815.062	-130.05
815.24	56.32
815.419	-82.94
815.598	39.94
815.776	-99.33
815.955	-1.02
816.133	-125.95
816.312	17.41
816.49	-56.32
816.669	52.22
816.847	60.42
817.026	74.75
817.204	-9.22
817.383	33.79
817.561	-17.41
817.74	21.5
817.918	121.85
818.097	15.36
818.275	29.7
818.453	37.89
818.632	68.61
818.81	46.08
818.988	-29.7
819.167	37.89
819.345	56.32
819.523	-56.32
819.701	7.17
819.879	95.23
820.058	-23.55
820.236	-5.12
820.414	-39.94
820.592	-80.89
820.77	50.18
820.948	-13.31
821.127	25.6
821.305	-15.36
821.483	-68.61
821.661	125.95
821.839	11.26
822.017	27.65
822.195	1.02
822.373	48.13
822.551	31.74
822.729	44.03
822.907	5.12
823.085	74.75
823.262	-72.7
823.44	11.26
823.618	-52.22
823.796	-62.46
823.974	17.41
824.152	-23.55
824.329	-60.42
824.507	-72.7
824.685	56.32
824.863	58.37
825.04	68.61
825.218	89.09
825.396	25.6
825.574	35.84
825.751	39.94
825.929	103.42
826.107	-27.65
826.284	58.37
826.462	13.31
826.639	-87.04
826.817	-82.94
826.994	140.29
827.172	-31.74
827.349	134.14
827.527	15.36
827.704	13.31
827.882	62.46
828.059	5.12
828.237	48.13
828.414	50.18
828.591	-121.85
828.769	48.13
828.946	-46.08
829.124	99.33
829.301	138.24
829.478	136.19
829.655	21.5
829.833	64.51
830.01	-80.89
830.187	44.03
830.364	-1.02
830.542	9.22
830.719	132.09
830.896	76.8
831.073	41.98
831.25	119.81
831.427	105.47
831.604	41.98
831.782	13.31
831.959	39.94
832.136	17.41
832.313	29.7
832.49	-37.89
832.667	33.79
832.844	-21.5
833.021	58.37
833.198	39.94
833.374	-31.74
833.551	-13.31
833.728	-19.46
833.905	109.57
834.082	-101.37
834.259	9.22
834.436	56.32
834.612	-91.13
834.789	138.24
834.966	17.41
835.143	41.98
835.319	-93.18
835.496	-21.5
835.673	66.56
835.85	164.86
836.026	46.08
836.203	52.22
836.38	35.84
836.556	-97.28
836.733	-27.65
836.909	66.56
837.086	15.36
837.262	-95.23
837.439	33.79
837.616	-121.85
837.792	-64.51
837.968	-21.5
838.145	-134.14
838.321	21.5
838.498	15.36
838.674	68.61
838.851	41.98
839.027	-44.03
839.203	11.26
839.38	-5.12
839.556	13.31
839.732	50.18
839.909	-37.89
840.085	33.79
840.261	-31.74
840.437	50.18
840.614	35.84
840.79	132.09
840.966	56.32
841.142	68.61
841.318	-29.7
841.494	1.02
841.671	64.51
841.847	-74.75
842.023	-103.42
842.199	52.22
842.375	111.61
842.551	-70.65
842.727	-111.61
842.903	115.71
843.079	7.17
843.255	25.6
843.431	-1.02
843.607	97.28
843.783	-181.25
843.959	103.42
844.134	-31.74
844.31	105.47
844.486	-27.65
844.662	-87.04
844.838	13.31
845.013	35.84
845.189	150.53
845.365	7.17
845.541	23.55
845.716	74.75
845.892	72.7
846.068	-93.18
846.244	-56.32
846.419	44.03
846.595	-23.55
846.77	-62.46
846.946	117.76
847.122	1.02
847.297	7.17
847.473	125.95
847.648	3.07
847.824	-31.74
847.999	-115.71
848.175	1.02
848.35	13.31
848.526	107.52
848.701	117.76
848.876	33.79
849.052	21.5
849.227	-21.5
849.403	134.14
849.578	25.6
849.753	48.13
849.929	37.89
850.104	-37.89
850.279	60.42
850.454	35.84
850.63	1.02
850.805	33.79
850.98	-1.02
851.155	21.5
851.33	66.56
851.505	-44.03
851.681	183.29
851.856	-1.02
852.031	-11.26
852.206	48.13
852.381	-50.18
852.556	-15.36
852.731	68.61
852.906	11.26
853.081	84.99
853.256	125.95
853.431	-80.89
853.606	-25.6
853.781	-64.51
853.956	-80.89
854.131	62.46
854.305	-1.02
854.48	35.84
854.655	-44.03
854.83	1.02
855.005	58.37
855.18	-27.65
855.354	-35.84
855.529	39.94
855.704	-39.94
855.879	109.57
856.053	-58.37
856.228	62.46
856.403	-41.98
856.577	15.36
856.752	-87.04
856.926	13.31
857.101	37.89
857.276	-48.13
857.45	9.22
857.625	17.41
857.799	54.27
857.974	-33.79
858.148	-46.08
858.323	29.7
858.497	48.13
858.672	-39.94
858.846	-74.75
859.02	64.51
859.195	-105.47
859.369	15.36
859.543	-1.02
859.718	7.17
859.892	-48.13
860.066	1.02
860.241	-11.26
860.415	1.02
860.589	-29.7
860.763	9.22
860.938	54.27
861.112	50.18
861.286	-13.31
861.46	29.7
861.634	-11.26
861.808	13.31
861.982	-48.13
862.157	-78.85
862.331	-91.13
862.505	-107.52
862.679	-58.37
862.853	29.7
863.027	-9.22
863.201	105.47
863.375	-46.08
863.549	70.65
863.722	-3.07
863.896	64.51
864.07	-105.47
864.244	-64.51
864.418	54.27
864.592	17.41
864.766	9.22
864.939	5.12
865.113	-33.79
865.287	15.36
865.461	-89.09
865.634	41.98
865.808	-5.12
865.982	-37.89
866.156	-52.22
866.329	-54.27
866.503	-17.41
866.676	91.13
866.85	31.74
867.024	-25.6
867.197	136.19
867.371	9.22
867.544	87.04
867.718	-146.43
867.891	64.51
868.065	-50.18
868.238	-23.55
868.412	113.66
868.585	48.13
868.759	-7.17
868.932	-31.74
869.105	-5.12
869.279	-23.55
869.452	-19.46
869.625	-1.02
869.799	-52.22
869.972	11.26
870.145	-17.41
870.319	103.42
870.492	-58.37
870.665	-58.37
870.838	-44.03
871.011	-105.47
871.185	-70.65
871.358	-31.74
871.531	48.13
871.704	-78.85
871.877	19.46
872.05	-89.09
872.223	-115.71
872.396	31.74
872.569	3.07
872.742	-70.65
872.915	41.98
873.088	21.5
873.261	-66.56
873.434	37.89
873.607	-41.98
873.78	27.65
873.953	-39.94
874.126	-5.12
874.299	9.22
874.471	-11.26
874.644	-31.74
874.817	5.12
874.99	93.18
875.163	-41.98
875.335	15.36
875.508	54.27
875.681	60.42
875.853	-109.57
876.026	-21.5
876.199	52.22
876.371	-64.51
876.544	-76.8
876.717	48.13
876.889	23.55
877.062	33.79
877.234	-41.98
877.407	-48.13
877.579	-3.07
877.752	48.13
877.924	29.7
878.097	115.71
878.269	-11.26
878.442	31.74
878.614	62.46
878.786	-58.37
878.959	13.31
879.131	25.6
879.303	-111.61
879.476	-23.55
879.648	103.42
879.82	-19.46
879.993	-68.61
880.165	-44.03
880.337	-115.71
880.509	66.56
880.681	-132.09
880.854	-21.5
881.026	89.09
881.198	181.25
881.37	35.84
881.542	-3.07
881.714	35.84
881.886	-33.79
882.058	-13.31
882.23	-50.18
882.402	35.84
882.574	39.94
882.746	44.03
882.918	121.85
883.09	89.09
883.262	-23.55
883.434	1.02
883.606	-91.13
883.778	97.28
883.95	87.04
884.122	-11.26
884.293	105.47
884.465	-11.26
884.637	56.32
884.809	-164.86
884.98	-39.94
885.152	7.17
885.324	21.5
885.496	-9.22
885.667	-91.13
885.839	-41.98
886.011	99.33
886.182	46.08
886.354	70.65
886.525	5.12
886.697	27.65
886.869	-74.75
887.04	33.79
887.212	142.33
887.383	97.28
887.555	21.5
887.726	68.61
887.897	-62.46
888.069	39.94
888.24	66.56
888.412	-41.98
888.583	5.12
888.754	33.79
888.926	-95.23
889.097	37.89
889.268	-7.17
889.44	13.31
889.611	-64.51
889.782	-37.89
889.953	-91.13
890.125	91.13
890.296	-74.75
890.467	-46.08
890.638	-89.09
890.809	-3.07
890.98	-48.13
891.151	97.28
891.323	179.2
891.494	-1.02
891.665	7.17
891.836	25.6
892.007	-13.31
892.178	37.89
892.349	9.22
892.52	-15.36
892.691	5.12
892.862	74.75
893.032	-68.61
893.203	-54.27
893.374	-15.36
893.545	70.65
893.716	-87.04
893.887	80.89
894.057	-58.37
894.228	-3.07
894.399	23.55
894.57	168.96
894.74	25.6
894.911	25.6
895.082	-70.65
895.253	-72.7
895.423	25.6
895.594	35.84
895.764	60.42
895.935	-84.99
896.106	9.22
896.276	-13.31
896.447	-11.26
896.617	-29.7
896.788	-66.56
896.958	-23.55
897.129	-23.55
897.299	-70.65
897.47	97.28
897.64	-11.26
897.81	-54.27
897.981	82.94
898.151	-125.95
898.322	37.89
898.492	-23.55
898.662	-23.55
898.832	-74.75
899.003	17.41
899.173	72.7
899.343	-44.03
899.513	58.37
