Data from USB4F104151__295__11-21-16-427.txt Node

Date: Wed Feb 26 11:21:16 EST 2025
User: louis
Spectrometer: USB4F10415
Trigger mode: 4
Integration Time (sec): 1.000000E-1
Scans to average: 1
Electric dark correction enabled: true
Nonlinearity correction enabled: false
Boxcar width: 0
XAxis mode: Wavelengths
Number of Pixels in Spectrum: 3648
>>>>>Begin Spectral Data<<<<<
178.204	-410.11
178.424	-410.11
178.644	-410.11
178.864	-416.25
179.084	-440.83
179.304	-23.04
179.524	-41.47
179.744	85.5
179.964	42.5
180.184	-35.33
180.404	30.21
180.624	5.63
180.844	17.92
181.064	-61.95
181.283	-8.7
181.503	-39.42
181.723	28.16
181.943	-80.38
182.163	108.03
182.383	26.11
182.602	1.54
182.822	126.46
183.042	132.61
183.262	-102.91
183.482	15.87
183.701	11.78
183.921	36.35
184.141	-94.72
184.361	30.21
184.58	71.17
184.8	-6.66
185.02	-23.04
185.239	50.69
185.459	3.58
185.679	52.74
185.898	-61.95
186.118	7.68
186.338	30.21
186.557	126.46
186.777	-41.47
186.997	-0.51
187.216	19.97
187.436	177.66
187.655	79.36
187.875	11.78
188.095	-37.38
188.314	42.5
188.534	65.02
188.753	-20.99
188.973	103.93
189.192	54.78
189.412	-16.9
189.631	-16.9
189.851	79.36
190.07	112.13
190.29	-152.06
190.509	19.97
190.729	-18.94
190.948	130.56
191.168	140.8
191.387	71.17
191.607	22.02
191.826	5.63
192.045	22.02
192.265	11.78
192.484	-14.85
192.704	1.54
192.923	-119.29
193.142	134.65
193.362	138.75
193.581	148.99
193.8	89.6
194.02	58.88
194.239	34.3
194.458	112.13
194.678	-66.05
194.897	-23.04
195.116	89.6
195.335	62.98
195.555	62.98
195.774	-86.53
195.993	128.51
196.212	-12.8
196.432	-80.38
196.651	7.68
196.87	19.97
197.089	198.14
197.308	15.87
197.528	110.08
197.747	-43.52
197.966	-18.94
198.185	132.61
198.404	-20.99
198.623	142.85
198.842	48.64
199.062	46.59
199.281	79.36
199.5	30.21
199.719	26.11
199.938	-0.51
200.157	28.16
200.376	165.37
200.595	116.22
200.814	79.36
201.033	19.97
201.252	138.75
201.471	75.26
201.69	32.26
201.909	32.26
202.128	118.27
202.347	22.02
202.566	19.97
202.785	-68.09
203.004	-98.81
203.223	247.29
203.442	54.78
203.661	-51.71
203.879	26.11
204.098	105.98
204.317	-16.9
204.536	48.64
204.755	91.65
204.974	50.69
205.193	-51.71
205.411	83.45
205.63	128.51
205.849	50.69
206.068	36.35
206.287	5.63
206.505	58.88
206.724	40.45
206.943	-51.71
207.162	50.69
207.381	124.41
207.599	11.78
207.818	-0.51
208.037	-31.23
208.255	-31.23
208.474	130.56
208.693	-4.61
208.911	56.83
209.13	75.26
209.349	114.17
209.567	85.5
209.786	58.88
210.005	85.5
210.223	38.4
210.442	-113.15
210.661	13.82
210.879	108.03
211.098	7.68
211.316	-16.9
211.535	95.74
211.753	-25.09
211.972	71.17
212.191	7.68
212.409	24.06
212.628	101.89
212.846	67.07
213.065	36.35
213.283	44.54
213.502	9.73
213.72	62.98
213.938	71.17
214.157	58.88
214.375	73.21
214.594	-66.05
214.812	116.22
215.031	32.26
215.249	-4.61
215.467	48.64
215.686	75.26
215.904	44.54
216.122	-2.56
216.341	128.51
216.559	28.16
216.778	97.79
216.996	163.33
217.214	11.78
217.432	1.54
217.651	-12.8
217.869	38.4
218.087	28.16
218.306	-43.52
218.524	-0.51
218.742	1.54
218.96	81.41
219.179	-12.8
219.397	11.78
219.615	241.15
219.833	48.64
220.051	26.11
220.27	52.74
220.488	77.31
220.706	36.35
220.924	40.45
221.142	-76.29
221.36	58.88
221.578	79.36
221.796	-0.51
222.015	9.73
222.233	30.21
222.451	110.08
222.669	-27.14
222.887	48.64
223.105	-8.7
223.323	-59.9
223.541	-35.33
223.759	155.13
223.977	32.26
224.195	142.85
224.413	26.11
224.631	38.4
224.849	132.61
225.067	163.33
225.285	9.73
225.503	36.35
225.721	-70.14
225.939	-23.04
226.157	62.98
226.375	196.09
226.592	-90.62
226.81	58.88
227.028	144.89
227.246	81.41
227.464	62.98
227.682	99.84
227.9	13.82
228.117	11.78
228.335	56.83
228.553	75.26
228.771	5.63
228.989	-6.66
229.206	67.07
229.424	17.92
229.642	-4.61
229.86	-14.85
230.077	42.5
230.295	34.3
230.513	112.13
230.731	-39.42
230.948	146.94
231.166	124.41
231.384	-14.85
231.601	-68.09
231.819	146.94
232.037	-82.43
232.254	-35.33
232.472	-14.85
232.689	-68.09
232.907	142.85
233.125	-8.7
233.342	-39.42
233.56	-145.92
233.777	5.63
233.995	77.31
234.213	108.03
234.43	58.88
234.648	54.78
234.865	-47.62
235.083	114.17
235.3	75.26
235.518	99.84
235.735	65.02
235.953	19.97
236.17	52.74
236.388	110.08
236.605	-0.51
236.822	24.06
237.04	124.41
237.257	120.32
237.475	-51.71
237.692	122.37
237.909	52.74
238.127	-72.19
238.344	30.21
238.562	30.21
238.779	-76.29
238.996	-27.14
239.214	95.74
239.431	40.45
239.648	-8.7
239.865	185.85
240.083	97.79
240.3	-2.56
240.517	26.11
240.735	-4.61
240.952	95.74
241.169	54.78
241.386	48.64
241.603	-25.09
241.821	-98.81
242.038	36.35
242.255	71.17
242.472	-51.71
242.689	-6.66
242.907	87.55
243.124	11.78
243.341	24.06
243.558	-82.43
243.775	-51.71
243.992	-98.81
244.209	140.8
244.426	165.37
244.643	34.3
244.86	42.5
245.078	40.45
245.295	42.5
245.512	-6.66
245.729	-53.76
245.946	56.83
246.163	9.73
246.38	-6.66
246.597	52.74
246.814	13.82
247.031	-6.66
247.248	-6.66
247.464	38.4
247.681	75.26
247.898	54.78
248.115	56.83
248.332	-35.33
248.549	103.93
248.766	173.57
248.983	142.85
249.2	101.89
249.417	5.63
249.633	-0.51
249.85	67.07
250.067	-6.66
250.284	62.98
250.501	50.69
250.717	17.92
250.934	-96.77
251.151	-25.09
251.368	17.92
251.585	-23.04
251.801	-35.33
252.018	-35.33
252.235	157.18
252.451	-78.33
252.668	-57.86
252.885	118.27
253.102	52.74
253.318	42.5
253.535	-39.42
253.752	-23.04
253.968	-49.66
254.185	-92.67
254.401	15.87
254.618	159.23
254.835	32.26
255.051	81.41
255.268	69.12
255.484	15.87
255.701	1.54
255.917	69.12
256.134	-51.71
256.351	-25.09
256.567	-16.9
256.784	-20.99
257	-59.9
257.217	179.71
257.433	103.93
257.65	7.68
257.866	126.46
258.082	-16.9
258.299	-31.23
258.515	-39.42
258.732	-29.18
258.948	-66.05
259.165	22.02
259.381	-18.94
259.597	9.73
259.814	17.92
260.03	13.82
260.246	28.16
260.463	65.02
260.679	87.55
260.895	54.78
261.112	136.7
261.328	36.35
261.544	19.97
261.761	116.22
261.977	22.02
262.193	-68.09
262.409	103.93
262.626	54.78
262.842	50.69
263.058	-37.38
263.274	7.68
263.49	26.11
263.707	65.02
263.923	120.32
264.139	-107.01
264.355	13.82
264.571	54.78
264.787	34.3
265.004	189.95
265.22	40.45
265.436	-47.62
265.652	24.06
265.868	73.21
266.084	-47.62
266.3	30.21
266.516	-31.23
266.732	44.54
266.948	91.65
267.164	36.35
267.38	120.32
267.596	36.35
267.812	99.84
268.028	93.69
268.244	7.68
268.46	44.54
268.676	71.17
268.892	93.69
269.108	-59.9
269.324	-74.24
269.54	-6.66
269.756	48.64
269.972	-2.56
270.188	-10.75
270.403	-96.77
270.619	42.5
270.835	9.73
271.051	95.74
271.267	-33.28
271.483	-49.66
271.698	99.84
271.914	26.11
272.13	42.5
272.346	-70.14
272.562	26.11
272.777	130.56
272.993	19.97
273.209	-57.86
273.425	83.45
273.64	-68.09
273.856	81.41
274.072	-39.42
274.287	-45.57
274.503	3.58
274.719	87.55
274.934	22.02
275.15	-100.86
275.366	5.63
275.581	-33.28
275.797	9.73
276.012	99.84
276.228	13.82
276.444	30.21
276.659	148.99
276.875	-16.9
277.09	-31.23
277.306	-51.71
277.521	65.02
277.737	58.88
277.952	91.65
278.168	42.5
278.383	11.78
278.599	116.22
278.814	75.26
279.03	40.45
279.245	52.74
279.461	-0.51
279.676	144.89
279.892	-88.57
280.107	48.64
280.322	17.92
280.538	34.3
280.753	-27.14
280.969	-6.66
281.184	28.16
281.399	161.28
281.615	-0.51
281.83	62.98
282.045	-68.09
282.26	-61.95
282.476	-18.94
282.691	48.64
282.906	134.65
283.122	38.4
283.337	-45.57
283.552	24.06
283.767	-16.9
283.983	73.21
284.198	81.41
284.413	46.59
284.628	-18.94
284.843	9.73
285.058	46.59
285.274	-41.47
285.489	-29.18
285.704	105.98
285.919	32.26
286.134	19.97
286.349	17.92
286.564	-80.38
286.779	103.93
286.995	15.87
287.21	-119.29
287.425	-68.09
287.64	-25.09
287.855	50.69
288.07	-8.7
288.285	108.03
288.5	110.08
288.715	34.3
288.93	54.78
289.145	-27.14
289.36	77.31
289.575	44.54
289.79	75.26
290.004	50.69
290.219	128.51
290.434	40.45
290.649	7.68
290.864	56.83
291.079	26.11
291.294	62.98
291.509	50.69
291.724	15.87
291.938	-2.56
292.153	87.55
292.368	38.4
292.583	-31.23
292.798	144.89
293.012	34.3
293.227	-18.94
293.442	-18.94
293.657	101.89
293.871	24.06
294.086	30.21
294.301	222.72
294.516	54.78
294.73	48.64
294.945	-88.57
295.16	38.4
295.374	93.69
295.589	65.02
295.804	13.82
296.018	-20.99
296.233	93.69
296.447	-4.61
296.662	-49.66
296.877	77.31
297.091	134.65
297.306	-41.47
297.52	24.06
297.735	-43.52
297.949	99.84
298.164	67.07
298.378	112.13
298.593	-74.24
298.807	-41.47
299.022	9.73
299.236	196.09
299.451	5.63
299.665	-49.66
299.88	-16.9
300.094	110.08
300.309	-76.29
300.523	19.97
300.737	-35.33
300.952	7.68
301.166	5.63
301.381	-31.23
301.595	-66.05
301.809	26.11
302.024	9.73
302.238	-20.99
302.452	114.17
302.667	-43.52
302.881	122.37
303.095	77.31
303.309	9.73
303.524	1.54
303.738	30.21
303.952	-41.47
304.166	126.46
304.381	-94.72
304.595	85.5
304.809	-23.04
305.023	1.54
305.237	-39.42
305.452	46.59
305.666	89.6
305.88	91.65
306.094	85.5
306.308	34.3
306.522	11.78
306.736	187.9
306.95	62.98
307.164	50.69
307.379	-45.57
307.593	91.65
307.807	142.85
308.021	103.93
308.235	34.3
308.449	-98.81
308.663	1.54
308.877	175.61
309.091	30.21
309.305	52.74
309.519	-53.76
309.733	114.17
309.947	-104.96
310.161	69.12
310.374	71.17
310.588	77.31
310.802	-12.8
311.016	-16.9
311.23	38.4
311.444	-6.66
311.658	73.21
311.872	67.07
312.085	58.88
312.299	128.51
312.513	155.13
312.727	60.93
312.941	-39.42
313.154	93.69
313.368	34.3
313.582	38.4
313.796	58.88
314.009	-76.29
314.223	30.21
314.437	62.98
314.651	128.51
314.864	81.41
315.078	1.54
315.292	-127.49
315.505	-43.52
315.719	108.03
315.933	22.02
316.146	-10.75
316.36	-109.05
316.573	62.98
316.787	116.22
317.001	77.31
317.214	-14.85
317.428	40.45
317.641	-29.18
317.855	-18.94
318.068	-20.99
318.282	-8.7
318.495	103.93
318.709	91.65
318.922	-53.76
319.136	171.52
319.349	99.84
319.563	-76.29
319.776	48.64
319.99	-16.9
320.203	32.26
320.417	5.63
320.63	28.16
320.843	144.89
321.057	91.65
321.27	15.87
321.483	30.21
321.697	171.52
321.91	52.74
322.124	56.83
322.337	40.45
322.55	24.06
322.763	15.87
322.977	-33.28
323.19	-51.71
323.403	-2.56
323.617	75.26
323.83	89.6
324.043	3.58
324.256	62.98
324.469	-57.86
324.683	122.37
324.896	58.88
325.109	36.35
325.322	-82.43
325.535	89.6
325.748	34.3
325.962	-96.77
326.175	36.35
326.388	34.3
326.601	142.85
326.814	40.45
327.027	36.35
327.24	198.14
327.453	-141.82
327.666	28.16
327.879	93.69
328.092	56.83
328.305	34.3
328.518	-8.7
328.731	15.87
328.944	44.54
329.157	36.35
329.37	22.02
329.583	198.14
329.796	144.89
330.009	-107.01
330.222	163.33
330.435	114.17
330.648	99.84
330.861	-29.18
331.073	69.12
331.286	112.13
331.499	44.54
331.712	-12.8
331.925	-12.8
332.138	-37.38
332.35	146.94
332.563	-74.24
332.776	251.39
332.989	-31.23
333.202	28.16
333.414	40.45
333.627	-35.33
333.84	-35.33
334.053	58.88
334.265	28.16
334.478	-45.57
334.691	103.93
334.903	73.21
335.116	7.68
335.329	-0.51
335.541	-29.18
335.754	200.19
335.966	7.68
336.179	7.68
336.392	-10.75
336.604	-66.05
336.817	120.32
337.029	110.08
337.242	28.16
337.454	-16.9
337.667	19.97
337.88	101.89
338.092	62.98
338.305	58.88
338.517	3.58
338.729	144.89
338.942	116.22
339.154	-59.9
339.367	-23.04
339.579	54.78
339.792	-39.42
340.004	114.17
340.217	38.4
340.429	67.07
340.641	-96.77
340.854	24.06
341.066	22.02
341.278	62.98
341.491	183.81
341.703	103.93
341.915	-68.09
342.128	-10.75
342.34	87.55
342.552	17.92
342.764	42.5
342.977	30.21
343.189	54.78
343.401	11.78
343.613	-104.96
343.826	136.7
344.038	5.63
344.25	30.21
344.462	-25.09
344.674	58.88
344.886	-25.09
345.099	42.5
345.311	65.02
345.523	38.4
345.735	-104.96
345.947	52.74
346.159	69.12
346.371	24.06
346.583	-12.8
346.795	171.52
347.007	40.45
347.219	62.98
347.431	26.11
347.643	120.32
347.855	-10.75
348.067	116.22
348.279	-98.81
348.491	48.64
348.703	95.74
348.915	26.11
349.127	-18.94
349.339	56.83
349.551	32.26
349.763	65.02
349.975	73.21
350.187	101.89
350.399	65.02
350.61	36.35
350.822	-80.38
351.034	40.45
351.246	-49.66
351.458	116.22
351.669	48.64
351.881	75.26
352.093	128.51
352.305	71.17
352.517	32.26
352.728	134.65
352.94	1.54
353.152	36.35
353.363	30.21
353.575	95.74
353.787	58.88
353.999	169.47
354.21	198.14
354.422	-66.05
354.633	-37.38
354.845	3.58
355.057	40.45
355.268	26.11
355.48	40.45
355.692	-100.86
355.903	17.92
356.115	-74.24
356.326	-123.39
356.538	194.05
356.749	24.06
356.961	136.7
357.172	73.21
357.384	-57.86
357.595	189.95
357.807	56.83
358.018	-88.57
358.23	-20.99
358.441	198.14
358.653	69.12
358.864	-14.85
359.075	7.68
359.287	5.63
359.498	40.45
359.709	77.31
359.921	-72.19
360.132	50.69
360.344	40.45
360.555	42.5
360.766	30.21
360.977	42.5
361.189	81.41
361.4	15.87
361.611	46.59
361.823	99.84
362.034	-14.85
362.245	-41.47
362.456	-8.7
362.667	126.46
362.879	-51.71
363.09	75.26
363.301	1.54
363.512	-29.18
363.723	-12.8
363.935	7.68
364.146	71.17
364.357	15.87
364.568	44.54
364.779	-131.58
364.99	97.79
365.201	-82.43
365.412	105.98
365.623	-74.24
365.834	1.54
366.045	-8.7
366.256	60.93
366.467	65.02
366.678	83.45
366.889	-47.62
367.1	-66.05
367.311	93.69
367.522	-6.66
367.733	144.89
367.944	54.78
368.155	69.12
368.366	34.3
368.577	87.55
368.788	91.65
368.999	-59.9
369.209	-68.09
369.42	181.76
369.631	200.19
369.842	73.21
370.053	-6.66
370.264	97.79
370.474	-45.57
370.685	40.45
370.896	-16.9
371.107	126.46
371.317	56.83
371.528	40.45
371.739	144.89
371.95	95.74
372.16	58.88
372.371	-31.23
372.582	1.54
372.792	26.11
373.003	58.88
373.214	36.35
373.424	146.94
373.635	13.82
373.846	126.46
374.056	40.45
374.267	75.26
374.477	120.32
374.688	-64
374.898	67.07
375.109	5.63
375.319	65.02
375.53	95.74
375.74	56.83
375.951	9.73
376.161	46.59
376.372	146.94
376.582	17.92
376.793	19.97
377.003	-88.57
377.214	15.87
377.424	60.93
377.635	101.89
377.845	11.78
378.055	116.22
378.266	-29.18
378.476	54.78
378.686	30.21
378.897	26.11
379.107	79.36
379.317	79.36
379.528	19.97
379.738	7.68
379.948	-12.8
380.158	83.45
380.369	30.21
380.579	-12.8
380.789	34.3
380.999	108.03
381.21	77.31
381.42	210.43
381.63	65.02
381.84	173.57
382.05	58.88
382.261	136.7
382.471	54.78
382.681	36.35
382.891	112.13
383.101	71.17
383.311	-29.18
383.521	-39.42
383.731	105.98
383.941	75.26
384.151	79.36
384.361	-31.23
384.571	-72.19
384.781	22.02
384.991	112.13
385.201	120.32
385.411	89.6
385.621	81.41
385.831	67.07
386.041	15.87
386.251	26.11
386.461	112.13
386.671	-16.9
386.881	110.08
387.091	36.35
387.301	120.32
387.511	67.07
387.72	108.03
387.93	-4.61
388.14	-82.43
388.35	24.06
388.56	114.17
388.769	60.93
388.979	9.73
389.189	50.69
389.399	17.92
389.609	146.94
389.818	114.17
390.028	75.26
390.238	89.6
390.447	-8.7
390.657	81.41
390.867	48.64
391.076	-68.09
391.286	52.74
391.496	-25.09
391.705	122.37
391.915	120.32
392.125	122.37
392.334	-0.51
392.544	243.2
392.753	110.08
392.963	-4.61
393.172	-6.66
393.382	-8.7
393.591	189.95
393.801	26.11
394.01	181.76
394.22	71.17
394.429	-14.85
394.639	15.87
394.848	32.26
395.058	30.21
395.267	3.58
395.477	112.13
395.686	38.4
395.895	163.33
396.105	189.95
396.314	56.83
396.524	-0.51
396.733	-12.8
396.942	85.5
397.152	36.35
397.361	183.81
397.57	71.17
397.78	69.12
397.989	79.36
398.198	194.05
398.407	128.51
398.617	73.21
398.826	48.64
399.035	-12.8
399.244	110.08
399.453	91.65
399.663	89.6
399.872	38.4
400.081	38.4
400.29	85.5
400.499	5.63
400.708	93.69
400.917	-98.81
401.127	32.26
401.336	22.02
401.545	167.42
401.754	89.6
401.963	122.37
402.172	48.64
402.381	-49.66
402.59	62.98
402.799	5.63
403.008	108.03
403.217	75.26
403.426	32.26
403.635	-0.51
403.844	11.78
404.053	38.4
404.262	1.54
404.471	243.2
404.68	19.97
404.888	-76.29
405.097	-29.18
405.306	83.45
405.515	101.89
405.724	-10.75
405.933	132.61
406.142	-45.57
406.35	52.74
406.559	-41.47
406.768	91.65
406.977	85.5
407.185	101.89
407.394	87.55
407.603	-53.76
407.812	75.26
408.02	171.52
408.229	77.31
408.438	79.36
408.646	-127.49
408.855	62.98
409.064	40.45
409.272	50.69
409.481	79.36
409.69	-37.38
409.898	-18.94
410.107	-0.51
410.315	144.89
410.524	42.5
410.733	148.99
410.941	93.69
411.15	120.32
411.358	95.74
411.567	153.09
411.775	9.73
411.984	175.61
412.192	79.36
412.401	40.45
412.609	108.03
412.818	146.94
413.026	34.3
413.234	52.74
413.443	19.97
413.651	-8.7
413.86	36.35
414.068	93.69
414.276	204.28
414.485	5.63
414.693	167.42
414.901	116.22
415.11	91.65
415.318	54.78
415.526	26.11
415.734	142.85
415.943	144.89
416.151	142.85
416.359	89.6
416.567	56.83
416.776	138.75
416.984	138.75
417.192	169.47
417.4	5.63
417.608	28.16
417.817	28.16
418.025	161.28
418.233	198.14
418.441	-72.19
418.649	-16.9
418.857	132.61
419.065	138.75
419.273	-16.9
419.481	56.83
419.689	124.41
419.897	22.02
420.105	-57.86
420.313	101.89
420.521	163.33
420.729	194.05
420.937	52.74
421.145	-4.61
421.353	71.17
421.561	153.09
421.769	75.26
421.977	34.3
422.185	138.75
422.393	17.92
422.601	40.45
422.809	26.11
423.017	40.45
423.224	114.17
423.432	148.99
423.64	32.26
423.848	159.23
424.056	1.54
424.263	192
424.471	36.35
424.679	95.74
424.887	-55.81
425.094	87.55
425.302	118.27
425.51	65.02
425.718	81.41
425.925	122.37
426.133	42.5
426.341	216.57
426.548	62.98
426.756	48.64
426.964	151.04
427.171	7.68
427.379	22.02
427.586	110.08
427.794	177.66
428.001	144.89
428.209	60.93
428.417	142.85
428.624	126.46
428.832	153.09
429.039	122.37
429.247	83.45
429.454	116.22
429.662	187.9
429.869	93.69
430.076	192
430.284	97.79
430.491	194.05
430.699	124.41
430.906	255.48
431.114	124.41
431.321	253.44
431.528	132.61
431.736	161.28
431.943	177.66
432.15	306.68
432.358	192
432.565	310.78
432.772	93.69
432.979	179.71
433.187	214.52
433.394	282.11
433.601	105.98
433.808	345.59
434.016	296.44
434.223	325.12
434.43	171.52
434.637	267.77
434.844	325.12
435.052	294.4
435.259	286.2
435.466	288.25
435.673	269.82
435.88	273.92
436.087	409.08
436.294	312.83
436.501	361.98
436.708	368.12
436.915	361.98
437.122	491
437.329	341.5
437.537	364.03
437.743	454.14
437.95	495.1
438.157	441.85
438.364	433.66
438.571	427.51
438.778	538.1
438.985	513.53
439.192	515.58
439.399	513.53
439.606	579.06
439.813	628.21
440.02	775.67
440.227	749.04
440.433	701.94
440.64	701.94
440.847	638.45
441.054	747
441.261	871.92
441.467	716.28
441.674	685.56
441.881	943.6
442.088	859.63
442.294	933.36
442.501	927.22
442.708	1046
442.914	1017.33
443.121	1230.32
443.328	1150.45
443.534	1172.97
443.741	1076.72
443.948	959.99
444.154	1351.15
444.361	1418.73
444.568	1230.32
444.774	1230.32
444.981	1177.07
445.187	1584.62
445.394	1471.98
445.6	1439.21
445.807	1682.92
446.013	1611.24
446.22	1619.43
446.426	1766.89
446.633	1861.09
446.839	2035.17
447.046	1715.69
447.252	2108.9
447.459	1951.2
447.665	2170.33
447.871	2174.43
448.078	2461.15
448.284	2524.63
448.491	2495.96
448.697	2647.51
448.903	2807.25
449.11	2840.02
449.316	2694.61
449.522	3057.11
449.728	3030.48
449.935	3210.7
450.141	3407.31
450.347	3429.84
450.553	3474.89
450.76	3462.6
450.966	3857.86
451.172	3841.48
451.378	4115.91
451.584	4304.32
451.791	4390.33
451.997	4378.05
452.203	4681.14
452.409	4855.22
452.615	5049.78
452.821	4810.17
453.027	5090.74
453.233	5707.18
453.44	5545.39
453.646	5731.75
453.852	5959.08
454.058	6079.91
454.264	6358.43
454.47	6749.59
454.676	6823.32
454.882	7325.07
455.088	6892.95
455.294	7400.85
455.5	7884.17
455.705	8412.54
455.911	8510.85
456.117	8603
456.323	9010.55
456.529	9012.6
456.735	9854.31
456.941	10210.66
457.147	10399.07
457.352	10724.7
457.558	11009.37
457.764	11779.4
457.97	12098.89
458.176	12526.91
458.381	13067.58
458.587	13061.43
458.793	14081.32
458.999	13942.06
459.204	15734.03
459.41	16194.82
459.616	16008.46
459.821	17126.65
460.027	17962.22
460.233	18697.44
460.438	18498.79
460.644	19875.02
460.85	19784.91
461.055	20602.05
461.261	21789.88
461.466	21097.66
461.672	21564.6
461.878	24138.9
462.083	23968.91
462.289	24519.82
462.494	25279.61
462.7	25543.8
462.905	25894
463.111	27978.84
463.316	29279.3
463.522	29912.12
463.727	30905.38
463.932	32113.69
464.138	32992.26
464.343	34538.48
464.549	34462.71
464.754	36824.01
464.959	38228.92
465.165	38849.46
465.37	38382.52
465.575	38861.74
465.781	41055.12
465.986	42349.43
466.191	41450.38
466.397	41950.08
466.602	41061.26
466.807	43473.77
467.012	44335.96
467.218	44471.13
467.423	45030.22
467.628	45720.39
467.833	48241.44
468.038	47686.44
468.244	46641.98
468.449	49400.59
468.654	48372.51
468.859	48685.85
469.064	47708.97
469.269	47469.36
469.474	47827.75
469.679	48802.58
469.885	47242.03
470.09	48151.33
470.295	48554.78
470.5	47170.35
470.705	48061.22
470.91	46398.27
471.115	45798.21
471.32	46725.94
471.525	46574.39
471.73	45155.15
471.935	45044.56
472.139	43436.91
472.344	43512.68
472.549	43213.68
472.754	42277.75
472.959	41569.16
473.164	40323.99
473.369	39723.94
473.574	40508.31
473.778	39832.48
473.983	39316.39
474.188	38587.32
474.393	36529.11
474.598	36576.21
474.802	35857.37
475.007	35441.64
475.212	35240.93
475.417	33825.79
475.621	33180.68
475.826	32986.12
476.031	32128.02
476.235	31824.92
476.44	31763.48
476.645	31226.92
476.849	30491.69
477.054	29996.09
477.259	29195.33
477.463	29500.48
477.668	28726.35
477.872	28523.6
478.077	27905.11
478.282	27155.55
478.486	27036.77
478.691	26612.84
478.895	26068.08
479.1	26317.93
479.304	25746.55
479.509	24870.02
479.713	25347.2
479.918	24806.53
480.122	24177.81
480.326	24571.02
480.531	24212.62
480.735	24065.17
480.94	23887
481.144	24396.94
481.348	23299.23
481.553	23383.2
481.757	22635.69
481.961	23012.51
482.166	23106.72
482.37	22711.46
482.574	22324.4
482.778	22269.1
482.983	22291.63
483.187	22054.06
483.391	22090.93
483.595	21568.69
483.8	21273.79
484.004	21468.34
484.208	21574.84
484.412	21054.65
484.616	21210.3
484.821	20712.64
485.025	19928.27
485.229	20143.31
485.433	19952.85
485.637	19631.32
485.841	19176.67
486.045	19117.28
486.249	19266.78
486.453	18500.84
486.657	18476.26
486.861	18058.48
487.065	17429.75
487.269	17591.54
487.473	17038.59
487.677	17294.58
487.881	17050.88
488.085	16385.29
488.289	16497.92
488.493	15932.68
488.697	15697.17
488.901	15469.84
489.105	15107.35
489.309	14781.73
489.512	14859.55
489.716	14456.1
489.92	14005.55
490.124	13806.89
490.328	13985.07
490.531	13483.31
490.735	13255.99
490.939	13096.25
491.143	12637.5
491.346	12705.09
491.55	12621.12
491.754	12246.34
491.958	12066.12
492.161	11840.84
492.365	11787.6
492.569	11257.17
492.772	11212.12
492.976	11117.91
493.18	10980.7
493.383	11101.53
493.587	10888.54
493.79	10706.27
493.994	10458.46
494.197	10548.58
494.401	10405.22
494.605	10108.26
494.808	10175.84
495.012	9958.76
495.215	10040.68
495.419	9975.14
495.622	9827.69
495.825	9684.33
496.029	9596.27
496.232	9616.75
496.436	9678.19
496.639	9608.56
496.843	9592.17
497.046	9571.69
497.249	9737.58
497.453	9586.03
497.656	9549.17
497.859	9536.88
498.063	9581.93
498.266	9760.11
498.469	9473.39
498.673	9395.57
498.876	9610.61
499.079	9782.63
499.282	9631.09
499.485	10112.36
499.689	9760.11
499.892	10106.21
500.095	9717.1
500.298	10104.17
500.501	9915.75
500.705	10034.53
500.908	10331.49
501.111	10052.97
501.314	10227.04
501.517	10689.88
501.72	10483.04
501.923	10540.38
502.126	10665.31
502.329	10960.22
502.532	10831.19
502.735	11070.81
502.938	11443.54
503.141	11339.09
503.344	11332.95
503.547	11670.86
503.75	11875.66
503.953	11996.49
504.156	12047.69
504.359	11965.77
504.562	12197.19
504.765	12619.07
504.968	12672.32
505.17	13135.16
505.373	12877.12
505.576	13481.27
505.779	13548.85
505.982	13452.59
506.185	13907.24
506.387	14116.14
506.59	14318.89
506.793	14558.5
506.996	14746.91
507.198	15133.98
507.401	15502.61
507.604	15662.35
507.807	16041.23
508.009	16356.61
508.212	16559.36
508.415	16884.99
508.617	17024.25
508.82	17313.02
509.022	17702.13
509.225	18248.94
509.428	18869.47
509.63	19006.69
509.833	19045.6
510.035	20231.37
510.238	20108.49
510.44	20726.98
510.643	21402.81
510.845	21574.84
511.048	21693.62
511.25	22267.05
511.453	22484.14
511.655	23815.32
511.858	23891.09
512.06	24454.28
512.262	24773.77
512.465	25209.98
512.667	25687.16
512.87	26471.53
513.072	27149.41
513.274	27667.55
513.477	28204.11
513.679	28886.09
513.881	29492.29
514.084	30395.44
514.286	30350.38
514.488	31298.59
514.69	32291.86
514.893	32742.41
515.095	33281.03
515.297	34024.44
515.499	34292.72
515.701	35343.33
515.904	36322.26
516.106	37000.14
516.308	38026.17
516.51	38429.62
516.712	39183.27
516.914	39513
517.116	40536.98
517.318	41036.69
517.52	41966.46
517.722	42072.96
517.925	43201.39
518.127	44157.79
518.329	44706.65
518.531	45192.01
518.733	46046.02
518.935	46992.18
519.136	47428.4
519.338	48075.55
519.54	49257.23
519.742	49691.4
519.944	50264.83
520.146	51002.1
520.348	52093.67
520.55	52333.28
520.752	52673.24
520.954	53959.37
521.155	53965.51
521.357	54522.56
521.559	54938.3
521.761	56193.7
521.963	56574.62
522.164	56746.65
522.366	56924.83
522.568	57772.69
522.77	57662.1
522.971	58804.86
523.173	58686.08
523.375	59073.15
523.576	58839.68
523.778	59271.8
523.98	60179.05
524.181	60303.98
524.383	60086.89
524.584	60574.31
524.786	60867.17
524.988	60498.53
525.189	60695.14
525.391	61305.43
525.592	60881.5
525.794	61080.16
525.995	60846.69
526.197	60766.82
526.398	61123.16
526.6	61049.44
526.801	60613.22
527.003	60713.57
527.204	60265.06
527.406	60154.47
527.607	59812.46
527.808	60547.68
528.01	58782.34
528.211	59605.62
528.412	59488.88
528.614	59087.48
528.815	58602.11
529.016	58493.57
529.218	57727.63
529.419	56744.61
529.62	56570.53
529.822	55888.56
530.023	55276.21
530.224	55620.27
530.425	54762.17
530.626	53754.57
530.828	52894.42
531.029	53715.66
531.23	52376.29
531.431	51737.32
531.632	51499.76
531.833	51251.95
532.035	50391.81
532.236	49826.57
532.437	49335.06
532.638	48229.15
532.839	48433.95
533.04	47653.67
533.241	46566.2
533.442	47158.06
533.643	45982.53
533.844	45187.92
534.045	44989.27
534.246	43629.41
534.447	43256.68
534.648	42679.16
534.849	42726.26
535.05	41565.06
535.251	41298.83
535.451	40412.06
535.652	40672.15
535.853	39570.34
536.054	39044.01
536.255	38745.01
536.456	37551.04
536.657	37952.44
536.857	37143.5
537.058	36545.49
537.259	36242.39
537.46	35683.3
537.66	35322.85
537.861	34909.16
538.062	34325.49
538.263	33733.63
538.463	33410.05
538.664	33317.89
538.865	32703.5
539.065	32269.33
539.266	31747.1
539.466	31558.69
539.667	30778.41
539.868	31063.08
540.068	30364.72
540.269	30225.46
540.469	29969.46
540.67	29410.37
540.87	28898.38
541.071	28744.78
541.271	28425.29
541.472	28249.17
541.672	27565.15
541.873	27296.86
542.073	26778.73
542.274	26973.28
542.474	26641.51
542.675	26109.04
542.875	26119.28
543.075	25500.79
543.276	24872.07
543.476	25037.95
543.676	24732.81
543.877	24665.22
544.077	24091.79
544.277	23993.49
544.478	23624.86
544.678	23475.35
544.878	23192.73
545.078	23114.91
545.279	22695.08
545.479	22377.64
545.679	22334.64
545.879	21847.22
546.079	21378.23
546.28	21558.46
546.48	20747.46
546.68	21185.72
546.88	20626.63
547.08	20589.77
547.28	20094.16
547.48	19829.97
547.68	19569.88
547.88	19477.72
548.081	19334.36
548.281	18742.5
548.481	18953.44
548.681	18674.92
548.881	18375.91
549.081	18068.72
549.28	17532.15
549.48	17560.82
549.68	17386.74
549.88	17564.92
550.08	16979.2
550.28	16981.24
550.48	16594.18
550.68	16690.43
550.88	16047.37
551.08	15987.98
551.279	15940.88
551.479	15373.59
551.679	15183.13
551.879	14865.69
552.079	14634.27
552.278	14607.65
552.478	14515.49
552.678	14187.82
552.878	14036.27
553.077	13681.97
553.277	13274.42
553.477	13511.99
553.676	13110.58
553.876	12932.41
554.076	12795.2
554.275	12547.39
554.475	12195.14
554.674	12102.98
554.874	12037.45
555.074	11609.42
555.273	11607.37
555.473	11416.91
555.672	11062.62
555.872	11119.96
556.071	10814.81
556.271	10866.01
556.47	10343.78
556.67	10364.26
556.869	10106.21
557.068	10181.99
557.268	9889.13
557.467	9682.28
557.667	9710.96
557.866	9342.32
558.065	9459.06
558.265	9178.48
558.464	8803.71
558.663	8852.86
558.863	8732.03
559.062	8553.85
559.261	8347.01
559.461	8482.17
559.66	8174.98
559.859	7953.8
560.058	7642.51
560.258	7658.89
560.457	7544.2
560.656	7607.69
560.855	7396.75
561.054	7493.01
561.253	7173.52
561.453	7155.09
561.652	6841.75
561.851	6897.05
562.05	6727.07
562.249	6575.52
562.448	6561.18
562.647	6454.69
562.846	6378.91
563.045	6231.46
563.244	6284.7
563.443	6266.27
563.642	5770.66
563.841	5940.65
564.04	5848.49
564.239	5676.46
564.438	5567.92
564.637	5404.08
564.836	5479.85
565.035	5416.37
565.234	5365.17
565.432	5211.57
565.631	5359.02
565.83	5098.93
566.029	4986.29
566.228	5023.16
566.427	4986.29
566.625	4697.53
566.824	4679.1
567.023	4773.3
567.222	4593.08
567.42	4457.92
567.619	4527.55
567.818	4490.68
568.016	4588.99
568.215	4416.96
568.414	4349.37
568.612	4210.11
568.811	4025.79
569.01	4074.95
569.208	4068.8
569.407	3993.03
569.605	4107.71
569.804	3782.09
570.002	3851.72
570.201	3651.02
570.4	3790.28
570.598	3548.62
570.797	3749.32
570.995	3452.36
571.193	3489.23
571.392	3444.17
571.59	3266
571.789	3493.32
571.987	3417.55
572.186	3380.68
572.384	3175.89
572.582	3022.29
572.781	3251.66
572.979	3010
573.177	3057.11
573.376	2907.6
573.574	2948.56
573.772	2893.27
573.971	2713.05
574.169	2741.72
574.367	2858.45
574.565	2608.6
574.763	2670.04
574.962	2647.51
575.16	2657.75
575.358	2547.16
575.556	2508.25
575.754	2575.83
575.952	2381.28
576.151	2446.81
576.349	2377.18
576.547	2307.55
576.745	2444.76
576.943	2346.46
577.141	2219.49
577.339	2053.6
577.537	2119.14
577.735	2176.48
577.933	2164.19
578.131	2049.5
578.329	2104.8
578.527	1881.57
578.725	2045.41
578.923	1811.94
579.121	2041.31
579.319	1730.02
579.516	1834.47
579.714	1977.83
579.912	1783.27
580.11	1652.2
580.308	1699.3
580.506	1680.87
580.704	1588.71
580.901	1621.48
581.099	1789.41
581.297	1619.43
581.495	1527.27
581.692	1529.32
581.89	1707.49
582.088	1502.7
582.285	1449.45
582.483	1357.29
582.681	1400.3
582.878	1375.72
583.076	1367.53
583.274	1453.55
583.471	1537.51
583.669	1283.56
583.866	1234.41
584.064	1306.09
584.262	1238.51
584.459	1144.3
584.657	1199.6
584.854	1332.72
585.052	1244.65
585.249	1164.78
585.447	1281.52
585.644	1086.96
585.841	1304.04
586.039	1269.23
586.236	1134.06
586.434	978.42
586.631	1123.82
586.828	1015.28
587.026	1054.19
587.223	980.47
587.42	943.6
587.618	1132.01
587.815	1052.14
588.012	1009.14
588.21	968.18
588.407	998.9
588.604	947.7
588.801	927.22
588.999	984.56
589.196	990.7
589.393	955.89
589.59	962.03
589.787	921.07
589.984	951.79
590.182	835.06
590.379	794.1
590.576	888.31
590.773	833.01
590.97	871.92
591.167	919.03
591.364	888.31
591.561	812.53
591.758	888.31
591.955	933.36
592.152	763.38
592.349	761.33
592.546	796.15
592.743	802.29
592.94	843.25
593.137	810.48
593.334	968.18
593.531	865.78
593.727	959.99
593.924	890.35
594.121	816.63
594.318	732.66
594.515	943.6
594.712	945.65
594.908	1043.95
595.105	792.05
595.302	888.31
595.499	1021.42
595.696	1078.77
595.892	855.54
596.089	1138.16
596.286	988.66
596.482	1148.4
596.679	1033.71
596.876	943.6
597.072	1138.16
597.269	1072.62
597.466	1076.72
597.662	1103.34
597.859	1134.06
598.055	1191.41
598.252	1170.93
598.448	1295.85
598.645	1406.44
598.841	1498.6
599.038	1469.93
599.234	1496.55
599.431	1639.91
599.627	1605.1
599.824	1711.59
600.02	1693.16
600.217	1746.41
600.413	1861.09
600.609	1988.07
600.806	2293.21
601.002	2067.94
601.198	2039.26
601.395	2262.49
601.591	2313.69
601.787	2422.24
601.984	2479.58
602.18	2602.46
602.376	2684.38
602.572	2817.49
602.769	2985.43
602.965	2905.56
603.161	3116.5
603.357	3085.78
603.553	3419.6
603.75	3378.64
603.946	3372.49
604.142	3587.53
604.338	3833.29
604.534	3747.27
604.73	3988.93
604.926	4060.61
605.122	4332.99
605.318	4437.44
605.514	4490.68
605.71	4611.51
605.906	4832.69
606.102	4812.21
606.298	5041.59
606.494	5301.68
606.69	5361.07
606.886	5508.52
607.082	5502.38
607.278	5854.63
607.474	6036.9
607.67	6247.84
607.866	6284.7
608.062	6679.96
608.257	6679.96
608.453	6837.66
608.649	7202.19
608.845	7294.35
609.041	7382.42
609.236	7703.95
609.432	7902.6
609.628	8234.37
609.824	8338.82
610.019	8533.37
610.215	8557.95
610.411	9074.04
610.606	9237.88
610.802	9493.87
610.998	9786.73
611.193	10098.02
611.389	10282.34
611.584	10470.75
611.78	10808.67
611.976	11033.94
612.171	11466.07
612.367	11797.84
612.562	11935.05
612.758	12131.65
612.953	12404.03
613.149	12854.59
613.344	13149.5
613.539	13698.35
613.735	14118.18
613.93	14265.64
614.126	14583.07
614.321	15125.79
614.517	15574.29
614.712	15633.68
614.907	16231.69
615.103	16751.87
615.298	16909.57
615.493	17554.68
615.688	17718.51
615.884	18799.84
616.079	18756.83
616.274	19483.86
616.47	19883.22
616.665	20188.36
616.86	20362.44
617.055	21230.78
617.25	21734.58
617.445	22570.15
617.641	22901.92
617.836	23334.04
618.031	23766.17
618.226	24550.54
618.421	25222.27
618.616	25992.31
618.811	25656.44
619.006	27085.92
619.201	27327.58
619.396	28326.99
619.591	28388.43
619.786	29611.07
619.981	29733.95
620.176	30444.59
620.371	31087.65
620.566	31695.9
620.761	32361.49
620.956	33405.95
621.151	33383.43
621.346	34540.53
621.541	34530.29
621.735	35855.32
621.93	36031.45
622.125	37088.2
622.32	37172.17
622.515	38046.65
622.709	38667.19
622.904	39451.56
623.099	40168.35
623.294	40952.72
623.488	41503.62
623.683	42009.47
623.878	42488.7
624.072	43596.65
624.267	43881.31
624.462	45026.13
624.656	45392.72
624.851	45824.84
625.046	46527.29
625.24	47170.35
625.435	47659.82
625.629	48691.99
625.824	49040.15
626.018	49879.81
626.213	49591.05
626.407	50801.4
626.602	51188.47
626.796	52044.52
626.991	52282.08
627.185	52845.27
627.38	52921.05
627.574	53009.11
627.768	53496.53
627.963	53439.18
628.157	53689.04
628.352	53945.03
628.546	53433.04
628.74	54901.43
628.935	54018.76
629.129	54350.53
629.323	53955.27
629.517	53478.1
629.712	53664.46
629.906	53015.26
630.1	52292.32
630.294	52388.58
630.489	51577.58
630.683	51485.42
630.877	50168.58
631.071	49218.32
631.265	49134.35
631.459	47913.76
631.653	46920.5
631.848	45884.23
632.042	45030.22
632.236	44223.33
632.43	42828.66
632.624	42083.2
632.818	40739.73
633.012	39205.8
633.206	38190.01
633.4	37475.27
633.594	36047.83
633.788	34630.64
633.982	33643.52
634.176	32588.81
634.369	31050.79
634.563	30069.81
634.757	28787.78
634.951	27757.66
635.145	26874.98
635.339	25764.98
635.533	24831.11
635.726	23817.36
635.92	22762.66
636.114	22172.85
636.308	20874.43
636.501	20161.74
636.695	19406.04
636.889	18427.11
637.083	17726.71
637.276	17335.54
637.47	16336.13
637.664	15772.94
637.857	15131.93
638.051	14628.13
638.244	13933.87
638.438	13155.64
638.632	12803.39
638.825	12281.16
639.019	11724.11
639.212	11316.56
639.406	11007.32
639.599	10483.04
639.793	10032.49
639.986	9401.71
640.18	9289.07
640.373	9080.18
640.567	8543.61
640.76	8533.37
640.954	8023.43
641.147	7554.44
641.34	7388.56
641.534	7175.57
641.727	7024.02
641.92	6722.97
642.114	6151.59
642.307	6184.35
642.5	6038.95
642.694	5600.68
642.887	5473.71
643.08	5311.92
643.273	5141.94
643.467	4675
643.66	4535.74
643.853	4507.07
644.046	4185.54
644.239	4107.71
644.432	3986.88
644.626	3743.17
644.819	3597.77
645.012	3524.04
645.205	3446.22
645.398	3411.4
645.591	3253.71
645.784	2979.28
645.977	2754.01
646.17	2792.92
646.363	2631.13
646.556	2547.16
646.749	2450.91
646.942	2389.47
647.135	2426.33
647.328	2135.52
647.521	2211.29
647.714	2067.94
647.907	2067.94
648.099	1920.48
648.292	1936.87
648.485	1805.8
648.678	1764.84
648.871	1723.88
649.064	1590.76
649.256	1521.13
649.449	1416.68
649.642	1338.86
649.835	1433.07
650.027	1211.89
650.22	1408.49
650.413	1117.68
650.605	1162.73
650.798	1089.01
650.991	1119.73
651.183	1072.62
651.376	1074.67
651.568	988.66
651.761	1037.81
651.954	984.56
652.146	847.35
652.339	851.44
652.531	912.88
652.724	718.33
652.916	722.42
653.109	695.8
653.301	808.44
653.494	658.93
653.686	675.32
653.879	763.38
654.071	734.71
654.263	601.59
654.456	665.08
654.648	708.09
654.84	574.97
655.033	488.95
655.225	607.73
655.417	425.47
655.61	624.12
655.802	626.17
655.994	558.58
656.186	407.03
656.379	570.87
656.571	466.42
656.763	433.66
656.955	433.66
657.148	310.78
657.34	482.81
657.532	437.75
657.724	435.71
657.916	380.41
658.108	439.8
658.3	382.46
658.492	445.95
658.684	288.25
658.876	429.56
659.068	275.96
659.26	228.86
659.452	251.39
659.644	370.17
659.836	345.59
660.028	335.35
660.22	263.68
660.412	261.63
660.604	321.02
660.796	341.5
660.988	388.6
661.18	312.83
661.372	292.35
661.563	214.52
661.755	206.33
661.947	249.34
662.139	228.86
662.331	177.66
662.522	202.24
662.714	126.46
662.906	118.27
663.097	226.81
663.289	153.09
663.481	120.32
663.673	157.18
663.864	181.76
664.056	308.73
664.247	136.7
664.439	296.44
664.631	204.28
664.822	271.87
665.014	181.76
665.205	79.36
665.397	173.57
665.588	144.89
665.78	173.57
665.971	241.15
666.163	148.99
666.354	224.76
666.546	159.23
666.737	138.75
666.929	118.27
667.12	202.24
667.311	263.68
667.503	114.17
667.694	255.48
667.885	173.57
668.077	271.87
668.268	128.51
668.459	124.41
668.651	204.28
668.842	116.22
669.033	122.37
669.224	26.11
669.416	316.92
669.607	126.46
669.798	69.12
669.989	312.83
670.18	95.74
670.371	175.61
670.563	28.16
670.754	245.24
670.945	144.89
671.136	261.63
671.327	-8.7
671.518	206.33
671.709	312.83
671.9	208.38
672.091	286.2
672.282	198.14
672.473	155.13
672.664	38.4
672.855	165.37
673.046	142.85
673.237	232.96
673.428	163.33
673.619	261.63
673.809	134.65
674	298.49
674.191	200.19
674.382	93.69
674.573	136.7
674.764	91.65
674.954	214.52
675.145	101.89
675.336	108.03
675.527	130.56
675.717	120.32
675.908	189.95
676.099	101.89
676.289	187.9
676.48	83.45
676.671	142.85
676.861	177.66
677.052	157.18
677.243	108.03
677.433	50.69
677.624	208.38
677.814	177.66
678.005	103.93
678.195	269.82
678.386	140.8
678.576	181.76
678.767	138.75
678.957	118.27
679.148	257.53
679.338	282.11
679.529	148.99
679.719	179.71
679.909	200.19
680.1	214.52
680.29	214.52
680.481	75.26
680.671	331.26
680.861	175.61
681.052	212.48
681.242	189.95
681.432	177.66
681.622	173.57
681.813	95.74
682.003	212.48
682.193	105.98
682.383	198.14
682.573	196.09
682.764	216.57
682.954	202.24
683.144	278.01
683.334	210.43
683.524	116.22
683.714	157.18
683.904	269.82
684.094	157.18
684.284	202.24
684.474	331.26
684.664	230.91
684.854	226.81
685.044	204.28
685.234	218.62
685.424	187.9
685.614	124.41
685.804	378.36
685.994	347.64
686.184	73.21
686.374	206.33
686.564	245.24
686.753	235
686.943	128.51
687.133	171.52
687.323	255.48
687.513	237.05
687.702	232.96
687.892	202.24
688.082	224.76
688.272	318.97
688.461	171.52
688.651	335.35
688.841	255.48
689.03	91.65
689.22	237.05
689.41	253.44
689.599	208.38
689.789	85.5
689.979	296.44
690.168	194.05
690.358	218.62
690.547	161.28
690.737	148.99
690.926	245.24
691.116	267.77
691.305	300.54
691.495	296.44
691.684	138.75
691.874	171.52
692.063	187.9
692.252	290.3
692.442	275.96
692.631	157.18
692.82	228.86
693.01	151.04
693.199	112.13
693.388	271.87
693.578	202.24
693.767	224.76
693.956	185.85
694.146	177.66
694.335	232.96
694.524	200.19
694.713	235
694.902	165.37
695.092	161.28
695.281	230.91
695.47	140.8
695.659	60.93
695.848	255.48
696.037	83.45
696.226	216.57
696.415	48.64
696.604	359.93
696.793	220.67
696.982	187.9
697.171	321.02
697.36	169.47
697.549	159.23
697.738	134.65
697.927	179.71
698.116	155.13
698.305	208.38
698.494	251.39
698.683	167.42
698.872	349.69
699.061	183.81
699.25	183.81
699.438	165.37
699.627	126.46
699.816	198.14
700.005	83.45
700.193	177.66
700.382	200.19
700.571	179.71
700.76	171.52
700.948	267.77
701.137	294.4
701.326	214.52
701.514	91.65
701.703	155.13
701.892	273.92
702.08	376.31
702.269	118.27
702.457	179.71
702.646	222.72
702.834	249.34
703.023	292.35
703.212	265.72
703.4	183.81
703.589	144.89
703.777	181.76
703.965	75.26
704.154	183.81
704.342	112.13
704.531	48.64
704.719	224.76
704.907	245.24
705.096	165.37
705.284	99.84
705.472	237.05
705.661	218.62
705.849	296.44
706.037	296.44
706.226	263.68
706.414	202.24
706.602	126.46
706.79	245.24
706.979	167.42
707.167	120.32
707.355	56.83
707.543	144.89
707.731	235
707.919	177.66
708.107	124.41
708.296	110.08
708.484	148.99
708.672	249.34
708.86	202.24
709.048	208.38
709.236	114.17
709.424	292.35
709.612	167.42
709.8	108.03
709.988	226.81
710.176	175.61
710.364	263.68
710.551	128.51
710.739	206.33
710.927	116.22
711.115	185.85
711.303	228.86
711.491	192
711.679	159.23
711.866	241.15
712.054	163.33
712.242	255.48
712.43	275.96
712.617	210.43
712.805	237.05
712.993	157.18
713.181	120.32
713.368	235
713.556	179.71
713.744	105.98
713.931	355.83
714.119	165.37
714.306	245.24
714.494	105.98
714.682	112.13
714.869	118.27
715.057	65.02
715.244	130.56
715.432	216.57
715.619	142.85
715.807	204.28
715.994	167.42
716.182	169.47
716.369	235
716.556	257.53
716.744	65.02
716.931	140.8
717.119	245.24
717.306	245.24
717.493	304.64
717.681	200.19
717.868	173.57
718.055	232.96
718.242	148.99
718.43	140.8
718.617	288.25
718.804	167.42
718.991	325.12
719.179	218.62
719.366	241.15
719.553	245.24
719.74	136.7
719.927	200.19
720.114	292.35
720.301	153.09
720.488	116.22
720.676	112.13
720.863	249.34
721.05	327.16
721.237	196.09
721.424	284.16
721.611	251.39
721.798	175.61
721.985	173.57
722.172	216.57
722.358	204.28
722.545	194.05
722.732	208.38
722.919	292.35
723.106	198.14
723.293	220.67
723.48	239.1
723.667	132.61
723.853	249.34
724.04	278.01
724.227	321.02
724.414	218.62
724.6	308.73
724.787	278.01
724.974	302.59
725.161	241.15
725.347	177.66
725.534	218.62
725.72	312.83
725.907	269.82
726.094	216.57
726.28	157.18
726.467	292.35
726.653	187.9
726.84	341.5
727.027	347.64
727.213	177.66
727.4	241.15
727.586	224.76
727.773	327.16
727.959	214.52
728.145	255.48
728.332	235
728.518	183.81
728.705	239.1
728.891	255.48
729.077	300.54
729.264	222.72
729.45	171.52
729.636	304.64
729.823	232.96
730.009	349.69
730.195	267.77
730.382	169.47
730.568	110.08
730.754	263.68
730.94	189.95
731.126	183.81
731.313	255.48
731.499	220.67
731.685	316.92
731.871	302.59
732.057	294.4
732.243	292.35
732.429	318.97
732.615	331.26
732.801	265.72
732.987	239.1
733.173	280.06
733.359	247.29
733.545	290.3
733.731	202.24
733.917	390.65
734.103	300.54
734.289	249.34
734.475	200.19
734.661	445.95
734.847	302.59
735.033	271.87
735.219	286.2
735.404	216.57
735.59	222.72
735.776	251.39
735.962	284.16
736.148	273.92
736.333	316.92
736.519	267.77
736.705	171.52
736.89	249.34
737.076	267.77
737.262	192
737.447	218.62
737.633	304.64
737.819	304.64
738.004	269.82
738.19	179.71
738.375	314.88
738.561	300.54
738.747	271.87
738.932	200.19
739.118	374.27
739.303	318.97
739.489	314.88
739.674	212.48
739.859	140.8
740.045	288.25
740.23	335.35
740.416	116.22
740.601	316.92
740.786	331.26
740.972	220.67
741.157	284.16
741.342	173.57
741.528	194.05
741.713	337.4
741.898	232.96
742.084	204.28
742.269	263.68
742.454	306.68
742.639	259.58
742.824	368.12
743.01	378.36
743.195	329.21
743.38	222.72
743.565	243.2
743.75	232.96
743.935	312.83
744.12	255.48
744.305	189.95
744.49	206.33
744.675	286.2
744.86	253.44
745.045	280.06
745.23	206.33
745.415	204.28
745.6	345.59
745.785	243.2
745.97	316.92
746.155	198.14
746.34	310.78
746.525	239.1
746.71	345.59
746.895	91.65
747.079	71.17
747.264	339.45
747.449	308.73
747.634	325.12
747.819	343.55
748.003	134.65
748.188	130.56
748.373	292.35
748.557	226.81
748.742	267.77
748.927	280.06
749.111	177.66
749.296	230.91
749.481	255.48
749.665	321.02
749.85	124.41
750.034	235
750.219	122.37
750.404	157.18
750.588	155.13
750.773	130.56
750.957	280.06
751.141	232.96
751.326	210.43
751.51	97.79
751.695	118.27
751.879	183.81
752.064	271.87
752.248	89.6
752.432	333.31
752.617	218.62
752.801	298.49
752.985	58.88
753.17	251.39
753.354	204.28
753.538	255.48
753.722	108.03
753.907	118.27
754.091	144.89
754.275	290.3
754.459	112.13
754.643	132.61
754.828	151.04
755.012	153.09
755.196	114.17
755.38	218.62
755.564	177.66
755.748	218.62
755.932	196.09
756.116	310.78
756.3	187.9
756.484	194.05
756.668	159.23
756.852	58.88
757.036	108.03
757.22	241.15
757.404	93.69
757.588	148.99
757.772	157.18
757.956	169.47
758.14	308.73
758.323	114.17
758.507	161.28
758.691	26.11
758.875	192
759.059	241.15
759.242	136.7
759.426	65.02
759.61	169.47
759.794	60.93
759.977	202.24
760.161	337.4
760.345	204.28
760.528	228.86
760.712	122.37
760.895	218.62
761.079	148.99
761.263	67.07
761.446	85.5
761.63	183.81
761.813	159.23
761.997	69.12
762.18	128.51
762.364	134.65
762.547	54.78
762.731	58.88
762.914	81.41
763.098	105.98
763.281	3.58
763.464	34.3
763.648	212.48
763.831	128.51
764.015	38.4
764.198	175.61
764.381	91.65
764.564	163.33
764.748	126.46
764.931	124.41
765.114	157.18
765.297	134.65
765.481	69.12
765.664	79.36
765.847	93.69
766.03	128.51
766.213	67.07
766.397	69.12
766.58	-16.9
766.763	112.13
766.946	11.78
767.129	79.36
767.312	54.78
767.495	65.02
767.678	173.57
767.861	136.7
768.044	91.65
768.227	46.59
768.41	105.98
768.593	83.45
768.776	114.17
768.959	101.89
769.142	138.75
769.324	17.92
769.507	110.08
769.69	58.88
769.873	79.36
770.056	280.06
770.239	79.36
770.421	206.33
770.604	112.13
770.787	228.86
770.97	126.46
771.152	34.3
771.335	105.98
771.518	-10.75
771.7	151.04
771.883	155.13
772.066	22.02
772.248	48.64
772.431	173.57
772.613	140.8
772.796	54.78
772.978	62.98
773.161	89.6
773.343	95.74
773.526	9.73
773.708	-57.86
773.891	34.3
774.073	69.12
774.256	54.78
774.438	263.68
774.621	-6.66
774.803	140.8
774.985	93.69
775.168	169.47
775.35	-10.75
775.532	87.55
775.715	-66.05
775.897	58.88
776.079	-27.14
776.261	99.84
776.444	-10.75
776.626	60.93
776.808	73.21
776.99	-0.51
777.173	36.35
777.355	30.21
777.537	32.26
777.719	46.59
777.901	22.02
778.083	40.45
778.265	17.92
778.447	142.85
778.629	67.07
778.811	73.21
778.993	124.41
779.175	91.65
779.357	24.06
779.539	-55.81
779.721	1.54
779.903	122.37
780.085	52.74
780.267	67.07
780.449	11.78
780.631	81.41
780.812	151.04
780.994	65.02
781.176	19.97
781.358	7.68
781.54	-2.56
781.721	103.93
781.903	67.07
782.085	9.73
782.267	116.22
782.448	-53.76
782.63	56.83
782.812	1.54
782.993	52.74
783.175	99.84
783.357	34.3
783.538	38.4
783.72	7.68
783.901	103.93
784.083	48.64
784.264	142.85
784.446	-117.25
784.627	-16.9
784.809	44.54
784.99	48.64
785.172	77.31
785.353	-31.23
785.535	93.69
785.716	-61.95
785.897	-70.14
786.079	-23.04
786.26	-33.28
786.441	44.54
786.623	-23.04
786.804	-64
786.985	13.82
787.167	28.16
787.348	77.31
787.529	36.35
787.71	108.03
787.891	-0.51
788.073	40.45
788.254	34.3
788.435	157.18
788.616	-27.14
788.797	-47.62
788.978	-4.61
789.159	9.73
789.34	138.75
789.522	91.65
789.703	5.63
789.884	17.92
790.065	11.78
790.246	140.8
790.427	-2.56
790.607	103.93
790.788	85.5
790.969	-29.18
791.15	28.16
791.331	-27.14
791.512	-6.66
791.693	-98.81
791.874	13.82
792.054	167.42
792.235	79.36
792.416	-76.29
792.597	-66.05
792.778	17.92
792.958	120.32
793.139	48.64
793.32	22.02
793.5	-96.77
793.681	146.94
793.862	71.17
794.042	26.11
794.223	-182.78
794.404	17.92
794.584	-72.19
794.765	30.21
794.945	-29.18
795.126	50.69
795.306	169.47
795.487	3.58
795.667	-29.18
795.848	34.3
796.028	15.87
796.209	-0.51
796.389	7.68
796.57	32.26
796.75	-92.67
796.93	-45.57
797.111	-16.9
797.291	-39.42
797.471	101.89
797.652	-45.57
797.832	-68.09
798.012	30.21
798.192	-16.9
798.373	-14.85
798.553	-0.51
798.733	60.93
798.913	-74.24
799.093	50.69
799.274	15.87
799.454	34.3
799.634	97.79
799.814	30.21
799.994	34.3
800.174	46.59
800.354	-8.7
800.534	-92.67
800.714	42.5
800.894	-80.38
801.074	-66.05
801.254	9.73
801.434	42.5
801.614	36.35
801.794	-70.14
801.974	1779.17
802.154	-45.57
802.334	17.92
802.514	-84.48
802.693	-16.9
802.873	-8.7
803.053	62.98
803.233	58.88
803.413	-14.85
803.592	-68.09
803.772	-25.09
803.952	40.45
804.131	-76.29
804.311	87.55
804.491	62.98
804.67	-55.81
804.85	-49.66
805.03	-27.14
805.209	83.45
805.389	13.82
805.568	-68.09
805.748	-39.42
805.928	-20.99
806.107	11.78
806.287	79.36
806.466	-2.56
806.646	-25.09
806.825	-47.62
807.004	-6.66
807.184	-2.56
807.363	91.65
807.543	15.87
807.722	-45.57
807.901	65.02
808.081	-25.09
808.26	-145.92
808.439	19.97
808.619	26.11
808.798	-74.24
808.977	-29.18
809.156	38.4
809.336	-39.42
809.515	91.65
809.694	-102.91
809.873	17.92
810.052	62.98
810.231	122.37
810.411	36.35
810.59	50.69
810.769	-10.75
810.948	-23.04
811.127	-98.81
811.306	-43.52
811.485	-33.28
811.664	128.51
811.843	-23.04
812.022	-4.61
812.201	-14.85
812.38	-39.42
812.559	17.92
812.737	-27.14
812.916	-51.71
813.095	-125.44
813.274	19.97
813.453	9.73
813.632	28.16
813.811	62.98
813.989	-90.62
814.168	-25.09
814.347	-166.4
814.526	9.73
814.704	181.76
814.883	126.46
815.062	-51.71
815.24	65.02
815.419	-53.76
815.598	-37.38
815.776	-109.05
815.955	-74.24
816.133	-129.53
816.312	-6.66
816.49	-49.66
816.669	17.92
816.847	-35.33
817.026	-82.43
817.204	-10.75
817.383	24.06
817.561	-111.1
817.74	-10.75
817.918	-55.81
818.097	-64
818.275	-141.82
818.453	89.6
818.632	32.26
818.81	-98.81
818.988	-115.2
819.167	-29.18
819.345	-53.76
819.523	1.54
819.701	3.58
819.879	-27.14
820.058	-0.51
820.236	34.3
820.414	-68.09
820.592	-98.81
820.77	-31.23
820.948	-80.38
821.127	-59.9
821.305	15.87
821.483	-90.62
821.661	65.02
821.839	46.59
822.017	-152.06
822.195	-4.61
822.373	34.3
822.551	1.54
822.729	28.16
822.907	-27.14
823.085	-29.18
823.262	5.63
823.44	-115.2
823.618	-35.33
823.796	-80.38
823.974	-2.56
824.152	-33.28
824.329	-39.42
824.507	79.36
824.685	87.55
824.863	-45.57
825.04	17.92
825.218	11.78
825.396	-18.94
825.574	-35.33
825.751	15.87
825.929	11.78
826.107	-51.71
826.284	46.59
826.462	19.97
826.639	-45.57
826.817	-57.86
826.994	3.58
827.172	-109.05
827.349	91.65
827.527	7.68
827.704	26.11
827.882	126.46
828.059	-66.05
828.237	3.58
828.414	32.26
828.591	-117.25
828.769	-72.19
828.946	-68.09
829.124	32.26
829.301	108.03
829.478	-55.81
829.655	9.73
829.833	-20.99
830.01	-78.33
830.187	-31.23
830.364	-66.05
830.542	7.68
830.719	75.26
830.896	97.79
831.073	-18.94
831.25	71.17
831.427	34.3
831.604	-41.47
831.782	44.54
831.959	48.64
832.136	-10.75
832.313	-31.23
832.49	-125.44
832.667	17.92
832.844	-39.42
833.021	60.93
833.198	-33.28
833.374	5.63
833.551	-14.85
833.728	-47.62
833.905	85.5
834.082	-117.25
834.259	9.73
834.436	93.69
834.612	-23.04
834.789	9.73
834.966	-12.8
835.143	9.73
835.319	-86.53
835.496	42.5
835.673	22.02
835.85	124.41
836.026	52.74
836.203	-25.09
836.38	-113.15
836.556	-47.62
836.733	-82.43
836.909	89.6
837.086	-74.24
837.262	-129.53
837.439	-115.2
837.616	-53.76
837.792	24.06
837.968	-4.61
838.145	-178.69
838.321	-78.33
838.498	-16.9
838.674	48.64
838.851	50.69
839.027	-31.23
839.203	-59.9
839.38	60.93
839.556	-92.67
839.732	-2.56
839.909	-53.76
840.085	26.11
840.261	-39.42
840.437	-51.71
840.614	-20.99
840.79	48.64
840.966	62.98
841.142	-29.18
841.318	-47.62
841.494	-20.99
841.671	46.59
841.847	-68.09
842.023	-84.48
842.199	46.59
842.375	83.45
842.551	-109.05
842.727	-104.96
842.903	192
843.079	-64
843.255	26.11
843.431	-72.19
843.607	52.74
843.783	-180.73
843.959	-33.28
844.134	-131.58
844.31	48.64
844.486	-88.57
844.662	-94.72
844.838	-37.38
845.013	-16.9
845.189	58.88
845.365	-31.23
845.541	-12.8
845.716	-72.19
845.892	75.26
846.068	-113.15
846.244	-76.29
846.419	13.82
846.595	-98.81
846.77	-117.25
846.946	60.93
847.122	-86.53
847.297	-76.29
847.473	69.12
847.648	-111.1
847.824	17.92
847.999	-125.44
848.175	-80.38
848.35	22.02
848.526	138.75
848.701	32.26
848.876	58.88
849.052	71.17
849.227	-27.14
849.403	-18.94
849.578	-6.66
849.753	-35.33
849.929	-20.99
850.104	-59.9
850.279	-31.23
850.454	-12.8
850.63	54.78
850.805	69.12
850.98	44.54
851.155	13.82
851.33	3.58
851.505	-76.29
851.681	101.89
851.856	-53.76
852.031	-8.7
852.206	73.21
852.381	-72.19
852.556	-10.75
852.731	-55.81
852.906	-57.86
853.081	-23.04
853.256	157.18
853.431	-96.77
853.606	-43.52
853.781	-29.18
853.956	-186.88
854.131	15.87
854.305	-51.71
854.48	-12.8
854.655	-135.68
854.83	-109.05
855.005	36.35
855.18	46.59
855.354	-2.56
855.529	62.98
855.704	-47.62
855.879	34.3
856.053	-57.86
856.228	-37.38
856.403	-113.15
856.577	79.36
856.752	-117.25
856.926	-70.14
857.101	1.54
857.276	-51.71
857.45	-66.05
857.625	-31.23
857.799	75.26
857.974	-55.81
858.148	-92.67
858.323	17.92
858.497	5.63
858.672	-35.33
858.846	-94.72
859.02	40.45
859.195	-178.69
859.369	-76.29
859.543	-43.52
859.718	-35.33
859.892	-18.94
860.066	77.31
860.241	-98.81
860.415	-39.42
860.589	-27.14
860.763	54.78
860.938	-125.44
861.112	-4.61
861.286	-51.71
861.46	-12.8
861.634	-72.19
861.808	-0.51
861.982	-129.53
862.157	-98.81
862.331	-86.53
862.505	-51.71
862.679	-70.14
862.853	-39.42
863.027	-41.47
863.201	79.36
863.375	-59.9
863.549	-0.51
863.722	38.4
863.896	50.69
864.07	-2.56
864.244	9.73
864.418	83.45
864.592	-16.9
864.766	38.4
864.939	-14.85
865.113	-35.33
865.287	58.88
865.461	-94.72
865.634	54.78
865.808	-14.85
865.982	15.87
866.156	-104.96
866.329	-86.53
866.503	-6.66
866.676	-2.56
866.85	-12.8
867.024	-66.05
867.197	42.5
867.371	-20.99
867.544	-27.14
867.718	-55.81
867.891	67.07
868.065	-117.25
868.238	9.73
868.412	42.5
868.585	1.54
868.759	-115.2
868.932	-74.24
869.105	-82.43
869.279	9.73
869.452	-125.44
869.625	-10.75
869.799	28.16
869.972	-123.39
870.145	-4.61
870.319	28.16
870.492	-29.18
870.665	-113.15
870.838	-98.81
871.011	-201.21
871.185	-59.9
871.358	-104.96
871.531	17.92
871.704	-96.77
871.877	-10.75
872.05	-123.39
872.223	-162.3
872.396	28.16
872.569	42.5
872.742	-66.05
872.915	58.88
873.088	-53.76
873.261	-90.62
873.434	60.93
873.607	19.97
873.78	-2.56
873.953	-107.01
874.126	-0.51
874.299	-61.95
874.471	-35.33
874.644	-55.81
874.817	44.54
874.99	103.93
875.163	-100.86
875.335	1.54
875.508	-59.9
875.681	44.54
875.853	-35.33
876.026	-29.18
876.199	50.69
876.371	-31.23
876.544	-109.05
876.717	-27.14
876.889	-37.38
877.062	9.73
877.234	-123.39
877.407	-96.77
877.579	13.82
877.752	-16.9
877.924	108.03
878.097	46.59
878.269	-14.85
878.442	11.78
878.614	-53.76
878.786	-27.14
878.959	-57.86
879.131	-37.38
879.303	-111.1
879.476	-127.49
879.648	34.3
879.82	-47.62
879.993	-41.47
880.165	-98.81
880.337	-59.9
880.509	-39.42
880.681	-152.06
880.854	-43.52
881.026	24.06
881.198	103.93
881.37	-10.75
881.542	-164.35
881.714	-25.09
881.886	-88.57
882.058	-16.9
882.23	34.3
882.402	-16.9
882.574	28.16
882.746	67.07
882.918	114.17
883.09	54.78
883.262	-16.9
883.434	-8.7
883.606	-76.29
883.778	-20.99
883.95	89.6
884.122	-74.24
884.293	5.63
884.465	-53.76
884.637	40.45
884.809	-76.29
884.98	-20.99
885.152	-8.7
885.324	54.78
885.496	-57.86
885.667	-90.62
885.839	-12.8
886.011	1.54
886.182	40.45
886.354	58.88
886.525	44.54
886.697	-61.95
886.869	-64
887.04	5.63
887.212	30.21
887.383	181.76
887.555	46.59
887.726	-43.52
887.897	-47.62
888.069	28.16
888.24	17.92
888.412	62.98
888.583	-49.66
888.754	1.54
888.926	-90.62
889.097	-61.95
889.268	-100.86
889.44	30.21
889.611	-127.49
889.782	-96.77
889.953	-84.48
890.125	24.06
890.296	-205.31
890.467	-47.62
890.638	-37.38
890.809	-80.38
890.98	-98.81
891.151	36.35
891.323	112.13
891.494	28.16
891.665	30.21
891.836	67.07
892.007	34.3
892.178	-16.9
892.349	-125.44
892.52	-174.59
892.691	-72.19
892.862	-64
893.032	-158.21
893.203	-51.71
893.374	-133.63
893.545	89.6
893.716	-109.05
893.887	-18.94
894.057	-47.62
894.228	-51.71
894.399	-70.14
894.57	-6.66
894.74	-55.81
894.911	19.97
895.082	-37.38
895.253	-57.86
895.423	28.16
895.594	17.92
895.764	54.78
895.935	-80.38
896.106	24.06
896.276	-27.14
896.447	-16.9
896.617	-64
896.788	-104.96
896.958	-49.66
897.129	-80.38
897.299	-20.99
897.47	52.74
897.64	79.36
897.81	-20.99
897.981	71.17
898.151	-2.56
898.322	17.92
898.492	54.78
898.662	-72.19
898.832	-113.15
899.003	-70.14
899.173	93.69
899.343	-23.04
899.513	-98.81
