Data from USB4F104151__30__10-42-27-982.txt Node

Date: Wed Feb 26 10:42:27 EST 2025
User: louis
Spectrometer: USB4F10415
Trigger mode: 4
Integration Time (sec): 1.000000E-1
Scans to average: 1
Electric dark correction enabled: true
Nonlinearity correction enabled: false
Boxcar width: 0
XAxis mode: Wavelengths
Number of Pixels in Spectrum: 3648
>>>>>Begin Spectral Data<<<<<
178.204	-390.65
178.424	-390.65
178.644	-390.65
178.864	-355.83
179.084	-398.84
179.304	-38.4
179.524	-22.02
179.744	2.56
179.964	43.52
180.184	31.23
180.404	82.43
180.624	-48.64
180.844	27.14
181.064	-48.64
181.283	33.28
181.503	-50.69
181.723	-11.78
181.943	-58.88
182.163	174.59
182.383	-34.3
182.602	74.24
182.822	170.49
183.042	29.18
183.262	-42.5
183.482	37.38
183.701	39.42
183.921	84.48
184.141	-9.73
184.361	145.92
184.58	115.2
184.8	51.71
185.02	37.38
185.239	113.15
185.459	139.77
185.679	190.97
185.898	-26.11
186.118	86.53
186.338	74.24
186.557	131.58
186.777	-50.69
186.997	37.38
187.216	20.99
187.436	211.45
187.655	80.38
187.875	117.25
188.095	82.43
188.314	209.4
188.534	143.87
188.753	-91.65
188.973	180.73
189.192	182.78
189.412	47.62
189.631	61.95
189.851	117.25
190.07	170.49
190.29	-52.74
190.509	33.28
190.729	8.7
190.948	160.25
191.168	211.45
191.387	102.91
191.607	66.05
191.826	121.34
192.045	-1.54
192.265	92.67
192.484	129.53
192.704	39.42
192.923	-99.84
193.142	117.25
193.362	98.81
193.581	221.69
193.8	123.39
194.02	68.09
194.239	51.71
194.458	-11.78
194.678	8.7
194.897	-40.45
195.116	57.86
195.335	41.47
195.555	104.96
195.774	27.14
195.993	119.29
196.212	12.8
196.432	16.9
196.651	-1.54
196.87	45.57
197.089	254.46
197.308	35.33
197.528	74.24
197.747	33.28
197.966	-1.54
198.185	129.53
198.404	27.14
198.623	127.49
198.842	123.39
199.062	51.71
199.281	164.35
199.5	80.38
199.719	107.01
199.938	51.71
200.157	100.86
200.376	129.53
200.595	107.01
200.814	31.23
201.033	25.09
201.252	195.07
201.471	31.23
201.69	88.57
201.909	14.85
202.128	121.34
202.347	129.53
202.566	102.91
202.785	-22.02
203.004	-50.69
203.223	260.6
203.442	94.72
203.661	-22.02
203.879	92.67
204.098	96.77
204.317	-50.69
204.536	154.11
204.755	133.63
204.974	55.81
205.193	84.48
205.411	150.01
205.63	4.61
205.849	135.68
206.068	133.63
206.287	-9.73
206.505	121.34
206.724	6.66
206.943	10.75
207.162	-42.5
207.381	133.63
207.599	12.8
207.818	59.9
208.037	51.71
208.255	18.94
208.474	96.77
208.693	90.62
208.911	59.9
209.13	111.1
209.349	96.77
209.567	41.47
209.786	33.28
210.005	51.71
210.223	51.71
210.442	-34.3
210.661	41.47
210.879	2.56
211.098	125.44
211.316	-36.35
211.535	113.15
211.753	109.05
211.972	102.91
212.191	57.86
212.409	-26.11
212.628	49.66
212.846	-15.87
213.065	125.44
213.283	80.38
213.502	20.99
213.72	88.57
213.938	6.66
214.157	49.66
214.375	86.53
214.594	-7.68
214.812	57.86
215.031	86.53
215.249	102.91
215.467	80.38
215.686	84.48
215.904	107.01
216.122	0.51
216.341	209.4
216.559	119.29
216.778	129.53
216.996	137.73
217.214	68.09
217.432	-13.82
217.651	-81.41
217.869	4.61
218.087	31.23
218.306	70.14
218.524	-5.63
218.742	84.48
218.96	119.29
219.179	57.86
219.397	104.96
219.615	158.21
219.833	94.72
220.051	-46.59
220.27	98.81
220.488	174.59
220.706	125.44
220.924	61.95
221.142	10.75
221.36	98.81
221.578	166.4
221.796	-5.63
222.015	84.48
222.233	25.09
222.451	152.06
222.669	-34.3
222.887	76.29
223.105	25.09
223.323	68.09
223.541	-24.06
223.759	31.23
223.977	78.33
224.195	313.85
224.413	96.77
224.631	98.81
224.849	59.9
225.067	231.93
225.285	-40.45
225.503	-11.78
225.721	-62.98
225.939	59.9
226.157	92.67
226.375	229.88
226.592	8.7
226.81	195.07
227.028	107.01
227.246	193.02
227.464	74.24
227.682	80.38
227.9	139.77
228.117	133.63
228.335	115.2
228.553	-1.54
228.771	51.71
228.989	82.43
229.206	55.81
229.424	-5.63
229.642	70.14
229.86	8.7
230.077	129.53
230.295	16.9
230.513	174.59
230.731	82.43
230.948	137.73
231.166	160.25
231.384	-22.02
231.601	-52.74
231.819	209.4
232.037	72.19
232.254	-24.06
232.472	41.47
232.689	47.62
232.907	119.29
233.125	25.09
233.342	-19.97
233.56	72.19
233.777	47.62
233.995	39.42
234.213	158.21
234.43	137.73
234.648	25.09
234.865	20.99
235.083	43.52
235.3	80.38
235.518	57.86
235.735	107.01
235.953	61.95
236.17	104.96
236.388	55.81
236.605	74.24
236.822	188.93
237.04	107.01
237.257	117.25
237.475	-30.21
237.692	51.71
237.909	96.77
238.127	61.95
238.344	90.62
238.562	39.42
238.779	-13.82
238.996	-32.26
239.214	96.77
239.431	80.38
239.648	111.1
239.865	76.29
240.083	66.05
240.3	-15.87
240.517	64
240.735	33.28
240.952	205.31
241.169	4.61
241.386	45.57
241.603	2.56
241.821	-50.69
242.038	109.05
242.255	80.38
242.472	-89.6
242.689	115.2
242.907	78.33
243.124	74.24
243.341	-56.83
243.558	2.56
243.775	16.9
243.992	-112.13
244.209	100.86
244.426	244.22
244.643	59.9
244.86	111.1
245.078	12.8
245.295	43.52
245.512	23.04
245.729	12.8
245.946	70.14
246.163	119.29
246.38	-7.68
246.597	59.9
246.814	10.75
247.031	14.85
247.248	8.7
247.464	119.29
247.681	86.53
247.898	18.94
248.115	14.85
248.332	14.85
248.549	156.16
248.766	43.52
248.983	55.81
249.2	113.15
249.417	129.53
249.633	20.99
249.85	115.2
250.067	72.19
250.284	25.09
250.501	96.77
250.717	88.57
250.934	-46.59
251.151	111.1
251.368	51.71
251.585	-1.54
251.801	111.1
252.018	10.75
252.235	147.97
252.451	-120.32
252.668	-36.35
252.885	64
253.102	35.33
253.318	2.56
253.535	57.86
253.752	68.09
253.968	51.71
254.185	-26.11
254.401	84.48
254.618	150.01
254.835	76.29
255.051	123.39
255.268	100.86
255.484	-1.54
255.701	66.05
255.917	174.59
256.134	55.81
256.351	70.14
256.567	-60.93
256.784	68.09
257	-67.07
257.217	178.69
257.433	174.59
257.65	41.47
257.866	150.01
258.082	-34.3
258.299	-13.82
258.515	29.18
258.732	-9.73
258.948	47.62
259.165	82.43
259.381	-46.59
259.597	68.09
259.814	104.96
260.03	55.81
260.246	-44.54
260.463	121.34
260.679	141.82
260.895	109.05
261.112	96.77
261.328	96.77
261.544	-22.02
261.761	205.31
261.977	18.94
262.193	-30.21
262.409	182.78
262.626	111.1
262.842	45.57
263.058	4.61
263.274	88.57
263.49	78.33
263.707	109.05
263.923	115.2
264.139	-42.5
264.355	59.9
264.571	143.87
264.787	51.71
265.004	127.49
265.22	33.28
265.436	27.14
265.652	33.28
265.868	92.67
266.084	-52.74
266.3	-9.73
266.516	20.99
266.732	68.09
266.948	14.85
267.164	-30.21
267.38	98.81
267.596	100.86
267.812	207.36
268.028	49.66
268.244	8.7
268.46	64
268.676	27.14
268.892	90.62
269.108	-7.68
269.324	10.75
269.54	-52.74
269.756	137.73
269.972	-54.78
270.188	57.86
270.403	-7.68
270.619	20.99
270.835	127.49
271.051	8.7
271.267	33.28
271.483	-24.06
271.698	104.96
271.914	64
272.13	92.67
272.346	49.66
272.562	74.24
272.777	248.32
272.993	121.34
273.209	-26.11
273.425	98.81
273.64	-65.02
273.856	86.53
274.072	4.61
274.287	23.04
274.503	90.62
274.719	82.43
274.934	43.52
275.15	29.18
275.366	66.05
275.581	-34.3
275.797	-15.87
276.012	41.47
276.228	0.51
276.444	-28.16
276.659	170.49
276.875	-13.82
277.09	-11.78
277.306	16.9
277.521	74.24
277.737	-5.63
277.952	57.86
278.168	76.29
278.383	49.66
278.599	80.38
278.814	80.38
279.03	82.43
279.245	90.62
279.461	82.43
279.676	119.29
279.892	-60.93
280.107	-22.02
280.322	39.42
280.538	82.43
280.753	33.28
280.969	109.05
281.184	84.48
281.399	135.68
281.615	31.23
281.83	76.29
282.045	-54.78
282.26	98.81
282.476	51.71
282.691	74.24
282.906	-1.54
283.122	18.94
283.337	-3.58
283.552	133.63
283.767	76.29
283.983	96.77
284.198	66.05
284.413	115.2
284.628	25.09
284.843	57.86
285.058	90.62
285.274	51.71
285.489	-103.93
285.704	150.01
285.919	61.95
286.134	27.14
286.349	14.85
286.564	84.48
286.779	174.59
286.995	35.33
287.21	12.8
287.425	47.62
287.64	-22.02
287.855	51.71
288.07	-9.73
288.285	137.73
288.5	125.44
288.715	10.75
288.93	35.33
289.145	-15.87
289.36	145.92
289.575	-13.82
289.79	127.49
290.004	-13.82
290.219	117.25
290.434	68.09
290.649	-26.11
290.864	18.94
291.079	72.19
291.294	74.24
291.509	4.61
291.724	33.28
291.938	31.23
292.153	154.11
292.368	-3.58
292.583	51.71
292.798	84.48
293.012	68.09
293.227	109.05
293.442	35.33
293.657	156.16
293.871	188.93
294.086	125.44
294.301	162.3
294.516	211.45
294.73	107.01
294.945	-32.26
295.16	-5.63
295.374	180.73
295.589	109.05
295.804	-28.16
296.018	92.67
296.233	162.3
296.447	119.29
296.662	16.9
296.877	158.21
297.091	131.58
297.306	45.57
297.52	80.38
297.735	115.2
297.949	31.23
298.164	14.85
298.378	47.62
298.593	-50.69
298.807	-44.54
299.022	6.66
299.236	176.64
299.451	33.28
299.665	18.94
299.88	20.99
300.094	74.24
300.309	47.62
300.523	57.86
300.737	-36.35
300.952	133.63
301.166	111.1
301.381	-3.58
301.595	64
301.809	49.66
302.024	6.66
302.238	66.05
302.452	182.78
302.667	45.57
302.881	152.06
303.095	199.16
303.309	43.52
303.524	53.76
303.738	37.38
303.952	39.42
304.166	88.57
304.381	-146.94
304.595	131.58
304.809	16.9
305.023	80.38
305.237	29.18
305.452	64
305.666	66.05
305.88	100.86
306.094	156.16
306.308	100.86
306.522	107.01
306.736	59.9
306.95	195.07
307.164	49.66
307.379	16.9
307.593	117.25
307.807	92.67
308.021	43.52
308.235	78.33
308.449	-56.83
308.663	66.05
308.877	279.04
309.091	-1.54
309.305	123.39
309.519	-138.75
309.733	137.73
309.947	-81.41
310.161	129.53
310.374	80.38
310.588	164.35
310.802	-58.88
311.016	16.9
311.23	98.81
311.444	31.23
311.658	18.94
311.872	180.73
312.085	127.49
312.299	117.25
312.513	84.48
312.727	-1.54
312.941	27.14
313.154	53.76
313.368	72.19
313.582	104.96
313.796	166.4
314.009	61.95
314.223	113.15
314.437	2.56
314.651	20.99
314.864	-24.06
315.078	107.01
315.292	-30.21
315.505	51.71
315.719	51.71
315.933	49.66
316.146	51.71
316.36	-24.06
316.573	102.91
316.787	70.14
317.001	80.38
317.214	-46.59
317.428	57.86
317.641	-3.58
317.855	-28.16
318.068	72.19
318.282	41.47
318.495	107.01
318.709	182.78
318.922	29.18
319.136	154.11
319.349	139.77
319.563	27.14
319.776	141.82
319.99	27.14
320.203	164.35
320.417	-9.73
320.63	121.34
320.843	168.45
321.057	96.77
321.27	16.9
321.483	113.15
321.697	115.2
321.91	107.01
322.124	51.71
322.337	43.52
322.55	25.09
322.763	84.48
322.977	16.9
323.19	-26.11
323.403	41.47
323.617	10.75
323.83	129.53
324.043	80.38
324.256	68.09
324.469	-67.07
324.683	131.58
324.896	20.99
325.109	31.23
325.322	-85.5
325.535	119.29
325.748	74.24
325.962	43.52
326.175	49.66
326.388	-13.82
326.601	139.77
326.814	37.38
327.027	51.71
327.24	178.69
327.453	4.61
327.666	37.38
327.879	98.81
328.092	61.95
328.305	39.42
328.518	39.42
328.731	-17.92
328.944	78.33
329.157	61.95
329.37	-24.06
329.583	193.02
329.796	152.06
330.009	-89.6
330.222	102.91
330.435	147.97
330.648	-5.63
330.861	88.57
331.073	102.91
331.286	141.82
331.499	80.38
331.712	-58.88
331.925	41.47
332.138	45.57
332.35	104.96
332.563	-38.4
332.776	135.68
332.989	0.51
333.202	10.75
333.414	64
333.627	35.33
333.84	-22.02
334.053	-11.78
334.265	31.23
334.478	37.38
334.691	-32.26
334.903	53.76
335.116	57.86
335.329	18.94
335.541	150.01
335.754	150.01
335.966	66.05
336.179	10.75
336.392	76.29
336.604	68.09
336.817	123.39
337.029	68.09
337.242	12.8
337.454	64
337.667	-1.54
337.88	74.24
338.092	94.72
338.305	61.95
338.517	-7.68
338.729	76.29
338.942	162.3
339.154	2.56
339.367	49.66
339.579	170.49
339.792	-69.12
340.004	61.95
340.217	16.9
340.429	123.39
340.641	18.94
340.854	-15.87
341.066	64
341.278	31.23
341.491	223.74
341.703	27.14
341.915	18.94
342.128	107.01
342.34	70.14
342.552	18.94
342.764	121.34
342.977	16.9
343.189	29.18
343.401	90.62
343.613	-42.5
343.826	98.81
344.038	59.9
344.25	88.57
344.462	-30.21
344.674	23.04
344.886	72.19
345.099	166.4
345.311	111.1
345.523	86.53
345.735	-130.56
345.947	123.39
346.159	20.99
346.371	104.96
346.583	23.04
346.795	244.22
347.007	57.86
347.219	121.34
347.431	51.71
347.643	121.34
347.855	45.57
348.067	154.11
348.279	-56.83
348.491	107.01
348.703	78.33
348.915	10.75
349.127	64
349.339	51.71
349.551	-26.11
349.763	64
349.975	35.33
350.187	98.81
350.399	211.45
350.61	96.77
350.822	14.85
351.034	96.77
351.246	64
351.458	147.97
351.669	100.86
351.881	113.15
352.093	127.49
352.305	117.25
352.517	180.73
352.728	100.86
352.94	119.29
353.152	86.53
353.363	20.99
353.575	98.81
353.787	174.59
353.999	70.14
354.21	164.35
354.422	41.47
354.633	8.7
354.845	18.94
355.057	66.05
355.268	-30.21
355.48	78.33
355.692	-34.3
355.903	90.62
356.115	-5.63
356.326	-36.35
356.538	172.54
356.749	76.29
356.961	125.44
357.172	4.61
357.384	-1.54
357.595	182.78
357.807	-15.87
358.018	-50.69
358.23	107.01
358.441	158.21
358.653	121.34
358.864	-19.97
359.075	-54.78
359.287	154.11
359.498	100.86
359.709	68.09
359.921	47.62
360.132	90.62
360.344	-46.59
360.555	-62.98
360.766	139.77
360.977	72.19
361.189	166.4
361.4	66.05
361.611	96.77
361.823	236.03
362.034	86.53
362.245	-65.02
362.456	74.24
362.667	143.87
362.879	4.61
363.09	51.71
363.301	80.38
363.512	51.71
363.723	23.04
363.935	45.57
364.146	129.53
364.357	12.8
364.568	102.91
364.779	-36.35
364.99	121.34
365.201	-50.69
365.412	139.77
365.623	-60.93
365.834	64
366.045	92.67
366.256	25.09
366.467	76.29
366.678	45.57
366.889	43.52
367.1	37.38
367.311	141.82
367.522	45.57
367.733	158.21
367.944	143.87
368.155	41.47
368.366	166.4
368.577	72.19
368.788	90.62
368.999	-75.26
369.209	29.18
369.42	147.97
369.631	221.69
369.842	84.48
370.053	76.29
370.264	121.34
370.474	-95.74
370.685	14.85
370.896	53.76
371.107	170.49
371.317	16.9
371.528	-69.12
371.739	141.82
371.95	66.05
372.16	111.1
372.371	-3.58
372.582	-50.69
372.792	176.64
373.003	35.33
373.214	74.24
373.424	51.71
373.635	-32.26
373.846	115.2
374.056	27.14
374.267	119.29
374.477	154.11
374.688	-3.58
374.898	119.29
375.109	-44.54
375.319	80.38
375.53	66.05
375.74	64
375.951	-24.06
376.161	59.9
376.372	133.63
376.582	25.09
376.793	84.48
377.003	29.18
377.214	43.52
377.424	137.73
377.635	80.38
377.845	-15.87
378.055	166.4
378.266	-40.45
378.476	70.14
378.686	31.23
378.897	80.38
379.107	147.97
379.317	72.19
379.528	12.8
379.738	188.93
379.948	49.66
380.158	74.24
380.369	113.15
380.579	111.1
380.789	64
380.999	78.33
381.21	127.49
381.42	172.54
381.63	86.53
381.84	55.81
382.05	160.25
382.261	219.64
382.471	113.15
382.681	8.7
382.891	182.78
383.101	125.44
383.311	41.47
383.521	37.38
383.731	121.34
383.941	160.25
384.151	-7.68
384.361	12.8
384.571	68.09
384.781	33.28
384.991	131.58
385.201	174.59
385.411	131.58
385.621	82.43
385.831	53.76
386.041	80.38
386.251	86.53
386.461	141.82
386.671	-3.58
386.881	55.81
387.091	14.85
387.301	104.96
387.511	66.05
387.72	119.29
387.93	20.99
388.14	-13.82
388.35	168.45
388.56	82.43
388.769	55.81
388.979	96.77
389.189	-26.11
389.399	-11.78
389.609	117.25
389.818	137.73
390.028	66.05
390.238	109.05
390.447	31.23
390.657	37.38
390.867	27.14
391.076	-34.3
391.286	-1.54
391.496	96.77
391.705	14.85
391.915	199.16
392.125	156.16
392.334	-11.78
392.544	139.77
392.753	25.09
392.963	-1.54
393.172	137.73
393.382	92.67
393.591	260.6
393.801	31.23
394.01	182.78
394.22	104.96
394.429	90.62
394.639	27.14
394.848	64
395.058	20.99
395.267	64
395.477	90.62
395.686	164.35
395.895	268.8
396.105	152.06
396.314	121.34
396.524	72.19
396.733	92.67
396.942	92.67
397.152	164.35
397.361	172.54
397.57	88.57
397.78	10.75
397.989	121.34
398.198	195.07
398.407	94.72
398.617	74.24
398.826	72.19
399.035	86.53
399.244	109.05
399.453	4.61
399.663	80.38
399.872	66.05
400.081	-13.82
400.29	123.39
400.499	47.62
400.708	90.62
400.917	68.09
401.127	51.71
401.336	37.38
401.545	205.31
401.754	174.59
401.963	113.15
402.172	41.47
402.381	-3.58
402.59	53.76
402.799	96.77
403.008	88.57
403.217	72.19
403.426	94.72
403.635	-62.98
403.844	94.72
404.053	45.57
404.262	10.75
404.471	244.22
404.68	61.95
404.888	55.81
405.097	39.42
405.306	121.34
405.515	129.53
405.724	94.72
405.933	178.69
406.142	123.39
406.35	113.15
406.559	137.73
406.768	111.1
406.977	190.97
407.185	96.77
407.394	90.62
407.603	-7.68
407.812	80.38
408.02	45.57
408.229	127.49
408.438	141.82
408.646	-50.69
408.855	68.09
409.064	137.73
409.272	158.21
409.481	158.21
409.69	143.87
409.898	-5.63
410.107	39.42
410.315	131.58
410.524	35.33
410.733	8.7
410.941	72.19
411.15	158.21
411.358	236.03
411.567	178.69
411.775	100.86
411.984	104.96
412.192	68.09
412.401	125.44
412.609	205.31
412.818	150.01
413.026	111.1
413.234	133.63
413.443	64
413.651	29.18
413.86	64
414.068	78.33
414.276	186.88
414.485	84.48
414.693	217.6
414.901	201.21
415.11	96.77
415.318	68.09
415.526	-9.73
415.734	119.29
415.943	82.43
416.151	182.78
416.359	70.14
416.567	109.05
416.776	154.11
416.984	64
417.192	242.17
417.4	33.28
417.608	18.94
417.817	37.38
418.025	109.05
418.233	115.2
418.441	-46.59
418.649	-85.5
418.857	127.49
419.065	170.49
419.273	61.95
419.481	94.72
419.689	29.18
419.897	-40.45
420.105	-13.82
420.313	141.82
420.521	223.74
420.729	160.25
420.937	10.75
421.145	45.57
421.353	117.25
421.561	133.63
421.769	131.58
421.977	78.33
422.185	111.1
422.393	51.71
422.601	190.97
422.809	156.16
423.017	47.62
423.224	172.54
423.432	133.63
423.64	57.86
423.848	143.87
424.056	-22.02
424.263	100.86
424.471	31.23
424.679	188.93
424.887	-38.4
425.094	160.25
425.302	172.54
425.51	111.1
425.718	141.82
425.925	117.25
426.133	39.42
426.341	199.16
426.548	98.81
426.756	35.33
426.964	174.59
427.171	39.42
427.379	78.33
427.586	55.81
427.794	143.87
428.001	64
428.209	70.14
428.417	248.32
428.624	180.73
428.832	125.44
429.039	66.05
429.247	88.57
429.454	174.59
429.662	264.7
429.869	219.64
430.076	145.92
430.284	176.64
430.491	270.84
430.699	180.73
430.906	256.51
431.114	172.54
431.321	100.86
431.528	111.1
431.736	188.93
431.943	201.21
432.15	211.45
432.358	285.18
432.565	244.22
432.772	66.05
432.979	330.23
433.187	236.03
433.394	227.84
433.601	193.02
433.808	395.77
434.016	326.14
434.223	340.47
434.43	262.65
434.637	365.05
434.844	414.2
435.052	332.28
435.259	299.52
435.466	336.38
435.673	291.32
435.88	406.01
436.087	442.87
436.294	385.53
436.501	461.3
436.708	383.48
436.915	399.87
437.122	500.22
437.329	342.52
437.537	475.64
437.743	381.43
437.95	539.13
438.157	539.13
438.364	418.3
438.571	520.7
438.778	584.18
438.985	543.22
439.192	569.85
439.399	596.47
439.606	580.09
439.813	637.43
440.02	715.25
440.227	836.08
440.433	651.77
440.64	729.59
440.847	647.67
441.054	731.64
441.261	891.38
441.467	801.27
441.674	797.17
441.881	909.81
442.088	864.75
442.294	1010.16
442.501	1012.21
442.708	1028.59
442.914	1044.98
443.121	1106.42
443.328	1178.09
443.534	1135.09
443.741	1239.53
443.948	1055.22
444.154	1300.97
444.361	1464.81
444.568	1257.96
444.774	1374.7
444.981	1335.79
445.187	1450.47
445.394	1468.91
445.6	1446.38
445.807	1690.09
446.013	1729
446.22	1716.71
446.426	1913.31
446.633	1874.4
446.839	2216.41
447.046	2089.44
447.252	2140.64
447.459	2071.01
447.665	2148.83
447.871	2284
448.078	2531.8
448.284	2607.58
448.491	2679.26
448.697	2609.62
448.903	3029.46
449.11	2965.97
449.316	2892.24
449.522	3199.44
449.728	3215.82
449.935	3307.98
450.141	3504.59
450.347	3588.55
450.553	3545.55
450.76	3703.24
450.966	3908.04
451.172	3897.8
451.378	4067.78
451.584	4272.57
451.791	4495.8
451.997	4587.96
452.203	4749.75
452.409	4962.74
452.615	5251.5
452.821	5136.82
453.027	5210.54
453.233	5800.36
453.44	5624.23
453.646	5986.72
453.852	6128.03
454.058	6381.98
454.264	6578.59
454.47	7010.71
454.676	6990.23
454.882	7717.26
455.088	7381.39
455.294	7774.6
455.5	8294.79
455.705	8831.35
455.911	8548.73
456.117	8790.39
456.323	9331.06
456.529	9216.37
456.735	10072.42
456.941	10479.97
457.147	10719.58
457.352	10989.91
457.558	11272.53
457.764	12319.04
457.97	12431.68
458.176	12998.97
458.381	13519.15
458.587	13592.88
458.793	14477.6
458.999	14336.29
459.204	16423.17
459.41	16453.89
459.616	16607.49
459.821	17512.69
460.027	18325.74
460.233	19353.82
460.438	18927.84
460.644	20332.75
460.85	20545.73
461.055	21373.11
461.261	22497.45
461.466	21987.5
461.672	22483.11
461.878	24707.21
462.083	24662.15
462.289	25122.94
462.494	26480.75
462.7	26228.85
462.905	26728.55
463.111	29018.18
463.316	30187.57
463.522	30879.78
463.727	31563.81
463.932	33048.58
464.138	33826.81
464.343	35071.98
464.549	35373.03
464.754	38084.54
464.959	38873.01
465.165	39790.5
465.37	39530.4
465.575	39757.73
465.781	42022.78
465.986	43384.68
466.191	42594.17
466.397	43110.25
466.602	41918.34
466.807	44466.01
467.012	45485.9
467.218	45731.65
467.423	46344
467.628	47361.84
467.833	49680.14
468.038	48912.15
468.244	47965.99
468.449	50368.26
468.654	49309.46
468.859	49399.57
469.064	49712.91
469.269	48133.92
469.474	48742.17
469.679	50145.03
469.885	48459.55
470.09	49268.5
470.295	49446.67
470.5	48301.85
470.705	48549.66
470.91	47621.93
471.115	47079.22
471.32	47869.73
471.525	47337.26
471.73	46276.41
471.935	45791.05
472.139	44308.32
472.344	44384.09
472.549	44064.61
472.754	43042.67
472.959	42125.18
473.164	40818.58
473.369	40259.48
473.574	41484.17
473.778	40488.85
473.983	39878.56
474.188	39401.38
474.393	37388.23
474.598	37275.59
474.802	36102.11
475.007	35913.69
475.212	35471.33
475.417	33986.55
475.621	33794.04
475.826	33671.17
476.031	32682
476.235	31963.16
476.44	32284.69
476.645	31359.01
476.849	31184.93
477.054	30523.44
477.259	29562.94
477.463	29952.05
477.668	29216.83
477.872	29048.9
478.077	27957.33
478.282	27543.64
478.486	27207.78
478.691	26908.77
478.895	26574.95
479.1	26386.54
479.304	26343.53
479.509	25352.32
479.713	25675.9
479.918	25311.36
480.122	24758.41
480.326	24780.93
480.531	24852.61
480.735	24051.86
480.94	23963.79
481.144	24567.95
481.348	23578.78
481.553	23797.91
481.757	22968.48
481.961	23369.88
482.166	23457.95
482.37	23296.16
482.574	22601.9
482.778	22804.64
482.983	23242.91
483.187	22290.6
483.391	22458.54
483.595	22010.03
483.8	21776.56
484.004	21522.62
484.208	22169.77
484.412	21227.71
484.616	21264.57
484.821	20940.99
485.025	20218.06
485.229	20467.91
485.433	20175.05
485.637	20080.85
485.841	19546.33
486.045	19228.89
486.249	19052.77
486.453	18712.8
486.657	18538.73
486.861	18657.51
487.065	17740.02
487.269	17912.05
487.473	17228.03
487.677	17223.93
487.881	17090.81
488.085	16730.37
488.289	16685.31
488.493	16124.17
488.697	16091.4
488.901	15749.39
489.105	15315.22
489.309	15206.68
489.512	14999.84
489.716	14604.58
489.92	14268.71
490.124	14022.95
490.328	14078.25
490.531	13478.19
490.735	13562.16
490.939	13113.66
491.143	12978.49
491.346	12575.04
491.55	12517.7
491.754	12241.22
491.958	12366.15
492.161	11788.62
492.365	11962.7
492.569	11516.24
492.772	11297.11
492.976	11139.41
493.18	11008.34
493.383	11221.33
493.587	10901.85
493.79	10848.6
493.994	10281.32
494.197	10312.03
494.401	10162.53
494.605	10154.34
494.808	10230.12
495.012	9929.06
495.215	9906.54
495.419	10185.06
495.622	9650.54
495.825	9630.06
496.029	9523.57
496.232	9531.76
496.436	9396.59
496.639	9677.16
496.843	9455.98
497.046	9535.85
497.249	9566.57
497.453	9550.19
497.656	9445.74
497.859	9417.07
498.063	9539.95
498.266	9718.12
498.469	9429.36
498.673	9599.34
498.876	9480.56
499.079	9550.19
499.282	9580.91
499.485	9847.15
499.689	9714.03
499.892	9742.7
500.095	9836.91
500.298	9943.4
500.501	9730.41
500.705	10133.86
500.908	9982.31
501.111	10017.13
501.314	10236.26
501.517	10555.74
501.72	10250.6
501.923	10254.69
502.126	10459.49
502.329	10699.1
502.532	10793.31
502.735	10799.45
502.938	11137.37
503.141	10981.72
503.344	11112.79
503.547	11260.24
503.75	11489.62
503.953	11559.25
504.156	11954.51
504.359	12048.71
504.562	11893.07
504.765	12298.56
504.968	12308.8
505.17	12515.65
505.373	12728.64
505.576	13197.62
505.779	13183.29
505.982	13078.84
506.185	13596.98
506.387	13662.51
506.59	13799.73
506.793	14276.9
506.996	14377.25
507.198	15051.03
507.401	14715.17
507.604	15221.02
507.807	15456.53
508.009	15743.25
508.212	15925.52
508.415	16382.21
508.617	16703.75
508.82	16904.45
509.022	17178.87
509.225	17836.27
509.428	18235.63
509.63	18495.72
509.833	18632.93
510.035	19175.64
510.238	19675.35
510.44	19781.84
510.643	20324.55
510.845	21256.38
511.048	20922.56
511.25	21555.38
511.453	21833.91
511.655	22941.86
511.858	23058.59
512.06	23433.37
512.262	23627.93
512.465	24391.82
512.667	24952.96
512.87	25503.87
513.072	26255.47
513.274	26833
513.477	27394.14
513.679	27945.05
513.881	28500.05
514.084	29124.68
514.286	29681.72
514.488	30234.67
514.69	31703.07
514.893	31584.29
515.095	32096.28
515.297	32624.65
515.499	33376.26
515.701	34308.08
515.904	34928.62
516.106	35762.14
516.308	36626.39
516.51	36855.76
516.712	37756.86
516.914	38645.68
517.116	39032.75
517.318	39937.95
517.52	40738.71
517.722	41035.66
517.925	41791.36
518.127	42657.65
518.329	43618.15
518.531	43433.83
518.733	45010.77
518.935	45449.03
519.136	46167.87
519.338	46708.54
519.54	47634.22
519.742	47922.98
519.944	48881.43
520.146	49878.79
520.348	50081.54
520.55	50353.92
520.752	51138.29
520.954	51896.04
521.155	52246.24
521.357	53114.58
521.559	53493.46
521.761	54384.32
521.963	54269.64
522.164	54806.2
522.366	55246.52
522.568	56305.32
522.77	56405.67
522.971	57130.65
523.173	56966.81
523.375	57314.97
523.576	57245.33
523.778	57730.7
523.98	58164.87
524.181	58402.44
524.383	58584.71
524.584	59299.45
524.786	58582.66
524.988	58381.96
525.189	58949.24
525.391	59006.59
525.592	59260.54
525.794	59123.32
525.995	59094.65
526.197	58795.65
526.398	59018.88
526.6	59299.45
526.801	58875.52
527.003	58820.22
527.204	58549.89
527.406	58982.01
527.607	58254.98
527.808	58328.71
528.01	56825.5
528.211	57091.74
528.412	57431.7
528.614	56557.22
528.815	56020.65
529.016	56536.74
529.218	55314.1
529.419	55348.92
529.62	54724.28
529.822	54159.05
530.023	53778.12
530.224	53223.12
530.425	52928.22
530.626	51785.45
530.828	51433.2
531.029	52039.4
531.23	50847.48
531.431	50126.6
531.632	49784.58
531.833	49368.85
532.035	48715.54
532.236	48160.55
532.437	47558.44
532.638	47353.65
532.839	46425.92
533.04	46063.43
533.241	45029.2
533.442	44910.42
533.643	44320.6
533.844	43442.03
534.045	43083.63
534.246	42520.44
534.447	41834.37
534.648	41201.55
534.849	40664.98
535.05	40222.62
535.251	39661.47
535.451	38813.62
535.652	38723.51
535.853	38471.6
536.054	37824.45
536.255	37009.36
536.456	36517.84
536.657	36487.12
536.857	35450.85
537.058	35252.2
537.259	34983.91
537.46	34488.31
537.66	33728.51
537.861	33380.35
538.062	32751.63
538.263	32731.15
538.463	32055.32
538.664	31993.88
538.865	31307.81
539.065	30904.36
539.266	30462
539.466	30382.13
539.667	29376.58
539.868	29780.03
540.068	29175.87
540.269	28885.06
540.469	28649.55
540.67	28074.07
540.87	27811.93
541.071	27074.66
541.271	27549.79
541.472	26914.92
541.672	26304.62
541.873	26269.81
542.073	25821.3
542.274	25710.71
542.474	25079.94
542.675	25104.51
542.875	25114.75
543.075	24510.6
543.276	23939.22
543.476	24103.06
543.676	23689.37
543.877	23455.9
544.077	23281.82
544.277	22737.06
544.478	22810.79
544.678	22732.97
544.878	21919.92
545.078	21962.93
545.279	21631.16
545.479	21305.53
545.679	21201.08
545.879	21233.85
546.079	20807.87
546.28	20228.3
546.48	19929.3
546.68	20058.32
546.88	19744.98
547.08	19480.79
547.28	19308.76
547.48	18929.89
547.68	18954.46
547.88	18589.92
548.081	18540.77
548.281	18180.33
548.481	17744.11
548.681	17715.44
548.881	17463.54
549.081	17109.24
549.28	17182.97
549.48	16775.42
549.68	16601.35
549.88	16478.47
550.08	15882.51
550.28	15952.14
550.48	15642.9
550.68	15618.32
550.88	15165.72
551.08	14993.69
551.279	15055.13
551.479	14682.4
551.679	14643.49
551.879	14123.3
552.079	13953.32
552.278	13719.85
552.478	13818.16
552.678	13570.35
552.878	13318.45
553.077	12955.96
553.277	12542.27
553.477	12769.6
553.676	12511.55
553.876	12351.81
554.076	12175.69
554.275	11891.02
554.475	11632.97
554.674	11653.45
554.874	11415.89
555.074	11006.3
555.273	11000.15
555.473	10879.32
555.672	10625.37
555.872	10590.56
556.071	10498.4
556.271	10328.42
556.47	9904.49
556.67	9654.64
556.869	9517.42
557.068	9591.15
557.268	9433.46
557.467	9148.79
557.667	9095.54
557.866	8921.46
558.065	8829.31
558.265	8716.67
558.464	8401.28
558.663	8507.77
558.863	8247.68
559.062	8231.3
559.261	7901.58
559.461	8042.89
559.66	7883.14
559.859	7520.65
560.058	7356.82
560.258	7385.49
560.457	7174.55
560.656	7295.38
560.855	6936.98
561.054	6881.69
561.253	6877.59
561.453	6728.09
561.652	6672.79
561.851	6666.65
562.05	6355.36
562.249	6246.82
562.448	6343.07
562.647	5982.63
562.846	5994.92
563.045	6058.4
563.244	5824.94
563.443	5802.41
563.642	5728.68
563.841	5702.06
564.04	5456.3
564.239	5446.06
564.438	5314.99
564.637	5110.19
564.836	5122.48
565.035	4999.6
565.234	4936.12
565.432	4905.4
565.631	4817.33
565.83	4878.77
566.029	4735.42
566.228	4731.32
566.427	4852.15
566.625	4575.67
566.824	4606.39
567.023	4528.57
567.222	4309.44
567.42	4364.73
567.619	4170.18
567.818	4248
568.016	4383.17
568.215	4180.42
568.414	4065.73
568.612	4190.66
568.811	3994.05
569.01	3873.22
569.208	3738.05
569.407	3838.41
569.605	3770.82
569.804	3731.91
570.002	3799.49
570.201	3529.16
570.4	3563.98
570.598	3369.42
570.797	3443.15
570.995	3406.28
571.193	3285.45
571.392	3170.77
571.59	3289.55
571.789	3203.54
571.987	3295.69
572.186	3154.38
572.384	2984.4
572.582	3088.85
572.781	3064.27
572.979	2857.43
573.177	2910.68
573.376	2886.1
573.574	2818.52
573.772	2693.59
573.971	2599.38
574.169	2662.87
574.367	2525.66
574.565	2542.04
574.763	2548.19
574.962	2470.36
575.16	2507.23
575.358	2484.7
575.556	2329.05
575.754	2419.16
575.952	2339.29
576.151	2216.41
576.349	2316.76
576.547	2025.95
576.745	2136.54
576.943	2144.74
577.141	2028
577.339	2066.91
577.537	2036.19
577.735	2116.06
577.933	2132.45
578.131	1880.55
578.329	1972.71
578.527	1995.23
578.725	1884.64
578.923	1673.7
579.121	2060.77
579.319	1649.13
579.516	1815.01
579.714	1839.59
579.912	1714.66
580.11	1575.4
580.308	1673.7
580.506	1655.27
580.704	1419.75
580.901	1552.87
581.099	1673.7
581.297	1657.32
581.495	1579.5
581.692	1475.05
581.89	1513.96
582.088	1511.91
582.285	1417.71
582.483	1331.69
582.681	1364.46
582.878	1360.36
583.076	1464.81
583.274	1376.75
583.471	1462.76
583.669	1229.29
583.866	1260.01
584.064	1122.8
584.262	1130.99
584.459	1231.34
584.657	1307.12
584.854	1233.39
585.052	1278.44
585.249	1198.57
585.447	1190.38
585.644	1122.8
585.841	1200.62
586.039	1184.24
586.236	1143.28
586.434	1075.7
586.631	1004.02
586.828	963.06
587.026	1024.5
587.223	938.48
587.42	942.58
587.618	1038.83
587.815	1038.83
588.012	932.34
588.21	1006.06
588.407	981.49
588.604	901.62
588.801	893.43
588.999	915.95
589.196	1020.4
589.393	795.12
589.59	852.47
589.787	913.91
589.984	913.91
590.182	883.19
590.379	836.08
590.576	952.82
590.773	918
590.97	829.94
591.167	944.63
591.364	922.1
591.561	829.94
591.758	1022.45
591.955	874.99
592.152	776.69
592.349	795.12
592.546	797.17
592.743	821.75
592.94	713.21
593.137	883.19
593.334	907.76
593.531	913.91
593.727	870.9
593.924	874.99
594.121	868.85
594.318	786.93
594.515	893.43
594.712	954.87
594.908	961.01
595.105	803.32
595.302	969.2
595.499	807.41
595.696	1030.64
595.892	909.81
596.089	1036.78
596.286	940.53
596.482	1087.98
596.679	1133.04
596.876	1040.88
597.072	1104.37
597.269	1083.89
597.466	1090.03
597.662	1202.67
597.859	1153.52
598.055	1303.02
598.252	1210.86
598.448	1319.4
598.645	1423.85
598.841	1475.05
599.038	1604.07
599.234	1624.55
599.431	1587.69
599.627	1579.5
599.824	1690.09
600.02	1688.04
600.217	1831.4
600.413	1759.72
600.609	1937.89
600.806	2197.98
601.002	2171.36
601.198	2111.97
601.395	2230.75
601.591	2240.99
601.787	2460.12
601.984	2501.08
602.18	2574.81
602.376	2693.59
602.572	2843.09
602.769	3021.27
602.965	2937.3
603.161	3054.03
603.357	3228.11
603.553	3330.51
603.75	3416.52
603.946	3531.21
604.142	3656.14
604.338	3875.27
604.534	3844.55
604.73	4164.03
604.926	4055.49
605.122	4241.86
605.318	4272.57
605.514	4477.37
605.71	4686.26
605.906	4958.64
606.102	4956.6
606.298	5401.01
606.494	5208.5
606.69	5556.65
606.886	5738.92
607.082	5644.71
607.278	5986.72
607.474	6074.79
607.67	6328.74
607.866	6308.26
608.062	6592.92
608.257	6801.82
608.453	6928.79
608.649	7209.36
608.845	7410.06
609.041	7367.06
609.236	7846.28
609.432	8042.89
609.628	8210.82
609.824	8454.53
610.019	8481.15
610.215	8841.59
610.411	9138.55
610.606	9251.19
610.802	9486.7
610.998	9863.53
611.193	10326.37
611.389	10332.51
611.584	10477.92
611.78	10719.58
611.976	11225.43
612.171	11657.55
612.367	11886.92
612.562	12003.66
612.758	12321.09
612.953	12613.95
613.149	13183.29
613.344	13361.46
613.539	13650.22
613.735	14231.85
613.93	14590.24
614.126	14561.57
614.321	15257.88
614.517	15964.43
614.712	15999.24
614.907	16214.28
615.103	16822.53
615.298	17103.1
615.493	17883.38
615.688	18026.73
615.884	18952.41
616.079	18989.28
616.274	19527.89
616.47	20074.7
616.665	20709.57
616.86	21156.03
617.055	21438.65
617.25	21797.04
617.445	22759.59
617.641	22943.91
617.836	23795.86
618.031	24432.78
618.226	25110.66
618.421	25149.57
618.616	26230.9
618.811	26288.24
619.006	27703.39
619.201	27619.42
619.396	28299.34
619.591	28332.11
619.786	30165.04
619.981	29964.34
620.176	30851.11
620.371	31244.32
620.566	32342.03
620.761	32972.81
620.956	33402.88
621.151	33927.16
621.346	34809.84
621.541	35207.14
621.735	36343.77
621.93	36341.72
622.125	37199.82
622.32	37130.19
622.515	38715.31
622.709	38885.29
622.904	40071.07
623.099	40466.33
623.294	41224.07
623.488	41529.22
623.683	42897.27
623.878	42954.61
624.072	43859.81
624.267	44695.38
624.462	44994.39
624.656	45305.68
624.851	46907.19
625.046	46657.34
625.24	47972.13
625.435	48338.72
625.629	49002.26
625.824	49487.63
626.018	50159.36
626.213	49727.24
626.407	51527.41
626.602	51048.18
626.796	51844.84
626.991	52553.44
627.185	52891.35
627.38	53274.32
627.574	53800.65
627.768	53802.7
627.963	53733.07
628.157	53923.53
628.352	54447.81
628.546	54167.24
628.74	54804.16
628.935	53952.2
629.129	54511.3
629.323	53851.85
629.517	54120.13
629.712	53305.04
629.906	53346
630.1	52606.69
630.294	52215.52
630.489	51465.97
630.683	51056.37
630.877	49999.62
631.071	49350.41
631.265	49078.04
631.459	47908.64
631.653	46790.45
631.848	46167.87
632.042	44506.97
632.236	44121.95
632.43	42379.13
632.624	41783.17
632.818	40437.65
633.012	38973.36
633.206	37926.85
633.4	36966.35
633.594	35076.07
633.788	34502.64
633.982	33193.99
634.176	32253.97
634.369	31047.72
634.563	30019.64
634.757	28827.72
634.951	27793.5
635.145	26527.85
635.339	25823.35
635.533	24453.26
635.726	23883.92
635.92	22393
636.114	21844.15
636.308	20945.09
636.501	20080.85
636.695	19101.92
636.889	18411.75
637.083	17514.74
637.276	16822.53
637.47	16122.12
637.664	15515.92
637.857	14952.73
638.051	14342.44
638.244	13693.23
638.438	13150.52
638.632	12753.21
638.825	12124.49
639.019	11739.47
639.212	11168.09
639.406	10797.4
639.599	10584.41
639.793	10037.61
639.986	9501.04
640.18	9382.26
640.373	8853.88
640.567	8688
640.76	8245.63
640.954	8018.31
641.147	7547.28
641.34	7408.01
641.534	7106.96
641.727	6896.02
641.92	6656.41
642.114	6195.62
642.307	6091.17
642.5	5775.78
642.694	5517.74
642.887	5382.57
643.08	5212.59
643.273	5136.82
643.467	4831.67
643.66	4499.9
643.853	4379.07
644.046	4239.81
644.239	4024.77
644.432	3836.36
644.626	3654.09
644.819	3717.58
645.012	3459.53
645.205	3410.38
645.398	3305.93
645.591	3162.58
645.784	3017.17
645.977	2869.72
646.17	2814.42
646.363	2714.07
646.556	2437.59
646.749	2507.23
646.942	2370.01
647.135	2372.06
647.328	2214.37
647.521	2204.13
647.714	1964.51
647.907	1960.42
648.099	1888.74
648.292	1874.4
648.485	1866.21
648.678	1640.93
648.871	1579.5
649.064	1475.05
649.256	1462.76
649.449	1429.99
649.642	1311.21
649.835	1341.93
650.027	1303.02
650.22	1362.41
650.413	1217.01
650.605	1227.25
650.798	1147.37
650.991	1004.02
651.183	1020.4
651.376	961.01
651.568	1004.02
651.761	944.63
651.954	1016.3
652.146	870.9
652.339	989.68
652.531	854.51
652.724	766.45
652.916	758.26
653.109	612.85
653.301	885.23
653.494	725.49
653.686	743.92
653.879	813.56
654.071	813.56
654.263	635.38
654.456	532.98
654.648	723.44
654.84	731.64
655.033	522.74
655.225	702.97
655.417	373.24
655.61	676.34
655.802	563.7
655.994	662.01
656.186	545.27
656.379	549.37
656.571	473.59
656.763	481.78
656.955	457.21
657.148	481.78
657.34	473.59
657.532	406.01
657.724	451.07
657.916	416.25
658.108	479.74
658.3	438.78
658.492	358.91
658.684	401.91
658.876	444.92
659.068	266.75
659.26	276.99
659.452	272.89
659.644	436.73
659.836	473.59
660.028	373.24
660.22	283.13
660.412	363
660.604	283.13
660.796	338.43
660.988	320
661.18	381.43
661.372	338.43
661.563	233.98
661.755	293.37
661.947	268.8
662.139	281.08
662.331	281.08
662.522	346.62
662.714	186.88
662.906	201.21
663.097	270.84
663.289	117.25
663.481	162.3
663.673	207.36
663.864	293.37
664.056	276.99
664.247	178.69
664.439	375.29
664.631	217.6
664.822	293.37
665.014	180.73
665.205	76.29
665.397	203.26
665.588	311.8
665.78	174.59
665.971	287.23
666.163	188.93
666.354	221.69
666.546	127.49
666.737	197.12
666.929	160.25
667.12	168.45
667.311	262.65
667.503	209.4
667.694	193.02
667.885	242.17
668.077	236.03
668.268	127.49
668.459	131.58
668.651	158.21
668.842	248.32
669.033	158.21
669.224	88.57
669.416	336.38
669.607	84.48
669.798	170.49
669.989	330.23
670.18	125.44
670.371	186.88
670.563	133.63
670.754	211.45
670.945	248.32
671.136	250.36
671.327	121.34
671.518	274.94
671.709	336.38
671.9	213.5
672.091	272.89
672.282	201.21
672.473	258.56
672.664	184.83
672.855	145.92
673.046	145.92
673.237	176.64
673.428	188.93
673.619	152.06
673.809	174.59
674	338.43
674.191	242.17
674.382	137.73
674.573	125.44
674.764	76.29
674.954	262.65
675.145	86.53
675.336	100.86
675.527	145.92
675.717	125.44
675.908	188.93
676.099	184.83
676.289	209.4
676.48	119.29
676.671	197.12
676.861	170.49
677.052	205.31
677.243	107.01
677.433	211.45
677.624	180.73
677.814	248.32
678.005	221.69
678.195	295.42
678.386	180.73
678.576	209.4
678.767	117.25
678.957	172.54
679.148	180.73
679.338	338.43
679.529	238.08
679.719	211.45
679.909	285.18
680.1	250.36
680.29	188.93
680.481	193.02
680.671	334.33
680.861	276.99
681.052	211.45
681.242	180.73
681.432	285.18
681.622	219.64
681.813	135.68
682.003	197.12
682.193	213.5
682.383	236.03
682.573	207.36
682.764	139.77
682.954	238.08
683.144	328.19
683.334	180.73
683.524	268.8
683.714	293.37
683.904	244.22
684.094	219.64
684.284	291.32
684.474	248.32
684.664	330.23
684.854	217.6
685.044	233.98
685.234	242.17
685.424	238.08
685.614	260.6
685.804	311.8
685.994	289.28
686.184	276.99
686.374	246.27
686.564	236.03
686.753	201.21
686.943	197.12
687.133	174.59
687.323	285.18
687.513	279.04
687.702	252.41
687.892	117.25
688.082	262.65
688.272	328.19
688.461	229.88
688.651	344.57
688.841	254.46
689.03	225.79
689.22	145.92
689.41	297.47
689.599	225.79
689.789	59.9
689.979	342.52
690.168	203.26
690.358	324.09
690.547	215.55
690.737	236.03
690.926	301.56
691.116	223.74
691.305	262.65
691.495	225.79
691.684	201.21
691.874	162.3
692.063	303.61
692.252	270.84
692.442	287.23
692.631	213.5
692.82	178.69
693.01	240.12
693.199	311.8
693.388	250.36
693.578	188.93
693.767	264.7
693.956	317.95
694.146	152.06
694.335	256.51
694.524	262.65
694.713	274.94
694.902	178.69
695.092	205.31
695.281	211.45
695.47	193.02
695.659	188.93
695.848	166.4
696.037	184.83
696.226	317.95
696.415	209.4
696.604	320
696.793	276.99
696.982	170.49
697.171	281.08
697.36	137.73
697.549	260.6
697.738	31.23
697.927	172.54
698.116	197.12
698.305	150.01
698.494	197.12
698.683	160.25
698.872	342.52
699.061	184.83
699.25	102.91
699.438	197.12
699.627	254.46
699.816	336.38
700.005	123.39
700.193	115.2
700.382	225.79
700.571	272.89
700.76	309.76
700.948	287.23
701.137	223.74
701.326	264.7
701.514	180.73
701.703	264.7
701.892	246.27
702.08	395.77
702.269	217.6
702.457	217.6
702.646	203.26
702.834	147.97
703.023	295.42
703.212	270.84
703.4	213.5
703.589	133.63
703.777	100.86
703.965	178.69
704.154	184.83
704.342	176.64
704.531	225.79
704.719	209.4
704.907	272.89
705.096	76.29
705.284	109.05
705.472	219.64
705.661	195.07
705.849	297.47
706.037	307.71
706.226	201.21
706.414	229.88
706.602	170.49
706.79	227.84
706.979	164.35
707.167	104.96
707.355	123.39
707.543	315.9
707.731	178.69
707.919	195.07
708.107	215.55
708.296	82.43
708.484	205.31
708.672	231.93
708.86	262.65
709.048	193.02
709.236	166.4
709.424	199.16
709.612	313.85
709.8	137.73
709.988	193.02
710.176	236.03
710.364	285.18
710.551	219.64
710.739	158.21
710.927	246.27
711.115	150.01
711.303	291.32
711.491	338.43
711.679	211.45
711.866	258.56
712.054	213.5
712.242	160.25
712.43	203.26
712.617	176.64
712.805	203.26
712.993	221.69
713.181	203.26
713.368	264.7
713.556	240.12
713.744	172.54
713.931	369.15
714.119	244.22
714.306	207.36
714.494	223.74
714.682	248.32
714.869	135.68
715.057	195.07
715.244	117.25
715.432	293.37
715.619	229.88
715.807	231.93
715.994	268.8
716.182	248.32
716.369	307.71
716.556	285.18
716.744	141.82
716.931	182.78
717.119	164.35
717.306	170.49
717.493	229.88
717.681	176.64
717.868	135.68
718.055	231.93
718.242	107.01
718.43	283.13
718.617	264.7
718.804	246.27
718.991	352.76
719.179	231.93
719.366	233.98
719.553	344.57
719.74	207.36
719.927	225.79
720.114	295.42
720.301	240.12
720.488	213.5
720.676	168.45
720.863	371.19
721.05	412.15
721.237	303.61
721.424	358.91
721.611	236.03
721.798	137.73
721.985	199.16
722.172	340.47
722.358	176.64
722.545	258.56
722.732	279.04
722.919	395.77
723.106	268.8
723.293	276.99
723.48	254.46
723.667	281.08
723.853	356.86
724.04	309.76
724.227	283.13
724.414	262.65
724.6	338.43
724.787	381.43
724.974	377.34
725.161	260.6
725.347	156.16
725.534	283.13
725.72	352.76
725.907	291.32
726.094	313.85
726.28	268.8
726.467	244.22
726.653	223.74
726.84	299.52
727.027	338.43
727.213	268.8
727.4	326.14
727.586	252.41
727.773	283.13
727.959	315.9
728.145	213.5
728.332	266.75
728.518	299.52
728.705	367.1
728.891	281.08
729.077	313.85
729.264	238.08
729.45	236.03
729.636	385.53
729.823	240.12
730.009	358.91
730.195	336.38
730.382	324.09
730.568	231.93
730.754	262.65
730.94	213.5
731.126	264.7
731.313	375.29
731.499	279.04
731.685	328.19
731.871	281.08
732.057	344.57
732.243	326.14
732.429	240.12
732.615	399.87
732.801	293.37
732.987	201.21
733.173	291.32
733.359	250.36
733.545	297.47
733.731	272.89
733.917	328.19
734.103	211.45
734.289	262.65
734.475	205.31
734.661	426.49
734.847	301.56
735.033	305.66
735.219	399.87
735.404	350.71
735.59	213.5
735.776	262.65
735.962	340.47
736.148	332.28
736.333	369.15
736.519	287.23
736.705	266.75
736.89	293.37
737.076	238.08
737.262	233.98
737.447	266.75
737.633	317.95
737.819	344.57
738.004	227.84
738.19	289.28
738.375	266.75
738.561	381.43
738.747	285.18
738.932	188.93
739.118	455.16
739.303	373.24
739.489	328.19
739.674	229.88
739.859	248.32
740.045	285.18
740.23	289.28
740.416	178.69
740.601	297.47
740.786	332.28
740.972	215.55
741.157	256.51
741.342	227.84
741.528	184.83
741.713	340.47
741.898	260.6
742.084	283.13
742.269	250.36
742.454	344.57
742.639	358.91
742.824	236.03
743.01	385.53
743.195	414.2
743.38	305.66
743.565	246.27
743.75	215.55
743.935	342.52
744.12	334.33
744.305	203.26
744.49	211.45
744.675	311.8
744.86	242.17
745.045	236.03
745.23	320
745.415	205.31
745.6	473.59
745.785	244.22
745.97	334.33
746.155	262.65
746.34	254.46
746.525	328.19
746.71	387.58
746.895	262.65
747.079	195.07
747.264	285.18
747.449	264.7
747.634	287.23
747.819	307.71
748.003	219.64
748.188	201.21
748.373	272.89
748.557	293.37
748.742	295.42
748.927	188.93
749.111	264.7
749.296	276.99
749.481	266.75
749.665	215.55
749.85	213.5
750.034	201.21
750.219	352.76
750.404	188.93
750.588	246.27
750.773	178.69
750.957	215.55
751.141	201.21
751.326	305.66
751.51	170.49
751.695	254.46
751.879	160.25
752.064	373.24
752.248	279.04
752.432	354.81
752.617	244.22
752.801	221.69
752.985	182.78
753.17	248.32
753.354	250.36
753.538	219.64
753.722	186.88
753.907	170.49
754.091	115.2
754.275	307.71
754.459	182.78
754.643	45.57
754.828	283.13
755.012	170.49
755.196	180.73
755.38	201.21
755.564	104.96
755.748	180.73
755.932	272.89
756.116	178.69
756.3	137.73
756.484	107.01
756.668	250.36
756.852	61.95
757.036	78.33
757.22	111.1
757.404	145.92
757.588	182.78
757.772	260.6
757.956	92.67
758.14	311.8
758.323	135.68
758.507	186.88
758.691	129.53
758.875	311.8
759.059	260.6
759.242	152.06
759.426	154.11
759.61	201.21
759.794	145.92
759.977	154.11
760.161	281.08
760.345	279.04
760.528	297.47
760.712	160.25
760.895	240.12
761.079	47.62
761.263	100.86
761.446	74.24
761.63	139.77
761.813	186.88
761.997	92.67
762.18	64
762.364	82.43
762.547	14.85
762.731	143.87
762.914	150.01
763.098	199.16
763.281	129.53
763.464	143.87
763.648	88.57
763.831	61.95
764.015	53.76
764.198	127.49
764.381	170.49
764.564	100.86
764.748	145.92
764.931	152.06
765.114	72.19
765.297	215.55
765.481	59.9
765.664	109.05
765.847	111.1
766.03	207.36
766.213	90.62
766.397	123.39
766.58	90.62
766.763	164.35
766.946	129.53
767.129	61.95
767.312	23.04
767.495	115.2
767.678	104.96
767.861	129.53
768.044	143.87
768.227	107.01
768.41	172.54
768.593	107.01
768.776	154.11
768.959	96.77
769.142	180.73
769.324	111.1
769.507	119.29
769.69	55.81
769.873	72.19
770.056	309.76
770.239	133.63
770.421	225.79
770.604	111.1
770.787	141.82
770.97	59.9
771.152	29.18
771.335	168.45
771.518	6.66
771.7	152.06
771.883	221.69
772.066	59.9
772.248	111.1
772.431	193.02
772.613	125.44
772.796	82.43
772.978	145.92
773.161	283.13
773.343	74.24
773.526	57.86
773.708	-38.4
773.891	-9.73
774.073	57.86
774.256	141.82
774.438	190.97
774.621	20.99
774.803	141.82
774.985	86.53
775.168	86.53
775.35	35.33
775.532	113.15
775.715	29.18
775.897	147.97
776.079	4.61
776.261	104.96
776.444	98.81
776.626	-1.54
776.808	55.81
776.99	-3.58
777.173	57.86
777.355	66.05
777.537	82.43
777.719	125.44
777.901	45.57
778.083	12.8
778.265	12.8
778.447	176.64
778.629	-5.63
778.811	68.09
778.993	125.44
779.175	121.34
779.357	70.14
779.539	12.8
779.721	80.38
779.903	152.06
780.085	51.71
780.267	-9.73
780.449	72.19
780.631	84.48
780.812	211.45
780.994	39.42
781.176	-15.87
781.358	-34.3
781.54	129.53
781.721	70.14
781.903	107.01
782.085	8.7
782.267	145.92
782.448	-17.92
782.63	35.33
782.812	68.09
782.993	88.57
783.175	104.96
783.357	51.71
783.538	64
783.72	-24.06
783.901	94.72
784.083	88.57
784.264	107.01
784.446	0.51
784.627	-7.68
784.809	107.01
784.99	23.04
785.172	111.1
785.353	115.2
785.535	33.28
785.716	-1.54
785.897	-36.35
786.079	20.99
786.26	35.33
786.441	82.43
786.623	-3.58
786.804	16.9
786.985	-42.5
787.167	88.57
787.348	72.19
787.529	72.19
787.71	182.78
787.891	55.81
788.073	-3.58
788.254	-5.63
788.435	156.16
788.616	68.09
788.797	-3.58
788.978	33.28
789.159	-1.54
789.34	164.35
789.522	25.09
789.703	-11.78
789.884	111.1
790.065	55.81
790.246	135.68
790.427	82.43
790.607	98.81
790.788	133.63
790.969	59.9
791.15	72.19
791.331	41.47
791.512	-1.54
791.693	-62.98
791.874	64
792.054	174.59
792.235	39.42
792.416	-9.73
792.597	59.9
792.778	107.01
792.958	104.96
793.139	88.57
793.32	29.18
793.5	10.75
793.681	115.2
793.862	53.76
794.042	55.81
794.223	-40.45
794.404	25.09
794.584	41.47
794.765	16.9
794.945	90.62
795.126	100.86
795.306	123.39
795.487	66.05
795.667	16.9
795.848	98.81
796.028	10.75
796.209	35.33
796.389	113.15
796.57	57.86
796.75	-34.3
796.93	25.09
797.111	-79.36
797.291	66.05
797.471	57.86
797.652	-52.74
797.832	23.04
798.012	94.72
798.192	-11.78
798.373	2.56
798.553	-71.17
798.733	117.25
798.913	-38.4
799.093	2.56
799.274	154.11
799.454	133.63
799.634	80.38
799.814	84.48
799.994	76.29
800.174	53.76
800.354	31.23
800.534	51.71
800.714	35.33
800.894	-42.5
801.074	-22.02
801.254	-62.98
801.434	96.77
801.614	-112.13
801.794	-108.03
801.974	1905.12
802.154	25.09
802.334	117.25
802.514	-19.97
802.693	25.09
802.873	-32.26
803.053	150.01
803.233	33.28
803.413	-40.45
803.592	29.18
803.772	-50.69
803.952	35.33
804.131	18.94
804.311	86.53
804.491	68.09
804.67	-44.54
804.85	-71.17
805.03	80.38
805.209	2.56
805.389	0.51
805.568	-34.3
805.748	-79.36
805.928	-24.06
806.107	41.47
806.287	125.44
806.466	70.14
806.646	-75.26
806.825	39.42
807.004	-19.97
807.184	20.99
807.363	135.68
807.543	61.95
807.722	-52.74
807.901	107.01
808.081	49.66
808.26	-34.3
808.439	51.71
808.619	55.81
808.798	12.8
808.977	74.24
809.156	150.01
809.336	23.04
809.515	55.81
809.694	-9.73
809.873	72.19
810.052	59.9
810.231	135.68
810.411	117.25
810.59	76.29
810.769	6.66
810.948	123.39
811.127	-112.13
811.306	-7.68
811.485	-34.3
811.664	162.3
811.843	29.18
812.022	6.66
812.201	-13.82
812.38	-17.92
812.559	4.61
812.737	115.2
812.916	-110.08
813.095	14.85
813.274	55.81
813.453	33.28
813.632	55.81
813.811	107.01
813.989	-124.41
814.168	96.77
814.347	-122.37
814.526	29.18
814.704	90.62
814.883	90.62
815.062	-85.5
815.24	51.71
815.419	-73.21
815.598	29.18
815.776	-69.12
815.955	41.47
816.133	-7.68
816.312	59.9
816.49	-108.03
816.669	25.09
816.847	6.66
817.026	143.87
817.204	41.47
817.383	43.52
817.561	-60.93
817.74	33.28
817.918	72.19
818.097	-30.21
818.275	16.9
818.453	23.04
818.632	35.33
818.81	-54.78
818.988	-42.5
819.167	-67.07
819.345	70.14
819.523	-46.59
819.701	33.28
819.879	133.63
820.058	-22.02
820.236	2.56
820.414	-26.11
820.592	-11.78
820.77	-42.5
820.948	-22.02
821.127	25.09
821.305	-13.82
821.483	-1.54
821.661	68.09
821.839	70.14
822.017	-9.73
822.195	-3.58
822.373	147.97
822.551	-26.11
822.729	123.39
822.907	61.95
823.085	109.05
823.262	59.9
823.44	2.56
823.618	12.8
823.796	43.52
823.974	47.62
824.152	8.7
824.329	20.99
824.507	6.66
824.685	-85.5
824.863	-5.63
825.04	131.58
825.218	35.33
825.396	88.57
825.574	113.15
825.751	-19.97
825.929	57.86
826.107	-52.74
826.284	35.33
826.462	18.94
826.639	31.23
826.817	-46.59
826.994	25.09
827.172	-1.54
827.349	184.83
827.527	18.94
827.704	129.53
827.882	39.42
828.059	-17.92
828.237	-44.54
828.414	82.43
828.591	-62.98
828.769	43.52
828.946	-71.17
829.124	39.42
829.301	74.24
829.478	-79.36
829.655	80.38
829.833	10.75
830.01	-95.74
830.187	43.52
830.364	25.09
830.542	37.38
830.719	129.53
830.896	-3.58
831.073	16.9
831.25	55.81
831.427	84.48
831.604	37.38
831.782	-11.78
831.959	23.04
832.136	2.56
832.313	0.51
832.49	-7.68
832.667	31.23
832.844	-81.41
833.021	82.43
833.198	35.33
833.374	-15.87
833.551	92.67
833.728	-56.83
833.905	92.67
834.082	-118.27
834.259	37.38
834.436	31.23
834.612	-97.79
834.789	76.29
834.966	23.04
835.143	123.39
835.319	4.61
835.496	45.57
835.673	57.86
835.85	129.53
836.026	51.71
836.203	100.86
836.38	-46.59
836.556	-75.26
836.733	70.14
836.909	109.05
837.086	14.85
837.262	-24.06
837.439	-13.82
837.616	-9.73
837.792	-52.74
837.968	4.61
838.145	-112.13
838.321	72.19
838.498	45.57
838.674	6.66
838.851	20.99
839.027	0.51
839.203	-56.83
839.38	49.66
839.556	29.18
839.732	51.71
839.909	39.42
840.085	57.86
840.261	29.18
840.437	45.57
840.614	6.66
840.79	96.77
840.966	72.19
841.142	-36.35
841.318	-5.63
841.494	61.95
841.671	127.49
841.847	-58.88
842.023	-9.73
842.199	55.81
842.375	82.43
842.551	-89.6
842.727	-46.59
842.903	113.15
843.079	-50.69
843.255	139.77
843.431	4.61
843.607	2.56
843.783	-95.74
843.959	27.14
844.134	-75.26
844.31	131.58
844.486	14.85
844.662	-75.26
844.838	57.86
845.013	86.53
845.189	141.82
845.365	18.94
845.541	-24.06
845.716	10.75
845.892	117.25
846.068	-71.17
846.244	-11.78
846.419	78.33
846.595	-7.68
846.77	-19.97
846.946	43.52
847.122	8.7
847.297	-77.31
847.473	147.97
847.648	-77.31
847.824	-13.82
847.999	-79.36
848.175	-15.87
848.35	72.19
848.526	170.49
848.701	55.81
848.876	139.77
849.052	123.39
849.227	12.8
849.403	-28.16
849.578	25.09
849.753	18.94
849.929	2.56
850.104	-40.45
850.279	6.66
850.454	68.09
850.63	-32.26
850.805	-30.21
850.98	39.42
851.155	4.61
851.33	16.9
851.505	-32.26
851.681	113.15
851.856	-62.98
852.031	47.62
852.206	43.52
852.381	23.04
852.556	-30.21
852.731	37.38
852.906	90.62
853.081	47.62
853.256	182.78
853.431	-46.59
853.606	6.66
853.781	16.9
853.956	-50.69
854.131	43.52
854.305	-38.4
854.48	-52.74
854.655	-34.3
854.83	-122.37
855.005	-7.68
855.18	-15.87
855.354	-24.06
855.529	49.66
855.704	59.9
855.879	64
856.053	-46.59
856.228	45.57
856.403	-46.59
856.577	14.85
856.752	-32.26
856.926	35.33
857.101	68.09
857.276	-19.97
857.45	29.18
857.625	117.25
857.799	-34.3
857.974	43.52
858.148	-91.65
858.323	74.24
858.497	14.85
858.672	-46.59
858.846	-81.41
859.02	68.09
859.195	-110.08
859.369	-46.59
859.543	-15.87
859.718	31.23
859.892	57.86
860.066	66.05
860.241	-24.06
860.415	68.09
860.589	-38.4
860.763	94.72
860.938	-52.74
861.112	76.29
861.286	41.47
861.46	80.38
861.634	-5.63
861.808	20.99
861.982	-7.68
862.157	-128.51
862.331	2.56
862.505	31.23
862.679	-40.45
862.853	8.7
863.027	-50.69
863.201	102.91
863.375	-112.13
863.549	20.99
863.722	78.33
863.896	86.53
864.07	-60.93
864.244	-38.4
864.418	117.25
864.592	-46.59
864.766	23.04
864.939	51.71
865.113	-1.54
865.287	57.86
865.461	-103.93
865.634	23.04
865.808	49.66
865.982	23.04
866.156	61.95
866.329	-124.41
866.503	115.2
866.676	41.47
866.85	-3.58
867.024	-60.93
867.197	84.48
867.371	59.9
867.544	16.9
867.718	-124.41
867.891	72.19
868.065	-112.13
868.238	-9.73
868.412	76.29
868.585	49.66
868.759	-9.73
868.932	-34.3
869.105	-97.79
869.279	-103.93
869.452	-52.74
869.625	82.43
869.799	12.8
869.972	-62.98
870.145	-77.31
870.319	39.42
870.492	4.61
870.665	20.99
870.838	-34.3
871.011	-48.64
871.185	-34.3
871.358	4.61
871.531	78.33
871.704	-11.78
871.877	100.86
872.05	4.61
872.223	-52.74
872.396	61.95
872.569	68.09
872.742	-79.36
872.915	16.9
873.088	-112.13
873.261	-34.3
873.434	133.63
873.607	-62.98
873.78	111.1
873.953	-83.45
874.126	27.14
874.299	31.23
874.471	-36.35
874.644	-93.69
874.817	8.7
874.99	68.09
875.163	-22.02
875.335	53.76
875.508	-5.63
875.681	51.71
875.853	-40.45
876.026	-22.02
876.199	68.09
876.371	45.57
876.544	-38.4
876.717	51.71
876.889	31.23
877.062	117.25
877.234	-48.64
877.407	-34.3
877.579	-40.45
877.752	-24.06
877.924	37.38
878.097	51.71
878.269	-40.45
878.442	61.95
878.614	31.23
878.786	31.23
878.959	14.85
879.131	-60.93
879.303	-95.74
879.476	-1.54
879.648	68.09
879.82	23.04
879.993	-1.54
880.165	74.24
880.337	-60.93
880.509	35.33
880.681	-52.74
880.854	-46.59
881.026	68.09
881.198	180.73
881.37	-26.11
881.542	4.61
881.714	-52.74
881.886	41.47
882.058	-50.69
882.23	96.77
882.402	-60.93
882.574	147.97
882.746	35.33
882.918	123.39
883.09	82.43
883.262	-7.68
883.434	43.52
883.606	-173.57
883.778	-40.45
883.95	109.05
884.122	10.75
884.293	45.57
884.465	10.75
884.637	61.95
884.809	-34.3
884.98	-7.68
885.152	0.51
885.324	29.18
885.496	-81.41
885.667	12.8
885.839	-26.11
886.011	188.93
886.182	0.51
886.354	41.47
886.525	31.23
886.697	-15.87
886.869	-26.11
887.04	-48.64
887.212	88.57
887.383	131.58
887.555	-44.54
887.726	-42.5
887.897	33.28
888.069	-50.69
888.24	96.77
888.412	-50.69
888.583	41.47
888.754	-60.93
888.926	-89.6
889.097	-56.83
889.268	-83.45
889.44	70.14
889.611	-132.61
889.782	-50.69
889.953	-89.6
890.125	55.81
890.296	-71.17
890.467	0.51
890.638	-3.58
890.809	-54.78
890.98	10.75
891.151	6.66
891.323	143.87
891.494	12.8
891.665	43.52
891.836	-34.3
892.007	-101.89
892.178	10.75
892.349	18.94
892.52	-22.02
892.691	129.53
892.862	-89.6
893.032	-77.31
893.203	-52.74
893.374	18.94
893.545	37.38
893.716	-71.17
893.887	90.62
894.057	-42.5
894.228	-7.68
894.399	-1.54
894.57	68.09
894.74	31.23
894.911	43.52
895.082	0.51
895.253	-81.41
895.423	0.51
895.594	2.56
895.764	31.23
895.935	-85.5
896.106	129.53
896.276	-24.06
896.447	51.71
896.617	-79.36
896.788	-91.65
896.958	-67.07
897.129	-15.87
897.299	-36.35
897.47	74.24
897.64	-13.82
897.81	4.61
897.981	-34.3
898.151	-13.82
898.322	51.71
898.492	66.05
898.662	-60.93
898.832	-22.02
899.003	-9.73
899.173	53.76
899.343	-13.82
899.513	-30.21
