Data from USB4F104151__80__10-44-20-869.txt Node

Date: Wed Feb 26 10:44:20 EST 2025
User: louis
Spectrometer: USB4F10415
Trigger mode: 4
Integration Time (sec): 1.000000E-1
Scans to average: 1
Electric dark correction enabled: true
Nonlinearity correction enabled: false
Boxcar width: 0
XAxis mode: Wavelengths
Number of Pixels in Spectrum: 3648
>>>>>Begin Spectral Data<<<<<
178.204	-364.54
178.424	-364.54
178.644	-364.54
178.864	-413.69
179.084	-425.98
179.304	-24.58
179.524	8.19
179.744	4.1
179.964	-12.29
180.184	81.92
180.404	43.01
180.624	6.14
180.844	-32.77
181.064	-71.68
181.283	-20.48
181.503	-40.96
181.723	59.39
181.943	-131.07
182.163	206.84
182.383	-83.97
182.602	36.86
182.822	135.17
183.042	-0
183.262	45.06
183.482	-20.48
183.701	65.53
183.921	30.72
184.141	-38.91
184.361	61.44
184.58	10.24
184.8	83.97
185.02	8.19
185.239	147.45
185.459	104.45
185.679	102.4
185.898	-157.69
186.118	86.01
186.338	100.35
186.557	200.7
186.777	-26.62
186.997	81.92
187.216	-24.58
187.436	151.55
187.655	79.87
187.875	124.93
188.095	63.49
188.314	133.12
188.534	204.8
188.753	-47.1
188.973	133.12
189.192	143.36
189.412	92.16
189.631	96.25
189.851	18.43
190.07	186.37
190.29	-90.11
190.509	110.59
190.729	40.96
190.948	190.46
191.168	237.56
191.387	106.49
191.607	24.58
191.826	53.25
192.045	38.91
192.265	14.34
192.484	94.21
192.704	73.73
192.923	-90.11
193.142	176.13
193.362	88.06
193.581	161.79
193.8	53.25
194.02	108.54
194.239	34.82
194.458	149.5
194.678	69.63
194.897	38.91
195.116	92.16
195.335	92.16
195.555	73.73
195.774	-22.53
195.993	198.65
196.212	102.4
196.432	51.2
196.651	-34.82
196.87	-2.05
197.089	327.67
197.308	75.77
197.528	102.4
197.747	-20.48
197.966	106.49
198.185	139.26
198.404	36.86
198.623	79.87
198.842	98.3
199.062	112.64
199.281	182.27
199.5	28.67
199.719	200.7
199.938	36.86
200.157	81.92
200.376	104.45
200.595	192.51
200.814	45.06
201.033	6.14
201.252	196.6
201.471	38.91
201.69	53.25
201.909	20.48
202.128	180.22
202.347	-26.62
202.566	124.93
202.785	-94.21
203.004	-65.54
203.223	292.86
203.442	90.11
203.661	-61.44
203.879	71.68
204.098	149.5
204.317	-18.43
204.536	69.63
204.755	90.11
204.974	61.44
205.193	34.82
205.411	114.69
205.63	86.01
205.849	122.88
206.068	49.15
206.287	4.1
206.505	114.69
206.724	32.77
206.943	-34.82
207.162	-2.05
207.381	59.39
207.599	40.96
207.818	-10.24
208.037	12.29
208.255	38.91
208.474	110.59
208.693	71.68
208.911	53.25
209.13	28.67
209.349	165.89
209.567	32.77
209.786	102.4
210.005	151.55
210.223	69.63
210.442	-86.01
210.661	45.06
210.879	110.59
211.098	92.16
211.316	71.68
211.535	75.77
211.753	32.77
211.972	43.01
212.191	38.91
212.409	26.62
212.628	137.21
212.846	4.1
213.065	98.3
213.283	151.55
213.502	83.97
213.72	61.44
213.938	8.19
214.157	55.3
214.375	124.93
214.594	28.67
214.812	102.4
215.031	43.01
215.249	18.43
215.467	45.06
215.686	77.82
215.904	106.49
216.122	122.88
216.341	139.26
216.559	79.87
216.778	98.3
216.996	133.12
217.214	-75.77
217.432	-32.77
217.651	16.38
217.869	63.49
218.087	30.72
218.306	10.24
218.524	110.59
218.742	94.21
218.96	53.25
219.179	-63.49
219.397	43.01
219.615	227.32
219.833	92.16
220.051	10.24
220.27	167.93
220.488	174.08
220.706	49.15
220.924	-10.24
221.142	-4.1
221.36	57.34
221.578	77.82
221.796	73.73
222.015	28.67
222.233	-100.35
222.451	151.55
222.669	24.58
222.887	126.97
223.105	65.53
223.323	16.38
223.541	-67.58
223.759	75.77
223.977	-8.19
224.195	182.27
224.413	75.77
224.631	40.96
224.849	137.21
225.067	231.42
225.285	-40.96
225.503	-12.29
225.721	-45.06
225.939	4.1
226.157	71.68
226.375	237.56
226.592	-30.72
226.81	36.86
227.028	151.55
227.246	86.01
227.464	147.45
227.682	106.49
227.9	86.01
228.117	77.82
228.335	55.3
228.553	-26.62
228.771	53.25
228.989	88.06
229.206	59.39
229.424	20.48
229.642	-12.29
229.86	-69.63
230.077	57.34
230.295	32.77
230.513	174.08
230.731	86.01
230.948	184.32
231.166	206.84
231.384	28.67
231.601	24.58
231.819	165.89
232.037	57.34
232.254	-6.14
232.472	36.86
232.689	-18.43
232.907	98.3
233.125	-49.15
233.342	40.96
233.56	69.63
233.777	57.34
233.995	65.53
234.213	198.65
234.43	83.97
234.648	135.17
234.865	53.25
235.083	67.58
235.3	-4.1
235.518	67.58
235.735	73.73
235.953	88.06
236.17	45.06
236.388	124.93
236.605	94.21
236.822	133.12
237.04	104.45
237.257	73.73
237.475	-45.06
237.692	73.73
237.909	147.45
238.127	-18.43
238.344	126.97
238.562	65.53
238.779	-100.35
238.996	-10.24
239.214	45.06
239.431	59.39
239.648	51.2
239.865	65.53
240.083	8.19
240.3	-2.05
240.517	4.1
240.735	43.01
240.952	143.36
241.169	106.49
241.386	161.79
241.603	34.82
241.821	-30.72
242.038	16.38
242.255	143.36
242.472	-73.73
242.689	149.5
242.907	34.82
243.124	69.63
243.341	8.19
243.558	98.3
243.775	-18.43
243.992	-120.83
244.209	129.02
244.426	227.32
244.643	129.02
244.86	49.15
245.078	112.64
245.295	79.87
245.512	40.96
245.729	-6.14
245.946	145.41
246.163	-36.86
246.38	-16.38
246.597	110.59
246.814	55.3
247.031	118.78
247.248	71.68
247.464	92.16
247.681	102.4
247.898	135.17
248.115	118.78
248.332	-10.24
248.549	139.26
248.766	163.84
248.983	155.65
249.2	24.58
249.417	55.3
249.633	4.1
249.85	90.11
250.067	98.3
250.284	94.21
250.501	61.44
250.717	59.39
250.934	4.1
251.151	51.2
251.368	-16.38
251.585	71.68
251.801	145.41
252.018	-8.19
252.235	159.74
252.451	-65.54
252.668	-16.38
252.885	30.72
253.102	59.39
253.318	-14.34
253.535	57.34
253.752	26.62
253.968	83.97
254.185	-77.82
254.401	133.12
254.618	14.34
254.835	-4.1
255.051	114.69
255.268	149.5
255.484	12.29
255.701	57.34
255.917	108.54
256.134	24.58
256.351	45.06
256.567	-6.14
256.784	94.21
257	-57.34
257.217	157.69
257.433	139.26
257.65	22.53
257.866	108.54
258.082	67.58
258.299	-34.82
258.515	16.38
258.732	4.1
258.948	-53.25
259.165	73.73
259.381	20.48
259.597	79.87
259.814	45.06
260.03	-2.05
260.246	43.01
260.463	143.36
260.679	200.7
260.895	73.73
261.112	57.34
261.328	61.44
261.544	38.91
261.761	184.32
261.977	2.05
262.193	-2.05
262.409	126.97
262.626	26.62
262.842	-79.87
263.058	-24.58
263.274	63.49
263.49	61.44
263.707	69.63
263.923	69.63
264.139	-28.67
264.355	28.67
264.571	102.4
264.787	65.53
265.004	98.3
265.22	83.97
265.436	-55.3
265.652	43.01
265.868	118.78
266.084	-20.48
266.3	143.36
266.516	-30.72
266.732	28.67
266.948	59.39
267.164	59.39
267.38	180.22
267.596	36.86
267.812	180.22
268.028	24.58
268.244	61.44
268.46	45.06
268.676	-8.19
268.892	157.69
269.108	20.48
269.324	-59.39
269.54	-10.24
269.756	114.69
269.972	-96.25
270.188	77.82
270.403	-24.58
270.619	96.25
270.835	47.1
271.051	51.2
271.267	-55.3
271.483	45.06
271.698	92.16
271.914	104.45
272.13	86.01
272.346	20.48
272.562	69.63
272.777	120.83
272.993	16.38
273.209	-12.29
273.425	102.4
273.64	-106.49
273.856	79.87
274.072	-102.4
274.287	-53.25
274.503	124.93
274.719	18.43
274.934	28.67
275.15	-26.62
275.366	34.82
275.581	-0
275.797	-8.19
276.012	75.77
276.228	-51.2
276.444	-2.05
276.659	118.78
276.875	20.48
277.09	18.43
277.306	-14.34
277.521	161.79
277.737	65.53
277.952	77.82
278.168	104.45
278.383	90.11
278.599	106.49
278.814	163.84
279.03	28.67
279.245	92.16
279.461	55.3
279.676	61.44
279.892	-36.86
280.107	67.58
280.322	-4.1
280.538	36.86
280.753	-57.34
280.969	38.91
281.184	69.63
281.399	247.8
281.615	22.53
281.83	34.82
282.045	-73.73
282.26	-4.1
282.476	-6.14
282.691	116.73
282.906	108.54
283.122	-24.58
283.337	-0
283.552	81.92
283.767	20.48
283.983	163.84
284.198	59.39
284.413	100.35
284.628	-73.73
284.843	47.1
285.058	98.3
285.274	-16.38
285.489	-22.53
285.704	69.63
285.919	8.19
286.134	22.53
286.349	-28.67
286.564	-14.34
286.779	233.47
286.995	26.62
287.21	-32.77
287.425	122.88
287.64	32.77
287.855	79.87
288.07	-124.93
288.285	176.13
288.5	96.25
288.715	71.68
288.93	79.87
289.145	30.72
289.36	120.83
289.575	65.53
289.79	106.49
290.004	90.11
290.219	159.74
290.434	43.01
290.649	47.1
290.864	6.14
291.079	112.64
291.294	110.59
291.509	71.68
291.724	16.38
291.938	-34.82
292.153	77.82
292.368	-24.58
292.583	155.65
292.798	133.12
293.012	77.82
293.227	77.82
293.442	14.34
293.657	81.92
293.871	129.02
294.086	69.63
294.301	198.65
294.516	147.45
294.73	45.06
294.945	6.14
295.16	36.86
295.374	198.65
295.589	143.36
295.804	14.34
296.018	38.91
296.233	192.51
296.447	-2.05
296.662	10.24
296.877	145.41
297.091	61.44
297.306	-32.77
297.52	-6.14
297.735	75.77
297.949	71.68
298.164	75.77
298.378	83.97
298.593	-6.14
298.807	-22.53
299.022	57.34
299.236	131.07
299.451	22.53
299.665	40.96
299.88	94.21
300.094	55.3
300.309	71.68
300.523	129.02
300.737	8.19
300.952	65.53
301.166	28.67
301.381	-0
301.595	12.29
301.809	16.38
302.024	-0
302.238	30.72
302.452	155.65
302.667	38.91
302.881	180.22
303.095	75.77
303.309	118.78
303.524	2.05
303.738	-24.58
303.952	32.77
304.166	28.67
304.381	-100.35
304.595	172.03
304.809	30.72
305.023	120.83
305.237	20.48
305.452	34.82
305.666	26.62
305.88	83.97
306.094	126.97
306.308	133.12
306.522	104.45
306.736	26.62
306.95	126.97
307.164	69.63
307.379	59.39
307.593	36.86
307.807	155.65
308.021	81.92
308.235	73.73
308.449	59.39
308.663	79.87
308.877	270.33
309.091	75.77
309.305	38.91
309.519	-145.41
309.733	110.59
309.947	-59.39
310.161	102.4
310.374	36.86
310.588	176.13
310.802	-51.2
311.016	24.58
311.23	38.91
311.444	-6.14
311.658	65.53
311.872	155.65
312.085	75.77
312.299	141.31
312.513	251.9
312.727	92.16
312.941	45.06
313.154	32.77
313.368	90.11
313.582	77.82
313.796	98.3
314.009	-2.05
314.223	135.17
314.437	69.63
314.651	114.69
314.864	18.43
315.078	-0
315.292	-75.77
315.505	38.91
315.719	-8.19
315.933	45.06
316.146	96.25
316.36	26.62
316.573	212.99
316.787	120.83
317.001	71.68
317.214	63.49
317.428	73.73
317.641	-22.53
317.855	94.21
318.068	73.73
318.282	98.3
318.495	129.02
318.709	88.06
318.922	16.38
319.136	151.55
319.349	63.49
319.563	-47.1
319.776	145.41
319.99	26.62
320.203	73.73
320.417	86.01
320.63	59.39
320.843	202.75
321.057	157.69
321.27	73.73
321.483	174.08
321.697	124.93
321.91	40.96
322.124	32.77
322.337	118.78
322.55	-47.1
322.763	67.58
322.977	-38.91
323.19	-0
323.403	16.38
323.617	161.79
323.83	67.58
324.043	75.77
324.256	53.25
324.469	55.3
324.683	114.69
324.896	38.91
325.109	79.87
325.322	-96.25
325.535	104.45
325.748	102.4
325.962	40.96
326.175	26.62
326.388	145.41
326.601	161.79
326.814	-2.05
327.027	73.73
327.24	194.56
327.453	-20.48
327.666	75.77
327.879	116.73
328.092	131.07
328.305	73.73
328.518	73.73
328.731	-2.05
328.944	49.15
329.157	24.58
329.37	81.92
329.583	149.5
329.796	200.7
330.009	61.44
330.222	59.39
330.435	135.17
330.648	45.06
330.861	10.24
331.073	69.63
331.286	163.84
331.499	40.96
331.712	-8.19
331.925	36.86
332.138	83.97
332.35	141.31
332.563	-79.87
332.776	88.06
332.989	6.14
333.202	32.77
333.414	16.38
333.627	24.58
333.84	22.53
334.053	92.16
334.265	-28.67
334.478	-51.2
334.691	51.2
334.903	45.06
335.116	-36.86
335.329	20.48
335.541	92.16
335.754	172.03
335.966	22.53
336.179	47.1
336.392	43.01
336.604	77.82
336.817	165.89
337.029	40.96
337.242	20.48
337.454	83.97
337.667	24.58
337.88	118.78
338.092	65.53
338.305	73.73
338.517	71.68
338.729	110.59
338.942	147.45
339.154	-2.05
339.367	47.1
339.579	114.69
339.792	45.06
340.004	36.86
340.217	63.49
340.429	61.44
340.641	-71.68
340.854	45.06
341.066	-22.53
341.278	167.93
341.491	210.94
341.703	-4.1
341.915	-12.29
342.128	88.06
342.34	92.16
342.552	65.53
342.764	16.38
342.977	-26.62
343.189	102.4
343.401	2.05
343.613	-90.11
343.826	79.87
344.038	-43.01
344.25	122.88
344.462	24.58
344.674	94.21
344.886	16.38
345.099	96.25
345.311	63.49
345.523	45.06
345.735	-16.38
345.947	77.82
346.159	137.21
346.371	71.68
346.583	45.06
346.795	194.56
347.007	-26.62
347.219	143.36
347.431	-38.91
347.643	151.55
347.855	112.64
348.067	184.32
348.279	-49.15
348.491	61.44
348.703	98.3
348.915	94.21
349.127	-26.62
349.339	114.69
349.551	43.01
349.763	83.97
349.975	34.82
350.187	92.16
350.399	188.41
350.61	40.96
350.822	71.68
351.034	24.58
351.246	2.05
351.458	34.82
351.669	143.36
351.881	83.97
352.093	180.22
352.305	141.31
352.517	28.67
352.728	147.45
352.94	40.96
353.152	102.4
353.363	-8.19
353.575	43.01
353.787	204.8
353.999	57.34
354.21	169.98
354.422	18.43
354.633	2.05
354.845	69.63
355.057	51.2
355.268	36.86
355.48	106.49
355.692	36.86
355.903	126.97
356.115	32.77
356.326	-94.21
356.538	88.06
356.749	67.58
356.961	217.08
357.172	79.87
357.384	-38.91
357.595	176.13
357.807	20.48
358.018	-16.38
358.23	77.82
358.441	116.73
358.653	169.98
358.864	73.73
359.075	16.38
359.287	51.2
359.498	143.36
359.709	47.1
359.921	20.48
360.132	104.45
360.344	59.39
360.555	-2.05
360.766	38.91
360.977	26.62
361.189	174.08
361.4	86.01
361.611	141.31
361.823	174.08
362.034	108.54
362.245	-110.59
362.456	104.45
362.667	86.01
362.879	-55.3
363.09	18.43
363.301	118.78
363.512	61.44
363.723	-79.87
363.935	-43.01
364.146	200.7
364.357	-45.06
364.568	22.53
364.779	59.39
364.99	116.73
365.201	-28.67
365.412	161.79
365.623	-53.25
365.834	36.86
366.045	12.29
366.256	176.13
366.467	49.15
366.678	28.67
366.889	43.01
367.1	-12.29
367.311	149.5
367.522	102.4
367.733	153.6
367.944	110.59
368.155	-16.38
368.366	116.73
368.577	172.03
368.788	53.25
368.999	12.29
369.209	108.54
369.42	266.24
369.631	188.41
369.842	124.93
370.053	67.58
370.264	118.78
370.474	-16.38
370.685	110.59
370.896	45.06
371.107	147.45
371.317	45.06
371.528	-18.43
371.739	96.25
371.95	106.49
372.16	75.77
372.371	28.67
372.582	18.43
372.792	90.11
373.003	45.06
373.214	86.01
373.424	102.4
373.635	-26.62
373.846	167.93
374.056	40.96
374.267	104.45
374.477	131.07
374.688	4.1
374.898	57.34
375.109	73.73
375.319	20.48
375.53	86.01
375.74	55.3
375.951	67.58
376.161	94.21
376.372	161.79
376.582	43.01
376.793	126.97
377.003	-14.34
377.214	-22.53
377.424	81.92
377.635	47.1
377.845	-18.43
378.055	100.35
378.266	18.43
378.476	102.4
378.686	81.92
378.897	98.3
379.107	98.3
379.317	110.59
379.528	40.96
379.738	155.65
379.948	49.15
380.158	147.45
380.369	69.63
380.579	43.01
380.789	-18.43
380.999	145.41
381.21	182.27
381.42	178.17
381.63	65.53
381.84	206.84
382.05	61.44
382.261	157.69
382.471	90.11
382.681	2.05
382.891	219.13
383.101	114.69
383.311	-8.19
383.521	-40.96
383.731	102.4
383.941	157.69
384.151	57.34
384.361	12.29
384.571	94.21
384.781	75.77
384.991	172.03
385.201	182.27
385.411	26.62
385.621	22.53
385.831	20.48
386.041	81.92
386.251	59.39
386.461	159.74
386.671	30.72
386.881	30.72
387.091	53.25
387.301	81.92
387.511	47.1
387.72	73.73
387.93	133.12
388.14	-104.45
388.35	63.49
388.56	159.74
388.769	67.58
388.979	-14.34
389.189	-8.19
389.399	36.86
389.609	165.89
389.818	104.45
390.028	102.4
390.238	88.06
390.447	2.05
390.657	110.59
390.867	-6.14
391.076	-6.14
391.286	122.88
391.496	40.96
391.705	112.64
391.915	98.3
392.125	112.64
392.334	49.15
392.544	145.41
392.753	102.4
392.963	26.62
393.172	8.19
393.382	53.25
393.591	167.93
393.801	24.58
394.01	65.53
394.22	88.06
394.429	18.43
394.639	26.62
394.848	10.24
395.058	38.91
395.267	14.34
395.477	18.43
395.686	118.78
395.895	106.49
396.105	196.6
396.314	94.21
396.524	51.2
396.733	61.44
396.942	83.97
397.152	102.4
397.361	114.69
397.57	55.3
397.78	16.38
397.989	61.44
398.198	286.72
398.407	81.92
398.617	30.72
398.826	30.72
399.035	104.45
399.244	88.06
399.453	57.34
399.663	2.05
399.872	96.25
400.081	6.14
400.29	178.17
400.499	-20.48
400.708	129.02
400.917	26.62
401.127	71.68
401.336	28.67
401.545	165.89
401.754	112.64
401.963	114.69
402.172	28.67
402.381	-20.48
402.59	83.97
402.799	57.34
403.008	118.78
403.217	102.4
403.426	110.59
403.635	14.34
403.844	10.24
404.053	47.1
404.262	65.53
404.471	139.26
404.68	18.43
404.888	45.06
405.097	126.97
405.306	63.49
405.515	108.54
405.724	96.25
405.933	139.26
406.142	135.17
406.35	157.69
406.559	110.59
406.768	98.3
406.977	169.98
407.185	67.58
407.394	88.06
407.603	-20.48
407.812	92.16
408.02	120.83
408.229	57.34
408.438	73.73
408.646	-18.43
408.855	71.68
409.064	157.69
409.272	49.15
409.481	79.87
409.69	55.3
409.898	12.29
410.107	120.83
410.315	118.78
410.524	75.77
410.733	63.49
410.941	22.53
411.15	73.73
411.358	75.77
411.567	141.31
411.775	67.58
411.984	8.19
412.192	122.88
412.401	-4.1
412.609	165.89
412.818	129.02
413.026	69.63
413.234	-12.29
413.443	71.68
413.651	71.68
413.86	55.3
414.068	174.08
414.276	188.41
414.485	4.1
414.693	210.94
414.901	217.08
415.11	167.93
415.318	63.49
415.526	34.82
415.734	114.69
415.943	79.87
416.151	83.97
416.359	118.78
416.567	77.82
416.776	157.69
416.984	81.92
417.192	190.46
417.4	65.53
417.608	-14.34
417.817	-63.49
418.025	131.07
418.233	169.98
418.441	-12.29
418.649	2.05
418.857	147.45
419.065	100.35
419.273	-6.14
419.481	110.59
419.689	-4.1
419.897	55.3
420.105	34.82
420.313	102.4
420.521	145.41
420.729	174.08
420.937	-12.29
421.145	45.06
421.353	110.59
421.561	141.31
421.769	124.93
421.977	22.53
422.185	114.69
422.393	4.1
422.601	120.83
422.809	116.73
423.017	96.25
423.224	165.89
423.432	145.41
423.64	96.25
423.848	145.41
424.056	-40.96
424.263	186.37
424.471	112.64
424.679	147.45
424.887	55.3
425.094	186.37
425.302	81.92
425.51	32.77
425.718	94.21
425.925	63.49
426.133	45.06
426.341	204.8
426.548	98.3
426.756	51.2
426.964	157.69
427.171	28.67
427.379	155.65
427.586	43.01
427.794	108.54
428.001	172.03
428.209	151.55
428.417	153.6
428.624	116.73
428.832	135.17
429.039	102.4
429.247	110.59
429.454	137.21
429.662	231.42
429.869	116.73
430.076	172.03
430.284	135.17
430.491	204.8
430.699	110.59
430.906	212.99
431.114	116.73
431.321	65.53
431.528	106.49
431.736	145.41
431.943	169.98
432.15	139.26
432.358	219.13
432.565	260.09
432.772	86.01
432.979	210.94
433.187	79.87
433.394	96.25
433.601	131.07
433.808	239.61
434.016	231.42
434.223	178.17
434.43	176.13
434.637	278.52
434.844	235.52
435.052	276.48
435.259	327.67
435.466	362.49
435.673	196.6
435.88	258.04
436.087	335.87
436.294	212.99
436.501	268.28
436.708	208.89
436.915	280.57
437.122	360.44
437.329	225.28
437.537	305.15
437.743	253.95
437.95	417.79
438.157	280.57
438.364	354.3
438.571	280.57
438.778	462.84
438.985	333.82
439.192	483.32
439.399	360.44
439.606	454.65
439.813	479.22
440.02	548.86
440.227	614.39
440.433	563.19
440.64	540.66
440.847	440.31
441.054	518.14
441.261	555
441.467	581.62
441.674	534.52
441.881	681.97
442.088	622.58
442.294	708.6
442.501	727.03
442.708	729.08
442.914	634.87
443.121	733.17
443.328	727.03
443.534	788.47
443.741	800.76
443.948	681.97
444.154	868.34
444.361	1099.76
444.568	921.59
444.774	1073.14
444.981	827.38
445.187	1064.94
445.394	1093.62
445.6	970.74
445.807	1083.38
446.013	1148.91
446.22	1155.05
446.426	1218.54
446.633	1218.54
446.839	1415.15
447.046	1294.32
447.252	1353.71
447.459	1443.82
447.665	1492.97
447.871	1601.51
448.078	1806.31
448.284	1601.51
448.491	1763.3
448.697	1820.64
448.903	1947.62
449.11	1916.9
449.316	1875.94
449.522	2033.63
449.728	2101.22
449.935	2185.18
450.141	2154.46
450.347	2394.08
450.553	2361.31
450.76	2392.03
450.966	2445.27
451.172	2543.58
451.378	2764.76
451.584	2768.85
451.791	2893.78
451.997	2910.16
452.203	3024.85
452.409	3399.63
452.615	3416.01
452.821	3215.31
453.027	3327.95
453.233	3606.47
453.44	3723.21
453.646	3907.52
453.852	4007.87
454.058	4126.66
454.264	4431.8
454.47	4562.87
454.676	4515.77
454.882	4886.45
455.088	4908.98
455.294	5089.2
455.5	5298.1
455.705	5703.59
455.911	5724.07
456.117	5801.9
456.323	6000.55
456.529	5984.16
456.735	6608.8
456.941	6657.95
457.147	7063.44
457.352	7266.19
457.558	7440.27
457.764	7911.3
457.97	7925.64
458.176	8247.17
458.381	8656.76
458.587	8925.05
458.793	9213.81
458.999	9424.75
459.204	10463.07
459.41	10932.06
459.616	10645.34
459.821	11386.71
460.027	11853.64
460.233	12312.39
460.438	12285.76
460.644	13145.91
460.85	13266.74
461.055	13721.39
461.261	14673.7
461.466	14135.08
461.672	14458.66
461.878	16117.51
462.083	16174.86
462.289	16328.45
462.494	16930.56
462.7	17061.63
462.905	17319.67
463.111	18835.17
463.316	19965.65
463.522	20211.4
463.727	20551.37
463.932	21442.23
464.138	22093.49
464.343	22972.07
464.549	23109.28
464.754	24737.41
464.959	25679.48
465.165	25945.72
465.37	25788.02
465.575	25947.76
465.781	27596.38
465.986	28108.37
466.191	27768.41
466.397	28229.2
466.602	27532.89
466.807	28989
467.012	29490.75
467.218	30080.56
467.423	30025.27
467.628	31217.19
467.833	32556.56
468.038	31639.07
468.244	31706.65
468.449	33066.5
468.654	32474.64
468.859	32386.58
469.064	32411.15
469.269	31782.43
469.474	31737.37
469.679	32898.57
469.885	31905.31
470.09	32544.27
470.295	32439.82
470.5	31749.66
470.705	32140.82
470.91	31032.87
471.115	30897.7
471.32	31061.54
471.525	31419.94
471.73	30365.23
471.935	29795.9
472.139	28679.75
472.344	29232.71
472.549	28714.57
472.754	28493.39
472.959	27721.3
473.164	26922.6
473.369	26291.82
473.574	27018.85
473.778	26682.98
473.983	26304.11
474.188	25593.47
474.393	24217.23
474.598	24456.84
474.802	23959.19
475.007	23580.31
475.212	23090.85
475.417	22599.34
475.621	22202.03
475.826	21759.67
476.031	21444.28
476.235	21038.78
476.44	21311.16
476.645	20477.64
476.849	20352.71
477.054	20149.96
477.259	19592.92
477.463	19435.22
477.668	18857.7
477.872	18777.83
478.077	18405.1
478.282	17870.58
478.486	17825.52
478.691	17393.4
478.895	17397.49
479.1	17241.85
479.304	16977.66
479.509	16613.12
479.713	16918.27
479.918	16570.12
480.122	16258.82
480.326	16195.34
480.531	16279.3
480.735	15834.89
480.94	15740.69
481.144	16256.78
481.348	15470.36
481.553	15415.06
481.757	14853.92
481.961	15062.81
482.166	15302.42
482.37	15200.02
482.574	14747.42
482.778	14706.46
482.983	14991.13
483.187	14704.42
483.391	14468.9
483.595	14206.76
483.8	14145.32
484.004	14450.47
484.208	14096.17
484.412	13811.5
484.616	13506.35
484.821	13840.17
485.025	13309.75
485.229	13303.6
485.433	12875.58
485.637	12977.98
485.841	12652.35
486.045	12605.25
486.249	12486.47
486.453	12185.41
486.657	12181.32
486.861	11956.04
487.065	11548.5
487.269	11548.5
487.473	11280.21
487.677	11476.82
487.881	11339.6
488.085	10596.19
488.289	10882.91
488.493	10432.35
488.697	10620.77
488.901	10162.02
489.105	9992.04
489.309	9930.6
489.512	9666.41
489.716	9711.47
489.92	9340.79
490.124	9287.54
490.328	9025.4
490.531	8824.7
490.735	8959.86
490.939	8644.48
491.143	8480.64
491.346	8238.98
491.55	8402.82
491.754	8015.75
491.958	8101.76
492.161	7810.95
492.365	7796.62
492.569	7505.81
492.772	7483.28
492.976	7380.88
493.18	7458.7
493.383	7163.79
493.587	7106.45
493.79	7143.31
493.994	6952.85
494.197	6844.31
494.401	6860.7
494.605	6723.48
494.808	6674.33
495.012	6600.6
495.215	6717.34
495.419	6533.02
495.622	6338.46
495.825	6459.29
496.029	6502.3
496.232	6467.49
496.436	6485.92
496.639	6524.83
496.843	6236.06
497.046	6102.95
497.249	6309.79
497.453	6375.33
497.656	6432.67
497.859	6137.76
498.063	6203.3
498.266	6584.22
498.469	6121.38
498.673	6191.01
498.876	6285.22
499.079	6324.13
499.282	6279.07
499.485	6586.27
499.689	6490.01
499.892	6580.12
500.095	6537.12
500.298	6602.65
500.501	6418.33
500.705	6870.94
500.908	6682.52
501.111	6850.46
501.314	6911.89
501.517	6776.73
501.72	6928.28
501.923	7053.2
502.126	7145.36
502.329	7327.63
502.532	7401.36
502.735	7382.93
502.938	7604.11
503.141	7511.95
503.344	7686.03
503.547	7747.47
503.75	7927.69
503.953	7753.61
504.156	7923.59
504.359	8251.27
504.562	8277.89
504.765	8310.66
504.968	8320.9
505.17	8658.81
505.373	8884.09
505.576	8888.18
505.779	9072.5
505.982	9115.51
506.185	9463.66
506.387	9406.32
506.59	9650.03
506.793	9877.35
506.996	9764.71
507.198	10481.5
507.401	10237.8
507.604	10547.04
507.807	10577.76
508.009	11036.5
508.212	10962.78
508.415	11269.97
508.617	11585.36
508.82	11892.55
509.022	11741
509.225	12435.27
509.428	12160.84
509.63	12666.69
509.833	12971.83
510.035	13354.8
510.238	13324.08
510.44	13633.33
510.643	14182.18
510.845	14534.43
511.048	14876.44
511.25	15091.48
511.453	15320.85
511.655	15888.14
511.858	15908.62
512.06	16439.05
512.262	16717.57
512.465	17061.63
512.667	17452.79
512.87	17886.96
513.072	18269.93
513.274	18720.48
513.477	19074.78
513.679	19367.64
513.881	20020.94
514.084	20383.43
514.286	20690.63
514.488	21358.27
514.69	21956.27
514.893	22259.37
515.095	22554.28
515.297	23064.22
515.499	23553.69
515.701	23801.49
515.904	24802.95
516.106	25405.05
516.308	25642.62
516.51	26123.89
516.712	26492.52
516.914	26930.79
517.116	27690.59
517.318	28048.98
517.52	28603.98
517.722	28950.09
517.925	29650.49
518.127	30182.96
518.329	30756.39
518.531	30938.66
518.733	31796.76
518.935	32378.39
519.136	32769.55
519.338	33287.68
519.54	34061.82
519.742	34375.16
519.944	34743.79
520.146	35603.94
520.348	36015.58
520.55	36138.46
520.752	36812.24
520.954	37379.53
521.155	37045.71
521.357	38458.81
521.559	38530.48
521.761	39191.98
521.963	39124.39
522.164	39912.86
522.366	39818.66
522.568	40715.67
522.77	41020.81
522.971	41407.88
523.173	41205.13
523.375	41727.36
523.576	42071.42
523.778	41454.98
523.98	42343.8
524.181	42288.51
524.383	42419.58
524.584	42902.9
524.786	42868.08
524.988	42268.03
525.189	43142.51
525.391	43449.7
525.592	43310.44
525.794	43562.34
525.995	43412.84
526.197	43412.84
526.398	43081.07
526.6	43058.54
526.801	43046.26
527.003	42872.18
527.204	42575.22
527.406	42947.95
527.607	42366.33
527.808	42386.81
528.01	42110.33
528.211	42012.03
528.412	42333.56
528.614	41545.09
528.815	41368.97
529.016	41864.58
529.218	41047.44
529.419	40664.47
529.62	40486.29
529.822	40226.2
530.023	39624.1
530.224	38933.93
530.425	38483.38
530.626	38147.51
530.828	37604.8
531.029	37807.55
531.23	36894.16
531.431	36758.99
531.632	36236.76
531.833	36160.98
532.035	35681.76
532.236	35020.27
532.437	34852.33
532.638	34416.11
532.839	34117.11
533.04	33893.88
533.241	33009.16
533.442	33238.53
533.643	32759.31
533.844	31899.16
534.045	31737.37
534.246	30856.75
534.447	30869.03
534.648	30420.53
534.849	30162.48
535.05	29300.29
535.251	29173.31
535.451	28511.82
535.652	28116.56
535.853	28157.52
536.054	27489.88
536.255	27113.06
536.456	26707.56
536.657	26769
536.857	26197.62
537.058	25980.53
537.259	25740.92
537.46	25030.27
537.66	24944.26
537.861	24479.37
538.062	24250
538.263	23817.88
538.463	23496.35
538.664	23424.67
538.865	22941.35
539.065	22865.57
539.266	22484.65
539.466	22220.46
539.667	22021.81
539.868	21868.21
540.068	21307.07
540.269	21206.72
540.469	21026.5
540.67	20512.45
540.87	20223.69
541.071	20014.8
541.271	20063.95
541.472	19680.98
541.672	19435.22
541.873	19113.69
542.073	18654.95
542.274	18884.32
542.474	18763.49
542.675	18235.11
542.875	18347.75
543.075	17874.67
543.276	17528.56
543.476	17794.8
543.676	17082.11
543.877	17098.49
544.077	16774.91
544.277	16928.51
544.478	16658.18
544.678	16807.68
544.878	16252.68
545.078	16176.91
545.279	15990.54
545.479	15568.66
545.679	15519.51
545.879	15290.13
546.079	15220.5
546.28	14831.39
546.48	14573.35
546.68	14759.71
546.88	14485.28
547.08	14303.01
547.28	14341.93
547.48	13731.63
547.68	14018.35
547.88	13643.57
548.081	13430.58
548.281	13254.45
548.481	12988.22
548.681	13094.71
548.881	12918.59
549.081	12693.31
549.28	12023.62
549.48	12465.99
549.68	12171.08
549.88	12152.65
550.08	11781.96
550.28	11566.93
550.48	11413.33
550.68	11523.92
550.88	11315.03
551.08	11040.6
551.279	11104.09
551.479	10549.09
551.679	10833.75
551.879	10352.48
552.079	10522.46
552.278	10096.49
552.478	10162.02
552.678	9912.17
552.878	9656.17
553.077	9492.34
553.277	9471.86
553.477	9365.36
553.676	9097.08
553.876	9054.07
554.076	8611.71
554.275	8970.1
554.475	8644.48
554.674	8322.94
554.874	8458.11
555.074	8036.23
555.273	8230.79
555.473	8036.23
555.672	7729.03
555.872	7710.6
556.071	7704.46
556.271	7745.42
556.47	7407.5
556.67	7114.64
556.869	7120.79
557.068	7049.11
557.268	6842.26
557.467	6750.1
557.667	6653.85
557.866	6502.3
558.065	6449.05
558.265	6180.77
558.464	6254.5
558.663	6088.61
558.863	6041.51
559.062	5855.14
559.261	5752.74
559.461	5756.84
559.66	5615.53
559.859	5638.06
560.058	5498.8
560.258	5328.81
560.457	5220.27
560.656	5263.28
560.855	5017.52
561.054	5154.74
561.253	4947.89
561.453	4974.52
561.652	4865.97
561.851	4857.78
562.05	4595.64
562.249	4642.75
562.448	4609.98
562.647	4302.78
562.846	4335.55
563.045	4394.94
563.244	4159.42
563.443	4380.61
563.642	4061.12
563.841	4038.59
564.04	4042.69
564.239	4059.07
564.438	3899.33
564.637	3749.83
564.836	3854.28
565.035	3743.69
565.234	3588.04
565.432	3553.23
565.631	3655.62
565.83	3524.55
566.029	3330
566.228	3502.03
566.427	3465.16
566.625	3307.47
566.824	3473.35
567.023	3280.85
567.222	3153.87
567.42	3041.23
567.619	3147.73
567.818	2998.23
568.016	3086.29
568.215	3049.43
568.414	3035.09
568.612	2924.5
568.811	2877.4
569.01	2826.2
569.208	2734.04
569.407	2799.57
569.605	2715.61
569.804	2656.22
570.002	2619.35
570.201	2582.49
570.4	2504.67
570.598	2521.05
570.797	2480.09
570.995	2392.03
571.193	2289.63
571.392	2392.03
571.59	2334.68
571.789	2375.64
571.987	2379.74
572.186	2308.06
572.384	2011.11
572.582	2021.35
572.781	2193.37
572.979	2050.02
573.177	2103.26
573.376	2062.3
573.574	2058.21
573.772	2011.11
573.971	1984.48
574.169	1904.61
574.367	1839.08
574.565	1914.85
574.763	1834.98
574.962	1847.27
575.16	1591.27
575.358	1699.81
575.556	1636.33
575.754	1662.95
575.952	1675.24
576.151	1691.62
576.349	1802.21
576.547	1595.37
576.745	1593.32
576.943	1538.02
577.141	1548.26
577.339	1339.37
577.537	1562.6
577.735	1593.32
577.933	1462.25
578.131	1310.7
578.329	1476.59
578.527	1404.91
578.725	1398.76
578.923	1259.5
579.121	1359.85
579.319	1206.25
579.516	1177.58
579.714	1380.33
579.912	1273.84
580.11	1107.95
580.308	1126.38
580.506	1091.57
580.704	956.4
580.901	1132.53
581.099	1306.6
581.297	1054.7
581.495	1052.66
581.692	997.36
581.89	1163.25
582.088	1120.24
582.285	1036.27
582.483	1044.46
582.681	1001.46
582.878	976.88
583.076	997.36
583.274	964.59
583.471	1105.9
583.669	942.07
583.866	937.97
584.064	847.86
584.262	765.94
584.459	804.85
584.657	851.95
584.854	1003.5
585.052	948.21
585.249	909.3
585.447	862.19
585.644	786.42
585.841	870.39
586.039	786.42
586.236	813.04
586.434	755.7
586.631	806.9
586.828	630.77
587.026	759.8
587.223	686.07
587.42	720.88
587.618	774.13
587.815	765.94
588.012	694.26
588.21	638.97
588.407	690.17
588.604	722.93
588.801	577.53
588.999	616.44
589.196	741.36
589.393	684.02
589.59	616.44
589.787	634.87
589.984	675.83
590.182	618.49
590.379	651.25
590.576	626.68
590.773	610.29
590.97	600.05
591.167	653.3
591.364	686.07
591.561	569.34
591.758	684.02
591.955	681.97
592.152	618.49
592.349	528.38
592.546	606.2
592.743	499.7
592.94	522.23
593.137	671.73
593.334	673.78
593.531	741.36
593.727	555
593.924	704.5
594.121	438.27
594.318	636.92
594.515	739.32
594.712	765.94
594.908	714.74
595.105	538.62
595.302	712.69
595.499	718.84
595.696	759.8
595.892	593.91
596.089	690.17
596.286	698.36
596.482	808.95
596.679	694.26
596.876	610.29
597.072	745.46
597.269	819.19
597.466	788.47
597.662	784.37
597.859	776.18
598.055	831.48
598.252	847.86
598.448	892.91
598.645	1001.46
598.841	956.4
599.038	1107.95
599.234	1103.86
599.431	1081.33
599.627	1046.51
599.824	1163.25
600.02	1003.5
600.217	1167.34
600.413	1290.22
600.609	1300.46
600.806	1535.98
601.002	1492.97
601.198	1288.17
601.395	1560.55
601.591	1632.23
601.787	1681.38
601.984	1734.63
602.18	1773.54
602.376	1841.12
602.572	1843.17
602.769	2002.91
602.965	2021.35
603.161	2140.13
603.357	2226.14
603.553	2254.81
603.75	2263.01
603.946	2510.81
604.142	2547.67
604.338	2562.01
604.534	2648.02
604.73	2795.48
604.926	2686.93
605.122	3047.38
605.318	3016.66
605.514	3084.24
605.71	3262.41
605.906	3319.76
606.102	3381.2
606.298	3598.28
606.494	3708.87
606.69	3735.49
606.886	3749.83
607.082	3829.7
607.278	3903.43
607.474	4157.38
607.67	4304.83
607.866	4009.92
608.062	4534.2
608.257	4685.75
608.453	4644.79
608.649	4825.01
608.845	4898.74
609.041	4958.13
609.236	5289.9
609.432	5521.32
609.628	5509.04
609.824	5840.81
610.019	5846.95
610.215	5873.57
610.411	6291.36
610.606	6377.37
610.802	6530.97
610.998	6535.07
611.193	6850.46
611.389	6973.33
611.584	7208.85
611.78	7145.36
611.976	7661.45
612.171	8007.56
612.367	8001.41
612.562	8208.26
612.758	8318.85
612.953	8488.83
613.149	8884.09
613.344	9029.49
613.539	9275.25
613.735	9394.03
613.93	9781.1
614.126	9912.17
614.321	10178.4
614.517	10520.42
614.712	10936.15
614.907	11034.46
615.103	11274.07
615.298	11564.88
615.493	11747.15
615.688	12054.34
615.884	12695.36
616.079	12750.65
616.274	13365.04
616.47	13297.46
616.665	13711.15
616.86	14096.17
617.055	14366.5
617.25	14890.78
617.445	15333.14
617.641	15505.17
617.836	15834.89
618.031	16221.96
618.226	17043.2
618.421	16967.42
618.616	17440.5
618.811	17880.82
619.006	18386.66
619.201	18786.02
619.396	19193.56
619.591	19107.55
619.786	19908.3
619.981	20061.9
620.176	20920
620.371	20975.3
620.566	21622.45
620.761	22070.96
620.956	22570.66
621.151	23041.7
621.346	23402.14
621.541	23570.07
621.735	24454.79
621.93	24530.57
622.125	25038.47
622.32	25261.69
622.515	26271.34
622.709	26390.13
622.904	26973.8
623.099	27457.12
623.294	27981.4
623.488	28317.26
623.683	28954.18
623.878	28911.17
624.072	29867.58
624.267	30332.47
624.462	30565.93
624.656	31030.82
624.851	31944.22
625.046	32009.75
625.24	32693.77
625.435	32646.67
625.629	33435.14
625.824	33633.79
626.018	34514.42
626.213	34123.26
626.407	35214.82
626.602	34973.16
626.796	35737.05
626.991	36128.22
627.185	36511.19
627.38	36410.84
627.574	36867.53
627.768	36931.02
627.963	36939.21
628.157	37518.79
628.352	37658.05
628.546	36777.42
628.74	37905.85
628.935	37144.01
629.129	37260.74
629.323	37154.25
629.517	37037.51
629.712	36863.44
629.906	36957.64
630.1	36050.39
630.294	35786.21
630.489	35440.1
630.683	35411.43
630.877	34170.36
631.071	33994.23
631.265	34131.45
631.459	33017.35
631.653	32318.99
631.848	31622.69
632.042	30639.66
632.236	30393.9
632.43	29478.46
632.624	28624.46
632.818	27610.71
633.012	27209.31
633.206	25699.96
633.4	25482.88
633.594	24149.65
633.788	23748.25
633.982	22929.06
634.176	22386.35
634.369	21182.14
634.563	20346.57
634.757	19850.96
634.951	19052.25
635.145	18306.79
635.339	17583.86
635.533	16901.89
635.726	16387.85
635.92	15501.08
636.114	14896.92
636.308	14290.73
636.501	13897.52
636.695	13469.49
636.889	12769.09
637.083	12130.12
637.276	11626.32
637.47	11048.79
637.664	10659.68
637.857	10381.15
638.051	9936.74
638.244	9521.01
638.438	9103.22
638.632	8718.2
638.825	8322.94
639.019	8193.92
639.212	7710.6
639.406	7499.66
639.599	7077.78
639.793	6963.09
639.986	6483.87
640.18	6283.17
640.373	6107.04
640.567	5756.84
640.76	5861.29
640.954	5427.12
641.147	5189.55
641.34	4835.25
641.534	4970.42
641.727	4806.58
641.92	4444.09
642.114	4274.11
642.307	4186.05
642.5	4134.85
642.694	3944.39
642.887	3690.44
643.08	3536.84
643.273	3547.08
643.467	3286.99
643.66	3098.58
643.853	3143.63
644.046	3008.47
644.239	2904.02
644.432	2746.33
644.626	2478.04
644.819	2502.62
645.012	2494.43
645.205	2355.16
645.398	2269.15
645.591	2168.8
645.784	1964
645.977	1961.95
646.17	1890.28
646.363	1783.78
646.556	1843.17
646.749	1673.19
646.942	1630.18
647.135	1632.23
647.328	1484.78
647.521	1478.63
647.714	1431.53
647.907	1413.1
648.099	1355.76
648.292	1415.15
648.485	1245.16
648.678	1062.9
648.871	1116.14
649.064	1134.57
649.256	1038.32
649.449	1009.65
649.642	942.07
649.835	974.83
650.027	776.18
650.22	995.31
650.413	786.42
650.605	927.73
650.798	751.6
650.991	761.84
651.183	780.28
651.376	782.32
651.568	716.79
651.761	645.11
651.954	638.97
652.146	550.9
652.339	708.6
652.531	659.45
652.724	514.04
652.916	593.91
653.109	514.04
653.301	626.68
653.494	530.42
653.686	581.62
653.879	624.63
654.071	577.53
654.263	446.46
654.456	395.26
654.648	546.81
654.84	538.62
655.033	290.81
655.225	550.9
655.417	245.76
655.61	479.22
655.802	528.38
655.994	557.05
656.186	264.19
656.379	442.36
656.571	317.44
656.763	286.72
656.955	323.58
657.148	227.32
657.34	319.48
657.532	309.24
657.724	239.61
657.916	286.72
658.108	364.54
658.3	395.26
658.492	331.77
658.684	202.75
658.876	339.96
659.068	219.13
659.26	188.41
659.452	206.84
659.644	278.52
659.836	397.31
660.028	212.99
660.22	126.97
660.412	239.61
660.604	237.56
660.796	174.08
660.988	243.71
661.18	276.48
661.372	264.19
661.563	280.57
661.755	208.89
661.947	133.12
662.139	184.32
662.331	163.84
662.522	217.08
662.714	129.02
662.906	151.55
663.097	215.04
663.289	159.74
663.481	94.21
663.673	262.14
663.864	133.12
664.056	172.03
664.247	98.3
664.439	176.13
664.631	200.7
664.822	182.27
665.014	241.66
665.205	92.16
665.397	120.83
665.588	86.01
665.78	88.06
665.971	188.41
666.163	206.84
666.354	198.65
666.546	155.65
666.737	83.97
666.929	137.21
667.12	186.37
667.311	217.08
667.503	151.55
667.694	167.93
667.885	196.6
668.077	169.98
668.268	92.16
668.459	186.37
668.651	169.98
668.842	145.41
669.033	73.73
669.224	73.73
669.416	290.81
669.607	151.55
669.798	43.01
669.989	221.18
670.18	122.88
670.371	194.56
670.563	81.92
670.754	188.41
670.945	169.98
671.136	190.46
671.327	61.44
671.518	212.99
671.709	223.23
671.9	235.52
672.091	200.7
672.282	143.36
672.473	151.55
672.664	126.97
672.855	153.6
673.046	294.91
673.237	198.65
673.428	79.87
673.619	151.55
673.809	63.49
674	278.52
674.191	180.22
674.382	178.17
674.573	94.21
674.764	241.66
674.954	251.9
675.145	98.3
675.336	77.82
675.527	172.03
675.717	100.35
675.908	155.65
676.099	114.69
676.289	137.21
676.48	77.82
676.671	110.59
676.861	122.88
677.052	258.04
677.243	149.5
677.433	167.93
677.624	190.46
677.814	141.31
678.005	114.69
678.195	245.76
678.386	86.01
678.576	215.04
678.767	63.49
678.957	83.97
679.148	208.89
679.338	243.71
679.529	270.33
679.719	118.78
679.909	210.94
680.1	225.28
680.29	190.46
680.481	61.44
680.671	296.96
680.861	198.65
681.052	116.73
681.242	133.12
681.432	188.41
681.622	139.26
681.813	129.02
682.003	204.8
682.193	182.27
682.383	229.37
682.573	145.41
682.764	131.07
682.954	182.27
683.144	239.61
683.334	192.51
683.524	59.39
683.714	217.08
683.904	215.04
684.094	86.01
684.284	288.76
684.474	411.64
684.664	225.28
684.854	221.18
685.044	202.75
685.234	190.46
685.424	225.28
685.614	186.37
685.804	284.67
685.994	210.94
686.184	122.88
686.374	372.73
686.564	217.08
686.753	247.8
686.943	86.01
687.133	176.13
687.323	145.41
687.513	249.85
687.702	229.37
687.892	174.08
688.082	272.38
688.272	372.73
688.461	217.08
688.651	296.96
688.841	217.08
689.03	258.04
689.22	217.08
689.41	305.15
689.599	194.56
689.789	178.17
689.979	276.48
690.168	167.93
690.358	360.44
690.547	276.48
690.737	215.04
690.926	208.89
691.116	174.08
691.305	217.08
691.495	196.6
691.684	190.46
691.874	151.55
692.063	116.73
692.252	268.28
692.442	235.52
692.631	212.99
692.82	137.21
693.01	217.08
693.199	180.22
693.388	126.97
693.578	159.74
693.767	243.71
693.956	165.89
694.146	184.32
694.335	194.56
694.524	217.08
694.713	159.74
694.902	86.01
695.092	219.13
695.281	233.47
695.47	165.89
695.659	149.5
695.848	225.28
696.037	120.83
696.226	294.91
696.415	245.76
696.604	251.9
696.793	184.32
696.982	112.64
697.171	325.63
697.36	202.75
697.549	235.52
697.738	104.45
697.927	204.8
698.116	106.49
698.305	229.37
698.494	149.5
698.683	192.51
698.872	366.59
699.061	184.32
699.25	231.42
699.438	194.56
699.627	114.69
699.816	364.54
700.005	75.77
700.193	131.07
700.382	258.04
700.571	243.71
700.76	204.8
700.948	264.19
701.137	229.37
701.326	245.76
701.514	96.25
701.703	223.23
701.892	212.99
702.08	331.77
702.269	92.16
702.457	245.76
702.646	237.56
702.834	204.8
703.023	317.44
703.212	288.76
703.4	251.9
703.589	219.13
703.777	133.12
703.965	106.49
704.154	206.84
704.342	53.25
704.531	116.73
704.719	239.61
704.907	227.32
705.096	155.65
705.284	172.03
705.472	223.23
705.661	167.93
705.849	333.82
706.037	313.34
706.226	194.56
706.414	200.7
706.602	157.69
706.79	284.67
706.979	159.74
707.167	251.9
707.355	43.01
707.543	194.56
707.731	190.46
707.919	192.51
708.107	122.88
708.296	147.45
708.484	174.08
708.672	210.94
708.86	215.04
709.048	178.17
709.236	110.59
709.424	247.8
709.612	198.65
709.8	96.25
709.988	243.71
710.176	210.94
710.364	264.19
710.551	223.23
710.739	184.32
710.927	155.65
711.115	124.93
711.303	245.76
711.491	176.13
711.679	36.86
711.866	268.28
712.054	192.51
712.242	256
712.43	243.71
712.617	100.35
712.805	264.19
712.993	165.89
713.181	86.01
713.368	303.1
713.556	262.14
713.744	200.7
713.931	395.26
714.119	215.04
714.306	161.79
714.494	163.84
714.682	182.27
714.869	45.06
715.057	247.8
715.244	90.11
715.432	161.79
715.619	174.08
715.807	167.93
715.994	178.17
716.182	231.42
716.369	276.48
716.556	202.75
716.744	141.31
716.931	122.88
717.119	210.94
717.306	184.32
717.493	249.85
717.681	149.5
717.868	163.84
718.055	311.29
718.242	180.22
718.43	225.28
718.617	272.38
718.804	159.74
718.991	276.48
719.179	118.78
719.366	167.93
719.553	294.91
719.74	204.8
719.927	139.26
720.114	176.13
720.301	176.13
720.488	184.32
720.676	116.73
720.863	249.85
721.05	282.62
721.237	161.79
721.424	272.38
721.611	274.43
721.798	145.41
721.985	167.93
722.172	100.35
722.358	215.04
722.545	272.38
722.732	253.95
722.919	366.59
723.106	231.42
723.293	241.66
723.48	178.17
723.667	264.19
723.853	288.76
724.04	268.28
724.227	299
724.414	184.32
724.6	294.91
724.787	337.91
724.974	335.87
725.161	182.27
725.347	131.07
725.534	210.94
725.72	335.87
725.907	278.52
726.094	323.58
726.28	231.42
726.467	204.8
726.653	198.65
726.84	317.44
727.027	309.24
727.213	210.94
727.4	176.13
727.586	282.62
727.773	270.33
727.959	243.71
728.145	278.52
728.332	186.37
728.518	215.04
728.705	315.39
728.891	247.8
729.077	262.14
729.264	233.47
729.45	151.55
729.636	278.52
729.823	260.09
730.009	280.57
730.195	239.61
730.382	321.53
730.568	202.75
730.754	212.99
730.94	280.57
731.126	311.29
731.313	335.87
731.499	253.95
731.685	354.3
731.871	333.82
732.057	319.48
732.243	301.05
732.429	126.97
732.615	342.01
732.801	327.67
732.987	155.65
733.173	188.41
733.359	319.48
733.545	303.1
733.731	258.04
733.917	290.81
734.103	327.67
734.289	208.89
734.475	231.42
734.661	380.92
734.847	196.6
735.033	258.04
735.219	290.81
735.404	354.3
735.59	86.01
735.776	253.95
735.962	256
736.148	280.57
736.333	274.43
736.519	227.32
736.705	239.61
736.89	237.56
737.076	217.08
737.262	208.89
737.447	184.32
737.633	256
737.819	321.53
738.004	219.13
738.19	282.62
738.375	296.96
738.561	268.28
738.747	247.8
738.932	194.56
739.118	417.79
739.303	223.23
739.489	313.34
739.674	288.76
739.859	77.82
740.045	233.47
740.23	227.32
740.416	194.56
740.601	290.81
740.786	278.52
740.972	196.6
741.157	178.17
741.342	129.02
741.528	172.03
741.713	241.66
741.898	237.56
742.084	253.95
742.269	241.66
742.454	333.82
742.639	237.56
742.824	243.71
743.01	278.52
743.195	374.78
743.38	319.48
743.565	274.43
743.75	219.13
743.935	241.66
744.12	301.05
744.305	135.17
744.49	139.26
744.675	262.14
744.86	206.84
745.045	319.48
745.23	274.43
745.415	243.71
745.6	409.59
745.785	178.17
745.97	307.2
746.155	280.57
746.34	352.25
746.525	266.24
746.71	331.77
746.895	161.79
747.079	165.89
747.264	200.7
747.449	280.57
747.634	331.77
747.819	260.09
748.003	190.46
748.188	104.45
748.373	239.61
748.557	274.43
748.742	219.13
748.927	237.56
749.111	167.93
749.296	249.85
749.481	270.33
749.665	247.8
749.85	223.23
750.034	272.38
750.219	219.13
750.404	118.78
750.588	256
750.773	231.42
750.957	174.08
751.141	204.8
751.326	198.65
751.51	131.07
751.695	167.93
751.879	174.08
752.064	327.67
752.248	184.32
752.432	288.76
752.617	253.95
752.801	243.71
752.985	161.79
753.17	278.52
753.354	190.46
753.538	172.03
753.722	126.97
753.907	169.98
754.091	178.17
754.275	264.19
754.459	88.06
754.643	118.78
754.828	143.36
755.012	223.23
755.196	147.45
755.38	114.69
755.564	118.78
755.748	135.17
755.932	196.6
756.116	266.24
756.3	229.37
756.484	153.6
756.668	178.17
756.852	47.1
757.036	102.4
757.22	141.31
757.404	53.25
757.588	124.93
757.772	231.42
757.956	204.8
758.14	276.48
758.323	100.35
758.507	114.69
758.691	86.01
758.875	274.43
759.059	215.04
759.242	118.78
759.426	55.3
759.61	221.18
759.794	176.13
759.977	210.94
760.161	337.91
760.345	147.45
760.528	235.52
760.712	73.73
760.895	143.36
761.079	63.49
761.263	88.06
761.446	116.73
761.63	131.07
761.813	192.51
761.997	98.3
762.18	135.17
762.364	182.27
762.547	12.29
762.731	104.45
762.914	102.4
763.098	67.58
763.281	98.3
763.464	174.08
763.648	106.49
763.831	112.64
764.015	28.67
764.198	194.56
764.381	120.83
764.564	124.93
764.748	108.54
764.931	233.47
765.114	12.29
765.297	178.17
765.481	53.25
765.664	176.13
765.847	24.58
766.03	174.08
766.213	67.58
766.397	118.78
766.58	-12.29
766.763	186.37
766.946	122.88
767.129	159.74
767.312	69.63
767.495	124.93
767.678	120.83
767.861	157.69
768.044	88.06
768.227	165.89
768.41	112.64
768.593	157.69
768.776	102.4
768.959	94.21
769.142	172.03
769.324	112.64
769.507	124.93
769.69	104.45
769.873	67.58
770.056	215.04
770.239	71.68
770.421	241.66
770.604	131.07
770.787	71.68
770.97	98.3
771.152	59.39
771.335	98.3
771.518	36.86
771.7	184.32
771.883	221.18
772.066	10.24
772.248	110.59
772.431	210.94
772.613	145.41
772.796	83.97
772.978	174.08
773.161	217.08
773.343	36.86
773.526	14.34
773.708	-34.82
773.891	-118.78
774.073	36.86
774.256	96.25
774.438	192.51
774.621	34.82
774.803	118.78
774.985	155.65
775.168	102.4
775.35	26.62
775.532	141.31
775.715	71.68
775.897	65.53
776.079	77.82
776.261	49.15
776.444	40.96
776.626	106.49
776.808	69.63
776.99	20.48
777.173	169.98
777.355	77.82
777.537	143.36
777.719	36.86
777.901	-4.1
778.083	49.15
778.265	24.58
778.447	124.93
778.629	40.96
778.811	118.78
778.993	139.26
779.175	172.03
779.357	90.11
779.539	4.1
779.721	167.93
779.903	116.73
780.085	137.21
780.267	100.35
780.449	100.35
780.631	94.21
780.812	143.36
780.994	-12.29
781.176	47.1
781.358	55.3
781.54	-18.43
781.721	92.16
781.903	200.7
782.085	-55.3
782.267	120.83
782.448	-20.48
782.63	-2.05
782.812	36.86
782.993	112.64
783.175	174.08
783.357	24.58
783.538	51.2
783.72	8.19
783.901	45.06
784.083	63.49
784.264	90.11
784.446	-51.2
784.627	-43.01
784.809	206.84
784.99	-49.15
785.172	172.03
785.353	-26.62
785.535	24.58
785.716	-59.39
785.897	6.14
786.079	-38.91
786.26	147.45
786.441	116.73
786.623	-49.15
786.804	65.53
786.985	83.97
787.167	86.01
787.348	108.54
787.529	26.62
787.71	141.31
787.891	22.53
788.073	-24.58
788.254	22.53
788.435	159.74
788.616	49.15
788.797	8.19
788.978	-4.1
789.159	16.38
789.34	96.25
789.522	2.05
789.703	-12.29
789.884	32.77
790.065	61.44
790.246	122.88
790.427	49.15
790.607	157.69
790.788	108.54
790.969	-34.82
791.15	92.16
791.331	-0
791.512	96.25
791.693	-6.14
791.874	49.15
792.054	208.89
792.235	65.53
792.416	90.11
792.597	-6.14
792.778	53.25
792.958	102.4
793.139	40.96
793.32	-34.82
793.5	-53.25
793.681	194.56
793.862	18.43
794.042	65.53
794.223	-20.48
794.404	24.58
794.584	-20.48
794.765	10.24
794.945	63.49
795.126	86.01
795.306	59.39
795.487	90.11
795.667	96.25
795.848	90.11
796.028	-47.1
796.209	38.91
796.389	-0
796.57	53.25
796.75	-26.62
796.93	-0
797.111	14.34
797.291	57.34
797.471	55.3
797.652	28.67
797.832	43.01
798.012	75.77
798.192	-38.91
798.373	-63.49
798.553	73.73
798.733	83.97
798.913	-24.58
799.093	-24.58
799.274	-0
799.454	75.77
799.634	106.49
799.814	77.82
799.994	143.36
800.174	108.54
800.354	8.19
800.534	-124.93
800.714	94.21
800.894	-26.62
801.074	-38.91
801.254	-57.34
801.434	73.73
801.614	79.87
801.794	2.05
801.974	1552.36
802.154	-69.63
802.334	43.01
802.514	-28.67
802.693	92.16
802.873	-0
803.053	137.21
803.233	108.54
803.413	59.39
803.592	-49.15
803.772	-8.19
803.952	53.25
804.131	-20.48
804.311	45.06
804.491	176.13
804.67	12.29
804.85	-71.68
805.03	43.01
805.209	145.41
805.389	-28.67
805.568	49.15
805.748	18.43
805.928	102.4
806.107	131.07
806.287	92.16
806.466	18.43
806.646	-45.06
806.825	26.62
807.004	-14.34
807.184	47.1
807.363	92.16
807.543	6.14
807.722	4.1
807.901	71.68
808.081	59.39
808.26	-124.93
808.439	-32.77
808.619	40.96
808.798	-38.91
808.977	75.77
809.156	133.12
809.336	43.01
809.515	61.44
809.694	-79.87
809.873	-4.1
810.052	86.01
810.231	90.11
810.411	63.49
810.59	157.69
810.769	-16.38
810.948	114.69
811.127	-92.16
811.306	-6.14
811.485	18.43
811.664	167.93
811.843	32.77
812.022	-28.67
812.201	-30.72
812.38	-16.38
812.559	4.1
812.737	92.16
812.916	-122.88
813.095	-8.19
813.274	24.58
813.453	4.1
813.632	32.77
813.811	57.34
813.989	2.05
814.168	63.49
814.347	-12.29
814.526	-32.77
814.704	116.73
814.883	88.06
815.062	-20.48
815.24	81.92
815.419	-106.49
815.598	-0
815.776	-92.16
815.955	20.48
816.133	-63.49
816.312	38.91
816.49	-47.1
816.669	-10.24
816.847	69.63
817.026	92.16
817.204	8.19
817.383	20.48
817.561	14.34
817.74	38.91
817.918	67.58
818.097	34.82
818.275	-12.29
818.453	59.39
818.632	129.02
818.81	28.67
818.988	-57.34
819.167	-14.34
819.345	26.62
819.523	-65.54
819.701	24.58
819.879	-14.34
820.058	-12.29
820.236	-43.01
820.414	61.44
820.592	28.67
820.77	-49.15
820.948	-63.49
821.127	-26.62
821.305	47.1
821.483	69.63
821.661	49.15
821.839	-2.05
822.017	-28.67
822.195	-10.24
822.373	106.49
822.551	6.14
822.729	94.21
822.907	-22.53
823.085	28.67
823.262	34.82
823.44	2.05
823.618	51.2
823.796	75.77
823.974	-18.43
824.152	-47.1
824.329	86.01
824.507	24.58
824.685	36.86
824.863	-47.1
825.04	69.63
825.218	57.34
825.396	94.21
825.574	4.1
825.751	24.58
825.929	45.06
826.107	-49.15
826.284	-53.25
826.462	4.1
826.639	-18.43
826.817	-165.89
826.994	2.05
827.172	-38.91
827.349	120.83
827.527	59.39
827.704	40.96
827.882	53.25
828.059	-34.82
828.237	20.48
828.414	34.82
828.591	-124.93
828.769	-12.29
828.946	-14.34
829.124	182.27
829.301	157.69
829.478	-51.2
829.655	-32.77
829.833	53.25
830.01	-59.39
830.187	65.53
830.364	-71.68
830.542	24.58
830.719	86.01
830.896	92.16
831.073	75.77
831.25	40.96
831.427	-2.05
831.604	10.24
831.782	-65.54
831.959	63.49
832.136	-10.24
832.313	38.91
832.49	4.1
832.667	-32.77
832.844	-47.1
833.021	77.82
833.198	49.15
833.374	118.78
833.551	16.38
833.728	-81.92
833.905	67.58
834.082	-88.06
834.259	2.05
834.436	104.45
834.612	-116.73
834.789	53.25
834.966	10.24
835.143	-10.24
835.319	30.72
835.496	100.35
835.673	14.34
835.85	116.73
836.026	36.86
836.203	28.67
836.38	49.15
836.556	-34.82
836.733	2.05
836.909	53.25
837.086	-2.05
837.262	-147.45
837.439	8.19
837.616	2.05
837.792	40.96
837.968	-4.1
838.145	-141.31
838.321	79.87
838.498	43.01
838.674	4.1
838.851	34.82
839.027	-36.86
839.203	47.1
839.38	-10.24
839.556	-8.19
839.732	79.87
839.909	-43.01
840.085	59.39
840.261	-36.86
840.437	-6.14
840.614	-75.77
840.79	126.97
840.966	61.44
841.142	51.2
841.318	-4.1
841.494	92.16
841.671	55.3
841.847	-34.82
842.023	-26.62
842.199	-18.43
842.375	133.12
842.551	-73.73
842.727	2.05
842.903	110.59
843.079	-90.11
843.255	34.82
843.431	16.38
843.607	55.3
843.783	-131.07
843.959	32.77
844.134	-53.25
844.31	149.5
844.486	2.05
844.662	-90.11
844.838	10.24
845.013	-0
845.189	176.13
845.365	32.77
845.541	-38.91
845.716	57.34
845.892	65.53
846.068	-12.29
846.244	-53.25
846.419	4.1
846.595	-81.92
846.77	-65.54
846.946	14.34
847.122	43.01
847.297	-34.82
847.473	186.37
847.648	-65.54
847.824	110.59
847.999	-184.32
848.175	-49.15
848.35	6.14
848.526	26.62
848.701	79.87
848.876	88.06
849.052	57.34
849.227	77.82
849.403	-0
849.578	32.77
849.753	65.53
849.929	102.4
850.104	-36.86
850.279	-34.82
850.454	-12.29
850.63	53.25
850.805	2.05
850.98	20.48
851.155	4.1
851.33	65.53
851.505	-30.72
851.681	116.73
851.856	-61.44
852.031	-49.15
852.206	51.2
852.381	-63.49
852.556	-20.48
852.731	51.2
852.906	110.59
853.081	53.25
853.256	28.67
853.431	-49.15
853.606	28.67
853.781	-77.82
853.956	-81.92
854.131	-6.14
854.305	-4.1
854.48	-10.24
854.655	-26.62
854.83	-20.48
855.005	2.05
855.18	22.53
855.354	-4.1
855.529	53.25
855.704	-45.06
855.879	73.73
856.053	-55.3
856.228	45.06
856.403	-122.88
856.577	-47.1
856.752	-139.26
856.926	-14.34
857.101	40.96
857.276	-100.35
857.45	96.25
857.625	86.01
857.799	-26.62
857.974	36.86
858.148	-57.34
858.323	57.34
858.497	-10.24
858.672	-10.24
858.846	8.19
859.02	71.68
859.195	-30.72
859.369	30.72
859.543	30.72
859.718	-63.49
859.892	2.05
860.066	106.49
860.241	-90.11
860.415	6.14
860.589	-32.77
860.763	-34.82
860.938	-47.1
861.112	-36.86
861.286	45.06
861.46	-36.86
861.634	-51.2
861.808	81.92
861.982	-4.1
862.157	-71.68
862.331	-67.58
862.505	-45.06
862.679	-22.53
862.853	12.29
863.027	2.05
863.201	26.62
863.375	-69.63
863.549	75.77
863.722	51.2
863.896	79.87
864.07	18.43
864.244	34.82
864.418	65.53
864.592	14.34
864.766	-22.53
864.939	71.68
865.113	-26.62
865.287	38.91
865.461	-79.87
865.634	139.26
865.808	63.49
865.982	-49.15
866.156	-6.14
866.329	-61.44
866.503	32.77
866.676	55.3
866.85	-8.19
867.024	-77.82
867.197	-10.24
867.371	110.59
867.544	12.29
867.718	-96.25
867.891	32.77
868.065	-12.29
868.238	-22.53
868.412	141.31
868.585	-6.14
868.759	-98.3
868.932	-40.96
869.105	-63.49
869.279	-73.73
869.452	-38.91
869.625	79.87
869.799	-36.86
869.972	-61.44
870.145	-36.86
870.319	8.19
870.492	55.3
870.665	-43.01
870.838	-32.77
871.011	-126.97
871.185	-26.62
871.358	-24.58
871.531	110.59
871.704	28.67
871.877	10.24
872.05	-22.53
872.223	-61.44
872.396	67.58
872.569	98.3
872.742	-69.63
872.915	108.54
873.088	-26.62
873.261	-0
873.434	133.12
873.607	32.77
873.78	88.06
873.953	-88.06
874.126	-40.96
874.299	-65.54
874.471	36.86
874.644	-45.06
874.817	20.48
874.99	159.74
875.163	-75.77
875.335	83.97
875.508	-12.29
875.681	135.17
875.853	-4.1
876.026	-63.49
876.199	32.77
876.371	12.29
876.544	-18.43
876.717	-69.63
876.889	-57.34
877.062	24.58
877.234	-108.54
877.407	-63.49
877.579	4.1
877.752	36.86
877.924	38.91
878.097	61.44
878.269	90.11
878.442	45.06
878.614	79.87
878.786	-14.34
878.959	-0
879.131	-2.05
879.303	-55.3
879.476	-47.1
879.648	47.1
879.82	-45.06
879.993	-2.05
880.165	-32.77
880.337	-12.29
880.509	-14.34
880.681	-92.16
880.854	-53.25
881.026	83.97
881.198	88.06
881.37	73.73
881.542	14.34
881.714	8.19
881.886	71.68
882.058	26.62
882.23	-47.1
882.402	-77.82
882.574	73.73
882.746	90.11
882.918	30.72
883.09	12.29
883.262	-38.91
883.434	40.96
883.606	-77.82
883.778	14.34
883.95	112.64
884.122	47.1
884.293	69.63
884.465	-51.2
884.637	67.58
884.809	-18.43
884.98	38.91
885.152	-12.29
885.324	-6.14
885.496	-40.96
885.667	-30.72
885.839	14.34
886.011	69.63
886.182	43.01
886.354	55.3
886.525	-2.05
886.697	-43.01
886.869	-45.06
887.04	-20.48
887.212	63.49
887.383	192.51
887.555	69.63
887.726	26.62
887.897	2.05
888.069	22.53
888.24	40.96
888.412	-8.19
888.583	-83.97
888.754	16.38
888.926	-63.49
889.097	-16.38
889.268	-65.54
889.44	65.53
889.611	-67.58
889.782	-90.11
889.953	-79.87
890.125	61.44
890.296	10.24
890.467	20.48
890.638	28.67
890.809	-63.49
890.98	16.38
891.151	-28.67
891.323	77.82
891.494	-47.1
891.665	-8.19
891.836	-63.49
892.007	18.43
892.178	51.2
892.349	-45.06
892.52	-47.1
892.691	-2.05
892.862	-20.48
893.032	-126.97
893.203	-77.82
893.374	6.14
893.545	86.01
893.716	34.82
893.887	120.83
894.057	-12.29
894.228	-26.62
894.399	26.62
894.57	61.44
894.74	-32.77
894.911	26.62
895.082	-16.38
895.253	-34.82
895.423	73.73
895.594	51.2
895.764	22.53
895.935	-129.02
896.106	38.91
896.276	-53.25
896.447	22.53
896.617	-2.05
896.788	-20.48
896.958	-65.54
897.129	-73.73
897.299	-73.73
897.47	83.97
897.64	81.92
897.81	-6.14
897.981	16.38
898.151	-0
898.322	110.59
898.492	-32.77
898.662	-98.3
898.832	-51.2
899.003	-28.67
899.173	122.88
899.343	-22.53
899.513	-65.54
