Data from USB4F104151__134__10-46-48-653.txt Node

Date: Wed Feb 26 10:46:48 EST 2025
User: louis
Spectrometer: USB4F10415
Trigger mode: 4
Integration Time (sec): 1.000000E-1
Scans to average: 1
Electric dark correction enabled: true
Nonlinearity correction enabled: false
Boxcar width: 0
XAxis mode: Wavelengths
Number of Pixels in Spectrum: 3648
>>>>>Begin Spectral Data<<<<<
178.204	-412.15
178.424	-412.15
178.644	-412.15
178.864	-403.96
179.084	-369.15
179.304	28.16
179.524	-20.99
179.744	56.83
179.964	56.83
180.184	36.35
180.404	7.68
180.624	-47.62
180.844	13.82
181.064	-121.34
181.283	22.02
181.503	-6.66
181.723	-25.09
181.943	-80.38
182.163	187.9
182.383	52.74
182.602	32.26
182.822	103.93
183.042	122.37
183.262	9.73
183.482	-18.94
183.701	48.64
183.921	34.3
184.141	-76.29
184.361	62.98
184.58	17.92
184.8	28.16
185.02	-45.57
185.239	89.6
185.459	77.31
185.679	112.13
185.898	-107.01
186.118	32.26
186.338	-18.94
186.557	81.41
186.777	-68.09
186.997	-6.66
187.216	5.63
187.436	165.37
187.655	116.22
187.875	34.3
188.095	11.78
188.314	185.85
188.534	97.79
188.753	-18.94
188.973	69.12
189.192	161.28
189.412	-8.7
189.631	-49.66
189.851	-31.23
190.07	140.8
190.29	-80.38
190.509	40.45
190.729	-2.56
190.948	255.48
191.168	210.43
191.387	124.41
191.607	114.17
191.826	34.3
192.045	-12.8
192.265	36.35
192.484	3.58
192.704	11.78
192.923	-92.67
193.142	165.37
193.362	126.46
193.581	58.88
193.8	-20.99
194.02	101.89
194.239	95.74
194.458	73.21
194.678	75.26
194.897	-20.99
195.116	17.92
195.335	79.36
195.555	77.31
195.774	-29.18
195.993	110.08
196.212	-12.8
196.432	-25.09
196.651	-49.66
196.87	65.02
197.089	226.81
197.308	60.93
197.528	103.93
197.747	-100.86
197.966	-29.18
198.185	75.26
198.404	-127.49
198.623	169.47
198.842	91.65
199.062	112.13
199.281	114.17
199.5	91.65
199.719	58.88
199.938	-25.09
200.157	75.26
200.376	83.45
200.595	179.71
200.814	-4.61
201.033	-41.47
201.252	126.46
201.471	69.12
201.69	144.89
201.909	28.16
202.128	93.69
202.347	11.78
202.566	-6.66
202.785	-127.49
203.004	34.3
203.223	200.19
203.442	87.55
203.661	-104.96
203.879	36.35
204.098	138.75
204.317	-10.75
204.536	134.65
204.755	56.83
204.974	116.22
205.193	40.45
205.411	130.56
205.63	97.79
205.849	7.68
206.068	-14.85
206.287	-37.38
206.505	134.65
206.724	-61.95
206.943	48.64
207.162	-41.47
207.381	-14.85
207.599	19.97
207.818	40.45
208.037	-41.47
208.255	17.92
208.474	11.78
208.693	-14.85
208.911	-27.14
209.13	140.8
209.349	177.66
209.567	3.58
209.786	81.41
210.005	50.69
210.223	56.83
210.442	-111.1
210.661	32.26
210.879	85.5
211.098	65.02
211.316	140.8
211.535	146.94
211.753	38.4
211.972	67.07
212.191	26.11
212.409	67.07
212.628	17.92
212.846	-14.85
213.065	-25.09
213.283	5.63
213.502	105.98
213.72	65.02
213.938	58.88
214.157	-4.61
214.375	87.55
214.594	-20.99
214.812	95.74
215.031	-29.18
215.249	65.02
215.467	-18.94
215.686	52.74
215.904	48.64
216.122	-18.94
216.341	99.84
216.559	-2.56
216.778	34.3
216.996	142.85
217.214	-72.19
217.432	-0.51
217.651	-51.71
217.869	79.36
218.087	3.58
218.306	-6.66
218.524	40.45
218.742	13.82
218.96	48.64
219.179	-8.7
219.397	-2.56
219.615	232.96
219.833	91.65
220.051	-31.23
220.27	95.74
220.488	112.13
220.706	56.83
220.924	-39.42
221.142	1.54
221.36	50.69
221.578	62.98
221.796	-25.09
222.015	32.26
222.233	105.98
222.451	187.9
222.669	30.21
222.887	112.13
223.105	5.63
223.323	19.97
223.541	-45.57
223.759	19.97
223.977	71.17
224.195	138.75
224.413	108.03
224.631	9.73
224.849	52.74
225.067	189.95
225.285	-41.47
225.503	-14.85
225.721	-92.67
225.939	5.63
226.157	97.79
226.375	253.44
226.592	-57.86
226.81	9.73
227.028	89.6
227.246	128.51
227.464	95.74
227.682	-14.85
227.9	93.69
228.117	3.58
228.335	65.02
228.553	58.88
228.771	38.4
228.989	93.69
229.206	112.13
229.424	-0.51
229.642	42.5
229.86	-33.28
230.077	148.99
230.295	69.12
230.513	110.08
230.731	83.45
230.948	140.8
231.166	136.7
231.384	-55.81
231.601	-16.9
231.819	185.85
232.037	-25.09
232.254	42.5
232.472	32.26
232.689	3.58
232.907	75.26
233.125	-14.85
233.342	-12.8
233.56	-53.76
233.777	-0.51
233.995	13.82
234.213	85.5
234.43	148.99
234.648	62.98
234.865	40.45
235.083	73.21
235.3	1.54
235.518	69.12
235.735	105.98
235.953	77.31
236.17	17.92
236.388	-12.8
236.605	-12.8
236.822	116.22
237.04	11.78
237.257	91.65
237.475	-68.09
237.692	13.82
237.909	108.03
238.127	-2.56
238.344	26.11
238.562	46.59
238.779	-12.8
238.996	-37.38
239.214	-2.56
239.431	13.82
239.648	36.35
239.865	77.31
240.083	38.4
240.3	-66.05
240.517	-45.57
240.735	101.89
240.952	122.37
241.169	75.26
241.386	22.02
241.603	19.97
241.821	-82.43
242.038	116.22
242.255	120.32
242.472	-78.33
242.689	-45.57
242.907	30.21
243.124	36.35
243.341	17.92
243.558	-25.09
243.775	9.73
243.992	-78.33
244.209	40.45
244.426	157.18
244.643	-2.56
244.86	101.89
245.078	32.26
245.295	67.07
245.512	36.35
245.729	-82.43
245.946	-20.99
246.163	40.45
246.38	15.87
246.597	99.84
246.814	110.08
247.031	-23.04
247.248	67.07
247.464	30.21
247.681	50.69
247.898	28.16
248.115	28.16
248.332	-72.19
248.549	224.76
248.766	122.37
248.983	101.89
249.2	75.26
249.417	65.02
249.633	-2.56
249.85	169.47
250.067	7.68
250.284	58.88
250.501	159.23
250.717	22.02
250.934	-94.72
251.151	83.45
251.368	11.78
251.585	138.75
251.801	122.37
252.018	22.02
252.235	65.02
252.451	-31.23
252.668	-8.7
252.885	171.52
253.102	52.74
253.318	-64
253.535	3.58
253.752	42.5
253.968	-47.62
254.185	-39.42
254.401	36.35
254.618	26.11
254.835	-51.71
255.051	99.84
255.268	112.13
255.484	1.54
255.701	32.26
255.917	85.5
256.134	-6.66
256.351	22.02
256.567	15.87
256.784	83.45
257	-57.86
257.217	124.41
257.433	95.74
257.65	87.55
257.866	159.23
258.082	-2.56
258.299	38.4
258.515	24.06
258.732	24.06
258.948	-47.62
259.165	7.68
259.381	24.06
259.597	75.26
259.814	9.73
260.03	3.58
260.246	22.02
260.463	77.31
260.679	155.13
260.895	1.54
261.112	48.64
261.328	54.78
261.544	-111.1
261.761	73.21
261.977	28.16
262.193	-84.48
262.409	58.88
262.626	5.63
262.842	42.5
263.058	46.59
263.274	48.64
263.49	48.64
263.707	108.03
263.923	101.89
264.139	-129.53
264.355	11.78
264.571	75.26
264.787	22.02
265.004	110.08
265.22	34.3
265.436	-4.61
265.652	32.26
265.868	22.02
266.084	-107.01
266.3	44.54
266.516	-27.14
266.732	22.02
266.948	24.06
267.164	46.59
267.38	79.36
267.596	124.41
267.812	99.84
268.028	19.97
268.244	34.3
268.46	-33.28
268.676	-20.99
268.892	24.06
269.108	-6.66
269.324	77.31
269.54	-33.28
269.756	69.12
269.972	5.63
270.188	26.11
270.403	-51.71
270.619	9.73
270.835	56.83
271.051	-57.86
271.267	-12.8
271.483	-59.9
271.698	173.57
271.914	13.82
272.13	3.58
272.346	44.54
272.562	60.93
272.777	108.03
272.993	9.73
273.209	11.78
273.425	124.41
273.64	15.87
273.856	46.59
274.072	30.21
274.287	-20.99
274.503	81.41
274.719	91.65
274.934	17.92
275.15	-102.91
275.366	-12.8
275.581	-31.23
275.797	48.64
276.012	81.41
276.228	38.4
276.444	-37.38
276.659	54.78
276.875	-14.85
277.09	-16.9
277.306	52.74
277.521	83.45
277.737	-10.75
277.952	118.27
278.168	22.02
278.383	15.87
278.599	-20.99
278.814	97.79
279.03	-25.09
279.245	89.6
279.461	48.64
279.676	1.54
279.892	-29.18
280.107	-35.33
280.322	-18.94
280.538	48.64
280.753	56.83
280.969	118.27
281.184	-23.04
281.399	192
281.615	50.69
281.83	91.65
282.045	-23.04
282.26	-45.57
282.476	19.97
282.691	122.37
282.906	46.59
283.122	58.88
283.337	40.45
283.552	110.08
283.767	-55.81
283.983	73.21
284.198	-31.23
284.413	7.68
284.628	-51.71
284.843	-23.04
285.058	-8.7
285.274	-23.04
285.489	-12.8
285.704	194.05
285.919	58.88
286.134	28.16
286.349	17.92
286.564	-86.53
286.779	77.31
286.995	83.45
287.21	-59.9
287.425	77.31
287.64	32.26
287.855	19.97
288.07	-4.61
288.285	65.02
288.5	73.21
288.715	32.26
288.93	40.45
289.145	-8.7
289.36	93.69
289.575	-35.33
289.79	81.41
290.004	-0.51
290.219	101.89
290.434	-35.33
290.649	-76.29
290.864	-6.66
291.079	28.16
291.294	46.59
291.509	50.69
291.724	65.02
291.938	-2.56
292.153	-23.04
292.368	56.83
292.583	38.4
292.798	46.59
293.012	85.5
293.227	87.55
293.442	50.69
293.657	-4.61
293.871	124.41
294.086	22.02
294.301	118.27
294.516	85.5
294.73	11.78
294.945	-53.76
295.16	19.97
295.374	91.65
295.589	169.47
295.804	-57.86
296.018	32.26
296.233	122.37
296.447	24.06
296.662	-61.95
296.877	122.37
297.091	-23.04
297.306	40.45
297.52	85.5
297.735	-37.38
297.949	56.83
298.164	75.26
298.378	-18.94
298.593	-2.56
298.807	-29.18
299.022	95.74
299.236	114.17
299.451	-12.8
299.665	5.63
299.88	-39.42
300.094	42.5
300.309	5.63
300.523	17.92
300.737	65.02
300.952	1.54
301.166	114.17
301.381	-49.66
301.595	17.92
301.809	-4.61
302.024	-18.94
302.238	-45.57
302.452	44.54
302.667	44.54
302.881	146.94
303.095	71.17
303.309	28.16
303.524	-55.81
303.738	-6.66
303.952	-8.7
304.166	24.06
304.381	-66.05
304.595	159.23
304.809	-8.7
305.023	11.78
305.237	24.06
305.452	-33.28
305.666	85.5
305.88	32.26
306.094	148.99
306.308	85.5
306.522	116.22
306.736	67.07
306.95	93.69
307.164	22.02
307.379	60.93
307.593	77.31
307.807	128.51
308.021	148.99
308.235	116.22
308.449	-98.81
308.663	-10.75
308.877	171.52
309.091	24.06
309.305	26.11
309.519	-53.76
309.733	214.52
309.947	-20.99
310.161	101.89
310.374	-45.57
310.588	69.12
310.802	-78.33
311.016	-20.99
311.23	91.65
311.444	-64
311.658	-57.86
311.872	85.5
312.085	65.02
312.299	95.74
312.513	153.09
312.727	32.26
312.941	-45.57
313.154	91.65
313.368	-10.75
313.582	3.58
313.796	42.5
314.009	19.97
314.223	26.11
314.437	65.02
314.651	75.26
314.864	-8.7
315.078	-0.51
315.292	1.54
315.505	-53.76
315.719	99.84
315.933	-4.61
316.146	-12.8
316.36	54.78
316.573	171.52
316.787	32.26
317.001	81.41
317.214	19.97
317.428	42.5
317.641	-12.8
317.855	44.54
318.068	17.92
318.282	58.88
318.495	128.51
318.709	118.27
318.922	26.11
319.136	177.66
319.349	54.78
319.563	-68.09
319.776	136.7
319.99	-55.81
320.203	99.84
320.417	15.87
320.63	97.79
320.843	214.52
321.057	42.5
321.27	-64
321.483	79.36
321.697	136.7
321.91	26.11
322.124	34.3
322.337	17.92
322.55	-66.05
322.763	65.02
322.977	32.26
323.19	60.93
323.403	28.16
323.617	91.65
323.83	103.93
324.043	-16.9
324.256	13.82
324.469	-70.14
324.683	73.21
324.896	5.63
325.109	95.74
325.322	-74.24
325.535	138.75
325.748	122.37
325.962	-12.8
326.175	132.61
326.388	36.35
326.601	93.69
326.814	30.21
327.027	58.88
327.24	97.79
327.453	-84.48
327.666	62.98
327.879	99.84
328.092	36.35
328.305	32.26
328.518	-6.66
328.731	19.97
328.944	-16.9
329.157	38.4
329.37	44.54
329.583	167.42
329.796	140.8
330.009	-57.86
330.222	120.32
330.435	81.41
330.648	1.54
330.861	50.69
331.073	-0.51
331.286	54.78
331.499	73.21
331.712	7.68
331.925	1.54
332.138	34.3
332.35	142.85
332.563	38.4
332.776	140.8
332.989	26.11
333.202	13.82
333.414	36.35
333.627	32.26
333.84	-4.61
334.053	93.69
334.265	30.21
334.478	22.02
334.691	-4.61
334.903	95.74
335.116	-25.09
335.329	67.07
335.541	60.93
335.754	81.41
335.966	-18.94
336.179	38.4
336.392	28.16
336.604	-6.66
336.817	93.69
337.029	62.98
337.242	-2.56
337.454	52.74
337.667	62.98
337.88	142.85
338.092	67.07
338.305	97.79
338.517	-31.23
338.729	38.4
338.942	42.5
339.154	-0.51
339.367	-6.66
339.579	101.89
339.792	3.58
340.004	108.03
340.217	-0.51
340.429	87.55
340.641	-74.24
340.854	-8.7
341.066	97.79
341.278	110.08
341.491	126.46
341.703	-27.14
341.915	-57.86
342.128	103.93
342.34	13.82
342.552	-31.23
342.764	-41.47
342.977	46.59
343.189	79.36
343.401	67.07
343.613	-96.77
343.826	87.55
344.038	-68.09
344.25	34.3
344.462	17.92
344.674	65.02
344.886	56.83
345.099	79.36
345.311	-2.56
345.523	19.97
345.735	-57.86
345.947	32.26
346.159	77.31
346.371	69.12
346.583	-35.33
346.795	163.33
347.007	9.73
347.219	71.17
347.431	-10.75
347.643	97.79
347.855	11.78
348.067	73.21
348.279	-45.57
348.491	-6.66
348.703	75.26
348.915	46.59
349.127	-18.94
349.339	30.21
349.551	15.87
349.763	118.27
349.975	-0.51
350.187	83.45
350.399	95.74
350.61	83.45
350.822	19.97
351.034	95.74
351.246	38.4
351.458	46.59
351.669	56.83
351.881	30.21
352.093	132.61
352.305	65.02
352.517	124.41
352.728	132.61
352.94	71.17
353.152	85.5
353.363	-66.05
353.575	32.26
353.787	73.21
353.999	56.83
354.21	136.7
354.422	-59.9
354.633	-6.66
354.845	1.54
355.057	87.55
355.268	77.31
355.48	73.21
355.692	-100.86
355.903	56.83
356.115	-23.04
356.326	-156.16
356.538	73.21
356.749	46.59
356.961	179.71
357.172	-27.14
357.384	-35.33
357.595	327.16
357.807	-4.61
358.018	13.82
358.23	26.11
358.441	130.56
358.653	77.31
358.864	69.12
359.075	-51.71
359.287	38.4
359.498	40.45
359.709	89.6
359.921	77.31
360.132	1.54
360.344	-29.18
360.555	-104.96
360.766	22.02
360.977	-84.48
361.189	83.45
361.4	3.58
361.611	46.59
361.823	167.42
362.034	9.73
362.245	-107.01
362.456	73.21
362.667	15.87
362.879	46.59
363.09	103.93
363.301	-18.94
363.512	9.73
363.723	17.92
363.935	5.63
364.146	120.32
364.357	24.06
364.568	-14.85
364.779	-43.52
364.99	108.03
365.201	-10.75
365.412	116.22
365.623	-82.43
365.834	26.11
366.045	85.5
366.256	42.5
366.467	124.41
366.678	-10.75
366.889	-12.8
367.1	-59.9
367.311	130.56
367.522	38.4
367.733	73.21
367.944	56.83
368.155	7.68
368.366	122.37
368.577	77.31
368.788	58.88
368.999	-70.14
369.209	9.73
369.42	202.24
369.631	310.78
369.842	40.45
370.053	15.87
370.264	65.02
370.474	-76.29
370.685	77.31
370.896	50.69
371.107	165.37
371.317	85.5
371.528	67.07
371.739	132.61
371.95	75.26
372.16	65.02
372.371	-82.43
372.582	-18.94
372.792	28.16
373.003	48.64
373.214	-2.56
373.424	101.89
373.635	-45.57
373.846	163.33
374.056	-27.14
374.267	-4.61
374.477	75.26
374.688	9.73
374.898	101.89
375.109	52.74
375.319	83.45
375.53	159.23
375.74	118.27
375.951	-20.99
376.161	79.36
376.372	165.37
376.582	36.35
376.793	99.84
377.003	-25.09
377.214	3.58
377.424	52.74
377.635	-12.8
377.845	-6.66
378.055	101.89
378.266	-86.53
378.476	-31.23
378.686	69.12
378.897	46.59
379.107	58.88
379.317	118.27
379.528	-8.7
379.738	77.31
379.948	-51.71
380.158	108.03
380.369	7.68
380.579	99.84
380.789	77.31
380.999	-2.56
381.21	124.41
381.42	185.85
381.63	-43.52
381.84	65.02
382.05	101.89
382.261	85.5
382.471	-2.56
382.681	-31.23
382.891	171.52
383.101	108.03
383.311	-0.51
383.521	-31.23
383.731	118.27
383.941	83.45
384.151	65.02
384.361	32.26
384.571	97.79
384.781	42.5
384.991	196.09
385.201	124.41
385.411	93.69
385.621	87.55
385.831	120.32
386.041	38.4
386.251	120.32
386.461	60.93
386.671	-47.62
386.881	42.5
387.091	-8.7
387.301	85.5
387.511	101.89
387.72	52.74
387.93	108.03
388.14	-59.9
388.35	99.84
388.56	179.71
388.769	99.84
388.979	17.92
389.189	-100.86
389.399	89.6
389.609	19.97
389.818	40.45
390.028	58.88
390.238	50.69
390.447	77.31
390.657	75.26
390.867	48.64
391.076	-37.38
391.286	9.73
391.496	67.07
391.705	52.74
391.915	134.65
392.125	110.08
392.334	48.64
392.544	114.17
392.753	17.92
392.963	-10.75
393.172	67.07
393.382	28.16
393.591	202.24
393.801	17.92
394.01	105.98
394.22	122.37
394.429	38.4
394.639	-14.85
394.848	44.54
395.058	89.6
395.267	-39.42
395.477	85.5
395.686	36.35
395.895	157.18
396.105	161.28
396.314	36.35
396.524	46.59
396.733	36.35
396.942	122.37
397.152	42.5
397.361	177.66
397.57	89.6
397.78	-4.61
397.989	36.35
398.198	243.2
398.407	71.17
398.617	-35.33
398.826	26.11
399.035	50.69
399.244	71.17
399.453	-4.61
399.663	22.02
399.872	32.26
400.081	42.5
400.29	132.61
400.499	-16.9
400.708	30.21
400.917	24.06
401.127	46.59
401.336	93.69
401.545	218.62
401.754	81.41
401.963	103.93
402.172	17.92
402.381	-25.09
402.59	17.92
402.799	40.45
403.008	138.75
403.217	11.78
403.426	91.65
403.635	-59.9
403.844	69.12
404.053	1.54
404.262	-4.61
404.471	153.09
404.68	56.83
404.888	15.87
405.097	67.07
405.306	34.3
405.515	34.3
405.724	-4.61
405.933	163.33
406.142	36.35
406.35	140.8
406.559	60.93
406.768	95.74
406.977	216.57
407.185	-4.61
407.394	22.02
407.603	69.12
407.812	65.02
408.02	153.09
408.229	-20.99
408.438	73.21
408.646	-66.05
408.855	7.68
409.064	1.54
409.272	-8.7
409.481	130.56
409.69	-49.66
409.898	-41.47
410.107	-33.28
410.315	136.7
410.524	-4.61
410.733	9.73
410.941	42.5
411.15	32.26
411.358	83.45
411.567	85.5
411.775	54.78
411.984	89.6
412.192	52.74
412.401	-31.23
412.609	192
412.818	89.6
413.026	110.08
413.234	-33.28
413.443	-72.19
413.651	5.63
413.86	-41.47
414.068	194.05
414.276	97.79
414.485	-23.04
414.693	134.65
414.901	138.75
415.11	34.3
415.318	81.41
415.526	83.45
415.734	138.75
415.943	58.88
416.151	192
416.359	40.45
416.567	99.84
416.776	30.21
416.984	138.75
417.192	114.17
417.4	28.16
417.608	-10.75
417.817	-90.62
418.025	81.41
418.233	206.33
418.441	-23.04
418.649	-47.62
418.857	69.12
419.065	196.09
419.273	67.07
419.481	11.78
419.689	-27.14
419.897	-2.56
420.105	-37.38
420.313	77.31
420.521	161.28
420.729	165.37
420.937	50.69
421.145	-39.42
421.353	130.56
421.561	214.52
421.769	140.8
421.977	85.5
422.185	103.93
422.393	-23.04
422.601	91.65
422.809	58.88
423.017	38.4
423.224	130.56
423.432	114.17
423.64	11.78
423.848	54.78
424.056	15.87
424.263	67.07
424.471	1.54
424.679	161.28
424.887	-47.62
425.094	187.9
425.302	83.45
425.51	-2.56
425.718	79.36
425.925	54.78
426.133	67.07
426.341	235
426.548	87.55
426.756	46.59
426.964	81.41
427.171	-51.71
427.379	177.66
427.586	159.23
427.794	151.04
428.001	132.61
428.209	214.52
428.417	181.76
428.624	116.22
428.832	142.85
429.039	62.98
429.247	9.73
429.454	110.08
429.662	228.86
429.869	91.65
430.076	144.89
430.284	93.69
430.491	200.19
430.699	157.18
430.906	187.9
431.114	52.74
431.321	89.6
431.528	153.09
431.736	97.79
431.943	159.23
432.15	140.8
432.358	85.5
432.565	259.58
432.772	116.22
432.979	169.47
433.187	140.8
433.394	177.66
433.601	65.02
433.808	155.13
434.016	212.48
434.223	198.14
434.43	146.94
434.637	220.67
434.844	253.44
435.052	249.34
435.259	210.43
435.466	292.35
435.673	265.72
435.88	243.2
436.087	337.4
436.294	343.55
436.501	353.79
436.708	216.57
436.915	321.02
437.122	445.95
437.329	286.2
437.537	380.41
437.743	333.31
437.95	517.62
438.157	382.46
438.364	384.51
438.571	427.51
438.778	454.14
438.985	462.33
439.192	478.71
439.399	413.18
439.606	491
439.813	497.14
440.02	527.86
440.227	620.02
440.433	599.54
440.64	593.4
440.847	439.8
441.054	591.35
441.261	691.7
441.467	671.22
441.674	525.82
441.881	790
442.088	564.73
442.294	693.75
442.501	753.14
442.708	816.63
442.914	720.37
443.121	796.15
443.328	869.87
443.534	923.12
443.741	945.65
443.948	837.11
444.154	959.99
444.361	1080.82
444.568	974.32
444.774	1013.23
444.981	964.08
445.187	1236.46
445.394	1181.17
445.6	1109.49
445.807	1242.61
446.013	1312.24
446.22	1193.45
446.426	1394.15
446.633	1547.75
446.839	1644.01
447.046	1263.08
447.252	1650.15
447.459	1596.9
447.665	1662.44
447.871	1801.7
448.078	1893.86
448.284	1859.04
448.491	1971.68
448.697	2131.42
448.903	2127.33
449.11	2082.27
449.316	2143.71
449.522	2393.56
449.728	2368.99
449.935	2502.11
450.141	2588.12
450.347	2809.3
450.553	2760.15
450.76	2723.29
450.966	2889.17
451.172	2946.52
451.378	3128.78
451.584	3096.02
451.791	3442.12
451.997	3478.99
452.203	3519.95
452.409	3651.02
452.615	3804.61
452.821	3673.54
453.027	3732.94
453.233	4433.34
453.44	4189.63
453.646	4410.81
453.852	4629.95
454.058	4576.7
454.264	4806.07
454.47	5176.75
454.676	5201.33
454.882	5864.87
455.088	5490.09
455.294	5627.31
455.5	6139.3
455.705	6487.45
455.911	6643.1
456.117	6639
456.323	6907.29
456.529	6831.51
456.735	7716.23
456.941	7687.56
457.147	7812.49
457.352	8240.51
457.558	8404.35
457.764	9053.56
457.97	9272.69
458.176	9385.33
458.381	10065.25
458.587	10349.92
458.793	10956.12
458.999	10771.8
459.204	12195.14
459.41	12422.47
459.616	12283.2
459.821	12848.44
460.027	13585.71
460.233	14038.31
460.438	14296.36
460.644	15162.65
460.85	15222.04
461.055	15774.99
461.261	16680.19
461.466	16076.04
461.672	16661.76
461.878	18234.6
462.083	18107.63
462.289	18562.28
462.494	19150.04
462.7	19496.15
462.905	19926.22
463.111	21390.52
463.316	22318.25
463.522	22430.89
463.727	23467.16
463.932	24493.19
464.138	25033.86
464.343	26442.86
464.549	26352.75
464.754	28273.74
464.959	28976.2
465.165	29633.6
465.37	28941.38
465.575	29406.27
465.781	31433.76
465.986	32009.24
466.191	31710.24
466.397	32140.31
466.602	31491.1
466.807	32728.08
467.012	33555.46
467.218	33971.19
467.423	34143.22
467.628	35093.48
467.833	36705.23
468.038	36113.37
468.244	35474.4
468.449	37911.49
468.654	36651.98
468.859	36674.51
469.064	36803.53
469.269	35732.45
469.474	36232.15
469.679	37282.76
469.885	36342.74
470.09	36959.18
470.295	37100.49
470.5	35826.65
470.705	36162.52
470.91	35285.99
471.115	34630.64
471.32	35181.54
471.525	35107.82
471.73	34089.98
471.935	34065.4
472.139	32769.04
472.344	32836.62
472.549	32586.77
472.754	32015.38
472.959	31046.69
473.164	30305.33
473.369	29467.71
473.574	30895.14
473.778	30053.43
473.983	29711.42
474.188	28949.57
474.393	27432.03
474.598	27112.55
474.802	27057.25
475.007	26920.04
475.212	26279.02
475.417	24827.01
475.621	25136.26
475.826	24552.59
476.031	24093.84
476.235	23587.99
476.44	23686.29
476.645	23020.7
476.849	22764.71
477.054	22428.84
477.259	21998.77
477.463	21851.31
477.668	21046.46
477.872	21173.44
478.077	20542.66
478.282	19944.66
478.486	20057.29
478.691	19774.67
478.895	19092.7
479.1	19227.87
479.304	19334.36
479.509	18279.66
479.713	18975.97
479.918	18341.1
480.122	17911.02
480.326	18068.72
480.531	18066.67
480.735	17808.62
480.94	17329.4
481.144	18146.54
481.348	16999.68
481.553	17501.43
481.757	16887.04
481.961	17192.19
482.166	17007.87
482.37	16868.61
482.574	16229.64
482.778	16383.24
482.983	16655.62
483.187	16356.61
483.391	15977.74
483.595	16170.25
483.8	15650.07
484.004	15924.49
484.208	15574.29
484.412	15496.47
484.616	15342.87
484.821	15217.94
485.025	14675.23
485.229	14882.08
485.433	14433.57
485.637	14515.49
485.841	14085.42
486.045	14204.2
486.249	13952.3
486.453	13589.81
486.657	13380.92
486.861	13112.63
487.065	12766.53
487.269	13026.62
487.473	12672.32
487.677	12623.17
487.881	12473.67
488.085	11814.22
488.289	12127.56
488.493	11568.46
488.697	11674.96
488.901	11232.6
489.105	11218.26
489.309	10843.48
489.512	10788.19
489.716	10534.24
489.92	10503.52
490.124	10050.92
490.328	10225
490.531	9790.83
490.735	9610.61
490.939	9661.8
491.143	9252.21
491.346	9166.2
491.55	9061.75
491.754	8967.54
491.958	8793.47
492.161	8635.77
492.365	8629.63
492.569	8310.15
492.772	8127.88
492.976	8220.03
493.18	8005
493.383	8062.34
493.587	7826.82
493.79	7808.39
493.994	7650.7
494.197	7554.44
494.401	7501.2
494.605	7478.67
494.808	7390.61
495.012	7323.02
495.215	7325.07
495.419	7288.21
495.622	7216.53
495.825	7107.99
496.029	6892.95
496.232	7097.75
496.436	7110.04
496.639	7146.9
496.843	7097.75
497.046	7044.5
497.249	7101.84
497.453	7050.64
497.656	6997.4
497.859	7024.02
498.063	7003.54
498.266	7198.1
498.469	6874.52
498.673	7013.78
498.876	7034.26
499.079	7048.6
499.282	6956.44
499.485	7493.01
499.689	7259.54
499.892	7368.08
500.095	7480.72
500.298	7490.96
500.501	7329.17
500.705	7493.01
500.908	7660.94
501.111	7456.14
501.314	7665.04
501.517	7757.19
501.72	7910.79
501.923	7875.98
502.126	7906.7
502.329	8035.72
502.532	8252.8
502.735	8195.46
502.938	8590.72
503.141	8414.59
503.344	8453.5
503.547	8598.91
503.75	8693.12
503.953	8809.85
504.156	8969.59
504.359	9254.26
504.562	9137.52
504.765	9381.23
504.968	9571.69
505.17	9698.67
505.373	9725.29
505.576	9985.38
505.779	9971.05
505.982	10294.63
506.185	10421.6
506.387	10411.36
506.59	10888.54
506.793	11042.14
506.996	11058.52
507.198	11687.25
507.401	11627.85
507.604	11990.35
507.807	12178.76
508.009	12225.86
508.212	12408.13
508.415	12688.7
508.617	12948.79
508.82	13239.61
509.022	13450.55
509.225	13851.95
509.428	14120.23
509.63	14251.3
509.833	14533.92
510.035	15340.82
510.238	15121.69
510.44	15484.18
510.643	16057.61
510.845	16461.06
511.048	16536.84
511.25	16899.33
511.453	17132.79
511.655	18212.07
511.858	18205.93
512.06	18650.34
512.262	18887.9
512.465	19274.97
512.667	19746
512.87	20301
513.072	20651.2
513.274	21181.63
513.477	21580.98
513.679	22281.39
513.881	22822.05
514.084	23106.72
514.286	23612.57
514.488	23882.9
514.69	25238.65
514.893	25302.14
515.095	25701.5
515.297	26293.36
515.499	26809.45
515.701	27511.9
515.904	28073.04
516.106	28601.42
516.308	29142.08
516.51	29496.38
516.712	30180.4
516.914	30843.95
517.116	31568.93
517.318	32341.01
517.52	32640.01
517.722	32828.43
517.925	33678.33
518.127	34507.76
518.329	35382.24
518.531	35122.15
518.733	36176.86
518.935	36719.57
519.136	37145.55
519.338	38015.93
519.54	38372.28
519.742	39222.19
519.944	39605.16
520.146	40485.78
520.348	40799.12
520.55	41190.28
520.752	41567.11
520.954	42478.46
521.155	42441.59
521.357	43150.19
521.559	44381.02
521.761	44622.68
521.963	44499.8
522.164	45419.34
522.366	45425.48
522.568	45837.12
522.77	46035.78
522.971	46936.88
523.173	46152.51
523.375	47297.33
523.576	47080.24
523.778	47661.86
523.98	48096.03
524.181	48296.74
524.383	48495.39
524.584	48878.36
524.786	48597.79
524.988	48515.87
525.189	48821.02
525.391	49341.2
525.592	49095.44
525.794	48995.09
525.995	49224.46
526.197	49009.43
526.398	49031.96
526.6	48771.86
526.801	49337.1
527.003	48778.01
527.204	48681.75
527.406	48821.02
527.607	48333.6
527.808	48372.51
528.01	47467.31
528.211	47526.7
528.412	47676.2
528.614	47336.24
528.815	46938.93
529.016	47014.71
529.218	45787.97
529.419	45914.95
529.62	45914.95
529.822	44884.82
530.023	45087.57
530.224	44473.18
530.425	44202.85
530.626	43152.24
530.828	42974.06
531.029	43389.8
531.23	42425.21
531.431	41649.03
531.632	41681.8
531.833	41114.51
532.035	40270.75
532.236	40020.89
532.437	39639.97
532.638	38939.57
532.839	39007.15
533.04	38538.16
533.241	37428.16
533.442	37698.5
533.643	36758.48
533.844	36226.01
534.045	35881.95
534.246	34880.49
534.447	34757.61
534.648	34157.56
534.849	34089.98
535.05	33125.38
535.251	33018.89
535.451	32506.9
535.652	32457.74
535.853	31788.06
536.054	31546.4
536.255	30964.78
536.456	30118.96
536.657	30225.46
536.857	29811.77
537.058	29404.22
537.259	29021.25
537.46	28626
537.66	28066.9
537.861	27933.78
538.062	26987.62
538.263	27075.68
538.463	26655.85
538.664	26317.93
538.865	25875.57
539.065	25578.62
539.266	25377.92
539.466	25064.58
539.667	24528.01
539.868	24693.9
540.068	24028.31
540.269	23565.46
540.469	23753.88
540.67	23409.82
540.87	23162.01
541.071	22785.19
541.271	22856.87
541.472	22418.6
541.672	22125.74
541.873	21922.99
542.073	21212.35
542.274	21388.47
542.474	20784.32
542.675	20554.95
542.875	20794.56
543.075	20208.84
543.276	19848.4
543.476	20223.18
543.676	19913.94
543.877	19457.24
544.077	19272.92
544.277	18975.97
544.478	18545.89
544.678	18851.04
544.878	18169.07
545.078	18160.87
545.279	17878.26
545.479	17501.43
545.679	17382.65
545.879	17278.2
546.079	17210.62
546.28	16833.79
546.48	16653.57
546.68	16766.21
546.88	16254.22
547.08	16270.6
547.28	15985.93
547.48	15381.78
547.68	15531.28
547.88	15342.87
548.081	15392.02
548.281	14802.21
548.481	14730.53
548.681	14701.86
548.881	14462.24
549.081	14255.4
549.28	13843.76
549.48	14036.27
549.68	13598
549.88	13622.58
550.08	13210.93
550.28	13063.48
550.48	13067.58
550.68	12709.18
550.88	12539.2
551.08	12307.78
551.279	12285.25
551.479	12002.63
551.679	12012.87
551.879	11697.49
552.079	11732.3
552.278	11437.39
552.478	11302.23
552.678	11128.15
552.878	10884.44
553.077	10743.13
553.277	10394.98
553.477	10478.94
553.676	10331.49
553.876	10155.37
554.076	9770.35
554.275	9835.88
554.475	9688.43
554.674	9500.02
554.874	9260.4
555.074	8965.5
555.273	9143.67
555.473	8742.27
555.672	8715.64
555.872	8631.68
556.071	8424.83
556.271	8643.96
556.47	8314.24
556.67	8056.2
556.869	8105.35
557.068	7828.87
557.268	7675.27
557.467	7482.77
557.667	7689.61
557.866	7363.98
558.065	7015.83
558.265	7054.74
558.464	6825.37
558.663	6938.01
558.863	6671.77
559.062	6802.84
559.261	6624.67
559.461	6514.08
559.66	6346.14
559.859	6149.54
560.058	6026.66
560.258	5821.86
560.457	5909.93
560.656	5883.3
560.855	5606.83
561.054	5877.16
561.253	5639.59
561.453	5442.99
561.652	5469.61
561.851	5389.74
562.05	5236.14
562.249	4945.33
562.448	5035.44
562.647	4820.41
562.846	4871.61
563.045	4844.98
563.244	4830.65
563.443	4857.27
563.642	4560.31
563.841	4629.95
564.04	4545.98
564.239	4490.68
564.438	4283.84
564.637	4292.03
564.836	4195.78
565.035	4122.05
565.234	4113.86
565.432	3962.31
565.631	4027.84
565.83	3925.44
566.029	3802.57
566.228	3923.4
566.427	3816.9
566.625	3839.43
566.824	3571.15
567.023	3579.34
567.222	3390.92
567.42	3511.75
567.619	3589.58
567.818	3411.4
568.016	3585.48
568.215	3343.82
568.414	3175.89
568.612	3175.89
568.811	3085.78
569.01	3212.75
569.208	2946.52
569.407	2997.71
569.605	3010
569.804	2911.7
570.002	2899.41
570.201	2825.68
570.4	2803.16
570.598	2737.62
570.797	2704.85
570.995	2629.08
571.193	2682.33
571.392	2541.02
571.59	2561.5
571.789	2588.12
571.987	2481.63
572.186	2512.35
572.384	2385.37
572.582	2375.13
572.781	2383.32
572.979	2172.38
573.177	2205.15
573.376	2143.71
573.574	2196.96
573.772	2108.9
573.971	2076.13
574.169	2010.59
574.367	2024.93
574.565	1975.78
574.763	1916.39
574.962	1992.16
575.16	1924.58
575.358	1791.46
575.556	1912.29
575.754	1867.24
575.952	1848.8
576.151	1758.69
576.349	1854.95
576.547	1601
576.745	1631.72
576.943	1736.17
577.141	1709.54
577.339	1494.51
577.537	1549.8
577.735	1709.54
577.933	1615.34
578.131	1471.98
578.329	1633.77
578.527	1420.78
578.725	1510.89
578.923	1293.8
579.121	1453.55
579.319	1129.97
579.516	1299.95
579.714	1500.65
579.912	1453.55
580.11	1152.49
580.308	1195.5
580.506	1191.41
580.704	1138.16
580.901	1170.93
581.099	1269.23
581.297	1232.37
581.495	1228.27
581.692	1175.02
581.89	1418.73
582.088	1224.17
582.285	990.7
582.483	1123.82
582.681	1103.34
582.878	984.56
583.076	980.47
583.274	964.08
583.471	1154.54
583.669	1021.42
583.866	888.31
584.064	1025.52
584.262	947.7
584.459	826.87
584.657	964.08
584.854	964.08
585.052	894.45
585.249	1058.29
585.447	962.03
585.644	761.33
585.841	945.65
586.039	876.02
586.236	939.51
586.434	755.19
586.631	749.04
586.828	689.65
587.026	777.72
587.223	728.56
587.42	769.52
587.618	757.24
587.815	851.44
588.012	804.34
588.21	677.37
588.407	751.09
588.604	767.48
588.801	691.7
588.999	697.85
589.196	701.94
589.393	523.77
589.59	724.47
589.787	607.73
589.984	798.2
590.182	763.38
590.379	609.78
590.576	587.26
590.773	603.64
590.97	574.97
591.167	716.28
591.364	544.25
591.561	525.82
591.758	728.56
591.955	583.16
592.152	613.88
592.349	513.53
592.546	615.93
592.743	650.74
592.94	505.34
593.137	585.21
593.334	673.27
593.531	558.58
593.727	656.89
593.924	708.09
594.121	628.21
594.318	574.97
594.515	613.88
594.712	728.56
594.908	689.65
595.105	515.58
595.302	636.41
595.499	542.2
595.696	753.14
595.892	591.35
596.089	738.8
596.286	736.76
596.482	781.81
596.679	798.2
596.876	624.12
597.072	775.67
597.269	757.24
597.466	777.72
597.662	732.66
597.859	892.4
598.055	835.06
598.252	869.87
598.448	919.03
598.645	1041.9
598.841	1009.14
599.038	1058.29
599.234	1230.32
599.431	1189.36
599.627	1199.6
599.824	1160.69
600.02	1160.69
600.217	1195.5
600.413	1355.24
600.609	1408.49
600.806	1639.91
601.002	1461.74
601.198	1535.46
601.395	1547.75
601.591	1666.53
601.787	1691.11
601.984	1807.84
602.18	1887.72
602.376	1897.96
602.572	1986.02
602.769	2106.85
602.965	2086.37
603.161	2190.81
603.357	2323.93
603.553	2407.9
603.75	2467.29
603.946	2465.24
604.142	2704.85
604.338	2797.01
604.534	2719.19
604.73	2805.21
604.926	2921.94
605.122	3083.73
605.318	2971.09
605.514	3243.47
605.71	3231.18
605.906	3472.84
606.102	3472.84
606.298	3548.62
606.494	3798.47
606.69	3825.09
606.886	4062.66
607.082	4027.84
607.278	4093.38
607.474	4289.98
607.67	4355.52
607.866	4441.53
608.062	4720.06
608.257	4771.26
608.453	4836.79
608.649	5017.01
608.845	5100.98
609.041	5268.91
609.236	5500.33
609.432	5440.94
609.628	5772.71
609.824	5975.46
610.019	5911.97
610.215	6231.46
610.411	6387.1
610.606	6577.56
610.802	6589.85
610.998	6802.84
611.193	7003.54
611.389	7222.67
611.584	7560.59
611.78	7505.29
611.976	7742.86
612.171	8076.68
612.367	8267.14
612.562	8457.6
612.758	8484.22
612.953	8582.53
613.149	9008.5
613.344	8998.26
613.539	9409.9
613.735	9794.92
613.93	9880.94
614.126	9887.08
614.321	10665.31
614.517	10669.41
614.712	10872.15
614.907	11418.96
615.103	11703.63
615.298	11746.64
615.493	12176.71
615.688	12293.44
615.884	13104.44
616.079	12844.35
616.274	13221.17
616.47	13663.54
616.665	14193.96
616.86	14413.09
617.055	14699.81
617.25	15015.19
617.445	15721.74
617.641	15584.53
617.836	16413.96
618.031	16321.8
618.226	17181.95
618.421	17411.32
618.616	17667.31
618.811	17978.61
619.006	18967.77
619.201	18740.45
619.396	19754.19
619.591	19475.67
619.786	20448.46
619.981	20346.06
620.176	21425.34
620.371	21222.59
620.566	21587.13
620.761	22377.64
620.956	23065.76
621.151	22891.68
621.346	23864.47
621.541	24087.7
621.735	24892.55
621.93	24884.36
622.125	25447.55
622.32	26008.69
622.515	26356.85
622.709	26754.15
622.904	27376.73
623.099	27728.98
623.294	28197.97
623.488	28417.1
623.683	29062.21
623.878	29299.78
624.072	30225.46
624.267	30735.4
624.462	31173.67
624.656	31065.13
624.851	31738.91
625.046	32365.59
625.24	32883.72
625.435	33016.84
625.629	33833.98
625.824	34012.15
626.018	34612.21
626.213	34495.47
626.407	35073
626.602	36027.35
626.796	36035.55
626.991	36373.46
627.185	36420.56
627.38	36764.62
627.574	37110.73
627.768	36836.3
627.963	37288.9
628.157	37182.41
628.352	37780.42
628.546	37034.95
628.74	37821.37
628.935	37471.17
629.129	37612.48
629.323	37026.76
629.517	37065.67
629.712	37059.53
629.906	36711.38
630.1	36309.97
630.294	36158.42
630.489	35159.02
630.683	35455.97
630.877	34374.64
631.071	33664
631.265	33854.46
631.459	32959.5
631.653	32166.93
631.848	31581.21
632.042	30903.34
632.236	30147.64
632.43	29099.08
632.624	28472.4
632.818	27362.4
633.012	26410.09
633.206	25627.77
633.4	25019.52
633.594	24136.85
633.788	23395.48
633.982	22482.09
634.176	22207.66
634.369	20966.59
634.563	20415.69
634.757	19064.03
634.951	19078.36
635.145	18380.01
635.339	17290.49
635.533	16698.63
635.726	16135.43
635.92	15318.29
636.114	14556.45
636.308	14058.79
636.501	13749.55
636.695	12973.37
636.889	12555.58
637.083	11871.56
637.276	11388.24
637.47	11076.95
637.664	10417.51
637.857	10343.78
638.051	9901.42
638.244	9559.41
638.438	8820.09
638.632	8656.25
638.825	8189.32
639.019	8025.48
639.212	7538.06
639.406	7277.97
639.599	7155.09
639.793	6579.61
639.986	6534.56
640.18	6239.65
640.373	5983.65
640.567	5752.23
640.76	5596.59
640.954	5418.41
641.147	5156.27
641.34	4996.53
641.534	4703.67
641.727	4629.95
641.92	4423.1
642.114	4126.15
642.307	3950.02
642.5	3823.05
642.694	3661.26
642.887	3655.11
643.08	3524.04
643.273	3513.8
643.467	3139.02
643.66	3112.4
643.853	2958.8
644.046	2801.11
644.239	2862.55
644.432	2579.93
644.626	2455
644.819	2418.14
645.012	2495.96
645.205	2348.51
645.398	2289.12
645.591	2080.22
645.784	1930.72
645.977	1854.95
646.17	1797.6
646.363	1846.76
646.556	1742.31
646.749	1549.8
646.942	1498.6
647.135	1623.53
647.328	1357.29
647.521	1486.31
647.714	1390.06
647.907	1283.56
648.099	1187.31
648.292	1275.37
648.485	1213.93
648.678	1076.72
648.871	1150.45
649.064	1013.23
649.256	916.98
649.449	898.55
649.642	830.96
649.835	855.54
650.027	810.48
650.22	914.93
650.413	814.58
650.605	730.61
650.798	755.19
650.991	712.18
651.183	761.33
651.376	765.43
651.568	800.24
651.761	648.69
651.954	624.12
652.146	632.31
652.339	601.59
652.531	599.54
652.724	480.76
652.916	447.99
653.109	431.61
653.301	562.68
653.494	499.19
653.686	568.82
653.879	587.26
654.071	409.08
654.263	423.42
654.456	411.13
654.648	423.42
654.84	484.86
655.033	265.72
655.225	507.38
655.417	249.34
655.61	474.62
655.802	419.32
655.994	507.38
656.186	345.59
656.379	425.47
656.571	214.52
656.763	280.06
656.955	255.48
657.148	257.53
657.34	419.32
657.532	327.16
657.724	308.73
657.916	216.57
658.108	310.78
658.3	282.11
658.492	325.12
658.684	206.33
658.876	286.2
659.068	153.09
659.26	138.75
659.452	144.89
659.644	183.81
659.836	349.69
660.028	312.83
660.22	142.85
660.412	216.57
660.604	116.22
660.796	202.24
660.988	333.31
661.18	194.05
661.372	278.01
661.563	183.81
661.755	198.14
661.947	24.06
662.139	167.42
662.331	126.46
662.522	192
662.714	142.85
662.906	161.28
663.097	103.93
663.289	169.47
663.481	42.5
663.673	132.61
663.864	185.85
664.056	202.24
664.247	93.69
664.439	148.99
664.631	126.46
664.822	224.76
665.014	171.52
665.205	185.85
665.397	181.76
665.588	228.86
665.78	163.33
665.971	179.71
666.163	132.61
666.354	181.76
666.546	26.11
666.737	144.89
666.929	118.27
667.12	36.35
667.311	177.66
667.503	161.28
667.694	124.41
667.885	151.04
668.077	128.51
668.268	-66.05
668.459	112.13
668.651	77.31
668.842	140.8
669.033	81.41
669.224	28.16
669.416	286.2
669.607	99.84
669.798	3.58
669.989	181.76
670.18	118.27
670.371	140.8
670.563	-2.56
670.754	235
670.945	116.22
671.136	177.66
671.327	60.93
671.518	173.57
671.709	200.19
671.9	200.19
672.091	192
672.282	140.8
672.473	148.99
672.664	67.07
672.855	134.65
673.046	110.08
673.237	161.28
673.428	130.56
673.619	179.71
673.809	73.21
674	179.71
674.191	146.94
674.382	71.17
674.573	169.47
674.764	155.13
674.954	202.24
675.145	134.65
675.336	71.17
675.527	56.83
675.717	161.28
675.908	73.21
676.099	71.17
676.289	159.23
676.48	9.73
676.671	95.74
676.861	140.8
677.052	136.7
677.243	75.26
677.433	44.54
677.624	132.61
677.814	116.22
678.005	120.32
678.195	267.77
678.386	19.97
678.576	198.14
678.767	52.74
678.957	144.89
679.148	218.62
679.338	290.3
679.529	235
679.719	157.18
679.909	265.72
680.1	208.38
680.29	216.57
680.481	97.79
680.671	241.15
680.861	263.68
681.052	69.12
681.242	67.07
681.432	114.17
681.622	144.89
681.813	108.03
682.003	210.43
682.193	167.42
682.383	202.24
682.573	120.32
682.764	159.23
682.954	212.48
683.144	241.15
683.334	153.09
683.524	114.17
683.714	253.44
683.904	181.76
684.094	177.66
684.284	167.42
684.474	300.54
684.664	200.19
684.854	163.33
685.044	118.27
685.234	200.19
685.424	161.28
685.614	194.05
685.804	325.12
685.994	189.95
686.184	173.57
686.374	202.24
686.564	159.23
686.753	220.67
686.943	126.46
687.133	93.69
687.323	159.23
687.513	208.38
687.702	163.33
687.892	140.8
688.082	228.86
688.272	263.68
688.461	157.18
688.651	361.98
688.841	138.75
689.03	163.33
689.22	194.05
689.41	202.24
689.599	214.52
689.789	194.05
689.979	247.29
690.168	226.81
690.358	249.34
690.547	241.15
690.737	189.95
690.926	255.48
691.116	200.19
691.305	228.86
691.495	235
691.684	226.81
691.874	177.66
692.063	218.62
692.252	204.28
692.442	247.29
692.631	97.79
692.82	171.52
693.01	163.33
693.199	177.66
693.388	194.05
693.578	220.67
693.767	214.52
693.956	206.33
694.146	169.47
694.335	218.62
694.524	198.14
694.713	321.02
694.902	235
695.092	142.85
695.281	204.28
695.47	192
695.659	212.48
695.848	161.28
696.037	65.02
696.226	212.48
696.415	224.76
696.604	349.69
696.793	245.24
696.982	126.46
697.171	361.98
697.36	116.22
697.549	189.95
697.738	-6.66
697.927	155.13
698.116	73.21
698.305	226.81
698.494	153.09
698.683	163.33
698.872	306.68
699.061	132.61
699.25	189.95
699.438	91.65
699.627	163.33
699.816	228.86
700.005	118.27
700.193	108.03
700.382	288.25
700.571	232.96
700.76	177.66
700.948	212.48
701.137	224.76
701.326	212.48
701.514	85.5
701.703	200.19
701.892	239.1
702.08	355.83
702.269	187.9
702.457	108.03
702.646	187.9
702.834	181.76
703.023	144.89
703.212	232.96
703.4	173.57
703.589	144.89
703.777	138.75
703.965	153.09
704.154	134.65
704.342	163.33
704.531	108.03
704.719	183.81
704.907	169.47
705.096	97.79
705.284	108.03
705.472	114.17
705.661	173.57
705.849	253.44
706.037	280.06
706.226	194.05
706.414	237.05
706.602	73.21
706.79	259.58
706.979	146.94
707.167	108.03
707.355	54.78
707.543	210.43
707.731	202.24
707.919	159.23
708.107	187.9
708.296	77.31
708.484	126.46
708.672	230.91
708.86	251.39
709.048	179.71
709.236	144.89
709.424	241.15
709.612	208.38
709.8	30.21
709.988	142.85
710.176	241.15
710.364	239.1
710.551	122.37
710.739	110.08
710.927	101.89
711.115	210.43
711.303	294.4
711.491	173.57
711.679	132.61
711.866	179.71
712.054	83.45
712.242	161.28
712.43	261.63
712.617	99.84
712.805	189.95
712.993	142.85
713.181	97.79
713.368	192
713.556	194.05
713.744	108.03
713.931	355.83
714.119	198.14
714.306	169.47
714.494	105.98
714.682	192
714.869	83.45
715.057	192
715.244	46.59
715.432	212.48
715.619	132.61
715.807	173.57
715.994	138.75
716.182	183.81
716.369	202.24
716.556	243.2
716.744	44.54
716.931	187.9
717.119	202.24
717.306	232.96
717.493	173.57
717.681	163.33
717.868	159.23
718.055	200.19
718.242	208.38
718.43	220.67
718.617	212.48
718.804	114.17
718.991	302.59
719.179	214.52
719.366	237.05
719.553	273.92
719.74	189.95
719.927	108.03
720.114	300.54
720.301	85.5
720.488	128.51
720.676	173.57
720.863	187.9
721.05	325.12
721.237	194.05
721.424	265.72
721.611	187.9
721.798	134.65
721.985	171.52
722.172	196.09
722.358	177.66
722.545	220.67
722.732	179.71
722.919	257.53
723.106	212.48
723.293	235
723.48	183.81
723.667	128.51
723.853	302.59
724.04	292.35
724.227	331.26
724.414	210.43
724.6	280.06
724.787	265.72
724.974	316.92
725.161	269.82
725.347	189.95
725.534	210.43
725.72	173.57
725.907	312.83
726.094	282.11
726.28	126.46
726.467	120.32
726.653	200.19
726.84	296.44
727.027	355.83
727.213	218.62
727.4	192
727.586	114.17
727.773	173.57
727.959	187.9
728.145	196.09
728.332	212.48
728.518	185.85
728.705	284.16
728.891	218.62
729.077	284.16
729.264	218.62
729.45	187.9
729.636	300.54
729.823	306.68
730.009	226.81
730.195	230.91
730.382	333.31
730.568	194.05
730.754	255.48
730.94	198.14
731.126	192
731.313	222.72
731.499	235
731.685	273.92
731.871	243.2
732.057	251.39
732.243	278.01
732.429	208.38
732.615	271.87
732.801	265.72
732.987	208.38
733.173	232.96
733.359	179.71
733.545	359.93
733.731	144.89
733.917	339.45
734.103	235
734.289	304.64
734.475	173.57
734.661	374.27
734.847	300.54
735.033	228.86
735.219	316.92
735.404	243.2
735.59	165.37
735.776	200.19
735.962	263.68
736.148	316.92
736.333	251.39
736.519	206.33
736.705	337.4
736.89	312.83
737.076	228.86
737.262	222.72
737.447	118.27
737.633	218.62
737.819	288.25
738.004	173.57
738.19	282.11
738.375	275.96
738.561	267.77
738.747	167.42
738.932	114.17
739.118	427.51
739.303	237.05
739.489	259.58
739.674	108.03
739.859	228.86
740.045	198.14
740.23	247.29
740.416	189.95
740.601	255.48
740.786	232.96
740.972	226.81
741.157	235
741.342	130.56
741.528	208.38
741.713	333.31
741.898	148.99
742.084	208.38
742.269	192
742.454	278.01
742.639	357.88
742.824	212.48
743.01	243.2
743.195	327.16
743.38	300.54
743.565	177.66
743.75	198.14
743.935	347.64
744.12	304.64
744.305	95.74
744.49	175.61
744.675	179.71
744.86	224.76
745.045	259.58
745.23	333.31
745.415	269.82
745.6	304.64
745.785	163.33
745.97	253.44
746.155	255.48
746.34	273.92
746.525	226.81
746.71	308.73
746.895	155.13
747.079	126.46
747.264	99.84
747.449	278.01
747.634	212.48
747.819	198.14
748.003	210.43
748.188	212.48
748.373	306.68
748.557	144.89
748.742	239.1
748.927	200.19
749.111	171.52
749.296	159.23
749.481	200.19
749.665	169.47
749.85	136.7
750.034	144.89
750.219	306.68
750.404	157.18
750.588	232.96
750.773	148.99
750.957	124.41
751.141	187.9
751.326	259.58
751.51	99.84
751.695	187.9
751.879	138.75
752.064	349.69
752.248	142.85
752.432	273.92
752.617	161.28
752.801	308.73
752.985	204.28
753.17	300.54
753.354	226.81
753.538	183.81
753.722	69.12
753.907	224.76
754.091	140.8
754.275	243.2
754.459	69.12
754.643	91.65
754.828	177.66
755.012	263.68
755.196	126.46
755.38	153.09
755.564	120.32
755.748	142.85
755.932	101.89
756.116	212.48
756.3	112.13
756.484	144.89
756.668	140.8
756.852	50.69
757.036	183.81
757.22	202.24
757.404	157.18
757.588	112.13
757.772	48.64
757.956	85.5
758.14	298.49
758.323	54.78
758.507	179.71
758.691	46.59
758.875	204.28
759.059	255.48
759.242	103.93
759.426	161.28
759.61	171.52
759.794	19.97
759.977	189.95
760.161	357.88
760.345	255.48
760.528	134.65
760.712	185.85
760.895	155.13
761.079	130.56
761.263	79.36
761.446	46.59
761.63	62.98
761.813	222.72
761.997	5.63
762.18	161.28
762.364	146.94
762.547	-6.66
762.731	153.09
762.914	136.7
763.098	85.5
763.281	40.45
763.464	75.26
763.648	83.45
763.831	103.93
764.015	-27.14
764.198	220.67
764.381	19.97
764.564	161.28
764.748	128.51
764.931	89.6
765.114	42.5
765.297	253.44
765.481	60.93
765.664	77.31
765.847	15.87
766.03	226.81
766.213	42.5
766.397	140.8
766.58	-2.56
766.763	62.98
766.946	52.74
767.129	62.98
767.312	26.11
767.495	77.31
767.678	48.64
767.861	144.89
768.044	30.21
768.227	38.4
768.41	75.26
768.593	22.02
768.776	62.98
768.959	73.21
769.142	105.98
769.324	9.73
769.507	85.5
769.69	36.35
769.873	30.21
770.056	177.66
770.239	9.73
770.421	261.63
770.604	138.75
770.787	140.8
770.97	73.21
771.152	-25.09
771.335	110.08
771.518	-0.51
771.7	136.7
771.883	173.57
772.066	15.87
772.248	52.74
772.431	163.33
772.613	130.56
772.796	46.59
772.978	144.89
773.161	202.24
773.343	19.97
773.526	-20.99
773.708	-20.99
773.891	-23.04
774.073	75.26
774.256	83.45
774.438	198.14
774.621	83.45
774.803	62.98
774.985	58.88
775.168	67.07
775.35	-14.85
775.532	163.33
775.715	-20.99
775.897	124.41
776.079	85.5
776.261	130.56
776.444	-18.94
776.626	40.45
776.808	40.45
776.99	-47.62
777.173	71.17
777.355	26.11
777.537	69.12
777.719	-68.09
777.901	52.74
778.083	32.26
778.265	-20.99
778.447	163.33
778.629	83.45
778.811	5.63
778.993	91.65
779.175	173.57
779.357	11.78
779.539	-29.18
779.721	17.92
779.903	95.74
780.085	-0.51
780.267	28.16
780.449	48.64
780.631	62.98
780.812	110.08
780.994	22.02
781.176	81.41
781.358	75.26
781.54	58.88
781.721	105.98
781.903	87.55
782.085	40.45
782.267	116.22
782.448	-8.7
782.63	97.79
782.812	67.07
782.993	112.13
783.175	65.02
783.357	24.06
783.538	1.54
783.72	-25.09
783.901	67.07
784.083	126.46
784.264	79.36
784.446	-88.57
784.627	1.54
784.809	89.6
784.99	-45.57
785.172	56.83
785.353	42.5
785.535	1.54
785.716	-55.81
785.897	36.35
786.079	26.11
786.26	-10.75
786.441	30.21
786.623	3.58
786.804	-55.81
786.985	40.45
787.167	58.88
787.348	26.11
787.529	11.78
787.71	95.74
787.891	-6.66
788.073	-39.42
788.254	-121.34
788.435	155.13
788.616	89.6
788.797	-51.71
788.978	-39.42
789.159	1.54
789.34	108.03
789.522	-18.94
789.703	32.26
789.884	71.17
790.065	-6.66
790.246	83.45
790.427	52.74
790.607	87.55
790.788	62.98
790.969	-4.61
791.15	62.98
791.331	-25.09
791.512	-59.9
791.693	-76.29
791.874	9.73
792.054	224.76
792.235	54.78
792.416	-2.56
792.597	-84.48
792.778	48.64
792.958	24.06
793.139	13.82
793.32	89.6
793.5	-117.25
793.681	87.55
793.862	-2.56
794.042	7.68
794.223	-119.29
794.404	-12.8
794.584	-98.81
794.765	-39.42
794.945	-4.61
795.126	99.84
795.306	138.75
795.487	-47.62
795.667	26.11
795.848	9.73
796.028	-68.09
796.209	3.58
796.389	126.46
796.57	-53.76
796.75	-47.62
796.93	-39.42
797.111	-23.04
797.291	-43.52
797.471	17.92
797.652	-25.09
797.832	-86.53
798.012	85.5
798.192	-74.24
798.373	-66.05
798.553	-0.51
798.733	60.93
798.913	13.82
799.093	1.54
799.274	108.03
799.454	114.17
799.634	54.78
799.814	110.08
799.994	60.93
800.174	38.4
800.354	67.07
800.534	-66.05
800.714	22.02
800.894	-20.99
801.074	-47.62
801.254	-29.18
801.434	138.75
801.614	-29.18
801.794	-76.29
801.974	1562.09
802.154	40.45
802.334	67.07
802.514	-51.71
802.693	-37.38
802.873	-45.57
803.053	171.52
803.233	-0.51
803.413	32.26
803.592	-0.51
803.772	-8.7
803.952	83.45
804.131	-53.76
804.311	60.93
804.491	73.21
804.67	-39.42
804.85	3.58
805.03	5.63
805.209	189.95
805.389	-78.33
805.568	9.73
805.748	-37.38
805.928	-43.52
806.107	91.65
806.287	-18.94
806.466	73.21
806.646	-6.66
806.825	-33.28
807.004	3.58
807.184	73.21
807.363	32.26
807.543	46.59
807.722	-35.33
807.901	95.74
808.081	83.45
808.26	-61.95
808.439	-6.66
808.619	40.45
808.798	67.07
808.977	-25.09
809.156	105.98
809.336	-33.28
809.515	75.26
809.694	-8.7
809.873	13.82
810.052	56.83
810.231	87.55
810.411	93.69
810.59	75.26
810.769	-117.25
810.948	34.3
811.127	-158.21
811.306	40.45
811.485	-74.24
811.664	118.27
811.843	-10.75
812.022	9.73
812.201	-72.19
812.38	60.93
812.559	62.98
812.737	89.6
812.916	-115.2
813.095	-55.81
813.274	-14.85
813.453	-51.71
813.632	26.11
813.811	126.46
813.989	-82.43
814.168	62.98
814.347	-72.19
814.526	-27.14
814.704	75.26
814.883	134.65
815.062	-145.92
815.24	9.73
815.419	-98.81
815.598	79.36
815.776	-39.42
815.955	32.26
816.133	-168.45
816.312	-31.23
816.49	-96.77
816.669	50.69
816.847	-31.23
817.026	-29.18
817.204	36.35
817.383	-10.75
817.561	-8.7
817.74	62.98
817.918	-41.47
818.097	-90.62
818.275	-102.91
818.453	17.92
818.632	48.64
818.81	-23.04
818.988	-10.75
819.167	-27.14
819.345	-4.61
819.523	-25.09
819.701	-12.8
819.879	24.06
820.058	-10.75
820.236	28.16
820.414	-31.23
820.592	-29.18
820.77	-33.28
820.948	-43.52
821.127	36.35
821.305	-2.56
821.483	-102.91
821.661	38.4
821.839	-12.8
822.017	-25.09
822.195	-39.42
822.373	32.26
822.551	-20.99
822.729	-16.9
822.907	17.92
823.085	19.97
823.262	-27.14
823.44	-88.57
823.618	-64
823.796	-27.14
823.974	-35.33
824.152	-35.33
824.329	-4.61
824.507	17.92
824.685	101.89
824.863	-14.85
825.04	-64
825.218	58.88
825.396	-49.66
825.574	36.35
825.751	13.82
825.929	34.3
826.107	-82.43
826.284	11.78
826.462	93.69
826.639	-113.15
826.817	-27.14
826.994	11.78
827.172	-113.15
827.349	81.41
827.527	9.73
827.704	-25.09
827.882	26.11
828.059	-16.9
828.237	-8.7
828.414	5.63
828.591	-129.53
828.769	-20.99
828.946	-137.73
829.124	65.02
829.301	22.02
829.478	-41.47
829.655	42.5
829.833	46.59
830.01	-147.97
830.187	26.11
830.364	-33.28
830.542	28.16
830.719	1.54
830.896	128.51
831.073	-49.66
831.25	15.87
831.427	38.4
831.604	-14.85
831.782	22.02
831.959	65.02
832.136	-29.18
832.313	-12.8
832.49	-84.48
832.667	7.68
832.844	-49.66
833.021	110.08
833.198	34.3
833.374	7.68
833.551	11.78
833.728	3.58
833.905	44.54
834.082	-137.73
834.259	42.5
834.436	11.78
834.612	-117.25
834.789	5.63
834.966	36.35
835.143	-27.14
835.319	-94.72
835.496	56.83
835.673	22.02
835.85	36.35
836.026	1.54
836.203	-0.51
836.38	-27.14
836.556	-94.72
836.733	-61.95
836.909	185.85
837.086	-20.99
837.262	-117.25
837.439	-27.14
837.616	-57.86
837.792	24.06
837.968	56.83
838.145	-98.81
838.321	-64
838.498	67.07
838.674	13.82
838.851	-0.51
839.027	-80.38
839.203	38.4
839.38	40.45
839.556	-107.01
839.732	17.92
839.909	56.83
840.085	50.69
840.261	-66.05
840.437	5.63
840.614	-2.56
840.79	138.75
840.966	-6.66
841.142	-0.51
841.318	-25.09
841.494	44.54
841.671	65.02
841.847	-72.19
842.023	-76.29
842.199	-14.85
842.375	83.45
842.551	-115.2
842.727	-31.23
842.903	108.03
843.079	-98.81
843.255	54.78
843.431	3.58
843.607	17.92
843.783	-150.01
843.959	-20.99
844.134	-100.86
844.31	38.4
844.486	-4.61
844.662	-180.73
844.838	-45.57
845.013	42.5
845.189	30.21
845.365	-94.72
845.541	5.63
845.716	56.83
845.892	32.26
846.068	-18.94
846.244	1.54
846.419	60.93
846.595	-23.04
846.77	-115.2
846.946	22.02
847.122	-49.66
847.297	-88.57
847.473	124.41
847.648	-76.29
847.824	34.3
847.999	-170.49
848.175	-129.53
848.35	38.4
848.526	83.45
848.701	44.54
848.876	34.3
849.052	52.74
849.227	-18.94
849.403	-4.61
849.578	-10.75
849.753	11.78
849.929	-8.7
850.104	-184.83
850.279	40.45
850.454	24.06
850.63	19.97
850.805	79.36
850.98	15.87
851.155	-78.33
851.33	-18.94
851.505	-35.33
851.681	87.55
851.856	-109.05
852.031	22.02
852.206	26.11
852.381	-158.21
852.556	-8.7
852.731	42.5
852.906	13.82
853.081	-88.57
853.256	216.57
853.431	-39.42
853.606	-80.38
853.781	-43.52
853.956	-160.25
854.131	11.78
854.305	-23.04
854.48	11.78
854.655	-25.09
854.83	-49.66
855.005	17.92
855.18	-57.86
855.354	-23.04
855.529	-4.61
855.704	-119.29
855.879	26.11
856.053	-66.05
856.228	-10.75
856.403	-0.51
856.577	44.54
856.752	-137.73
856.926	-16.9
857.101	-2.56
857.276	-125.44
857.45	9.73
857.625	13.82
857.799	-20.99
857.974	-57.86
858.148	-121.34
858.323	-33.28
858.497	-25.09
858.672	-115.2
858.846	-31.23
859.02	26.11
859.195	-72.19
859.369	-43.52
859.543	-115.2
859.718	-16.9
859.892	62.98
860.066	67.07
860.241	-8.7
860.415	-94.72
860.589	38.4
860.763	-16.9
860.938	-14.85
861.112	71.17
861.286	-88.57
861.46	-23.04
861.634	-20.99
861.808	13.82
861.982	-51.71
862.157	-51.71
862.331	-29.18
862.505	-86.53
862.679	-176.64
862.853	-76.29
863.027	-53.76
863.201	204.28
863.375	-37.38
863.549	89.6
863.722	-8.7
863.896	73.21
864.07	-70.14
864.244	40.45
864.418	58.88
864.592	32.26
864.766	-70.14
864.939	-59.9
865.113	-76.29
865.287	79.36
865.461	-27.14
865.634	15.87
865.808	-76.29
865.982	-43.52
866.156	-66.05
866.329	-119.29
866.503	13.82
866.676	120.32
866.85	-8.7
867.024	-70.14
867.197	79.36
867.371	93.69
867.544	17.92
867.718	-23.04
867.891	13.82
868.065	-64
868.238	1.54
868.412	155.13
868.585	-27.14
868.759	-57.86
868.932	52.74
869.105	-156.16
869.279	-10.75
869.452	-72.19
869.625	60.93
869.799	-8.7
869.972	-170.49
870.145	-61.95
870.319	-12.8
870.492	-53.76
870.665	1.54
870.838	-64
871.011	-213.5
871.185	-76.29
871.358	-39.42
871.531	1.54
871.704	-45.57
871.877	-18.94
872.05	40.45
872.223	-68.09
872.396	71.17
872.569	-0.51
872.742	-59.9
872.915	-20.99
873.088	-16.9
873.261	-20.99
873.434	-4.61
873.607	-78.33
873.78	132.61
873.953	-96.77
874.126	-72.19
874.299	-4.61
874.471	-16.9
874.644	-51.71
874.817	-12.8
874.99	62.98
875.163	-6.66
875.335	-0.51
875.508	-53.76
875.681	89.6
875.853	-39.42
876.026	-47.62
876.199	134.65
876.371	-57.86
876.544	32.26
876.717	26.11
876.889	44.54
877.062	83.45
877.234	-115.2
877.407	3.58
877.579	17.92
877.752	34.3
877.924	28.16
878.097	40.45
878.269	-12.8
878.442	56.83
878.614	44.54
878.786	-31.23
878.959	-31.23
879.131	-27.14
879.303	-74.24
879.476	-35.33
879.648	-39.42
879.82	7.68
879.993	-25.09
880.165	-51.71
880.337	-55.81
880.509	-12.8
880.681	-66.05
880.854	-55.81
881.026	73.21
881.198	148.99
881.37	-68.09
881.542	-57.86
881.714	-41.47
881.886	-55.81
882.058	-68.09
882.23	-14.85
882.402	15.87
882.574	-61.95
882.746	48.64
882.918	71.17
883.09	-10.75
883.262	-16.9
883.434	-8.7
883.606	-70.14
883.778	-14.85
883.95	124.41
884.122	-111.1
884.293	83.45
884.465	-37.38
884.637	73.21
884.809	-68.09
884.98	85.5
885.152	24.06
885.324	42.5
885.496	-96.77
885.667	-86.53
885.839	-92.67
886.011	3.58
886.182	-55.81
886.354	42.5
886.525	36.35
886.697	-33.28
886.869	-109.05
887.04	-98.81
887.212	46.59
887.383	85.5
887.555	26.11
887.726	1.54
887.897	15.87
888.069	-92.67
888.24	126.46
888.412	-70.14
888.583	-47.62
888.754	-14.85
888.926	-143.87
889.097	11.78
889.268	-109.05
889.44	-82.43
889.611	-94.72
889.782	-90.62
889.953	-68.09
890.125	36.35
890.296	-37.38
890.467	-80.38
890.638	-57.86
890.809	32.26
890.98	-27.14
891.151	71.17
891.323	-23.04
891.494	-94.72
891.665	28.16
891.836	52.74
892.007	-41.47
892.178	44.54
892.349	11.78
892.52	-16.9
892.691	-43.52
892.862	-125.44
893.032	-100.86
893.203	-27.14
893.374	-25.09
893.545	32.26
893.716	-14.85
893.887	19.97
894.057	-8.7
894.228	-49.66
894.399	-125.44
894.57	67.07
894.74	62.98
894.911	-20.99
895.082	-20.99
895.253	-51.71
895.423	-59.9
895.594	13.82
895.764	-94.72
895.935	-135.68
896.106	-27.14
896.276	-178.69
896.447	-20.99
896.617	-59.9
896.788	-45.57
896.958	-25.09
897.129	-66.05
897.299	-49.66
897.47	173.57
897.64	46.59
897.81	-74.24
897.981	11.78
898.151	-68.09
898.322	-14.85
898.492	5.63
898.662	-90.62
898.832	-107.01
899.003	-76.29
899.173	26.11
899.343	-57.86
899.513	-121.34
