Data from USB4F104151__253__11-20-06-534.txt Node

Date: Wed Feb 26 11:20:06 EST 2025
User: louis
Spectrometer: USB4F10415
Trigger mode: 4
Integration Time (sec): 1.000000E-1
Scans to average: 1
Electric dark correction enabled: true
Nonlinearity correction enabled: false
Boxcar width: 0
XAxis mode: Wavelengths
Number of Pixels in Spectrum: 3648
>>>>>Begin Spectral Data<<<<<
178.204	-395.09
178.424	-395.09
178.644	-395.09
178.864	-436.05
179.084	-386.9
179.304	30.89
179.524	-61.27
179.744	59.56
179.964	37.03
180.184	61.61
180.404	-18.26
180.624	39.08
180.844	14.51
181.064	-73.56
181.283	-32.6
181.503	-65.36
181.723	8.36
181.943	-104.28
182.163	129.19
182.383	-67.41
182.602	84.14
182.822	133.29
183.042	59.56
183.262	20.65
183.482	22.7
183.701	43.18
183.921	-22.36
184.141	-22.36
184.361	47.27
184.58	75.95
184.8	6.31
185.02	-16.21
185.239	125.1
185.459	127.14
185.679	106.67
185.898	-26.45
186.118	16.55
186.338	49.32
186.557	96.43
186.777	-42.84
186.997	65.71
187.216	32.94
187.436	272.55
187.655	59.56
187.875	100.52
188.095	61.61
188.314	153.77
188.534	106.67
188.753	8.36
188.973	112.81
189.192	151.72
189.412	-36.69
189.631	67.75
189.851	88.23
190.07	108.71
190.29	-53.08
190.509	14.51
190.729	14.51
190.948	106.67
191.168	256.17
191.387	16.55
191.607	-20.31
191.826	45.23
192.045	43.18
192.265	47.27
192.484	133.29
192.704	102.57
192.923	16.55
193.142	188.58
193.362	114.86
193.581	127.14
193.8	14.51
194.02	59.56
194.239	61.61
194.458	77.99
194.678	2.22
194.897	22.7
195.116	88.23
195.335	84.14
195.555	65.71
195.774	-22.36
195.993	116.9
196.212	41.13
196.432	-51.03
196.651	-18.26
196.87	96.43
197.089	297.13
197.308	37.03
197.528	77.99
197.747	-32.6
197.966	116.9
198.185	123.05
198.404	-38.74
198.623	96.43
198.842	94.38
199.062	102.57
199.281	37.03
199.5	18.6
199.719	157.86
199.938	10.41
200.157	51.37
200.376	65.71
200.595	149.67
200.814	30.89
201.033	-44.88
201.252	84.14
201.471	67.75
201.69	61.61
201.909	37.03
202.128	112.81
202.347	88.23
202.566	10.41
202.785	-53.08
203.004	-5.97
203.223	235.69
203.442	32.94
203.661	-48.98
203.879	12.46
204.098	151.72
204.317	-65.36
204.536	12.46
204.755	184.49
204.974	47.27
205.193	-3.93
205.411	92.33
205.63	94.38
205.849	2.22
206.068	43.18
206.287	-34.64
206.505	84.14
206.724	34.99
206.943	-5.97
207.162	-51.03
207.381	65.71
207.599	-26.45
207.818	80.04
208.037	-8.02
208.255	26.79
208.474	43.18
208.693	63.66
208.911	2.22
209.13	96.43
209.349	129.19
209.567	92.33
209.786	28.84
210.005	86.19
210.223	20.65
210.442	-128.85
210.661	-46.93
210.879	-5.97
211.098	-26.45
211.316	39.08
211.535	84.14
211.753	73.9
211.972	94.38
212.191	43.18
212.409	43.18
212.628	59.56
212.846	22.7
213.065	45.23
213.283	102.57
213.502	98.47
213.72	24.75
213.938	-44.88
214.157	-34.64
214.375	164.01
214.594	-32.6
214.812	47.27
215.031	4.27
215.249	-12.12
215.467	-48.98
215.686	82.09
215.904	75.95
216.122	133.29
216.341	88.23
216.559	86.19
216.778	164.01
216.996	153.77
217.214	67.75
217.432	41.13
217.651	-36.69
217.869	77.99
218.087	84.14
218.306	18.6
218.524	37.03
218.742	-20.31
218.96	176.3
219.179	22.7
219.397	90.28
219.615	280.74
219.833	96.43
220.051	-81.75
220.27	145.58
220.488	112.81
220.706	102.57
220.924	-57.17
221.142	-14.17
221.36	57.51
221.578	59.56
221.796	-1.88
222.015	-32.6
222.233	14.51
222.451	147.62
222.669	-44.88
222.887	45.23
223.105	8.36
223.323	-1.88
223.541	-42.84
223.759	37.03
223.977	8.36
224.195	250.02
224.413	39.08
224.631	127.14
224.849	69.8
225.067	155.82
225.285	-46.93
225.503	-44.88
225.721	-130.9
225.939	-22.36
226.157	-36.69
226.375	233.64
226.592	-3.93
226.81	-30.55
227.028	55.47
227.246	104.62
227.464	59.56
227.682	114.86
227.9	-22.36
228.117	24.75
228.335	159.91
228.553	73.9
228.771	-8.02
228.989	37.03
229.206	28.84
229.424	-75.6
229.642	45.23
229.86	-38.74
230.077	141.48
230.295	-30.55
230.513	80.04
230.731	16.55
230.948	118.95
231.166	164.01
231.384	20.65
231.601	-40.79
231.819	153.77
232.037	-36.69
232.254	-28.5
232.472	2.22
232.689	12.46
232.907	147.62
233.125	-10.07
233.342	-36.69
233.56	-22.36
233.777	-83.8
233.995	-12.12
234.213	137.38
234.43	157.86
234.648	-57.17
234.865	12.46
235.083	39.08
235.3	77.99
235.518	135.34
235.735	141.48
235.953	4.27
236.17	-22.36
236.388	-16.21
236.605	59.56
236.822	92.33
237.04	149.67
237.257	61.61
237.475	-3.93
237.692	22.7
237.909	34.99
238.127	18.6
238.344	53.42
238.562	96.43
238.779	-96.08
238.996	-5.97
239.214	-67.41
239.431	77.99
239.648	-14.17
239.865	88.23
240.083	106.67
240.3	-24.4
240.517	63.66
240.735	75.95
240.952	84.14
241.169	94.38
241.386	75.95
241.603	-40.79
241.821	-38.74
242.038	100.52
242.255	65.71
242.472	-44.88
242.689	147.62
242.907	51.37
243.124	82.09
243.341	92.33
243.558	-83.8
243.775	-46.93
243.992	-8.02
244.209	90.28
244.426	69.8
244.643	43.18
244.86	34.99
245.078	28.84
245.295	92.33
245.512	73.9
245.729	47.27
245.946	20.65
246.163	14.51
246.38	-24.4
246.597	22.7
246.814	-8.02
247.031	6.31
247.248	39.08
247.464	6.31
247.681	8.36
247.898	73.9
248.115	96.43
248.332	41.13
248.549	202.92
248.766	204.97
248.983	39.08
249.2	28.84
249.417	63.66
249.633	0.17
249.85	102.57
250.067	28.84
250.284	37.03
250.501	-30.55
250.717	96.43
250.934	24.75
251.151	30.89
251.368	55.47
251.585	63.66
251.801	84.14
252.018	-28.5
252.235	77.99
252.451	-91.99
252.668	-22.36
252.885	49.32
253.102	6.31
253.318	-30.55
253.535	-59.22
253.752	-18.26
253.968	-46.93
254.185	-106.32
254.401	94.38
254.618	75.95
254.835	-87.89
255.051	159.91
255.268	73.9
255.484	59.56
255.701	75.95
255.917	57.51
256.134	-46.93
256.351	61.61
256.567	-53.08
256.784	28.84
257	-81.75
257.217	147.62
257.433	121
257.65	77.99
257.866	106.67
258.082	-59.22
258.299	49.32
258.515	-20.31
258.732	43.18
258.948	14.51
259.165	94.38
259.381	49.32
259.597	104.62
259.814	30.89
260.03	45.23
260.246	49.32
260.463	135.34
260.679	135.34
260.895	2.22
261.112	100.52
261.328	-18.26
261.544	-38.74
261.761	104.62
261.977	51.37
262.193	-48.98
262.409	182.44
262.626	0.17
262.842	96.43
263.058	0.17
263.274	20.65
263.49	61.61
263.707	90.28
263.923	71.85
264.139	-42.84
264.355	47.27
264.571	137.38
264.787	16.55
265.004	71.85
265.22	-20.31
265.436	-20.31
265.652	-3.93
265.868	8.36
266.084	-65.36
266.3	51.37
266.516	-24.4
266.732	94.38
266.948	18.6
267.164	-12.12
267.38	92.33
267.596	61.61
267.812	149.67
268.028	-26.45
268.244	12.46
268.46	67.75
268.676	45.23
268.892	59.56
269.108	-36.69
269.324	-65.36
269.54	6.31
269.756	75.95
269.972	-59.22
270.188	71.85
270.403	-18.26
270.619	26.79
270.835	106.67
271.051	55.47
271.267	-96.08
271.483	-53.08
271.698	104.62
271.914	28.84
272.13	22.7
272.346	63.66
272.562	82.09
272.777	176.3
272.993	80.04
273.209	-1.88
273.425	80.04
273.64	-26.45
273.856	102.57
274.072	-8.02
274.287	-22.36
274.503	172.2
274.719	110.76
274.934	-1.88
275.15	-110.42
275.366	22.7
275.581	-71.51
275.797	22.7
276.012	67.75
276.228	-1.88
276.444	37.03
276.659	118.95
276.875	-24.4
277.09	61.61
277.306	-14.17
277.521	121
277.737	24.75
277.952	34.99
278.168	34.99
278.383	77.99
278.599	37.03
278.814	90.28
279.03	92.33
279.245	82.09
279.461	18.6
279.676	22.7
279.892	-53.08
280.107	-61.27
280.322	-42.84
280.538	135.34
280.753	14.51
280.969	16.55
281.184	55.47
281.399	196.78
281.615	37.03
281.83	30.89
282.045	-59.22
282.26	-8.02
282.476	8.36
282.691	57.51
282.906	57.51
283.122	147.62
283.337	69.8
283.552	2.22
283.767	8.36
283.983	100.52
284.198	43.18
284.413	0.17
284.628	32.94
284.843	75.95
285.058	28.84
285.274	-26.45
285.489	-48.98
285.704	71.85
285.919	-1.88
286.134	75.95
286.349	43.18
286.564	-42.84
286.779	215.21
286.995	-75.6
287.21	-40.79
287.425	139.43
287.64	84.14
287.855	82.09
288.07	-85.84
288.285	90.28
288.5	96.43
288.715	37.03
288.93	30.89
289.145	22.7
289.36	8.36
289.575	2.22
289.79	125.1
290.004	51.37
290.219	102.57
290.434	-8.02
290.649	24.75
290.864	22.7
291.079	14.51
291.294	67.75
291.509	153.77
291.724	-32.6
291.938	6.31
292.153	125.1
292.368	16.55
292.583	41.13
292.798	75.95
293.012	82.09
293.227	63.66
293.442	-14.17
293.657	239.78
293.871	149.67
294.086	137.38
294.301	186.54
294.516	121
294.73	65.71
294.945	-26.45
295.16	59.56
295.374	114.86
295.589	20.65
295.804	-48.98
296.018	26.79
296.233	112.81
296.447	10.41
296.662	-28.5
296.877	110.76
297.091	53.42
297.306	22.7
297.52	-16.21
297.735	22.7
297.949	73.9
298.164	2.22
298.378	82.09
298.593	34.99
298.807	20.65
299.022	-53.08
299.236	92.33
299.451	8.36
299.665	-51.03
299.88	-65.36
300.094	47.27
300.309	8.36
300.523	-36.69
300.737	39.08
300.952	88.23
301.166	-8.02
301.381	6.31
301.595	-34.64
301.809	39.08
302.024	73.9
302.238	-28.5
302.452	139.43
302.667	2.22
302.881	57.51
303.095	28.84
303.309	61.61
303.524	-32.6
303.738	-10.07
303.952	-34.64
304.166	98.47
304.381	-91.99
304.595	207.02
304.809	-5.97
305.023	4.27
305.237	34.99
305.452	-69.46
305.666	73.9
305.88	84.14
306.094	139.43
306.308	82.09
306.522	131.24
306.736	-36.69
306.95	61.61
307.164	69.8
307.379	-1.88
307.593	172.2
307.807	141.48
308.021	43.18
308.235	24.75
308.449	-71.51
308.663	12.46
308.877	211.11
309.091	96.43
309.305	49.32
309.519	-57.17
309.733	135.34
309.947	-59.22
310.161	61.61
310.374	108.71
310.588	145.58
310.802	-34.64
311.016	47.27
311.23	118.95
311.444	-63.32
311.658	32.94
311.872	90.28
312.085	67.75
312.299	143.53
312.513	141.48
312.727	75.95
312.941	26.79
313.154	92.33
313.368	80.04
313.582	41.13
313.796	82.09
314.009	49.32
314.223	155.82
314.437	6.31
314.651	-10.07
314.864	2.22
315.078	32.94
315.292	32.94
315.505	45.23
315.719	4.27
315.933	57.51
316.146	-53.08
316.36	6.31
316.573	172.2
316.787	94.38
317.001	84.14
317.214	-40.79
317.428	45.23
317.641	2.22
317.855	-28.5
318.068	63.66
318.282	16.55
318.495	192.68
318.709	80.04
318.922	34.99
319.136	192.68
319.349	51.37
319.563	30.89
319.776	30.89
319.99	-63.32
320.203	0.17
320.417	-10.07
320.63	61.61
320.843	198.82
321.057	-12.12
321.27	26.79
321.483	22.7
321.697	168.1
321.91	118.95
322.124	69.8
322.337	77.99
322.55	12.46
322.763	43.18
322.977	-3.93
323.19	-22.36
323.403	28.84
323.617	49.32
323.83	49.32
324.043	37.03
324.256	28.84
324.469	-40.79
324.683	53.42
324.896	53.42
325.109	14.51
325.322	-77.65
325.535	47.27
325.748	121
325.962	-24.4
326.175	34.99
326.388	84.14
326.601	174.25
326.814	84.14
327.027	45.23
327.24	141.48
327.453	-40.79
327.666	63.66
327.879	139.43
328.092	10.41
328.305	92.33
328.518	-12.12
328.731	-53.08
328.944	30.89
329.157	88.23
329.37	30.89
329.583	180.39
329.796	186.54
330.009	-34.64
330.222	57.51
330.435	69.8
330.648	71.85
330.861	10.41
331.073	57.51
331.286	123.05
331.499	88.23
331.712	30.89
331.925	2.22
332.138	22.7
332.35	125.1
332.563	-36.69
332.776	77.99
332.989	51.37
333.202	47.27
333.414	26.79
333.627	73.9
333.84	26.79
334.053	108.71
334.265	-34.64
334.478	10.41
334.691	43.18
334.903	90.28
335.116	49.32
335.329	34.99
335.541	112.81
335.754	98.47
335.966	10.41
336.179	-30.55
336.392	-1.88
336.604	49.32
336.817	73.9
337.029	98.47
337.242	6.31
337.454	106.67
337.667	106.67
337.88	188.58
338.092	26.79
338.305	110.76
338.517	-67.41
338.729	73.9
338.942	39.08
339.154	-38.74
339.367	-20.31
339.579	125.1
339.792	8.36
340.004	108.71
340.217	2.22
340.429	-30.55
340.641	-34.64
340.854	10.41
341.066	10.41
341.278	139.43
341.491	166.06
341.703	32.94
341.915	-65.36
342.128	108.71
342.34	26.79
342.552	-22.36
342.764	30.89
342.977	14.51
343.189	37.03
343.401	88.23
343.613	-59.22
343.826	-3.93
344.038	-14.17
344.25	51.37
344.462	45.23
344.674	141.48
344.886	71.85
345.099	51.37
345.311	12.46
345.523	14.51
345.735	-143.19
345.947	34.99
346.159	131.24
346.371	47.27
346.583	28.84
346.795	207.02
347.007	8.36
347.219	71.85
347.431	-8.02
347.643	110.76
347.855	12.46
348.067	61.61
348.279	-30.55
348.491	-1.88
348.703	102.57
348.915	88.23
349.127	-40.79
349.339	69.8
349.551	-8.02
349.763	182.44
349.975	61.61
350.187	141.48
350.399	61.61
350.61	20.65
350.822	4.27
351.034	32.94
351.246	102.57
351.458	121
351.669	92.33
351.881	114.86
352.093	98.47
352.305	71.85
352.517	61.61
352.728	139.43
352.94	106.67
353.152	45.23
353.363	-46.93
353.575	10.41
353.787	223.4
353.999	12.46
354.21	166.06
354.422	-87.89
354.633	-32.6
354.845	82.09
355.057	41.13
355.268	39.08
355.48	59.56
355.692	-89.94
355.903	4.27
356.115	-63.32
356.326	-46.93
356.538	118.95
356.749	118.95
356.961	65.71
357.172	26.79
357.384	-16.21
357.595	245.93
357.807	0.17
358.018	53.42
358.23	28.84
358.441	174.25
358.653	10.41
358.864	39.08
359.075	-48.98
359.287	92.33
359.498	180.39
359.709	43.18
359.921	2.22
360.132	88.23
360.344	71.85
360.555	12.46
360.766	39.08
360.977	55.47
361.189	86.19
361.4	-22.36
361.611	57.51
361.823	55.47
362.034	69.8
362.245	-46.93
362.456	55.47
362.667	57.51
362.879	-32.6
363.09	41.13
363.301	73.9
363.512	47.27
363.723	-3.93
363.935	20.65
364.146	65.71
364.357	43.18
364.568	59.56
364.779	-48.98
364.99	139.43
365.201	-20.31
365.412	133.29
365.623	-98.13
365.834	47.27
366.045	-8.02
366.256	82.09
366.467	26.79
366.678	104.62
366.889	16.55
367.1	2.22
367.311	90.28
367.522	-57.17
367.733	161.96
367.944	49.32
368.155	6.31
368.366	116.9
368.577	118.95
368.788	88.23
368.999	-14.17
369.209	49.32
369.42	227.5
369.631	225.45
369.842	53.42
370.053	-8.02
370.264	100.52
370.474	-18.26
370.685	77.99
370.896	-5.97
371.107	170.15
371.317	61.61
371.528	10.41
371.739	102.57
371.95	110.76
372.16	116.9
372.371	6.31
372.582	20.65
372.792	61.61
373.003	43.18
373.214	157.86
373.424	59.56
373.635	-32.6
373.846	139.43
374.056	34.99
374.267	-8.02
374.477	-20.31
374.688	96.43
374.898	49.32
375.109	10.41
375.319	73.9
375.53	57.51
375.74	92.33
375.951	24.75
376.161	2.22
376.372	24.75
376.582	41.13
376.793	118.95
377.003	-5.97
377.214	-40.79
377.424	59.56
377.635	61.61
377.845	14.51
378.055	143.53
378.266	-42.84
378.476	-57.17
378.686	123.05
378.897	22.7
379.107	151.72
379.317	49.32
379.528	-55.12
379.738	84.14
379.948	-5.97
380.158	86.19
380.369	57.51
380.579	88.23
380.789	10.41
380.999	43.18
381.21	151.72
381.42	268.45
381.63	8.36
381.84	112.81
382.05	51.37
382.261	123.05
382.471	104.62
382.681	6.31
382.891	190.63
383.101	114.86
383.311	-100.18
383.521	-42.84
383.731	170.15
383.941	125.1
384.151	82.09
384.361	-10.07
384.571	2.22
384.781	59.56
384.991	221.35
385.201	131.24
385.411	75.95
385.621	65.71
385.831	32.94
386.041	104.62
386.251	96.43
386.461	139.43
386.671	-16.21
386.881	41.13
387.091	2.22
387.301	100.52
387.511	43.18
387.72	86.19
387.93	151.72
388.14	-18.26
388.35	75.95
388.56	108.71
388.769	63.66
388.979	41.13
389.189	2.22
389.399	-38.74
389.609	88.23
389.818	166.06
390.028	82.09
390.238	73.9
390.447	6.31
390.657	45.23
390.867	28.84
391.076	-22.36
391.286	4.27
391.496	47.27
391.705	90.28
391.915	225.45
392.125	26.79
392.334	24.75
392.544	182.44
392.753	51.37
392.963	-26.45
393.172	14.51
393.382	0.17
393.591	100.52
393.801	-12.12
394.01	159.91
394.22	30.89
394.429	24.75
394.639	28.84
394.848	125.1
395.058	88.23
395.267	49.32
395.477	131.24
395.686	34.99
395.895	217.26
396.105	209.06
396.314	88.23
396.524	47.27
396.733	24.75
396.942	82.09
397.152	153.77
397.361	139.43
397.57	37.03
397.78	32.94
397.989	145.58
398.198	32.94
398.407	137.38
398.617	12.46
398.826	108.71
399.035	131.24
399.244	153.77
399.453	53.42
399.663	10.41
399.872	37.03
400.081	8.36
400.29	106.67
400.499	-61.27
400.708	90.28
400.917	45.23
401.127	24.75
401.336	-44.88
401.545	174.25
401.754	114.86
401.963	104.62
402.172	67.75
402.381	-20.31
402.59	-32.6
402.799	49.32
403.008	151.72
403.217	37.03
403.426	41.13
403.635	-98.13
403.844	22.7
404.053	-10.07
404.262	16.55
404.471	182.44
404.68	34.99
404.888	104.62
405.097	61.61
405.306	10.41
405.515	71.85
405.724	0.17
405.933	16.55
406.142	71.85
406.35	168.1
406.559	73.9
406.768	59.56
406.977	168.1
407.185	57.51
407.394	106.67
407.603	8.36
407.812	84.14
408.02	88.23
408.229	6.31
408.438	-3.93
408.646	0.17
408.855	77.99
409.064	100.52
409.272	37.03
409.481	123.05
409.69	73.9
409.898	-26.45
410.107	147.62
410.315	73.9
410.524	45.23
410.733	34.99
410.941	12.46
411.15	28.84
411.358	73.9
411.567	137.38
411.775	-10.07
411.984	96.43
412.192	61.61
412.401	18.6
412.609	110.76
412.818	137.38
413.026	96.43
413.234	49.32
413.443	65.71
413.651	-38.74
413.86	-1.88
414.068	110.76
414.276	168.1
414.485	14.51
414.693	139.43
414.901	219.3
415.11	100.52
415.318	-16.21
415.526	106.67
415.734	118.95
415.943	118.95
416.151	147.62
416.359	57.51
416.567	196.78
416.776	108.71
416.984	43.18
417.192	155.82
417.4	-16.21
417.608	-14.17
417.817	14.51
418.025	151.72
418.233	147.62
418.441	-51.03
418.649	-16.21
418.857	59.56
419.065	127.14
419.273	14.51
419.481	61.61
419.689	98.47
419.897	53.42
420.105	18.6
420.313	-10.07
420.521	182.44
420.729	172.2
420.937	-94.04
421.145	22.7
421.353	118.95
421.561	123.05
421.769	57.51
421.977	32.94
422.185	75.95
422.393	6.31
422.601	104.62
422.809	94.38
423.017	102.57
423.224	28.84
423.432	143.53
423.64	57.51
423.848	116.9
424.056	20.65
424.263	108.71
424.471	51.37
424.679	141.48
424.887	-12.12
425.094	82.09
425.302	153.77
425.51	0.17
425.718	73.9
425.925	39.08
426.133	80.04
426.341	282.79
426.548	59.56
426.756	-14.17
426.964	114.86
427.171	125.1
427.379	98.47
427.586	118.95
427.794	108.71
428.001	174.25
428.209	112.81
428.417	202.92
428.624	131.24
428.832	90.28
429.039	202.92
429.247	129.19
429.454	98.47
429.662	215.21
429.869	127.14
430.076	207.02
430.284	164.01
430.491	186.54
430.699	168.1
430.906	151.72
431.114	118.95
431.321	170.15
431.528	104.62
431.736	131.24
431.943	202.92
432.15	121
432.358	190.63
432.565	231.59
432.772	28.84
432.979	254.12
433.187	139.43
433.394	194.73
433.601	98.47
433.808	159.91
434.016	276.65
434.223	204.97
434.43	270.5
434.637	225.45
434.844	317.61
435.052	252.07
435.259	372.9
435.466	270.5
435.673	286.89
435.88	231.59
436.087	258.21
436.294	325.8
436.501	338.09
436.708	254.12
436.915	377
437.122	358.57
437.329	270.5
437.537	338.09
437.743	329.89
437.95	473.25
438.157	409.76
438.364	348.33
438.571	454.82
438.778	397.48
438.985	422.05
439.192	600.23
439.399	477.35
439.606	518.31
439.813	540.83
440.02	661.66
440.227	698.53
440.433	594.08
440.64	518.31
440.847	557.22
441.054	567.46
441.261	802.97
441.467	610.47
441.674	602.27
441.881	848.03
442.088	714.91
442.294	753.82
442.501	862.37
442.708	917.66
442.914	825.5
443.121	821.41
443.328	864.41
443.534	897.18
443.741	903.32
443.948	903.32
444.154	1056.92
444.361	1167.51
444.568	1122.46
444.774	1149.08
444.981	1003.68
445.187	1245.34
445.394	1194.14
445.6	1175.7
445.807	1357.97
446.013	1233.05
446.22	1265.82
446.426	1433.75
446.633	1534.1
446.839	1673.36
447.046	1398.93
447.252	1661.07
447.459	1691.79
447.665	1745.04
447.871	1908.88
448.078	2021.52
448.284	1984.65
448.491	2150.54
448.697	2164.87
448.903	2269.32
449.11	2125.96
449.316	2189.45
449.522	2388.1
449.728	2576.52
449.935	2601.09
450.141	2627.71
450.347	2926.72
450.553	2838.66
450.76	2904.19
450.966	2977.92
451.172	3156.09
451.378	3354.74
451.584	3145.85
451.791	3592.31
451.997	3608.69
452.203	3709.04
452.409	3876.98
452.615	4067.44
452.821	3962.99
453.027	3960.94
453.233	4454.5
453.44	4270.19
453.646	4503.65
453.852	4606.05
454.058	5003.36
454.264	5052.51
454.47	5558.36
454.676	5513.3
454.882	5865.55
455.088	5730.39
455.294	5978.19
455.5	6445.13
455.705	6680.64
455.911	6844.48
456.117	6989.89
456.323	7247.93
456.529	7180.35
456.735	7833.65
456.941	8046.64
457.147	8298.54
457.352	8751.14
457.558	8894.5
457.764	9564.18
457.97	9490.46
458.176	9924.63
458.381	10539.02
458.587	10819.59
458.793	11128.83
458.999	11255.81
459.204	12521.45
459.41	13088.74
459.616	12664.81
459.821	13701.08
460.027	14254.03
460.233	14870.47
460.438	15040.45
460.644	15914.94
460.85	16017.33
461.055	16115.64
461.261	17215.4
461.466	17229.73
461.672	17407.91
461.878	19376
462.083	19189.64
462.289	19388.29
462.494	20326.26
462.7	20479.86
462.905	20731.76
463.111	22472.53
463.316	23590.72
463.522	23994.17
463.727	24829.74
463.932	25786.15
464.138	26404.63
464.343	27373.32
464.549	27893.51
464.754	29779.68
464.959	30435.03
465.165	30987.99
465.37	30617.3
465.575	31143.63
465.781	32970.42
465.986	33849
466.191	33232.56
466.397	34023.08
466.602	33017.52
466.807	34750.1
467.012	35706.51
467.218	35903.11
467.423	36025.99
467.628	36980.34
467.833	38874.71
468.038	37955.18
468.244	37824.11
468.449	39538.26
468.654	39005.78
468.859	38757.98
469.064	38796.89
469.269	37803.63
469.474	38397.54
469.679	39525.97
469.885	37946.98
470.09	38846.04
470.295	38913.62
470.5	37791.34
470.705	38274.66
470.91	37357.17
471.115	37121.65
471.32	37478
471.525	37254.77
471.73	36351.62
471.935	35909.25
472.139	34934.42
472.344	34815.64
472.549	34471.58
472.754	33906.34
472.959	33269.42
473.164	32112.32
473.369	31510.22
473.574	32532.15
473.778	32011.97
473.983	31313.61
474.188	30650.07
474.393	29081.33
474.598	29021.94
474.802	28151.55
475.007	28053.25
475.212	27897.6
475.417	26812.18
475.621	26605.33
475.826	26285.85
476.031	25861.92
476.235	25118.51
476.44	25413.41
476.645	24471.35
476.849	24418.1
477.054	23961.41
477.259	23052.11
477.463	23408.45
477.668	22568.79
477.872	22595.41
478.077	22060.89
478.282	21340.01
478.486	21071.72
478.691	20797.29
478.895	20864.88
479.1	20531.06
479.304	20707.18
479.509	19855.23
479.713	20109.18
479.918	19408.77
480.122	19122.05
480.326	19218.31
480.531	19341.19
480.735	18941.83
480.94	18931.59
481.144	19337.09
481.348	18296.72
481.553	18468.75
481.757	17907.61
481.961	18218.9
482.166	18177.94
482.37	18149.27
482.574	17751.96
482.778	17608.61
482.983	17917.85
483.187	17493.92
483.391	17545.12
483.595	17168.29
483.8	16891.82
484.004	17123.24
484.208	16918.44
484.412	16828.33
484.616	16451.5
484.821	16238.51
485.025	15845.3
485.229	15812.54
485.433	15583.16
485.637	15493.05
485.841	15226.82
486.045	15187.91
486.249	14913.48
486.453	14538.7
486.657	14278.61
486.861	14178.26
487.065	13651.93
487.269	13877.21
487.473	13154.27
487.677	13545.44
487.881	13402.08
488.085	13113.31
488.289	12961.76
488.493	12548.08
488.697	12627.95
488.901	12154.87
489.105	11925.49
489.309	11710.46
489.512	11657.21
489.716	11384.83
489.92	11196.42
490.124	10872.84
490.328	10928.13
490.531	10622.98
490.735	10586.12
490.939	10252.3
491.143	10143.76
491.346	9766.93
491.55	10041.36
491.754	9697.3
491.958	9541.66
492.161	9295.9
492.365	9363.48
492.569	8863.78
492.772	8861.73
492.976	8992.8
493.18	8597.54
493.383	8515.62
493.587	8374.31
493.79	8198.19
493.994	8073.26
494.197	8239.15
494.401	7991.34
494.605	7919.67
494.808	8103.98
495.012	7911.47
495.215	7979.06
495.419	7956.53
495.622	7587.89
495.825	7645.24
496.029	7729.2
496.232	7772.21
496.436	7559.22
496.639	7815.22
496.843	7493.69
497.046	7530.55
497.249	7657.53
497.453	7583.8
497.656	7440.44
497.859	7540.79
498.063	7577.66
498.266	7884.85
498.469	7432.25
498.673	7673.91
498.876	7581.75
499.079	7632.95
499.282	7530.55
499.485	8114.22
499.689	7598.13
499.892	7968.82
500.095	7739.44
500.298	8110.13
500.501	7606.33
500.705	8167.47
500.908	8114.22
501.111	8159.28
501.314	8185.9
501.517	8378.41
501.72	8398.89
501.923	8372.27
502.126	8441.9
502.329	8640.55
502.532	8771.62
502.735	8851.49
502.938	9080.86
503.141	9089.06
503.344	9072.67
503.547	9353.24
503.75	9326.62
503.953	9371.68
504.156	9717.78
504.359	9742.36
504.562	9924.63
504.765	10004.5
504.968	10176.53
505.17	10426.38
505.373	10481.67
505.576	10702.86
505.779	10831.88
505.982	10780.68
506.185	11198.46
506.387	11126.78
506.59	11483.13
506.793	11675.64
506.996	11823.09
507.198	12247.02
507.401	12353.52
507.604	12629.99
507.807	12929
508.009	13068.26
508.212	13252.58
508.415	13627.35
508.617	13817.82
508.82	13989.85
509.022	14288.85
509.225	14899.14
509.428	15226.82
509.63	15095.75
509.833	15433.66
510.035	16156.6
510.238	16277.43
510.44	16510.89
510.643	17184.68
510.845	17424.29
511.048	17784.73
511.25	18018.2
511.453	18446.23
511.655	19355.52
511.858	19523.46
512.06	19814.27
512.262	20012.92
512.465	20367.22
512.667	21047.15
512.87	21477.22
513.072	21841.76
513.274	22609.75
513.477	23164.75
513.679	23359.3
513.881	24205.11
514.084	24770.35
514.286	25177.9
514.488	25827.1
514.69	26418.97
514.893	27109.13
515.095	27328.27
515.297	27938.56
515.499	28290.81
515.701	28978.93
515.904	29869.79
516.106	30475.99
516.308	31002.32
516.51	31829.7
516.712	32048.83
516.914	32595.64
517.116	33730.22
517.318	34174.63
517.52	34506.4
517.722	35122.83
517.925	36114.05
518.127	36890.23
518.329	37195.38
518.531	37523.05
518.733	38225.51
518.935	39255.64
519.136	39874.12
519.338	40382.02
519.54	40783.42
519.742	41389.62
519.944	41707.05
520.146	42552.87
520.348	43273.75
520.55	43705.87
520.752	43980.3
520.954	45243.9
521.155	45194.75
521.357	45899.25
521.559	46054.89
521.761	47209.95
521.963	47173.08
522.164	48008.65
522.366	48539.08
522.568	48512.45
522.77	49024.45
522.971	49585.59
523.173	49444.28
523.375	50105.77
523.576	50322.86
523.778	50216.36
523.98	51080.61
524.181	51320.22
524.383	50986.4
524.584	51488.15
524.786	51512.73
524.988	51357.08
525.189	51758.48
525.391	51836.31
525.592	52116.88
525.794	51946.9
525.995	51950.99
526.197	51953.04
526.398	51658.13
526.6	51838.36
526.801	51645.85
527.003	51883.41
527.204	51328.41
527.406	51695
527.607	51080.61
527.808	51377.56
528.01	49894.83
528.211	50288.04
528.412	50951.59
528.614	49831.35
528.815	49573.3
529.016	49700.28
529.218	48371.14
529.419	48864.71
529.62	48061.9
529.822	47928.78
530.023	47484.37
530.224	46851.55
530.425	46487.01
530.626	45471.22
530.828	45133.31
531.029	45407.73
531.23	44629.51
531.431	43824.65
531.632	43951.63
531.833	43195.93
532.035	42794.53
532.236	42352.16
532.437	41778.73
532.638	41250.36
532.839	40754.75
533.04	40431.17
533.241	39679.57
533.442	39898.7
533.643	38751.84
533.844	38501.98
534.045	37707.37
534.246	37076.6
534.447	36982.39
534.648	36611.71
534.849	35929.73
535.05	35425.93
535.251	34715.29
535.451	34512.54
535.652	34166.43
535.853	33607.34
536.054	33023.67
536.255	32782.01
536.456	31868.61
536.657	32122.56
536.857	30922.45
537.058	30930.64
537.259	30637.78
537.46	30297.82
537.66	29605.61
537.861	29290.22
538.062	29011.7
538.263	28462.84
538.463	28221.18
538.664	27985.66
538.865	27213.58
539.065	27418.38
539.266	26857.23
539.466	26509.08
539.667	25780
539.868	26130.2
540.068	25319.21
540.269	25450.28
540.469	24901.42
540.67	24653.62
540.87	24262.46
541.071	23916.35
541.271	23826.24
541.472	24026.94
541.672	23406.41
541.873	23203.66
542.073	22622.03
542.274	22792.01
542.474	22275.93
542.675	21958.49
542.875	21765.98
543.075	21620.58
543.276	20782.96
543.476	21288.81
543.676	20698.99
543.877	20432.75
544.077	20655.98
544.277	20363.12
544.478	19793.79
544.678	19533.7
544.878	19251.08
545.078	19171.21
545.279	18741.13
545.479	18669.45
545.679	18487.18
545.879	18192.28
546.079	18163.61
546.28	18116.5
546.48	17538.98
546.68	17647.52
546.88	17147.81
547.08	17113
547.28	16766.89
547.48	16564.14
547.68	16660.4
547.88	16068.53
548.081	16275.38
548.281	15892.41
548.481	15628.22
548.681	15597.5
548.881	15415.23
549.081	15103.94
549.28	14784.46
549.48	14837.7
549.68	14602.19
549.88	14563.28
550.08	14036.95
550.28	13875.16
550.48	13828.06
550.68	13621.21
550.88	13516.76
551.08	12982.24
551.279	13045.73
551.479	12728.3
551.679	12617.71
551.879	12175.34
552.079	12369.9
552.278	12136.43
552.478	12079.09
552.678	11700.22
552.878	11790.33
553.077	11552.76
553.277	11159.55
553.477	11227.14
553.676	10938.37
553.876	10643.46
554.076	10414.09
554.275	10420.24
554.475	10053.65
554.674	10086.42
554.874	9848.85
555.074	9756.69
555.273	9545.75
555.473	9594.9
555.672	9228.32
555.872	9173.02
556.071	8921.12
556.271	9111.58
556.47	8949.79
556.67	8464.43
556.869	8343.6
557.068	8239.15
557.268	8249.39
557.467	8081.46
557.667	8077.36
557.866	7784.5
558.065	7823.41
558.265	7659.57
558.464	7188.54
558.663	7368.76
558.863	7067.71
559.062	7231.55
559.261	6758.47
559.461	7071.81
559.66	6525
559.859	6615.11
560.058	6357.07
560.258	6395.98
560.457	6307.91
560.656	6248.52
560.855	5951.57
561.054	6135.89
561.253	5773.39
561.453	5867.6
561.652	5711.96
561.851	5728.34
562.05	5541.97
562.249	5369.94
562.448	5429.34
562.647	5267.55
562.846	5259.35
563.045	5179.48
563.244	5156.96
563.443	4984.93
563.642	4974.69
563.841	4907.1
564.04	4730.98
564.239	4782.18
564.438	4530.28
564.637	4571.24
564.836	4528.23
565.035	4384.87
565.234	4341.86
565.432	4446.31
565.631	4407.4
565.83	4245.61
566.029	4046.96
566.228	4122.73
566.427	4065.39
566.625	3811.44
566.824	3965.04
567.023	3833.97
567.222	3833.97
567.42	3819.63
567.619	3850.35
567.818	3594.36
568.016	3821.68
568.215	3618.93
568.414	3723.38
568.612	3489.91
568.811	3352.7
569.01	3307.64
569.208	3242.11
569.407	3391.61
569.605	3209.34
569.804	3131.51
570.002	3010.68
570.201	2934.91
570.4	3147.9
570.598	3051.64
570.797	3014.78
570.995	2934.91
571.193	2947.2
571.392	2852.99
571.59	2756.74
571.789	2857.09
571.987	2834.56
572.186	2799.74
572.384	2535.56
572.582	2644.1
572.781	2568.32
572.979	2386.05
573.177	2515.08
573.376	2353.29
573.574	2467.97
573.772	2347.14
573.971	2230.41
574.169	2207.88
574.367	2199.69
574.565	2261.13
574.763	2254.98
574.962	2152.59
575.16	2074.76
575.358	2138.25
575.556	1941.65
575.754	1998.99
575.952	1972.36
576.151	1980.56
576.349	1943.69
576.547	1910.93
576.745	1882.25
576.943	1890.45
577.141	1814.67
577.339	1734.8
577.537	1788.05
577.735	1726.61
577.933	1773.71
578.131	1677.46
578.329	1833.1
578.527	1630.35
578.725	1681.55
578.923	1476.76
579.121	1575.06
579.319	1370.26
579.516	1392.79
579.714	1593.49
579.912	1542.29
580.11	1179.8
580.308	1431.7
580.506	1392.79
580.704	1245.34
580.901	1274.01
581.099	1509.52
581.297	1298.58
581.495	1263.77
581.692	1261.72
581.89	1296.53
582.088	1284.25
582.285	1222.81
582.483	1132.7
582.681	1126.55
582.878	1028.25
583.076	1161.37
583.274	1151.13
583.471	1194.14
583.669	1058.97
583.866	1007.77
584.064	1044.63
584.262	960.67
584.459	1003.68
584.657	1009.82
584.854	1050.78
585.052	1140.89
585.249	948.38
585.447	1044.63
585.644	829.6
585.841	1046.68
586.039	950.43
586.236	925.85
586.434	850.08
586.631	759.97
586.828	909.47
587.026	817.31
587.223	723.1
587.42	698.53
587.618	796.83
587.815	938.14
588.012	772.25
588.21	778.4
588.407	835.74
588.604	841.89
588.801	766.11
588.999	739.49
589.196	774.3
589.393	774.3
589.59	755.87
589.787	753.82
589.984	751.78
590.182	747.68
590.379	628.9
590.576	612.51
590.773	747.68
590.97	665.76
591.167	794.78
591.364	673.95
591.561	655.52
591.758	805.02
591.955	735.39
592.152	686.24
592.349	647.33
592.546	712.86
592.743	663.71
592.94	657.57
593.137	676
593.334	774.3
593.531	813.21
593.727	714.91
593.924	680.1
594.121	635.04
594.318	575.65
594.515	762.02
594.712	800.93
594.908	802.97
595.105	626.85
595.302	729.25
595.499	739.49
595.696	852.13
595.892	686.24
596.089	786.59
596.286	700.58
596.482	911.52
596.679	868.51
596.876	762.02
597.072	938.14
597.269	843.93
597.466	874.65
597.662	895.13
597.859	919.71
598.055	1093.79
598.252	1022.11
598.448	1081.5
598.645	1042.59
598.841	1108.12
599.038	1355.93
599.234	1374.36
599.431	1298.58
599.627	1384.6
599.824	1327.25
600.02	1466.52
600.217	1443.99
600.413	1425.56
600.609	1509.52
600.806	1753.23
601.002	1822.86
601.198	1652.88
601.395	1822.86
601.591	1872.01
601.787	1949.84
601.984	1947.79
602.18	2029.71
602.376	2220.17
602.572	2304.14
602.769	2392.2
602.965	2525.32
603.161	2502.79
603.357	2545.8
603.553	2717.83
603.75	2717.83
603.946	2881.66
604.142	2809.98
604.338	3102.84
604.534	3258.49
604.73	3168.38
604.926	3346.55
605.122	3516.53
605.318	3545.2
605.514	3778.67
605.71	3627.12
605.906	3909.74
606.102	3840.11
606.298	4012.14
606.494	4325.48
606.69	4497.51
606.886	4460.65
607.082	4411.5
607.278	4671.59
607.474	4966.49
607.67	5079.13
607.866	4978.78
608.062	5255.26
608.257	5439.58
608.453	5357.66
608.649	5701.72
608.845	5804.11
609.041	5734.48
609.236	6056.01
609.432	6529.1
609.628	6643.78
609.824	6737.99
610.019	6744.13
610.215	6912.07
610.411	7245.88
610.606	7440.44
610.802	7530.55
610.998	8017.97
611.193	8040.5
611.389	7985.2
611.584	8427.56
611.78	8429.61
611.976	8861.73
612.171	9166.88
612.367	9343
612.562	9539.61
612.758	9625.62
612.953	9834.52
613.149	10250.25
613.344	10395.66
613.539	10829.83
613.735	11177.98
613.93	11681.78
614.126	11616.25
614.321	11864.05
614.517	12349.42
614.712	12525.55
614.907	12943.33
615.103	13338.59
615.298	13574.11
615.493	13848.54
615.688	14016.47
615.884	14553.04
616.079	14876.62
616.274	15427.52
616.47	15570.88
616.665	15865.78
616.86	16334.77
617.055	16842.67
617.25	17352.61
617.445	17549.21
617.641	17960.86
617.836	18366.35
618.031	18970.51
618.226	19367.81
618.421	19699.58
618.616	20533.11
618.811	20772.72
619.006	21561.19
619.201	21659.49
619.396	22075.23
619.591	22191.96
619.786	23349.06
619.981	23469.89
620.176	24338.23
620.371	24565.56
620.566	25124.65
620.761	25448.23
620.956	26205.98
621.151	26312.47
621.346	27266.83
621.541	27236.11
621.735	28282.62
621.93	28081.92
622.125	28784.37
622.32	29454.06
622.515	29880.03
622.709	30592.73
622.904	31375.05
623.099	31483.59
623.294	32394.94
623.488	32480.96
623.683	33717.93
623.878	33345.2
624.072	34346.65
624.267	34926.23
624.462	35534.48
624.656	35497.61
624.851	36535.93
625.046	36773.5
625.24	37260.91
625.435	37400.18
625.629	38207.08
625.824	38958.68
626.018	39401.04
626.213	39001.69
626.407	40461.89
626.602	40115.78
626.796	41467.44
626.991	41545.26
627.185	41897.52
627.38	41791.02
627.574	41913.9
627.768	42712.61
627.963	42622.5
628.157	42376.74
628.352	42753.57
628.546	42530.34
628.74	43226.65
628.935	42526.24
629.129	42837.53
629.323	42716.7
629.517	42077.74
629.712	42257.96
629.906	42139.18
630.1	41672.24
630.294	41250.36
630.489	40613.44
630.683	40500.8
630.877	39427.67
631.071	39163.48
631.265	38504.03
631.459	37557.87
631.653	36959.86
631.848	36105.86
632.042	35233.43
632.236	34602.65
632.43	33433.26
632.624	32904.88
632.818	31829.7
633.012	30564.06
633.206	29720.29
633.4	29124.33
633.594	27807.49
633.788	26887.95
633.982	26375.96
634.176	25237.29
634.369	24137.53
634.563	23365.45
634.757	22320.98
634.951	21839.71
635.145	20887.4
635.339	20060.02
635.533	19029.9
635.726	18530.19
635.92	17571.74
636.114	17110.95
636.308	16111.54
636.501	15830.97
636.695	15224.77
636.889	14147.54
637.083	13967.32
637.276	13148.13
637.47	12529.64
637.664	12113.91
637.857	11808.76
638.051	11198.46
638.244	10629.13
638.438	10215.44
638.632	9924.63
638.825	9396.25
639.019	9105.44
639.212	8624.17
639.406	8366.12
639.599	7991.34
639.793	7727.16
639.986	7286.84
640.18	7342.14
640.373	7022.66
640.567	6553.67
640.76	6402.12
640.954	6312.01
641.147	5857.36
641.34	5664.85
641.534	5433.43
641.727	5296.22
641.92	5085.28
642.114	4952.16
642.307	4702.31
642.5	4513.89
642.694	4296.81
642.887	4241.51
643.08	4075.63
643.273	3985.52
643.467	3620.98
643.66	3451
643.853	3356.79
644.046	3348.6
644.239	3029.12
644.432	2988.16
644.626	2836.61
644.819	2773.12
645.012	2781.31
645.205	2685.06
645.398	2551.94
645.591	2472.07
645.784	2345.09
645.977	2164.87
646.17	2089.1
646.363	2021.52
646.556	1841.29
646.749	1806.48
646.942	1812.62
647.135	1810.58
647.328	1724.56
647.521	1609.87
647.714	1476.76
647.907	1521.81
648.099	1441.94
648.292	1423.51
648.485	1317.01
648.678	1253.53
648.871	1212.57
649.064	1192.09
649.256	1038.49
649.449	1036.44
649.642	993.44
649.835	1003.68
650.027	975
650.22	946.33
650.413	940.19
650.605	944.28
650.798	811.17
650.991	899.23
651.183	737.44
651.376	809.12
651.568	944.28
651.761	704.67
651.954	714.91
652.146	684.19
652.339	710.82
652.531	739.49
652.724	522.4
652.916	487.59
653.109	446.63
653.301	546.98
653.494	579.75
653.686	585.89
653.879	581.79
654.071	559.27
654.263	432.29
654.456	393.38
654.648	598.18
654.84	487.59
655.033	444.58
655.225	510.11
655.417	358.57
655.61	456.87
655.802	436.39
655.994	469.16
656.186	276.65
656.379	463.01
656.571	313.51
656.763	315.56
656.955	268.45
657.148	303.27
657.34	450.72
657.532	245.93
657.724	241.83
657.916	387.24
658.108	352.42
658.3	379.04
658.492	403.62
658.684	215.21
658.876	403.62
659.068	174.25
659.26	178.34
659.452	209.06
659.644	243.88
659.836	393.38
660.028	200.87
660.22	264.36
660.412	217.26
660.604	231.59
660.796	284.84
660.988	313.51
661.18	141.48
661.372	305.32
661.563	250.02
661.755	256.17
661.947	137.38
662.139	114.86
662.331	256.17
662.522	202.92
662.714	86.19
662.906	73.9
663.097	182.44
663.289	145.58
663.481	37.03
663.673	223.4
663.864	135.34
664.056	157.86
664.247	96.43
664.439	266.41
664.631	186.54
664.822	211.11
665.014	92.33
665.205	125.1
665.397	170.15
665.588	139.43
665.78	112.81
665.971	190.63
666.163	143.53
666.354	174.25
666.546	178.34
666.737	133.29
666.929	110.76
667.12	112.81
667.311	227.5
667.503	92.33
667.694	178.34
667.885	125.1
668.077	186.54
668.268	10.41
668.459	161.96
668.651	204.97
668.842	147.62
669.033	123.05
669.224	82.09
669.416	231.59
669.607	55.47
669.798	63.66
669.989	157.86
670.18	157.86
670.371	221.35
670.563	88.23
670.754	180.39
670.945	176.3
671.136	178.34
671.327	26.79
671.518	213.16
671.709	229.54
671.9	184.49
672.091	237.74
672.282	108.71
672.473	157.86
672.664	90.28
672.855	86.19
673.046	217.26
673.237	143.53
673.428	88.23
673.619	123.05
673.809	63.66
674	276.65
674.191	211.11
674.382	112.81
674.573	92.33
674.764	88.23
674.954	231.59
675.145	84.14
675.336	61.61
675.527	112.81
675.717	116.9
675.908	159.91
676.099	133.29
676.289	96.43
676.48	106.67
676.671	184.49
676.861	96.43
677.052	102.57
677.243	188.58
677.433	123.05
677.624	110.76
677.814	161.96
678.005	151.72
678.195	319.65
678.386	14.51
678.576	176.3
678.767	112.81
678.957	102.57
679.148	237.74
679.338	299.17
679.529	92.33
679.719	161.96
679.909	161.96
680.1	204.97
680.29	157.86
680.481	123.05
680.671	227.5
680.861	250.02
681.052	116.9
681.242	73.9
681.432	159.91
681.622	108.71
681.813	110.76
682.003	188.58
682.193	77.99
682.383	133.29
682.573	159.91
682.764	77.99
682.954	297.13
683.144	254.12
683.334	145.58
683.524	172.2
683.714	227.5
683.904	186.54
684.094	161.96
684.284	178.34
684.474	239.78
684.664	202.92
684.854	204.97
685.044	188.58
685.234	149.67
685.424	256.17
685.614	166.06
685.804	229.54
685.994	235.69
686.184	227.5
686.374	213.16
686.564	215.21
686.753	180.39
686.943	86.19
687.133	143.53
687.323	258.21
687.513	215.21
687.702	178.34
687.892	129.19
688.082	256.17
688.272	182.44
688.461	192.68
688.651	252.07
688.841	272.55
689.03	98.47
689.22	178.34
689.41	268.45
689.599	204.97
689.789	112.81
689.979	315.56
690.168	190.63
690.358	243.88
690.547	211.11
690.737	174.25
690.926	241.83
691.116	268.45
691.305	260.26
691.495	256.17
691.684	61.61
691.874	141.48
692.063	184.49
692.252	252.07
692.442	225.45
692.631	202.92
692.82	147.62
693.01	276.65
693.199	143.53
693.388	231.59
693.578	180.39
693.767	307.37
693.956	211.11
694.146	217.26
694.335	258.21
694.524	118.95
694.713	198.82
694.902	137.38
695.092	100.52
695.281	161.96
695.47	155.82
695.659	102.57
695.848	196.78
696.037	94.38
696.226	229.54
696.415	147.62
696.604	295.08
696.793	200.87
696.982	90.28
697.171	354.47
697.36	110.76
697.549	157.86
697.738	57.51
697.927	139.43
698.116	102.57
698.305	295.08
698.494	168.1
698.683	110.76
698.872	284.84
699.061	178.34
699.25	96.43
699.438	157.86
699.627	133.29
699.816	258.21
700.005	53.42
700.193	59.56
700.382	233.64
700.571	141.48
700.76	221.35
700.948	182.44
701.137	223.4
701.326	176.3
701.514	96.43
701.703	233.64
701.892	223.4
702.08	407.72
702.269	86.19
702.457	147.62
702.646	319.65
702.834	127.14
703.023	256.17
703.212	215.21
703.4	155.82
703.589	102.57
703.777	200.87
703.965	155.82
704.154	123.05
704.342	118.95
704.531	245.93
704.719	108.71
704.907	317.61
705.096	112.81
705.284	90.28
705.472	211.11
705.661	231.59
705.849	213.16
706.037	286.89
706.226	161.96
706.414	121
706.602	53.42
706.79	166.06
706.979	82.09
707.167	157.86
707.355	59.56
707.543	106.67
707.731	215.21
707.919	155.82
708.107	121
708.296	73.9
708.484	135.34
708.672	59.56
708.86	213.16
709.048	170.15
709.236	123.05
709.424	153.77
709.612	190.63
709.8	67.75
709.988	188.58
710.176	239.78
710.364	252.07
710.551	108.71
710.739	223.4
710.927	100.52
711.115	264.36
711.303	166.06
711.491	278.69
711.679	170.15
711.866	166.06
712.054	118.95
712.242	157.86
712.43	229.54
712.617	141.48
712.805	211.11
712.993	147.62
713.181	41.13
713.368	221.35
713.556	133.29
713.744	166.06
713.931	354.47
714.119	143.53
714.306	149.67
714.494	127.14
714.682	192.68
714.869	116.9
715.057	186.54
715.244	49.32
715.432	147.62
715.619	114.86
715.807	204.97
715.994	121
716.182	133.29
716.369	231.59
716.556	188.58
716.744	141.48
716.931	51.37
717.119	227.5
717.306	174.25
717.493	141.48
717.681	80.04
717.868	94.38
718.055	153.77
718.242	116.9
718.43	129.19
718.617	276.65
718.804	245.93
718.991	190.63
719.179	207.02
719.366	241.83
719.553	227.5
719.74	229.54
719.927	229.54
720.114	184.49
720.301	98.47
720.488	170.15
720.676	100.52
720.863	256.17
721.05	356.52
721.237	172.2
721.424	198.82
721.611	237.74
721.798	75.95
721.985	184.49
722.172	155.82
722.358	149.67
722.545	200.87
722.732	84.14
722.919	266.41
723.106	133.29
723.293	202.92
723.48	225.45
723.667	108.71
723.853	235.69
724.04	229.54
724.227	225.45
724.414	133.29
724.6	223.4
724.787	309.41
724.974	274.6
725.161	108.71
725.347	151.72
725.534	243.88
725.72	166.06
725.907	305.32
726.094	254.12
726.28	127.14
726.467	317.61
726.653	86.19
726.84	340.13
727.027	336.04
727.213	164.01
727.4	229.54
727.586	223.4
727.773	164.01
727.959	184.49
728.145	217.26
728.332	118.95
728.518	159.91
728.705	182.44
728.891	239.78
729.077	161.96
729.264	131.24
729.45	123.05
729.636	276.65
729.823	243.88
730.009	346.28
730.195	168.1
730.382	274.6
730.568	114.86
730.754	229.54
730.94	223.4
731.126	184.49
731.313	217.26
731.499	229.54
731.685	192.68
731.871	229.54
732.057	194.73
732.243	225.45
732.429	321.7
732.615	215.21
732.801	223.4
732.987	262.31
733.173	237.74
733.359	164.01
733.545	229.54
733.731	204.97
733.917	325.8
734.103	157.86
734.289	147.62
734.475	127.14
734.661	284.84
734.847	157.86
735.033	69.8
735.219	221.35
735.404	215.21
735.59	217.26
735.776	157.86
735.962	180.39
736.148	245.93
736.333	233.64
736.519	172.2
736.705	239.78
736.89	200.87
737.076	168.1
737.262	231.59
737.447	174.25
737.633	176.3
737.819	241.83
738.004	164.01
738.19	227.5
738.375	227.5
738.561	336.04
738.747	245.93
738.932	139.43
739.118	352.42
739.303	198.82
739.489	276.65
739.674	221.35
739.859	147.62
740.045	274.6
740.23	268.45
740.416	96.43
740.601	254.12
740.786	221.35
740.972	198.82
741.157	161.96
741.342	86.19
741.528	118.95
741.713	272.55
741.898	133.29
742.084	184.49
742.269	233.64
742.454	223.4
742.639	262.31
742.824	121
743.01	245.93
743.195	309.41
743.38	276.65
743.565	200.87
743.75	202.92
743.935	254.12
744.12	211.11
744.305	114.86
744.49	250.02
744.675	149.67
744.86	184.49
745.045	256.17
745.23	213.16
745.415	182.44
745.6	229.54
745.785	145.58
745.97	231.59
746.155	221.35
746.34	333.99
746.525	297.13
746.71	344.23
746.895	153.77
747.079	182.44
747.264	180.39
747.449	243.88
747.634	180.39
747.819	209.06
748.003	217.26
748.188	116.9
748.373	264.36
748.557	145.58
748.742	192.68
748.927	194.73
749.111	211.11
749.296	121
749.481	207.02
749.665	161.96
749.85	145.58
750.034	137.38
750.219	202.92
750.404	102.57
750.588	192.68
750.773	147.62
750.957	270.5
751.141	125.1
751.326	151.72
751.51	26.79
751.695	125.1
751.879	184.49
752.064	252.07
752.248	69.8
752.432	211.11
752.617	166.06
752.801	243.88
752.985	131.24
753.17	258.21
753.354	161.96
753.538	172.2
753.722	73.9
753.907	71.85
754.091	108.71
754.275	213.16
754.459	118.95
754.643	12.46
754.828	211.11
755.012	127.14
755.196	67.75
755.38	235.69
755.564	135.34
755.748	182.44
755.932	166.06
756.116	202.92
756.3	86.19
756.484	145.58
756.668	188.58
756.852	16.55
757.036	118.95
757.22	157.86
757.404	131.24
757.588	45.23
757.772	106.67
757.956	75.95
758.14	319.65
758.323	82.09
758.507	137.38
758.691	108.71
758.875	184.49
759.059	198.82
759.242	55.47
759.426	32.94
759.61	151.72
759.794	61.61
759.977	219.3
760.161	288.93
760.345	235.69
760.528	137.38
760.712	112.81
760.895	108.71
761.079	155.82
761.263	65.71
761.446	61.61
761.63	92.33
761.813	200.87
761.997	51.37
762.18	73.9
762.364	168.1
762.547	-16.21
762.731	114.86
762.914	106.67
763.098	65.71
763.281	55.47
763.464	84.14
763.648	164.01
763.831	0.17
764.015	51.37
764.198	164.01
764.381	71.85
764.564	61.61
764.748	92.33
764.931	161.96
765.114	94.38
765.297	106.67
765.481	14.51
765.664	20.65
765.847	61.61
766.03	186.54
766.213	65.71
766.397	151.72
766.58	-22.36
766.763	151.72
766.946	114.86
767.129	63.66
767.312	22.7
767.495	77.99
767.678	-8.02
767.861	82.09
768.044	86.19
768.227	71.85
768.41	61.61
768.593	43.18
768.776	94.38
768.959	22.7
769.142	118.95
769.324	51.37
769.507	37.03
769.69	18.6
769.873	88.23
770.056	221.35
770.239	63.66
770.421	151.72
770.604	73.9
770.787	59.56
770.97	55.47
771.152	16.55
771.335	75.95
771.518	-69.46
771.7	229.54
771.883	141.48
772.066	37.03
772.248	96.43
772.431	170.15
772.613	157.86
772.796	34.99
772.978	129.19
773.161	106.67
773.343	-10.07
773.526	59.56
773.708	-51.03
773.891	-118.61
774.073	51.37
774.256	71.85
774.438	182.44
774.621	63.66
774.803	123.05
774.985	59.56
775.168	106.67
775.35	47.27
775.532	131.24
775.715	-34.64
775.897	116.9
776.079	71.85
776.261	63.66
776.444	75.95
776.626	-8.02
776.808	96.43
776.99	-87.89
777.173	16.55
777.355	73.9
777.537	61.61
777.719	45.23
777.901	14.51
778.083	-61.27
778.265	-73.56
778.447	98.47
778.629	10.41
778.811	100.52
778.993	100.52
779.175	190.63
779.357	125.1
779.539	-28.5
779.721	55.47
779.903	82.09
780.085	-20.31
780.267	94.38
780.449	49.32
780.631	157.86
780.812	135.34
780.994	41.13
781.176	67.75
781.358	-69.46
781.54	61.61
781.721	65.71
781.903	98.47
782.085	-63.32
782.267	188.58
782.448	-98.13
782.63	51.37
782.812	90.28
782.993	96.43
783.175	82.09
783.357	8.36
783.538	34.99
783.72	6.31
783.901	71.85
784.083	100.52
784.264	55.47
784.446	-34.64
784.627	-8.02
784.809	125.1
784.99	61.61
785.172	94.38
785.353	28.84
785.535	55.47
785.716	-85.84
785.897	-83.8
786.079	-24.4
786.26	53.42
786.441	71.85
786.623	-59.22
786.804	-22.36
786.985	51.37
787.167	24.75
787.348	24.75
787.529	10.41
787.71	90.28
787.891	75.95
788.073	-14.17
788.254	-71.51
788.435	196.78
788.616	43.18
788.797	-51.03
788.978	39.08
789.159	14.51
789.34	106.67
789.522	-22.36
789.703	22.7
789.884	125.1
790.065	77.99
790.246	121
790.427	10.41
790.607	114.86
790.788	67.75
790.969	-53.08
791.15	96.43
791.331	-53.08
791.512	37.03
791.693	37.03
791.874	96.43
792.054	219.3
792.235	98.47
792.416	-10.07
792.597	-48.98
792.778	24.75
792.958	57.51
793.139	43.18
793.32	92.33
793.5	-51.03
793.681	61.61
793.862	43.18
794.042	28.84
794.223	-8.02
794.404	24.75
794.584	-53.08
794.765	-63.32
794.945	-51.03
795.126	18.6
795.306	108.71
795.487	30.89
795.667	45.23
795.848	-1.88
796.028	20.65
796.209	92.33
796.389	100.52
796.57	16.55
796.75	-81.75
796.93	12.46
797.111	-5.97
797.291	20.65
797.471	55.47
797.652	-61.27
797.832	-44.88
798.012	73.9
798.192	-38.74
798.373	-71.51
798.553	71.85
798.733	77.99
798.913	26.79
799.093	14.51
799.274	61.61
799.454	-14.17
799.634	98.47
799.814	172.2
799.994	2.22
800.174	45.23
800.354	0.17
800.534	-130.9
800.714	6.31
800.894	-57.17
801.074	-61.27
801.254	-57.17
801.434	190.63
801.614	-8.02
801.794	-22.36
801.974	1849.49
802.154	55.47
802.334	30.89
802.514	-1.88
802.693	24.75
802.873	2.22
803.053	75.95
803.233	-34.64
803.413	8.36
803.592	-46.93
803.772	-71.51
803.952	-57.17
804.131	-69.46
804.311	127.14
804.491	104.62
804.67	-28.5
804.85	-30.55
805.03	82.09
805.209	84.14
805.389	-40.79
805.568	-36.69
805.748	-1.88
805.928	-12.12
806.107	14.51
806.287	12.46
806.466	22.7
806.646	24.75
806.825	-18.26
807.004	-98.13
807.184	32.94
807.363	131.24
807.543	39.08
807.722	-55.12
807.901	153.77
808.081	94.38
808.26	-137.04
808.439	16.55
808.619	45.23
808.798	-59.22
808.977	43.18
809.156	43.18
809.336	20.65
809.515	96.43
809.694	0.17
809.873	41.13
810.052	4.27
810.231	88.23
810.411	82.09
810.59	55.47
810.769	-24.4
810.948	51.37
811.127	-118.61
811.306	-14.17
811.485	-26.45
811.664	104.62
811.843	59.56
812.022	30.89
812.201	-24.4
812.38	-32.6
812.559	-32.6
812.737	73.9
812.916	-77.65
813.095	-46.93
813.274	65.71
813.453	-28.5
813.632	-22.36
813.811	94.38
813.989	-63.32
814.168	12.46
814.347	-137.04
814.526	26.79
814.704	77.99
814.883	159.91
815.062	-53.08
815.24	51.37
815.419	14.51
815.598	24.75
815.776	-108.37
815.955	-67.41
816.133	-120.66
816.312	-46.93
816.49	14.51
816.669	-8.02
816.847	-81.75
817.026	51.37
817.204	-34.64
817.383	0.17
817.561	-24.4
817.74	59.56
817.918	84.14
818.097	-32.6
818.275	24.75
818.453	-42.84
818.632	14.51
818.81	-34.64
818.988	-38.74
819.167	-32.6
819.345	26.79
819.523	-24.4
819.701	-28.5
819.879	51.37
820.058	20.65
820.236	63.66
820.414	-26.45
820.592	53.42
820.77	-34.64
820.948	-30.55
821.127	-22.36
821.305	65.71
821.483	16.55
821.661	37.03
821.839	37.03
822.017	-67.41
822.195	-81.75
822.373	14.51
822.551	12.46
822.729	121
822.907	-69.46
823.085	37.03
823.262	69.8
823.44	-40.79
823.618	-28.5
823.796	-59.22
823.974	14.51
824.152	-55.12
824.329	24.75
824.507	24.75
824.685	4.27
824.863	-32.6
825.04	-8.02
825.218	77.99
825.396	18.6
825.574	14.51
825.751	4.27
825.929	41.13
826.107	-79.7
826.284	-26.45
826.462	16.55
826.639	-59.22
826.817	-79.7
826.994	-5.97
827.172	-89.94
827.349	65.71
827.527	26.79
827.704	-40.79
827.882	121
828.059	-77.65
828.237	32.94
828.414	22.7
828.591	-120.66
828.769	28.84
828.946	-48.98
829.124	32.94
829.301	61.61
829.478	-18.26
829.655	96.43
829.833	43.18
830.01	-110.42
830.187	4.27
830.364	8.36
830.542	67.75
830.719	94.38
830.896	6.31
831.073	47.27
831.25	34.99
831.427	-16.21
831.604	-40.79
831.782	-96.08
831.959	61.61
832.136	-89.94
832.313	4.27
832.49	24.75
832.667	16.55
832.844	-51.03
833.021	69.8
833.198	-5.97
833.374	34.99
833.551	-3.93
833.728	22.7
833.905	80.04
834.082	-96.08
834.259	-28.5
834.436	135.34
834.612	-79.7
834.789	59.56
834.966	34.99
835.143	39.08
835.319	-149.33
835.496	-34.64
835.673	22.7
835.85	2.22
836.026	30.89
836.203	106.67
836.38	-48.98
836.556	-69.46
836.733	22.7
836.909	125.1
837.086	-61.27
837.262	-114.52
837.439	-51.03
837.616	-3.93
837.792	-44.88
837.968	-5.97
838.145	-116.56
838.321	-5.97
838.498	18.6
838.674	30.89
838.851	37.03
839.027	-8.02
839.203	8.36
839.38	39.08
839.556	-91.99
839.732	88.23
839.909	51.37
840.085	-12.12
840.261	-26.45
840.437	-100.18
840.614	-30.55
840.79	61.61
840.966	-12.12
841.142	-34.64
841.318	-73.56
841.494	34.99
841.671	37.03
841.847	-8.02
842.023	-28.5
842.199	-75.6
842.375	86.19
842.551	-89.94
842.727	-85.84
842.903	127.14
843.079	-89.94
843.255	108.71
843.431	-8.02
843.607	86.19
843.783	-102.23
843.959	41.13
844.134	-67.41
844.31	98.47
844.486	-32.6
844.662	-18.26
844.838	-12.12
845.013	-3.93
845.189	102.57
845.365	-10.07
845.541	-24.4
845.716	-34.64
845.892	10.41
846.068	-53.08
846.244	-53.08
846.419	8.36
846.595	-8.02
846.77	-10.07
846.946	57.51
847.122	24.75
847.297	-67.41
847.473	69.8
847.648	-83.8
847.824	-10.07
847.999	-102.23
848.175	10.41
848.35	16.55
848.526	59.56
848.701	157.86
848.876	53.42
849.052	65.71
849.227	-32.6
849.403	-57.17
849.578	-40.79
849.753	-18.26
849.929	-10.07
850.104	-110.42
850.279	-71.51
850.454	-1.88
850.63	141.48
850.805	39.08
850.98	49.32
851.155	16.55
851.33	53.42
851.505	-128.85
851.681	16.55
851.856	-55.12
852.031	59.56
852.206	100.52
852.381	-71.51
852.556	34.99
852.731	-1.88
852.906	-3.93
853.081	37.03
853.256	84.14
853.431	-14.17
853.606	-8.02
853.781	-48.98
853.956	-178
854.131	2.22
854.305	-94.04
854.48	-75.6
854.655	-24.4
854.83	-18.26
855.005	-75.6
855.18	135.34
855.354	65.71
855.529	18.6
855.704	-57.17
855.879	26.79
856.053	-159.57
856.228	-87.89
856.403	-126.8
856.577	-18.26
856.752	-124.76
856.926	-51.03
857.101	2.22
857.276	-91.99
857.45	-16.21
857.625	-16.21
857.799	-5.97
857.974	41.13
858.148	-147.28
858.323	4.27
858.497	-46.93
858.672	-40.79
858.846	-57.17
859.02	67.75
859.195	-102.23
859.369	28.84
859.543	59.56
859.718	-28.5
859.892	-1.88
860.066	-5.97
860.241	-79.7
860.415	-30.55
860.589	-42.84
860.763	-3.93
860.938	2.22
861.112	10.41
861.286	-18.26
861.46	53.42
861.634	6.31
861.808	61.61
861.982	-75.6
862.157	-128.85
862.331	-106.32
862.505	-137.04
862.679	-77.65
862.853	-20.31
863.027	-8.02
863.201	153.77
863.375	14.51
863.549	22.7
863.722	-32.6
863.896	135.34
864.07	-79.7
864.244	2.22
864.418	86.19
864.592	4.27
864.766	-53.08
864.939	-59.22
865.113	-63.32
865.287	65.71
865.461	-55.12
865.634	-34.64
865.808	-10.07
865.982	-91.99
866.156	-55.12
866.329	-87.89
866.503	65.71
866.676	16.55
866.85	18.6
867.024	34.99
867.197	55.47
867.371	-28.5
867.544	0.17
867.718	-94.04
867.891	88.23
868.065	-81.75
868.238	-32.6
868.412	90.28
868.585	-22.36
868.759	-24.4
868.932	4.27
869.105	-100.18
869.279	47.27
869.452	0.17
869.625	51.37
869.799	-22.36
869.972	-75.6
870.145	-104.28
870.319	112.81
870.492	-81.75
870.665	-1.88
870.838	-44.88
871.011	-167.76
871.185	-14.17
871.358	-143.19
871.531	71.85
871.704	-71.51
871.877	26.79
872.05	-24.4
872.223	-104.28
872.396	86.19
872.569	24.75
872.742	-83.8
872.915	-5.97
873.088	-81.75
873.261	-55.12
873.434	30.89
873.607	-22.36
873.78	57.51
873.953	-126.8
874.126	-34.64
874.299	-73.56
874.471	4.27
874.644	8.36
874.817	59.56
874.99	82.09
875.163	-42.84
875.335	-14.17
875.508	-30.55
875.681	41.13
875.853	-26.45
876.026	51.37
876.199	20.65
876.371	24.75
876.544	-46.93
876.717	61.61
876.889	-8.02
877.062	32.94
877.234	-44.88
877.407	-40.79
877.579	51.37
877.752	-61.27
877.924	92.33
878.097	26.79
878.269	-1.88
878.442	18.6
878.614	53.42
878.786	67.75
878.959	12.46
879.131	41.13
879.303	-112.47
879.476	14.51
879.648	151.72
879.82	-14.17
879.993	-26.45
880.165	-40.79
880.337	-55.12
880.509	10.41
880.681	-75.6
880.854	-83.8
881.026	57.51
881.198	176.3
881.37	-1.88
881.542	-42.84
881.714	-42.84
881.886	-38.74
882.058	-77.65
882.23	-30.55
882.402	-69.46
882.574	0.17
882.746	73.9
882.918	88.23
883.09	34.99
883.262	-46.93
883.434	24.75
883.606	-130.9
883.778	-83.8
883.95	75.95
884.122	-34.64
884.293	55.47
884.465	24.75
884.637	65.71
884.809	-34.64
884.98	8.36
885.152	49.32
885.324	65.71
885.496	-59.22
885.667	-12.12
885.839	-44.88
886.011	41.13
886.182	-8.02
886.354	80.04
886.525	0.17
886.697	6.31
886.869	-59.22
887.04	12.46
887.212	100.52
887.383	121
887.555	20.65
887.726	-51.03
887.897	-110.42
888.069	-10.07
888.24	77.99
888.412	20.65
888.583	22.7
888.754	-69.46
888.926	-77.65
889.097	-75.6
889.268	-98.13
889.44	45.23
889.611	-147.28
889.782	-100.18
889.953	-89.94
890.125	104.62
890.296	-163.67
890.467	-53.08
890.638	-57.17
890.809	8.36
890.98	53.42
891.151	18.6
891.323	45.23
891.494	14.51
891.665	61.61
891.836	-14.17
892.007	12.46
892.178	32.94
892.349	12.46
892.52	-59.22
892.691	69.8
892.862	-91.99
893.032	-102.23
893.203	-32.6
893.374	-34.64
893.545	92.33
893.716	-36.69
893.887	-5.97
894.057	-44.88
894.228	-24.4
894.399	-75.6
894.57	63.66
894.74	0.17
894.911	53.42
895.082	-71.51
895.253	-26.45
895.423	-63.32
895.594	63.66
895.764	-5.97
895.935	-57.17
896.106	-38.74
896.276	22.7
896.447	32.94
896.617	-100.18
896.788	-100.18
896.958	4.27
897.129	-48.98
897.299	-57.17
897.47	125.1
897.64	47.27
897.81	-20.31
897.981	10.41
898.151	-108.37
898.322	-5.97
898.492	112.81
898.662	-59.22
898.832	-55.12
899.003	-32.6
899.173	-26.45
899.343	-108.37
899.513	-91.99
