Data from USB4F104151__270__11-20-41-531.txt Node

Date: Wed Feb 26 11:20:41 EST 2025
User: louis
Spectrometer: USB4F10415
Trigger mode: 4
Integration Time (sec): 1.000000E-1
Scans to average: 1
Electric dark correction enabled: true
Nonlinearity correction enabled: false
Boxcar width: 0
XAxis mode: Wavelengths
Number of Pixels in Spectrum: 3648
>>>>>Begin Spectral Data<<<<<
178.204	-455.67
178.424	-455.67
178.644	-455.67
178.864	-351.23
179.084	-394.23
179.304	-7.17
179.524	-52.22
179.744	-15.36
179.964	31.74
180.184	-11.26
180.404	9.22
180.624	3.07
180.844	-50.18
181.064	15.36
181.283	5.12
181.503	25.6
181.723	46.08
181.943	-68.61
182.163	211.96
182.383	-60.42
182.602	35.84
182.822	76.8
183.042	78.85
183.262	-62.46
183.482	-19.46
183.701	-54.27
183.921	91.13
184.141	-1.02
184.361	78.85
184.58	95.23
184.8	111.61
185.02	-25.6
185.239	119.81
185.459	31.74
185.679	74.75
185.898	-17.41
186.118	46.08
186.338	33.79
186.557	130.05
186.777	-95.23
186.997	17.41
187.216	31.74
187.436	183.29
187.655	76.8
187.875	125.95
188.095	60.42
188.314	181.25
188.534	113.66
188.753	-44.03
188.973	19.46
189.192	181.25
189.412	41.98
189.631	89.09
189.851	44.03
190.07	191.49
190.29	-17.41
190.509	48.13
190.729	-11.26
190.948	164.86
191.168	211.96
191.387	58.37
191.607	11.26
191.826	60.42
192.045	58.37
192.265	17.41
192.484	101.37
192.704	64.51
192.923	-125.95
193.142	218.11
193.362	70.65
193.581	144.38
193.8	121.85
194.02	91.13
194.239	3.07
194.458	111.61
194.678	58.37
194.897	-68.61
195.116	144.38
195.335	5.12
195.555	87.04
195.774	-5.12
195.993	74.75
196.212	56.32
196.432	-68.61
196.651	-31.74
196.87	33.79
197.089	300.03
197.308	15.36
197.528	25.6
197.747	15.36
197.966	62.46
198.185	162.81
198.404	-17.41
198.623	136.19
198.842	146.43
199.062	156.67
199.281	107.52
199.5	39.94
199.719	123.9
199.938	109.57
200.157	121.85
200.376	189.44
200.595	64.51
200.814	46.08
201.033	-7.17
201.252	162.81
201.471	97.28
201.69	82.94
201.909	15.36
202.128	179.2
202.347	74.75
202.566	54.27
202.785	-82.94
203.004	-1.02
203.223	228.35
203.442	52.22
203.661	-60.42
203.879	87.04
204.098	72.7
204.317	29.7
204.536	132.09
204.755	80.89
204.974	162.81
205.193	-48.13
205.411	142.33
205.63	171.01
205.849	93.18
206.068	23.55
206.287	-60.42
206.505	203.77
206.724	23.55
206.943	27.65
207.162	15.36
207.381	72.7
207.599	-3.07
207.818	13.31
208.037	64.51
208.255	91.13
208.474	111.61
208.693	52.22
208.911	17.41
209.13	89.09
209.349	78.85
209.567	164.86
209.786	72.7
210.005	78.85
210.223	70.65
210.442	-144.38
210.661	-27.65
210.879	3.07
211.098	33.79
211.316	93.18
211.535	-1.02
211.753	74.75
211.972	117.76
212.191	21.5
212.409	66.56
212.628	80.89
212.846	19.46
213.065	119.81
213.283	58.37
213.502	-19.46
213.72	9.22
213.938	58.37
214.157	21.5
214.375	107.52
214.594	144.38
214.812	78.85
215.031	-21.5
215.249	54.27
215.467	37.89
215.686	15.36
215.904	125.95
216.122	17.41
216.341	222.2
216.559	25.6
216.778	19.46
216.996	175.1
217.214	39.94
217.432	29.7
217.651	91.13
217.869	-31.74
218.087	56.32
218.306	-11.26
218.524	23.55
218.742	7.17
218.96	70.65
219.179	21.5
219.397	148.48
219.615	179.2
219.833	136.19
220.051	-17.41
220.27	74.75
220.488	119.81
220.706	64.51
220.924	-56.32
221.142	-13.31
221.36	93.18
221.578	115.71
221.796	39.94
222.015	17.41
222.233	80.89
222.451	193.53
222.669	-74.75
222.887	54.27
223.105	52.22
223.323	-21.5
223.541	19.46
223.759	111.61
223.977	103.42
224.195	158.72
224.413	52.22
224.631	140.29
224.849	29.7
225.067	209.92
225.285	-17.41
225.503	-3.07
225.721	-64.51
225.939	52.22
226.157	58.37
226.375	187.39
226.592	33.79
226.81	31.74
227.028	68.61
227.246	183.29
227.464	1.02
227.682	115.71
227.9	7.17
228.117	-1.02
228.335	148.48
228.553	13.31
228.771	19.46
228.989	84.99
229.206	168.96
229.424	3.07
229.642	44.03
229.86	9.22
230.077	89.09
230.295	37.89
230.513	93.18
230.731	72.7
230.948	248.83
231.166	115.71
231.384	5.12
231.601	-9.22
231.819	234.49
232.037	33.79
232.254	33.79
232.472	74.75
232.689	39.94
232.907	171.01
233.125	27.65
233.342	29.7
233.56	39.94
233.777	-19.46
233.995	9.22
234.213	128
234.43	52.22
234.648	70.65
234.865	13.31
235.083	95.23
235.3	66.56
235.518	68.61
235.735	136.19
235.953	74.75
236.17	80.89
236.388	9.22
236.605	97.28
236.822	144.38
237.04	146.43
237.257	80.89
237.475	-134.14
237.692	33.79
237.909	82.94
238.127	-66.56
238.344	101.37
238.562	115.71
238.779	-44.03
238.996	35.84
239.214	19.46
239.431	89.09
239.648	21.5
239.865	72.7
240.083	101.37
240.3	-44.03
240.517	64.51
240.735	105.47
240.952	183.29
241.169	97.28
241.386	78.85
241.603	-19.46
241.821	44.03
242.038	39.94
242.255	132.09
242.472	-41.98
242.689	93.18
242.907	80.89
243.124	78.85
243.341	17.41
243.558	-9.22
243.775	7.17
243.992	-101.37
244.209	33.79
244.426	181.25
244.643	78.85
244.86	-23.55
245.078	74.75
245.295	107.52
245.512	-7.17
245.729	9.22
245.946	78.85
246.163	113.66
246.38	89.09
246.597	93.18
246.814	74.75
247.031	-17.41
247.248	33.79
247.464	84.99
247.681	27.65
247.898	74.75
248.115	93.18
248.332	-80.89
248.549	103.42
248.766	142.33
248.983	134.14
249.2	68.61
249.417	101.37
249.633	50.18
249.85	164.86
250.067	58.37
250.284	103.42
250.501	76.8
250.717	74.75
250.934	-101.37
251.151	44.03
251.368	31.74
251.585	-15.36
251.801	138.24
252.018	-70.65
252.235	54.27
252.451	-23.55
252.668	35.84
252.885	99.33
253.102	80.89
253.318	97.28
253.535	19.46
253.752	-44.03
253.968	-13.31
254.185	-80.89
254.401	70.65
254.618	-3.07
254.835	7.17
255.051	80.89
255.268	113.66
255.484	48.13
255.701	60.42
255.917	78.85
256.134	-52.22
256.351	68.61
256.567	-99.33
256.784	9.22
257	-23.55
257.217	119.81
257.433	103.42
257.65	101.37
257.866	62.46
258.082	-31.74
258.299	-19.46
258.515	3.07
258.732	3.07
258.948	31.74
259.165	82.94
259.381	-87.04
259.597	17.41
259.814	27.65
260.03	64.51
260.246	25.6
260.463	156.67
260.679	123.9
260.895	25.6
261.112	101.37
261.328	84.99
261.544	-52.22
261.761	95.23
261.977	-13.31
262.193	-33.79
262.409	146.43
262.626	72.7
262.842	1.02
263.058	44.03
263.274	166.91
263.49	19.46
263.707	181.25
263.923	78.85
264.139	-41.98
264.355	33.79
264.571	117.76
264.787	48.13
265.004	158.72
265.22	62.46
265.436	56.32
265.652	11.26
265.868	72.7
266.084	9.22
266.3	97.28
266.516	33.79
266.732	48.13
266.948	37.89
267.164	84.99
267.38	91.13
267.596	54.27
267.812	121.85
268.028	125.95
268.244	15.36
268.46	111.61
268.676	-23.55
268.892	3.07
269.108	-48.13
269.324	46.08
269.54	-109.57
269.756	84.99
269.972	-91.13
270.188	-27.65
270.403	-19.46
270.619	33.79
270.835	101.37
271.051	44.03
271.267	44.03
271.483	-37.89
271.698	199.68
271.914	117.76
272.13	82.94
272.346	17.41
272.562	25.6
272.777	103.42
272.993	-1.02
273.209	70.65
273.425	115.71
273.64	-70.65
273.856	105.47
274.072	-89.09
274.287	31.74
274.503	78.85
274.719	125.95
274.934	66.56
275.15	-33.79
275.366	166.91
275.581	5.12
275.797	72.7
276.012	23.55
276.228	9.22
276.444	52.22
276.659	93.18
276.875	-46.08
277.09	5.12
277.306	-5.12
277.521	54.27
277.737	46.08
277.952	119.81
278.168	103.42
278.383	-3.07
278.599	74.75
278.814	128
279.03	-3.07
279.245	72.7
279.461	-29.7
279.676	125.95
279.892	9.22
280.107	19.46
280.322	-46.08
280.538	48.13
280.753	46.08
280.969	29.7
281.184	60.42
281.399	189.44
281.615	-48.13
281.83	72.7
282.045	-13.31
282.26	-37.89
282.476	31.74
282.691	142.33
282.906	168.96
283.122	27.65
283.337	41.98
283.552	115.71
283.767	35.84
283.983	48.13
284.198	23.55
284.413	74.75
284.628	-72.7
284.843	23.55
285.058	68.61
285.274	-41.98
285.489	56.32
285.704	128
285.919	21.5
286.134	7.17
286.349	56.32
286.564	52.22
286.779	158.72
286.995	-9.22
287.21	-74.75
287.425	123.9
287.64	31.74
287.855	46.08
288.07	-17.41
288.285	125.95
288.5	48.13
288.715	46.08
288.93	9.22
289.145	-7.17
289.36	62.46
289.575	29.7
289.79	130.05
290.004	64.51
290.219	144.38
290.434	31.74
290.649	15.36
290.864	15.36
291.079	-7.17
291.294	1.02
291.509	25.6
291.724	52.22
291.938	50.18
292.153	37.89
292.368	41.98
292.583	105.47
292.798	136.19
293.012	136.19
293.227	37.89
293.442	9.22
293.657	107.52
293.871	103.42
294.086	171.01
294.301	187.39
294.516	173.05
294.73	52.22
294.945	-93.18
295.16	50.18
295.374	48.13
295.589	115.71
295.804	58.37
296.018	7.17
296.233	103.42
296.447	80.89
296.662	9.22
296.877	109.57
297.091	56.32
297.306	52.22
297.52	-27.65
297.735	41.98
297.949	121.85
298.164	72.7
298.378	25.6
298.593	7.17
298.807	13.31
299.022	5.12
299.236	117.76
299.451	-19.46
299.665	25.6
299.88	-15.36
300.094	-3.07
300.309	-23.55
300.523	33.79
300.737	39.94
300.952	74.75
301.166	134.14
301.381	5.12
301.595	33.79
301.809	74.75
302.024	9.22
302.238	13.31
302.452	89.09
302.667	-27.65
302.881	138.24
303.095	97.28
303.309	105.47
303.524	15.36
303.738	93.18
303.952	39.94
304.166	76.8
304.381	-132.09
304.595	144.38
304.809	41.98
305.023	21.5
305.237	25.6
305.452	113.66
305.666	93.18
305.88	82.94
306.094	72.7
306.308	113.66
306.522	111.61
306.736	134.14
306.95	119.81
307.164	46.08
307.379	-54.27
307.593	142.33
307.807	121.85
308.021	132.09
308.235	52.22
308.449	-15.36
308.663	64.51
308.877	228.35
309.091	70.65
309.305	84.99
309.519	-123.9
309.733	91.13
309.947	-21.5
310.161	5.12
310.374	142.33
310.588	166.91
310.802	11.26
311.016	66.56
311.23	72.7
311.444	-87.04
311.658	80.89
311.872	130.05
312.085	99.33
312.299	64.51
312.513	162.81
312.727	103.42
312.941	-44.03
313.154	56.32
313.368	-13.31
313.582	101.37
313.796	21.5
314.009	21.5
314.223	134.14
314.437	70.65
314.651	158.72
314.864	-103.42
315.078	-17.41
315.292	-46.08
315.505	27.65
315.719	11.26
315.933	35.84
316.146	1.02
316.36	-15.36
316.573	107.52
316.787	72.7
317.001	89.09
317.214	-35.84
317.428	60.42
317.641	-31.74
317.855	48.13
318.068	-5.12
318.282	68.61
318.495	89.09
318.709	46.08
318.922	-9.22
319.136	125.95
319.349	162.81
319.563	13.31
319.776	31.74
319.99	-13.31
320.203	101.37
320.417	72.7
320.63	60.42
320.843	207.87
321.057	76.8
321.27	111.61
321.483	87.04
321.697	175.1
321.91	29.7
322.124	54.27
322.337	105.47
322.55	78.85
322.763	99.33
322.977	33.79
323.19	-39.94
323.403	113.66
323.617	44.03
323.83	179.2
324.043	-11.26
324.256	-13.31
324.469	-60.42
324.683	109.57
324.896	113.66
325.109	56.32
325.322	-72.7
325.535	87.04
325.748	109.57
325.962	33.79
326.175	117.76
326.388	138.24
326.601	119.81
326.814	58.37
327.027	35.84
327.24	191.49
327.453	-62.46
327.666	60.42
327.879	154.62
328.092	82.94
328.305	99.33
328.518	7.17
328.731	-21.5
328.944	7.17
329.157	76.8
329.37	-15.36
329.583	185.34
329.796	187.39
330.009	31.74
330.222	44.03
330.435	27.65
330.648	-11.26
330.861	5.12
331.073	33.79
331.286	-3.07
331.499	56.32
331.712	9.22
331.925	56.32
332.138	66.56
332.35	56.32
332.563	-1.02
332.776	218.11
332.989	-13.31
333.202	11.26
333.414	58.37
333.627	97.28
333.84	11.26
334.053	17.41
334.265	11.26
334.478	-74.75
334.691	78.85
334.903	82.94
335.116	15.36
335.329	31.74
335.541	78.85
335.754	232.44
335.966	-41.98
336.179	99.33
336.392	-9.22
336.604	7.17
336.817	115.71
337.029	101.37
337.242	-1.02
337.454	164.86
337.667	9.22
337.88	152.57
338.092	84.99
338.305	111.61
338.517	1.02
338.729	46.08
338.942	144.38
339.154	5.12
339.367	48.13
339.579	52.22
339.792	-39.94
340.004	82.94
340.217	58.37
340.429	76.8
340.641	-54.27
340.854	-13.31
341.066	-37.89
341.278	138.24
341.491	150.53
341.703	-33.79
341.915	-41.98
342.128	91.13
342.34	21.5
342.552	-50.18
342.764	80.89
342.977	99.33
343.189	29.7
343.401	105.47
343.613	-3.07
343.826	97.28
344.038	-82.94
344.25	101.37
344.462	-11.26
344.674	37.89
344.886	76.8
345.099	179.2
345.311	99.33
345.523	52.22
345.735	-46.08
345.947	68.61
346.159	113.66
346.371	101.37
346.583	33.79
346.795	144.38
347.007	74.75
347.219	35.84
347.431	97.28
347.643	142.33
347.855	-48.13
348.067	113.66
348.279	-39.94
348.491	-58.37
348.703	76.8
348.915	70.65
349.127	-58.37
349.339	23.55
349.551	-25.6
349.763	39.94
349.975	44.03
350.187	150.53
350.399	140.29
350.61	162.81
350.822	7.17
351.034	41.98
351.246	91.13
351.458	111.61
351.669	70.65
351.881	134.14
352.093	166.91
352.305	80.89
352.517	89.09
352.728	160.77
352.94	27.65
353.152	162.81
353.363	-80.89
353.575	142.33
353.787	232.44
353.999	39.94
354.21	156.67
354.422	37.89
354.633	33.79
354.845	60.42
355.057	35.84
355.268	17.41
355.48	101.37
355.692	-25.6
355.903	76.8
356.115	-72.7
356.326	-21.5
356.538	160.77
356.749	93.18
356.961	123.9
357.172	-25.6
357.384	-41.98
357.595	128
357.807	-82.94
358.018	44.03
358.23	-58.37
358.441	152.57
358.653	89.09
358.864	29.7
359.075	-9.22
359.287	76.8
359.498	56.32
359.709	128
359.921	68.61
360.132	119.81
360.344	-15.36
360.555	134.14
360.766	15.36
360.977	-27.65
361.189	103.42
361.4	56.32
361.611	78.85
361.823	125.95
362.034	72.7
362.245	-13.31
362.456	-19.46
362.667	58.37
362.879	21.5
363.09	95.23
363.301	7.17
363.512	78.85
363.723	44.03
363.935	-23.55
364.146	56.32
364.357	35.84
364.568	128
364.779	-93.18
364.99	185.34
365.201	-52.22
365.412	103.42
365.623	-39.94
365.834	78.85
366.045	11.26
366.256	48.13
366.467	134.14
366.678	-58.37
366.889	84.99
367.1	-19.46
367.311	132.09
367.522	-48.13
367.733	115.71
367.944	117.76
368.155	82.94
368.366	95.23
368.577	125.95
368.788	84.99
368.999	-17.41
369.209	72.7
369.42	230.4
369.631	244.73
369.842	64.51
370.053	70.65
370.264	39.94
370.474	-25.6
370.685	70.65
370.896	44.03
371.107	168.96
371.317	97.28
371.528	33.79
371.739	82.94
371.95	146.43
372.16	80.89
372.371	-41.98
372.582	19.46
372.792	111.61
373.003	66.56
373.214	52.22
373.424	109.57
373.635	1.02
373.846	136.19
374.056	-9.22
374.267	68.61
374.477	48.13
374.688	-25.6
374.898	76.8
375.109	68.61
375.319	33.79
375.53	21.5
375.74	89.09
375.951	33.79
376.161	31.74
376.372	187.39
376.582	-29.7
376.793	50.18
377.003	11.26
377.214	5.12
377.424	52.22
377.635	44.03
377.845	37.89
378.055	142.33
378.266	-54.27
378.476	31.74
378.686	111.61
378.897	-56.32
379.107	123.9
379.317	-1.02
379.528	39.94
379.738	121.85
379.948	-80.89
380.158	164.86
380.369	105.47
380.579	33.79
380.789	-1.02
380.999	15.36
381.21	93.18
381.42	195.58
381.63	23.55
381.84	91.13
382.05	74.75
382.261	130.05
382.471	119.81
382.681	23.55
382.891	162.81
383.101	21.5
383.311	-9.22
383.521	95.23
383.731	44.03
383.941	111.61
384.151	99.33
384.361	21.5
384.571	48.13
384.781	113.66
384.991	164.86
385.201	162.81
385.411	150.53
385.621	56.32
385.831	84.99
386.041	5.12
386.251	107.52
386.461	78.85
386.671	70.65
386.881	46.08
387.091	-19.46
387.301	78.85
387.511	31.74
387.72	130.05
387.93	58.37
388.14	-37.89
388.35	68.61
388.56	89.09
388.769	164.86
388.979	89.09
389.189	-5.12
389.399	80.89
389.609	128
389.818	66.56
390.028	138.24
390.238	68.61
390.447	60.42
390.657	111.61
390.867	19.46
391.076	-29.7
391.286	39.94
391.496	39.94
391.705	54.27
391.915	177.15
392.125	144.38
392.334	48.13
392.544	109.57
392.753	72.7
392.963	13.31
393.172	82.94
393.382	13.31
393.591	130.05
393.801	17.41
394.01	226.3
394.22	54.27
394.429	64.51
394.639	103.42
394.848	15.36
395.058	41.98
395.267	-3.07
395.477	48.13
395.686	84.99
395.895	175.1
396.105	187.39
396.314	35.84
396.524	7.17
396.733	39.94
396.942	109.57
397.152	58.37
397.361	46.08
397.57	76.8
397.78	128
397.989	150.53
398.198	187.39
398.407	33.79
398.617	66.56
398.826	123.9
399.035	70.65
399.244	97.28
399.453	64.51
399.663	5.12
399.872	64.51
400.081	9.22
400.29	156.67
400.499	91.13
400.708	115.71
400.917	29.7
401.127	-37.89
401.336	31.74
401.545	189.44
401.754	109.57
401.963	27.65
402.172	37.89
402.381	-33.79
402.59	7.17
402.799	97.28
403.008	115.71
403.217	31.74
403.426	132.09
403.635	-54.27
403.844	23.55
404.053	50.18
404.262	68.61
404.471	166.91
404.68	97.28
404.888	17.41
405.097	109.57
405.306	56.32
405.515	125.95
405.724	46.08
405.933	31.74
406.142	74.75
406.35	134.14
406.559	13.31
406.768	103.42
406.977	207.87
407.185	97.28
407.394	89.09
407.603	-21.5
407.812	11.26
408.02	101.37
408.229	78.85
408.438	84.99
408.646	-33.79
408.855	23.55
409.064	80.89
409.272	13.31
409.481	23.55
409.69	60.42
409.898	-13.31
410.107	193.53
410.315	134.14
410.524	35.84
410.733	7.17
410.941	27.65
411.15	128
411.358	128
411.567	146.43
411.775	52.22
411.984	29.7
412.192	128
412.401	-25.6
412.609	216.06
412.818	50.18
413.026	132.09
413.234	44.03
413.443	48.13
413.651	84.99
413.86	27.65
414.068	62.46
414.276	82.94
414.485	-15.36
414.693	156.67
414.901	185.34
415.11	64.51
415.318	37.89
415.526	84.99
415.734	171.01
415.943	66.56
416.151	152.57
416.359	99.33
416.567	54.27
416.776	107.52
416.984	87.04
417.192	271.36
417.4	89.09
417.608	-3.07
417.817	31.74
418.025	82.94
418.233	156.67
418.441	-29.7
418.649	5.12
418.857	97.28
419.065	136.19
419.273	23.55
419.481	105.47
419.689	29.7
419.897	-41.98
420.105	-58.37
420.313	113.66
420.521	152.57
420.729	48.13
420.937	39.94
421.145	-1.02
421.353	142.33
421.561	171.01
421.769	80.89
421.977	37.89
422.185	132.09
422.393	19.46
422.601	175.1
422.809	87.04
423.017	54.27
423.224	70.65
423.432	162.81
423.64	21.5
423.848	185.34
424.056	29.7
424.263	103.42
424.471	31.74
424.679	95.23
424.887	41.98
425.094	140.29
425.302	121.85
425.51	97.28
425.718	62.46
425.925	113.66
426.133	84.99
426.341	234.49
426.548	54.27
426.756	72.7
426.964	142.33
427.171	-35.84
427.379	97.28
427.586	89.09
427.794	78.85
428.001	142.33
428.209	62.46
428.417	207.87
428.624	130.05
428.832	154.62
429.039	107.52
429.247	37.89
429.454	144.38
429.662	207.87
429.869	105.47
430.076	130.05
430.284	171.01
430.491	263.16
430.699	84.99
430.906	222.2
431.114	173.05
431.321	156.67
431.528	105.47
431.736	195.58
431.943	158.72
432.15	146.43
432.358	148.48
432.565	265.21
432.772	44.03
432.979	179.2
433.187	66.56
433.394	252.92
433.601	52.22
433.808	254.97
434.016	228.35
434.223	117.76
434.43	187.39
434.637	205.82
434.844	168.96
435.052	226.3
435.259	248.83
435.466	236.54
435.673	242.68
435.88	248.83
436.087	281.6
436.294	293.88
436.501	398.33
436.708	273.4
436.915	252.92
437.122	347.13
437.329	177.15
437.537	252.92
437.743	320.51
437.95	461.82
438.157	375.8
438.364	355.32
438.571	359.42
438.778	465.91
438.985	340.99
439.192	427
439.399	433.15
439.606	476.15
439.813	513.02
440.02	521.21
440.227	549.88
440.433	549.88
440.64	590.84
440.847	427
441.054	615.41
441.261	560.12
441.467	500.73
441.674	517.11
441.881	670.71
442.088	551.93
442.294	615.41
442.501	766.96
442.708	707.57
442.914	676.85
443.121	713.72
443.328	723.96
443.534	832.5
443.741	801.78
443.948	631.8
444.154	836.6
444.361	1063.92
444.568	904.18
444.774	912.37
444.981	914.42
445.187	1047.54
445.394	1031.15
445.6	979.95
445.807	1084.4
446.013	1119.21
446.22	1119.21
446.426	1264.62
446.633	1358.83
446.839	1405.93
447.046	1305.58
447.252	1407.98
447.459	1475.56
447.665	1330.16
447.871	1594.34
448.078	1666.02
448.284	1690.6
448.491	1838.05
448.697	1729.51
448.903	1926.11
449.11	1954.79
449.316	1987.55
449.522	2161.63
449.728	2206.69
449.935	2331.61
450.141	2259.93
450.347	2577.37
450.553	2368.48
450.76	2311.13
450.966	2644.95
451.172	2702.29
451.378	2769.88
451.584	2763.73
451.791	3103.7
451.997	3132.37
452.203	3118.03
452.409	3335.12
452.615	3488.71
452.821	3279.82
453.027	3417.04
453.233	3691.46
453.44	3640.26
453.646	3824.58
453.852	4135.87
454.058	4158.4
454.264	4367.29
454.47	4596.67
454.676	4725.69
454.882	5057.46
455.088	4946.87
455.294	5221.3
455.5	5434.29
455.705	5778.34
455.911	5802.92
456.117	5882.79
456.323	6063.01
456.529	6173.6
456.735	6781.85
456.941	6871.96
457.147	7103.38
457.352	7252.88
457.558	7596.94
457.764	8160.13
457.97	8080.26
458.176	8500.09
458.381	8938.36
458.587	9089.91
458.793	9456.5
458.999	9517.93
459.204	10640.22
459.41	11006.81
459.616	10896.22
459.821	11596.62
460.027	12006.22
460.233	12608.32
460.438	12618.56
460.644	13534
460.85	13443.89
461.055	14066.47
461.261	14705.44
461.466	14367.52
461.672	14807.84
461.878	16487.17
462.083	16161.55
462.289	16679.68
462.494	17234.68
462.7	17543.92
462.905	17773.3
463.111	19098.33
463.316	19911.38
463.522	20042.45
463.727	21013.18
463.932	21768.88
464.138	22330.03
464.343	23489.18
464.549	23573.14
464.754	25180.8
464.959	26098.29
465.165	26268.27
465.37	25877.11
465.575	26323.57
465.781	27621.98
465.986	28594.76
466.191	28437.07
466.397	28430.93
466.602	28009.04
466.807	29481.53
467.012	29647.42
467.218	30609.96
467.423	30685.74
467.628	31584.8
467.833	33094.15
468.038	32645.65
468.244	31920.66
468.449	33679.87
468.654	32918.03
468.859	33038.86
469.064	32920.07
469.269	32035.35
469.474	32573.97
469.679	33006.09
469.885	32281.11
470.09	33092.1
470.295	33440.26
470.5	32322.07
470.705	32414.23
470.91	31894.04
471.115	31449.63
471.32	31805.98
471.525	31791.64
471.73	30503.47
471.935	30493.23
472.139	29370.94
472.344	29590.08
472.549	29241.92
472.754	28846.66
472.959	27984.47
473.164	27505.24
473.369	26772.07
473.574	27576.92
473.778	26860.13
473.983	26348.14
474.188	26190.45
474.393	24982.15
474.598	24908.42
474.802	24277.65
475.007	23751.32
475.212	23542.42
475.417	22807.2
475.621	22700.71
475.826	22520.49
476.031	21461.69
476.235	21510.84
476.44	21416.63
476.645	20662.98
476.849	20552.39
477.054	20241.1
477.259	19745.49
477.463	19684.05
477.668	19045.09
477.872	19413.72
478.077	18797.28
478.282	18131.69
478.486	17806.06
478.691	17691.38
478.895	17519.35
479.1	17515.25
479.304	17236.73
479.509	16694.02
479.713	16837.38
479.918	16741.12
480.122	16067.34
480.326	16409.35
480.531	16296.71
480.735	16059.15
480.94	15694.61
481.144	16026.38
481.348	15719.18
481.553	15674.13
481.757	15172.38
481.961	15362.84
482.166	15563.54
482.37	15252.25
482.574	14947.1
482.778	14781.21
482.983	15217.43
483.187	14519.07
483.391	14471.97
483.595	14146.34
483.8	14332.71
484.004	14236.45
484.208	14144.3
484.412	14109.48
484.616	13978.41
484.821	13796.14
485.025	13310.77
485.229	13450.03
485.433	13132.6
485.637	13060.92
485.841	12792.64
486.045	12528.45
486.249	12520.26
486.453	12311.36
486.657	12262.21
486.861	12184.39
487.065	11615.05
487.269	11711.31
487.473	11277.14
487.677	11604.81
487.881	11488.08
488.085	10892.12
488.289	10871.64
488.493	10820.44
488.697	10748.76
488.901	10216.29
489.105	10023.78
489.309	9900.9
489.512	9827.18
489.716	9765.74
489.92	9276.27
490.124	9270.13
490.328	9407.34
490.531	8817.53
490.735	8967.03
490.939	8727.42
491.143	8536.96
491.346	8416.13
491.55	8348.54
491.754	8086.4
491.958	8147.84
492.161	7850.89
492.365	7598.99
492.569	7689.1
492.772	7609.23
492.976	7623.56
493.18	7250.83
493.383	7261.07
493.587	7132.05
493.79	7281.55
493.994	7054.23
494.197	6974.36
494.401	6843.29
494.605	6867.86
494.808	6763.42
495.012	6712.22
495.215	6626.2
495.419	6675.35
495.622	6593.44
495.825	6523.8
496.029	6239.14
496.232	6421.41
496.436	6458.27
496.639	6519.71
496.843	6265.76
497.046	6335.39
497.249	6630.3
497.453	6423.45
497.656	6362.01
497.859	6486.94
498.063	6523.8
498.266	6462.37
498.469	6362.01
498.673	6239.14
498.876	6308.77
499.079	6622.11
499.282	6460.32
499.485	6726.55
499.689	6380.45
499.892	6718.36
500.095	6587.29
500.298	6826.9
500.501	6675.35
500.705	6802.33
500.908	6865.82
501.111	6908.82
501.314	7064.47
501.517	7164.82
501.72	7084.95
501.923	7285.65
502.126	7076.76
502.329	7666.57
502.532	7455.63
502.735	7482.25
502.938	7717.77
503.141	7635.85
503.344	7789.45
503.547	7863.18
503.75	8033.16
503.953	8082.31
504.156	8258.43
504.359	8315.78
504.562	8254.34
504.765	8616.83
504.968	8633.21
505.17	8985.46
505.373	8964.98
505.576	9096.05
505.779	9110.39
505.982	9096.05
506.185	9511.79
506.387	9649
506.59	9778.03
506.793	10191.72
506.996	10085.22
507.198	10351.46
507.401	10345.31
507.604	10482.53
507.807	11170.65
508.009	11410.26
508.212	11436.88
508.415	11393.87
508.617	11850.57
508.82	12055.37
509.022	11846.48
509.225	12403.52
509.428	12667.71
509.63	12987.19
509.833	13411.12
510.035	14127.91
510.238	13529.91
510.44	14134.06
510.643	14367.52
510.845	14916.38
511.048	14967.58
511.25	15403.8
511.453	15534.87
511.655	16444.17
511.858	16423.69
512.06	16864
512.262	17255.16
512.465	17443.57
512.667	18025.2
512.87	18451.17
513.072	18735.84
513.274	19235.55
513.477	19469.01
513.679	20148.94
513.881	20304.59
514.084	20961.98
514.286	21265.08
514.488	21891.76
514.69	22467.24
514.893	22917.79
515.095	22901.41
515.297	23702.17
515.499	24021.65
515.701	24601.22
515.904	25371.26
516.106	26112.63
516.308	26182.26
516.51	26724.97
516.712	27171.43
516.914	28140.11
517.116	28607.05
517.318	28731.98
517.52	29469.25
517.722	29968.95
517.925	30519.85
518.127	31164.96
518.329	31842.84
518.531	31486.5
518.733	32391.7
518.935	33393.15
519.136	33626.62
519.338	34771.44
519.54	34785.77
519.742	35463.65
519.944	35871.2
520.146	36700.62
520.348	37089.74
520.55	37089.74
520.752	37915.07
520.954	38709.68
521.155	38595
521.357	39248.3
521.559	39776.67
521.761	40612.24
521.963	40386.97
522.164	40776.08
522.366	41079.18
522.568	42140.03
522.77	41953.66
522.971	42492.28
523.173	42549.62
523.375	42830.19
523.576	43139.44
523.778	43047.28
523.98	43614.57
524.181	43893.09
524.383	43522.41
524.584	44071.26
524.786	44204.38
524.988	43966.82
525.189	44323.16
525.391	44837.2
525.592	44683.61
525.794	44814.68
525.995	44595.54
526.197	45113.68
526.398	44425.56
526.6	44661.08
526.801	44538.2
527.003	44411.23
527.204	44405.08
527.406	44513.62
527.607	43979.1
527.808	43811.17
528.01	43006.32
528.211	43305.32
528.412	43653.48
528.614	43202.92
528.815	42787.19
529.016	43004.27
529.218	42285.43
529.419	42127.74
529.62	41529.73
529.822	41714.05
530.023	40939.92
530.224	40903.06
530.425	40090.01
530.626	39463.33
530.828	38916.53
531.029	39279.02
531.23	38361.53
531.431	37925.31
531.632	37689.79
531.833	37243.34
532.035	36954.57
532.236	36260.31
532.437	36166.1
532.638	35932.64
532.839	35262.95
533.04	35131.88
533.241	34005.5
533.442	34394.61
533.643	33739.26
533.844	33212.93
534.045	32696.85
534.246	32188.95
534.447	31588.89
534.648	31676.96
534.849	31167.01
535.05	30698.03
535.251	30243.38
535.451	29643.32
535.652	29604.41
535.853	29030.98
536.054	28891.72
536.255	28351.06
536.456	27828.82
536.657	27841.11
536.857	27271.78
537.058	26774.12
537.259	26509.93
537.46	26352.24
537.66	25756.28
537.861	25389.69
538.062	25078.4
538.263	25123.46
538.463	24359.56
538.664	24208.01
538.865	24122
539.065	23902.87
539.266	23210.65
539.466	23028.38
539.667	22868.64
539.868	22762.15
540.068	22071.98
540.269	21959.34
540.469	21721.78
540.67	21340.86
540.87	21476.02
541.071	20845.25
541.271	20660.93
541.472	20613.83
541.672	20167.37
541.873	19796.69
542.073	19512.02
542.274	19901.14
542.474	19423.96
542.675	19100.38
542.875	18991.84
543.075	18969.31
543.276	18731.75
543.476	18520.81
543.676	18223.85
543.877	17763.06
544.077	17683.19
544.277	17599.22
544.478	17228.54
544.678	17253.11
544.878	16749.31
545.078	16622.34
545.279	16548.61
545.479	16159.5
545.679	16237.32
545.879	16079.63
546.079	16018.19
546.28	15602.45
546.48	15479.57
546.68	15418.13
546.88	14971.68
547.08	15067.93
547.28	14717.73
547.48	14555.94
547.68	14646.05
547.88	14154.54
548.081	14301.99
548.281	13736.75
548.481	13609.78
548.681	13560.63
548.881	13554.48
549.081	13220.66
549.28	12790.59
549.48	12813.12
549.68	12718.91
549.88	12665.66
550.08	12288.84
550.28	12297.03
550.48	12237.64
550.68	11819.85
550.88	11703.12
551.08	11465.55
551.279	11504.46
551.479	11107.16
551.679	11184.98
551.879	10871.64
552.079	10775.39
552.278	10414.95
552.478	10406.75
552.678	10371.94
552.878	10304.35
553.077	9849.71
553.277	9649
553.477	9755.5
553.676	9507.69
553.876	9407.34
554.076	9501.55
554.275	9042.81
554.475	8706.94
554.674	9005.94
554.874	8768.38
555.074	8684.41
555.273	8366.98
555.473	8289.15
555.672	7900.04
555.872	8076.16
556.071	7979.91
556.271	7924.62
556.47	7717.77
556.67	7439.25
556.869	7461.77
557.068	7154.58
557.268	7043.99
557.467	7107.48
557.667	6931.35
557.866	6747.03
558.065	6781.85
558.265	6724.51
558.464	6472.61
558.663	6558.62
558.863	6276
559.062	6261.66
559.261	5981.09
559.461	6114.21
559.66	6036.39
559.859	5931.94
560.058	5772.2
560.258	5620.65
560.457	5473.2
560.656	5692.33
560.855	5391.28
561.054	5319.6
561.253	5252.02
561.453	5008.31
561.652	5065.65
561.851	5073.84
562.05	4787.13
562.249	4701.11
562.448	4895.67
562.647	4565.95
562.846	4582.33
563.045	4463.55
563.244	4422.59
563.443	4498.36
563.642	4299.71
563.841	4344.77
564.04	4246.46
564.239	4125.63
564.438	4160.45
564.637	3832.77
564.836	3945.41
565.035	3943.36
565.234	3871.68
565.432	3855.3
565.631	3832.77
565.83	3828.68
566.029	3541.96
566.228	3507.15
566.427	3752.9
566.625	3474.38
566.824	3423.18
567.023	3419.08
567.222	3273.68
567.42	3339.21
567.619	3273.68
567.818	3271.63
568.016	3251.15
568.215	3146.7
568.414	3128.27
568.612	3138.51
568.811	3070.93
569.01	2941.91
569.208	2819.03
569.407	2964.43
569.605	2806.74
569.804	2720.73
570.002	2806.74
570.201	2544.6
570.4	2816.98
570.598	2657.24
570.797	2536.41
570.995	2395.1
571.193	2567.13
571.392	2481.11
571.59	2380.76
571.789	2456.54
571.987	2397.15
572.186	2423.77
572.384	2290.65
572.582	2218.97
572.781	2384.86
572.979	2155.49
573.177	2155.49
573.376	2104.29
573.574	2218.97
573.772	2098.14
573.971	2032.61
574.169	1899.49
574.367	1979.36
574.565	2057.18
574.763	1866.72
574.962	1829.86
575.16	1856.48
575.358	1827.81
575.556	1698.79
575.754	1749.99
575.952	1702.89
576.151	1774.56
576.349	1706.98
576.547	1471.47
576.745	1633.26
576.943	1639.4
577.141	1547.24
577.339	1559.53
577.537	1586.15
577.735	1598.44
577.933	1481.71
578.131	1471.47
578.329	1457.13
578.527	1438.7
578.725	1442.79
578.923	1227.76
579.121	1391.59
579.319	1252.33
579.516	1281
579.714	1485.8
579.912	1248.24
580.11	1147.89
580.308	1223.66
580.506	1186.8
580.704	1082.35
580.901	1080.3
581.099	1227.76
581.297	1070.06
581.495	1219.57
581.692	1154.03
581.89	1186.8
582.088	1088.5
582.285	1072.11
582.483	1037.3
582.681	945.14
582.878	1078.26
583.076	1002.48
583.274	957.43
583.471	1049.58
583.669	953.33
583.866	873.46
584.064	895.99
584.262	818.16
584.459	855.03
584.657	865.27
584.854	918.51
585.052	859.12
585.249	859.12
585.447	932.85
585.644	707.57
585.841	848.88
586.039	908.27
586.236	908.27
586.434	836.6
586.631	738.29
586.828	766.96
587.026	789.49
587.223	687.09
587.42	734.2
587.618	756.72
587.815	818.16
588.012	642.04
588.21	689.14
588.407	697.33
588.604	803.83
588.801	676.85
588.999	697.33
589.196	820.21
589.393	625.65
589.59	687.09
589.787	709.62
589.984	689.14
590.182	617.46
590.379	650.23
590.576	670.71
590.773	697.33
590.97	619.51
591.167	613.37
591.364	736.24
591.561	603.13
591.758	740.34
591.955	650.23
592.152	666.61
592.349	613.37
592.546	613.37
592.743	543.74
592.94	547.83
593.137	719.86
593.334	631.8
593.531	672.76
593.727	676.85
593.924	642.04
594.121	678.9
594.318	623.61
594.515	609.27
594.712	744.44
594.908	801.78
595.105	545.78
595.302	740.34
595.499	637.94
595.696	707.57
595.892	564.22
596.089	830.45
596.286	615.41
596.482	793.59
596.679	760.82
596.876	648.18
597.072	812.02
597.269	738.29
597.466	785.4
597.662	799.73
597.859	789.49
598.055	941.04
598.252	922.61
598.448	994.29
598.645	1006.58
598.841	986.1
599.038	1111.02
599.234	1158.13
599.431	1135.6
599.627	1162.22
599.824	1209.33
600.02	1176.56
600.217	1231.85
600.413	1252.33
600.609	1317.87
600.806	1602.54
601.002	1389.55
601.198	1381.35
601.395	1606.63
601.591	1502.19
601.787	1721.32
601.984	1745.89
602.18	1741.8
602.376	1754.09
602.572	1971.17
602.769	2055.14
602.965	2018.27
603.161	2151.39
603.357	2298.84
603.553	2329.56
603.75	2384.86
603.946	2515.93
604.142	2579.42
604.338	2737.11
604.534	2698.2
604.73	2749.4
604.926	2915.28
605.122	3040.21
605.318	2980.82
605.514	3202
605.71	3290.06
605.906	3363.79
606.102	3281.87
606.298	3568.59
606.494	3752.9
606.69	3855.3
606.886	3924.93
607.082	3982.28
607.278	4203.46
607.474	4185.02
607.67	4293.57
607.866	4246.46
608.062	4518.84
608.257	4721.59
608.453	4783.03
608.649	4920.24
608.845	5102.51
609.041	5135.28
609.236	5211.06
609.432	5378.99
609.628	5864.36
609.824	5835.69
610.019	5837.73
610.215	6022.05
610.411	6316.96
610.606	6505.37
610.802	6468.51
610.998	6701.98
611.193	7089.04
611.389	7009.17
611.584	7312.27
611.78	7148.43
611.976	7619.47
612.171	8020.87
612.367	7891.85
612.562	8285.06
612.758	8315.78
612.953	8545.15
613.149	8846.2
613.344	9139.06
613.539	9210.74
613.735	9419.63
613.93	9753.45
614.126	9978.73
614.321	10392.42
614.517	10650.46
614.712	10799.96
614.907	10928.99
615.103	11463.51
615.298	11623.25
615.493	11987.79
615.688	12194.63
615.884	12747.58
616.079	12811.07
616.274	13099.83
616.47	13503.28
616.665	13773.61
616.86	14224.17
617.055	14459.68
617.25	14629.66
617.445	15270.68
617.641	15725.33
617.836	15985.42
618.031	16139.02
618.226	16687.87
618.421	16970.49
618.616	17720.05
618.811	17892.08
619.006	18733.79
619.201	18768.61
619.396	19057.37
619.591	19165.92
619.786	19944.14
619.981	20445.9
620.176	20824.77
620.371	20910.78
620.566	21752.5
620.761	21951.15
620.956	22700.71
621.151	22807.2
621.346	23571.1
621.541	23548.57
621.735	24552.07
621.93	24758.92
622.125	25133.7
622.32	25348.73
622.515	26227.31
622.709	26466.92
622.904	26864.23
623.099	27386.46
623.294	28154.45
623.488	28054.1
623.683	29000.26
623.878	28953.16
624.072	29805.11
624.267	30214.71
624.462	30620.2
624.656	30962.22
624.851	31474.21
625.046	31869.47
625.24	32719.37
625.435	32862.73
625.629	33434.11
625.824	33915.39
626.018	34275.83
626.213	34167.29
626.407	35060.2
626.602	34959.85
626.796	36024.79
626.991	36164.06
627.185	36475.35
627.38	36295.13
627.574	36493.78
627.768	36807.12
627.963	36956.62
628.157	37485
628.352	37827.01
628.546	36846.03
628.74	38246.84
628.935	37280.2
629.129	37544.39
629.323	37056.97
629.517	37011.92
629.712	36723.15
629.906	36747.73
630.1	36166.1
630.294	36080.09
630.489	35455.46
630.683	35471.84
630.877	34740.72
631.071	34028.02
631.265	33614.34
631.459	32926.22
631.653	32334.35
631.848	31797.79
632.042	30896.68
632.236	30499.37
632.43	29399.62
632.624	28430.93
632.818	27574.88
633.012	26739.3
633.206	26163.82
633.4	25399.93
633.594	24357.52
633.788	23691.93
633.982	22817.44
634.176	22389.42
634.369	21381.82
634.563	20194
634.757	19622.61
634.951	19147.48
635.145	18506.47
635.339	17736.43
635.533	16734.98
635.726	16411.4
635.92	15620.88
636.114	14889.76
636.308	13929.26
636.501	13589.3
636.695	13415.22
636.889	12571.46
637.083	12321.6
637.276	11570
637.47	11098.97
637.664	10556.25
637.857	10158.95
638.051	9798.51
638.244	9569.13
638.438	9337.71
638.632	8713.08
638.825	8229.76
639.019	7984.01
639.212	7701.39
639.406	7406.48
639.599	7043.99
639.793	6845.34
639.986	6753.18
640.18	6394.78
640.373	6126.5
640.567	5890.98
640.76	5645.23
640.954	5428.14
641.147	5161.91
641.34	4969.4
641.534	4996.02
641.727	4717.5
641.92	4602.81
642.114	4289.47
642.307	4103.11
642.5	3984.32
642.694	3797.96
642.887	3687.37
643.08	3679.18
643.273	3515.34
643.467	3181.52
643.66	3191.76
643.853	3034.07
644.046	2993.11
644.239	2708.44
644.432	2687.96
644.626	2397.15
644.819	2382.81
645.012	2511.83
645.205	2296.8
645.398	2231.26
645.591	2143.2
645.784	2106.34
645.977	1858.53
646.17	1893.35
646.363	1754.09
646.556	1723.37
646.749	1602.54
646.942	1620.97
647.135	1598.44
647.328	1428.46
647.521	1410.03
647.714	1444.84
647.907	1283.05
648.099	1317.87
648.292	1328.11
648.485	1326.06
648.678	1182.7
648.871	1131.5
649.064	1131.5
649.256	988.14
649.449	977.91
649.642	842.74
649.835	957.43
650.027	924.66
650.22	967.67
650.413	893.94
650.605	1025.01
650.798	693.24
650.991	738.29
651.183	857.07
651.376	738.29
651.568	730.1
651.761	625.65
651.954	736.24
652.146	596.98
652.339	662.52
652.531	672.76
652.724	564.22
652.916	541.69
653.109	519.16
653.301	531.45
653.494	582.65
653.686	515.06
653.879	582.65
654.071	531.45
654.263	433.15
654.456	394.23
654.648	484.34
654.84	494.58
655.033	457.72
655.225	541.69
655.417	332.79
655.61	517.11
655.802	447.48
655.994	451.58
656.186	259.07
656.379	414.71
656.571	302.08
656.763	295.93
656.955	340.99
657.148	314.36
657.34	353.27
657.532	318.46
657.724	218.11
657.916	330.75
658.108	418.81
658.3	353.27
658.492	381.95
658.684	226.3
658.876	457.72
659.068	156.67
659.26	205.82
659.452	216.06
659.644	308.22
659.836	353.27
660.028	261.12
660.22	187.39
660.412	271.36
660.604	326.65
660.796	211.96
660.988	310.27
661.18	234.49
661.372	330.75
661.563	230.4
661.755	248.83
661.947	56.32
662.139	146.43
662.331	271.36
662.522	203.77
662.714	177.15
662.906	183.29
663.097	146.43
663.289	160.77
663.481	52.22
663.673	189.44
663.864	193.53
664.056	171.01
664.247	168.96
664.439	340.99
664.631	220.16
664.822	130.05
665.014	207.87
665.205	82.94
665.397	150.53
665.588	134.14
665.78	175.1
665.971	240.64
666.163	99.33
666.354	203.77
666.546	226.3
666.737	173.05
666.929	166.91
667.12	152.57
667.311	164.86
667.503	99.33
667.694	250.88
667.885	216.06
668.077	250.88
668.268	9.22
668.459	119.81
668.651	220.16
668.842	138.24
669.033	101.37
669.224	66.56
669.416	326.65
669.607	144.38
669.798	158.72
669.989	228.35
670.18	128
670.371	230.4
670.563	80.89
670.754	224.25
670.945	187.39
671.136	281.6
671.327	148.48
671.518	209.92
671.709	238.59
671.9	191.49
672.091	207.87
672.282	117.76
672.473	148.48
672.664	101.37
672.855	148.48
673.046	214.01
673.237	263.16
673.428	195.58
673.619	171.01
673.809	107.52
674	226.3
674.191	263.16
674.382	168.96
674.573	144.38
674.764	146.43
674.954	216.06
675.145	134.14
675.336	175.1
675.527	125.95
675.717	154.62
675.908	195.58
676.099	156.67
676.289	211.96
676.48	123.9
676.671	277.5
676.861	142.33
677.052	238.59
677.243	193.53
677.433	130.05
677.624	168.96
677.814	164.86
678.005	134.14
678.195	400.38
678.386	187.39
678.576	138.24
678.767	130.05
678.957	275.45
679.148	320.51
679.338	351.23
679.529	261.12
679.719	113.66
679.909	420.86
680.1	234.49
680.29	263.16
680.481	78.85
680.671	279.55
680.861	279.55
681.052	273.4
681.242	144.38
681.432	275.45
681.622	308.22
681.813	125.95
682.003	297.98
682.193	234.49
682.383	244.73
682.573	189.44
682.764	232.44
682.954	254.97
683.144	334.84
683.334	285.69
683.524	277.5
683.714	304.12
683.904	300.03
684.094	216.06
684.284	318.46
684.474	330.75
684.664	314.36
684.854	318.46
685.044	291.84
685.234	244.73
685.424	285.69
685.614	226.3
685.804	316.41
685.994	351.23
686.184	240.64
686.374	318.46
686.564	257.02
686.753	334.84
686.943	193.53
687.133	271.36
687.323	351.23
687.513	320.51
687.702	314.36
687.892	218.11
688.082	424.95
688.272	406.52
688.461	332.79
688.651	431.1
688.841	343.03
689.03	242.68
689.22	240.64
689.41	361.47
689.599	328.7
689.789	228.35
689.979	302.08
690.168	285.69
690.358	334.84
690.547	261.12
690.737	338.94
690.926	308.22
691.116	320.51
691.305	314.36
691.495	304.12
691.684	148.48
691.874	205.82
692.063	218.11
692.252	302.08
692.442	340.99
692.631	211.96
692.82	302.08
693.01	289.79
693.199	424.95
693.388	283.64
693.578	244.73
693.767	361.47
693.956	273.4
694.146	254.97
694.335	281.6
694.524	226.3
694.713	330.75
694.902	295.93
695.092	289.79
695.281	293.88
695.47	248.83
695.659	230.4
695.848	271.36
696.037	242.68
696.226	252.92
696.415	306.17
696.604	386.04
696.793	300.03
696.982	297.98
697.171	340.99
697.36	224.25
697.549	203.77
697.738	154.62
697.927	224.25
698.116	224.25
698.305	328.7
698.494	207.87
698.683	252.92
698.872	400.38
699.061	248.83
699.25	246.78
699.438	234.49
699.627	211.96
699.816	429.05
700.005	160.77
700.193	240.64
700.382	347.13
700.571	236.54
700.76	277.5
700.948	289.79
701.137	320.51
701.326	308.22
701.514	310.27
701.703	273.4
701.892	214.01
702.08	465.91
702.269	220.16
702.457	183.29
702.646	330.75
702.834	248.83
703.023	383.99
703.212	310.27
703.4	211.96
703.589	248.83
703.777	277.5
703.965	252.92
704.154	259.07
704.342	134.14
704.531	230.4
704.719	201.72
704.907	334.84
705.096	152.57
705.284	105.47
705.472	236.54
705.661	242.68
705.849	316.41
706.037	300.03
706.226	197.63
706.414	257.02
706.602	160.77
706.79	209.92
706.979	277.5
707.167	252.92
707.355	195.58
707.543	306.17
707.731	277.5
707.919	226.3
708.107	203.77
708.296	214.01
708.484	142.33
708.672	254.97
708.86	228.35
709.048	273.4
709.236	146.43
709.424	304.12
709.612	250.88
709.8	125.95
709.988	236.54
710.176	306.17
710.364	324.6
710.551	285.69
710.739	175.1
710.927	191.49
711.115	252.92
711.303	283.64
711.491	332.79
711.679	228.35
711.866	265.21
712.054	269.31
712.242	306.17
712.43	291.84
712.617	168.96
712.805	318.46
712.993	351.23
713.181	138.24
713.368	320.51
713.556	252.92
713.744	265.21
713.931	441.34
714.119	334.84
714.306	197.63
714.494	226.3
714.682	228.35
714.869	279.55
715.057	201.72
715.244	160.77
715.432	297.98
715.619	291.84
715.807	162.81
715.994	224.25
716.182	302.08
716.369	302.08
716.556	365.56
716.744	121.85
716.931	283.64
717.119	252.92
717.306	230.4
717.493	326.65
717.681	248.83
717.868	230.4
718.055	340.99
718.242	261.12
718.43	267.26
718.617	424.95
718.804	252.92
718.991	291.84
719.179	353.27
719.366	343.03
719.553	263.16
719.74	234.49
719.927	271.36
720.114	201.72
720.301	195.58
720.488	218.11
720.676	220.16
720.863	277.5
721.05	398.33
721.237	320.51
721.424	308.22
721.611	207.87
721.798	234.49
721.985	246.78
722.172	234.49
722.358	250.88
722.545	312.32
722.732	224.25
722.919	420.86
723.106	300.03
723.293	291.84
723.48	300.03
723.667	228.35
723.853	326.65
724.04	300.03
724.227	388.09
724.414	340.99
724.6	324.6
724.787	340.99
724.974	414.71
725.161	338.94
725.347	267.26
725.534	306.17
725.72	355.32
725.907	402.43
726.094	322.56
726.28	308.22
726.467	261.12
726.653	308.22
726.84	383.99
727.027	379.9
727.213	304.12
727.4	412.67
727.586	381.95
727.773	285.69
727.959	324.6
728.145	336.89
728.332	283.64
728.518	314.36
728.705	277.5
728.891	367.61
729.077	306.17
729.264	263.16
729.45	392.19
729.636	463.86
729.823	312.32
730.009	383.99
730.195	371.71
730.382	330.75
730.568	289.79
730.754	275.45
730.94	338.94
731.126	386.04
731.313	457.72
731.499	291.84
731.685	322.56
731.871	379.9
732.057	363.51
732.243	478.2
732.429	437.24
732.615	429.05
732.801	302.08
732.987	300.03
733.173	295.93
733.359	295.93
733.545	394.23
733.731	363.51
733.917	398.33
734.103	334.84
734.289	328.7
734.475	304.12
734.661	453.63
734.847	357.37
735.033	306.17
735.219	386.04
735.404	306.17
735.59	250.88
735.776	279.55
735.962	322.56
736.148	345.08
736.333	427
736.519	457.72
736.705	334.84
736.89	330.75
737.076	334.84
737.262	304.12
737.447	285.69
737.633	349.18
737.819	453.63
738.004	295.93
738.19	316.41
738.375	365.56
738.561	365.56
738.747	275.45
738.932	238.59
739.118	496.63
739.303	433.15
739.489	343.03
739.674	351.23
739.859	308.22
740.045	383.99
740.23	388.09
740.416	211.96
740.601	334.84
740.786	351.23
740.972	285.69
741.157	291.84
741.342	293.88
741.528	328.7
741.713	375.8
741.898	345.08
742.084	228.35
742.269	289.79
742.454	392.19
742.639	353.27
742.824	363.51
743.01	424.95
743.195	441.34
743.38	408.57
743.565	287.74
743.75	361.47
743.935	347.13
744.12	396.28
744.305	238.59
744.49	304.12
744.675	322.56
744.86	328.7
745.045	349.18
745.23	340.99
745.415	340.99
745.6	412.67
745.785	291.84
745.97	410.62
746.155	383.99
746.34	246.78
746.525	310.27
746.71	453.63
746.895	216.06
747.079	179.2
747.264	295.93
747.449	373.75
747.634	410.62
747.819	283.64
748.003	293.88
748.188	232.44
748.373	369.66
748.557	316.41
748.742	381.95
748.927	289.79
749.111	267.26
749.296	252.92
749.481	336.89
749.665	304.12
749.85	277.5
750.034	355.32
750.219	316.41
750.404	261.12
750.588	254.97
750.773	259.07
750.957	267.26
751.141	211.96
751.326	281.6
751.51	244.73
751.695	254.97
751.879	224.25
752.064	373.75
752.248	287.74
752.432	363.51
752.617	343.03
752.801	377.85
752.985	244.73
753.17	336.89
753.354	324.6
753.538	254.97
753.722	207.87
753.907	201.72
754.091	181.25
754.275	281.6
754.459	142.33
754.643	156.67
754.828	248.83
755.012	297.98
755.196	146.43
755.38	244.73
755.564	183.29
755.748	195.58
755.932	273.4
756.116	228.35
756.3	226.3
756.484	166.91
756.668	216.06
756.852	82.94
757.036	226.3
757.22	191.49
757.404	103.42
757.588	93.18
757.772	224.25
757.956	160.77
758.14	402.43
758.323	148.48
758.507	207.87
758.691	111.61
758.875	271.36
759.059	310.27
759.242	166.91
759.426	214.01
759.61	248.83
759.794	89.09
759.977	324.6
760.161	412.67
760.345	330.75
760.528	289.79
760.712	173.05
760.895	191.49
761.079	185.34
761.263	179.2
761.446	140.29
761.63	97.28
761.813	281.6
761.997	142.33
762.18	162.81
762.364	211.96
762.547	-23.55
762.731	158.72
762.914	207.87
763.098	154.62
763.281	181.25
763.464	115.71
763.648	189.44
763.831	125.95
764.015	199.68
764.198	238.59
764.381	123.9
764.564	187.39
764.748	183.29
764.931	111.61
765.114	142.33
765.297	175.1
765.481	60.42
765.664	205.82
765.847	97.28
766.03	197.63
766.213	66.56
766.397	162.81
766.58	105.47
766.763	216.06
766.946	164.86
767.129	146.43
767.312	89.09
767.495	105.47
767.678	109.57
767.861	187.39
768.044	193.53
768.227	107.52
768.41	152.57
768.593	130.05
768.776	105.47
768.959	33.79
769.142	238.59
769.324	64.51
769.507	89.09
769.69	121.85
769.873	107.52
770.056	340.99
770.239	121.85
770.421	187.39
770.604	115.71
770.787	193.53
770.97	173.05
771.152	62.46
771.335	187.39
771.518	70.65
771.7	211.96
771.883	240.64
772.066	80.89
772.248	162.81
772.431	191.49
772.613	97.28
772.796	80.89
772.978	185.34
773.161	201.72
773.343	13.31
773.526	105.47
773.708	7.17
773.891	44.03
774.073	105.47
774.256	93.18
774.438	185.34
774.621	87.04
774.803	130.05
774.985	70.65
775.168	166.91
775.35	107.52
775.532	146.43
775.715	21.5
775.897	62.46
776.079	7.17
776.261	111.61
776.444	80.89
776.626	31.74
776.808	89.09
776.99	-29.7
777.173	37.89
777.355	115.71
777.537	111.61
777.719	107.52
777.901	52.22
778.083	66.56
778.265	-80.89
778.447	64.51
778.629	60.42
778.811	68.61
778.993	142.33
779.175	111.61
779.357	15.36
779.539	31.74
779.721	117.76
779.903	150.53
780.085	93.18
780.267	115.71
780.449	19.46
780.631	89.09
780.812	207.87
780.994	39.94
781.176	101.37
781.358	-9.22
781.54	82.94
781.721	144.38
781.903	93.18
782.085	62.46
782.267	128
782.448	37.89
782.63	-23.55
782.812	52.22
782.993	109.57
783.175	142.33
783.357	25.6
783.538	103.42
783.72	5.12
783.901	35.84
784.083	103.42
784.264	-3.07
784.446	25.6
784.627	50.18
784.809	111.61
784.99	66.56
785.172	125.95
785.353	119.81
785.535	113.66
785.716	138.24
785.897	48.13
786.079	138.24
786.26	29.7
786.441	95.23
786.623	-33.79
786.804	70.65
786.985	3.07
787.167	50.18
787.348	72.7
787.529	78.85
787.71	179.2
787.891	62.46
788.073	-9.22
788.254	-9.22
788.435	222.2
788.616	101.37
788.797	33.79
788.978	35.84
789.159	-37.89
789.34	54.27
789.522	41.98
789.703	70.65
789.884	70.65
790.065	21.5
790.246	146.43
790.427	128
790.607	107.52
790.788	111.61
790.969	9.22
791.15	56.32
791.331	7.17
791.512	-23.55
791.693	23.55
791.874	78.85
792.054	224.25
792.235	166.91
792.416	-64.51
792.597	-1.02
792.778	66.56
792.958	101.37
793.139	87.04
793.32	50.18
793.5	-33.79
793.681	109.57
793.862	82.94
794.042	66.56
794.223	-68.61
794.404	-25.6
794.584	-64.51
794.765	44.03
794.945	17.41
795.126	117.76
795.306	136.19
795.487	29.7
795.667	60.42
795.848	39.94
796.028	-3.07
796.209	62.46
796.389	160.77
796.57	48.13
796.75	-33.79
796.93	29.7
797.111	-5.12
797.291	-25.6
797.471	27.65
797.652	66.56
797.832	-39.94
798.012	-9.22
798.192	-33.79
798.373	-89.09
798.553	-19.46
798.733	27.65
798.913	-52.22
799.093	9.22
799.274	29.7
799.454	19.46
799.634	95.23
799.814	93.18
799.994	138.24
800.174	113.66
800.354	7.17
800.534	-44.03
800.714	72.7
800.894	-70.65
801.074	-82.94
801.254	-41.98
801.434	48.13
801.614	50.18
801.794	17.41
801.974	1938.4
802.154	27.65
802.334	125.95
802.514	33.79
802.693	-27.65
802.873	23.55
803.053	111.61
803.233	89.09
803.413	76.8
803.592	-89.09
803.772	-44.03
803.952	95.23
804.131	-39.94
804.311	128
804.491	144.38
804.67	-13.31
804.85	-58.37
805.03	76.8
805.209	171.01
805.389	1.02
805.568	-15.36
805.748	44.03
805.928	62.46
806.107	113.66
806.287	31.74
806.466	13.31
806.646	37.89
806.825	39.94
807.004	29.7
807.184	39.94
807.363	46.08
807.543	50.18
807.722	-31.74
807.901	109.57
808.081	60.42
808.26	-207.87
808.439	-17.41
808.619	-27.65
808.798	15.36
808.977	-15.36
809.156	66.56
809.336	64.51
809.515	130.05
809.694	-11.26
809.873	-27.65
810.052	7.17
810.231	87.04
810.411	21.5
810.59	70.65
810.769	-46.08
810.948	99.33
811.127	-113.66
811.306	-46.08
811.485	-25.6
811.664	105.47
811.843	7.17
812.022	1.02
812.201	-11.26
812.38	-48.13
812.559	-23.55
812.737	58.37
812.916	-105.47
813.095	3.07
813.274	11.26
813.453	-31.74
813.632	52.22
813.811	87.04
813.989	-44.03
814.168	44.03
814.347	-87.04
814.526	-3.07
814.704	128
814.883	115.71
815.062	-56.32
815.24	39.94
815.419	-46.08
815.598	97.28
815.776	-58.37
815.955	62.46
816.133	-146.43
816.312	-13.31
816.49	11.26
816.669	44.03
816.847	-21.5
817.026	72.7
817.204	11.26
817.383	-5.12
817.561	-80.89
817.74	62.46
817.918	39.94
818.097	-62.46
818.275	-84.99
818.453	138.24
818.632	56.32
818.81	11.26
818.988	-52.22
819.167	-27.65
819.345	-27.65
819.523	-23.55
819.701	35.84
819.879	91.13
820.058	21.5
820.236	46.08
820.414	-5.12
820.592	7.17
820.77	37.89
820.948	15.36
821.127	-72.7
821.305	15.36
821.483	-1.02
821.661	93.18
821.839	17.41
822.017	-76.8
822.195	-1.02
822.373	109.57
822.551	33.79
822.729	113.66
822.907	-11.26
823.085	39.94
823.262	-11.26
823.44	-78.85
823.618	-1.02
823.796	64.51
823.974	-58.37
824.152	-87.04
824.329	-9.22
824.507	39.94
824.685	66.56
824.863	-23.55
825.04	89.09
825.218	50.18
825.396	1.02
825.574	66.56
825.751	-50.18
825.929	111.61
826.107	-150.53
826.284	11.26
826.462	76.8
826.639	3.07
826.817	-58.37
826.994	11.26
827.172	-60.42
827.349	115.71
827.527	-39.94
827.704	70.65
827.882	101.37
828.059	37.89
828.237	21.5
828.414	39.94
828.591	-134.14
828.769	31.74
828.946	35.84
829.124	15.36
829.301	99.33
829.478	-33.79
829.655	-39.94
829.833	-1.02
830.01	-162.81
830.187	64.51
830.364	-9.22
830.542	60.42
830.719	117.76
830.896	107.52
831.073	39.94
831.25	60.42
831.427	72.7
831.604	-5.12
831.782	-19.46
831.959	80.89
832.136	50.18
832.313	17.41
832.49	-7.17
832.667	74.75
832.844	-23.55
833.021	87.04
833.198	48.13
833.374	-23.55
833.551	64.51
833.728	-41.98
833.905	115.71
834.082	-109.57
834.259	19.46
834.436	138.24
834.612	-72.7
834.789	132.09
834.966	-58.37
835.143	66.56
835.319	-93.18
835.496	46.08
835.673	-1.02
835.85	-23.55
836.026	35.84
836.203	125.95
836.38	-29.7
836.556	21.5
836.733	-15.36
836.909	152.57
837.086	-37.89
837.262	-37.89
837.439	-89.09
837.616	-9.22
837.792	-35.84
837.968	105.47
838.145	-91.13
838.321	3.07
838.498	-3.07
838.674	62.46
838.851	46.08
839.027	9.22
839.203	76.8
839.38	56.32
839.556	15.36
839.732	-23.55
839.909	37.89
840.085	105.47
840.261	-138.24
840.437	29.7
840.614	29.7
840.79	72.7
840.966	89.09
841.142	27.65
841.318	-37.89
841.494	87.04
841.671	109.57
841.847	-99.33
842.023	-64.51
842.199	66.56
842.375	82.94
842.551	-91.13
842.727	-35.84
842.903	35.84
843.079	-91.13
843.255	148.48
843.431	13.31
843.607	50.18
843.783	-103.42
843.959	52.22
844.134	-74.75
844.31	166.91
844.486	-72.7
844.662	-109.57
844.838	13.31
845.013	37.89
845.189	33.79
845.365	82.94
845.541	62.46
845.716	35.84
845.892	1.02
846.068	-54.27
846.244	-25.6
846.419	80.89
846.595	-74.75
846.77	-89.09
846.946	60.42
847.122	-21.5
847.297	-46.08
847.473	162.81
847.648	-82.94
847.824	-11.26
847.999	-111.61
848.175	-35.84
848.35	37.89
848.526	68.61
848.701	95.23
848.876	78.85
849.052	95.23
849.227	7.17
849.403	-13.31
849.578	-25.6
849.753	-9.22
849.929	97.28
850.104	-37.89
850.279	-5.12
850.454	58.37
850.63	113.66
850.805	-15.36
850.98	37.89
851.155	7.17
851.33	29.7
851.505	-97.28
851.681	113.66
851.856	-23.55
852.031	-21.5
852.206	27.65
852.381	-78.85
852.556	-29.7
852.731	93.18
852.906	80.89
853.081	1.02
853.256	84.99
853.431	-58.37
853.606	-44.03
853.781	-80.89
853.956	-95.23
854.131	9.22
854.305	5.12
854.48	44.03
854.655	62.46
854.83	-54.27
855.005	-13.31
855.18	29.7
855.354	25.6
855.529	-7.17
855.704	-3.07
855.879	121.85
856.053	-37.89
856.228	25.6
856.403	-5.12
856.577	21.5
856.752	-62.46
856.926	-5.12
857.101	56.32
857.276	-119.81
857.45	-15.36
857.625	82.94
857.799	44.03
857.974	31.74
858.148	-58.37
858.323	48.13
858.497	-58.37
858.672	25.6
858.846	1.02
859.02	9.22
859.195	-29.7
859.369	13.31
859.543	1.02
859.718	48.13
859.892	19.46
860.066	44.03
860.241	-23.55
860.415	-31.74
860.589	33.79
860.763	11.26
860.938	1.02
861.112	31.74
861.286	-74.75
861.46	76.8
861.634	7.17
861.808	56.32
861.982	-33.79
862.157	-3.07
862.331	-95.23
862.505	-82.94
862.679	-101.37
862.853	-5.12
863.027	17.41
863.201	121.85
863.375	-97.28
863.549	-33.79
863.722	-11.26
863.896	254.97
864.07	-62.46
864.244	23.55
864.418	33.79
864.592	31.74
864.766	-15.36
864.939	48.13
865.113	-1.02
865.287	109.57
865.461	-50.18
865.634	33.79
865.808	-64.51
865.982	-56.32
866.156	-56.32
866.329	-130.05
866.503	5.12
866.676	64.51
866.85	25.6
867.024	-58.37
867.197	46.08
867.371	9.22
867.544	29.7
867.718	25.6
867.891	146.43
868.065	-70.65
868.238	37.89
868.412	134.14
868.585	-11.26
868.759	-33.79
868.932	-37.89
869.105	-132.09
869.279	-29.7
869.452	-11.26
869.625	76.8
869.799	-62.46
869.972	-21.5
870.145	-29.7
870.319	87.04
870.492	1.02
870.665	35.84
870.838	-33.79
871.011	-166.91
871.185	3.07
871.358	-15.36
871.531	-1.02
871.704	-33.79
871.877	9.22
872.05	17.41
872.223	-3.07
872.396	41.98
872.569	60.42
872.742	-68.61
872.915	107.52
873.088	9.22
873.261	-93.18
873.434	50.18
873.607	-33.79
873.78	52.22
873.953	-74.75
874.126	62.46
874.299	66.56
874.471	17.41
874.644	25.6
874.817	29.7
874.99	130.05
875.163	-70.65
875.335	52.22
875.508	-19.46
875.681	171.01
875.853	-29.7
876.026	7.17
876.199	25.6
876.371	-3.07
876.544	9.22
876.717	1.02
876.889	-46.08
877.062	-31.74
877.234	-39.94
877.407	-72.7
877.579	44.03
877.752	13.31
877.924	54.27
878.097	-13.31
878.269	19.46
878.442	-7.17
878.614	7.17
878.786	-70.65
878.959	66.56
879.131	27.65
879.303	-84.99
879.476	-25.6
879.648	66.56
879.82	-50.18
879.993	-7.17
880.165	-17.41
880.337	-27.65
880.509	19.46
880.681	-50.18
880.854	-1.02
881.026	37.89
881.198	152.57
881.37	50.18
881.542	25.6
881.714	27.65
881.886	-68.61
882.058	-66.56
882.23	21.5
882.402	-17.41
882.574	-3.07
882.746	101.37
882.918	152.57
883.09	-13.31
883.262	-7.17
883.434	-37.89
883.606	-46.08
883.778	23.55
883.95	144.38
884.122	-64.51
884.293	101.37
884.465	66.56
884.637	35.84
884.809	-119.81
884.98	9.22
885.152	39.94
885.324	95.23
885.496	-66.56
885.667	-50.18
885.839	-54.27
886.011	162.81
886.182	17.41
886.354	101.37
886.525	58.37
886.697	9.22
886.869	-119.81
887.04	-46.08
887.212	58.37
887.383	232.44
887.555	-5.12
887.726	39.94
887.897	-9.22
888.069	-56.32
888.24	84.99
888.412	-5.12
888.583	-1.02
888.754	9.22
888.926	-111.61
889.097	-29.7
889.268	-74.75
889.44	-1.02
889.611	-50.18
889.782	-107.52
889.953	13.31
890.125	128
890.296	-23.55
890.467	-17.41
890.638	-15.36
890.809	-11.26
890.98	9.22
891.151	41.98
891.323	56.32
891.494	-25.6
891.665	-1.02
891.836	-50.18
892.007	9.22
892.178	35.84
892.349	62.46
892.52	-60.42
892.691	17.41
892.862	3.07
893.032	-95.23
893.203	-5.12
893.374	41.98
893.545	103.42
893.716	-23.55
893.887	72.7
894.057	-29.7
894.228	-60.42
894.399	-27.65
894.57	97.28
894.74	-21.5
894.911	48.13
895.082	-70.65
895.253	-76.8
895.423	66.56
895.594	70.65
895.764	70.65
895.935	-23.55
896.106	46.08
896.276	-21.5
896.447	-31.74
896.617	-25.6
896.788	-99.33
896.958	-95.23
897.129	-37.89
897.299	-54.27
897.47	113.66
897.64	132.09
897.81	-31.74
897.981	-9.22
898.151	11.26
898.322	-21.5
898.492	107.52
898.662	-125.95
898.832	39.94
899.003	-80.89
899.173	7.17
899.343	-60.42
899.513	-111.61
