Data from USB4F104151__147__11-04-20-939.txt Node

Date: Wed Feb 26 11:04:20 EST 2025
User: louis
Spectrometer: USB4F10415
Trigger mode: 4
Integration Time (sec): 1.000000E-1
Scans to average: 1
Electric dark correction enabled: true
Nonlinearity correction enabled: false
Boxcar width: 0
XAxis mode: Wavelengths
Number of Pixels in Spectrum: 3648
>>>>>Begin Spectral Data<<<<<
178.204	-405.67
178.424	-405.67
178.644	-405.67
178.864	-387.24
179.084	-411.81
179.304	-16.55
179.524	-4.27
179.744	1.88
179.964	87.89
180.184	22.36
180.404	24.4
180.624	-41.13
180.844	-73.9
181.064	-77.99
181.283	104.28
181.503	-37.03
181.723	10.07
181.943	-145.58
182.163	225.11
182.383	-39.08
182.602	-30.89
182.822	130.9
183.042	100.18
183.262	-14.51
183.482	38.74
183.701	46.93
183.921	1.88
184.141	-45.23
184.361	59.22
184.58	-12.46
184.8	46.93
185.02	-32.94
185.239	18.26
185.459	46.93
185.679	143.19
185.898	-149.67
186.118	69.46
186.338	22.36
186.557	106.32
186.777	-84.14
186.997	57.17
187.216	48.98
187.436	118.61
187.655	77.65
187.875	135
188.095	69.46
188.314	118.61
188.534	120.66
188.753	-63.66
188.973	94.04
189.192	55.12
189.412	-65.71
189.631	28.5
189.851	75.6
190.07	196.43
190.29	10.07
190.509	-26.79
190.729	59.22
190.948	143.19
191.168	214.87
191.387	77.65
191.607	-12.46
191.826	5.97
192.045	59.22
192.265	1.88
192.484	87.89
192.704	42.84
192.923	-24.75
193.142	206.67
193.362	55.12
193.581	200.53
193.8	51.03
194.02	69.46
194.239	12.12
194.458	147.28
194.678	-32.94
194.897	10.07
195.116	87.89
195.335	77.65
195.555	85.84
195.774	-39.08
195.993	229.2
196.212	114.52
196.432	-37.03
196.651	-28.84
196.87	14.17
197.089	239.44
197.308	124.76
197.528	69.46
197.747	-28.84
197.966	77.65
198.185	130.9
198.404	8.02
198.623	120.66
198.842	145.24
199.062	192.34
199.281	114.52
199.5	77.65
199.719	132.95
199.938	42.84
200.157	128.85
200.376	94.04
200.595	155.47
200.814	55.12
201.033	-8.36
201.252	104.28
201.471	5.97
201.69	118.61
201.909	34.64
202.128	91.99
202.347	-34.99
202.566	-49.32
202.785	5.97
203.004	-0.17
203.223	261.97
203.442	55.12
203.661	12.12
203.879	65.36
204.098	196.43
204.317	-61.61
204.536	161.62
204.755	36.69
204.974	147.28
205.193	-6.31
205.411	175.95
205.63	153.43
205.849	110.42
206.068	-43.18
206.287	-63.66
206.505	182.1
206.724	-82.09
206.943	-69.8
207.162	20.31
207.381	38.74
207.599	16.21
207.818	10.07
208.037	-32.94
208.255	96.08
208.474	118.61
208.693	40.79
208.911	3.93
209.13	106.32
209.349	143.19
209.567	132.95
209.786	153.43
210.005	94.04
210.223	5.97
210.442	-49.32
210.661	36.69
210.879	44.88
211.098	1.88
211.316	106.32
211.535	130.9
211.753	-71.85
211.972	24.4
212.191	53.08
212.409	53.08
212.628	20.31
212.846	28.5
213.065	83.8
213.283	143.19
213.502	55.12
213.72	89.94
213.938	-14.51
214.157	-61.61
214.375	143.19
214.594	-39.08
214.812	104.28
215.031	71.51
215.249	46.93
215.467	65.36
215.686	51.03
215.904	110.42
216.122	48.98
216.341	122.71
216.559	28.5
216.778	151.38
216.996	124.76
217.214	-14.51
217.432	-77.99
217.651	-45.23
217.869	73.56
218.087	26.45
218.306	38.74
218.524	20.31
218.742	38.74
218.96	42.84
219.179	71.51
219.397	53.08
219.615	202.58
219.833	126.8
220.051	-43.18
220.27	116.56
220.488	57.17
220.706	67.41
220.924	69.46
221.142	28.5
221.36	51.03
221.578	32.6
221.796	44.88
222.015	81.75
222.233	1.88
222.451	274.26
222.669	18.26
222.887	126.8
223.105	-22.7
223.323	8.02
223.541	-24.75
223.759	91.99
223.977	18.26
224.195	77.65
224.413	149.33
224.631	48.98
224.849	96.08
225.067	204.63
225.285	-47.27
225.503	-47.27
225.721	-125.1
225.939	34.64
226.157	65.36
226.375	268.11
226.592	18.26
226.81	-2.22
227.028	98.13
227.246	147.28
227.464	171.86
227.682	104.28
227.9	87.89
228.117	69.46
228.335	98.13
228.553	10.07
228.771	59.22
228.989	63.32
229.206	89.94
229.424	1.88
229.642	-30.89
229.86	-12.46
230.077	145.24
230.295	30.55
230.513	124.76
230.731	161.62
230.948	210.77
231.166	231.25
231.384	28.5
231.601	-47.27
231.819	223.06
232.037	30.55
232.254	20.31
232.472	-20.65
232.689	-12.46
232.907	132.95
233.125	48.98
233.342	18.26
233.56	-4.27
233.777	10.07
233.995	5.97
234.213	126.8
234.43	28.5
234.648	61.27
234.865	-4.27
235.083	104.28
235.3	-10.41
235.518	53.08
235.735	36.69
235.953	96.08
236.17	44.88
236.388	57.17
236.605	51.03
236.822	98.13
237.04	85.84
237.257	53.08
237.475	-61.61
237.692	36.69
237.909	71.51
238.127	51.03
238.344	30.55
238.562	59.22
238.779	-22.7
238.996	-94.38
239.214	-0.17
239.431	71.51
239.648	-67.75
239.865	122.71
240.083	96.08
240.3	18.26
240.517	-4.27
240.735	69.46
240.952	130.9
241.169	106.32
241.386	65.36
241.603	12.12
241.821	-61.61
242.038	28.5
242.255	128.85
242.472	-90.28
242.689	42.84
242.907	83.8
243.124	-4.27
243.341	-8.36
243.558	73.56
243.775	-43.18
243.992	-32.94
244.209	135
244.426	167.76
244.643	44.88
244.86	44.88
245.078	151.38
245.295	79.7
245.512	-12.46
245.729	63.32
245.946	118.61
246.163	46.93
246.38	-16.55
246.597	20.31
246.814	-2.22
247.031	3.93
247.248	73.56
247.464	98.13
247.681	55.12
247.898	120.66
248.115	69.46
248.332	1.88
248.549	155.47
248.766	137.04
248.983	110.42
249.2	65.36
249.417	91.99
249.633	30.55
249.85	59.22
250.067	18.26
250.284	98.13
250.501	122.71
250.717	100.18
250.934	-37.03
251.151	-49.32
251.368	46.93
251.585	89.94
251.801	32.6
252.018	-6.31
252.235	87.89
252.451	-63.66
252.668	42.84
252.885	151.38
253.102	-80.04
253.318	-49.32
253.535	63.32
253.752	28.5
253.968	8.02
254.185	-8.36
254.401	14.17
254.618	108.37
254.835	-6.31
255.051	42.84
255.268	69.46
255.484	87.89
255.701	32.6
255.917	32.6
256.134	34.64
256.351	63.32
256.567	-4.27
256.784	42.84
257	-30.89
257.217	114.52
257.433	91.99
257.65	159.57
257.866	173.91
258.082	-18.6
258.299	48.98
258.515	108.37
258.732	-10.41
258.948	114.52
259.165	46.93
259.381	-28.84
259.597	108.37
259.814	-26.79
260.03	44.88
260.246	-2.22
260.463	32.6
260.679	102.23
260.895	53.08
261.112	-26.79
261.328	-20.65
261.544	-24.75
261.761	149.33
261.977	-49.32
262.193	-43.18
262.409	126.8
262.626	22.36
262.842	-4.27
263.058	-16.55
263.274	104.28
263.49	14.17
263.707	100.18
263.923	59.22
264.139	-20.65
264.355	98.13
264.571	24.4
264.787	57.17
265.004	112.47
265.22	108.37
265.436	-22.7
265.652	30.55
265.868	59.22
266.084	-69.8
266.3	14.17
266.516	18.26
266.732	75.6
266.948	-10.41
267.164	-28.84
267.38	149.33
267.596	94.04
267.812	161.62
268.028	48.98
268.244	42.84
268.46	-16.55
268.676	-24.75
268.892	32.6
269.108	-22.7
269.324	-41.13
269.54	-37.03
269.756	36.69
269.972	18.26
270.188	36.69
270.403	-16.55
270.619	85.84
270.835	81.75
271.051	8.02
271.267	73.56
271.483	-12.46
271.698	114.52
271.914	83.8
272.13	106.32
272.346	3.93
272.562	16.21
272.777	81.75
272.993	14.17
273.209	-16.55
273.425	100.18
273.64	-77.99
273.856	73.56
274.072	10.07
274.287	48.98
274.503	79.7
274.719	102.23
274.934	-90.28
275.15	-6.31
275.366	20.31
275.581	-10.41
275.797	46.93
276.012	135
276.228	75.6
276.444	59.22
276.659	137.04
276.875	-2.22
277.09	-28.84
277.306	57.17
277.521	48.98
277.737	65.36
277.952	141.14
278.168	26.45
278.383	51.03
278.599	5.97
278.814	153.43
279.03	30.55
279.245	108.37
279.461	26.45
279.676	40.79
279.892	57.17
280.107	-43.18
280.322	-4.27
280.538	73.56
280.753	20.31
280.969	87.89
281.184	81.75
281.399	175.95
281.615	102.23
281.83	73.56
282.045	-112.81
282.26	38.74
282.476	94.04
282.691	22.36
282.906	-18.6
283.122	55.12
283.337	-92.33
283.552	67.41
283.767	20.31
283.983	91.99
284.198	38.74
284.413	85.84
284.628	-114.86
284.843	-6.31
285.058	126.8
285.274	48.98
285.489	-24.75
285.704	42.84
285.919	-14.51
286.134	1.88
286.349	94.04
286.564	-127.14
286.779	94.04
286.995	26.45
287.21	-80.04
287.425	61.27
287.64	3.93
287.855	75.6
288.07	-45.23
288.285	44.88
288.5	114.52
288.715	87.89
288.93	14.17
289.145	-67.75
289.36	94.04
289.575	-26.79
289.79	122.71
290.004	12.12
290.219	53.08
290.434	-43.18
290.649	51.03
290.864	-4.27
291.079	-2.22
291.294	20.31
291.509	55.12
291.724	-0.17
291.938	-45.23
292.153	104.28
292.368	-14.51
292.583	40.79
292.798	61.27
293.012	69.46
293.227	48.98
293.442	48.98
293.657	120.66
293.871	155.47
294.086	63.32
294.301	139.09
294.516	186.19
294.73	30.55
294.945	-37.03
295.16	55.12
295.374	135
295.589	118.61
295.804	53.08
296.018	30.55
296.233	126.8
296.447	128.85
296.662	63.32
296.877	132.95
297.091	85.84
297.306	40.79
297.52	48.98
297.735	112.47
297.949	94.04
298.164	67.41
298.378	12.12
298.593	-6.31
298.807	48.98
299.022	-20.65
299.236	91.99
299.451	22.36
299.665	61.27
299.88	-45.23
300.094	79.7
300.309	57.17
300.523	91.99
300.737	-6.31
300.952	44.88
301.166	65.36
301.381	40.79
301.595	-26.79
301.809	59.22
302.024	26.45
302.238	-2.22
302.452	132.95
302.667	83.8
302.881	157.52
303.095	81.75
303.309	75.6
303.524	12.12
303.738	53.08
303.952	28.5
304.166	46.93
304.381	-106.67
304.595	137.04
304.809	-63.66
305.023	69.46
305.237	1.88
305.452	12.12
305.666	57.17
305.88	57.17
306.094	128.85
306.308	26.45
306.522	77.65
306.736	32.6
306.95	87.89
307.164	-14.51
307.379	57.17
307.593	178
307.807	91.99
308.021	102.23
308.235	16.21
308.449	3.93
308.663	30.55
308.877	241.49
309.091	44.88
309.305	149.33
309.519	-102.57
309.733	178
309.947	-86.19
310.161	40.79
310.374	57.17
310.588	126.8
310.802	-26.79
311.016	61.27
311.23	71.51
311.444	-88.23
311.658	81.75
311.872	155.47
312.085	112.47
312.299	83.8
312.513	202.58
312.727	48.98
312.941	-43.18
313.154	61.27
313.368	10.07
313.582	40.79
313.796	40.79
314.009	18.26
314.223	81.75
314.437	-6.31
314.651	89.94
314.864	-32.94
315.078	34.64
315.292	-30.89
315.505	14.17
315.719	69.46
315.933	161.62
316.146	48.98
316.36	16.21
316.573	135
316.787	48.98
317.001	67.41
317.214	8.02
317.428	16.21
317.641	-2.22
317.855	36.69
318.068	24.4
318.282	18.26
318.495	165.71
318.709	120.66
318.922	57.17
319.136	169.81
319.349	149.33
319.563	55.12
319.776	83.8
319.99	-34.99
320.203	71.51
320.417	110.42
320.63	114.52
320.843	157.52
321.057	100.18
321.27	61.27
321.483	85.84
321.697	204.63
321.91	28.5
322.124	30.55
322.337	79.7
322.55	-22.7
322.763	61.27
322.977	48.98
323.19	20.31
323.403	38.74
323.617	36.69
323.83	71.51
324.043	20.31
324.256	51.03
324.469	-41.13
324.683	178
324.896	36.69
325.109	59.22
325.322	-49.32
325.535	96.08
325.748	104.28
325.962	12.12
326.175	83.8
326.388	16.21
326.601	141.14
326.814	-14.51
327.027	94.04
327.24	135
327.453	-90.28
327.666	61.27
327.879	130.9
328.092	112.47
328.305	116.56
328.518	53.08
328.731	8.02
328.944	-12.46
329.157	42.84
329.37	-22.7
329.583	163.67
329.796	135
330.009	-30.89
330.222	89.94
330.435	69.46
330.648	75.6
330.861	75.6
331.073	36.69
331.286	114.52
331.499	12.12
331.712	-16.55
331.925	42.84
332.138	73.56
332.35	208.72
332.563	-6.31
332.776	182.1
332.989	8.02
333.202	71.51
333.414	61.27
333.627	-12.46
333.84	-0.17
334.053	85.84
334.265	22.36
334.478	-41.13
334.691	53.08
334.903	28.5
335.116	34.64
335.329	3.93
335.541	14.17
335.754	167.76
335.966	-2.22
336.179	5.97
336.392	16.21
336.604	87.89
336.817	126.8
337.029	26.45
337.242	-4.27
337.454	118.61
337.667	71.51
337.88	173.91
338.092	147.28
338.305	46.93
338.517	30.55
338.729	20.31
338.942	77.65
339.154	-4.27
339.367	-39.08
339.579	73.56
339.792	-14.51
340.004	108.37
340.217	59.22
340.429	55.12
340.641	-8.36
340.854	57.17
341.066	40.79
341.278	171.86
341.491	237.39
341.703	53.08
341.915	44.88
342.128	106.32
342.34	65.36
342.552	-28.84
342.764	44.88
342.977	67.41
343.189	67.41
343.401	77.65
343.613	-45.23
343.826	32.6
344.038	-51.37
344.25	32.6
344.462	-20.65
344.674	100.18
344.886	51.03
345.099	96.08
345.311	73.56
345.523	32.6
345.735	-30.89
345.947	-59.56
346.159	57.17
346.371	24.4
346.583	53.08
346.795	206.67
347.007	102.23
347.219	57.17
347.431	28.5
347.643	44.88
347.855	26.45
348.067	79.7
348.279	-51.37
348.491	18.26
348.703	104.28
348.915	83.8
349.127	-12.46
349.339	89.94
349.551	22.36
349.763	130.9
349.975	46.93
350.187	61.27
350.399	204.63
350.61	38.74
350.822	28.5
351.034	122.71
351.246	65.36
351.458	53.08
351.669	126.8
351.881	55.12
352.093	98.13
352.305	120.66
352.517	5.97
352.728	118.61
352.94	89.94
353.152	81.75
353.363	-24.75
353.575	75.6
353.787	221.01
353.999	44.88
354.21	214.87
354.422	-0.17
354.633	-16.55
354.845	-4.27
355.057	69.46
355.268	24.4
355.48	149.33
355.692	-41.13
355.903	48.98
356.115	-43.18
356.326	-75.95
356.538	141.14
356.749	79.7
356.961	186.19
357.172	71.51
357.384	36.69
357.595	190.29
357.807	-12.46
358.018	-59.56
358.23	-24.75
358.441	178
358.653	124.76
358.864	26.45
359.075	-4.27
359.287	34.64
359.498	114.52
359.709	8.02
359.921	51.03
360.132	124.76
360.344	57.17
360.555	-26.79
360.766	40.79
360.977	63.32
361.189	128.85
361.4	20.31
361.611	94.04
361.823	130.9
362.034	30.55
362.245	-51.37
362.456	71.51
362.667	55.12
362.879	-39.08
363.09	57.17
363.301	96.08
363.512	-32.94
363.723	63.32
363.935	-63.66
364.146	85.84
364.357	3.93
364.568	10.07
364.779	-22.7
364.99	116.56
365.201	22.36
365.412	130.9
365.623	-69.8
365.834	53.08
366.045	63.32
366.256	118.61
366.467	114.52
366.678	38.74
366.889	155.47
367.1	51.03
367.311	153.43
367.522	14.17
367.733	79.7
367.944	69.46
368.155	48.98
368.366	91.99
368.577	126.8
368.788	122.71
368.999	-12.46
369.209	3.93
369.42	229.2
369.631	249.68
369.842	171.86
370.053	24.4
370.264	118.61
370.474	26.45
370.685	-12.46
370.896	-2.22
371.107	89.94
371.317	120.66
371.528	-26.79
371.739	200.53
371.95	106.32
372.16	8.02
372.371	-69.8
372.582	30.55
372.792	65.36
373.003	51.03
373.214	57.17
373.424	46.93
373.635	71.51
373.846	126.8
374.056	3.93
374.267	63.32
374.477	124.76
374.688	-6.31
374.898	130.9
375.109	-6.31
375.319	145.24
375.53	61.27
375.74	67.41
375.951	-4.27
376.161	79.7
376.372	149.33
376.582	-2.22
376.793	-16.55
377.003	-43.18
377.214	-24.75
377.424	-2.22
377.635	34.64
377.845	-16.55
378.055	94.04
378.266	-4.27
378.476	-6.31
378.686	124.76
378.897	67.41
379.107	44.88
379.317	1.88
379.528	8.02
379.738	51.03
379.948	-57.51
380.158	163.67
380.369	59.22
380.579	137.04
380.789	36.69
380.999	87.89
381.21	91.99
381.42	243.54
381.63	-43.18
381.84	180.05
382.05	42.84
382.261	83.8
382.471	116.56
382.681	-96.43
382.891	65.36
383.101	114.52
383.311	-24.75
383.521	1.88
383.731	59.22
383.941	79.7
384.151	67.41
384.361	18.26
384.571	57.17
384.781	30.55
384.991	120.66
385.201	194.39
385.411	153.43
385.621	118.61
385.831	130.9
386.041	1.88
386.251	46.93
386.461	104.28
386.671	-28.84
386.881	120.66
387.091	22.36
387.301	106.32
387.511	85.84
387.72	94.04
387.93	89.94
388.14	-49.32
388.35	63.32
388.56	175.95
388.769	165.71
388.979	20.31
389.189	-24.75
389.399	42.84
389.609	110.42
389.818	104.28
390.028	71.51
390.238	91.99
390.447	34.64
390.657	42.84
390.867	40.79
391.076	-22.7
391.286	157.52
391.496	3.93
391.705	57.17
391.915	87.89
392.125	128.85
392.334	42.84
392.544	161.62
392.753	61.27
392.963	-26.79
393.172	12.12
393.382	-30.89
393.591	167.76
393.801	-4.27
394.01	132.95
394.22	61.27
394.429	59.22
394.639	16.21
394.848	118.61
395.058	-20.65
395.267	143.19
395.477	55.12
395.686	24.4
395.895	202.58
396.105	196.43
396.314	20.31
396.524	122.71
396.733	26.45
396.942	77.65
397.152	135
397.361	196.43
397.57	38.74
397.78	46.93
397.989	106.32
398.198	180.05
398.407	96.08
398.617	59.22
398.826	8.02
399.035	67.41
399.244	128.85
399.453	104.28
399.663	91.99
399.872	61.27
400.081	53.08
400.29	182.1
400.499	-51.37
400.708	124.76
400.917	-18.6
401.127	51.03
401.336	94.04
401.545	210.77
401.754	167.76
401.963	149.33
402.172	61.27
402.381	-65.71
402.59	100.18
402.799	32.6
403.008	126.8
403.217	32.6
403.426	114.52
403.635	12.12
403.844	34.64
404.053	61.27
404.262	10.07
404.471	163.67
404.68	118.61
404.888	38.74
405.097	-26.79
405.306	122.71
405.515	73.56
405.724	59.22
405.933	143.19
406.142	75.6
406.35	112.47
406.559	-8.36
406.768	104.28
406.977	110.42
407.185	34.64
407.394	-18.6
407.603	-41.13
407.812	159.57
408.02	104.28
408.229	34.64
408.438	83.8
408.646	-16.55
408.855	69.46
409.064	122.71
409.272	-32.94
409.481	48.98
409.69	14.17
409.898	40.79
410.107	20.31
410.315	145.24
410.524	-20.65
410.733	122.71
410.941	71.51
411.15	79.7
411.358	124.76
411.567	139.09
411.775	24.4
411.984	59.22
412.192	63.32
412.401	44.88
412.609	143.19
412.818	192.34
413.026	73.56
413.234	-37.03
413.443	75.6
413.651	-104.62
413.86	5.97
414.068	104.28
414.276	229.2
414.485	-47.27
414.693	208.72
414.901	147.28
415.11	53.08
415.318	26.45
415.526	26.45
415.734	44.88
415.943	77.65
416.151	221.01
416.359	85.84
416.567	100.18
416.776	75.6
416.984	149.33
417.192	159.57
417.4	28.5
417.608	-20.65
417.817	-47.27
418.025	63.32
418.233	139.09
418.441	-55.47
418.649	40.79
418.857	67.41
419.065	61.27
419.273	-57.51
419.481	81.75
419.689	89.94
419.897	10.07
420.105	-43.18
420.313	112.47
420.521	184.15
420.729	155.47
420.937	38.74
421.145	22.36
421.353	108.37
421.561	143.19
421.769	73.56
421.977	100.18
422.185	139.09
422.393	22.36
422.601	85.84
422.809	153.43
423.017	81.75
423.224	20.31
423.432	149.33
423.64	65.36
423.848	128.85
424.056	16.21
424.263	155.47
424.471	-32.94
424.679	153.43
424.887	16.21
425.094	137.04
425.302	53.08
425.51	42.84
425.718	194.39
425.925	32.6
426.133	98.13
426.341	145.24
426.548	55.12
426.756	51.03
426.964	130.9
427.171	57.17
427.379	102.23
427.586	89.94
427.794	167.76
428.001	100.18
428.209	114.52
428.417	255.83
428.624	159.57
428.832	104.28
429.039	102.23
429.247	137.04
429.454	151.38
429.662	192.34
429.869	102.23
430.076	188.24
430.284	118.61
430.491	280.4
430.699	208.72
430.906	239.44
431.114	192.34
431.321	259.92
431.528	171.86
431.736	122.71
431.943	147.28
432.15	175.95
432.358	225.11
432.565	302.93
432.772	55.12
432.979	241.49
433.187	178
433.394	243.54
433.601	132.95
433.808	233.3
434.016	208.72
434.223	210.77
434.43	167.76
434.637	274.26
434.844	331.6
435.052	298.83
435.259	347.98
435.466	288.59
435.673	255.83
435.88	319.31
436.087	362.32
436.294	444.24
436.501	388.94
436.708	288.59
436.915	370.51
437.122	386.9
437.329	360.27
437.537	374.61
437.743	321.36
437.95	499.53
438.157	434
438.364	368.46
438.571	399.18
438.778	532.3
438.985	524.11
439.192	513.87
439.399	560.97
439.606	507.73
439.813	599.88
440.02	554.83
440.227	640.84
440.433	722.76
440.64	671.56
440.847	532.3
441.054	624.46
441.261	831.3
441.467	806.73
441.674	673.61
441.881	829.26
442.088	644.94
442.294	816.97
442.501	800.59
442.708	952.13
442.914	950.09
443.121	1007.43
443.328	984.9
443.534	954.18
443.741	1085.25
443.948	907.08
444.154	1232.71
444.361	1400.64
444.568	1136.45
444.774	1220.42
444.981	1234.75
445.187	1331.01
445.394	1290.05
445.6	1281.86
445.807	1617.72
446.013	1410.88
446.22	1421.12
446.426	1613.63
446.633	1812.28
446.839	1834.81
447.046	1699.64
447.252	1965.88
447.459	1879.86
447.665	2033.46
447.871	2107.19
448.078	2344.75
448.284	2217.78
448.491	2248.5
448.697	2557.74
448.903	2492.21
449.11	2580.27
449.316	2582.32
449.522	2742.06
449.728	2905.9
449.935	3006.25
450.141	2922.28
450.347	3209
450.553	2989.86
450.76	3350.31
450.966	3368.74
451.172	3563.29
451.378	3690.27
451.584	3761.95
451.791	4046.62
451.997	4101.91
452.203	4319
452.409	4497.17
452.615	4607.76
452.821	4495.12
453.027	4423.44
453.233	5152.52
453.44	4839.18
453.646	5117.7
453.852	5355.27
454.058	5717.76
454.264	5746.43
454.47	6242.04
454.676	6317.81
454.882	6792.94
455.088	6375.16
455.294	7003.88
455.5	7483.11
455.705	7722.72
455.911	7802.59
456.117	7864.03
456.323	8345.3
456.529	8359.64
456.735	9035.47
456.941	9201.35
457.147	9514.69
457.352	9750.21
457.558	10206.91
457.764	10655.41
457.97	11005.61
458.176	11630.24
458.381	11984.54
458.587	12365.46
458.793	13061.77
458.999	12760.72
459.204	14769.78
459.41	14741.11
459.616	14773.88
459.821	15763.04
460.027	16436.83
460.233	17053.27
460.438	16899.67
460.644	18191.94
460.85	18415.16
461.055	19074.61
461.261	19891.75
461.466	19543.6
461.672	20057.64
461.878	22181.38
462.083	22050.31
462.289	22369.79
462.494	23465.46
462.7	23451.12
462.905	23807.47
463.111	25652.69
463.316	27000.25
463.522	27524.53
463.727	28548.51
463.932	29511.06
464.138	30385.54
464.343	31577.46
464.549	31792.5
464.754	34096.46
464.959	34907.46
465.165	35597.62
465.37	35439.93
465.575	35153.21
465.781	37623.06
465.986	38837.51
466.191	38163.73
466.397	38413.58
466.602	37414.17
466.807	39673.08
467.012	40131.82
467.218	41284.83
467.423	41002.21
467.628	42200.27
467.833	43832.5
468.038	43365.57
468.244	42820.81
468.449	44598.44
468.654	43877.56
468.859	43883.7
469.064	43846.84
469.269	43070.66
469.474	43707.58
469.679	44494
469.885	43062.47
470.09	43680.95
470.295	43697.34
470.5	42796.23
470.705	42939.59
470.91	41911.51
471.115	41546.97
471.32	42276.05
471.525	41923.8
471.73	40555.75
471.935	40490.22
472.139	38866.18
472.344	39566.59
472.549	38579.46
472.754	37774.61
472.959	37176.61
473.164	35943.73
473.369	35509.56
473.574	36044.08
473.778	35396.92
473.983	34587.97
474.188	34499.91
474.393	32349.54
474.598	32742.75
474.802	31772.02
475.007	31585.65
475.212	31165.82
475.417	29805.97
475.621	29472.15
475.826	29449.62
476.031	28599.71
476.235	27893.16
476.44	28106.15
476.645	27196.85
476.849	26809.79
477.054	26641.85
477.259	25957.83
477.463	25800.14
477.668	25349.59
477.872	25064.92
478.077	24481.25
478.282	23682.54
478.486	23705.07
478.691	23283.19
478.895	23227.89
479.1	23002.61
479.304	22818.3
479.509	21966.34
479.713	22793.72
479.918	21622.28
480.122	21321.23
480.326	21390.86
480.531	21696.01
480.735	21112.34
480.94	20575.77
481.144	21429.77
481.348	20260.38
481.553	20389.41
481.757	19899.94
481.961	20321.82
482.166	20180.51
482.37	20080.16
482.574	19390
482.778	19473.96
482.983	19854.89
483.187	19406.38
483.391	19455.53
483.595	18806.33
483.8	18581.05
484.004	18845.24
484.208	18961.97
484.412	18361.92
484.616	18234.94
484.821	17944.13
485.025	17507.91
485.229	17798.73
485.433	17141.33
485.637	16997.97
485.841	16578.14
486.045	16846.42
486.249	16649.82
486.453	16066.14
486.657	15916.64
486.861	15732.33
487.065	15115.89
487.269	15273.58
487.473	14665.33
487.677	14988.91
487.881	14618.23
488.085	14284.41
488.289	14059.13
488.493	13647.49
488.697	13725.32
488.901	13411.98
489.105	13117.07
489.309	13104.78
489.512	12822.16
489.716	12637.84
489.92	12123.8
490.124	11724.45
490.328	11980.45
490.531	11437.73
490.735	11241.13
490.939	11169.45
491.143	10931.89
491.346	10800.82
491.55	10700.47
491.754	10614.45
491.958	10393.27
492.161	10061.5
492.365	10051.26
492.569	9692.87
492.772	9600.71
492.976	9541.32
493.18	9428.68
493.383	9367.24
493.587	9377.48
493.79	9213.64
493.994	8775.38
494.197	9004.75
494.401	8799.95
494.605	8597.2
494.808	8566.48
495.012	8521.43
495.215	8521.43
495.419	8429.27
495.622	8273.62
495.825	8283.86
496.029	8206.04
496.232	8367.83
496.436	8056.54
496.639	8462.04
496.843	8220.38
497.046	8083.16
497.249	8226.52
497.453	8287.96
497.656	8160.98
497.859	8154.84
498.063	8083.16
498.266	8369.88
498.469	8023.77
498.673	8089.31
498.876	8296.15
499.079	8175.32
499.282	8222.42
499.485	8513.24
499.689	8568.53
499.892	8529.62
500.095	8339.16
500.298	8605.39
500.501	8468.18
500.705	8707.79
500.908	8750.8
501.111	8826.57
501.314	8879.82
501.517	8947.4
501.72	9017.04
501.923	8967.88
502.126	9088.71
502.329	9197.26
502.532	9459.4
502.735	9627.33
502.938	9625.28
503.141	9569.99
503.344	9764.54
503.547	10038.97
503.75	9912
503.953	10344.12
504.156	10102.46
504.359	10403.51
504.562	10360.5
504.765	10487.48
504.968	10892.98
505.17	11155.12
505.373	11173.55
505.576	11306.66
505.779	11677.35
505.982	11663.01
506.185	12023.45
506.387	11804.32
506.59	12406.42
506.793	12596.89
506.996	12803.73
507.198	13094.54
507.401	13209.23
507.604	13375.11
507.807	13969.02
508.009	13737.6
508.212	14304.89
508.415	14517.88
508.617	14630.52
508.82	15033.97
509.022	15183.47
509.225	15851.11
509.428	16346.72
509.63	16373.34
509.833	16701.01
510.035	17329.74
510.238	17583.69
510.44	17870.4
510.643	18341.44
510.845	18568.76
511.048	19068.47
511.25	19328.56
511.453	19486.25
511.655	20616.73
511.858	20741.66
512.06	21513.74
512.262	21517.84
512.465	21755.4
512.667	22339.07
512.87	23064.05
513.072	23766.51
513.274	24219.11
513.477	24653.28
513.679	25347.54
513.881	25912.78
514.084	26365.38
514.286	27012.54
514.488	27360.69
514.69	28374.44
514.893	28749.21
515.095	29306.26
515.297	30027.15
515.499	30559.62
515.701	31044.99
515.904	32087.4
516.106	32697.7
516.308	33199.45
516.51	33744.21
516.712	33981.77
516.914	35194.17
517.116	35915.06
517.318	36068.65
517.52	37104.93
517.722	37389.59
517.925	38227.21
518.127	39636.22
518.329	39451.9
518.531	40000.75
518.733	41336.03
518.935	41612.51
519.136	42169.55
519.338	43168.96
519.54	43435.2
519.742	44289.2
519.944	44711.08
520.146	45638.81
520.348	46083.22
520.55	46310.55
520.752	46849.16
520.954	48018.55
521.155	47768.7
521.357	48942.19
521.559	49276.01
521.761	50289.75
521.963	50504.79
522.164	50715.73
522.366	51344.45
522.568	51571.78
522.77	52061.24
522.971	52606
523.173	52288.57
523.375	52720.69
523.576	52974.64
523.778	53015.6
523.98	53961.76
524.181	54350.87
524.383	54117.4
524.584	54742.03
524.786	54678.55
524.988	54334.49
525.189	54748.18
525.391	54752.27
525.592	54957.07
525.794	54895.63
525.995	54780.95
526.197	54375.45
526.398	54522.9
526.6	54832.14
526.801	54580.24
527.003	54473.75
527.204	54215.71
527.406	53961.76
527.607	53773.34
527.808	54178.84
528.01	52413.49
528.211	52997.16
528.412	53330.98
528.614	52737.07
528.815	52159.55
529.016	52087.87
529.218	50871.37
529.419	51295.3
529.62	50336.85
529.822	50256.98
530.023	49497.19
530.224	49394.79
530.425	48755.82
530.626	48055.42
530.828	47182.98
531.029	47983.74
531.23	47035.53
531.431	46240.92
531.632	45878.43
531.833	45421.73
532.035	44547.25
532.236	44422.32
532.437	44184.76
532.638	43064.52
532.839	42935.49
533.04	42747.08
533.241	41338.08
533.442	41700.57
533.643	40518.89
533.844	40273.13
534.045	39574.78
534.246	38919.43
534.447	38692.1
534.648	38143.25
534.849	37510.42
535.05	36691.24
535.251	36341.03
535.451	35941.68
535.652	36007.22
535.853	34932.03
536.054	34510.15
536.255	34473.29
536.456	33582.42
536.657	33379.67
536.857	32320.87
537.058	32294.25
537.259	32132.46
537.46	31612.27
537.66	31196.54
537.861	30733.7
538.062	29953.42
538.263	29578.64
538.463	29283.73
538.664	29261.21
538.865	28859.8
539.065	28612
539.266	27942.31
539.466	27717.04
539.667	27047.35
539.868	27321.78
540.068	26604.99
540.269	26338.76
540.469	26254.79
540.67	25970.12
540.87	25781.71
541.071	25120.21
541.271	24919.51
541.472	24550.88
541.672	24180.2
541.873	24092.13
542.073	23629.29
542.274	23541.23
542.474	23416.3
542.675	22906.36
542.875	22578.68
543.075	22521.34
543.276	22095.36
543.476	21853.7
543.676	21558.8
543.877	21435.92
544.077	21333.52
544.277	20858.39
544.478	20594.2
544.678	20373.02
544.878	20166.18
545.078	19916.33
545.279	19787.3
545.479	19758.63
545.679	19433
545.879	19115.57
546.079	18724.41
546.28	18308.67
546.48	18521.66
546.68	18339.39
546.88	18216.51
547.08	17956.42
547.28	17450.57
547.48	17305.17
547.68	17311.31
547.88	16760.41
548.081	16823.89
548.281	16594.52
548.481	16281.18
548.681	16019.04
548.881	15820.39
549.081	15484.52
549.28	15339.12
549.48	15287.92
549.68	15097.45
549.88	14763.64
550.08	14769.78
550.28	14399.1
550.48	14562.94
550.68	14149.25
550.88	14005.89
551.08	13508.23
551.279	13551.24
551.479	13205.13
551.679	13123.21
551.879	12766.87
552.079	12881.55
552.278	12660.37
552.478	12592.79
552.678	12140.19
552.878	12218.01
553.077	11863.71
553.277	11511.46
553.477	11605.67
553.676	11497.13
553.876	11126.44
554.076	10665.65
554.275	10630.84
554.475	10491.57
554.674	10514.1
554.874	10411.7
555.074	9924.29
555.273	9748.16
555.473	9875.13
555.672	9633.47
555.872	9551.56
556.071	9305.8
556.271	9334.47
556.47	9045.71
556.67	8709.84
556.869	8783.57
557.068	8480.47
557.268	8201.94
557.467	8214.23
557.667	8222.42
557.866	8042.2
558.065	7907.04
558.265	7728.86
558.464	7341.8
558.663	7538.4
558.863	7644.9
559.062	7399.14
559.261	6911.72
559.461	6999.79
559.66	6842.09
559.859	6840.04
560.058	6608.62
560.258	6477.55
560.457	6326
560.656	6616.82
560.855	6295.29
561.054	6340.34
561.253	6004.47
561.453	6082.3
561.652	5979.9
561.851	5945.08
562.05	5572.35
562.249	5562.11
562.448	5654.27
562.647	5467.91
562.846	5263.11
563.045	5259.01
563.244	5156.61
563.443	5267.2
563.642	5005.06
563.841	5066.5
564.04	4763.4
564.239	4966.15
564.438	4755.21
564.637	4652.81
564.836	4622.09
565.035	4511.5
565.234	4405.01
565.432	4415.25
565.631	4574.99
565.83	4212.5
566.029	4347.67
566.228	4212.5
566.427	4106.01
566.625	3917.59
566.824	3913.5
567.023	3979.03
567.222	3841.82
567.42	3925.79
567.619	3753.76
567.818	3802.91
568.016	3886.87
568.215	3657.5
568.414	3614.49
568.612	3626.78
568.811	3497.76
569.01	3596.06
569.208	3428.13
569.407	3432.22
569.605	3389.22
569.804	3362.59
570.002	3266.34
570.201	3077.93
570.4	3077.93
570.598	2998.06
570.797	2967.34
570.995	2842.41
571.193	2891.56
571.392	2928.42
571.59	2832.17
571.789	2932.52
571.987	2789.16
572.186	2522.93
572.384	2619.18
572.582	2645.8
572.781	2647.85
572.979	2424.62
573.177	2469.68
573.376	2400.05
573.574	2502.45
573.772	2428.72
573.971	2348.85
574.169	2287.41
574.367	2254.64
574.565	2311.99
574.763	2219.83
574.962	2264.88
575.16	2094.9
575.358	2035.51
575.556	2086.71
575.754	2039.61
575.952	1939.26
576.151	2023.22
576.349	2010.93
576.547	1867.58
576.745	1916.73
576.943	1849.15
577.141	1871.67
577.339	1687.36
577.537	1849.15
577.735	1787.71
577.933	1738.55
578.131	1582.91
578.329	1701.69
578.527	1638.2
578.725	1632.06
578.923	1548.09
579.121	1556.29
579.319	1437.5
579.516	1464.13
579.714	1621.82
579.912	1402.69
580.11	1404.74
580.308	1433.41
580.506	1374.02
580.704	1242.95
580.901	1392.45
581.099	1408.83
581.297	1318.72
581.495	1279.81
581.692	1181.51
581.89	1363.78
582.088	1304.39
582.285	1183.56
582.483	1187.65
582.681	1171.27
582.878	1263.43
583.076	1242.95
583.274	1140.55
583.471	1267.52
583.669	1097.54
583.866	1066.82
584.064	1040.2
584.262	929.61
584.459	937.8
584.657	976.71
584.854	1044.29
585.052	894.79
585.249	1032.01
585.447	1070.92
585.644	884.55
585.841	1054.53
586.039	989
586.236	962.37
586.434	993.09
586.631	888.65
586.828	958.28
587.026	968.52
587.223	790.35
587.42	862.02
587.618	874.31
587.815	872.26
588.012	843.59
588.21	806.73
588.407	810.82
588.604	890.7
588.801	673.61
588.999	773.96
589.196	812.87
589.393	677.71
589.59	735.05
589.787	741.19
589.984	743.24
590.182	741.19
590.379	694.09
590.576	716.62
590.773	704.33
590.97	698.19
591.167	737.1
591.364	714.57
591.561	659.28
591.758	814.92
591.955	741.19
592.152	769.87
592.349	747.34
592.546	649.04
592.743	644.94
592.94	698.19
593.137	739.15
593.334	735.05
593.531	761.67
593.727	749.39
593.924	835.4
594.121	694.09
594.318	644.94
594.515	716.62
594.712	812.87
594.908	884.55
595.105	681.8
595.302	812.87
595.499	833.35
595.696	849.74
595.892	829.26
596.089	798.54
596.286	839.5
596.482	1027.91
596.679	884.55
596.876	882.5
597.072	921.42
597.269	911.18
597.466	995.14
597.662	1032.01
597.859	935.75
598.055	1015.62
598.252	1109.83
598.448	1173.32
598.645	1150.79
598.841	1230.66
599.038	1355.58
599.234	1378.11
599.431	1369.92
599.627	1400.64
599.824	1531.71
600.02	1523.52
600.217	1531.71
600.413	1646.4
600.609	1711.93
600.806	1855.29
601.002	1879.86
601.198	1908.54
601.395	1949.5
601.591	2037.56
601.787	2035.51
601.984	2166.58
602.18	2236.21
602.376	2271.03
602.572	2336.56
602.769	2520.88
602.965	2453.3
603.161	2559.79
603.357	2697
603.553	2983.72
603.75	2830.12
603.946	2856.75
604.142	3176.23
604.338	3286.82
604.534	3217.19
604.73	3524.38
604.926	3428.13
605.122	3669.79
605.318	3747.61
605.514	3952.41
605.71	3921.69
605.906	4124.44
606.102	4210.45
606.298	4349.71
606.494	4501.26
606.69	4706.06
606.886	4792.08
607.082	4863.76
607.278	5029.64
607.474	5213.96
607.67	5453.57
607.866	5342.98
608.062	5859.07
608.257	5854.97
608.453	5824.25
608.649	6160.12
608.845	6014.71
609.041	6328.05
609.236	6590.19
609.432	6805.23
609.628	6987.5
609.824	7239.4
610.019	7243.49
610.215	7450.34
610.411	7722.72
610.606	7784.16
610.802	8025.82
610.998	8189.66
611.193	8560.34
611.389	8599.25
611.584	9154.25
611.78	9002.7
611.976	9455.3
612.171	9952.96
612.367	10149.56
612.562	10131.13
612.758	10360.5
612.953	10401.46
613.149	10946.22
613.344	11194.03
613.539	11677.35
613.735	11902.62
613.93	12209.82
614.126	12318.36
614.321	13158.03
614.517	13309.58
614.712	13614.73
614.907	13645.45
615.103	14214.78
615.298	14614.13
615.493	14945.91
615.688	15087.22
615.884	15945.31
616.079	15857.25
616.274	16688.73
616.47	16936.53
616.665	17139.28
616.86	17337.93
617.055	18087.49
617.25	18296.38
617.445	19213.87
617.641	19451.44
617.836	20385.31
618.031	20008.48
618.226	21020.18
618.421	21573.13
618.616	22238.72
618.811	22472.19
619.006	23369.2
619.201	23100.92
619.396	24120.81
619.591	24172
619.786	25210.32
619.981	25120.21
620.176	26090.95
620.371	26187.21
620.566	27243.96
620.761	27923.88
620.956	28564.9
621.151	28868
621.346	29412.76
621.541	29429.14
621.735	30504.32
621.93	30588.29
622.125	31516.02
622.32	31589.75
622.515	32785.76
622.709	33068.38
622.904	34098.51
623.099	34813.25
623.294	35145.02
623.488	35439.93
623.683	36099.37
623.878	36042.03
624.072	37145.89
624.267	37750.04
624.462	38313.23
624.656	38741.25
624.851	39433.47
625.046	39613.69
625.24	40189.17
625.435	40533.23
625.629	41272.54
625.824	41805.02
626.018	42585.29
626.213	41931.99
626.407	43250.88
626.602	43001.03
626.796	44225.71
626.991	44582.06
627.185	44555.44
627.38	44672.17
627.574	45319.33
627.768	44788.91
627.963	45354.15
628.157	45309.09
628.352	46042.26
628.546	45227.17
628.74	45939.86
628.935	44954.79
629.129	45855.9
629.323	44512.43
629.517	45036.71
629.712	44524.72
629.906	44326.06
630.1	43320.51
630.294	43465.92
630.489	42482.89
630.683	42581.2
630.877	41092.32
631.071	40318.19
631.265	39994.61
631.459	39204.1
631.653	38090
631.848	37180.7
632.042	35956.02
632.236	35700.02
632.43	34276.68
632.624	33729.87
632.818	32462.18
633.012	31442.29
633.206	30264.71
633.4	29748.62
633.594	27833.77
633.788	27372.98
633.982	26674.62
634.176	25695.69
634.369	24169.96
634.563	23524.85
634.757	22373.89
634.951	21952.01
635.145	21153.3
635.339	19998.24
635.533	19252.78
635.726	18636.34
635.92	17430.09
636.114	17071.7
636.308	16195.17
636.501	15783.52
636.695	15335.02
636.889	14175.87
637.083	13850.24
637.276	13272.71
637.47	12715.67
637.664	12207.77
637.857	11636.39
638.051	11337.38
638.244	10841.78
638.438	10473.14
638.632	10225.34
638.825	9498.31
639.019	9215.69
639.212	8910.54
639.406	8373.97
639.599	8169.18
639.793	7837.41
639.986	7429.86
640.18	7317.22
640.373	7065.32
640.567	6784.75
640.76	6438.64
640.954	6278.9
641.147	5836.54
641.34	5771.01
641.534	5488.39
641.727	5261.06
641.92	5066.5
642.114	4869.9
642.307	4792.08
642.5	4482.83
642.694	4267.8
642.887	4210.45
643.08	4194.07
643.273	4024.09
643.467	3604.25
643.66	3555.1
643.853	3381.03
644.046	3209
644.239	3133.22
644.432	2936.62
644.626	2840.36
644.819	2885.42
645.012	2797.35
645.205	2639.66
645.398	2610.99
645.591	2565.93
645.784	2166.58
645.977	2168.63
646.17	2191.16
646.363	2129.72
646.556	1941.3
646.749	1894.2
646.942	1886.01
647.135	1820.47
647.328	1773.37
647.521	1742.65
647.714	1478.46
647.907	1529.66
648.099	1400.64
648.292	1441.6
648.485	1451.84
648.678	1296.19
648.871	1249.09
649.064	1261.38
649.256	1085.25
649.449	1048.39
649.642	1019.72
649.835	976.71
650.027	970.57
650.22	1054.53
650.413	913.22
650.605	956.23
650.798	905.03
650.991	864.07
651.183	845.64
651.376	841.54
651.568	790.35
651.761	687.95
651.954	771.91
652.146	657.23
652.339	702.28
652.531	671.56
652.724	579.4
652.916	651.08
653.109	438.09
653.301	610.12
653.494	667.47
653.686	595.79
653.879	665.42
654.071	567.12
654.263	513.87
654.456	423.76
654.648	520.01
654.84	517.97
655.033	477.01
655.225	569.16
655.417	378.7
655.61	569.16
655.802	493.39
655.994	548.68
656.186	347.98
656.379	425.81
656.571	274.26
656.763	298.83
656.955	362.32
657.148	382.8
657.34	403.28
657.532	286.54
657.724	321.36
657.916	399.18
658.108	450.38
658.3	341.84
658.492	313.17
658.684	302.93
658.876	223.06
659.068	298.83
659.26	255.83
659.452	237.39
659.644	266.07
659.836	362.32
660.028	231.25
660.22	159.57
660.412	218.96
660.604	259.92
660.796	251.73
660.988	323.41
661.18	161.62
661.372	255.83
661.563	204.63
661.755	214.87
661.947	243.54
662.139	212.82
662.331	212.82
662.522	202.58
662.714	124.76
662.906	120.66
663.097	200.53
663.289	149.33
663.481	98.13
663.673	294.74
663.864	130.9
664.056	137.04
664.247	114.52
664.439	304.98
664.631	202.58
664.822	120.66
665.014	128.85
665.205	141.14
665.397	153.43
665.588	161.62
665.78	163.67
665.971	235.35
666.163	171.86
666.354	200.53
666.546	63.32
666.737	104.28
666.929	190.29
667.12	55.12
667.311	190.29
667.503	139.09
667.694	137.04
667.885	91.99
668.077	157.52
668.268	81.75
668.459	118.61
668.651	178
668.842	180.05
669.033	61.27
669.224	71.51
669.416	296.78
669.607	40.79
669.798	114.52
669.989	163.67
670.18	104.28
670.371	135
670.563	8.02
670.754	210.77
670.945	208.72
671.136	173.91
671.327	69.46
671.518	153.43
671.709	237.39
671.9	106.32
672.091	171.86
672.282	94.04
672.473	163.67
672.664	137.04
672.855	118.61
673.046	192.34
673.237	155.47
673.428	118.61
673.619	210.77
673.809	175.95
674	210.77
674.191	159.57
674.382	89.94
674.573	44.88
674.764	122.71
674.954	204.63
675.145	114.52
675.336	34.64
675.527	155.47
675.717	143.19
675.908	61.27
676.099	100.18
676.289	122.71
676.48	65.36
676.671	137.04
676.861	59.22
677.052	237.39
677.243	145.24
677.433	87.89
677.624	204.63
677.814	122.71
678.005	48.98
678.195	257.87
678.386	26.45
678.576	94.04
678.767	57.17
678.957	163.67
679.148	124.76
679.338	245.59
679.529	186.19
679.719	87.89
679.909	241.49
680.1	141.14
680.29	231.25
680.481	55.12
680.671	231.25
680.861	112.47
681.052	180.05
681.242	120.66
681.432	208.72
681.622	108.37
681.813	73.56
682.003	89.94
682.193	102.23
682.383	124.76
682.573	194.39
682.764	132.95
682.954	104.28
683.144	167.76
683.334	151.38
683.524	135
683.714	157.52
683.904	184.15
684.094	200.53
684.284	132.95
684.474	200.53
684.664	200.53
684.854	163.67
685.044	165.71
685.234	87.89
685.424	116.56
685.614	98.13
685.804	352.08
685.994	165.71
686.184	223.06
686.374	202.58
686.564	171.86
686.753	130.9
686.943	71.51
687.133	91.99
687.323	108.37
687.513	182.1
687.702	210.77
687.892	94.04
688.082	253.78
688.272	194.39
688.461	184.15
688.651	286.54
688.841	212.82
689.03	186.19
689.22	151.38
689.41	163.67
689.599	255.83
689.789	196.43
689.979	257.87
690.168	143.19
690.358	268.11
690.547	259.92
690.737	171.86
690.926	239.44
691.116	165.71
691.305	241.49
691.495	223.06
691.684	102.23
691.874	165.71
692.063	178
692.252	249.68
692.442	251.73
692.631	169.81
692.82	153.43
693.01	196.43
693.199	100.18
693.388	241.49
693.578	206.67
693.767	253.78
693.956	128.85
694.146	143.19
694.335	178
694.524	137.04
694.713	298.83
694.902	180.05
695.092	87.89
695.281	132.95
695.47	143.19
695.659	104.28
695.848	186.19
696.037	108.37
696.226	200.53
696.415	173.91
696.604	266.07
696.793	157.52
696.982	124.76
697.171	307.02
697.36	61.27
697.549	163.67
697.738	36.69
697.927	120.66
698.116	155.47
698.305	147.28
698.494	198.48
698.683	120.66
698.872	315.22
699.061	120.66
699.25	126.8
699.438	200.53
699.627	132.95
699.816	329.55
700.005	128.85
700.193	116.56
700.382	243.54
700.571	210.77
700.76	204.63
700.948	225.11
701.137	196.43
701.326	231.25
701.514	96.08
701.703	216.91
701.892	180.05
702.08	350.03
702.269	130.9
702.457	61.27
702.646	192.34
702.834	98.13
703.023	139.09
703.212	192.34
703.4	216.91
703.589	206.67
703.777	155.47
703.965	118.61
704.154	122.71
704.342	51.03
704.531	180.05
704.719	171.86
704.907	173.91
705.096	163.67
705.284	12.12
705.472	194.39
705.661	188.24
705.849	251.73
706.037	284.5
706.226	192.34
706.414	249.68
706.602	104.28
706.79	186.19
706.979	96.08
707.167	116.56
707.355	89.94
707.543	204.63
707.731	227.15
707.919	85.84
708.107	102.23
708.296	96.08
708.484	42.84
708.672	253.78
708.86	231.25
709.048	227.15
709.236	151.38
709.424	192.34
709.612	180.05
709.8	48.98
709.988	241.49
710.176	182.1
710.364	300.88
710.551	94.04
710.739	182.1
710.927	132.95
711.115	141.14
711.303	143.19
711.491	204.63
711.679	132.95
711.866	141.14
712.054	204.63
712.242	167.76
712.43	251.73
712.617	184.15
712.805	261.97
712.993	135
713.181	51.03
713.368	208.72
713.556	196.43
713.744	175.95
713.931	337.74
714.119	167.76
714.306	165.71
714.494	137.04
714.682	214.87
714.869	106.32
715.057	139.09
715.244	120.66
715.432	245.59
715.619	79.7
715.807	167.76
715.994	51.03
716.182	149.33
716.369	239.44
716.556	243.54
716.744	24.4
716.931	77.65
717.119	227.15
717.306	165.71
717.493	261.97
717.681	124.76
717.868	149.33
718.055	165.71
718.242	151.38
718.43	145.24
718.617	251.73
718.804	126.8
718.991	227.15
719.179	192.34
719.366	259.92
719.553	155.47
719.74	186.19
719.927	188.24
720.114	141.14
720.301	102.23
720.488	145.24
720.676	104.28
720.863	331.6
721.05	333.65
721.237	216.91
721.424	182.1
721.611	231.25
721.798	42.84
721.985	114.52
722.172	208.72
722.358	182.1
722.545	221.01
722.732	190.29
722.919	251.73
723.106	159.57
723.293	165.71
723.48	223.06
723.667	139.09
723.853	190.29
724.04	231.25
724.227	264.02
724.414	190.29
724.6	241.49
724.787	247.63
724.974	253.78
725.161	204.63
725.347	153.43
725.534	261.97
725.72	233.3
725.907	261.97
726.094	243.54
726.28	118.61
726.467	266.07
726.653	135
726.84	221.01
727.027	345.94
727.213	122.71
727.4	231.25
727.586	178
727.773	229.2
727.959	237.39
728.145	155.47
728.332	173.91
728.518	130.9
728.705	272.21
728.891	118.61
729.077	229.2
729.264	175.95
729.45	178
729.636	214.87
729.823	210.77
730.009	255.83
730.195	257.87
730.382	218.96
730.568	110.42
730.754	180.05
730.94	171.86
731.126	171.86
731.313	309.07
731.499	200.53
731.685	274.26
731.871	272.21
732.057	208.72
732.243	186.19
732.429	261.97
732.615	284.5
732.801	259.92
732.987	186.19
733.173	165.71
733.359	165.71
733.545	194.39
733.731	149.33
733.917	302.93
734.103	227.15
734.289	302.93
734.475	182.1
734.661	290.64
734.847	261.97
735.033	184.15
735.219	272.21
735.404	194.39
735.59	208.72
735.776	192.34
735.962	235.35
736.148	190.29
736.333	300.88
736.519	243.54
736.705	290.64
736.89	264.02
737.076	253.78
737.262	182.1
737.447	221.01
737.633	212.82
737.819	337.74
738.004	208.72
738.19	216.91
738.375	290.64
738.561	284.5
738.747	237.39
738.932	135
739.118	300.88
739.303	251.73
739.489	276.31
739.674	169.81
739.859	112.47
740.045	214.87
740.23	204.63
740.416	165.71
740.601	184.15
740.786	173.91
740.972	198.48
741.157	112.47
741.342	137.04
741.528	98.13
741.713	288.59
741.898	210.77
742.084	167.76
742.269	130.9
742.454	270.16
742.639	384.85
742.824	255.83
743.01	327.5
743.195	421.71
743.38	200.53
743.565	212.82
743.75	247.63
743.935	212.82
744.12	292.69
744.305	157.52
744.49	163.67
744.675	225.11
744.86	151.38
745.045	243.54
745.23	251.73
745.415	120.66
745.6	366.42
745.785	202.58
745.97	309.07
746.155	302.93
746.34	221.01
746.525	212.82
746.71	313.17
746.895	157.52
747.079	141.14
747.264	114.52
747.449	257.87
747.634	235.35
747.819	264.02
748.003	194.39
748.188	139.09
748.373	284.5
748.557	270.16
748.742	192.34
748.927	173.91
749.111	143.19
749.296	165.71
749.481	255.83
749.665	225.11
749.85	143.19
750.034	186.19
750.219	210.77
750.404	198.48
750.588	143.19
750.773	126.8
750.957	165.71
751.141	137.04
751.326	235.35
751.51	132.95
751.695	145.24
751.879	218.96
752.064	309.07
752.248	165.71
752.432	288.59
752.617	216.91
752.801	278.35
752.985	159.57
753.17	278.35
753.354	147.28
753.538	190.29
753.722	145.24
753.907	114.52
754.091	53.08
754.275	202.58
754.459	149.33
754.643	94.04
754.828	292.69
755.012	169.81
755.196	55.12
755.38	139.09
755.564	130.9
755.748	61.27
755.932	210.77
756.116	210.77
756.3	167.76
756.484	32.6
756.668	186.19
756.852	-18.6
757.036	120.66
757.22	147.28
757.404	85.84
757.588	114.52
757.772	198.48
757.956	141.14
758.14	192.34
758.323	53.08
758.507	161.62
758.691	132.95
758.875	237.39
759.059	249.68
759.242	42.84
759.426	153.43
759.61	87.89
759.794	22.36
759.977	245.59
760.161	239.44
760.345	223.06
760.528	216.91
760.712	173.91
760.895	175.95
761.079	110.42
761.263	28.5
761.446	85.84
761.63	100.18
761.813	186.19
761.997	10.07
762.18	102.23
762.364	132.95
762.547	94.04
762.731	67.41
762.914	126.8
763.098	77.65
763.281	108.37
763.464	116.56
763.648	102.23
763.831	57.17
764.015	71.51
764.198	190.29
764.381	122.71
764.564	132.95
764.748	79.7
764.931	210.77
765.114	-16.55
765.297	190.29
765.481	98.13
765.664	94.04
765.847	67.41
766.03	231.25
766.213	38.74
766.397	198.48
766.58	-71.85
766.763	143.19
766.946	114.52
767.129	38.74
767.312	40.79
767.495	57.17
767.678	-30.89
767.861	77.65
768.044	59.22
768.227	73.56
768.41	12.12
768.593	53.08
768.776	100.18
768.959	42.84
769.142	229.2
769.324	147.28
769.507	75.6
769.69	10.07
769.873	98.13
770.056	229.2
770.239	67.41
770.421	180.05
770.604	143.19
770.787	79.7
770.97	59.22
771.152	14.17
771.335	94.04
771.518	5.97
771.7	135
771.883	161.62
772.066	-8.36
772.248	135
772.431	155.47
772.613	100.18
772.796	44.88
772.978	132.95
773.161	188.24
773.343	63.32
773.526	48.98
773.708	-67.75
773.891	8.02
774.073	-2.22
774.256	112.47
774.438	225.11
774.621	28.5
774.803	102.23
774.985	22.36
775.168	91.99
775.35	61.27
775.532	91.99
775.715	-14.51
775.897	34.64
776.079	75.6
776.261	71.51
776.444	38.74
776.626	40.79
776.808	65.36
776.99	-8.36
777.173	53.08
777.355	20.31
777.537	44.88
777.719	106.32
777.901	22.36
778.083	51.03
778.265	-57.51
778.447	100.18
778.629	-12.46
778.811	18.26
778.993	118.61
779.175	147.28
779.357	81.75
779.539	-37.03
779.721	34.64
779.903	73.56
780.085	65.36
780.267	65.36
780.449	10.07
780.631	91.99
780.812	98.13
780.994	20.31
781.176	-32.94
781.358	-39.08
781.54	135
781.721	143.19
781.903	132.95
782.085	28.5
782.267	143.19
782.448	-30.89
782.63	-30.89
782.812	98.13
782.993	44.88
783.175	87.89
783.357	61.27
783.538	102.23
783.72	-8.36
783.901	3.93
784.083	163.67
784.264	18.26
784.446	30.55
784.627	-37.03
784.809	81.75
784.99	-69.8
785.172	26.45
785.353	5.97
785.535	46.93
785.716	-34.99
785.897	42.84
786.079	42.84
786.26	38.74
786.441	59.22
786.623	-125.1
786.804	-6.31
786.985	59.22
787.167	12.12
787.348	79.7
787.529	106.32
787.71	200.53
787.891	85.84
788.073	-30.89
788.254	8.02
788.435	130.9
788.616	59.22
788.797	3.93
788.978	46.93
789.159	-57.51
789.34	12.12
789.522	1.88
789.703	-94.38
789.884	59.22
790.065	40.79
790.246	120.66
790.427	-71.85
790.607	110.42
790.788	106.32
790.969	-49.32
791.15	5.97
791.331	24.4
791.512	-4.27
791.693	-37.03
791.874	65.36
792.054	212.82
792.235	124.76
792.416	-92.33
792.597	-22.7
792.778	77.65
792.958	24.4
793.139	40.79
793.32	42.84
793.5	-30.89
793.681	145.24
793.862	145.24
794.042	-8.36
794.223	-16.55
794.404	-47.27
794.584	-24.75
794.765	20.31
794.945	-26.79
795.126	24.4
795.306	120.66
795.487	24.4
795.667	-22.7
795.848	5.97
796.028	87.89
796.209	-18.6
796.389	40.79
796.57	-12.46
796.75	-37.03
796.93	-8.36
797.111	-10.41
797.291	77.65
797.471	106.32
797.652	40.79
797.832	-28.84
798.012	85.84
798.192	-59.56
798.373	-10.41
798.553	22.36
798.733	55.12
798.913	-41.13
799.093	-61.61
799.274	26.45
799.454	59.22
799.634	61.27
799.814	28.5
799.994	94.04
800.174	3.93
800.354	55.12
800.534	-86.19
800.714	46.93
800.894	-121
801.074	-22.7
801.254	-26.79
801.434	-2.22
801.614	-98.47
801.794	-69.8
801.974	2055.99
802.154	-8.36
802.334	178
802.514	-4.27
802.693	12.12
802.873	-51.37
803.053	132.95
803.233	-0.17
803.413	1.88
803.592	-53.42
803.772	-10.41
803.952	-30.89
804.131	-112.81
804.311	96.08
804.491	46.93
804.67	-32.94
804.85	-90.28
805.03	53.08
805.209	100.18
805.389	-4.27
805.568	-80.04
805.748	65.36
805.928	-34.99
806.107	89.94
806.287	65.36
806.466	22.36
806.646	75.6
806.825	-61.61
807.004	-12.46
807.184	81.75
807.363	79.7
807.543	3.93
807.722	-10.41
807.901	1.88
808.081	42.84
808.26	-188.58
808.439	-12.46
808.619	-4.27
808.798	-2.22
808.977	-12.46
809.156	42.84
809.336	-61.61
809.515	40.79
809.694	-53.42
809.873	22.36
810.052	20.31
810.231	104.28
810.411	48.98
810.59	128.85
810.769	-22.7
810.948	85.84
811.127	-114.86
811.306	-65.71
811.485	-71.85
811.664	149.33
811.843	16.21
812.022	3.93
812.201	-65.71
812.38	44.88
812.559	-18.6
812.737	22.36
812.916	-71.85
813.095	-22.7
813.274	-2.22
813.453	59.22
813.632	98.13
813.811	67.41
813.989	-90.28
814.168	22.36
814.347	-37.03
814.526	-30.89
814.704	149.33
814.883	116.56
815.062	-100.52
815.24	75.6
815.419	-100.52
815.598	75.6
815.776	-108.71
815.955	16.21
816.133	-129.19
816.312	26.45
816.49	-12.46
816.669	12.12
816.847	-51.37
817.026	32.6
817.204	-37.03
817.383	20.31
817.561	-71.85
817.74	12.12
817.918	20.31
818.097	-28.84
818.275	-47.27
818.453	34.64
818.632	38.74
818.81	-14.51
818.988	-26.79
819.167	-4.27
819.345	-39.08
819.523	-22.7
819.701	10.07
819.879	8.02
820.058	8.02
820.236	-71.85
820.414	51.03
820.592	-63.66
820.77	-45.23
820.948	-112.81
821.127	-73.9
821.305	5.97
821.483	-0.17
821.661	28.5
821.839	46.93
822.017	-37.03
822.195	-51.37
822.373	87.89
822.551	-12.46
822.729	75.6
822.907	-49.32
823.085	87.89
823.262	20.31
823.44	-53.42
823.618	-18.6
823.796	18.26
823.974	-71.85
824.152	-59.56
824.329	26.45
824.507	-30.89
824.685	10.07
824.863	3.93
825.04	20.31
825.218	38.74
825.396	22.36
825.574	40.79
825.751	5.97
825.929	71.51
826.107	-6.31
826.284	-20.65
826.462	-6.31
826.639	-123.05
826.817	-47.27
826.994	-30.89
827.172	-135.34
827.349	106.32
827.527	42.84
827.704	-45.23
827.882	98.13
828.059	46.93
828.237	-55.47
828.414	55.12
828.591	-69.8
828.769	55.12
828.946	-39.08
829.124	63.32
829.301	81.75
829.478	-53.42
829.655	81.75
829.833	-10.41
830.01	-39.08
830.187	79.7
830.364	-10.41
830.542	-24.75
830.719	89.94
830.896	53.08
831.073	30.55
831.25	36.69
831.427	106.32
831.604	-39.08
831.782	-106.67
831.959	14.17
832.136	-57.51
832.313	42.84
832.49	48.98
832.667	46.93
832.844	-53.42
833.021	110.42
833.198	-22.7
833.374	-41.13
833.551	-0.17
833.728	-14.51
833.905	79.7
834.082	-145.58
834.259	110.42
834.436	85.84
834.612	-114.86
834.789	61.27
834.966	-39.08
835.143	-22.7
835.319	-4.27
835.496	-16.55
835.673	36.69
835.85	145.24
836.026	-8.36
836.203	40.79
836.38	-57.51
836.556	-45.23
836.733	-14.51
836.909	130.9
837.086	-63.66
837.262	-37.03
837.439	-55.47
837.616	40.79
837.792	-57.51
837.968	46.93
838.145	-114.86
838.321	55.12
838.498	69.46
838.674	22.36
838.851	3.93
839.027	-28.84
839.203	34.64
839.38	71.51
839.556	-80.04
839.732	85.84
839.909	-0.17
840.085	-8.36
840.261	-69.8
840.437	28.5
840.614	32.6
840.79	71.51
840.966	1.88
841.142	73.56
841.318	-20.65
841.494	12.12
841.671	100.18
841.847	-104.62
842.023	-96.43
842.199	118.61
842.375	-2.22
842.551	-14.51
842.727	-6.31
842.903	139.09
843.079	-141.48
843.255	26.45
843.431	-41.13
843.607	-0.17
843.783	-194.73
843.959	16.21
844.134	-94.38
844.31	212.82
844.486	-61.61
844.662	-65.71
844.838	34.64
845.013	28.5
845.189	46.93
845.365	32.6
845.541	34.64
845.716	-4.27
845.892	75.6
846.068	-96.43
846.244	57.17
846.419	5.97
846.595	-73.9
846.77	-65.71
846.946	32.6
847.122	-53.42
847.297	-10.41
847.473	153.43
847.648	-86.19
847.824	-75.95
847.999	-102.57
848.175	-37.03
848.35	-8.36
848.526	151.38
848.701	3.93
848.876	34.64
849.052	116.56
849.227	-53.42
849.403	-73.9
849.578	14.17
849.753	63.32
849.929	98.13
850.104	-71.85
850.279	14.17
850.454	-77.99
850.63	10.07
850.805	36.69
850.98	-6.31
851.155	-41.13
851.33	-26.79
851.505	-77.99
851.681	116.56
851.856	-2.22
852.031	-24.75
852.206	-6.31
852.381	-98.47
852.556	-45.23
852.731	32.6
852.906	30.55
853.081	44.88
853.256	194.39
853.431	34.64
853.606	16.21
853.781	-47.27
853.956	-172.2
854.131	18.26
854.305	-75.95
854.48	-12.46
854.655	-57.51
854.83	-92.33
855.005	-45.23
855.18	34.64
855.354	-51.37
855.529	16.21
855.704	-26.79
855.879	118.61
856.053	-6.31
856.228	42.84
856.403	-49.32
856.577	46.93
856.752	-86.19
856.926	-16.55
857.101	38.74
857.276	-43.18
857.45	87.89
857.625	53.08
857.799	3.93
857.974	89.94
858.148	-73.9
858.323	-18.6
858.497	-30.89
858.672	-61.61
858.846	-39.08
859.02	42.84
859.195	-57.51
859.369	8.02
859.543	12.12
859.718	-14.51
859.892	12.12
860.066	-12.46
860.241	-51.37
860.415	-14.51
860.589	8.02
860.763	32.6
860.938	-12.46
861.112	12.12
861.286	-133.29
861.46	38.74
861.634	44.88
861.808	28.5
861.982	-24.75
862.157	-88.23
862.331	-26.79
862.505	-151.72
862.679	-98.47
862.853	-30.89
863.027	-63.66
863.201	61.27
863.375	-4.27
863.549	18.26
863.722	48.98
863.896	94.04
864.07	-8.36
864.244	42.84
864.418	83.8
864.592	38.74
864.766	-6.31
864.939	-47.27
865.113	-37.03
865.287	141.14
865.461	-108.71
865.634	79.7
865.808	-16.55
865.982	-18.6
866.156	-118.95
866.329	-65.71
866.503	26.45
866.676	30.55
866.85	14.17
867.024	-65.71
867.197	48.98
867.371	26.45
867.544	51.03
867.718	-55.47
867.891	55.12
868.065	-98.47
868.238	22.36
868.412	-53.42
868.585	-6.31
868.759	10.07
868.932	-84.14
869.105	-57.51
869.279	-37.03
869.452	-32.94
869.625	102.23
869.799	-61.61
869.972	-30.89
870.145	-47.27
870.319	-0.17
870.492	-14.51
870.665	-18.6
870.838	-37.03
871.011	-174.25
871.185	38.74
871.358	-10.41
871.531	77.65
871.704	-34.99
871.877	-8.36
872.05	-92.33
872.223	-69.8
872.396	63.32
872.569	87.89
872.742	-92.33
872.915	-43.18
873.088	26.45
873.261	-18.6
873.434	5.97
873.607	-10.41
873.78	55.12
873.953	-14.51
874.126	42.84
874.299	-32.94
874.471	-63.66
874.644	-75.95
874.817	102.23
874.99	124.76
875.163	-32.94
875.335	73.56
875.508	-26.79
875.681	116.56
875.853	-55.47
876.026	-80.04
876.199	44.88
876.371	59.22
876.544	-8.36
876.717	-16.55
876.889	-45.23
877.062	42.84
877.234	-71.85
877.407	-51.37
877.579	24.4
877.752	28.5
877.924	83.8
878.097	61.27
878.269	77.65
878.442	79.7
878.614	24.4
878.786	16.21
878.959	69.46
879.131	-47.27
879.303	-190.63
879.476	12.12
879.648	108.37
879.82	-26.79
879.993	-102.57
880.165	-0.17
880.337	-129.19
880.509	48.98
880.681	-84.14
880.854	-47.27
881.026	-8.36
881.198	120.66
881.37	-28.84
881.542	1.88
881.714	20.31
881.886	-37.03
882.058	61.27
882.23	28.5
882.402	-34.99
882.574	53.08
882.746	42.84
882.918	96.08
883.09	59.22
883.262	22.36
883.434	38.74
883.606	-123.05
883.778	1.88
883.95	53.08
884.122	-86.19
884.293	61.27
884.465	26.45
884.637	42.84
884.809	-26.79
884.98	-12.46
885.152	14.17
885.324	53.08
885.496	-102.57
885.667	-82.09
885.839	30.55
886.011	3.93
886.182	16.21
886.354	108.37
886.525	57.17
886.697	24.4
886.869	-47.27
887.04	44.88
887.212	102.23
887.383	100.18
887.555	12.12
887.726	-26.79
887.897	-61.61
888.069	12.12
888.24	59.22
888.412	-24.75
888.583	-2.22
888.754	71.51
888.926	-147.62
889.097	-55.47
889.268	-51.37
889.44	-59.56
889.611	-59.56
889.782	5.97
889.953	-34.99
890.125	75.6
890.296	-65.71
890.467	18.26
890.638	-67.75
890.809	-71.85
890.98	-65.71
891.151	-22.7
891.323	83.8
891.494	-14.51
891.665	32.6
891.836	24.4
892.007	-4.27
892.178	-4.27
892.349	-18.6
892.52	-61.61
892.691	-61.61
892.862	-110.76
893.032	-108.71
893.203	44.88
893.374	-32.94
893.545	139.09
893.716	-51.37
893.887	42.84
894.057	-55.47
894.228	-22.7
894.399	-53.42
894.57	102.23
894.74	12.12
894.911	-14.51
895.082	-63.66
895.253	-59.56
895.423	10.07
895.594	34.64
895.764	55.12
895.935	-24.75
896.106	51.03
896.276	-94.38
896.447	-8.36
896.617	-20.65
896.788	-92.33
896.958	-47.27
897.129	-47.27
897.299	51.03
897.47	120.66
897.64	110.42
897.81	-12.46
897.981	5.97
898.151	-151.72
898.322	5.97
898.492	-43.18
898.662	-88.23
898.832	14.17
899.003	-94.38
899.173	3.93
899.343	8.02
899.513	-67.75
