Data from USB4F104151__65__10-43-55-373.txt Node

Date: Wed Feb 26 10:43:55 EST 2025
User: louis
Spectrometer: USB4F10415
Trigger mode: 4
Integration Time (sec): 1.000000E-1
Scans to average: 1
Electric dark correction enabled: true
Nonlinearity correction enabled: false
Boxcar width: 0
XAxis mode: Wavelengths
Number of Pixels in Spectrum: 3648
>>>>>Begin Spectral Data<<<<<
178.204	-330.41
178.424	-330.41
178.644	-330.41
178.864	-350.89
179.084	-383.65
179.304	-41.64
179.524	38.23
179.744	-17.07
179.964	107.86
180.184	-15.02
180.404	-8.87
180.624	-10.92
180.844	-41.64
181.064	-8.87
181.283	23.89
181.503	-62.12
181.723	36.18
181.943	-94.89
182.163	163.15
182.383	-17.07
182.602	126.29
182.822	181.59
183.042	38.23
183.262	17.75
183.482	60.76
183.701	85.33
183.921	52.56
184.141	64.85
184.361	79.19
184.58	56.66
184.8	58.71
185.02	7.51
185.239	81.24
185.459	101.72
185.679	144.72
185.898	-103.08
186.118	83.28
186.338	56.66
186.557	126.29
186.777	-23.21
186.997	1.37
187.216	44.37
187.436	173.39
187.655	44.37
187.875	124.24
188.095	9.56
188.314	56.66
188.534	89.43
188.753	-35.5
188.973	73.04
189.192	191.83
189.412	66.9
189.631	64.85
189.851	181.59
190.07	157.01
190.29	50.52
190.509	40.28
190.729	30.04
190.948	185.68
191.168	220.5
191.387	54.61
191.607	95.57
191.826	105.81
192.045	46.42
192.265	71
192.484	-0.68
192.704	107.86
192.923	-58.03
193.142	154.96
193.362	93.52
193.581	87.38
193.8	118.1
194.02	118.1
194.239	89.43
194.458	128.34
194.678	7.51
194.897	89.43
195.116	54.61
195.335	95.57
195.555	71
195.774	-4.78
195.993	183.63
196.212	27.99
196.432	-17.07
196.651	21.85
196.87	23.89
197.089	234.83
197.308	114
197.528	111.96
197.747	-15.02
197.966	114
198.185	224.59
198.404	-45.74
198.623	120.15
198.842	157.01
199.062	60.76
199.281	191.83
199.5	-43.69
199.719	36.18
199.938	58.71
200.157	83.28
200.376	89.43
200.595	173.39
200.814	73.04
201.033	30.04
201.252	154.96
201.471	75.09
201.69	58.71
201.909	120.15
202.128	68.95
202.347	103.76
202.566	77.14
202.785	38.23
203.004	42.32
203.223	355.66
203.442	19.8
203.661	-21.16
203.879	83.28
204.098	111.96
204.317	9.56
204.536	111.96
204.755	105.81
204.974	134.48
205.193	64.85
205.411	148.82
205.63	150.87
205.849	38.23
206.068	-29.35
206.287	46.42
206.505	177.49
206.724	32.08
206.943	-10.92
207.162	99.67
207.381	75.09
207.599	30.04
207.818	25.94
208.037	34.13
208.255	42.32
208.474	48.47
208.693	71
208.911	34.13
209.13	185.68
209.349	122.2
209.567	101.72
209.786	66.9
210.005	173.39
210.223	60.76
210.442	-45.74
210.661	101.72
210.879	114
211.098	114
211.316	54.61
211.535	134.48
211.753	60.76
211.972	144.72
212.191	109.91
212.409	87.38
212.628	97.62
212.846	34.13
213.065	75.09
213.283	150.87
213.502	89.43
213.72	40.28
213.938	66.9
214.157	52.56
214.375	99.67
214.594	-15.02
214.812	128.34
215.031	25.94
215.249	103.76
215.467	15.7
215.686	75.09
215.904	54.61
216.122	56.66
216.341	173.39
216.559	89.43
216.778	93.52
216.996	101.72
217.214	-23.21
217.432	-35.5
217.651	36.18
217.869	140.63
218.087	54.61
218.306	25.94
218.524	68.95
218.742	5.46
218.96	159.06
219.179	34.13
219.397	62.8
219.615	238.93
219.833	142.68
220.051	-2.73
220.27	138.58
220.488	73.04
220.706	118.1
220.924	15.7
221.142	54.61
221.36	42.32
221.578	140.63
221.796	73.04
222.015	46.42
222.233	105.81
222.451	150.87
222.669	40.28
222.887	134.48
223.105	-76.46
223.323	27.99
223.541	-6.83
223.759	122.2
223.977	89.43
224.195	150.87
224.413	73.04
224.631	42.32
224.849	64.85
225.067	144.72
225.285	-62.12
225.503	40.28
225.721	-47.79
225.939	75.09
226.157	60.76
226.375	202.07
226.592	7.51
226.81	15.7
227.028	163.15
227.246	230.74
227.464	77.14
227.682	87.38
227.9	44.37
228.117	56.66
228.335	93.52
228.553	38.23
228.771	34.13
228.989	66.9
229.206	136.53
229.424	27.99
229.642	34.13
229.86	-27.31
230.077	136.53
230.295	140.63
230.513	128.34
230.731	105.81
230.948	134.48
231.166	183.63
231.384	66.9
231.601	48.47
231.819	169.3
232.037	11.61
232.254	-27.31
232.472	83.28
232.689	7.51
232.907	101.72
233.125	116.05
233.342	11.61
233.56	15.7
233.777	40.28
233.995	62.8
234.213	165.2
234.43	134.48
234.648	60.76
234.865	5.46
235.083	36.18
235.3	25.94
235.518	95.57
235.735	195.92
235.953	77.14
236.17	30.04
236.388	134.48
236.605	58.71
236.822	71
237.04	152.91
237.257	118.1
237.475	-2.73
237.692	13.65
237.909	34.13
238.127	3.41
238.344	66.9
238.562	7.51
238.779	7.51
238.996	13.65
239.214	25.94
239.431	97.62
239.648	50.52
239.865	95.57
240.083	56.66
240.3	54.61
240.517	40.28
240.735	15.7
240.952	99.67
241.169	62.8
241.386	109.91
241.603	17.75
241.821	40.28
242.038	105.81
242.255	163.15
242.472	-19.11
242.689	93.52
242.907	99.67
243.124	75.09
243.341	23.89
243.558	38.23
243.775	44.37
243.992	-35.5
244.209	132.44
244.426	218.45
244.643	122.2
244.86	25.94
245.078	85.33
245.295	81.24
245.512	19.8
245.729	9.56
245.946	103.76
246.163	95.57
246.38	44.37
246.597	87.38
246.814	11.61
247.031	56.66
247.248	-6.83
247.464	126.29
247.681	40.28
247.898	95.57
248.115	-15.02
248.332	-17.07
248.549	99.67
248.766	130.39
248.983	114
249.2	36.18
249.417	183.63
249.633	-70.31
249.85	152.91
250.067	62.8
250.284	87.38
250.501	128.34
250.717	85.33
250.934	-8.87
251.151	15.7
251.368	64.85
251.585	73.04
251.801	95.57
252.018	-72.36
252.235	144.72
252.451	1.37
252.668	38.23
252.885	134.48
253.102	32.08
253.318	-27.31
253.535	40.28
253.752	-19.11
253.968	23.89
254.185	11.61
254.401	54.61
254.618	87.38
254.835	15.7
255.051	161.11
255.268	107.86
255.484	81.24
255.701	114
255.917	48.47
256.134	-12.97
256.351	87.38
256.567	-12.97
256.784	40.28
257	-66.22
257.217	152.91
257.433	124.24
257.65	97.62
257.866	118.1
258.082	3.41
258.299	3.41
258.515	93.52
258.732	30.04
258.948	-92.84
259.165	30.04
259.381	-27.31
259.597	97.62
259.814	-10.92
260.03	34.13
260.246	-4.78
260.463	105.81
260.679	169.3
260.895	23.89
261.112	66.9
261.328	21.85
261.544	-41.64
261.761	130.39
261.977	23.89
262.193	17.75
262.409	109.91
262.626	5.46
262.842	126.29
263.058	83.28
263.274	181.59
263.49	144.72
263.707	114
263.923	136.53
264.139	-41.64
264.355	40.28
264.571	175.44
264.787	89.43
265.004	179.54
265.22	103.76
265.436	11.61
265.652	40.28
265.868	73.04
266.084	30.04
266.3	3.41
266.516	7.51
266.732	91.48
266.948	68.95
267.164	-12.97
267.38	89.43
267.596	85.33
267.812	206.16
268.028	81.24
268.244	13.65
268.46	34.13
268.676	95.57
268.892	111.96
269.108	-49.83
269.324	-0.68
269.54	-35.5
269.756	46.42
269.972	-23.21
270.188	27.99
270.403	-45.74
270.619	60.76
270.835	114
271.051	52.56
271.267	83.28
271.483	34.13
271.698	134.48
271.914	103.76
272.13	111.96
272.346	52.56
272.562	73.04
272.777	157.01
272.993	79.19
273.209	17.75
273.425	132.44
273.64	-129.7
273.856	130.39
274.072	25.94
274.287	-15.02
274.503	32.08
274.719	25.94
274.934	48.47
275.15	-37.55
275.366	60.76
275.581	60.76
275.797	83.28
276.012	44.37
276.228	-10.92
276.444	40.28
276.659	58.71
276.875	-37.55
277.09	9.56
277.306	-21.16
277.521	114
277.737	19.8
277.952	99.67
278.168	38.23
278.383	21.85
278.599	66.9
278.814	93.52
279.03	-39.59
279.245	152.91
279.461	81.24
279.676	75.09
279.892	-31.4
280.107	54.61
280.322	-82.6
280.538	118.1
280.753	-49.83
280.969	58.71
281.184	68.95
281.399	210.26
281.615	42.32
281.83	-2.73
282.045	-33.45
282.26	-41.64
282.476	132.44
282.691	148.82
282.906	148.82
283.122	1.37
283.337	-27.31
283.552	38.23
283.767	56.66
283.983	101.72
284.198	54.61
284.413	124.24
284.628	-35.5
284.843	-8.87
285.058	109.91
285.274	-6.83
285.489	44.37
285.704	89.43
285.919	25.94
286.134	27.99
286.349	46.42
286.564	-17.07
286.779	122.2
286.995	25.94
287.21	-33.45
287.425	120.15
287.64	56.66
287.855	97.62
288.07	-90.79
288.285	116.05
288.5	152.91
288.715	93.52
288.93	50.52
289.145	-0.68
289.36	130.39
289.575	46.42
289.79	109.91
290.004	-78.51
290.219	120.15
290.434	3.41
290.649	19.8
290.864	-8.87
291.079	50.52
291.294	64.85
291.509	138.58
291.724	81.24
291.938	58.71
292.153	-15.02
292.368	-37.55
292.583	56.66
292.798	105.81
293.012	126.29
293.227	9.56
293.442	62.8
293.657	64.85
293.871	165.2
294.086	122.2
294.301	161.11
294.516	83.28
294.73	81.24
294.945	-25.26
295.16	103.76
295.374	189.78
295.589	138.58
295.804	68.95
296.018	25.94
296.233	142.68
296.447	93.52
296.662	79.19
296.877	146.77
297.091	60.76
297.306	-53.93
297.52	42.32
297.735	48.47
297.949	73.04
298.164	103.76
298.378	116.05
298.593	-2.73
298.807	-68.27
299.022	138.58
299.236	210.26
299.451	44.37
299.665	71
299.88	64.85
300.094	62.8
300.309	27.99
300.523	5.46
300.737	58.71
300.952	154.96
301.166	64.85
301.381	5.46
301.595	30.04
301.809	81.24
302.024	-0.68
302.238	-41.64
302.452	189.78
302.667	87.38
302.881	159.06
303.095	138.58
303.309	99.67
303.524	44.37
303.738	27.99
303.952	-33.45
304.166	54.61
304.381	-94.89
304.595	79.19
304.809	-4.78
305.023	109.91
305.237	17.75
305.452	66.9
305.666	81.24
305.88	44.37
306.094	122.2
306.308	91.48
306.522	116.05
306.736	75.09
306.95	116.05
307.164	114
307.379	36.18
307.593	128.34
307.807	89.43
308.021	101.72
308.235	95.57
308.449	7.51
308.663	64.85
308.877	232.79
309.091	-21.16
309.305	150.87
309.519	-19.11
309.733	79.19
309.947	-76.46
310.161	50.52
310.374	146.77
310.588	181.59
310.802	19.8
311.016	103.76
311.23	62.8
311.444	19.8
311.658	95.57
311.872	128.34
312.085	142.68
312.299	120.15
312.513	87.38
312.727	68.95
312.941	36.18
313.154	134.48
313.368	50.52
313.582	140.63
313.796	101.72
314.009	11.61
314.223	148.82
314.437	38.23
314.651	85.33
314.864	-19.11
315.078	56.66
315.292	-21.16
315.505	-0.68
315.719	32.08
315.933	62.8
316.146	128.34
316.36	36.18
316.573	183.63
316.787	83.28
317.001	50.52
317.214	3.41
317.428	66.9
317.641	3.41
317.855	-12.97
318.068	-21.16
318.282	93.52
318.495	163.15
318.709	99.67
318.922	87.38
319.136	173.39
319.349	118.1
319.563	36.18
319.776	116.05
319.99	-31.4
320.203	107.86
320.417	23.89
320.63	52.56
320.843	202.07
321.057	85.33
321.27	40.28
321.483	89.43
321.697	152.91
321.91	75.09
322.124	77.14
322.337	142.68
322.55	13.65
322.763	134.48
322.977	13.65
323.19	32.08
323.403	89.43
323.617	128.34
323.83	181.59
324.043	-23.21
324.256	109.91
324.469	3.41
324.683	101.72
324.896	75.09
325.109	23.89
325.322	-35.5
325.535	197.97
325.748	148.82
325.962	34.13
326.175	83.28
326.388	36.18
326.601	89.43
326.814	25.94
327.027	54.61
327.24	150.87
327.453	-19.11
327.666	73.04
327.879	206.16
328.092	130.39
328.305	118.1
328.518	1.37
328.731	85.33
328.944	-45.74
329.157	136.53
329.37	34.13
329.583	173.39
329.796	171.35
330.009	-8.87
330.222	48.47
330.435	167.25
330.648	66.9
330.861	118.1
331.073	52.56
331.286	236.88
331.499	87.38
331.712	3.41
331.925	44.37
332.138	34.13
332.35	87.38
332.563	9.56
332.776	40.28
332.989	42.32
333.202	52.56
333.414	-27.31
333.627	38.23
333.84	32.08
334.053	169.3
334.265	-15.02
334.478	44.37
334.691	91.48
334.903	71
335.116	-8.87
335.329	30.04
335.541	93.52
335.754	177.49
335.966	-19.11
336.179	34.13
336.392	54.61
336.604	52.56
336.817	128.34
337.029	64.85
337.242	-15.02
337.454	148.82
337.667	111.96
337.88	103.76
338.092	138.58
338.305	105.81
338.517	21.85
338.729	75.09
338.942	163.15
339.154	64.85
339.367	19.8
339.579	134.48
339.792	17.75
340.004	101.72
340.217	-17.07
340.429	81.24
340.641	-39.59
340.854	-8.87
341.066	50.52
341.278	161.11
341.491	163.15
341.703	75.09
341.915	-31.4
342.128	150.87
342.34	116.05
342.552	93.52
342.764	60.76
342.977	17.75
343.189	103.76
343.401	107.86
343.613	-10.92
343.826	5.46
344.038	-43.69
344.25	66.9
344.462	38.23
344.674	111.96
344.886	75.09
345.099	81.24
345.311	48.47
345.523	19.8
345.735	-88.75
345.947	93.52
346.159	56.66
346.371	99.67
346.583	40.28
346.795	220.5
347.007	103.76
347.219	87.38
347.431	52.56
347.643	247.12
347.855	40.28
348.067	181.59
348.279	-49.83
348.491	19.8
348.703	111.96
348.915	40.28
349.127	-33.45
349.339	62.8
349.551	3.41
349.763	114
349.975	116.05
350.187	138.58
350.399	148.82
350.61	99.67
350.822	17.75
351.034	21.85
351.246	77.14
351.458	34.13
351.669	75.09
351.881	25.94
352.093	124.24
352.305	177.49
352.517	97.62
352.728	97.62
352.94	66.9
353.152	97.62
353.363	40.28
353.575	107.86
353.787	189.78
353.999	75.09
354.21	144.72
354.422	1.37
354.633	44.37
354.845	44.37
355.057	97.62
355.268	66.9
355.48	44.37
355.692	-21.16
355.903	11.61
356.115	9.56
356.326	13.65
356.538	152.91
356.749	75.09
356.961	218.45
357.172	42.32
357.384	-31.4
357.595	204.11
357.807	85.33
358.018	42.32
358.23	60.76
358.441	157.01
358.653	97.62
358.864	13.65
359.075	21.85
359.287	71
359.498	138.58
359.709	114
359.921	23.89
360.132	93.52
360.344	46.42
360.555	-19.11
360.766	44.37
360.977	-35.5
361.189	120.15
361.4	54.61
361.611	64.85
361.823	134.48
362.034	30.04
362.245	-64.17
362.456	118.1
362.667	140.63
362.879	-21.16
363.09	111.96
363.301	30.04
363.512	11.61
363.723	21.85
363.935	83.28
364.146	109.91
364.357	46.42
364.568	79.19
364.779	-25.26
364.99	152.91
365.201	62.8
365.412	81.24
365.623	-80.55
365.834	124.24
366.045	25.94
366.256	81.24
366.467	64.85
366.678	138.58
366.889	27.99
367.1	54.61
367.311	77.14
367.522	44.37
367.733	101.72
367.944	95.57
368.155	85.33
368.366	130.39
368.577	103.76
368.788	126.29
368.999	40.28
369.209	-39.59
369.42	146.77
369.631	290.13
369.842	62.8
370.053	58.71
370.264	95.57
370.474	25.94
370.685	157.01
370.896	83.28
371.107	161.11
371.317	87.38
371.528	11.61
371.739	120.15
371.95	118.1
372.16	99.67
372.371	-43.69
372.582	11.61
372.792	128.34
373.003	120.15
373.214	204.11
373.424	177.49
373.635	36.18
373.846	154.96
374.056	58.71
374.267	32.08
374.477	138.58
374.688	-27.31
374.898	-23.21
375.109	91.48
375.319	73.04
375.53	122.2
375.74	154.96
375.951	-12.97
376.161	105.81
376.372	114
376.582	17.75
376.793	114
377.003	30.04
377.214	-35.5
377.424	111.96
377.635	-33.45
377.845	-17.07
378.055	189.78
378.266	-25.26
378.476	34.13
378.686	142.68
378.897	146.77
379.107	134.48
379.317	23.89
379.528	34.13
379.738	56.66
379.948	-21.16
380.158	95.57
380.369	114
380.579	75.09
380.789	15.7
380.999	-2.73
381.21	97.62
381.42	245.07
381.63	77.14
381.84	128.34
382.05	95.57
382.261	152.91
382.471	124.24
382.681	5.46
382.891	179.54
383.101	95.57
383.311	-49.83
383.521	15.7
383.731	159.06
383.941	52.56
384.151	118.1
384.361	83.28
384.571	114
384.781	165.2
384.991	236.88
385.201	202.07
385.411	142.68
385.621	50.52
385.831	79.19
386.041	48.47
386.251	77.14
386.461	144.72
386.671	44.37
386.881	34.13
387.091	79.19
387.301	89.43
387.511	-23.21
387.72	138.58
387.93	81.24
388.14	-37.55
388.35	44.37
388.56	234.83
388.769	222.55
388.979	126.29
389.189	44.37
389.399	13.65
389.609	107.86
389.818	89.43
390.028	101.72
390.238	103.76
390.447	73.04
390.657	36.18
390.867	64.85
391.076	-19.11
391.286	93.52
391.496	68.95
391.705	101.72
391.915	150.87
392.125	103.76
392.334	46.42
392.544	206.16
392.753	89.43
392.963	17.75
393.172	87.38
393.382	1.37
393.591	251.22
393.801	-41.64
394.01	148.82
394.22	77.14
394.429	75.09
394.639	91.48
394.848	58.71
395.058	75.09
395.267	62.8
395.477	116.05
395.686	48.47
395.895	230.74
396.105	222.55
396.314	83.28
396.524	54.61
396.733	1.37
396.942	89.43
397.152	185.68
397.361	161.11
397.57	93.52
397.78	109.91
397.989	9.56
398.198	189.78
398.407	52.56
398.617	75.09
398.826	73.04
399.035	48.47
399.244	101.72
399.453	-2.73
399.663	97.62
399.872	25.94
400.081	-53.93
400.29	140.63
400.499	-6.83
400.708	140.63
400.917	48.47
401.127	54.61
401.336	36.18
401.545	169.3
401.754	154.96
401.963	116.05
402.172	56.66
402.381	-74.41
402.59	-19.11
402.799	48.47
403.008	146.77
403.217	73.04
403.426	44.37
403.635	-27.31
403.844	77.14
404.053	68.95
404.262	9.56
404.471	177.49
404.68	60.76
404.888	-6.83
405.097	103.76
405.306	99.67
405.515	157.01
405.724	40.28
405.933	114
406.142	30.04
406.35	128.34
406.559	40.28
406.768	44.37
406.977	118.1
407.185	132.44
407.394	79.19
407.603	-0.68
407.812	21.85
408.02	101.72
408.229	95.57
408.438	44.37
408.646	-58.03
408.855	52.56
409.064	89.43
409.272	99.67
409.481	103.76
409.69	-33.45
409.898	25.94
410.107	118.1
410.315	159.06
410.524	50.52
410.733	77.14
410.941	89.43
411.15	163.15
411.358	77.14
411.567	159.06
411.775	130.39
411.984	91.48
412.192	167.25
412.401	-35.5
412.609	134.48
412.818	93.52
413.026	105.81
413.234	66.9
413.443	11.61
413.651	40.28
413.86	89.43
414.068	79.19
414.276	152.91
414.485	11.61
414.693	138.58
414.901	154.96
415.11	79.19
415.318	71
415.526	-8.87
415.734	150.87
415.943	40.28
416.151	111.96
416.359	21.85
416.567	83.28
416.776	73.04
416.984	120.15
417.192	249.17
417.4	7.51
417.608	40.28
417.817	-29.35
418.025	91.48
418.233	75.09
418.441	44.37
418.649	7.51
418.857	93.52
419.065	109.91
419.273	1.37
419.481	97.62
419.689	73.04
419.897	50.52
420.105	-25.26
420.313	32.08
420.521	179.54
420.729	140.63
420.937	1.37
421.145	3.41
421.353	83.28
421.561	208.21
421.769	46.42
421.977	107.86
422.185	120.15
422.393	165.2
422.601	93.52
422.809	101.72
423.017	75.09
423.224	23.89
423.432	130.39
423.64	122.2
423.848	144.72
424.056	50.52
424.263	144.72
424.471	50.52
424.679	118.1
424.887	21.85
425.094	122.2
425.302	165.2
425.51	81.24
425.718	191.83
425.925	81.24
426.133	-21.16
426.341	255.31
426.548	124.24
426.756	101.72
426.964	120.15
427.171	36.18
427.379	140.63
427.586	36.18
427.794	154.96
428.001	210.26
428.209	54.61
428.417	189.78
428.624	173.39
428.832	165.2
429.039	40.28
429.247	120.15
429.454	187.73
429.662	146.77
429.869	157.01
430.076	105.81
430.284	146.77
430.491	222.55
430.699	146.77
430.906	163.15
431.114	191.83
431.321	189.78
431.528	212.31
431.736	214.35
431.943	101.72
432.15	179.54
432.358	220.5
432.565	329.04
432.772	93.52
432.979	202.07
433.187	161.11
433.394	249.17
433.601	46.42
433.808	226.64
434.016	243.03
434.223	290.13
434.43	279.89
434.637	273.75
434.844	210.26
435.052	314.7
435.259	271.7
435.466	269.65
435.673	222.55
435.88	296.27
436.087	296.27
436.294	380.24
436.501	324.94
436.708	265.55
436.915	232.79
437.122	380.24
437.329	263.51
437.537	324.94
437.743	347.47
437.95	451.92
438.157	410.96
438.364	402.77
438.571	429.39
438.778	435.53
438.985	408.91
439.192	494.93
439.399	456.01
439.606	519.5
439.813	521.55
440.02	558.41
440.227	666.96
440.433	615.76
440.64	482.64
440.847	499.02
441.054	585.04
441.261	750.92
441.467	656.72
441.674	601.42
441.881	748.87
442.088	621.9
442.294	771.4
442.501	757.07
442.708	750.92
442.914	759.11
443.121	798.03
443.328	886.09
443.534	888.14
443.741	927.05
443.948	845.13
444.154	990.53
444.361	1129.8
444.568	1056.07
444.774	1043.78
444.981	965.96
445.187	1181
445.394	1082.69
445.6	1068.36
445.807	1254.72
446.013	1244.48
446.22	1142.08
446.426	1443.14
446.633	1441.09
446.839	1561.92
447.046	1289.54
447.252	1699.13
447.459	1635.64
447.665	1555.77
447.871	1766.71
448.078	1858.87
448.284	1891.64
448.491	1948.98
448.697	2014.52
448.903	2094.39
449.11	2084.15
449.316	2022.71
449.522	2338.1
449.728	2389.3
449.935	2395.44
450.141	2426.16
450.347	2544.94
450.553	2602.29
450.76	2536.75
450.966	2759.98
451.172	2870.57
451.378	3081.51
451.584	2907.43
451.791	3314.98
451.997	3454.24
452.203	3523.87
452.409	3618.08
452.615	3786.01
452.821	3691.8
453.027	3755.29
453.233	4205.85
453.44	4048.15
453.646	4222.23
453.852	4525.33
454.058	4615.44
454.264	4748.56
454.47	5035.27
454.676	5035.27
454.882	5438.72
455.088	5307.65
455.294	5627.14
455.5	6149.37
455.705	6214.9
455.911	6386.93
456.117	6384.88
456.323	6690.03
456.529	6726.89
456.735	7408.87
456.941	7486.69
457.147	7771.36
457.352	7920.86
457.558	8410.33
457.764	8762.58
457.97	9077.96
458.176	9319.62
458.381	9778.37
458.587	9958.59
458.793	10400.95
458.999	10507.44
459.204	11797.67
459.41	12301.47
459.616	11918.5
459.821	12461.21
460.027	13237.39
460.233	13821.06
460.438	13651.08
460.644	14423.16
460.85	14640.25
461.055	15176.81
461.261	16094.3
461.466	15856.74
461.672	16282.72
461.878	17982.53
462.083	17822.79
462.289	18189.38
462.494	18494.52
462.7	19078.19
462.905	19237.94
463.111	20878.36
463.316	21787.66
463.522	22254.59
463.727	22707.19
463.932	23792.62
464.138	24675.29
464.343	25408.47
464.549	25629.65
464.754	27368.37
464.959	28253.09
465.165	28879.77
465.37	28541.86
465.575	28611.49
465.781	30569.35
465.986	31689.59
466.191	30729.09
466.397	31300.47
466.602	30421.89
466.807	32451.43
467.012	32344.94
467.218	33325.91
467.423	33647.44
467.628	34089.81
467.833	36256.56
468.038	35447.61
468.244	34540.36
468.449	36299.56
468.654	35795.76
468.859	35605.3
469.064	35939.12
469.269	34841.41
469.474	35171.13
469.679	36158.25
469.885	34982.72
470.09	35943.22
470.295	36049.71
470.5	35486.52
470.705	35574.58
470.91	34233.16
471.115	34030.41
471.32	34571.08
471.525	34798.4
471.73	33264.47
471.935	33059.68
472.139	32217.96
472.344	31878
472.549	31834.99
472.754	31290.23
472.959	30946.17
473.164	29692.82
473.369	29191.06
473.574	30258.06
473.778	29414.29
473.983	29117.34
474.188	28541.86
474.393	26895.29
474.598	26991.55
474.802	26262.47
475.007	25861.07
475.212	25832.4
475.417	24728.54
475.621	24349.67
475.826	24433.63
476.031	23591.92
476.235	23270.39
476.44	23258.1
476.645	22651.9
476.849	22463.49
477.054	21984.26
477.259	21361.68
477.463	21349.39
477.668	20956.18
477.872	20943.89
478.077	20644.89
478.282	19561.51
478.486	19672.11
478.691	19516.46
478.895	19313.71
479.1	19102.77
479.304	19106.87
479.509	18285.63
479.713	18404.41
479.918	17871.94
480.122	17781.83
480.326	17728.58
480.531	17919.04
480.735	17699.91
480.94	17333.32
481.144	17978.43
481.348	17134.67
481.553	17210.45
481.757	16600.15
481.961	16829.52
482.166	17060.94
482.37	16436.31
482.574	15926.37
482.778	16284.76
482.983	16626.78
483.187	16424.03
483.391	16217.18
483.595	15789.16
483.8	15543.4
484.004	15938.66
484.208	15711.33
484.412	15375.47
484.616	15285.36
484.821	15148.14
485.025	14541.94
485.229	14857.33
485.433	14439.55
485.637	14439.55
485.841	13911.17
486.045	14029.95
486.249	13806.72
486.453	13423.75
486.657	13419.66
486.861	13190.28
487.065	12575.89
487.269	12768.4
487.473	12367
487.677	12391.58
487.881	12610.71
488.085	12057.76
488.289	12014.75
488.493	11472.04
488.697	11629.73
488.901	11343.02
489.105	11117.74
489.309	10878.13
489.512	10867.89
489.716	10538.16
489.92	10417.33
490.124	10161.34
490.328	10214.59
490.531	9827.52
490.735	9751.74
490.939	9637.06
491.143	9356.49
491.346	9141.45
491.55	9327.82
491.754	8916.17
491.958	8928.46
492.161	8662.23
492.365	8578.26
492.569	8398.04
492.772	8365.27
492.976	8301.78
493.18	8035.55
493.383	8056.03
493.587	7980.25
493.79	8029.4
493.994	7679.2
494.197	7558.37
494.401	7834.85
494.605	7501.03
494.808	7603.43
495.012	7435.49
495.215	7535.84
495.419	7429.35
495.622	7251.17
495.825	7415.01
496.029	7075.05
496.232	7390.44
496.436	7185.64
496.639	7269.61
496.843	7181.54
497.046	7044.33
497.249	7279.85
497.453	7410.92
497.656	7236.84
497.859	7019.75
498.063	7218.41
498.266	7181.54
498.469	7087.34
498.673	7181.54
498.876	7394.53
499.079	7376.1
499.282	7103.72
499.485	7697.63
499.689	7353.57
499.892	7527.65
500.095	7517.41
500.298	7681.25
500.501	7513.31
500.705	7722.21
500.908	7859.42
501.111	7881.95
501.314	8109.27
501.517	8096.99
501.72	7994.59
501.923	8135.9
502.126	8043.74
502.329	8219.86
502.532	8299.73
502.735	8451.28
502.938	8572.11
503.141	8606.93
503.344	8756.43
503.547	9116.87
503.75	9057.48
503.953	9118.92
504.156	9336.01
504.359	9344.2
504.562	9321.67
504.765	9598.15
504.968	9792.7
505.17	10091.71
505.373	10009.79
505.576	10398.9
505.779	10386.61
505.982	10568.88
506.185	10798.26
506.387	10939.57
506.59	11330.73
506.793	11410.6
506.996	11525.29
507.198	11902.11
507.401	12051.61
507.604	12184.73
507.807	12516.5
508.009	12735.64
508.212	12973.2
508.415	13112.46
508.617	13438.09
508.82	13945.98
509.022	13872.26
509.225	14503.03
509.428	14445.69
509.63	14910.58
509.833	14988.4
510.035	15854.69
510.238	15897.7
510.44	15977.57
510.643	16548.95
510.845	17056.85
511.048	16970.83
511.25	17570.89
511.453	17912.9
511.655	18936.88
511.858	18822.2
512.06	19342.38
512.262	19590.19
512.465	20028.45
512.667	20722.71
512.87	21072.92
513.072	21398.54
513.274	22287.36
513.477	22236.16
513.679	22850.55
513.881	23362.54
514.084	23884.78
514.286	24636.38
514.488	24914.91
514.69	25762.76
514.893	26325.96
515.095	26637.25
515.297	27282.36
515.499	27665.33
515.701	28326.82
515.904	29315.99
516.106	29723.54
516.308	30196.62
516.51	30915.45
516.712	30753.66
516.914	31896.43
517.116	32582.5
517.318	32985.95
517.52	33604.44
517.722	34267.98
517.925	35203.9
518.127	35826.48
518.329	36592.42
518.531	36385.58
518.733	37477.15
518.935	37894.93
519.136	38589.19
519.338	39041.79
519.54	39879.41
519.742	40213.23
519.944	40923.88
520.146	41882.33
520.348	42132.18
520.55	42441.42
520.752	42689.23
520.954	43922.1
521.155	43848.38
521.357	44702.38
521.559	45134.5
521.761	46350.99
521.963	46011.03
522.164	46697.1
522.366	46662.29
522.568	47463.04
522.77	47291.01
522.971	48267.89
523.173	48222.84
523.375	48657.01
523.576	48523.89
523.778	48886.38
523.98	49500.77
524.181	49922.65
524.383	49533.54
524.584	50240.09
524.786	50463.32
524.988	49807.97
525.189	50672.21
525.391	50643.54
525.592	50664.02
525.794	51003.98
525.995	50383.44
526.197	50254.42
526.398	50424.4
526.6	50362.96
526.801	50276.95
527.003	50229.85
527.204	50422.36
527.406	50287.19
527.607	49418.85
527.808	49435.24
528.01	48392.82
528.211	49111.66
528.412	49140.33
528.614	48894.57
528.815	48362.1
529.016	48628.34
529.218	47463.04
529.419	47549.06
529.62	46785.16
529.822	46408.34
530.023	46135.96
530.224	45578.91
530.425	45367.97
530.626	44442.29
530.828	44522.16
531.029	44405.42
531.23	42984.13
531.431	43008.71
531.632	42654.41
531.833	42345.17
532.035	41476.83
532.236	41392.86
532.437	40686.31
532.638	40264.43
532.839	39760.63
533.04	39408.38
533.241	38277.9
533.442	38798.09
533.643	37595.93
533.844	37049.12
534.045	36799.27
534.246	36311.85
534.447	35693.36
534.648	35724.08
534.849	34677.57
535.05	34054.99
535.251	33915.73
535.451	33475.41
535.652	32930.65
535.853	32822.11
536.054	32273.26
536.255	32183.15
536.456	31114.11
536.657	31316.86
536.857	30647.17
537.058	29965.2
537.259	30256.01
537.46	29516.69
537.66	28986.27
537.861	28791.71
538.062	28033.96
538.263	28005.29
538.463	27683.76
538.664	27091.9
538.865	26710.97
539.065	26811.32
539.266	26108.87
539.466	26080.2
539.667	25699.28
539.868	25617.36
540.068	25377.75
540.269	24843.23
540.469	24626.14
540.67	24026.09
540.87	23815.15
541.071	23579.63
541.271	23405.55
541.472	23323.63
541.672	22735.87
541.873	22512.64
542.073	22262.79
542.274	22133.76
542.474	21535.76
542.675	21584.91
542.875	21527.56
543.075	21281.81
543.276	20986.9
543.476	20739.1
543.676	20364.32
543.877	20180
544.077	19993.64
544.277	19684.39
544.478	19483.69
544.678	19282.99
544.878	18971.7
545.078	18818.1
545.279	18447.42
545.479	18066.5
545.679	18449.47
545.879	18078.79
546.079	17953.86
546.28	17343.56
546.48	17249.36
546.68	17310.8
546.88	17122.38
547.08	16858.2
547.28	16712.79
547.48	16200.8
547.68	16295
547.88	15844.45
548.081	15866.98
548.281	15561.83
548.481	15232.11
548.681	15060.08
548.881	15043.7
549.081	14814.32
549.28	14623.86
549.48	14427.26
549.68	14204.03
549.88	14367.87
550.08	13753.48
550.28	13915.26
550.48	13638.79
550.68	13362.31
550.88	13104.27
551.08	12948.62
551.279	13024.4
551.479	12610.71
551.679	12545.17
551.879	12016.8
552.079	11943.07
552.278	11959.45
552.478	11725.99
552.678	11586.72
552.878	11410.6
553.077	11142.32
553.277	11044.01
553.477	10951.85
553.676	10558.64
553.876	10732.72
554.076	10206.39
554.275	9915.58
554.475	9901.25
554.674	9927.87
554.874	9800.9
555.074	9514.18
555.273	9678.02
555.473	9379.01
555.672	8994
555.872	8905.93
556.071	8930.51
556.271	8961.23
556.47	8537.3
556.67	8430.8
556.869	8289.49
557.068	8025.31
557.268	8037.59
557.467	7914.72
557.667	7791.84
557.866	7691.49
558.065	7552.23
558.265	7367.91
558.464	7132.39
558.663	7159.02
558.863	7073
559.062	7144.68
559.261	6663.41
559.461	6862.06
559.66	6479.09
559.859	6536.43
560.058	6491.38
560.258	6262.01
560.457	6178.04
560.656	6196.47
560.855	5793.02
561.054	5885.18
561.253	5756.16
561.453	5745.92
561.652	5580.03
561.851	5682.43
562.05	5496.07
562.249	5248.26
562.448	5434.63
562.647	5164.29
562.846	5262.6
563.045	5264.64
563.244	5022.98
563.443	5006.6
563.642	4822.28
563.841	4764.94
564.04	4678.93
564.239	4607.25
564.438	4578.58
564.637	4523.28
564.836	4455.7
565.035	4250.9
565.234	4330.77
565.432	4322.58
565.631	4332.82
565.83	4164.89
566.029	4203.8
566.228	4093.21
566.427	4205.85
566.625	3767.58
566.824	3951.9
567.023	3712.28
567.222	3769.63
567.42	3673.37
567.619	3689.76
567.818	3564.83
568.016	3734.81
568.215	3618.08
568.414	3548.45
568.612	3499.3
568.811	3253.54
569.01	3372.32
569.208	3286.31
569.407	3296.55
569.605	3134.76
569.804	3265.83
570.002	3147.05
570.201	3112.23
570.4	2874.67
570.598	3015.98
570.797	2870.57
570.995	2800.94
571.193	2940.2
571.392	2884.91
571.59	2653.48
571.789	2784.55
571.987	2721.07
572.186	2751.79
572.384	2528.56
572.582	2585.9
572.781	2524.46
572.979	2317.62
573.177	2483.5
573.376	2403.63
573.574	2344.24
573.772	2315.57
573.971	2297.14
574.169	2164.02
574.367	2018.61
574.565	2127.16
574.763	2174.26
574.962	2057.53
575.16	2075.96
575.358	1996.09
575.556	2092.34
575.754	1994.04
575.952	1957.18
576.151	1989.94
576.349	1985.85
576.547	1844.54
576.745	1865.02
576.943	1803.58
577.141	1776.95
577.339	1717.56
577.537	1690.94
577.735	1805.63
577.933	1727.8
578.131	1574.21
578.329	1774.91
578.527	1463.62
578.725	1516.86
578.923	1389.89
579.121	1527.1
579.319	1398.08
579.516	1563.97
579.714	1619.26
579.912	1518.91
580.11	1371.46
580.308	1400.13
580.506	1414.46
580.704	1312.07
580.901	1181
581.099	1453.38
581.297	1248.58
581.495	1260.87
581.692	1086.79
581.89	1406.27
582.088	1140.04
582.285	1162.56
582.483	1164.61
582.681	1181
582.878	1154.37
583.076	1187.14
583.274	1193.28
583.471	1150.28
583.669	1035.59
583.866	1002.82
584.064	1008.97
584.262	1031.49
584.459	998.73
584.657	1041.73
584.854	1074.5
585.052	972.1
585.249	1002.82
585.447	996.68
585.644	785.74
585.841	1056.07
586.039	943.43
586.236	1056.07
586.434	955.72
586.631	826.7
586.828	838.98
587.026	843.08
587.223	691.53
587.42	761.16
587.618	892.23
587.815	902.47
588.012	910.66
588.21	761.16
588.407	828.74
588.604	822.6
588.801	775.5
588.999	744.78
589.196	845.13
589.393	689.48
589.59	824.65
589.787	703.82
589.984	763.21
590.182	761.16
590.379	697.67
590.576	634.19
590.773	757.07
590.97	707.91
591.167	707.91
591.364	718.15
591.561	664.91
591.758	748.87
591.955	695.63
592.152	681.29
592.349	716.11
592.546	662.86
592.743	630.09
592.94	615.76
593.137	666.96
593.334	722.25
593.531	621.9
593.727	779.59
593.924	759.11
594.121	759.11
594.318	742.73
594.515	771.4
594.712	875.85
594.908	798.03
595.105	679.24
595.302	746.83
595.499	712.01
595.696	877.9
595.892	671.05
596.089	886.09
596.286	613.71
596.482	873.8
596.679	912.71
596.876	793.93
597.072	961.86
597.269	812.36
597.466	910.66
597.662	820.55
597.859	761.16
598.055	947.53
598.252	1097.03
598.448	1115.46
598.645	1088.84
598.841	1119.56
599.038	1127.75
599.234	1326.4
599.431	1314.11
599.627	1318.21
599.824	1324.35
600.02	1402.18
600.217	1312.07
600.413	1449.28
600.609	1535.29
600.806	1793.34
601.002	1625.4
601.198	1539.39
601.395	1862.97
601.591	1832.25
601.787	1908.02
601.984	1899.83
602.18	1985.85
602.376	1987.89
602.572	2202.93
602.769	2268.47
602.965	2319.67
603.161	2401.58
603.357	2362.67
603.553	2583.85
603.75	2553.13
603.946	2710.83
604.142	2747.69
604.338	3011.88
604.534	2917.67
604.73	3067.17
604.926	3167.52
605.122	3308.83
605.318	3296.55
605.514	3587.36
605.71	3487.01
605.906	3757.34
606.102	3796.25
606.298	4080.92
606.494	4015.38
606.69	4230.42
606.886	4373.78
607.082	4236.56
607.278	4556.05
607.474	4623.63
607.67	4756.75
607.866	4902.15
608.062	5172.49
608.257	5217.54
608.453	5205.25
608.649	5479.68
608.845	5414.15
609.041	5627.14
609.236	6030.59
609.432	5950.71
609.628	6241.53
609.824	6348.02
610.019	6583.54
610.215	6913.26
610.411	7003.37
610.606	7126.25
610.802	7269.61
610.998	7451.88
611.193	7695.58
611.389	7707.87
611.584	8203.48
611.78	8213.72
611.976	8545.49
612.171	8879.31
612.367	8991.95
612.562	9143.5
612.758	9422.02
612.953	9616.58
613.149	9866.43
613.344	10056.89
613.539	10468.53
613.735	10491.06
613.93	10839.22
614.126	10933.42
614.321	11558.05
614.517	11818.15
614.712	11857.06
614.907	12471.45
615.103	12764.31
615.298	13171.85
615.493	13345.93
615.688	13683.84
615.884	14328.95
616.079	14257.28
616.274	14922.87
616.47	15166.57
616.665	15441
616.86	15899.75
617.055	16321.63
617.25	16518.23
617.445	17243.21
617.641	17577.03
617.836	18164.8
618.031	18256.96
618.226	18840.63
618.421	19481.64
618.616	19868.71
618.811	20161.57
619.006	20761.62
619.201	20804.63
619.396	21388.3
619.591	21693.45
619.786	22285.31
619.981	22744.06
620.176	23649.26
620.371	23692.27
620.566	24445.92
620.761	25207.76
620.956	25641.93
621.151	25748.43
621.346	26612.67
621.541	26864.57
621.735	27444.15
621.93	27716.53
622.125	28509.09
622.32	28603.3
622.515	29672.34
622.709	29914
622.904	30546.82
623.099	31015.8
623.294	31533.94
623.488	31634.29
623.683	32510.82
623.878	32602.98
624.072	33698.64
624.267	33936.21
624.462	34720.58
624.656	34999.1
624.851	35728.18
625.046	36004.66
625.24	36617
625.435	36848.42
625.629	37405.47
625.824	37843.73
626.018	38540.04
626.213	38419.21
626.407	39672.57
626.602	39619.32
626.796	40336.11
626.991	40725.22
627.185	40856.29
627.38	41112.29
627.574	41435.87
627.768	41530.08
627.963	42046.16
628.157	41591.51
628.352	42658.51
628.546	41589.47
628.74	42658.51
628.935	41968.34
629.129	42443.47
629.323	41675.48
629.517	42027.73
629.712	41542.36
629.906	41382.62
630.1	40860.39
630.294	40796.9
630.489	39996.15
630.683	39910.13
630.877	38927.11
631.071	38183.69
631.265	37843.73
631.459	37462.81
631.653	36387.63
631.848	35644.21
632.042	34784.07
632.236	33956.69
632.43	32754.53
632.624	32099.18
632.818	31404.92
633.012	30167.94
633.206	29623.19
633.4	28785.57
633.594	26942.39
633.788	27009.98
633.982	25736.14
634.176	24996.82
634.369	23798.76
634.563	23100.4
634.757	22240.26
634.951	21685.26
635.145	20741.14
635.339	20016.16
635.533	18652.22
635.726	18463.8
635.92	17445.96
636.114	16622.68
636.308	16219.23
636.501	15752.29
636.695	15019.12
636.889	14316.67
637.083	13638.79
637.276	13313.16
637.47	12471.45
637.664	12194.97
637.857	11564.2
638.051	11168.94
638.244	10847.41
638.438	10239.16
638.632	9997.5
638.825	9444.55
639.019	9211.08
639.212	8608.98
639.406	8488.15
639.599	8008.92
639.793	7814.37
639.986	7355.62
640.18	7249.13
640.373	6831.34
640.567	6462.71
640.76	6499.57
640.954	6175.99
641.147	5807.36
641.34	5532.93
641.534	5575.94
641.727	5254.41
641.92	5207.3
642.114	4955.4
642.307	4623.63
642.5	4560.14
642.694	4271.38
642.887	4168.98
643.08	4181.27
643.273	4019.48
643.467	3712.28
643.66	3448.1
643.853	3429.66
644.046	3312.93
644.239	3267.88
644.432	2972.97
644.626	2903.34
644.819	2876.71
645.012	2798.89
645.205	2848.04
645.398	2628.91
645.591	2440.5
645.784	2237.75
645.977	2110.77
646.17	2180.4
646.363	2090.29
646.556	1971.51
646.749	1889.59
646.942	1897.78
647.135	1865.02
647.328	1733.95
647.521	1656.12
647.714	1619.26
647.907	1496.38
648.099	1371.46
648.292	1594.68
648.485	1467.71
648.678	1369.41
648.871	1264.96
649.064	1295.68
649.256	1156.42
649.449	1193.28
649.642	1105.22
649.835	1074.5
650.027	965.96
650.22	1045.83
650.413	963.91
650.605	1099.08
650.798	904.52
650.991	939.33
651.183	898.38
651.376	814.41
651.568	757.07
651.761	759.11
651.954	820.55
652.146	650.57
652.339	820.55
652.531	804.17
652.724	636.24
652.916	677.19
653.109	472.4
653.301	728.39
653.494	697.67
653.686	574.8
653.879	642.38
654.071	628.04
654.263	535.89
654.456	464.21
654.648	617.8
654.84	472.4
655.033	478.54
655.225	511.31
655.417	331.09
655.61	566.6
655.802	443.73
655.994	490.83
656.186	255.31
656.379	437.58
656.571	439.63
656.763	406.86
656.955	275.79
657.148	292.18
657.34	570.7
657.532	306.51
657.724	376.14
657.916	384.34
658.108	427.34
658.3	396.62
658.492	306.51
658.684	255.31
658.876	400.72
659.068	261.46
659.26	269.65
659.452	265.55
659.644	269.65
659.836	427.34
660.028	283.98
660.22	204.11
660.412	279.89
660.604	300.37
660.796	247.12
660.988	333.14
661.18	177.49
661.372	345.42
661.563	191.83
661.755	269.65
661.947	152.91
662.139	214.35
662.331	224.59
662.522	214.35
662.714	97.62
662.906	105.81
663.097	212.31
663.289	253.27
663.481	103.76
663.673	148.82
663.864	173.39
664.056	304.46
664.247	152.91
664.439	265.55
664.631	214.35
664.822	232.79
665.014	200.02
665.205	91.48
665.397	79.19
665.588	200.02
665.78	101.72
665.971	202.07
666.163	62.8
666.354	204.11
666.546	27.99
666.737	136.53
666.929	173.39
667.12	132.44
667.311	134.48
667.503	177.49
667.694	148.82
667.885	152.91
668.077	236.88
668.268	54.61
668.459	124.24
668.651	148.82
668.842	187.73
669.033	95.57
669.224	240.98
669.416	353.62
669.607	56.66
669.798	109.91
669.989	267.6
670.18	93.52
670.371	230.74
670.563	46.42
670.754	236.88
670.945	224.59
671.136	136.53
671.327	101.72
671.518	185.68
671.709	191.83
671.9	177.49
672.091	251.22
672.282	171.35
672.473	197.97
672.664	99.67
672.855	138.58
673.046	163.15
673.237	197.97
673.428	128.34
673.619	214.35
673.809	140.63
674	232.79
674.191	232.79
674.382	142.68
674.573	146.77
674.764	204.11
674.954	218.45
675.145	99.67
675.336	50.52
675.527	83.28
675.717	185.68
675.908	122.2
676.099	95.57
676.289	118.1
676.48	83.28
676.671	122.2
676.861	87.38
677.052	144.72
677.243	154.96
677.433	146.77
677.624	216.4
677.814	247.12
678.005	60.76
678.195	197.97
678.386	75.09
678.576	150.87
678.767	79.19
678.957	163.15
679.148	169.3
679.338	324.94
679.529	197.97
679.719	114
679.909	228.69
680.1	306.51
680.29	218.45
680.481	95.57
680.671	253.27
680.861	220.5
681.052	181.59
681.242	169.3
681.432	191.83
681.622	208.21
681.813	124.24
682.003	232.79
682.193	124.24
682.383	189.78
682.573	144.72
682.764	173.39
682.954	200.02
683.144	308.56
683.334	165.2
683.524	212.31
683.714	283.98
683.904	261.46
684.094	79.19
684.284	222.55
684.474	247.12
684.664	271.7
684.854	283.98
685.044	243.03
685.234	200.02
685.424	300.37
685.614	146.77
685.804	378.19
685.994	173.39
686.184	173.39
686.374	185.68
686.564	243.03
686.753	148.82
686.943	122.2
687.133	185.68
687.323	157.01
687.513	243.03
687.702	193.87
687.892	159.06
688.082	222.55
688.272	312.66
688.461	165.2
688.651	314.7
688.841	236.88
689.03	159.06
689.22	159.06
689.41	290.13
689.599	210.26
689.789	111.96
689.979	243.03
690.168	247.12
690.358	208.21
690.547	247.12
690.737	191.83
690.926	167.25
691.116	183.63
691.305	318.8
691.495	253.27
691.684	103.76
691.874	171.35
692.063	191.83
692.252	253.27
692.442	224.59
692.631	132.44
692.82	142.68
693.01	257.36
693.199	163.15
693.388	175.44
693.578	165.2
693.767	206.16
693.956	265.55
694.146	200.02
694.335	185.68
694.524	228.69
694.713	245.07
694.902	152.91
695.092	214.35
695.281	249.17
695.47	222.55
695.659	226.64
695.848	218.45
696.037	208.21
696.226	279.89
696.415	146.77
696.604	236.88
696.793	296.27
696.982	157.01
697.171	296.27
697.36	136.53
697.549	195.92
697.738	56.66
697.927	185.68
698.116	204.11
698.305	257.36
698.494	195.92
698.683	236.88
698.872	322.9
699.061	161.11
699.25	214.35
699.438	204.11
699.627	103.76
699.816	259.41
700.005	93.52
700.193	122.2
700.382	212.31
700.571	277.84
700.76	265.55
700.948	206.16
701.137	283.98
701.326	197.97
701.514	165.2
701.703	238.93
701.892	179.54
702.08	353.62
702.269	177.49
702.457	136.53
702.646	245.07
702.834	171.35
703.023	292.18
703.212	279.89
703.4	165.2
703.589	208.21
703.777	134.48
703.965	66.9
704.154	146.77
704.342	185.68
704.531	171.35
704.719	200.02
704.907	273.75
705.096	140.63
705.284	83.28
705.472	195.92
705.661	275.79
705.849	288.08
706.037	251.22
706.226	195.92
706.414	197.97
706.602	159.06
706.79	234.83
706.979	128.34
707.167	163.15
707.355	99.67
707.543	232.79
707.731	214.35
707.919	195.92
708.107	208.21
708.296	140.63
708.484	95.57
708.672	169.3
708.86	275.79
709.048	181.59
709.236	81.24
709.424	236.88
709.612	255.31
709.8	15.7
709.988	226.64
710.176	226.64
710.364	275.79
710.551	177.49
710.739	197.97
710.927	167.25
711.115	257.36
711.303	306.51
711.491	234.83
711.679	138.58
711.866	253.27
712.054	171.35
712.242	216.4
712.43	204.11
712.617	197.97
712.805	197.97
712.993	134.48
713.181	87.38
713.368	255.31
713.556	236.88
713.744	144.72
713.931	408.91
714.119	245.07
714.306	103.76
714.494	187.73
714.682	234.83
714.869	150.87
715.057	245.07
715.244	64.85
715.432	116.05
715.619	177.49
715.807	165.2
715.994	169.3
716.182	222.55
716.369	228.69
716.556	208.21
716.744	81.24
716.931	30.04
717.119	247.12
717.306	152.91
717.493	202.07
717.681	222.55
717.868	161.11
718.055	243.03
718.242	161.11
718.43	208.21
718.617	257.36
718.804	181.59
718.991	302.42
719.179	226.64
719.366	169.3
719.553	173.39
719.74	228.69
719.927	105.81
720.114	236.88
720.301	79.19
720.488	79.19
720.676	154.96
720.863	290.13
721.05	347.47
721.237	204.11
721.424	249.17
721.611	195.92
721.798	120.15
721.985	187.73
722.172	134.48
722.358	103.76
722.545	247.12
722.732	187.73
722.919	249.17
723.106	288.08
723.293	152.91
723.48	154.96
723.667	109.91
723.853	333.14
724.04	163.15
724.227	181.59
724.414	271.7
724.6	243.03
724.787	322.9
724.974	404.82
725.161	202.07
725.347	154.96
725.534	220.5
725.72	286.03
725.907	322.9
726.094	300.37
726.28	171.35
726.467	163.15
726.653	148.82
726.84	353.62
727.027	400.72
727.213	220.5
727.4	249.17
727.586	197.97
727.773	224.59
727.959	202.07
728.145	183.63
728.332	234.83
728.518	208.21
728.705	273.75
728.891	240.98
729.077	232.79
729.264	152.91
729.45	220.5
729.636	261.46
729.823	267.6
730.009	281.94
730.195	152.91
730.382	230.74
730.568	185.68
730.754	277.84
730.94	208.21
731.126	255.31
731.313	222.55
731.499	175.44
731.685	243.03
731.871	173.39
732.057	283.98
732.243	281.94
732.429	275.79
732.615	318.8
732.801	243.03
732.987	191.83
733.173	292.18
733.359	126.29
733.545	177.49
733.731	240.98
733.917	306.51
734.103	267.6
734.289	224.59
734.475	165.2
734.661	367.95
734.847	296.27
735.033	245.07
735.219	290.13
735.404	261.46
735.59	128.34
735.776	208.21
735.962	234.83
736.148	146.77
736.333	417.1
736.519	230.74
736.705	253.27
736.89	271.7
737.076	279.89
737.262	191.83
737.447	161.11
737.633	238.93
737.819	320.85
738.004	245.07
738.19	210.26
738.375	224.59
738.561	316.75
738.747	245.07
738.932	152.91
739.118	378.19
739.303	302.42
739.489	245.07
739.674	210.26
739.859	210.26
740.045	300.37
740.23	288.08
740.416	38.23
740.601	308.56
740.786	126.29
740.972	154.96
741.157	210.26
741.342	165.2
741.528	187.73
741.713	236.88
741.898	216.4
742.084	249.17
742.269	189.78
742.454	341.33
742.639	245.07
742.824	288.08
743.01	337.23
743.195	310.61
743.38	224.59
743.565	140.63
743.75	273.75
743.935	279.89
744.12	333.14
744.305	195.92
744.49	224.59
744.675	191.83
744.86	200.02
745.045	281.94
745.23	232.79
745.415	200.02
745.6	331.09
745.785	163.15
745.97	312.66
746.155	197.97
746.34	281.94
746.525	163.15
746.71	245.07
746.895	134.48
747.079	130.39
747.264	228.69
747.449	193.87
747.634	279.89
747.819	222.55
748.003	191.83
748.188	165.2
748.373	298.32
748.557	294.22
748.742	130.39
748.927	206.16
749.111	191.83
749.296	195.92
749.481	245.07
749.665	228.69
749.85	165.2
750.034	179.54
750.219	171.35
750.404	144.72
750.588	208.21
750.773	142.68
750.957	193.87
751.141	171.35
751.326	218.45
751.51	195.92
751.695	148.82
751.879	163.15
752.064	345.42
752.248	136.53
752.432	288.08
752.617	210.26
752.801	267.6
752.985	134.48
753.17	159.06
753.354	230.74
753.538	183.63
753.722	118.1
753.907	150.87
754.091	52.56
754.275	191.83
754.459	85.33
754.643	89.43
754.828	206.16
755.012	126.29
755.196	124.24
755.38	140.63
755.564	126.29
755.748	177.49
755.932	161.11
756.116	146.77
756.3	226.64
756.484	167.25
756.668	179.54
756.852	60.76
757.036	103.76
757.22	197.97
757.404	138.58
757.588	150.87
757.772	212.31
757.956	132.44
758.14	286.03
758.323	62.8
758.507	220.5
758.691	126.29
758.875	263.51
759.059	220.5
759.242	132.44
759.426	66.9
759.61	101.72
759.794	99.67
759.977	195.92
760.161	382.29
760.345	222.55
760.528	230.74
760.712	159.06
760.895	150.87
761.079	109.91
761.263	11.61
761.446	15.7
761.63	118.1
761.813	232.79
761.997	83.28
762.18	126.29
762.364	165.2
762.547	56.66
762.731	126.29
762.914	144.72
763.098	107.86
763.281	122.2
763.464	36.18
763.648	114
763.831	93.52
764.015	126.29
764.198	83.28
764.381	179.54
764.564	152.91
764.748	169.3
764.931	107.86
765.114	116.05
765.297	175.44
765.481	62.8
765.664	142.68
765.847	107.86
766.03	255.31
766.213	126.29
766.397	-2.73
766.58	13.65
766.763	154.96
766.946	66.9
767.129	71
767.312	58.71
767.495	99.67
767.678	27.99
767.861	99.67
768.044	50.52
768.227	120.15
768.41	97.62
768.593	32.08
768.776	148.82
768.959	27.99
769.142	159.06
769.324	68.95
769.507	107.86
769.69	34.13
769.873	62.8
770.056	259.41
770.239	44.37
770.421	161.11
770.604	83.28
770.787	71
770.97	148.82
771.152	91.48
771.335	157.01
771.518	5.46
771.7	120.15
771.883	204.11
772.066	1.37
772.248	173.39
772.431	144.72
772.613	64.85
772.796	138.58
772.978	42.32
773.161	195.92
773.343	42.32
773.526	-0.68
773.708	19.8
773.891	-10.92
774.073	64.85
774.256	97.62
774.438	179.54
774.621	30.04
774.803	116.05
774.985	107.86
775.168	169.3
775.35	77.14
775.532	181.59
775.715	-8.87
775.897	40.28
776.079	73.04
776.261	95.57
776.444	124.24
776.626	46.42
776.808	101.72
776.99	36.18
777.173	116.05
777.355	118.1
777.537	75.09
777.719	136.53
777.901	23.89
778.083	52.56
778.265	-27.31
778.447	171.35
778.629	93.52
778.811	138.58
778.993	32.08
779.175	183.63
779.357	36.18
779.539	-19.11
779.721	120.15
779.903	116.05
780.085	60.76
780.267	99.67
780.449	58.71
780.631	132.44
780.812	154.96
780.994	60.76
781.176	15.7
781.358	111.96
781.54	58.71
781.721	71
781.903	210.26
782.085	87.38
782.267	154.96
782.448	-47.79
782.63	-2.73
782.812	60.76
782.993	163.15
783.175	177.49
783.357	42.32
783.538	128.34
783.72	7.51
783.901	1.37
784.083	17.75
784.264	116.05
784.446	38.23
784.627	-10.92
784.809	157.01
784.99	13.65
785.172	85.33
785.353	25.94
785.535	120.15
785.716	101.72
785.897	30.04
786.079	54.61
786.26	42.32
786.441	89.43
786.623	-8.87
786.804	-21.16
786.985	7.51
787.167	101.72
787.348	54.61
787.529	75.09
787.71	197.97
787.891	87.38
788.073	23.89
788.254	-64.17
788.435	228.69
788.616	114
788.797	40.28
788.978	5.46
789.159	-25.26
789.34	114
789.522	60.76
789.703	-19.11
789.884	105.81
790.065	73.04
790.246	191.83
790.427	75.09
790.607	142.68
790.788	62.8
790.969	40.28
791.15	48.47
791.331	42.32
791.512	46.42
791.693	11.61
791.874	-12.97
792.054	216.4
792.235	101.72
792.416	-15.02
792.597	3.41
792.778	99.67
792.958	56.66
793.139	79.19
793.32	60.76
793.5	23.89
793.681	109.91
793.862	83.28
794.042	-0.68
794.223	-17.07
794.404	79.19
794.584	-21.16
794.765	103.76
794.945	66.9
795.126	38.23
795.306	71
795.487	97.62
795.667	-82.6
795.848	97.62
796.028	25.94
796.209	27.99
796.389	62.8
796.57	46.42
796.75	-53.93
796.93	25.94
797.111	-33.45
797.291	-10.92
797.471	75.09
797.652	-86.7
797.832	-8.87
798.012	38.23
798.192	-39.59
798.373	-84.65
798.553	-62.12
798.733	46.42
798.913	-27.31
799.093	-25.26
799.274	36.18
799.454	25.94
799.634	44.37
799.814	60.76
799.994	77.14
800.174	52.56
800.354	99.67
800.534	-88.75
800.714	116.05
800.894	-19.11
801.074	-29.35
801.254	23.89
801.434	114
801.614	19.8
801.794	-4.78
801.974	1574.21
802.154	42.32
802.334	128.34
802.514	-74.41
802.693	-17.07
802.873	44.37
803.053	124.24
803.233	46.42
803.413	-19.11
803.592	-45.74
803.772	62.8
803.952	73.04
804.131	54.61
804.311	56.66
804.491	93.52
804.67	-6.83
804.85	-33.45
805.03	25.94
805.209	118.1
805.389	-0.68
805.568	25.94
805.748	-12.97
805.928	15.7
806.107	99.67
806.287	48.47
806.466	109.91
806.646	36.18
806.825	30.04
807.004	13.65
807.184	50.52
807.363	19.8
807.543	42.32
807.722	-74.41
807.901	99.67
808.081	93.52
808.26	-92.84
808.439	44.37
808.619	89.43
808.798	40.28
808.977	75.09
809.156	161.11
809.336	62.8
809.515	81.24
809.694	-15.02
809.873	36.18
810.052	81.24
810.231	181.59
810.411	30.04
810.59	42.32
810.769	19.8
810.948	36.18
811.127	-131.75
811.306	-58.03
811.485	-70.31
811.664	226.64
811.843	75.09
812.022	40.28
812.201	-27.31
812.38	48.47
812.559	62.8
812.737	77.14
812.916	-60.07
813.095	-107.18
813.274	-0.68
813.453	-4.78
813.632	36.18
813.811	93.52
813.989	-53.93
814.168	44.37
814.347	-144.04
814.526	-70.31
814.704	132.44
814.883	175.44
815.062	-64.17
815.24	83.28
815.419	-47.79
815.598	56.66
815.776	-127.66
815.955	68.95
816.133	-96.94
816.312	-8.87
816.49	27.99
816.669	-6.83
816.847	81.24
817.026	87.38
817.204	-4.78
817.383	11.61
817.561	9.56
817.74	27.99
817.918	66.9
818.097	66.9
818.275	-15.02
818.453	130.39
818.632	56.66
818.81	-8.87
818.988	-19.11
819.167	-4.78
819.345	66.9
819.523	-113.32
819.701	52.56
819.879	81.24
820.058	-4.78
820.236	46.42
820.414	103.76
820.592	-60.07
820.77	7.51
820.948	-68.27
821.127	52.56
821.305	27.99
821.483	-15.02
821.661	95.57
821.839	68.95
822.017	19.8
822.195	-0.68
822.373	85.33
822.551	68.95
822.729	73.04
822.907	3.41
823.085	36.18
823.262	-35.5
823.44	44.37
823.618	-55.98
823.796	-17.07
823.974	-23.21
824.152	11.61
824.329	7.51
824.507	30.04
824.685	54.61
824.863	38.23
825.04	30.04
825.218	71
825.396	36.18
825.574	-8.87
825.751	58.71
825.929	62.8
826.107	-68.27
826.284	46.42
826.462	83.28
826.639	5.46
826.817	-41.64
826.994	56.66
827.172	-8.87
827.349	134.48
827.527	40.28
827.704	105.81
827.882	66.9
828.059	-31.4
828.237	27.99
828.414	54.61
828.591	-115.37
828.769	-21.16
828.946	-21.16
829.124	132.44
829.301	50.52
829.478	62.8
829.655	116.05
829.833	116.05
830.01	-78.51
830.187	77.14
830.364	27.99
830.542	11.61
830.719	159.06
830.896	56.66
831.073	27.99
831.25	68.95
831.427	-8.87
831.604	15.7
831.782	19.8
831.959	81.24
832.136	89.43
832.313	97.62
832.49	-12.97
832.667	83.28
832.844	-129.7
833.021	52.56
833.198	40.28
833.374	60.76
833.551	-47.79
833.728	-29.35
833.905	73.04
834.082	-148.14
834.259	17.75
834.436	146.77
834.612	-21.16
834.789	68.95
834.966	-37.55
835.143	-0.68
835.319	-27.31
835.496	52.56
835.673	136.53
835.85	81.24
836.026	126.29
836.203	-10.92
836.38	-39.59
836.556	-4.78
836.733	-2.73
836.909	73.04
837.086	-33.45
837.262	-96.94
837.439	-41.64
837.616	-53.93
837.792	46.42
837.968	50.52
838.145	-117.42
838.321	32.08
838.498	66.9
838.674	48.47
838.851	-27.31
839.027	-64.17
839.203	48.47
839.38	81.24
839.556	77.14
839.732	30.04
839.909	11.61
840.085	-33.45
840.261	-80.55
840.437	64.85
840.614	-35.5
840.79	1.37
840.966	89.43
841.142	81.24
841.318	23.89
841.494	36.18
841.671	114
841.847	-21.16
842.023	-19.11
842.199	66.9
842.375	120.15
842.551	-174.76
842.727	-119.46
842.903	140.63
843.079	-84.65
843.255	150.87
843.431	64.85
843.607	111.96
843.783	-39.59
843.959	34.13
844.134	-74.41
844.31	66.9
844.486	-17.07
844.662	-80.55
844.838	13.65
845.013	-17.07
845.189	19.8
845.365	1.37
845.541	54.61
845.716	-25.26
845.892	11.61
846.068	-35.5
846.244	38.23
846.419	60.76
846.595	36.18
846.77	-84.65
846.946	21.85
847.122	-76.46
847.297	-10.92
847.473	36.18
847.648	-78.51
847.824	15.7
847.999	-58.03
848.175	3.41
848.35	64.85
848.526	193.87
848.701	114
848.876	79.19
849.052	54.61
849.227	17.75
849.403	34.13
849.578	-64.17
849.753	5.46
849.929	91.48
850.104	-29.35
850.279	-8.87
850.454	58.71
850.63	105.81
850.805	-37.55
850.98	13.65
851.155	-23.21
851.33	75.09
851.505	-49.83
851.681	175.44
851.856	-98.99
852.031	73.04
852.206	40.28
852.381	-35.5
852.556	23.89
852.731	89.43
852.906	83.28
853.081	75.09
853.256	132.44
853.431	54.61
853.606	17.75
853.781	-135.85
853.956	-96.94
854.131	7.51
854.305	-12.97
854.48	-51.88
854.655	-39.59
854.83	21.85
855.005	52.56
855.18	-19.11
855.354	11.61
855.529	30.04
855.704	-29.35
855.879	40.28
856.053	-29.35
856.228	62.8
856.403	-96.94
856.577	-12.97
856.752	-88.75
856.926	-49.83
857.101	5.46
857.276	-70.31
857.45	-62.12
857.625	30.04
857.799	-19.11
857.974	-17.07
858.148	-70.31
858.323	-27.31
858.497	-15.02
858.672	-113.32
858.846	3.41
859.02	101.72
859.195	-78.51
859.369	13.65
859.543	-15.02
859.718	15.7
859.892	-25.26
860.066	71
860.241	-27.31
860.415	-55.98
860.589	-49.83
860.763	9.56
860.938	46.42
861.112	109.91
861.286	66.9
861.46	38.23
861.634	-10.92
861.808	81.24
861.982	1.37
862.157	-131.75
862.331	-23.21
862.505	-58.03
862.679	-90.79
862.853	-8.87
863.027	-31.4
863.201	25.94
863.375	40.28
863.549	48.47
863.722	30.04
863.896	46.42
864.07	-53.93
864.244	3.41
864.418	30.04
864.592	-80.55
864.766	19.8
864.939	-37.55
865.113	-19.11
865.287	62.8
865.461	3.41
865.634	46.42
865.808	-2.73
865.982	-33.45
866.156	-23.21
866.329	-68.27
866.503	11.61
866.676	79.19
866.85	38.23
867.024	-139.94
867.197	3.41
867.371	-10.92
867.544	-19.11
867.718	-123.56
867.891	126.29
868.065	-82.6
868.238	73.04
868.412	122.2
868.585	-10.92
868.759	-49.83
868.932	-94.89
869.105	-129.7
869.279	-47.79
869.452	40.28
869.625	23.89
869.799	-33.45
869.972	-90.79
870.145	-47.79
870.319	52.56
870.492	11.61
870.665	1.37
870.838	1.37
871.011	-74.41
871.185	36.18
871.358	-84.65
871.531	99.67
871.704	32.08
871.877	64.85
872.05	3.41
872.223	-133.8
872.396	93.52
872.569	42.32
872.742	-60.07
872.915	54.61
873.088	-2.73
873.261	-43.69
873.434	89.43
873.607	11.61
873.78	120.15
873.953	7.51
874.126	105.81
874.299	52.56
874.471	40.28
874.644	-0.68
874.817	68.95
874.99	122.2
875.163	40.28
875.335	83.28
875.508	25.94
875.681	52.56
875.853	101.72
876.026	-53.93
876.199	-0.68
876.371	25.94
876.544	-15.02
876.717	34.13
876.889	30.04
877.062	111.96
877.234	-53.93
877.407	-45.74
877.579	-53.93
877.752	48.47
877.924	118.1
878.097	-17.07
878.269	71
878.442	-19.11
878.614	36.18
878.786	-2.73
878.959	66.9
879.131	99.67
879.303	-53.93
879.476	7.51
879.648	150.87
879.82	21.85
879.993	-19.11
880.165	-4.78
880.337	-121.51
880.509	21.85
880.681	-17.07
880.854	-90.79
881.026	7.51
881.198	111.96
881.37	-31.4
881.542	19.8
881.714	5.46
881.886	27.99
882.058	13.65
882.23	-2.73
882.402	-4.78
882.574	107.86
882.746	87.38
882.918	91.48
883.09	73.04
883.262	-29.35
883.434	68.95
883.606	-55.98
883.778	-53.93
883.95	71
884.122	-41.64
884.293	64.85
884.465	19.8
884.637	107.86
884.809	-47.79
884.98	114
885.152	27.99
885.324	19.8
885.496	23.89
885.667	-23.21
885.839	-23.21
886.011	105.81
886.182	68.95
886.354	-29.35
886.525	44.37
886.697	13.65
886.869	-25.26
887.04	-37.55
887.212	97.62
887.383	161.11
887.555	52.56
887.726	-53.93
887.897	-17.07
888.069	85.33
888.24	34.13
888.412	-4.78
888.583	-15.02
888.754	23.89
888.926	-17.07
889.097	-2.73
889.268	-84.65
889.44	25.94
889.611	-55.98
889.782	21.85
889.953	-41.64
890.125	99.67
890.296	-111.27
890.467	-60.07
890.638	-12.97
890.809	-39.59
890.98	-64.17
891.151	56.66
891.323	99.67
891.494	21.85
891.665	-31.4
891.836	-0.68
892.007	-23.21
892.178	64.85
892.349	40.28
892.52	-62.12
892.691	-0.68
892.862	-29.35
893.032	-60.07
893.203	-68.27
893.374	-8.87
893.545	40.28
893.716	44.37
893.887	34.13
894.057	-4.78
894.228	-10.92
894.399	48.47
894.57	44.37
894.74	21.85
894.911	-8.87
895.082	-10.92
895.253	-86.7
895.423	-19.11
895.594	77.14
895.764	52.56
895.935	-60.07
896.106	7.51
896.276	64.85
896.447	36.18
896.617	-17.07
896.788	-78.51
896.958	-19.11
897.129	-55.98
897.299	-29.35
897.47	159.06
897.64	13.65
897.81	-51.88
897.981	50.52
898.151	3.41
898.322	44.37
898.492	-4.78
898.662	-185
898.832	23.89
899.003	-39.59
899.173	73.04
899.343	-12.97
899.513	-51.88
