Data from USB4F104151__265__11-20-28-533.txt Node

Date: Wed Feb 26 11:20:28 EST 2025
User: louis
Spectrometer: USB4F10415
Trigger mode: 4
Integration Time (sec): 1.000000E-1
Scans to average: 1
Electric dark correction enabled: true
Nonlinearity correction enabled: false
Boxcar width: 0
XAxis mode: Wavelengths
Number of Pixels in Spectrum: 3648
>>>>>Begin Spectral Data<<<<<
178.204	-488.61
178.424	-488.61
178.644	-488.61
178.864	-416.93
179.084	-418.98
179.304	35.67
179.524	21.33
179.744	25.43
179.964	21.33
180.184	2.9
180.404	-5.29
180.624	21.33
180.844	-3.24
181.064	-56.49
181.283	-54.44
181.503	-46.25
181.723	37.72
181.943	-81.07
182.163	211.79
182.383	54.1
182.602	80.72
182.822	133.97
183.042	72.53
183.262	37.72
183.482	-25.77
183.701	27.48
183.921	78.68
184.141	54.1
184.361	90.96
184.58	138.07
184.8	37.72
185.02	-56.49
185.239	99.16
185.459	62.29
185.679	142.16
185.898	2.9
186.118	54.1
186.338	76.63
186.557	66.39
186.777	-5.29
186.997	-11.43
187.216	0.85
187.436	176.98
187.655	66.39
187.875	74.58
188.095	-36.01
188.314	203.6
188.534	74.58
188.753	-36.01
188.973	187.22
189.192	209.75
189.412	-19.63
189.631	21.33
189.851	31.57
190.07	127.83
190.29	11.09
190.509	-3.24
190.729	97.11
190.948	45.91
191.168	246.61
191.387	58.2
191.607	25.43
191.826	4.95
192.045	29.52
192.265	-48.3
192.484	52.05
192.704	58.2
192.923	-21.67
193.142	191.31
193.362	93.01
193.581	205.65
193.8	17.24
194.02	95.06
194.239	93.01
194.458	99.16
194.678	29.52
194.897	-46.25
195.116	86.87
195.335	74.58
195.555	99.16
195.774	29.52
195.993	56.15
196.212	27.48
196.432	4.95
196.651	43.86
196.87	60.24
197.089	234.32
197.308	78.68
197.528	7
197.747	-58.54
197.966	-3.24
198.185	129.88
198.404	-9.39
198.623	133.97
198.842	76.63
199.062	78.68
199.281	131.92
199.5	-3.24
199.719	62.29
199.938	80.72
200.157	50
200.376	127.83
200.595	54.1
200.814	23.38
201.033	39.76
201.252	197.46
201.471	97.11
201.69	43.86
201.909	29.52
202.128	121.68
202.347	99.16
202.566	45.91
202.785	-156.84
203.004	29.52
203.223	256.85
203.442	84.82
203.661	17.24
203.879	45.91
204.098	148.31
204.317	-11.43
204.536	93.01
204.755	70.48
204.974	166.74
205.193	-3.24
205.411	119.64
205.63	93.01
205.849	19.29
206.068	23.38
206.287	-15.53
206.505	99.16
206.724	39.76
206.943	2.9
207.162	-25.77
207.381	125.78
207.599	39.76
207.818	31.57
208.037	-52.39
208.255	47.96
208.474	148.31
208.693	52.05
208.911	-25.77
209.13	88.92
209.349	74.58
209.567	90.96
209.786	23.38
210.005	123.73
210.223	76.63
210.442	-62.63
210.661	27.48
210.879	41.81
211.098	43.86
211.316	86.87
211.535	97.11
211.753	0.85
211.972	84.82
212.191	21.33
212.409	-11.43
212.628	4.95
212.846	47.96
213.065	136.02
213.283	62.29
213.502	17.24
213.72	56.15
213.938	-31.91
214.157	-17.58
214.375	97.11
214.594	-11.43
214.812	80.72
215.031	-1.19
215.249	37.72
215.467	33.62
215.686	52.05
215.904	76.63
216.122	21.33
216.341	170.83
216.559	105.3
216.778	105.3
216.996	150.36
217.214	70.48
217.432	-13.48
217.651	-68.78
217.869	60.24
218.087	95.06
218.306	35.67
218.524	29.52
218.742	-11.43
218.96	19.29
219.179	-29.87
219.397	50
219.615	219.99
219.833	115.54
220.051	19.29
220.27	74.58
220.488	33.62
220.706	90.96
220.924	-81.07
221.142	56.15
221.36	187.22
221.578	164.69
221.796	35.67
222.015	56.15
222.233	119.64
222.451	179.03
222.669	-27.82
222.887	9.05
223.105	-54.44
223.323	23.38
223.541	-95.4
223.759	13.14
223.977	25.43
224.195	148.31
224.413	93.01
224.631	58.2
224.849	90.96
225.067	287.57
225.285	17.24
225.503	-15.53
225.721	-99.5
225.939	7
226.157	70.48
226.375	234.32
226.592	33.62
226.81	-21.67
227.028	140.12
227.246	123.73
227.464	162.64
227.682	99.16
227.9	84.82
228.117	82.77
228.335	95.06
228.553	88.92
228.771	33.62
228.989	64.34
229.206	64.34
229.424	15.19
229.642	-58.54
229.86	9.05
230.077	152.4
230.295	84.82
230.513	39.76
230.731	72.53
230.948	160.59
231.166	176.98
231.384	23.38
231.601	-44.2
231.819	107.35
232.037	-11.43
232.254	-74.92
232.472	-11.43
232.689	43.86
232.907	103.25
233.125	54.1
233.342	2.9
233.56	45.91
233.777	-3.24
233.995	21.33
234.213	101.2
234.43	41.81
234.648	4.95
234.865	19.29
235.083	76.63
235.3	-9.39
235.518	43.86
235.735	117.59
235.953	72.53
236.17	27.48
236.388	2.9
236.605	95.06
236.822	86.87
237.04	82.77
237.257	74.58
237.475	-33.96
237.692	60.24
237.909	35.67
238.127	62.29
238.344	70.48
238.562	62.29
238.779	13.14
238.996	-38.06
239.214	74.58
239.431	56.15
239.648	15.19
239.865	123.73
240.083	109.4
240.3	-17.58
240.517	-119.98
240.735	68.44
240.952	90.96
241.169	80.72
241.386	78.68
241.603	-25.77
241.821	-11.43
242.038	154.45
242.255	136.02
242.472	-48.3
242.689	133.97
242.907	103.25
243.124	56.15
243.341	-9.39
243.558	15.19
243.775	-27.82
243.992	-66.73
244.209	160.59
244.426	166.74
244.643	33.62
244.86	33.62
245.078	109.4
245.295	2.9
245.512	64.34
245.729	-19.63
245.946	11.09
246.163	76.63
246.38	-7.34
246.597	58.2
246.814	43.86
247.031	78.68
247.248	72.53
247.464	31.57
247.681	4.95
247.898	4.95
248.115	66.39
248.332	-60.59
248.549	136.02
248.766	176.98
248.983	60.24
249.2	58.2
249.417	93.01
249.633	-11.43
249.85	17.24
250.067	64.34
250.284	78.68
250.501	70.48
250.717	107.35
250.934	-31.91
251.151	-17.58
251.368	64.34
251.585	78.68
251.801	86.87
252.018	-62.63
252.235	72.53
252.451	-70.83
252.668	4.95
252.885	156.5
253.102	64.34
253.318	90.96
253.535	-5.29
253.752	0.85
253.968	-5.29
254.185	-60.59
254.401	11.09
254.618	84.82
254.835	-19.63
255.051	125.78
255.268	84.82
255.484	35.67
255.701	23.38
255.917	80.72
256.134	-21.67
256.351	37.72
256.567	-89.26
256.784	84.82
257	-42.15
257.217	21.33
257.433	144.21
257.65	21.33
257.866	158.55
258.082	-25.77
258.299	-3.24
258.515	78.68
258.732	66.39
258.948	-29.87
259.165	93.01
259.381	25.43
259.597	70.48
259.814	68.44
260.03	9.05
260.246	-21.67
260.463	121.68
260.679	150.36
260.895	27.48
261.112	-54.44
261.328	41.81
261.544	21.33
261.761	148.31
261.977	-56.49
262.193	-64.68
262.409	58.2
262.626	25.43
262.842	111.44
263.058	39.76
263.274	70.48
263.49	56.15
263.707	76.63
263.923	68.44
264.139	-72.87
264.355	39.76
264.571	154.45
264.787	50
265.004	82.77
265.22	95.06
265.436	-56.49
265.652	58.2
265.868	25.43
266.084	0.85
266.3	35.67
266.516	15.19
266.732	27.48
266.948	74.58
267.164	27.48
267.38	68.44
267.596	99.16
267.812	103.25
268.028	33.62
268.244	-17.58
268.46	11.09
268.676	0.85
268.892	152.4
269.108	13.14
269.324	-56.49
269.54	7
269.756	41.81
269.972	-9.39
270.188	50
270.403	0.85
270.619	-9.39
270.835	152.4
271.051	74.58
271.267	0.85
271.483	33.62
271.698	54.1
271.914	93.01
272.13	56.15
272.346	2.9
272.562	23.38
272.777	131.92
272.993	-3.24
273.209	-29.87
273.425	70.48
273.64	-62.63
273.856	115.54
274.072	43.86
274.287	-1.19
274.503	64.34
274.719	74.58
274.934	-7.34
275.15	-58.54
275.366	50
275.581	27.48
275.797	66.39
276.012	95.06
276.228	50
276.444	90.96
276.659	172.88
276.875	15.19
277.09	-38.06
277.306	76.63
277.521	76.63
277.737	54.1
277.952	144.21
278.168	50
278.383	43.86
278.599	33.62
278.814	101.2
279.03	-13.48
279.245	111.44
279.461	80.72
279.676	88.92
279.892	-13.48
280.107	-52.39
280.322	-48.3
280.538	50
280.753	21.33
280.969	64.34
281.184	47.96
281.399	115.54
281.615	9.05
281.83	99.16
282.045	-93.35
282.26	23.38
282.476	76.63
282.691	33.62
282.906	-19.63
283.122	109.4
283.337	86.87
283.552	111.44
283.767	54.1
283.983	115.54
284.198	103.25
284.413	19.29
284.628	-101.55
284.843	11.09
285.058	68.44
285.274	-29.87
285.489	-5.29
285.704	52.05
285.919	-17.58
286.134	-17.58
286.349	-5.29
286.564	-62.63
286.779	154.45
286.995	68.44
287.21	-27.82
287.425	129.88
287.64	-27.82
287.855	146.26
288.07	-58.54
288.285	95.06
288.5	107.35
288.715	21.33
288.93	95.06
289.145	-11.43
289.36	23.38
289.575	99.16
289.79	125.78
290.004	-68.78
290.219	84.82
290.434	29.52
290.649	29.52
290.864	-38.06
291.079	9.05
291.294	35.67
291.509	117.59
291.724	-7.34
291.938	43.86
292.153	-27.82
292.368	56.15
292.583	-7.34
292.798	82.77
293.012	58.2
293.227	37.72
293.442	-48.3
293.657	37.72
293.871	183.12
294.086	138.07
294.301	185.17
294.516	172.88
294.73	107.35
294.945	-7.34
295.16	-7.34
295.374	97.11
295.589	23.38
295.804	-29.87
296.018	123.73
296.233	140.12
296.447	-13.48
296.662	23.38
296.877	54.1
297.091	101.2
297.306	45.91
297.52	90.96
297.735	117.59
297.949	50
298.164	101.2
298.378	37.72
298.593	7
298.807	11.09
299.022	86.87
299.236	119.64
299.451	50
299.665	23.38
299.88	-46.25
300.094	7
300.309	-19.63
300.523	9.05
300.737	74.58
300.952	33.62
301.166	156.5
301.381	9.05
301.595	-21.67
301.809	80.72
302.024	-42.15
302.238	-25.77
302.452	105.3
302.667	45.91
302.881	217.94
303.095	45.91
303.309	76.63
303.524	-11.43
303.738	45.91
303.952	-7.34
304.166	111.44
304.381	-81.07
304.595	160.59
304.809	27.48
305.023	58.2
305.237	47.96
305.452	-5.29
305.666	21.33
305.88	-21.67
306.094	168.79
306.308	25.43
306.522	74.58
306.736	35.67
306.95	150.36
307.164	-21.67
307.379	60.24
307.593	164.69
307.807	125.78
308.021	154.45
308.235	113.49
308.449	-99.5
308.663	76.63
308.877	238.42
309.091	142.16
309.305	107.35
309.519	-95.4
309.733	119.64
309.947	-38.06
310.161	82.77
310.374	158.55
310.588	150.36
310.802	-36.01
311.016	-1.19
311.23	142.16
311.444	-46.25
311.658	68.44
311.872	88.92
312.085	82.77
312.299	127.83
312.513	129.88
312.727	45.91
312.941	4.95
313.154	45.91
313.368	-5.29
313.582	39.76
313.796	62.29
314.009	31.57
314.223	125.78
314.437	17.24
314.651	93.01
314.864	-19.63
315.078	4.95
315.292	27.48
315.505	-50.35
315.719	97.11
315.933	84.82
316.146	15.19
316.36	-31.91
316.573	131.92
316.787	123.73
317.001	31.57
317.214	-33.96
317.428	74.58
317.641	-15.53
317.855	68.44
318.068	27.48
318.282	64.34
318.495	222.03
318.709	11.09
318.922	99.16
319.136	164.69
319.349	58.2
319.563	-76.97
319.776	111.44
319.99	-87.21
320.203	78.68
320.417	41.81
320.63	95.06
320.843	148.31
321.057	150.36
321.27	0.85
321.483	68.44
321.697	164.69
321.91	78.68
322.124	95.06
322.337	115.54
322.55	0.85
322.763	4.95
322.977	7
323.19	-15.53
323.403	60.24
323.617	4.95
323.83	138.07
324.043	47.96
324.256	54.1
324.469	-7.34
324.683	50
324.896	41.81
325.109	66.39
325.322	21.33
325.535	21.33
325.748	27.48
325.962	39.76
326.175	4.95
326.388	78.68
326.601	121.68
326.814	13.14
327.027	138.07
327.24	121.68
327.453	-7.34
327.666	109.4
327.879	60.24
328.092	115.54
328.305	129.88
328.518	-68.78
328.731	25.43
328.944	-52.39
329.157	33.62
329.37	35.67
329.583	179.03
329.796	146.26
330.009	-11.43
330.222	107.35
330.435	90.96
330.648	-64.68
330.861	-99.5
331.073	101.2
331.286	19.29
331.499	95.06
331.712	-52.39
331.925	33.62
332.138	-27.82
332.35	125.78
332.563	-5.29
332.776	125.78
332.989	-38.06
333.202	29.52
333.414	17.24
333.627	-48.3
333.84	4.95
334.053	72.53
334.265	-15.53
334.478	13.14
334.691	107.35
334.903	52.05
335.116	-23.72
335.329	39.76
335.541	52.05
335.754	150.36
335.966	4.95
336.179	31.57
336.392	-11.43
336.604	9.05
336.817	37.72
337.029	78.68
337.242	35.67
337.454	109.4
337.667	101.2
337.88	86.87
338.092	105.3
338.305	23.38
338.517	66.39
338.729	113.49
338.942	123.73
339.154	60.24
339.367	-107.69
339.579	0.85
339.792	-52.39
340.004	80.72
340.217	-31.91
340.429	27.48
340.641	9.05
340.854	-38.06
341.066	47.96
341.278	150.36
341.491	181.07
341.703	52.05
341.915	4.95
342.128	109.4
342.34	35.67
342.552	-33.96
342.764	23.38
342.977	43.86
343.189	66.39
343.401	70.48
343.613	-9.39
343.826	-31.91
344.038	-64.68
344.25	47.96
344.462	19.29
344.674	62.29
344.886	-1.19
345.099	86.87
345.311	66.39
345.523	25.43
345.735	-52.39
345.947	39.76
346.159	84.82
346.371	97.11
346.583	33.62
346.795	170.83
347.007	-13.48
347.219	86.87
347.431	-15.53
347.643	45.91
347.855	21.33
348.067	84.82
348.279	-29.87
348.491	58.2
348.703	54.1
348.915	21.33
349.127	-29.87
349.339	35.67
349.551	17.24
349.763	148.31
349.975	15.19
350.187	129.88
350.399	144.21
350.61	127.83
350.822	76.63
351.034	103.25
351.246	0.85
351.458	70.48
351.669	88.92
351.881	138.07
352.093	41.81
352.305	113.49
352.517	88.92
352.728	154.45
352.94	56.15
353.152	68.44
353.363	-89.26
353.575	50
353.787	123.73
353.999	29.52
354.21	131.92
354.422	19.29
354.633	64.34
354.845	43.86
355.057	78.68
355.268	-7.34
355.48	103.25
355.692	11.09
355.903	17.24
356.115	-62.63
356.326	-126.12
356.538	142.16
356.749	52.05
356.961	119.64
357.172	78.68
357.384	-11.43
357.595	242.51
357.807	-7.34
358.018	52.05
358.23	-21.67
358.441	181.07
358.653	56.15
358.864	21.33
359.075	-119.98
359.287	45.91
359.498	95.06
359.709	129.88
359.921	33.62
360.132	41.81
360.344	15.19
360.555	-15.53
360.766	72.53
360.977	52.05
361.189	64.34
361.4	54.1
361.611	193.36
361.823	103.25
362.034	56.15
362.245	-97.45
362.456	127.83
362.667	99.16
362.879	-7.34
363.09	45.91
363.301	101.2
363.512	35.67
363.723	-11.43
363.935	21.33
364.146	103.25
364.357	64.34
364.568	117.59
364.779	-74.92
364.99	13.14
365.201	-52.39
365.412	54.1
365.623	-83.11
365.834	-5.29
366.045	23.38
366.256	37.72
366.467	78.68
366.678	-31.91
366.889	39.76
367.1	-40.11
367.311	86.87
367.522	-21.67
367.733	105.3
367.944	58.2
368.155	27.48
368.366	0.85
368.577	74.58
368.788	125.78
368.999	-33.96
369.209	82.77
369.42	226.13
369.631	199.51
369.842	58.2
370.053	56.15
370.264	62.29
370.474	-36.01
370.685	35.67
370.896	58.2
371.107	60.24
371.317	172.88
371.528	35.67
371.739	101.2
371.95	50
372.16	93.01
372.371	-11.43
372.582	90.96
372.792	101.2
373.003	43.86
373.214	101.2
373.424	172.88
373.635	-132.26
373.846	127.83
374.056	29.52
374.267	84.82
374.477	27.48
374.688	-7.34
374.898	105.3
375.109	21.33
375.319	43.86
375.53	215.89
375.74	82.77
375.951	-31.91
376.161	56.15
376.372	125.78
376.582	17.24
376.793	62.29
377.003	27.48
377.214	4.95
377.424	88.92
377.635	47.96
377.845	70.48
378.055	113.49
378.266	-17.58
378.476	-27.82
378.686	93.01
378.897	97.11
379.107	189.27
379.317	41.81
379.528	70.48
379.738	156.5
379.948	-101.55
380.158	125.78
380.369	121.68
380.579	54.1
380.789	-7.34
380.999	131.92
381.21	166.74
381.42	191.31
381.63	29.52
381.84	156.5
382.05	103.25
382.261	111.44
382.471	111.44
382.681	29.52
382.891	133.97
383.101	95.06
383.311	-62.63
383.521	45.91
383.731	111.44
383.941	58.2
384.151	66.39
384.361	-58.54
384.571	80.72
384.781	64.34
384.991	185.17
385.201	179.03
385.411	95.06
385.621	66.39
385.831	47.96
386.041	68.44
386.251	66.39
386.461	125.78
386.671	84.82
386.881	68.44
387.091	-9.39
387.301	56.15
387.511	9.05
387.72	58.2
387.93	76.63
388.14	66.39
388.35	0.85
388.56	127.83
388.769	70.48
388.979	64.34
389.189	-23.72
389.399	47.96
389.609	60.24
389.818	166.74
390.028	41.81
390.238	88.92
390.447	35.67
390.657	25.43
390.867	21.33
391.076	-87.21
391.286	54.1
391.496	4.95
391.705	58.2
391.915	109.4
392.125	50
392.334	19.29
392.544	133.97
392.753	103.25
392.963	-15.53
393.172	82.77
393.382	-11.43
393.591	176.98
393.801	-33.96
394.01	125.78
394.22	101.2
394.429	60.24
394.639	50
394.848	68.44
395.058	93.01
395.267	13.14
395.477	125.78
395.686	123.73
395.895	213.84
396.105	156.5
396.314	41.81
396.524	80.72
396.733	39.76
396.942	115.54
397.152	107.35
397.361	109.4
397.57	76.63
397.78	107.35
397.989	76.63
398.198	127.83
398.407	66.39
398.617	33.62
398.826	43.86
399.035	41.81
399.244	88.92
399.453	13.14
399.663	4.95
399.872	2.9
400.081	-33.96
400.29	127.83
400.499	19.29
400.708	148.31
400.917	23.38
401.127	78.68
401.336	11.09
401.545	234.32
401.754	150.36
401.963	131.92
402.172	50
402.381	45.91
402.59	-13.48
402.799	2.9
403.008	50
403.217	95.06
403.426	99.16
403.635	-70.83
403.844	62.29
404.053	-13.48
404.262	4.95
404.471	111.44
404.68	4.95
404.888	88.92
405.097	-11.43
405.306	105.3
405.515	140.12
405.724	25.43
405.933	148.31
406.142	111.44
406.35	174.93
406.559	9.05
406.768	4.95
406.977	133.97
407.185	21.33
407.394	121.68
407.603	23.38
407.812	17.24
408.02	29.52
408.229	41.81
408.438	131.92
408.646	17.24
408.855	39.76
409.064	86.87
409.272	19.29
409.481	105.3
409.69	-15.53
409.898	-42.15
410.107	58.2
410.315	107.35
410.524	29.52
410.733	31.57
410.941	123.73
411.15	162.64
411.358	33.62
411.567	209.75
411.775	19.29
411.984	131.92
412.192	58.2
412.401	90.96
412.609	129.88
412.818	189.27
413.026	131.92
413.234	39.76
413.443	78.68
413.651	25.43
413.86	-9.39
414.068	99.16
414.276	187.22
414.485	47.96
414.693	162.64
414.901	203.6
415.11	136.02
415.318	86.87
415.526	-13.48
415.734	158.55
415.943	131.92
416.151	99.16
416.359	-1.19
416.567	56.15
416.776	78.68
416.984	131.92
417.192	246.61
417.4	31.57
417.608	56.15
417.817	13.14
418.025	146.26
418.233	203.6
418.441	41.81
418.649	-95.4
418.857	127.83
419.065	136.02
419.273	17.24
419.481	-3.24
419.689	-3.24
419.897	-11.43
420.105	-31.91
420.313	113.49
420.521	156.5
420.729	154.45
420.937	84.82
421.145	-38.06
421.353	84.82
421.561	195.41
421.769	119.64
421.977	19.29
422.185	95.06
422.393	66.39
422.601	148.31
422.809	35.67
423.017	93.01
423.224	127.83
423.432	74.58
423.64	7
423.848	172.88
424.056	2.9
424.263	115.54
424.471	43.86
424.679	179.03
424.887	-93.35
425.094	125.78
425.302	117.59
425.51	2.9
425.718	21.33
425.925	52.05
426.133	52.05
426.341	160.59
426.548	101.2
426.756	84.82
426.964	64.34
427.171	23.38
427.379	76.63
427.586	127.83
427.794	107.35
428.001	197.46
428.209	78.68
428.417	142.16
428.624	125.78
428.832	90.96
429.039	80.72
429.247	82.77
429.454	107.35
429.662	201.55
429.869	88.92
430.076	86.87
430.284	203.6
430.491	252.75
430.699	146.26
430.906	258.9
431.114	62.29
431.321	162.64
431.528	113.49
431.736	95.06
431.943	166.74
432.15	133.97
432.358	252.75
432.565	262.99
432.772	78.68
432.979	201.55
433.187	140.12
433.394	238.42
433.601	162.64
433.808	242.51
434.016	217.94
434.223	308.05
434.43	199.51
434.637	301.9
434.844	306
435.052	277.33
435.259	283.47
435.466	260.95
435.673	277.33
435.88	252.75
436.087	371.54
436.294	377.68
436.501	461.65
436.708	385.87
436.915	310.1
437.122	330.58
437.329	279.38
437.537	383.82
437.743	328.53
437.95	512.85
438.157	465.74
438.364	398.16
438.571	379.73
438.778	418.64
438.985	467.79
439.192	557.9
439.399	557.9
439.606	482.13
439.813	578.38
440.02	664.4
440.227	740.17
440.433	633.68
440.64	596.81
440.847	486.22
441.054	607.05
441.261	752.46
441.467	635.72
441.674	590.67
441.881	836.42
442.088	654.16
442.294	826.18
442.501	906.06
442.708	934.73
442.914	811.85
443.121	981.83
443.328	973.64
443.534	1041.22
443.741	1088.32
443.948	774.99
444.154	1073.99
444.361	1286.98
444.568	1172.29
444.774	1168.2
444.981	1104.71
445.187	1334.08
445.394	1405.76
445.6	1274.69
445.807	1534.78
446.013	1420.1
446.22	1516.35
446.426	1563.45
446.633	1704.76
446.839	1788.73
447.046	1557.31
447.252	1762.11
447.459	1815.35
447.665	1874.74
447.871	2024.25
448.078	2120.5
448.284	2003.77
448.491	2247.48
448.697	2372.4
448.903	2331.44
449.11	2474.8
449.316	2384.69
449.522	2581.29
449.728	2790.19
449.935	2818.86
450.141	2831.15
450.347	3037.99
450.553	3058.47
450.76	3003.18
450.966	3291.94
451.172	3423.01
451.378	3451.68
451.584	3578.65
451.791	3803.93
451.997	3986.2
452.203	3937.05
452.409	3998.49
452.615	4344.6
452.821	4180.76
453.027	4309.78
453.233	4700.94
453.44	4641.55
453.646	5014.28
453.852	5145.35
454.058	5243.65
454.264	5489.41
454.47	5696.25
454.676	5954.3
454.882	6503.15
455.088	6107.9
455.294	6630.13
455.5	6929.13
455.705	7193.32
455.911	7197.42
456.117	7359.21
456.323	7729.89
456.529	7887.58
456.735	8463.06
456.941	8729.3
457.147	8991.44
457.352	9140.94
457.558	9345.73
457.764	10148.54
457.97	10394.29
458.176	10779.31
458.381	11270.83
458.587	11293.35
458.793	12163.74
458.999	11795.11
459.204	13193.87
459.41	13937.28
459.616	13625.99
459.821	14539.38
460.027	15301.23
460.233	15981.15
460.438	15862.37
460.644	16786.01
460.85	16806.48
461.055	17470.03
461.261	18494.01
461.466	18326.08
461.672	18469.44
461.878	20779.54
462.083	20279.84
462.289	20881.94
462.494	21664.27
462.7	21586.44
462.905	22030.85
463.111	24113.64
463.316	25422.29
463.522	25502.16
463.727	26393.03
463.932	27181.49
464.138	28602.78
464.343	29225.37
464.549	29215.13
464.754	31299.96
464.959	32455.01
465.165	32584.04
465.37	32555.36
465.575	32469.35
465.781	34871.62
465.986	36122.93
466.191	35399.99
466.397	35385.66
466.602	35342.65
466.807	37028.13
467.012	37875.99
467.218	38123.79
467.423	38213.9
467.628	39416.06
467.833	41408.73
468.038	40524.01
468.244	39657.72
468.449	41664.73
468.654	41199.84
468.859	40884.45
469.064	41148.64
469.269	40104.18
469.474	40513.77
469.679	41578.71
469.885	40612.07
470.09	41054.43
470.295	41236.7
470.5	40018.16
470.705	40268.01
470.91	39491.83
471.115	39024.9
471.32	39409.92
471.525	39647.48
471.73	38150.42
471.935	37898.52
472.139	36473.13
472.344	36686.12
472.549	36915.49
472.754	35932.47
472.959	34847.04
473.164	34095.44
473.369	33552.73
473.574	34406.73
473.778	33532.25
473.983	32909.66
474.188	32588.13
474.393	31043.96
474.598	31043.96
474.802	30067.08
475.007	29540.75
475.212	29456.79
475.417	28209.57
475.621	27976.11
475.826	27826.6
476.031	27029.94
476.235	26665.41
476.44	26407.36
476.645	25733.58
476.849	25442.77
477.054	25211.35
477.259	24512.99
477.463	24500.7
477.668	23734.76
477.872	23921.13
478.077	23114.23
478.282	22432.26
478.486	22503.93
478.691	21877.26
478.895	22082.05
479.1	21629.45
479.304	21582.35
479.509	20867.61
479.713	21008.92
479.918	20521.5
480.122	20310.56
480.326	20691.48
480.531	20189.73
480.735	20161.06
480.94	19708.46
481.144	20417.05
481.348	19063.35
481.553	19397.17
481.757	18803.25
481.961	19143.22
482.166	19202.61
482.37	19071.54
482.574	18666.04
482.778	18278.97
482.983	18889.27
483.187	18278.97
483.391	18389.56
483.595	17998.4
483.8	17783.37
484.004	17771.08
484.208	17793.61
484.412	17431.12
484.616	17130.06
484.821	16990.8
485.025	16425.56
485.229	16437.85
485.433	16267.87
485.637	16286.3
485.841	15870.56
486.045	15491.69
486.249	15745.64
486.453	15297.13
486.657	15450.73
486.861	14776.95
487.065	14391.93
487.269	14668.41
487.473	13830.79
487.677	14154.37
487.881	14033.54
488.085	13464.2
488.289	13212.3
488.493	13208.2
488.697	13079.18
488.901	12747.41
489.105	12384.92
489.309	12323.48
489.512	12178.08
489.716	11950.75
489.92	11508.39
490.124	11379.37
490.328	11430.57
490.531	11086.51
490.735	11041.45
490.939	10535.6
491.143	10216.12
491.346	10166.97
491.55	10322.62
491.754	10068.67
491.958	9949.89
492.161	9687.75
492.365	9665.22
492.569	9499.33
492.772	9276.1
492.976	9095.88
493.18	9102.03
493.383	9059.02
493.587	8661.71
493.79	8936.14
493.994	8471.25
494.197	8286.93
494.401	8512.21
494.605	8348.37
494.808	8266.46
495.012	8071.9
495.215	8090.33
495.419	8061.66
495.622	7801.57
495.825	7842.53
496.029	7899.87
496.232	8178.39
496.436	7824.09
496.639	7863.01
496.843	7629.54
497.046	7762.65
497.249	7926.49
497.453	7738.08
497.656	7869.15
497.859	7695.07
498.063	7750.37
498.266	7989.98
498.469	7908.06
498.673	7770.85
498.876	7969.5
499.079	7813.85
499.282	7731.94
499.485	8196.82
499.689	8114.91
499.892	8207.06
500.095	8116.95
500.298	8157.91
500.501	8114.91
500.705	8413.91
500.908	8495.83
501.111	8334.04
501.314	8501.97
501.517	8581.84
501.72	8696.53
501.923	8581.84
502.126	8602.32
502.329	9157.32
502.532	8848.08
502.735	9052.88
502.938	9296.58
503.141	9239.24
503.344	9343.69
503.547	9581.25
503.75	9538.24
503.953	9757.38
504.156	9933.5
504.359	10121.91
504.562	10027.71
504.765	10248.89
504.968	10461.88
505.17	10711.73
505.373	10672.82
505.576	11037.36
505.779	11201.19
505.982	11469.48
506.185	11487.91
506.387	11467.43
506.59	11780.77
506.793	12141.21
506.996	12249.75
507.198	12808.85
507.401	12819.09
507.604	13120.14
507.807	13283.98
508.009	13431.43
508.212	13851.27
508.415	13978.24
508.617	14389.88
508.82	14529.14
509.022	14682.74
509.225	15053.42
509.428	15489.64
509.63	15815.27
509.833	15985.25
510.035	16777.81
510.238	16962.13
510.44	17093.2
510.643	17642.06
510.845	18057.79
511.048	18258.49
511.25	18688.57
511.453	18870.84
511.655	19933.73
511.858	20093.47
512.06	20126.24
512.262	20783.64
512.465	21109.27
512.667	21805.58
512.87	22204.93
513.072	22505.98
513.274	23294.45
513.477	23702
513.679	24388.07
513.881	25027.03
514.084	25616.85
514.286	25686.48
514.488	26192.33
514.69	27292.08
514.893	27521.46
515.095	27736.49
515.297	28756.38
515.499	29004.19
515.701	30126.47
515.904	30808.45
516.106	31527.28
516.308	31904.11
516.51	32835.94
516.712	33032.54
516.914	33698.13
517.116	34580.81
517.318	35273.02
517.52	35508.54
517.722	36202.8
517.925	36866.34
518.127	37845.27
518.329	38512.91
518.531	38881.54
518.733	39782.65
518.935	40481
519.136	40683.75
519.338	41492.7
519.54	42272.98
519.742	42815.69
519.944	43428.03
520.146	44234.93
520.348	44484.78
520.55	44959.91
520.752	45699.23
520.954	46461.07
521.155	46811.28
521.357	47640.7
521.559	47980.67
521.761	48879.72
521.963	48875.63
522.164	49162.34
522.366	49596.51
522.568	50335.83
522.77	50612.31
522.971	51378.25
523.173	50767.95
523.375	51595.33
523.576	51793.98
523.778	51769.41
523.98	52508.72
524.181	52865.07
524.383	52535.35
524.584	53301.29
524.786	53202.99
524.988	53071.92
525.189	53596.2
525.391	53610.53
525.592	53635.11
525.794	53422.12
525.995	53444.65
526.197	53307.43
526.398	53774.37
526.6	53577.76
526.801	53336.1
527.003	53049.39
527.204	53039.15
527.406	53430.31
527.607	52588.59
527.808	52738.1
528.01	51841.09
528.211	52226.1
528.412	52338.74
528.614	51867.71
528.815	51595.33
529.016	51370.05
529.218	50284.63
529.419	50370.64
529.62	49887.32
529.822	49399.91
530.023	48750.7
530.224	48924.78
530.425	48382.07
530.626	47417.47
530.828	46487.7
531.029	47597.7
531.23	46227.6
531.431	45471.9
531.632	45430.94
531.833	44986.53
532.035	43972.79
532.236	43833.53
532.437	43579.58
532.638	42985.67
532.839	42594.51
533.04	42023.12
533.241	41093.35
533.442	41287.9
533.643	40059.12
533.844	39536.89
534.045	39270.65
534.246	38861.06
534.447	38666.5
534.648	37826.84
534.849	37572.89
535.05	36837.67
535.251	36643.11
535.451	35340.6
535.652	35402.04
535.853	34808.13
536.054	34173.26
536.255	34015.57
536.456	33171.8
536.657	33417.56
536.857	32631.14
537.058	31897.97
537.259	32059.76
537.46	31777.14
537.66	30628.23
537.861	30681.47
538.062	30042.51
538.263	29614.48
538.463	29000.09
538.664	28821.92
538.865	28672.42
539.065	28664.22
539.266	27791.79
539.466	27951.53
539.667	27036.09
539.868	27298.23
540.068	26581.44
540.269	26073.54
540.469	26376.64
540.67	25362.9
540.87	25438.67
541.071	25045.46
541.271	24818.14
541.472	24523.23
541.672	24541.66
541.873	24009.19
542.073	23192.05
542.274	23366.13
542.474	23464.43
542.675	23009.78
542.875	22827.51
543.075	22123.01
543.276	21918.21
543.476	22221.31
543.676	21676.55
543.877	21518.86
544.077	21146.13
544.277	20947.48
544.478	20714.01
544.678	20435.49
544.878	20425.25
545.078	20273.7
545.279	19649.07
545.479	19620.39
545.679	19481.13
545.879	18965.04
546.079	18717.24
546.28	18518.59
546.48	18326.08
546.68	18084.42
546.88	18027.07
547.08	17345.1
547.28	17721.93
547.48	17467.98
547.68	17347.15
547.88	16628.31
548.081	16884.31
548.281	16431.71
548.481	16355.93
548.681	16319.07
548.881	15860.32
549.081	15647.33
549.28	15467.11
549.48	15463.02
549.68	15032.94
549.88	15129.2
550.08	14557.82
550.28	14609.01
550.48	14174.85
550.68	14117.5
550.88	14043.78
551.08	13644.42
551.279	13845.12
551.479	13103.76
551.679	13148.81
551.879	12968.59
552.079	12917.39
552.278	12518.04
552.478	12520.09
552.678	12173.98
552.878	12016.29
553.077	11766.43
553.277	11586.21
553.477	11555.49
553.676	11449
553.876	10838.7
554.076	10824.37
554.275	10887.86
554.475	10437.3
554.674	10707.63
554.874	10164.92
555.074	10093.24
555.273	10019.52
555.473	9933.5
555.672	9685.7
555.872	9544.39
556.071	9298.63
556.271	9165.51
556.47	9175.75
556.67	8651.47
556.869	8792.78
557.068	8655.57
557.268	8536.79
557.467	8252.12
557.667	8401.62
557.866	8270.55
558.065	7955.16
558.265	7824.09
558.464	7701.22
558.663	7719.65
558.863	7330.53
559.062	7396.07
559.261	7174.89
559.461	7234.28
559.66	6855.4
559.859	6748.91
560.058	6652.66
560.258	6546.16
560.457	6460.15
560.656	6597.36
560.855	6466.29
561.054	6259.45
561.253	6228.73
561.453	6077.18
561.652	5737.21
561.851	5860.09
562.05	5843.71
562.249	5675.77
562.448	5708.54
562.647	5419.78
562.846	5245.7
563.045	5401.35
563.244	5253.89
563.443	5200.65
563.642	5075.72
563.841	5063.43
564.04	4985.61
564.239	4936.46
564.438	4725.52
564.637	4696.85
564.836	4690.7
565.035	4455.19
565.234	4397.84
565.432	4494.1
565.631	4438.8
565.83	4393.75
566.029	4162.33
566.228	4156.18
566.427	4180.76
566.625	3975.96
566.824	3982.1
567.023	4023.06
567.222	3949.34
567.42	3879.71
567.619	3805.98
567.818	3822.36
568.016	3834.65
568.215	3644.19
568.414	3654.43
568.612	3492.64
568.811	3486.5
569.01	3445.54
569.208	3347.23
569.407	3412.77
569.605	3312.42
569.804	3433.25
570.002	3308.32
570.201	3177.25
570.4	3197.73
570.598	3033.9
570.797	2945.83
570.995	2847.53
571.193	2870.06
571.392	2886.44
571.59	2802.47
571.789	2874.15
571.987	2636.59
572.186	2681.64
572.384	2681.64
572.582	2579.25
572.781	2626.35
572.979	2480.94
573.177	2573.1
573.376	2583.34
573.574	2515.76
573.772	2370.35
573.971	2251.57
574.169	2196.28
574.367	2308.91
574.565	2181.94
574.763	2237.24
574.962	2153.27
575.16	2179.89
575.358	2093.88
575.556	2083.64
575.754	2007.86
575.952	1901.37
576.151	2026.29
576.349	2130.74
576.547	1850.17
576.745	1911.61
576.943	1835.83
577.141	1780.54
577.339	1669.95
577.537	1803.07
577.735	1786.68
577.933	1790.78
578.131	1596.22
578.329	1807.16
578.527	1618.75
578.725	1633.08
578.923	1395.52
579.121	1649.47
579.319	1409.86
579.516	1465.15
579.714	1577.79
579.912	1563.45
580.11	1375.04
580.308	1329.99
580.506	1469.25
580.704	1289.03
580.901	1289.03
581.099	1342.27
581.297	1282.88
581.495	1289.03
581.692	1231.68
581.89	1383.23
582.088	1241.92
582.285	1278.79
582.483	1102.66
582.681	1145.67
582.878	1104.71
583.076	1297.22
583.274	1176.39
583.471	1291.07
583.669	1114.95
583.866	1110.85
584.064	996.17
584.262	953.16
584.459	1039.17
584.657	953.16
584.854	1073.99
585.052	957.25
585.249	1018.69
585.447	887.62
585.644	861
585.841	1055.56
586.039	912.2
586.236	998.21
586.434	875.34
586.631	830.28
586.828	940.87
587.026	850.76
587.223	758.6
587.42	809.8
587.618	953.16
587.815	863.05
588.012	832.33
588.21	725.83
588.407	834.38
588.604	914.25
588.801	695.11
588.999	807.75
589.196	842.57
589.393	764.75
589.59	789.32
589.787	779.08
589.984	764.75
590.182	701.26
590.379	727.88
590.576	648.01
590.773	656.2
590.97	680.78
591.167	787.27
591.364	734.03
591.561	750.41
591.758	746.31
591.955	744.27
592.152	701.26
592.349	650.06
592.546	664.4
592.743	674.64
592.94	711.5
593.137	793.42
593.334	801.61
593.531	744.27
593.727	756.55
593.924	717.64
594.121	666.44
594.318	580.43
594.515	707.4
594.712	865.1
594.908	725.83
595.105	668.49
595.302	701.26
595.499	768.84
595.696	912.2
595.892	703.31
596.089	834.38
596.286	752.46
596.482	887.62
596.679	840.52
596.876	783.18
597.072	910.15
597.269	920.39
597.466	912.2
597.662	904.01
597.859	881.48
598.055	967.49
598.252	1088.32
598.448	1084.23
598.645	1033.03
598.841	1110.85
599.038	1286.98
599.234	1280.83
599.431	1284.93
599.627	1278.79
599.824	1284.93
600.02	1301.31
600.217	1508.16
600.413	1420.1
600.609	1579.84
600.806	1790.78
601.002	1751.87
601.198	1653.56
601.395	1846.07
601.591	1772.35
601.787	1868.6
601.984	1960.76
602.18	2130.74
602.376	2134.84
602.572	2210.61
602.769	2308.91
602.965	2345.78
603.161	2472.75
603.357	2550.57
603.553	2691.88
603.75	2781.99
603.946	2708.27
604.142	2804.52
604.338	3146.53
604.534	3091.24
604.73	3250.98
604.926	3146.53
605.122	3375.91
605.318	3447.58
605.514	3681.05
605.71	3619.61
605.906	3762.97
606.102	3961.62
606.298	4082.46
606.494	4260.63
606.69	4424.47
606.886	4422.42
607.082	4553.49
607.278	4735.76
607.474	4789
607.67	4825.87
607.866	4973.32
608.062	5399.3
608.257	5411.59
608.453	5411.59
608.649	5735.17
608.845	5667.58
609.041	5847.8
609.236	5968.63
609.432	6316.79
609.628	6494.96
609.824	6710
610.019	6630.13
610.215	6996.71
610.411	7209.7
610.606	7310.05
610.802	7486.18
610.998	7633.63
611.193	8100.57
611.389	8020.7
611.584	8452.82
611.78	8338.13
611.976	8866.51
612.171	9169.61
612.367	9335.49
612.562	9573.06
612.758	9810.62
612.953	9765.57
613.149	10224.31
613.344	10468.02
613.539	10920.62
613.735	10916.53
613.93	11299.5
614.126	11352.74
614.321	11995.81
614.517	12329.63
614.712	12624.53
614.907	12855.95
615.103	13083.28
615.298	13349.51
615.493	13900.42
615.688	13761.16
615.884	14723.7
616.079	14801.52
616.274	15434.35
616.47	15213.17
616.665	15684.2
616.86	16249.44
617.055	16722.52
617.25	16800.34
617.445	17676.87
617.641	17711.69
617.836	18291.26
618.031	18561.59
618.226	19395.12
618.421	19608.11
618.616	20374.05
618.811	20662.81
619.006	21289.49
619.201	21594.64
619.396	21940.74
619.591	22067.72
619.786	23065.08
619.981	23349.75
620.176	24168.93
620.371	24222.18
620.566	24908.25
620.761	25260.5
620.956	26003.91
621.151	26284.48
621.346	26927.55
621.541	27124.15
621.735	28213.67
621.93	28141.99
622.125	29108.63
622.32	28955.04
622.515	29923.72
622.709	30544.26
622.904	31082.88
623.099	31236.47
623.294	32178.54
623.488	32549.22
623.683	33200.47
623.878	33589.59
624.072	34212.17
624.267	34539.85
624.462	35377.47
624.656	35537.21
624.851	36159.79
625.046	36798.76
625.24	37075.23
625.435	37646.61
625.629	38414.6
625.824	38658.31
626.018	39129.34
626.213	39024.9
626.407	40374.51
626.602	39848.18
626.796	41089.25
626.991	41656.54
627.185	41793.75
627.38	42051.8
627.574	42088.66
627.768	42272.98
627.963	42201.3
628.157	42469.58
628.352	42690.76
628.546	42254.54
628.74	42817.74
628.935	42465.49
629.129	42709.19
629.323	42565.84
629.517	42426.57
629.712	42215.63
629.906	41713.88
630.1	41179.36
630.294	41208.03
630.489	40616.17
630.683	40298.73
630.877	39172.35
631.071	38988.03
631.265	38351.12
631.459	37243.17
631.653	36735.27
631.848	36004.14
632.042	35121.47
632.236	34548.04
632.43	33546.58
632.624	32817.5
632.818	31844.72
633.012	30566.79
633.206	29954.44
633.4	29094.3
633.594	27695.53
633.788	27130.3
633.982	25956.81
634.176	25063.89
634.369	24306.15
634.563	23093.75
634.757	22163.97
634.951	21942.79
635.145	21035.54
635.339	19939.88
635.533	19294.77
635.726	18541.11
635.92	17597
636.114	16896.6
636.308	16134.75
636.501	15665.77
636.695	14879.35
636.889	14242.43
637.083	13781.64
637.276	12970.64
637.47	12776.08
637.664	12272.28
637.857	11670.18
638.051	11264.68
638.244	10717.87
638.438	10277.56
638.632	10097.34
638.825	9468.61
639.019	9067.21
639.212	8876.75
639.406	8286.93
639.599	8028.89
639.793	7875.29
639.986	7596.77
640.18	7131.88
640.373	6843.12
640.567	6494.96
640.76	6449.91
640.954	6152.95
641.147	5769.98
641.34	5753.6
641.534	5616.38
641.727	5331.72
641.92	5278.47
642.114	4803.34
642.307	4733.71
642.5	4565.78
642.694	4272.92
642.887	4186.9
643.08	4217.62
643.273	3906.33
643.467	3638.05
643.66	3506.98
643.853	3509.02
644.046	3261.22
644.239	3171.11
644.432	2919.21
644.626	2781.99
644.819	2849.58
645.012	2650.92
645.205	2648.88
645.398	2646.83
645.591	2468.66
645.784	2278.19
645.977	2188.08
646.17	2288.43
646.363	2190.13
646.556	1868.6
646.749	1901.37
646.942	1805.11
647.135	1819.45
647.328	1692.48
647.521	1657.66
647.714	1585.98
647.907	1581.89
648.099	1379.14
648.292	1409.86
648.485	1407.81
648.678	1315.65
648.871	1188.68
649.064	1207.11
649.256	1133.38
649.449	1096.52
649.642	1020.74
649.835	1010.5
650.027	998.21
650.22	1088.32
650.413	891.72
650.605	1026.89
650.798	834.38
650.991	820.04
651.183	861
651.376	834.38
651.568	764.75
651.761	760.65
651.954	740.17
652.146	703.31
652.339	789.32
652.531	738.12
652.724	631.63
652.916	570.19
653.109	443.21
653.301	674.64
653.494	602.96
653.686	545.61
653.879	619.34
654.071	469.84
654.263	482.13
654.456	430.93
654.648	566.09
654.84	590.67
655.033	439.12
655.225	504.65
655.417	326.48
655.61	514.89
655.802	469.84
655.994	504.65
656.186	295.76
656.379	455.5
656.571	361.3
656.763	285.52
656.955	396.11
657.148	310.1
657.34	447.31
657.532	273.23
657.724	301.9
657.916	326.48
658.108	326.48
658.3	355.15
658.492	361.3
658.684	230.23
658.876	351.06
659.068	226.13
659.26	154.45
659.452	164.69
659.644	287.57
659.836	394.06
660.028	267.09
660.22	189.27
660.412	185.17
660.604	312.14
660.796	174.93
660.988	299.86
661.18	209.75
661.372	217.94
661.563	174.93
661.755	209.75
661.947	191.31
662.139	160.59
662.331	205.65
662.522	252.75
662.714	113.49
662.906	185.17
663.097	170.83
663.289	152.4
663.481	111.44
663.673	183.12
663.864	101.2
664.056	142.16
664.247	119.64
664.439	170.83
664.631	166.74
664.822	207.7
665.014	174.93
665.205	80.72
665.397	129.88
665.588	138.07
665.78	201.55
665.971	183.12
666.163	183.12
666.354	238.42
666.546	90.96
666.737	72.53
666.929	121.68
667.12	136.02
667.311	179.03
667.503	156.5
667.694	176.98
667.885	187.22
668.077	195.41
668.268	47.96
668.459	117.59
668.651	160.59
668.842	160.59
669.033	56.15
669.224	64.34
669.416	258.9
669.607	113.49
669.798	82.77
669.989	224.08
670.18	88.92
670.371	109.4
670.563	93.01
670.754	230.23
670.945	166.74
671.136	191.31
671.327	60.24
671.518	191.31
671.709	291.66
671.9	99.16
672.091	244.56
672.282	154.45
672.473	70.48
672.664	103.25
672.855	138.07
673.046	107.35
673.237	189.27
673.428	113.49
673.619	199.51
673.809	62.29
674	176.98
674.191	176.98
674.382	78.68
674.573	201.55
674.764	150.36
674.954	234.32
675.145	76.63
675.336	56.15
675.527	56.15
675.717	68.44
675.908	82.77
676.099	101.2
676.289	183.12
676.48	4.95
676.671	152.4
676.861	142.16
677.052	174.93
677.243	82.77
677.433	121.68
677.624	176.98
677.814	162.64
678.005	64.34
678.195	250.71
678.386	103.25
678.576	99.16
678.767	70.48
678.957	154.45
679.148	217.94
679.338	201.55
679.529	162.64
679.719	152.4
679.909	258.9
680.1	142.16
680.29	222.03
680.481	29.52
680.671	236.37
680.861	234.32
681.052	230.23
681.242	68.44
681.432	226.13
681.622	179.03
681.813	113.49
682.003	144.21
682.193	107.35
682.383	183.12
682.573	144.21
682.764	158.55
682.954	213.84
683.144	234.32
683.334	158.55
683.524	144.21
683.714	260.95
683.904	242.51
684.094	207.7
684.284	158.55
684.474	262.99
684.664	256.85
684.854	138.07
685.044	150.36
685.234	179.03
685.424	289.62
685.614	144.21
685.804	256.85
685.994	250.71
686.184	170.83
686.374	275.28
686.564	125.78
686.753	219.99
686.943	115.54
687.133	211.79
687.323	201.55
687.513	277.33
687.702	133.97
687.892	273.23
688.082	236.37
688.272	193.36
688.461	160.59
688.651	281.43
688.841	176.98
689.03	117.59
689.22	129.88
689.41	306
689.599	250.71
689.789	58.2
689.979	367.44
690.168	181.07
690.358	195.41
690.547	187.22
690.737	201.55
690.926	219.99
691.116	144.21
691.305	176.98
691.495	260.95
691.684	148.31
691.874	140.12
692.063	205.65
692.252	281.43
692.442	246.61
692.631	148.31
692.82	168.79
693.01	107.35
693.199	222.03
693.388	252.75
693.578	150.36
693.767	256.85
693.956	306
694.146	136.02
694.335	168.79
694.524	199.51
694.713	316.24
694.902	181.07
695.092	127.83
695.281	131.92
695.47	181.07
695.659	168.79
695.848	215.89
696.037	191.31
696.226	217.94
696.415	164.69
696.604	275.28
696.793	209.75
696.982	68.44
697.171	291.66
697.36	199.51
697.549	197.46
697.738	60.24
697.927	168.79
698.116	109.4
698.305	250.71
698.494	138.07
698.683	183.12
698.872	336.72
699.061	133.97
699.25	111.44
699.438	250.71
699.627	127.83
699.816	244.56
700.005	95.06
700.193	95.06
700.382	154.45
700.571	195.41
700.76	181.07
700.948	195.41
701.137	279.38
701.326	217.94
701.514	176.98
701.703	250.71
701.892	183.12
702.08	349.01
702.269	133.97
702.457	131.92
702.646	158.55
702.834	191.31
703.023	287.57
703.212	260.95
703.4	133.97
703.589	160.59
703.777	131.92
703.965	181.07
704.154	162.64
704.342	47.96
704.531	136.02
704.719	209.75
704.907	297.81
705.096	123.73
705.284	140.12
705.472	131.92
705.661	183.12
705.849	281.43
706.037	254.8
706.226	160.59
706.414	172.88
706.602	187.22
706.79	252.75
706.979	179.03
707.167	119.64
707.355	97.11
707.543	164.69
707.731	183.12
707.919	107.35
708.107	105.3
708.296	142.16
708.484	88.92
708.672	179.03
708.86	193.36
709.048	250.71
709.236	160.59
709.424	242.51
709.612	228.18
709.8	95.06
709.988	224.08
710.176	265.04
710.364	224.08
710.551	164.69
710.739	262.99
710.927	181.07
711.115	166.74
711.303	306
711.491	205.65
711.679	123.73
711.866	232.27
712.054	191.31
712.242	183.12
712.43	357.2
712.617	158.55
712.805	224.08
712.993	219.99
713.181	170.83
713.368	215.89
713.556	213.84
713.744	117.59
713.931	355.15
714.119	281.43
714.306	226.13
714.494	162.64
714.682	189.27
714.869	150.36
715.057	160.59
715.244	95.06
715.432	168.79
715.619	144.21
715.807	123.73
715.994	217.94
716.182	168.79
716.369	254.8
716.556	238.42
716.744	144.21
716.931	113.49
717.119	207.7
717.306	240.47
717.493	281.43
717.681	140.12
717.868	107.35
718.055	279.38
718.242	191.31
718.43	181.07
718.617	250.71
718.804	170.83
718.991	213.84
719.179	187.22
719.366	217.94
719.553	207.7
719.74	189.27
719.927	125.78
720.114	283.47
720.301	111.44
720.488	154.45
720.676	170.83
720.863	285.52
721.05	265.04
721.237	293.71
721.424	222.03
721.611	287.57
721.798	33.62
721.985	109.4
722.172	230.23
722.358	226.13
722.545	205.65
722.732	279.38
722.919	361.3
723.106	234.32
723.293	148.31
723.48	154.45
723.667	136.02
723.853	240.47
724.04	289.62
724.227	281.43
724.414	172.88
724.6	195.41
724.787	316.24
724.974	291.66
725.161	191.31
725.347	109.4
725.534	273.23
725.72	248.66
725.907	306
726.094	228.18
726.28	191.31
726.467	256.85
726.653	129.88
726.84	320.34
727.027	363.34
727.213	285.52
727.4	228.18
727.586	217.94
727.773	209.75
727.959	269.14
728.145	273.23
728.332	236.37
728.518	199.51
728.705	293.71
728.891	222.03
729.077	275.28
729.264	187.22
729.45	248.66
729.636	312.14
729.823	195.41
730.009	254.8
730.195	222.03
730.382	265.04
730.568	127.83
730.754	285.52
730.94	224.08
731.126	328.53
731.313	248.66
731.499	193.36
731.685	242.51
731.871	248.66
732.057	324.43
732.243	295.76
732.429	246.61
732.615	299.86
732.801	197.46
732.987	248.66
733.173	267.09
733.359	131.92
733.545	250.71
733.731	183.12
733.917	285.52
734.103	332.62
734.289	291.66
734.475	211.79
734.661	365.39
734.847	160.59
735.033	275.28
735.219	320.34
735.404	211.79
735.59	142.16
735.776	183.12
735.962	244.56
736.148	273.23
736.333	336.72
736.519	228.18
736.705	258.9
736.89	185.17
737.076	250.71
737.262	179.03
737.447	211.79
737.633	179.03
737.819	285.52
738.004	213.84
738.19	256.85
738.375	322.38
738.561	369.49
738.747	195.41
738.932	187.22
739.118	349.01
739.303	344.91
739.489	338.77
739.674	197.46
739.859	209.75
740.045	248.66
740.23	297.81
740.416	121.68
740.601	217.94
740.786	244.56
740.972	230.23
741.157	244.56
741.342	209.75
741.528	74.58
741.713	293.71
741.898	156.5
742.084	265.04
742.269	238.42
742.454	267.09
742.639	344.91
742.824	209.75
743.01	299.86
743.195	353.1
743.38	209.75
743.565	258.9
743.75	242.51
743.935	191.31
744.12	291.66
744.305	115.54
744.49	238.42
744.675	226.13
744.86	179.03
745.045	269.14
745.23	252.75
745.415	201.55
745.6	400.21
745.785	154.45
745.97	228.18
746.155	199.51
746.34	303.95
746.525	189.27
746.71	394.06
746.895	179.03
747.079	260.95
747.264	176.98
747.449	285.52
747.634	240.47
747.819	242.51
748.003	197.46
748.188	101.2
748.373	258.9
748.557	269.14
748.742	205.65
748.927	211.79
749.111	140.12
749.296	211.79
749.481	174.93
749.665	252.75
749.85	84.82
750.034	183.12
750.219	281.43
750.404	144.21
750.588	199.51
750.773	68.44
750.957	136.02
751.141	15.19
751.326	211.79
751.51	113.49
751.695	156.5
751.879	219.99
752.064	285.52
752.248	207.7
752.432	308.05
752.617	238.42
752.801	219.99
752.985	148.31
753.17	330.58
753.354	199.51
753.538	150.36
753.722	129.88
753.907	113.49
754.091	62.29
754.275	217.94
754.459	113.49
754.643	127.83
754.828	93.01
755.012	213.84
755.196	68.44
755.38	150.36
755.564	107.35
755.748	76.63
755.932	142.16
756.116	197.46
756.3	162.64
756.484	68.44
756.668	207.7
756.852	86.87
757.036	148.31
757.22	140.12
757.404	109.4
757.588	56.15
757.772	115.54
757.956	50
758.14	299.86
758.323	111.44
758.507	140.12
758.691	76.63
758.875	191.31
759.059	205.65
759.242	97.11
759.426	90.96
759.61	181.07
759.794	74.58
759.977	197.46
760.161	269.14
760.345	250.71
760.528	197.46
760.712	136.02
760.895	179.03
761.079	131.92
761.263	60.24
761.446	2.9
761.63	142.16
761.813	189.27
761.997	47.96
762.18	109.4
762.364	158.55
762.547	66.39
762.731	138.07
762.914	99.16
763.098	144.21
763.281	80.72
763.464	86.87
763.648	222.03
763.831	52.05
764.015	95.06
764.198	156.5
764.381	43.86
764.564	52.05
764.748	109.4
764.931	113.49
765.114	107.35
765.297	123.73
765.481	99.16
765.664	129.88
765.847	144.21
766.03	158.55
766.213	129.88
766.397	17.24
766.58	-7.34
766.763	117.59
766.946	107.35
767.129	86.87
767.312	-13.48
767.495	33.62
767.678	78.68
767.861	105.3
768.044	107.35
768.227	99.16
768.41	64.34
768.593	84.82
768.776	54.1
768.959	7
769.142	209.75
769.324	47.96
769.507	7
769.69	115.54
769.873	90.96
770.056	320.34
770.239	111.44
770.421	197.46
770.604	156.5
770.787	121.68
770.97	64.34
771.152	-19.63
771.335	131.92
771.518	127.83
771.7	127.83
771.883	205.65
772.066	74.58
772.248	64.34
772.431	285.52
772.613	93.01
772.796	82.77
772.978	117.59
773.161	125.78
773.343	27.48
773.526	109.4
773.708	-119.98
773.891	64.34
774.073	15.19
774.256	7
774.438	238.42
774.621	60.24
774.803	97.11
774.985	33.62
775.168	123.73
775.35	54.1
775.532	176.98
775.715	109.4
775.897	111.44
776.079	19.29
776.261	133.97
776.444	133.97
776.626	103.25
776.808	-5.29
776.99	-70.83
777.173	142.16
777.355	9.05
777.537	127.83
777.719	58.2
777.901	127.83
778.083	23.38
778.265	-38.06
778.447	160.59
778.629	-19.63
778.811	60.24
778.993	111.44
779.175	140.12
779.357	-9.39
779.539	-50.35
779.721	19.29
779.903	95.06
780.085	-23.72
780.267	117.59
780.449	101.2
780.631	148.31
780.812	88.92
780.994	50
781.176	72.53
781.358	131.92
781.54	-17.58
781.721	115.54
781.903	129.88
782.085	31.57
782.267	209.75
782.448	-36.01
782.63	19.29
782.812	125.78
782.993	15.19
783.175	152.4
783.357	105.3
783.538	31.57
783.72	9.05
783.901	78.68
784.083	101.2
784.264	39.76
784.446	-91.31
784.627	2.9
784.809	64.34
784.99	23.38
785.172	133.97
785.353	62.29
785.535	74.58
785.716	15.19
785.897	-9.39
786.079	-29.87
786.26	-40.11
786.441	78.68
786.623	-99.5
786.804	17.24
786.985	95.06
787.167	103.25
787.348	64.34
787.529	4.95
787.71	140.12
787.891	131.92
788.073	27.48
788.254	-66.73
788.435	136.02
788.616	17.24
788.797	-81.07
788.978	-3.24
789.159	-48.3
789.34	50
789.522	-36.01
789.703	19.29
789.884	23.38
790.065	17.24
790.246	103.25
790.427	-29.87
790.607	152.4
790.788	101.2
790.969	-105.64
791.15	54.1
791.331	-9.39
791.512	33.62
791.693	-7.34
791.874	-5.29
792.054	201.55
792.235	119.64
792.416	-19.63
792.597	-7.34
792.778	-5.29
792.958	-19.63
793.139	29.52
793.32	23.38
793.5	-66.73
793.681	156.5
793.862	158.55
794.042	7
794.223	-72.87
794.404	-66.73
794.584	-124.07
794.765	-11.43
794.945	23.38
795.126	82.77
795.306	111.44
795.487	33.62
795.667	-42.15
795.848	25.43
796.028	-9.39
796.209	4.95
796.389	-9.39
796.57	-42.15
796.75	-31.91
796.93	-15.53
797.111	23.38
797.291	-70.83
797.471	117.59
797.652	133.97
797.832	-3.24
798.012	97.11
798.192	19.29
798.373	2.9
798.553	97.11
798.733	105.3
798.913	-74.92
799.093	-15.53
799.274	-38.06
799.454	62.29
799.634	105.3
799.814	33.62
799.994	11.09
800.174	70.48
800.354	-68.78
800.534	-111.78
800.714	99.16
800.894	-5.29
801.074	-46.25
801.254	-29.87
801.434	140.12
801.614	-17.58
801.794	-44.2
801.974	1887.03
802.154	-13.48
802.334	123.73
802.514	-23.72
802.693	-7.34
802.873	-62.63
803.053	138.07
803.233	39.76
803.413	-36.01
803.592	-31.91
803.772	-91.31
803.952	4.95
804.131	-85.16
804.311	142.16
804.491	123.73
804.67	-50.35
804.85	-15.53
805.03	144.21
805.209	47.96
805.389	74.58
805.568	-46.25
805.748	-89.26
805.928	4.95
806.107	4.95
806.287	17.24
806.466	45.91
806.646	27.48
806.825	-44.2
807.004	-91.31
807.184	23.38
807.363	129.88
807.543	-21.67
807.722	-58.54
807.901	158.55
808.081	66.39
808.26	-244.9
808.439	-23.72
808.619	15.19
808.798	-31.91
808.977	43.86
809.156	101.2
809.336	-29.87
809.515	25.43
809.694	-76.97
809.873	-33.96
810.052	107.35
810.231	78.68
810.411	-25.77
810.59	70.48
810.769	4.95
810.948	58.2
811.127	-42.15
811.306	-15.53
811.485	21.33
811.664	187.22
811.843	-3.24
812.022	-21.67
812.201	56.15
812.38	21.33
812.559	-70.83
812.737	29.52
812.916	-60.59
813.095	-13.48
813.274	31.57
813.453	39.76
813.632	66.39
813.811	72.53
813.989	-72.87
814.168	19.29
814.347	-76.97
814.526	50
814.704	58.2
814.883	105.3
815.062	-52.39
815.24	88.92
815.419	-60.59
815.598	19.29
815.776	-109.74
815.955	9.05
816.133	-93.35
816.312	-48.3
816.49	15.19
816.669	-38.06
816.847	-56.49
817.026	-23.72
817.204	-21.67
817.383	-74.92
817.561	-5.29
817.74	66.39
817.918	19.29
818.097	-33.96
818.275	-19.63
818.453	27.48
818.632	43.86
818.81	0.85
818.988	-31.91
819.167	-27.82
819.345	25.43
819.523	-9.39
819.701	13.14
819.879	56.15
820.058	-40.11
820.236	62.29
820.414	-7.34
820.592	29.52
820.77	-33.96
820.948	-5.29
821.127	-52.39
821.305	9.05
821.483	-62.63
821.661	82.77
821.839	25.43
822.017	-76.97
822.195	-3.24
822.373	43.86
822.551	-19.63
822.729	35.67
822.907	74.58
823.085	35.67
823.262	39.76
823.44	13.14
823.618	-15.53
823.796	84.82
823.974	0.85
824.152	-15.53
824.329	43.86
824.507	35.67
824.685	27.48
824.863	-54.44
825.04	-81.07
825.218	35.67
825.396	25.43
825.574	4.95
825.751	47.96
825.929	43.86
826.107	-66.73
826.284	9.05
826.462	19.29
826.639	-58.54
826.817	-64.68
826.994	41.81
827.172	-76.97
827.349	111.44
827.527	11.09
827.704	-5.29
827.882	64.34
828.059	62.29
828.237	15.19
828.414	117.59
828.591	-95.4
828.769	4.95
828.946	-5.29
829.124	33.62
829.301	54.1
829.478	-15.53
829.655	-19.63
829.833	29.52
830.01	-185.51
830.187	-11.43
830.364	54.1
830.542	68.44
830.719	43.86
830.896	-36.01
831.073	41.81
831.25	27.48
831.427	7
831.604	21.33
831.782	-9.39
831.959	0.85
832.136	-33.96
832.313	37.72
832.49	-17.58
832.667	33.62
832.844	64.34
833.021	21.33
833.198	23.38
833.374	-38.06
833.551	7
833.728	-15.53
833.905	129.88
834.082	-93.35
834.259	-7.34
834.436	113.49
834.612	-5.29
834.789	72.53
834.966	-25.77
835.143	-66.73
835.319	-48.3
835.496	70.48
835.673	50
835.85	88.92
836.026	15.19
836.203	113.49
836.38	-91.31
836.556	-103.59
836.733	-83.11
836.909	90.96
837.086	-38.06
837.262	-115.88
837.439	-54.44
837.616	-1.19
837.792	-40.11
837.968	35.67
838.145	-91.31
838.321	76.63
838.498	-5.29
838.674	82.77
838.851	19.29
839.027	-54.44
839.203	-101.55
839.38	-5.29
839.556	-50.35
839.732	23.38
839.909	-21.67
840.085	-1.19
840.261	-99.5
840.437	37.72
840.614	-60.59
840.79	9.05
840.966	99.16
841.142	-21.67
841.318	-9.39
841.494	15.19
841.671	35.67
841.847	-117.93
842.023	-19.63
842.199	11.09
842.375	115.54
842.551	-109.74
842.727	-76.97
842.903	93.01
843.079	-89.26
843.255	70.48
843.431	25.43
843.607	27.48
843.783	-138.41
843.959	-7.34
844.134	-111.78
844.31	199.51
844.486	-64.68
844.662	-42.15
844.838	4.95
845.013	-5.29
845.189	78.68
845.365	99.16
845.541	39.76
845.716	37.72
845.892	86.87
846.068	39.76
846.244	-19.63
846.419	31.57
846.595	-58.54
846.77	13.14
846.946	72.53
847.122	-29.87
847.297	0.85
847.473	101.2
847.648	-27.82
847.824	-17.58
847.999	-117.93
848.175	-1.19
848.35	37.72
848.526	144.21
848.701	121.68
848.876	47.96
849.052	39.76
849.227	4.95
849.403	11.09
849.578	-72.87
849.753	33.62
849.929	74.58
850.104	-19.63
850.279	-31.91
850.454	-9.39
850.63	101.2
850.805	-40.11
850.98	4.95
851.155	-31.91
851.33	37.72
851.505	-36.01
851.681	125.78
851.856	-38.06
852.031	52.05
852.206	37.72
852.381	-52.39
852.556	-81.07
852.731	15.19
852.906	9.05
853.081	0.85
853.256	146.26
853.431	-36.01
853.606	25.43
853.781	-7.34
853.956	-97.45
854.131	56.15
854.305	-62.63
854.48	-5.29
854.655	-29.87
854.83	-46.25
855.005	60.24
855.18	-11.43
855.354	-31.91
855.529	-76.97
855.704	35.67
855.879	15.19
856.053	-132.26
856.228	37.72
856.403	-60.59
856.577	35.67
856.752	-46.25
856.926	-40.11
857.101	-29.87
857.276	-107.69
857.45	37.72
857.625	111.44
857.799	-9.39
857.974	-62.63
858.148	-107.69
858.323	-13.48
858.497	-5.29
858.672	-48.3
858.846	-7.34
859.02	41.81
859.195	-97.45
859.369	62.29
859.543	45.91
859.718	25.43
859.892	-1.19
860.066	68.44
860.241	-3.24
860.415	-54.44
860.589	21.33
860.763	15.19
860.938	-66.73
861.112	25.43
861.286	-5.29
861.46	-7.34
861.634	-21.67
861.808	35.67
861.982	-48.3
862.157	-81.07
862.331	-97.45
862.505	-36.01
862.679	-3.24
862.853	-44.2
863.027	21.33
863.201	166.74
863.375	-107.69
863.549	-11.43
863.722	39.76
863.896	82.77
864.07	-52.39
864.244	-44.2
864.418	15.19
864.592	4.95
864.766	68.44
864.939	17.24
865.113	-60.59
865.287	95.06
865.461	-107.69
865.634	17.24
865.808	-60.59
865.982	-1.19
866.156	-105.64
866.329	-91.31
866.503	21.33
866.676	140.12
866.85	-17.58
867.024	-79.02
867.197	76.63
867.371	-7.34
867.544	35.67
867.718	-56.49
867.891	70.48
868.065	-58.54
868.238	-31.91
868.412	50
868.585	-15.53
868.759	2.9
868.932	-93.35
869.105	-109.74
869.279	0.85
869.452	-162.98
869.625	60.24
869.799	-38.06
869.972	-68.78
870.145	-1.19
870.319	43.86
870.492	-52.39
870.665	-76.97
870.838	-36.01
871.011	-85.16
871.185	-46.25
871.358	-76.97
871.531	29.52
871.704	-15.53
871.877	37.72
872.05	-115.88
872.223	-23.72
872.396	93.01
872.569	-11.43
872.742	-70.83
872.915	0.85
873.088	-62.63
873.261	-93.35
873.434	-52.39
873.607	0.85
873.78	97.11
873.953	-257.19
874.126	76.63
874.299	35.67
874.471	-87.21
874.644	-31.91
874.817	13.14
874.99	117.59
875.163	43.86
875.335	54.1
875.508	-64.68
875.681	168.79
875.853	-38.06
876.026	-40.11
876.199	11.09
876.371	99.16
876.544	-19.63
876.717	47.96
876.889	-130.22
877.062	80.72
877.234	0.85
877.407	27.48
877.579	39.76
877.752	-64.68
877.924	7
878.097	-15.53
878.269	19.29
878.442	-56.49
878.614	-5.29
878.786	-25.77
878.959	-38.06
879.131	-19.63
879.303	-119.98
879.476	-17.58
879.648	66.39
879.82	-11.43
879.993	-38.06
880.165	-91.31
880.337	-111.78
880.509	27.48
880.681	-103.59
880.854	-64.68
881.026	54.1
881.198	152.4
881.37	43.86
881.542	-70.83
881.714	15.19
881.886	39.76
882.058	-62.63
882.23	-54.44
882.402	25.43
882.574	-13.48
882.746	86.87
882.918	68.44
883.09	-9.39
883.262	-89.26
883.434	-5.29
883.606	-91.31
883.778	-33.96
883.95	111.44
884.122	-17.58
884.293	88.92
884.465	25.43
884.637	68.44
884.809	-42.15
884.98	60.24
885.152	0.85
885.324	78.68
885.496	-25.77
885.667	-5.29
885.839	33.62
886.011	78.68
886.182	62.29
886.354	78.68
886.525	19.29
886.697	23.38
886.869	-29.87
887.04	-11.43
887.212	84.82
887.383	76.63
887.555	-83.11
887.726	-40.11
887.897	-27.82
888.069	-36.01
888.24	35.67
888.412	-27.82
888.583	-48.3
888.754	43.86
888.926	-68.78
889.097	-33.96
889.268	-58.54
889.44	-76.97
889.611	-46.25
889.782	-70.83
889.953	-101.55
890.125	193.36
890.296	-17.58
890.467	-15.53
890.638	-85.16
890.809	-36.01
890.98	-11.43
891.151	-29.87
891.323	107.35
891.494	9.05
891.665	-25.77
891.836	-38.06
892.007	-117.93
892.178	54.1
892.349	-48.3
892.52	-74.92
892.691	17.24
892.862	7
893.032	-83.11
893.203	-126.12
893.374	50
893.545	93.01
893.716	-48.3
893.887	-5.29
894.057	-48.3
894.228	-44.2
894.399	-42.15
894.57	62.29
894.74	70.48
894.911	27.48
895.082	-70.83
895.253	-70.83
895.423	19.29
895.594	76.63
895.764	90.96
895.935	-97.45
896.106	-9.39
896.276	-38.06
896.447	52.05
896.617	-27.82
896.788	-81.07
896.958	-60.59
897.129	-64.68
897.299	-9.39
897.47	37.72
897.64	86.87
897.81	19.29
897.981	9.05
898.151	-21.67
898.322	52.05
898.492	78.68
898.662	-128.17
898.832	-27.82
899.003	-17.58
899.173	56.15
899.343	-68.78
899.513	-97.45
