Data from USB4F104151__28__10-42-15-284.txt Node

Date: Wed Feb 26 10:42:15 EST 2025
User: louis
Spectrometer: USB4F10415
Trigger mode: 4
Integration Time (sec): 1.000000E-1
Scans to average: 1
Electric dark correction enabled: true
Nonlinearity correction enabled: false
Boxcar width: 0
XAxis mode: Wavelengths
Number of Pixels in Spectrum: 3648
>>>>>Begin Spectral Data<<<<<
178.204	-344.74
178.424	-344.74
178.644	-344.74
178.864	-428.71
179.084	-408.23
179.304	-27.31
179.524	-41.64
179.744	81.24
179.964	5.46
180.184	124.24
180.404	32.08
180.624	-62.12
180.844	25.94
181.064	-193.19
181.283	30.04
181.503	-31.4
181.723	56.66
181.943	-78.51
182.163	148.82
182.383	1.37
182.602	34.13
182.822	130.39
183.042	36.18
183.262	-25.26
183.482	1.37
183.701	7.51
183.921	97.62
184.141	-17.07
184.361	97.62
184.58	109.91
184.8	13.65
185.02	7.51
185.239	91.48
185.459	38.23
185.679	136.53
185.898	-29.35
186.118	30.04
186.338	19.8
186.557	56.66
186.777	-76.46
186.997	25.94
187.216	32.08
187.436	202.07
187.655	79.19
187.875	114
188.095	-4.78
188.314	159.06
188.534	64.85
188.753	-41.64
188.973	105.81
189.192	128.34
189.412	15.7
189.631	27.99
189.851	27.99
190.07	83.28
190.29	-25.26
190.509	23.89
190.729	17.75
190.948	128.34
191.168	208.21
191.387	7.51
191.607	7.51
191.826	109.91
192.045	50.52
192.265	17.75
192.484	95.57
192.704	21.84
192.923	-101.03
193.142	173.39
193.362	120.15
193.581	159.06
193.8	116.05
194.02	64.85
194.239	89.43
194.458	75.09
194.678	32.08
194.897	-6.83
195.116	48.47
195.335	27.99
195.555	11.61
195.774	15.7
195.993	169.3
196.212	-25.26
196.432	-43.69
196.651	-31.4
196.87	5.46
197.089	243.03
197.308	89.43
197.528	32.08
197.747	-4.78
197.966	46.42
198.185	146.77
198.404	-31.4
198.623	107.86
198.842	146.77
199.062	71
199.281	17.75
199.5	142.68
199.719	105.81
199.938	27.99
200.157	44.37
200.376	7.51
200.595	163.15
200.814	11.61
201.033	25.94
201.252	161.11
201.471	34.13
201.69	66.9
201.909	54.61
202.128	89.43
202.347	-35.5
202.566	1.37
202.785	-21.16
203.004	-64.17
203.223	281.94
203.442	-0.68
203.661	-76.46
203.879	48.47
204.098	179.54
204.317	-80.55
204.536	71
204.755	97.62
204.974	159.06
205.193	5.46
205.411	187.73
205.63	101.72
205.849	71
206.068	21.84
206.287	11.61
206.505	83.28
206.724	27.99
206.943	-0.68
207.162	36.18
207.381	46.42
207.599	66.9
207.818	17.75
208.037	-2.73
208.255	42.32
208.474	46.42
208.693	91.48
208.911	75.09
209.13	130.39
209.349	66.9
209.567	21.84
209.786	66.9
210.005	60.76
210.223	89.43
210.442	-49.83
210.661	-33.45
210.879	52.56
211.098	40.28
211.316	46.42
211.535	50.52
211.753	36.18
211.972	120.15
212.191	46.42
212.409	42.32
212.628	116.05
212.846	-23.21
213.065	111.96
213.283	122.2
213.502	114
213.72	-6.83
213.938	7.51
214.157	-21.16
214.375	105.81
214.594	-21.16
214.812	34.13
215.031	42.32
215.249	-6.83
215.467	50.52
215.686	-29.35
215.904	25.94
216.122	52.56
216.341	161.11
216.559	1.37
216.778	93.52
216.996	101.72
217.214	81.24
217.432	38.23
217.651	-78.51
217.869	5.46
218.087	44.37
218.306	-17.07
218.524	38.23
218.742	-8.87
218.96	95.57
219.179	-62.12
219.397	7.51
219.615	161.11
219.833	118.1
220.051	-17.07
220.27	42.32
220.488	85.33
220.706	118.1
220.924	-41.64
221.142	-53.93
221.36	54.61
221.578	89.43
221.796	-82.6
222.015	101.72
222.233	11.61
222.451	236.88
222.669	19.8
222.887	-19.11
223.105	-131.75
223.323	15.7
223.541	-6.83
223.759	56.66
223.977	42.32
224.195	175.44
224.413	97.62
224.631	-6.83
224.849	128.34
225.067	206.16
225.285	73.04
225.503	-2.73
225.721	-119.46
225.939	15.7
226.157	103.76
226.375	179.54
226.592	-37.55
226.81	97.62
227.028	103.76
227.246	77.14
227.464	7.51
227.682	118.1
227.9	34.13
228.117	79.19
228.335	64.85
228.553	126.29
228.771	91.48
228.989	68.95
229.206	3.41
229.424	3.41
229.642	32.08
229.86	42.32
230.077	99.67
230.295	48.47
230.513	118.1
230.731	83.28
230.948	161.11
231.166	91.48
231.384	-43.69
231.601	-2.73
231.819	195.92
232.037	-60.07
232.254	-17.07
232.472	56.66
232.689	87.38
232.907	173.39
233.125	-23.21
233.342	-55.98
233.56	1.37
233.777	-2.73
233.995	-60.07
234.213	132.44
234.43	-4.78
234.648	13.65
234.865	42.32
235.083	81.24
235.3	13.65
235.518	142.68
235.735	183.63
235.953	134.48
236.17	52.56
236.388	50.52
236.605	17.75
236.822	165.2
237.04	109.91
237.257	34.13
237.475	-82.6
237.692	58.71
237.909	138.58
238.127	-23.21
238.344	114
238.562	97.62
238.779	-41.64
238.996	-66.22
239.214	122.2
239.431	95.57
239.648	15.7
239.865	134.48
240.083	138.58
240.3	5.46
240.517	27.99
240.735	46.42
240.952	183.63
241.169	68.95
241.386	58.71
241.603	25.94
241.821	19.8
242.038	77.14
242.255	101.72
242.472	-17.07
242.689	111.96
242.907	62.8
243.124	95.57
243.341	73.04
243.558	-10.92
243.775	-41.64
243.992	-49.83
244.209	111.96
244.426	120.15
244.643	103.76
244.86	79.19
245.078	68.95
245.295	89.43
245.512	9.56
245.729	-0.68
245.946	46.42
246.163	30.04
246.38	5.46
246.597	89.43
246.814	9.56
247.031	52.56
247.248	-45.74
247.464	101.72
247.681	30.04
247.898	62.8
248.115	68.95
248.332	3.41
248.549	154.96
248.766	116.05
248.983	183.63
249.2	62.8
249.417	148.82
249.633	36.18
249.85	85.33
250.067	19.8
250.284	130.39
250.501	103.76
250.717	40.28
250.934	-25.26
251.151	23.89
251.368	1.37
251.585	83.28
251.801	7.51
252.018	11.61
252.235	126.29
252.451	-70.31
252.668	-21.16
252.885	138.58
253.102	138.58
253.318	3.41
253.535	13.65
253.752	66.9
253.968	15.7
254.185	-58.03
254.401	-10.92
254.618	-25.26
254.835	7.51
255.051	140.63
255.268	120.15
255.484	-33.45
255.701	36.18
255.917	58.71
256.134	64.85
256.351	-55.98
256.567	-90.79
256.784	44.37
257	-53.93
257.217	75.09
257.433	85.33
257.65	54.61
257.866	89.43
258.082	13.65
258.299	13.65
258.515	134.48
258.732	52.56
258.948	-62.12
259.165	36.18
259.381	9.56
259.597	114
259.814	44.37
260.03	30.04
260.246	-33.45
260.463	161.11
260.679	126.29
260.895	44.37
261.112	142.68
261.328	13.65
261.544	7.51
261.761	75.09
261.977	13.65
262.193	34.13
262.409	118.1
262.626	64.85
262.842	68.95
263.058	-17.07
263.274	140.63
263.49	44.37
263.707	21.84
263.923	105.81
264.139	-55.98
264.355	62.8
264.571	140.63
264.787	95.57
265.004	157.01
265.22	46.42
265.436	50.52
265.652	-62.12
265.868	44.37
266.084	-6.83
266.3	-19.11
266.516	-135.85
266.732	79.19
266.948	93.52
267.164	17.75
267.38	50.52
267.596	87.38
267.812	210.26
268.028	118.1
268.244	7.51
268.46	21.84
268.676	48.47
268.892	99.67
269.108	105.81
269.324	-49.83
269.54	23.89
269.756	7.51
269.972	-86.7
270.188	77.14
270.403	-6.83
270.619	-4.78
270.835	83.28
271.051	77.14
271.267	15.7
271.483	52.56
271.698	85.33
271.914	191.83
272.13	30.04
272.346	56.66
272.562	46.42
272.777	128.34
272.993	19.8
273.209	25.94
273.425	73.04
273.64	-39.59
273.856	89.43
274.072	7.51
274.287	-10.92
274.503	130.39
274.719	9.56
274.934	42.32
275.15	-98.99
275.366	56.66
275.581	-45.74
275.797	3.41
276.012	52.56
276.228	-21.16
276.444	64.85
276.659	52.56
276.875	-6.83
277.09	44.37
277.306	-31.4
277.521	27.99
277.737	75.09
277.952	64.85
278.168	58.71
278.383	25.94
278.599	34.13
278.814	148.82
279.03	40.28
279.245	109.91
279.461	1.37
279.676	114
279.892	-43.69
280.107	3.41
280.322	-31.4
280.538	68.95
280.753	-31.4
280.969	-0.68
281.184	52.56
281.399	122.2
281.615	52.56
281.83	54.61
282.045	-60.07
282.26	38.23
282.476	62.8
282.691	142.68
282.906	103.76
283.122	142.68
283.337	-27.31
283.552	56.66
283.767	-19.11
283.983	210.26
284.198	27.99
284.413	21.84
284.628	-17.07
284.843	87.38
285.058	95.57
285.274	3.41
285.489	-31.4
285.704	73.04
285.919	27.99
286.134	-2.73
286.349	105.81
286.564	109.91
286.779	105.81
286.995	-4.78
287.21	-37.55
287.425	83.28
287.64	38.23
287.855	116.05
288.07	-25.26
288.285	126.29
288.5	50.52
288.715	77.14
288.93	-19.11
289.145	19.8
289.36	52.56
289.575	5.46
289.79	161.11
290.004	25.94
290.219	118.1
290.434	21.84
290.649	21.84
290.864	38.23
291.079	-4.78
291.294	66.9
291.509	32.08
291.724	-43.69
291.938	-6.83
292.153	32.08
292.368	15.7
292.583	130.39
292.798	75.09
293.012	79.19
293.227	32.08
293.442	38.23
293.657	130.39
293.871	128.34
294.086	23.89
294.301	261.46
294.516	52.56
294.73	1.37
294.945	19.8
295.16	40.28
295.374	126.29
295.589	157.01
295.804	60.76
296.018	111.96
296.233	167.25
296.447	103.76
296.662	-6.83
296.877	189.78
297.091	42.32
297.306	83.28
297.52	93.52
297.735	56.66
297.949	11.61
298.164	73.04
298.378	85.33
298.593	21.84
298.807	13.65
299.022	42.32
299.236	95.57
299.451	23.89
299.665	5.46
299.88	27.99
300.094	97.62
300.309	42.32
300.523	23.89
300.737	48.47
300.952	83.28
301.166	99.67
301.381	-55.98
301.595	5.46
301.809	19.8
302.024	77.14
302.238	-78.51
302.452	93.52
302.667	5.46
302.881	202.07
303.095	36.18
303.309	144.72
303.524	34.13
303.738	38.23
303.952	44.37
304.166	60.76
304.381	-88.75
304.595	185.68
304.809	-23.21
305.023	54.61
305.237	25.94
305.452	15.7
305.666	91.48
305.88	89.43
306.094	111.96
306.308	40.28
306.522	109.91
306.736	97.62
306.95	87.38
307.164	77.14
307.379	36.18
307.593	116.05
307.807	146.77
308.021	130.39
308.235	32.08
308.449	-45.74
308.663	109.91
308.877	173.39
309.091	30.04
309.305	87.38
309.519	-8.87
309.733	140.63
309.947	-10.92
310.161	140.63
310.374	118.1
310.588	60.76
310.802	-4.78
311.016	64.85
311.23	36.18
311.444	-60.07
311.658	5.46
311.872	91.48
312.085	85.33
312.299	118.1
312.513	89.43
312.727	75.09
312.941	-51.88
313.154	95.57
313.368	85.33
313.582	99.67
313.796	83.28
314.009	15.7
314.223	165.2
314.437	130.39
314.651	73.04
314.864	-25.26
315.078	73.04
315.292	-0.68
315.505	7.51
315.719	95.57
315.933	77.14
316.146	-17.07
316.36	30.04
316.573	79.19
316.787	204.11
317.001	87.38
317.214	34.13
317.428	103.76
317.641	19.8
317.855	21.84
318.068	116.05
318.282	85.33
318.495	154.96
318.709	91.48
318.922	15.7
319.136	144.72
319.349	40.28
319.563	-37.55
319.776	109.91
319.99	-4.78
320.203	81.24
320.417	103.76
320.63	99.67
320.843	175.44
321.057	128.34
321.27	73.04
321.483	95.57
321.697	118.1
321.91	1.37
322.124	38.23
322.337	111.96
322.55	-25.26
322.763	48.47
322.977	1.37
323.19	-39.59
323.403	-4.78
323.617	71
323.83	138.58
324.043	-29.35
324.256	81.24
324.469	-19.11
324.683	118.1
324.896	30.04
325.109	3.41
325.322	-41.64
325.535	124.24
325.748	48.47
325.962	48.47
326.175	93.52
326.388	9.56
326.601	83.28
326.814	99.67
327.027	58.71
327.24	118.1
327.453	-74.41
327.666	132.44
327.879	89.43
328.092	118.1
328.305	40.28
328.518	25.94
328.731	1.37
328.944	68.95
329.157	54.61
329.37	-41.64
329.583	183.63
329.796	140.63
330.009	36.18
330.222	64.85
330.435	58.71
330.648	130.39
330.861	77.14
331.073	19.8
331.286	71
331.499	105.81
331.712	17.75
331.925	77.14
332.138	42.32
332.35	126.29
332.563	48.47
332.776	148.82
332.989	32.08
333.202	-60.07
333.414	17.75
333.627	34.13
333.84	27.99
334.053	111.96
334.265	83.28
334.478	-37.55
334.691	-15.02
334.903	103.76
335.116	-6.83
335.329	-62.12
335.541	161.11
335.754	236.88
335.966	7.51
336.179	91.48
336.392	-6.83
336.604	25.94
336.817	103.76
337.029	85.33
337.242	85.33
337.454	89.43
337.667	32.08
337.88	136.53
338.092	34.13
338.305	105.81
338.517	-2.73
338.729	-66.22
338.942	25.94
339.154	-68.27
339.367	-21.16
339.579	97.62
339.792	7.51
340.004	109.91
340.217	54.61
340.429	77.14
340.641	-4.78
340.854	-35.5
341.066	54.61
341.278	81.24
341.491	144.72
341.703	-19.11
341.915	48.47
342.128	60.76
342.34	9.56
342.552	-58.03
342.764	25.94
342.977	-4.78
343.189	30.04
343.401	64.85
343.613	34.13
343.826	30.04
344.038	17.75
344.25	142.68
344.462	15.7
344.674	79.19
344.886	-21.16
345.099	99.67
345.311	77.14
345.523	-27.31
345.735	-80.55
345.947	89.43
346.159	64.85
346.371	15.7
346.583	30.04
346.795	216.4
347.007	-15.02
347.219	15.7
347.431	38.23
347.643	68.95
347.855	32.08
348.067	58.71
348.279	-25.26
348.491	-10.92
348.703	23.89
348.915	13.65
349.127	-6.83
349.339	66.9
349.551	13.65
349.763	68.95
349.975	75.09
350.187	111.96
350.399	130.39
350.61	81.24
350.822	44.37
351.034	46.42
351.246	48.47
351.458	75.09
351.669	144.72
351.881	146.77
352.093	140.63
352.305	11.61
352.517	38.23
352.728	128.34
352.94	54.61
353.152	109.91
353.363	11.61
353.575	75.09
353.787	99.67
353.999	38.23
354.21	169.3
354.422	-8.87
354.633	46.42
354.845	9.56
355.057	44.37
355.268	73.04
355.48	30.04
355.692	-17.07
355.903	13.65
356.115	-2.73
356.326	-15.02
356.538	140.63
356.749	148.82
356.961	195.92
357.172	36.18
357.384	9.56
357.595	187.73
357.807	34.13
358.018	15.7
358.23	109.91
358.441	220.5
358.653	81.24
358.864	130.39
359.075	-0.68
359.287	-37.55
359.498	93.52
359.709	48.47
359.921	19.8
360.132	73.04
360.344	11.61
360.555	-15.02
360.766	-58.03
360.977	-4.78
361.189	114
361.4	66.9
361.611	101.72
361.823	152.91
362.034	7.51
362.245	-19.11
362.456	5.46
362.667	56.66
362.879	40.28
363.09	62.8
363.301	54.61
363.512	44.37
363.723	-49.83
363.935	-39.59
364.146	118.1
364.357	32.08
364.568	64.85
364.779	-8.87
364.99	171.35
365.201	-12.97
365.412	95.57
365.623	-10.92
365.834	75.09
366.045	62.8
366.256	87.38
366.467	124.24
366.678	99.67
366.889	42.32
367.1	44.37
367.311	206.16
367.522	58.71
367.733	99.67
367.944	73.04
368.155	50.52
368.366	105.81
368.577	202.07
368.788	146.77
368.999	7.51
369.209	54.61
369.42	206.16
369.631	212.31
369.842	114
370.053	9.56
370.264	62.8
370.474	19.8
370.685	101.72
370.896	32.08
371.107	103.76
371.317	73.04
371.528	25.94
371.739	111.96
371.95	107.86
372.16	73.04
372.371	-33.45
372.582	42.32
372.792	101.72
373.003	-19.11
373.214	23.89
373.424	187.73
373.635	-66.22
373.846	189.78
374.056	25.94
374.267	27.99
374.477	89.43
374.688	-10.92
374.898	93.52
375.109	99.67
375.319	124.24
375.53	1.37
375.74	93.52
375.951	46.42
376.161	91.48
376.372	130.39
376.582	-10.92
376.793	97.62
377.003	46.42
377.214	-39.59
377.424	101.72
377.635	87.38
377.845	21.84
378.055	150.87
378.266	-45.74
378.476	77.14
378.686	136.53
378.897	93.52
379.107	150.87
379.317	48.47
379.528	-4.78
379.738	167.25
379.948	-78.51
380.158	111.96
380.369	15.7
380.579	85.33
380.789	17.75
380.999	111.96
381.21	181.59
381.42	243.03
381.63	122.2
381.84	97.62
382.05	118.1
382.261	130.39
382.471	167.25
382.681	-21.16
382.891	150.87
383.101	109.91
383.311	-92.84
383.521	21.84
383.731	81.24
383.941	150.87
384.151	101.72
384.361	-41.64
384.571	23.89
384.781	-0.68
384.991	214.35
385.201	165.2
385.411	122.2
385.621	77.14
385.831	75.09
386.041	46.42
386.251	9.56
386.461	161.11
386.671	25.94
386.881	101.72
387.091	21.84
387.301	122.2
387.511	25.94
387.72	81.24
387.93	163.15
388.14	-45.74
388.35	3.41
388.56	132.44
388.769	132.44
388.979	66.9
389.189	-21.16
389.399	83.28
389.609	101.72
389.818	101.72
390.028	136.53
390.238	99.67
390.447	-29.35
390.657	66.9
390.867	64.85
391.076	-10.92
391.286	95.57
391.496	32.08
391.705	89.43
391.915	152.91
392.125	101.72
392.334	13.65
392.544	75.09
392.753	30.04
392.963	58.71
393.172	77.14
393.382	85.33
393.591	165.2
393.801	1.37
394.01	150.87
394.22	40.28
394.429	46.42
394.639	-25.26
394.848	17.75
395.058	11.61
395.267	38.23
395.477	87.38
395.686	124.24
395.895	130.39
396.105	148.82
396.314	52.56
396.524	54.61
396.733	52.56
396.942	132.44
397.152	25.94
397.361	146.77
397.57	118.1
397.78	52.56
397.989	136.53
398.198	212.31
398.407	48.47
398.617	3.41
398.826	54.61
399.035	27.99
399.244	157.01
399.453	27.99
399.663	1.37
399.872	97.62
400.081	-37.55
400.29	126.29
400.499	-47.79
400.708	171.35
400.917	-4.78
401.127	-4.78
401.336	42.32
401.545	179.54
401.754	154.96
401.963	50.52
402.172	5.46
402.381	21.84
402.59	87.38
402.799	68.95
403.008	146.77
403.217	62.8
403.426	87.38
403.635	-51.88
403.844	-29.35
404.053	56.66
404.262	25.94
404.471	167.25
404.68	54.61
404.888	17.75
405.097	-8.87
405.306	36.18
405.515	154.96
405.724	93.52
405.933	68.95
406.142	68.95
406.35	134.48
406.559	30.04
406.768	87.38
406.977	183.63
407.185	81.24
407.394	50.52
407.603	-17.07
407.812	138.58
408.02	165.2
408.229	97.62
408.438	30.04
408.646	87.38
408.855	21.84
409.064	122.2
409.272	7.51
409.481	128.34
409.69	-12.97
409.898	23.89
410.107	128.34
410.315	107.86
410.524	54.61
410.733	62.8
410.941	99.67
411.15	60.76
411.358	126.29
411.567	165.2
411.775	89.43
411.984	13.65
412.192	157.01
412.401	46.42
412.609	171.35
412.818	103.76
413.026	171.35
413.234	116.05
413.443	40.28
413.651	5.46
413.86	21.84
414.068	103.76
414.276	171.35
414.485	46.42
414.693	128.34
414.901	181.59
415.11	118.1
415.318	56.66
415.526	95.57
415.734	193.87
415.943	71
416.151	140.63
416.359	-47.79
416.567	138.58
416.776	175.44
416.984	118.1
417.192	114
417.4	-19.11
417.608	19.8
417.817	99.67
418.025	128.34
418.233	214.35
418.441	-8.87
418.649	-10.92
418.857	126.29
419.065	157.01
419.273	21.84
419.481	62.8
419.689	124.24
419.897	83.28
420.105	3.41
420.313	159.06
420.521	193.87
420.729	208.21
420.937	13.65
421.145	-10.92
421.353	126.29
421.561	169.3
421.769	71
421.977	-6.83
422.185	165.2
422.393	34.13
422.601	197.97
422.809	56.66
423.017	77.14
423.224	126.29
423.432	111.96
423.64	144.72
423.848	64.85
424.056	17.75
424.263	124.24
424.471	93.52
424.679	234.83
424.887	-43.69
425.094	224.59
425.302	167.25
425.51	58.71
425.718	152.91
425.925	52.56
426.133	66.9
426.341	187.73
426.548	81.24
426.756	87.38
426.964	116.05
427.171	-17.07
427.379	179.54
427.586	130.39
427.794	60.76
428.001	161.11
428.209	93.52
428.417	312.66
428.624	152.91
428.832	126.29
429.039	138.58
429.247	152.91
429.454	204.11
429.662	181.59
429.869	126.29
430.076	183.63
430.284	261.46
430.491	226.64
430.699	193.87
430.906	265.55
431.114	152.91
431.321	296.27
431.528	200.02
431.736	216.4
431.943	179.54
432.15	144.72
432.358	261.46
432.565	290.13
432.772	91.48
432.979	300.37
433.187	167.25
433.394	337.23
433.601	183.63
433.808	218.45
434.016	365.9
434.223	300.37
434.43	271.7
434.637	326.99
434.844	322.9
435.052	308.56
435.259	378.19
435.466	421.2
435.673	378.19
435.88	372.05
436.087	472.4
436.294	546.12
436.501	431.44
436.708	392.53
436.915	468.3
437.122	437.58
437.329	445.77
437.537	447.82
437.743	445.77
437.95	611.66
438.157	523.6
438.364	484.69
438.571	570.7
438.778	671.05
438.985	607.56
439.192	767.31
439.399	697.67
439.606	699.72
439.813	740.68
440.02	806.22
440.227	916.81
440.433	908.62
440.64	763.21
440.847	734.54
441.054	873.8
441.261	1094.98
441.467	859.46
441.674	888.14
441.881	1064.26
442.088	1008.97
442.294	1142.08
442.501	1037.64
442.708	1125.7
442.914	1189.19
443.121	1199.43
443.328	1256.77
443.534	1365.31
443.741	1338.69
443.948	1256.77
444.154	1529.15
444.361	1674.56
444.568	1492.29
444.774	1553.73
444.981	1492.29
445.187	1752.38
445.394	1719.61
445.6	1654.08
445.807	2002.23
446.013	1961.27
446.22	1869.11
446.426	2071.86
446.633	2260.27
446.839	2395.44
447.046	2131.25
447.252	2420.02
447.459	2485.55
447.665	2506.03
447.871	2555.18
448.078	2878.76
448.284	2821.42
448.491	2968.87
448.697	3101.99
448.903	3206.44
449.11	3394.85
449.316	3323.17
449.522	3482.91
449.728	3593.5
449.935	3689.76
450.141	3831.07
450.347	4087.06
450.553	4001.05
450.76	4062.49
450.966	4418.83
451.172	4484.37
451.378	4666.64
451.584	4734.22
451.791	5031.18
451.997	5086.47
452.203	5383.43
452.409	5608.7
452.615	5811.45
452.821	5725.44
453.027	5733.63
453.233	6528.24
453.44	6313.2
453.646	6657.26
453.852	6874.35
454.058	7199.98
454.264	7439.59
454.47	7783.65
454.676	7843.04
454.882	8637.65
455.088	8318.17
455.294	8793.3
455.5	9428.17
455.705	9761.98
455.911	9739.46
456.117	10110.14
456.323	10591.41
456.529	10370.23
456.735	11394.22
456.941	11787.43
457.147	12051.61
457.352	12348.57
457.558	12911.76
457.764	13579.4
457.97	14023.81
458.176	14464.12
458.381	15428.71
458.587	15369.32
458.793	16374.88
458.999	16161.89
459.204	18445.37
459.41	19119.15
459.616	18822.2
459.821	19766.31
460.027	20706.33
460.233	21634.06
460.438	21693.45
460.644	22881.27
460.85	22848.5
461.055	24026.09
461.261	25105.37
461.466	24738.78
461.672	25000.92
461.878	27921.32
462.083	27892.65
462.289	28484.51
462.494	29647.76
462.7	29952.91
462.905	30079.88
463.111	32815.97
463.316	34290.51
463.522	34779.97
463.727	35701.56
463.932	37145.37
464.138	38431.5
464.343	39922.42
464.549	40225.52
464.754	43193.03
464.959	44255.92
465.165	44511.92
465.37	44636.84
465.575	44638.89
465.781	47538.82
465.986	48718.45
466.191	48128.63
466.397	48771.69
466.602	47522.43
466.807	49994.33
467.012	50877
467.218	51753.54
467.423	52169.27
467.628	53279.27
467.833	56066.56
468.038	54845.97
468.244	54485.53
468.449	56388.09
468.654	55695.88
468.859	55255.56
469.064	55505.41
469.269	54489.62
469.474	54714.9
469.679	56848.88
469.885	54555.16
470.09	55763.46
470.295	55529.99
470.5	54159.9
470.705	54874.64
470.91	53674.53
471.115	53299.75
471.32	53838.37
471.525	53477.93
471.73	52199.99
471.935	51911.23
472.139	49934.94
472.344	50211.42
472.549	49605.22
472.754	48917.1
472.959	47917.69
473.164	46287.51
473.369	45355.68
473.574	47151.75
473.778	46109.33
473.983	45195.94
474.188	44524.21
474.393	42238.67
474.598	42568.4
474.802	41482.97
475.007	40936.16
475.212	40583.91
475.417	39070.47
475.621	38744.84
475.826	38161.17
476.031	37036.83
476.235	36354.86
476.44	36561.7
476.645	35681.08
476.849	35302.2
477.054	34835.27
477.259	33495.89
477.463	33860.43
477.668	32807.78
477.872	32801.63
478.077	32203.63
478.282	31275.9
478.486	30892.93
478.691	30688.13
478.895	30561.15
479.1	30313.35
479.304	30077.83
479.509	28949.4
479.713	29363.09
479.918	28556.19
480.122	28242.85
480.326	28351.4
480.531	28361.64
480.735	28040.11
480.94	27732.91
481.144	28308.39
481.348	26788.8
481.553	27026.36
481.757	26297.28
481.961	26510.27
482.166	26667.97
482.37	26223.56
482.574	25486.29
482.778	25846.73
482.983	26055.62
483.187	25662.41
483.391	25476.05
483.595	24835.03
483.8	24355.81
484.004	24642.53
484.208	24753.12
484.412	24187.88
484.616	24142.82
484.821	24165.35
485.025	23178.23
485.229	23159.8
485.433	22995.96
485.637	22889.46
485.841	22299.65
486.045	21664.78
486.249	21935.11
486.453	21316.62
486.657	21308.43
486.861	20859.93
487.065	20296.74
487.269	20143.14
487.473	19768.36
487.677	19991.59
487.881	19932.2
488.085	18988.08
488.289	18859.06
488.493	18472
488.697	18670.65
488.901	17988.67
489.105	17613.9
489.309	17607.75
489.512	17095.76
489.716	16905.3
489.92	16501.85
490.124	16215.13
490.328	16411.74
490.531	15553.64
490.735	15486.06
490.939	15322.22
491.143	14689.4
491.346	14529.66
491.55	14421.11
491.754	14247.04
491.958	13984.9
492.161	13773.96
492.365	13603.97
492.569	13286.54
492.772	13194.38
492.976	12950.67
493.18	13024.4
493.383	12715.16
493.587	12453.02
493.79	12598.42
493.994	12270.75
494.197	12186.78
494.401	12002.46
494.605	11777.19
494.808	12041.37
495.012	11877.54
495.215	11922.59
495.419	11662.5
495.622	11297.96
495.825	11469.99
496.029	11570.34
496.232	11381.93
496.436	11322.54
496.639	11607.2
496.843	11398.31
497.046	11383.98
497.249	11556
497.453	11478.18
497.656	11404.46
497.859	11402.41
498.063	11289.77
498.266	11621.54
498.469	11349.16
498.673	11369.64
498.876	11406.5
499.079	11582.63
499.282	11594.92
499.485	11988.13
499.689	11672.74
499.892	11646.12
500.095	11752.61
500.298	12092.57
500.501	11721.89
500.705	12348.57
500.908	12317.85
501.111	12330.14
501.314	12618.9
501.517	12704.92
501.72	12727.44
501.923	12731.54
502.126	12747.92
502.329	13390.98
502.532	13438.09
502.735	13382.79
502.938	13769.86
503.141	13735.04
503.344	13978.75
503.547	14128.25
503.75	14408.83
503.953	14556.28
504.156	14650.49
504.359	14857.33
504.562	14838.9
504.765	15537.26
504.968	15887.46
505.17	16047.2
505.373	16163.93
505.576	16479.32
505.779	16565.34
505.982	16716.89
506.185	17359.95
506.387	17400.91
506.59	17785.93
506.793	18029.63
506.996	18367.55
507.198	18938.93
507.401	18828.34
507.604	19412.01
507.807	19901.48
508.009	20323.36
508.212	20407.33
508.415	20526.11
508.617	21349.39
508.82	21752.84
509.022	21849.1
509.225	22828.02
509.428	23059.45
509.63	23544.81
509.833	23895.02
510.035	24765.4
510.238	25312.21
510.44	25553.87
510.643	26233.8
510.845	26848.19
511.048	27112.38
511.25	28203.94
511.453	28339.11
511.655	29660.05
511.858	29737.87
512.06	30303.11
512.262	30921.6
512.465	31570.8
512.667	32605.03
512.87	32938.85
513.072	33532.76
513.274	34726.72
513.477	35040.06
513.679	35887.92
513.881	36692.77
514.084	37626.65
514.286	38101.78
514.488	38880
514.69	40547.05
514.893	40391.4
515.095	41673.43
515.297	42394.32
515.499	43057.86
515.701	43801.27
515.904	45314.72
516.106	45826.71
516.308	46658.19
516.51	48095.86
516.712	48032.38
516.914	49250.92
517.116	50258.52
517.318	51016.27
517.52	51755.58
517.722	52363.83
517.925	53795.36
518.127	54993.42
518.329	55624.2
518.531	55501.32
518.733	57080.3
518.935	58063.33
519.136	58448.35
519.338	59718.09
519.54	59754.95
519.742	61010.35
519.944	61786.53
520.146	62804.37
520.348	63322.51
520.55	63668.62
520.752	63754.63
520.954	63754.63
521.155	63754.63
521.357	63754.63
521.559	63754.63
521.761	63754.63
521.963	63754.63
522.164	63754.63
522.366	63754.63
522.568	63754.63
522.77	63754.63
522.971	63754.63
523.173	63754.63
523.375	63754.63
523.576	63754.63
523.778	63754.63
523.98	63754.63
524.181	63754.63
524.383	63754.63
524.584	63754.63
524.786	63754.63
524.988	63754.63
525.189	63754.63
525.391	63754.63
525.592	63754.63
525.794	63754.63
525.995	63754.63
526.197	63754.63
526.398	63754.63
526.6	63754.63
526.801	63754.63
527.003	63754.63
527.204	63754.63
527.406	63754.63
527.607	63754.63
527.808	63754.63
528.01	63754.63
528.211	63754.63
528.412	63754.63
528.614	63754.63
528.815	63754.63
529.016	63754.63
529.218	63754.63
529.419	63754.63
529.62	63754.63
529.822	63754.63
530.023	63754.63
530.224	63754.63
530.425	63754.63
530.626	63754.63
530.828	63754.63
531.029	63754.63
531.23	63754.63
531.431	63721.86
531.632	63224.21
531.833	62636.44
532.035	61800.87
532.236	60832.18
532.437	60596.66
532.638	59611.59
532.839	59523.53
533.04	58593.75
533.241	57129.45
533.442	57250.28
533.643	56480.25
533.844	55425.54
534.045	54870.54
534.246	54131.23
534.447	53740.07
534.648	53072.43
534.849	52312.63
535.05	51247.69
535.251	50594.39
535.451	49689.18
535.652	49801.82
535.853	48837.23
536.054	48161.4
536.255	47919.74
536.456	46475.92
536.657	47069.83
536.857	45726.36
537.058	45154.98
537.259	45175.46
537.46	44280.5
537.66	43477.69
537.861	43184.83
538.062	42375.89
538.263	41704.15
538.463	41392.86
538.664	40878.82
538.865	40647.4
539.065	40084.21
539.266	38982.4
539.466	39340.8
539.667	38382.35
539.868	38470.41
540.068	37425.95
540.269	37147.42
540.469	37045.02
540.67	36217.64
540.87	35889.97
541.071	35545.91
541.271	35513.14
541.472	34480.97
541.672	34270.03
541.873	34241.35
542.073	32891.74
542.274	33416.02
542.474	32576.36
542.675	32469.86
542.875	32490.34
543.075	31769.46
543.276	30972.8
543.476	31198.07
543.676	30505.86
543.877	30352.26
544.077	29969.29
544.277	29897.61
544.478	29256.6
544.678	29279.13
544.878	28797.85
545.078	28695.46
545.279	27866.03
545.479	27816.88
545.679	27483.06
545.879	27100.09
546.079	26833.85
546.28	26674.11
546.48	26100.68
546.68	26069.96
546.88	25600.97
547.08	25447.38
547.28	25062.36
547.48	24470.5
547.68	24554.46
547.88	24017.89
548.081	23729.13
548.281	23620.59
548.481	23129.08
548.681	22934.52
548.881	22623.23
549.081	22270.98
549.28	21804.04
549.48	21787.66
549.68	21433.36
549.88	21419.02
550.08	20757.53
550.28	20646.94
550.48	20710.43
550.68	20472.86
550.88	19964.96
551.08	19559.47
551.279	19618.86
551.479	18969.65
551.679	18736.18
551.879	18527.29
552.079	18424.89
552.278	18134.08
552.478	17871.94
552.678	17423.44
552.878	17407.05
553.077	16761.94
553.277	16503.9
553.477	16389.21
553.676	16249.95
553.876	15838.31
554.076	15662.18
554.275	15361.13
554.475	15131.76
554.674	15103.09
554.874	14965.87
555.074	14488.7
555.273	14314.62
555.473	14089.34
555.672	13991.04
555.872	13771.91
556.071	13513.86
556.271	13397.13
556.47	13157.52
556.67	12840.08
556.869	12500.12
557.068	12410.01
557.268	12266.65
557.467	12162.2
557.667	12121.24
557.866	11478.18
558.065	11535.53
558.265	11066.54
558.464	11103.4
558.663	11084.97
558.863	10642.61
559.062	10673.33
559.261	10439.86
559.461	10296.5
559.66	9989.31
559.859	9753.79
560.058	9735.36
560.258	9626.82
560.457	9399.49
560.656	9366.73
560.855	9215.18
561.054	9057.48
561.253	8848.59
561.453	8811.73
561.652	8645.84
561.851	8725.71
562.05	8385.75
562.249	7974.11
562.448	8328.41
562.647	7922.91
562.846	8002.78
563.045	7871.71
563.244	7531.75
563.443	7681.25
563.642	7408.87
563.841	7271.65
564.04	7212.26
564.239	7261.41
564.438	7064.81
564.637	6790.38
564.836	6874.35
565.035	6632.69
565.234	6597.87
565.432	6489.33
565.631	6440.18
565.83	6536.43
566.029	6286.58
566.228	6221.05
566.427	6175.99
566.625	6083.83
566.824	6020.35
567.023	5872.89
567.222	5537.02
567.42	5684.48
567.619	5524.74
567.818	5633.28
568.016	5680.38
568.215	5477.63
568.414	5352.71
568.612	5250.31
568.811	5272.84
569.01	5094.66
569.208	5000.46
569.407	5049.61
569.605	4861.2
569.804	4930.83
570.002	4693.26
570.201	4650.25
570.4	4574.48
570.598	4506.9
570.797	4527.38
570.995	4386.07
571.193	4259.09
571.392	4472.08
571.59	4255
571.789	4087.06
571.987	4068.63
572.186	4175.13
572.384	3980.57
572.582	3941.66
572.781	3962.14
572.979	3761.44
573.177	3665.18
573.376	3837.21
573.574	3665.18
573.772	3444
573.971	3503.39
574.169	3417.38
574.367	3456.29
574.565	3427.62
574.763	3282.21
574.962	3286.31
575.16	3218.72
575.358	3142.95
575.556	3239.2
575.754	3161.38
575.952	3032.36
576.151	3073.32
576.349	2909.48
576.547	2815.27
576.745	2721.07
576.943	2856.23
577.141	2870.57
577.339	2706.73
577.537	2762.03
577.735	2673.96
577.933	2606.38
578.131	2483.5
578.329	2506.03
578.527	2454.83
578.725	2493.74
578.923	2256.18
579.121	2303.28
579.319	2147.64
579.516	2276.66
579.714	2479.41
579.912	2247.99
580.11	2014.52
580.308	2057.53
580.506	2125.11
580.704	1973.56
580.901	2094.39
581.099	2063.67
581.297	1991.99
581.495	1928.5
581.692	2000.18
581.89	2022.71
582.088	1973.56
582.285	1789.24
582.483	1797.43
582.681	1852.73
582.878	1795.39
583.076	1826.11
583.274	1735.99
583.471	1840.44
583.669	1600.83
583.866	1525.05
584.064	1654.08
584.262	1557.82
584.459	1555.77
584.657	1606.97
584.854	1588.54
585.052	1539.39
585.249	1539.39
585.447	1496.38
585.644	1441.09
585.841	1637.69
586.039	1453.38
586.236	1543.49
586.434	1424.7
586.631	1283.39
586.828	1240.39
587.026	1285.44
587.223	1215.81
587.42	1267.01
587.618	1322.31
587.815	1385.79
588.012	1246.53
588.21	1168.71
588.407	1258.82
588.604	1189.19
588.801	1170.76
588.999	1283.39
589.196	1181
589.393	1101.12
589.59	1258.82
589.787	1201.47
589.984	1230.15
590.182	1137.99
590.379	980.29
590.576	1109.32
590.773	1090.88
590.97	1078.6
591.167	1121.6
591.364	1092.93
591.561	1062.21
591.758	1181
591.955	1056.07
592.152	1107.27
592.349	935.24
592.546	1115.46
592.743	1027.4
592.94	1045.83
593.137	1117.51
593.334	1099.08
593.531	1115.46
593.727	1105.22
593.924	1002.82
594.121	1111.36
594.318	1019.21
594.515	1051.97
594.712	1142.08
594.908	1201.47
595.105	1041.73
595.302	1135.94
595.499	1176.9
595.696	1307.97
595.892	1148.23
596.089	1301.83
596.286	1127.75
596.482	1242.43
596.679	1271.11
596.876	1197.38
597.072	1316.16
597.269	1320.26
597.466	1396.03
597.662	1359.17
597.859	1422.66
598.055	1436.99
598.252	1594.68
598.448	1684.8
598.645	1692.99
598.841	1760.57
599.038	1875.26
599.234	1963.32
599.431	1971.51
599.627	1985.85
599.824	2180.4
600.02	2145.59
600.217	2170.16
600.413	2329.91
600.609	2383.15
600.806	2770.22
601.002	2649.39
601.198	2602.29
601.395	2800.94
601.591	2911.53
601.787	3022.12
601.984	3198.24
602.18	3288.36
602.376	3403.04
602.572	3437.86
602.769	3679.52
602.965	3677.47
603.161	3869.98
603.357	4025.62
603.553	4269.33
603.75	4185.37
603.946	4517.14
604.142	4439.31
604.338	4697.36
604.534	4777.23
604.73	4977.93
604.926	5094.66
605.122	5440.77
605.318	5469.44
605.514	5707.01
605.71	5930.23
605.906	6049.02
606.102	6278.39
606.298	6595.82
606.494	6653.17
606.69	6898.92
606.886	6986.99
607.082	7068.91
607.278	7220.46
607.474	7572.71
607.67	7980.25
607.866	7890.14
608.062	8357.08
608.257	8385.75
608.453	8463.57
608.649	8928.46
608.845	9000.14
609.041	9364.68
609.236	9534.66
609.432	9827.52
609.628	10067.13
609.824	10446.01
610.019	10681.52
610.215	11187.37
610.411	11439.27
610.606	11703.46
610.802	11918.5
610.998	12068
611.193	12678.29
611.389	12565.65
611.584	13188.24
611.78	13544.58
611.976	13718.66
612.171	14345.34
612.367	14603.38
612.562	14816.37
612.758	15342.7
612.953	15619.17
613.149	16186.46
613.344	16417.88
613.539	17400.91
613.735	17515.59
613.93	17906.76
614.126	18123.84
614.321	19258.42
614.517	19272.75
614.712	19571.75
614.907	20225.06
615.103	21203.99
615.298	21152.79
615.493	22055.94
615.688	22191.11
615.884	23307.25
616.079	23368.69
616.274	24247.27
616.47	25111.51
616.665	25740.24
616.86	26215.37
617.055	26551.23
617.25	27141.05
617.445	28027.82
617.641	28734.37
617.836	29528.98
618.031	29629.33
618.226	31005.56
618.421	31333.24
618.616	32545.64
618.811	32531.3
619.006	33958.74
619.201	34353.99
619.396	35287.87
619.591	35277.63
619.786	36836.13
619.981	37147.42
620.176	38228.75
620.371	38634.25
620.566	39641.85
620.761	40387.31
620.956	41534.17
621.151	41562.84
621.346	42904.26
621.541	43080.39
621.735	44800.68
621.93	44741.29
622.125	46019.22
622.32	46332.56
622.515	47850.11
622.709	48312.95
622.904	49588.83
623.099	49996.38
623.294	51233.35
623.488	51200.58
623.683	52384.31
623.878	53027.37
624.072	53594.66
624.267	54936.08
624.462	55566.85
624.656	56013.31
624.851	57491.94
625.046	58051.04
625.24	58726.87
625.435	58790.36
625.629	60056
625.824	60524.99
626.018	61403.56
626.213	60946.87
626.407	62728.6
626.602	62542.23
626.796	63443.34
626.991	63752.58
627.185	63754.63
627.38	63754.63
627.574	63754.63
627.768	63754.63
627.963	63754.63
628.157	63754.63
628.352	63754.63
628.546	63754.63
628.74	63754.63
628.935	63754.63
629.129	63754.63
629.323	63754.63
629.517	63754.63
629.712	63754.63
629.906	63754.63
630.1	63754.63
630.294	63754.63
630.489	63285.65
630.683	62996.88
630.877	61776.29
631.071	60785.08
631.265	60369.34
631.459	58880.47
631.653	57590.25
631.848	56674.8
632.042	55593.48
632.236	54127.13
632.43	52054.59
632.624	51720.77
632.818	49941.08
633.012	48401.01
633.206	47153.8
633.4	45841.05
633.594	43905.72
633.788	42857.16
633.982	41456.35
634.176	40157.94
634.369	38423.31
634.563	37387.03
634.757	35799.86
634.951	34659.14
635.145	33342.3
635.339	32093.04
635.533	30755.71
635.726	29893.52
635.92	28175.27
636.114	27374.52
636.308	26182.6
636.501	24921.05
636.695	24005.61
636.889	22850.55
637.083	22019.08
637.276	21126.16
637.47	20362.27
637.664	19125.3
637.857	18498.62
638.051	18205.76
638.244	17198.16
638.438	16540.76
638.632	16172.13
638.825	14906.48
639.019	14726.26
639.212	14249.08
639.406	13728.9
639.599	13032.59
639.793	12295.32
639.986	11859.1
640.18	11658.4
640.373	11089.07
640.567	10601.65
640.76	10251.45
640.954	9946.3
641.147	9481.41
641.34	9135.31
641.534	8682.7
641.727	8627.41
641.92	8275.16
642.114	7922.91
642.307	7451.88
642.5	7312.61
642.694	6878.44
642.887	6757.61
643.08	6698.22
643.273	6364.4
643.467	5836.03
643.66	5805.31
643.853	5537.02
644.046	5303.56
644.239	5203.21
644.432	4777.23
644.626	4609.29
644.819	4572.43
645.012	4429.07
645.205	4320.53
645.398	4095.25
645.591	3894.55
645.784	3609.89
645.977	3573.02
646.17	3589.41
646.363	3329.31
646.556	2950.44
646.749	3038.5
646.942	2981.16
647.135	2874.67
647.328	2745.64
647.521	2743.6
647.714	2514.22
647.907	2452.78
648.099	2409.78
648.292	2428.21
648.485	2192.69
648.678	2090.29
648.871	1971.51
649.064	2012.47
649.256	1877.3
649.449	1762.62
649.642	1705.28
649.835	1633.6
650.027	1631.55
650.22	1668.41
650.413	1506.62
650.605	1508.67
650.798	1307.97
650.991	1531.2
651.183	1244.48
651.376	1264.96
651.568	1234.24
651.761	1205.57
651.954	1170.76
652.146	1000.77
652.339	1176.9
652.531	1117.51
652.724	1037.64
652.916	1015.11
653.109	894.28
653.301	914.76
653.494	904.52
653.686	951.62
653.879	943.43
654.071	957.77
654.263	740.68
654.456	767.31
654.648	765.26
654.84	879.94
655.033	814.41
655.225	832.84
655.417	591.18
655.61	851.27
655.802	671.05
655.994	775.5
656.186	566.6
656.379	636.24
656.571	636.24
656.763	560.46
656.955	476.49
657.148	486.73
657.34	752.97
657.532	529.74
657.724	464.21
657.916	505.17
658.108	511.31
658.3	554.32
658.492	517.45
658.684	415.05
658.876	556.36
659.068	355.66
659.26	337.23
659.452	357.71
659.644	396.62
659.836	533.84
660.028	361.81
660.22	378.19
660.412	353.62
660.604	320.85
660.796	388.43
660.988	394.58
661.18	320.85
661.372	443.73
661.563	376.14
661.755	347.47
661.947	222.55
662.139	202.07
662.331	320.85
662.522	367.95
662.714	261.46
662.906	212.31
663.097	294.22
663.289	329.04
663.481	105.81
663.673	343.38
663.864	263.51
664.056	359.76
664.247	204.11
664.439	316.75
664.631	275.79
664.822	316.75
665.014	335.18
665.205	175.44
665.397	253.27
665.588	292.18
665.78	177.49
665.971	253.27
666.163	185.68
666.354	294.22
666.546	212.31
666.737	193.87
666.929	179.54
667.12	236.88
667.311	208.21
667.503	148.82
667.694	240.98
667.885	191.83
668.077	243.03
668.268	111.96
668.459	212.31
668.651	257.36
668.842	243.03
669.033	148.82
669.224	114
669.416	341.33
669.607	152.91
669.798	146.77
669.989	290.13
670.18	243.03
670.371	224.59
670.563	120.15
670.754	300.37
670.945	245.07
671.136	247.12
671.327	111.96
671.518	300.37
671.709	335.18
671.9	259.41
672.091	294.22
672.282	204.11
672.473	177.49
672.664	154.96
672.855	279.89
673.046	150.87
673.237	253.27
673.428	255.31
673.619	281.94
673.809	236.88
674	281.94
674.191	232.79
674.382	140.63
674.573	222.55
674.764	238.93
674.954	228.69
675.145	122.2
675.336	134.48
675.527	175.44
675.717	134.48
675.908	173.39
676.099	159.06
676.289	122.2
676.48	138.58
676.671	220.5
676.861	165.2
677.052	228.69
677.243	200.02
677.433	169.3
677.624	228.69
677.814	249.17
678.005	118.1
678.195	382.29
678.386	163.15
678.576	286.03
678.767	105.81
678.957	238.93
679.148	312.66
679.338	324.94
679.529	306.51
679.719	204.11
679.909	335.18
680.1	269.65
680.29	322.9
680.481	167.25
680.671	273.75
680.861	320.85
681.052	200.02
681.242	163.15
681.432	341.33
681.622	259.41
681.813	195.92
682.003	210.26
682.193	159.06
682.383	269.65
682.573	322.9
682.764	167.25
682.954	236.88
683.144	300.37
683.334	206.16
683.524	333.14
683.714	261.46
683.904	306.51
684.094	232.79
684.284	193.87
684.474	306.51
684.664	296.27
684.854	236.88
685.044	326.99
685.234	302.42
685.424	275.79
685.614	245.07
685.804	378.19
685.994	279.89
686.184	230.74
686.374	261.46
686.564	296.27
686.753	271.7
686.943	232.79
687.133	187.73
687.323	279.89
687.513	335.18
687.702	277.84
687.892	318.8
688.082	281.94
688.272	288.08
688.461	296.27
688.651	460.11
688.841	406.86
689.03	234.83
689.22	261.46
689.41	335.18
689.599	269.65
689.789	261.46
689.979	370
690.168	236.88
690.358	288.08
690.547	253.27
690.737	347.47
690.926	257.36
691.116	271.7
691.305	249.17
691.495	302.42
691.684	171.35
691.874	292.18
692.063	228.69
692.252	318.8
692.442	365.9
692.631	224.59
692.82	210.26
693.01	249.17
693.199	312.66
693.388	267.6
693.578	335.18
693.767	249.17
693.956	228.69
694.146	267.6
694.335	251.22
694.524	277.84
694.713	302.42
694.902	269.65
695.092	230.74
695.281	247.12
695.47	181.59
695.659	230.74
695.848	240.98
696.037	230.74
696.226	277.84
696.415	281.94
696.604	335.18
696.793	312.66
696.982	161.11
697.171	316.75
697.36	222.55
697.549	195.92
697.738	122.2
697.927	167.25
698.116	187.73
698.305	271.7
698.494	238.93
698.683	267.6
698.872	308.56
699.061	197.97
699.25	216.4
699.438	345.42
699.627	175.44
699.816	398.67
700.005	183.63
700.193	202.07
700.382	259.41
700.571	277.84
700.76	314.7
700.948	222.55
701.137	288.08
701.326	296.27
701.514	208.21
701.703	263.51
701.892	249.17
702.08	410.96
702.269	214.35
702.457	146.77
702.646	294.22
702.834	279.89
703.023	331.09
703.212	312.66
703.4	187.73
703.589	212.31
703.777	171.35
703.965	138.58
704.154	224.59
704.342	167.25
704.531	204.11
704.719	259.41
704.907	245.07
705.096	202.07
705.284	210.26
705.472	261.46
705.661	277.84
705.849	298.32
706.037	273.75
706.226	220.5
706.414	265.55
706.602	163.15
706.79	218.45
706.979	175.44
707.167	218.45
707.355	105.81
707.543	273.75
707.731	290.13
707.919	245.07
708.107	122.2
708.296	179.54
708.484	204.11
708.672	177.49
708.86	298.32
709.048	249.17
709.236	163.15
709.424	236.88
709.612	326.99
709.8	101.72
709.988	179.54
710.176	316.75
710.364	202.07
710.551	208.21
710.739	161.11
710.927	154.96
711.115	230.74
711.303	304.46
711.491	329.04
711.679	148.82
711.866	306.51
712.054	218.45
712.242	288.08
712.43	361.81
712.617	230.74
712.805	329.04
712.993	208.21
713.181	138.58
713.368	255.31
713.556	232.79
713.744	224.59
713.931	347.47
714.119	263.51
714.306	148.82
714.494	286.03
714.682	226.64
714.869	167.25
715.057	122.2
715.244	130.39
715.432	251.22
715.619	302.42
715.807	208.21
715.994	103.76
716.182	271.7
716.369	269.65
716.556	281.94
716.744	159.06
716.931	81.24
717.119	263.51
717.306	232.79
717.493	335.18
717.681	232.79
717.868	212.31
718.055	265.55
718.242	226.64
718.43	273.75
718.617	249.17
718.804	263.51
718.991	290.13
719.179	240.98
719.366	335.18
719.553	279.89
719.74	240.98
719.927	253.27
720.114	245.07
720.301	193.87
720.488	157.01
720.676	134.48
720.863	402.77
721.05	349.52
721.237	228.69
721.424	292.18
721.611	281.94
721.798	167.25
721.985	210.26
722.172	265.55
722.358	216.4
722.545	300.37
722.732	304.46
722.919	326.99
723.106	337.23
723.293	187.73
723.48	234.83
723.667	257.36
723.853	378.19
724.04	384.34
724.227	314.7
724.414	238.93
724.6	320.85
724.787	394.58
724.974	357.71
725.161	288.08
725.347	191.83
725.534	312.66
725.72	312.66
725.907	304.46
726.094	326.99
726.28	271.7
726.467	259.41
726.653	142.68
726.84	431.44
727.027	326.99
727.213	281.94
727.4	314.7
727.586	245.07
727.773	257.36
727.959	271.7
728.145	273.75
728.332	208.21
728.518	259.41
728.705	324.94
728.891	277.84
729.077	267.6
729.264	187.73
729.45	228.69
729.636	320.85
729.823	359.76
730.009	357.71
730.195	380.24
730.382	300.37
730.568	181.59
730.754	329.04
730.94	249.17
731.126	214.35
731.313	318.8
731.499	286.03
731.685	339.28
731.871	281.94
732.057	253.27
732.243	320.85
732.429	357.71
732.615	410.96
732.801	306.51
732.987	261.46
733.173	267.6
733.359	273.75
733.545	380.24
733.731	228.69
733.917	396.62
734.103	281.94
734.289	292.18
734.475	304.46
734.661	476.49
734.847	259.41
735.033	157.01
735.219	347.47
735.404	245.07
735.59	208.21
735.776	304.46
735.962	249.17
736.148	357.71
736.333	372.05
736.519	329.04
736.705	275.79
736.89	300.37
737.076	224.59
737.262	251.22
737.447	187.73
737.633	265.55
737.819	390.48
738.004	306.51
738.19	261.46
738.375	345.42
738.561	372.05
738.747	310.61
738.932	234.83
739.118	423.25
739.303	361.81
739.489	449.87
739.674	337.23
739.859	261.46
740.045	400.72
740.23	298.32
740.416	193.87
740.601	265.55
740.786	273.75
740.972	144.72
741.157	326.99
741.342	191.83
741.528	206.16
741.713	357.71
741.898	384.34
742.084	294.22
742.269	224.59
742.454	249.17
742.639	298.32
742.824	226.64
743.01	359.76
743.195	386.38
743.38	234.83
743.565	288.08
743.75	290.13
743.935	191.83
744.12	345.42
744.305	197.97
744.49	175.44
744.675	281.94
744.86	261.46
745.045	269.65
745.23	253.27
745.415	294.22
745.6	341.33
745.785	208.21
745.97	394.58
746.155	298.32
746.34	294.22
746.525	269.65
746.71	421.2
746.895	275.79
747.079	173.39
747.264	210.26
747.449	324.94
747.634	240.98
747.819	300.37
748.003	224.59
748.188	208.21
748.373	288.08
748.557	255.31
748.742	230.74
748.927	279.89
749.111	218.45
749.296	265.55
749.481	236.88
749.665	265.55
749.85	165.2
750.034	243.03
750.219	308.56
750.404	179.54
750.588	349.52
750.773	263.51
750.957	230.74
751.141	216.4
751.326	247.12
751.51	87.38
751.695	251.22
751.879	167.25
752.064	224.59
752.248	185.68
752.432	281.94
752.617	251.22
752.801	292.18
752.985	148.82
753.17	253.27
753.354	140.63
753.538	247.12
753.722	179.54
753.907	138.58
754.091	142.68
754.275	216.4
754.459	187.73
754.643	130.39
754.828	251.22
755.012	142.68
755.196	187.73
755.38	265.55
755.564	107.86
755.748	247.12
755.932	202.07
756.116	228.69
756.3	181.59
756.484	216.4
756.668	206.16
756.852	87.38
757.036	89.43
757.22	202.07
757.404	38.23
757.588	150.87
757.772	263.51
757.956	97.62
758.14	240.98
758.323	154.96
758.507	187.73
758.691	93.52
758.875	163.15
759.059	146.77
759.242	144.72
759.426	85.33
759.61	206.16
759.794	142.68
759.977	140.63
760.161	347.47
760.345	290.13
760.528	245.07
760.712	230.74
760.895	114
761.079	177.49
761.263	66.9
761.446	81.24
761.63	128.34
761.813	224.59
761.997	116.05
762.18	206.16
762.364	245.07
762.547	34.13
762.731	189.78
762.914	159.06
763.098	159.06
763.281	68.95
763.464	167.25
763.648	179.54
763.831	138.58
764.015	5.46
764.198	189.78
764.381	73.04
764.564	173.39
764.748	130.39
764.931	120.15
765.114	79.19
765.297	230.74
765.481	68.95
765.664	114
765.847	93.52
766.03	154.96
766.213	75.09
766.397	109.91
766.58	54.61
766.763	142.68
766.946	165.2
767.129	27.99
767.312	40.28
767.495	124.24
767.678	83.28
767.861	163.15
768.044	126.29
768.227	58.71
768.41	46.42
768.593	144.72
768.776	-10.92
768.959	54.61
769.142	189.78
769.324	89.43
769.507	132.44
769.69	21.84
769.873	140.63
770.056	245.07
770.239	56.66
770.421	202.07
770.604	167.25
770.787	73.04
770.97	105.81
771.152	116.05
771.335	81.24
771.518	42.32
771.7	185.68
771.883	212.31
772.066	-4.78
772.248	134.48
772.431	222.55
772.613	105.81
772.796	101.72
772.978	89.43
773.161	177.49
773.343	42.32
773.526	23.89
773.708	7.51
773.891	-33.45
774.073	89.43
774.256	126.29
774.438	171.35
774.621	54.61
774.803	150.87
774.985	64.85
775.168	79.19
775.35	95.57
775.532	87.38
775.715	30.04
775.897	40.28
776.079	75.09
776.261	101.72
776.444	48.47
776.626	38.23
776.808	38.23
776.99	-33.45
777.173	128.34
777.355	87.38
777.537	85.33
777.719	124.24
777.901	34.13
778.083	105.81
778.265	-66.22
778.447	152.91
778.629	140.63
778.811	81.24
778.993	130.39
779.175	109.91
779.357	-17.07
779.539	-19.11
779.721	87.38
779.903	126.29
780.085	111.96
780.267	81.24
780.449	42.32
780.631	200.02
780.812	179.54
780.994	114
781.176	89.43
781.358	-8.87
781.54	126.29
781.721	89.43
781.903	140.63
782.085	68.95
782.267	118.1
782.448	-127.66
782.63	1.37
782.812	118.1
782.993	126.29
783.175	56.66
783.357	75.09
783.538	93.52
783.72	-25.26
783.901	-33.45
784.083	140.63
784.264	124.24
784.446	-70.31
784.627	44.37
784.809	144.72
784.99	3.41
785.172	-2.73
785.353	109.91
785.535	79.19
785.716	9.56
785.897	27.99
786.079	46.42
786.26	34.13
786.441	42.32
786.623	-88.75
786.804	32.08
786.985	-2.73
787.167	107.86
787.348	1.37
787.529	62.8
787.71	130.39
787.891	140.63
788.073	19.8
788.254	-62.12
788.435	179.54
788.616	58.71
788.797	-10.92
788.978	75.09
789.159	32.08
789.34	71
789.522	36.18
789.703	-41.64
789.884	109.91
790.065	58.71
790.246	177.49
790.427	-35.5
790.607	81.24
790.788	71
790.969	-33.45
791.15	46.42
791.331	19.8
791.512	36.18
791.693	-51.88
791.874	17.75
792.054	134.48
792.235	142.68
792.416	-72.36
792.597	-58.03
792.778	105.81
792.958	54.61
793.139	109.91
793.32	-6.83
793.5	-51.88
793.681	93.52
793.862	15.7
794.042	-6.83
794.223	-25.26
794.404	-4.78
794.584	-80.55
794.765	3.41
794.945	-12.97
795.126	7.51
795.306	138.58
795.487	-23.21
795.667	17.75
795.848	62.8
796.028	15.7
796.209	30.04
796.389	46.42
796.57	-49.83
796.75	-117.42
796.93	56.66
797.111	-43.69
797.291	-37.55
797.471	107.86
797.652	-39.59
797.832	-35.5
798.012	89.43
798.192	-10.92
798.373	-101.03
798.553	-8.87
798.733	136.53
798.913	-133.8
799.093	79.19
799.274	-8.87
799.454	85.33
799.634	44.37
799.814	30.04
799.994	83.28
800.174	44.37
800.354	32.08
800.534	-115.37
800.714	107.86
800.894	-35.5
801.074	-23.21
801.254	-94.89
801.434	157.01
801.614	19.8
801.794	-39.59
801.974	1862.97
802.154	-2.73
802.334	50.52
802.514	-37.55
802.693	46.42
802.873	-55.98
803.053	99.67
803.233	97.62
803.413	-31.4
803.592	-41.64
803.772	-17.07
803.952	-49.83
804.131	-49.83
804.311	73.04
804.491	73.04
804.67	-37.55
804.85	-4.78
805.03	71
805.209	66.9
805.389	-2.73
805.568	-84.65
805.748	66.9
805.928	-37.55
806.107	40.28
806.287	46.42
806.466	60.76
806.646	-29.35
806.825	34.13
807.004	42.32
807.184	36.18
807.363	99.67
807.543	50.52
807.722	-45.74
807.901	83.28
808.081	60.76
808.26	-41.64
808.439	56.66
808.619	-25.26
808.798	52.56
808.977	11.61
809.156	130.39
809.336	79.19
809.515	116.05
809.694	-47.79
809.873	-15.02
810.052	13.65
810.231	68.95
810.411	-15.02
810.59	75.09
810.769	-47.79
810.948	52.56
811.127	-25.26
811.306	-64.17
811.485	-53.93
811.664	189.78
811.843	64.85
812.022	-23.21
812.201	-12.97
812.38	11.61
812.559	-60.07
812.737	46.42
812.916	-64.17
813.095	-8.87
813.274	30.04
813.453	36.18
813.632	32.08
813.811	66.9
813.989	-70.31
814.168	5.46
814.347	-51.88
814.526	-12.97
814.704	181.59
814.883	68.95
815.062	-49.83
815.24	73.04
815.419	-129.7
815.598	91.48
815.776	-101.03
815.955	-6.83
816.133	-113.32
816.312	19.8
816.49	-66.22
816.669	44.37
816.847	-17.07
817.026	27.99
817.204	-47.79
817.383	-51.88
817.561	-80.55
817.74	46.42
817.918	36.18
818.097	-64.17
818.275	-37.55
818.453	71
818.632	101.72
818.81	-0.68
818.988	-19.11
819.167	-29.35
819.345	52.56
819.523	-0.68
819.701	27.99
819.879	85.33
820.058	95.57
820.236	27.99
820.414	-31.4
820.592	-17.07
820.77	-6.83
820.948	-8.87
821.127	-70.31
821.305	-0.68
821.483	-64.17
821.661	95.57
821.839	101.72
822.017	-84.65
822.195	-66.22
822.373	46.42
822.551	-2.73
822.729	48.47
822.907	3.41
823.085	52.56
823.262	7.51
823.44	-84.65
823.618	58.71
823.796	48.47
823.974	-15.02
824.152	-33.45
824.329	-31.4
824.507	-39.59
824.685	62.8
824.863	25.94
825.04	27.99
825.218	99.67
825.396	-17.07
825.574	11.61
825.751	32.08
825.929	101.72
826.107	-139.94
826.284	-31.4
826.462	23.89
826.639	-66.22
826.817	-113.32
826.994	-23.21
827.172	-58.03
827.349	79.19
827.527	60.76
827.704	68.95
827.882	95.57
828.059	-2.73
828.237	-25.26
828.414	42.32
828.591	-72.36
828.769	34.13
828.946	-82.6
829.124	42.32
829.301	118.1
829.478	-19.11
829.655	9.56
829.833	44.37
830.01	-47.79
830.187	27.99
830.364	-17.07
830.542	-15.02
830.719	157.01
830.896	-4.78
831.073	109.91
831.25	-25.26
831.427	101.72
831.604	-29.35
831.782	11.61
831.959	114
832.136	19.8
832.313	-6.83
832.49	7.51
832.667	56.66
832.844	-39.59
833.021	66.9
833.198	13.65
833.374	46.42
833.551	-12.97
833.728	-15.02
833.905	44.37
834.082	-82.6
834.259	30.04
834.436	60.76
834.612	-43.69
834.789	36.18
834.966	5.46
835.143	3.41
835.319	-144.04
835.496	66.9
835.673	97.62
835.85	-6.83
836.026	128.34
836.203	79.19
836.38	-39.59
836.556	-33.45
836.733	-96.94
836.909	111.96
837.086	-31.4
837.262	-58.03
837.439	36.18
837.616	15.7
837.792	1.37
837.968	5.46
838.145	-86.7
838.321	-10.92
838.498	17.75
838.674	5.46
838.851	11.61
839.027	-43.69
839.203	66.9
839.38	38.23
839.556	-115.37
839.732	175.44
839.909	-15.02
840.085	52.56
840.261	-8.87
840.437	-4.78
840.614	1.37
840.79	95.57
840.966	19.8
841.142	5.46
841.318	11.61
841.494	19.8
841.671	169.3
841.847	-82.6
842.023	-51.88
842.199	17.75
842.375	95.57
842.551	-66.22
842.727	-62.12
842.903	87.38
843.079	-101.03
843.255	97.62
843.431	-19.11
843.607	79.19
843.783	-82.6
843.959	-12.97
844.134	-64.17
844.31	111.96
844.486	5.46
844.662	-45.74
844.838	-55.98
845.013	19.8
845.189	52.56
845.365	19.8
845.541	3.41
845.716	105.81
845.892	77.14
846.068	-51.88
846.244	-101.03
846.419	42.32
846.595	3.41
846.77	-33.45
846.946	15.7
847.122	-58.03
847.297	-84.65
847.473	27.99
847.648	-53.93
847.824	19.8
847.999	-131.75
848.175	-58.03
848.35	25.94
848.526	60.76
848.701	97.62
848.876	-58.03
849.052	1.37
849.227	-37.55
849.403	-68.27
849.578	13.65
849.753	13.65
849.929	85.33
850.104	-82.6
850.279	-6.83
850.454	68.95
850.63	17.75
850.805	7.51
850.98	48.47
851.155	-27.31
851.33	40.28
851.505	-105.13
851.681	83.28
851.856	11.61
852.031	46.42
852.206	30.04
852.381	-8.87
852.556	30.04
852.731	64.85
852.906	-33.45
853.081	19.8
853.256	116.05
853.431	-51.88
853.606	-80.55
853.781	-27.31
853.956	-119.46
854.131	109.91
854.305	-39.59
854.48	-29.35
854.655	-144.04
854.83	-8.87
855.005	-12.97
855.18	-4.78
855.354	3.41
855.529	11.61
855.704	-37.55
855.879	120.15
856.053	-74.41
856.228	-17.07
856.403	-33.45
856.577	97.62
856.752	-94.89
856.926	11.61
857.101	-4.78
857.276	-15.02
857.45	56.66
857.625	7.51
857.799	-19.11
857.974	-4.78
858.148	-90.79
858.323	-53.93
858.497	-111.27
858.672	46.42
858.846	-66.22
859.02	40.28
859.195	-27.31
859.369	3.41
859.543	34.13
859.718	-12.97
859.892	68.95
860.066	-70.31
860.241	-60.07
860.415	-84.65
860.589	40.28
860.763	27.99
860.938	-27.31
861.112	87.38
861.286	-53.93
861.46	23.89
861.634	-19.11
861.808	103.76
861.982	-41.64
862.157	-76.46
862.331	5.46
862.505	-68.27
862.679	-76.46
862.853	42.32
863.027	-78.51
863.201	58.71
863.375	-35.5
863.549	23.89
863.722	-17.07
863.896	34.13
864.07	-133.8
864.244	-51.88
864.418	9.56
864.592	30.04
864.766	13.65
864.939	15.7
865.113	-92.84
865.287	5.46
865.461	-62.12
865.634	30.04
865.808	-15.02
865.982	-45.74
866.156	-117.42
866.329	-94.89
866.503	-17.07
866.676	103.76
866.85	3.41
867.024	-96.94
867.197	42.32
867.371	-21.16
867.544	15.7
867.718	-94.89
867.891	83.28
868.065	-152.23
868.238	-84.65
868.412	93.52
868.585	17.75
868.759	-37.55
868.932	-4.78
869.105	-94.89
869.279	19.8
869.452	-72.36
869.625	38.23
869.799	-19.11
869.972	-101.03
870.145	-64.17
870.319	32.08
870.492	-82.6
870.665	-2.73
870.838	-45.74
871.011	-127.66
871.185	-4.78
871.358	-10.92
871.531	64.85
871.704	-53.93
871.877	-2.73
872.05	-70.31
872.223	-58.03
872.396	62.8
872.569	99.67
872.742	-53.93
872.915	50.52
873.088	-19.11
873.261	-41.64
873.434	48.47
873.607	-43.69
873.78	77.14
873.953	-98.99
874.126	62.8
874.299	-19.11
874.471	-62.12
874.644	23.89
874.817	-19.11
874.99	173.39
875.163	-62.12
875.335	-84.65
875.508	58.71
875.681	42.32
875.853	-66.22
876.026	58.71
876.199	60.76
876.371	-62.12
876.544	-23.21
876.717	46.42
876.889	-6.83
877.062	34.13
877.234	-119.46
877.407	-84.65
877.579	46.42
877.752	15.7
877.924	17.75
878.097	46.42
878.269	46.42
878.442	85.33
878.614	38.23
878.786	-33.45
878.959	64.85
879.131	44.37
879.303	-82.6
879.476	-29.35
879.648	-0.68
879.82	-21.16
879.993	-53.93
880.165	34.13
880.337	-133.8
880.509	68.95
880.681	-139.94
880.854	-25.26
881.026	91.48
881.198	97.62
881.37	-51.88
881.542	48.47
881.714	11.61
881.886	17.75
882.058	44.37
882.23	9.56
882.402	5.46
882.574	40.28
882.746	15.7
882.918	136.53
883.09	5.46
883.262	-70.31
883.434	-33.45
883.606	-152.23
883.778	-21.16
883.95	105.81
884.122	-58.03
884.293	85.33
884.465	-27.31
884.637	11.61
884.809	-25.26
884.98	50.52
885.152	46.42
885.324	101.72
885.496	-117.42
885.667	-4.78
885.839	11.61
886.011	95.57
886.182	60.76
886.354	19.8
886.525	-23.21
886.697	-23.21
886.869	-51.88
887.04	-49.83
887.212	66.9
887.383	146.77
887.555	64.85
887.726	-25.26
887.897	-29.35
888.069	-12.97
888.24	124.24
888.412	-29.35
888.583	-51.88
888.754	-10.92
888.926	-86.7
889.097	-82.6
889.268	-86.7
889.44	-35.5
889.611	-107.18
889.782	-39.59
889.953	-41.64
890.125	171.35
890.296	-82.6
890.467	-23.21
890.638	-74.41
890.809	-62.12
890.98	9.56
891.151	-33.45
891.323	243.03
891.494	-4.78
891.665	-15.02
891.836	44.37
892.007	32.08
892.178	19.8
892.349	-17.07
892.52	3.41
892.691	-33.45
892.862	-4.78
893.032	-121.51
893.203	-43.69
893.374	-15.02
893.545	85.33
893.716	-25.26
893.887	105.81
894.057	-31.4
894.228	-8.87
894.399	-58.03
894.57	68.95
894.74	-19.11
894.911	1.37
895.082	27.99
895.253	-111.27
895.423	105.81
895.594	46.42
895.764	154.96
895.935	-133.8
896.106	46.42
896.276	-47.79
896.447	-4.78
896.617	-92.84
896.788	-76.46
896.958	-33.45
897.129	21.84
897.299	-78.51
897.47	48.47
897.64	44.37
897.81	-43.69
897.981	73.04
898.151	-45.74
898.322	-29.35
898.492	-37.55
898.662	-166.57
898.832	-53.93
899.003	-82.6
899.173	3.41
899.343	15.7
899.513	-101.03
