Data from USB4F104151__82__10-44-22-769.txt Node

Date: Wed Feb 26 10:44:22 EST 2025
User: louis
Spectrometer: USB4F10415
Trigger mode: 4
Integration Time (sec): 1.000000E-1
Scans to average: 1
Electric dark correction enabled: true
Nonlinearity correction enabled: false
Boxcar width: 0
XAxis mode: Wavelengths
Number of Pixels in Spectrum: 3648
>>>>>Begin Spectral Data<<<<<
178.204	-403.45
178.424	-403.45
178.644	-403.45
178.864	-430.07
179.084	-403.45
179.304	-59.39
179.524	10.24
179.744	43.01
179.964	34.82
180.184	10.24
180.404	8.19
180.624	-2.05
180.844	-22.53
181.064	-65.54
181.283	-12.29
181.503	-55.3
181.723	110.59
181.943	-40.96
182.163	151.55
182.383	14.34
182.602	92.16
182.822	200.7
183.042	59.39
183.262	18.43
183.482	61.44
183.701	-18.43
183.921	69.63
184.141	-45.06
184.361	92.16
184.58	32.77
184.8	34.82
185.02	-2.05
185.239	59.39
185.459	122.88
185.679	124.93
185.898	-145.41
186.118	53.25
186.338	12.29
186.557	151.55
186.777	-20.48
186.997	53.25
187.216	0
187.436	208.89
187.655	139.26
187.875	73.73
188.095	63.49
188.314	94.21
188.534	83.97
188.753	-45.06
188.973	112.64
189.192	196.61
189.412	22.53
189.631	38.91
189.851	55.3
190.07	178.17
190.29	40.96
190.509	18.43
190.729	-55.3
190.948	114.69
191.168	243.71
191.387	88.06
191.607	16.38
191.826	106.49
192.045	43.01
192.265	63.49
192.484	75.77
192.704	14.34
192.923	-126.97
193.142	204.8
193.362	139.26
193.581	141.31
193.8	53.25
194.02	122.88
194.239	67.58
194.458	81.92
194.678	20.48
194.897	90.11
195.116	32.77
195.335	69.63
195.555	81.92
195.774	14.34
195.993	129.02
196.212	57.34
196.432	157.69
196.651	10.24
196.87	45.06
197.089	305.15
197.308	40.96
197.528	126.97
197.747	-28.67
197.966	22.53
198.185	120.83
198.404	8.19
198.623	122.88
198.842	120.83
199.062	167.93
199.281	165.89
199.5	100.35
199.719	24.58
199.938	36.86
200.157	131.07
200.376	116.73
200.595	108.54
200.814	36.86
201.033	47.1
201.252	153.6
201.471	24.58
201.69	34.82
201.909	53.25
202.128	112.64
202.347	49.15
202.566	92.16
202.785	2.05
203.004	-14.34
203.223	231.42
203.442	16.38
203.661	-90.11
203.879	122.88
204.098	120.83
204.317	-73.73
204.536	137.21
204.755	45.06
204.974	147.45
205.193	-14.34
205.411	116.73
205.63	83.97
205.849	141.31
206.068	-73.73
206.287	20.48
206.505	96.25
206.724	14.34
206.943	14.34
207.162	10.24
207.381	151.55
207.599	51.2
207.818	53.25
208.037	2.05
208.255	65.54
208.474	98.3
208.693	-4.1
208.911	26.62
209.13	94.21
209.349	-30.72
209.567	141.31
209.786	67.58
210.005	61.44
210.223	79.87
210.442	-141.31
210.661	38.91
210.879	135.17
211.098	81.92
211.316	24.58
211.535	73.73
211.753	81.92
211.972	102.4
212.191	22.53
212.409	34.82
212.628	40.96
212.846	-75.77
213.065	51.2
213.283	118.78
213.502	12.29
213.72	65.54
213.938	36.86
214.157	43.01
214.375	182.27
214.594	2.05
214.812	69.63
215.031	47.1
215.249	96.25
215.467	77.82
215.686	47.1
215.904	59.39
216.122	90.11
216.341	86.01
216.559	100.35
216.778	75.77
216.996	149.5
217.214	40.96
217.432	51.2
217.651	-110.59
217.869	104.45
218.087	69.63
218.306	86.01
218.524	55.3
218.742	-24.58
218.96	92.16
219.179	-12.29
219.397	55.3
219.615	301.05
219.833	108.54
220.051	-40.96
220.27	114.69
220.488	104.45
220.706	53.25
220.924	12.29
221.142	-28.67
221.36	55.3
221.578	112.64
221.796	45.06
222.015	-2.05
222.233	69.63
222.451	184.32
222.669	-77.82
222.887	81.92
223.105	-2.05
223.323	32.77
223.541	-4.1
223.759	30.72
223.977	4.1
224.195	139.26
224.413	63.49
224.631	51.2
224.849	122.88
225.067	282.62
225.285	-57.34
225.503	-26.62
225.721	-81.92
225.939	32.77
226.157	36.86
226.375	182.27
226.592	63.49
226.81	73.73
227.028	122.88
227.246	26.62
227.464	75.77
227.682	106.49
227.9	149.5
228.117	49.15
228.335	98.3
228.553	-12.29
228.771	55.3
228.989	45.06
229.206	55.3
229.424	30.72
229.642	75.77
229.86	0
230.077	129.02
230.295	38.91
230.513	53.25
230.731	59.39
230.948	120.83
231.166	202.75
231.384	-38.91
231.601	20.48
231.819	112.64
232.037	18.43
232.254	-8.19
232.472	16.38
232.689	14.34
232.907	147.45
233.125	26.62
233.342	34.82
233.56	26.62
233.777	51.2
233.995	16.38
234.213	151.55
234.43	77.82
234.648	18.43
234.865	-81.92
235.083	131.07
235.3	24.58
235.518	153.6
235.735	81.92
235.953	77.82
236.17	59.39
236.388	26.62
236.605	40.96
236.822	143.36
237.04	100.35
237.257	38.91
237.475	24.58
237.692	65.54
237.909	57.34
238.127	26.62
238.344	45.06
238.562	65.54
238.779	-34.82
238.996	-69.63
239.214	24.58
239.431	163.84
239.648	61.44
239.865	151.55
240.083	135.17
240.3	22.53
240.517	12.29
240.735	-36.86
240.952	77.82
241.169	40.96
241.386	94.21
241.603	10.24
241.821	-14.34
242.038	106.49
242.255	116.73
242.472	-49.15
242.689	79.87
242.907	86.01
243.124	81.92
243.341	26.62
243.558	-2.05
243.775	-38.91
243.992	-57.34
244.209	100.35
244.426	73.73
244.643	120.83
244.86	0
245.078	59.39
245.295	38.91
245.512	20.48
245.729	-30.72
245.946	131.07
246.163	57.34
246.38	-22.53
246.597	92.16
246.814	77.82
247.031	-10.24
247.248	-20.48
247.464	106.49
247.681	8.19
247.898	94.21
248.115	14.34
248.332	-36.86
248.549	135.17
248.766	188.41
248.983	73.73
249.2	55.3
249.417	86.01
249.633	-83.97
249.85	86.01
250.067	83.97
250.284	88.06
250.501	51.2
250.717	112.64
250.934	2.05
251.151	102.4
251.368	53.25
251.585	137.21
251.801	14.34
252.018	45.06
252.235	75.77
252.451	-112.64
252.668	-26.62
252.885	172.03
253.102	135.17
253.318	61.44
253.535	-34.82
253.752	-34.82
253.968	2.05
254.185	-45.06
254.401	16.38
254.618	16.38
254.835	22.53
255.051	118.78
255.268	-14.34
255.484	47.1
255.701	57.34
255.917	92.16
256.134	-69.63
256.351	26.62
256.567	-6.14
256.784	-16.38
257	-47.1
257.217	92.16
257.433	129.02
257.65	55.3
257.866	202.75
258.082	-47.1
258.299	-22.53
258.515	38.91
258.732	16.38
258.948	24.58
259.165	71.68
259.381	34.82
259.597	67.58
259.814	53.25
260.03	-40.96
260.246	32.77
260.463	186.37
260.679	104.45
260.895	45.06
261.112	51.2
261.328	4.1
261.544	-4.1
261.761	163.84
261.977	-38.91
262.193	-36.86
262.409	49.15
262.626	104.45
262.842	-2.05
263.058	73.73
263.274	53.25
263.49	126.97
263.707	67.58
263.923	135.17
264.139	-14.34
264.355	18.43
264.571	59.39
264.787	88.06
265.004	92.16
265.22	86.01
265.436	-8.19
265.652	22.53
265.868	47.1
266.084	4.1
266.3	10.24
266.516	0
266.732	-8.19
266.948	104.45
267.164	40.96
267.38	102.4
267.596	120.83
267.812	215.04
268.028	53.25
268.244	4.1
268.46	20.48
268.676	83.97
268.892	69.63
269.108	10.24
269.324	10.24
269.54	-30.72
269.756	36.86
269.972	-18.43
270.188	6.14
270.403	38.91
270.619	59.39
270.835	75.77
271.051	120.83
271.267	88.06
271.483	8.19
271.698	145.41
271.914	65.54
272.13	43.01
272.346	53.25
272.562	81.92
272.777	149.5
272.993	71.68
273.209	43.01
273.425	96.25
273.64	-81.92
273.856	92.16
274.072	43.01
274.287	-32.77
274.503	120.83
274.719	88.06
274.934	65.54
275.15	-12.29
275.366	77.82
275.581	2.05
275.797	-49.15
276.012	47.1
276.228	30.72
276.444	0
276.659	79.87
276.875	8.19
277.09	77.82
277.306	6.14
277.521	77.82
277.737	135.17
277.952	77.82
278.168	36.86
278.383	-34.82
278.599	34.82
278.814	184.32
279.03	47.1
279.245	192.51
279.461	20.48
279.676	186.37
279.892	-67.58
280.107	-32.77
280.322	-28.67
280.538	102.4
280.753	-20.48
280.969	118.78
281.184	71.68
281.399	196.61
281.615	98.3
281.83	49.15
282.045	-53.25
282.26	-32.77
282.476	6.14
282.691	88.06
282.906	8.19
283.122	79.87
283.337	32.77
283.552	55.3
283.767	-2.05
283.983	118.78
284.198	34.82
284.413	59.39
284.628	6.14
284.843	57.34
285.058	124.93
285.274	-22.53
285.489	-49.15
285.704	55.3
285.919	0
286.134	14.34
286.349	-22.53
286.564	-34.82
286.779	88.06
286.995	-4.1
287.21	-36.86
287.425	118.78
287.64	26.62
287.855	75.77
288.07	-51.2
288.285	184.32
288.5	126.97
288.715	163.84
288.93	0
289.145	8.19
289.36	77.82
289.575	-6.14
289.79	161.79
290.004	-14.34
290.219	126.97
290.434	-40.96
290.649	36.86
290.864	-73.73
291.079	-22.53
291.294	88.06
291.509	22.53
291.724	20.48
291.938	-24.58
292.153	59.39
292.368	45.06
292.583	98.3
292.798	55.3
293.012	100.35
293.227	96.25
293.442	-20.48
293.657	77.82
293.871	79.87
294.086	110.59
294.301	90.11
294.516	143.36
294.73	86.01
294.945	4.1
295.16	28.67
295.374	88.06
295.589	106.49
295.804	61.44
296.018	124.93
296.233	120.83
296.447	79.87
296.662	-16.38
296.877	165.89
297.091	141.31
297.306	69.63
297.52	14.34
297.735	81.92
297.949	36.86
298.164	55.3
298.378	22.53
298.593	-8.19
298.807	-10.24
299.022	40.96
299.236	120.83
299.451	20.48
299.665	22.53
299.88	-6.14
300.094	100.35
300.309	57.34
300.523	57.34
300.737	-61.44
300.952	63.49
301.166	28.67
301.381	139.26
301.595	-90.11
301.809	51.2
302.024	28.67
302.238	61.44
302.452	145.41
302.667	100.35
302.881	202.75
303.095	92.16
303.309	79.87
303.524	55.3
303.738	-49.15
303.952	2.05
304.166	83.97
304.381	-116.73
304.595	145.41
304.809	98.3
305.023	65.54
305.237	65.54
305.452	-14.34
305.666	77.82
305.88	79.87
306.094	112.64
306.308	79.87
306.522	38.91
306.736	106.49
306.95	155.65
307.164	88.06
307.379	67.58
307.593	153.6
307.807	88.06
308.021	43.01
308.235	45.06
308.449	-83.97
308.663	75.77
308.877	196.61
309.091	86.01
309.305	108.54
309.519	-118.78
309.733	55.3
309.947	-79.87
310.161	92.16
310.374	106.49
310.588	149.5
310.802	-47.1
311.016	-38.91
311.23	71.68
311.444	-94.21
311.658	71.68
311.872	122.88
312.085	145.41
312.299	143.36
312.513	167.93
312.727	-16.38
312.941	4.1
313.154	-30.72
313.368	-28.67
313.582	40.96
313.796	65.54
314.009	45.06
314.223	118.78
314.437	57.34
314.651	147.45
314.864	40.96
315.078	-57.34
315.292	-112.64
315.505	26.62
315.719	106.49
315.933	81.92
316.146	16.38
316.36	16.38
316.573	108.54
316.787	131.07
317.001	73.73
317.214	-12.29
317.428	53.25
317.641	-12.29
317.855	14.34
318.068	69.63
318.282	18.43
318.495	200.7
318.709	81.92
318.922	40.96
319.136	157.69
319.349	141.31
319.563	-55.3
319.776	30.72
319.99	-10.24
320.203	81.92
320.417	69.63
320.63	118.78
320.843	165.89
321.057	75.77
321.27	34.82
321.483	90.11
321.697	79.87
321.91	135.17
322.124	47.1
322.337	129.02
322.55	16.38
322.763	38.91
322.977	75.77
323.19	10.24
323.403	75.77
323.617	94.21
323.83	155.65
324.043	57.34
324.256	10.24
324.469	-20.48
324.683	67.58
324.896	-12.29
325.109	92.16
325.322	-38.91
325.535	77.82
325.748	122.88
325.962	49.15
326.175	47.1
326.388	-16.38
326.601	124.93
326.814	-30.72
327.027	77.82
327.24	133.12
327.453	-106.49
327.666	18.43
327.879	32.77
328.092	63.49
328.305	71.68
328.518	92.16
328.731	16.38
328.944	61.44
329.157	69.63
329.37	-6.14
329.583	206.84
329.796	137.21
330.009	-120.83
330.222	124.93
330.435	32.77
330.648	49.15
330.861	75.77
331.073	77.82
331.286	169.98
331.499	40.96
331.712	-10.24
331.925	61.44
332.138	36.86
332.35	137.21
332.563	-61.44
332.776	116.73
332.989	65.54
333.202	18.43
333.414	34.82
333.627	63.49
333.84	69.63
334.053	32.77
334.265	0
334.478	14.34
334.691	0
334.903	83.97
335.116	12.29
335.329	36.86
335.541	55.3
335.754	131.07
335.966	0
336.179	43.01
336.392	-12.29
336.604	34.82
336.817	120.83
337.029	-16.38
337.242	2.05
337.454	28.67
337.667	49.15
337.88	163.84
338.092	63.49
338.305	133.12
338.517	49.15
338.729	88.06
338.942	143.36
339.154	-40.96
339.367	-34.82
339.579	102.4
339.792	-4.1
340.004	12.29
340.217	16.38
340.429	100.35
340.641	-55.3
340.854	-61.44
341.066	79.87
341.278	75.77
341.491	165.89
341.703	6.14
341.915	40.96
342.128	73.73
342.34	90.11
342.552	-10.24
342.764	4.1
342.977	151.55
343.189	47.1
343.401	114.69
343.613	-118.78
343.826	73.73
344.038	-40.96
344.25	94.21
344.462	45.06
344.674	133.12
344.886	16.38
345.099	34.82
345.311	22.53
345.523	2.05
345.735	-67.58
345.947	40.96
346.159	73.73
346.371	30.72
346.583	14.34
346.795	155.65
347.007	32.77
347.219	38.91
347.431	-34.82
347.643	102.4
347.855	-40.96
348.067	184.32
348.279	40.96
348.491	-30.72
348.703	116.73
348.915	-61.44
349.127	26.62
349.339	83.97
349.551	-6.14
349.763	92.16
349.975	40.96
350.187	24.58
350.399	137.21
350.61	47.1
350.822	53.25
351.034	174.08
351.246	90.11
351.458	69.63
351.669	67.58
351.881	57.34
352.093	172.03
352.305	118.78
352.517	59.39
352.728	90.11
352.94	55.3
353.152	61.44
353.363	24.58
353.575	38.91
353.787	104.45
353.999	94.21
354.21	73.73
354.422	-45.06
354.633	61.44
354.845	73.73
355.057	129.02
355.268	-2.05
355.48	18.43
355.692	-86.01
355.903	-2.05
356.115	-47.1
356.326	-59.39
356.538	96.25
356.749	47.1
356.961	182.27
357.172	34.82
357.384	-14.34
357.595	194.56
357.807	86.01
358.018	-22.53
358.23	-6.14
358.441	155.65
358.653	108.54
358.864	65.54
359.075	-6.14
359.287	126.97
359.498	30.72
359.709	100.35
359.921	10.24
360.132	86.01
360.344	71.68
360.555	-18.43
360.766	100.35
360.977	12.29
361.189	92.16
361.4	75.77
361.611	108.54
361.823	100.35
362.034	32.77
362.245	-8.19
362.456	38.91
362.667	102.4
362.879	16.38
363.09	40.96
363.301	36.86
363.512	38.91
363.723	-4.1
363.935	63.49
364.146	112.64
364.357	24.58
364.568	26.62
364.779	-51.2
364.99	141.31
365.201	51.2
365.412	141.31
365.623	-55.3
365.834	114.69
366.045	38.91
366.256	94.21
366.467	59.39
366.678	49.15
366.889	92.16
367.1	16.38
367.311	120.83
367.522	22.53
367.733	77.82
367.944	116.73
368.155	-2.05
368.366	61.44
368.577	215.04
368.788	104.45
368.999	-26.62
369.209	57.34
369.42	237.56
369.631	196.61
369.842	141.31
370.053	40.96
370.264	83.97
370.474	75.77
370.685	57.34
370.896	83.97
371.107	57.34
371.317	73.73
371.528	4.1
371.739	129.02
371.95	100.35
372.16	120.83
372.371	-59.39
372.582	32.77
372.792	86.01
373.003	129.02
373.214	53.25
373.424	36.86
373.635	-18.43
373.846	112.64
374.056	102.4
374.267	8.19
374.477	0
374.688	8.19
374.898	61.44
375.109	106.49
375.319	92.16
375.53	145.41
375.74	45.06
375.951	40.96
376.161	124.93
376.372	176.13
376.582	59.39
376.793	135.17
377.003	-4.1
377.214	10.24
377.424	79.87
377.635	83.97
377.845	14.34
378.055	108.54
378.266	-57.34
378.476	-40.96
378.686	59.39
378.897	67.58
379.107	157.69
379.317	4.1
379.528	59.39
379.738	131.07
379.948	-34.82
380.158	73.73
380.369	67.58
380.579	2.05
380.789	26.62
380.999	38.91
381.21	65.54
381.42	178.17
381.63	22.53
381.84	137.21
382.05	98.3
382.261	118.78
382.471	169.98
382.681	16.38
382.891	108.54
383.101	86.01
383.311	-14.34
383.521	20.48
383.731	98.3
383.941	71.68
384.151	26.62
384.361	8.19
384.571	43.01
384.781	65.54
384.991	200.7
385.201	260.09
385.411	145.41
385.621	12.29
385.831	8.19
386.041	51.2
386.251	-4.1
386.461	79.87
386.671	16.38
386.881	73.73
387.091	32.77
387.301	49.15
387.511	-6.14
387.72	71.68
387.93	88.06
388.14	-63.49
388.35	122.88
388.56	108.54
388.769	174.08
388.979	28.67
389.189	-51.2
389.399	22.53
389.609	135.17
389.818	137.21
390.028	86.01
390.238	47.1
390.447	-67.58
390.657	63.49
390.867	-2.05
391.076	-55.3
391.286	98.3
391.496	-2.05
391.705	-71.68
391.915	96.25
392.125	155.65
392.334	81.92
392.544	192.51
392.753	51.2
392.963	-26.62
393.172	92.16
393.382	12.29
393.591	227.32
393.801	-6.14
394.01	151.55
394.22	114.69
394.429	22.53
394.639	71.68
394.848	118.78
395.058	71.68
395.267	26.62
395.477	34.82
395.686	77.82
395.895	116.73
396.105	219.13
396.314	88.06
396.524	34.82
396.733	92.16
396.942	90.11
397.152	108.54
397.361	135.17
397.57	40.96
397.78	34.82
397.989	51.2
398.198	204.8
398.407	30.72
398.617	22.53
398.826	32.77
399.035	0
399.244	71.68
399.453	63.49
399.663	2.05
399.872	75.77
400.081	-4.1
400.29	100.35
400.499	-75.77
400.708	86.01
400.917	100.35
401.127	16.38
401.336	-2.05
401.545	124.93
401.754	178.17
401.963	131.07
402.172	0
402.381	-24.58
402.59	26.62
402.799	61.44
403.008	126.97
403.217	47.1
403.426	65.54
403.635	-22.53
403.844	79.87
404.053	65.54
404.262	8.19
404.471	163.84
404.68	90.11
404.888	81.92
405.097	8.19
405.306	104.45
405.515	147.45
405.724	71.68
405.933	126.97
406.142	-59.39
406.35	163.84
406.559	71.68
406.768	71.68
406.977	155.65
407.185	69.63
407.394	36.86
407.603	32.77
407.812	10.24
408.02	174.08
408.229	92.16
408.438	14.34
408.646	-55.3
408.855	63.49
409.064	120.83
409.272	-6.14
409.481	43.01
409.69	6.14
409.898	30.72
410.107	108.54
410.315	139.26
410.524	24.58
410.733	92.16
410.941	71.68
411.15	120.83
411.358	118.78
411.567	73.73
411.775	53.25
411.984	83.97
412.192	145.41
412.401	-10.24
412.609	202.75
412.818	90.11
413.026	90.11
413.234	40.96
413.443	8.19
413.651	-49.15
413.86	49.15
414.068	221.18
414.276	182.27
414.485	-2.05
414.693	165.89
414.901	196.61
415.11	22.53
415.318	59.39
415.526	-10.24
415.734	161.79
415.943	77.82
416.151	110.59
416.359	26.62
416.567	14.34
416.776	159.74
416.984	53.25
417.192	208.89
417.4	12.29
417.608	-20.48
417.817	-34.82
418.025	110.59
418.233	231.42
418.441	-43.01
418.649	-77.82
418.857	22.53
419.065	174.08
419.273	92.16
419.481	65.54
419.689	32.77
419.897	14.34
420.105	4.1
420.313	73.73
420.521	161.79
420.729	100.35
420.937	-28.67
421.145	-6.14
421.353	49.15
421.561	241.66
421.769	49.15
421.977	81.92
422.185	69.63
422.393	51.2
422.601	43.01
422.809	79.87
423.017	71.68
423.224	81.92
423.432	51.2
423.64	61.44
423.848	229.37
424.056	30.72
424.263	139.26
424.471	6.14
424.679	96.25
424.887	-75.77
425.094	153.6
425.302	184.32
425.51	59.39
425.718	141.31
425.925	98.3
426.133	-2.05
426.341	198.65
426.548	-16.38
426.756	77.82
426.964	88.06
427.171	8.19
427.379	69.63
427.586	86.01
427.794	151.55
428.001	161.79
428.209	47.1
428.417	161.79
428.624	200.7
428.832	104.45
429.039	139.26
429.247	73.73
429.454	114.69
429.662	212.99
429.869	118.78
430.076	118.78
430.284	67.58
430.491	149.5
430.699	172.03
430.906	145.41
431.114	126.97
431.321	198.65
431.528	73.73
431.736	133.12
431.943	221.18
432.15	180.22
432.358	126.97
432.565	225.28
432.772	88.06
432.979	180.22
433.187	75.77
433.394	202.75
433.601	100.35
433.808	210.94
434.016	266.24
434.223	161.79
434.43	180.22
434.637	157.69
434.844	270.33
435.052	188.41
435.259	202.75
435.466	198.65
435.673	186.37
435.88	278.52
436.087	337.91
436.294	292.86
436.501	251.9
436.708	215.04
436.915	301.05
437.122	286.72
437.329	272.38
437.537	266.24
437.743	260.09
437.95	436.22
438.157	339.96
438.364	239.61
438.571	360.44
438.778	321.53
438.985	387.07
439.192	423.93
439.399	391.16
439.606	350.2
439.813	501.75
440.02	579.58
440.227	587.77
440.433	507.9
440.64	501.75
440.847	382.97
441.054	567.29
441.261	589.82
441.467	569.34
441.674	600.05
441.881	555
442.088	520.18
442.294	636.92
442.501	776.18
442.708	655.35
442.914	604.15
443.121	743.41
443.328	770.04
443.534	774.13
443.741	854
443.948	708.6
444.154	864.24
444.361	972.79
444.568	878.58
444.774	966.64
444.981	835.57
445.187	983.03
445.394	917.49
445.6	1103.86
445.807	1169.39
446.013	1157.1
446.22	958.45
446.426	1193.97
446.633	1241.07
446.839	1382.38
447.046	1316.84
447.252	1439.72
447.459	1392.62
447.665	1353.71
447.871	1529.83
448.078	1695.72
448.284	1607.66
448.491	1769.44
448.697	1783.78
448.903	1867.75
449.11	1867.75
449.316	1839.08
449.522	2080.74
449.728	2095.07
449.935	2275.29
450.141	2195.42
450.347	2359.26
450.553	2314.2
450.76	2330.59
450.966	2623.45
451.172	2617.3
451.378	2736.09
451.584	2768.85
451.791	3018.71
451.997	3012.56
452.203	2973.65
452.409	3260.37
452.615	3291.09
452.821	3319.76
453.027	3409.87
453.233	3606.47
453.44	3583.95
453.646	3850.18
453.852	4009.92
454.058	4227.01
454.264	4116.42
454.47	4566.97
454.676	4708.28
454.882	5007.28
455.088	4894.65
455.294	4978.61
455.5	5326.77
455.705	5607.34
455.911	5724.07
456.117	5693.35
456.323	5916.58
456.529	6012.84
456.735	6502.3
456.941	6610.84
457.147	7135.12
457.352	7088.02
457.558	7370.64
457.764	7856.01
457.97	8222.59
458.176	8349.57
458.381	8736.63
458.587	9006.97
458.793	9439.09
458.999	9363.31
459.204	10444.64
459.41	10807.13
459.616	10712.92
459.821	11401.04
460.027	11927.37
460.233	12506.95
460.438	12422.98
460.644	13346.61
460.85	13463.35
461.055	13635.38
461.261	14497.57
461.466	14182.18
461.672	14384.93
461.878	15961.87
462.083	15845.13
462.289	16174.86
462.494	16832.26
462.7	17196.79
462.905	17481.46
463.111	18771.68
463.316	19648.21
463.522	19889.87
463.727	20631.24
463.932	21405.37
464.138	21855.92
464.343	23115.42
464.549	23266.97
464.754	24766.09
464.959	25482.88
465.165	25630.33
465.37	25685.62
465.575	26007.16
465.781	27567.71
465.986	28333.65
466.191	27854.42
466.397	27991.64
466.602	27852.38
466.807	29034.05
467.012	29689.4
467.218	30168.63
467.423	29920.82
467.628	31172.13
467.833	32271.89
468.038	31890.97
468.244	31524.38
468.449	32941.58
468.654	32341.52
468.859	32349.71
469.064	32273.94
469.269	31692.32
469.474	32065.05
469.679	32583.18
469.885	32015.9
470.09	32587.28
470.295	32734.73
470.5	31583.77
470.705	31997.46
470.91	31245.86
471.115	30903.85
471.32	31295.01
471.525	31352.35
471.73	30287.41
471.935	30242.35
472.139	28876.36
472.344	28943.94
472.549	28720.71
472.754	28390.99
472.959	27815.51
473.164	26857.06
473.369	26140.27
473.574	27078.24
473.778	26662.51
473.983	25941.62
474.188	25681.53
474.393	24614.54
474.598	24229.52
474.802	23656.09
475.007	23436.95
475.212	23525.02
475.417	22460.07
475.621	22208.17
475.826	22128.3
476.031	21544.63
476.235	21028.54
476.44	20823.75
476.645	20438.73
476.849	20324.04
477.054	19701.46
477.259	19541.72
477.463	19572.44
477.668	18884.32
477.872	18919.14
478.077	18464.49
478.282	18069.23
478.486	17866.48
478.691	17520.37
478.895	17491.7
479.1	17438.45
479.304	17422.07
479.509	16496.39
479.713	16893.69
479.918	16189.19
480.122	16097.03
480.326	16252.68
480.531	16027.4
480.735	15980.3
480.94	15728.4
481.144	16205.58
481.348	15290.13
481.553	15384.34
481.757	15130.39
481.961	15195.93
482.166	15161.11
482.37	15107.87
482.574	14774.05
482.778	14815.01
482.983	14720.8
483.187	14438.18
483.391	14438.18
483.595	14382.88
483.8	14135.08
484.004	14042.92
484.208	14264.1
484.412	13881.13
484.616	13713.2
484.821	13600.56
485.025	13334.32
485.229	13430.58
485.433	13002.55
485.637	13035.32
485.841	12898.11
486.045	12595.01
486.249	12566.34
486.453	12152.65
486.657	12078.92
486.861	11990.86
487.065	11687.76
487.269	11392.85
487.473	11153.24
487.677	11607.89
487.881	11290.45
488.085	10731.36
488.289	10854.23
488.493	10272.61
488.697	10581.85
488.901	10164.07
489.105	10020.71
489.309	10045.29
489.512	9717.61
489.716	9461.62
489.92	9381.74
490.124	9199.48
490.328	9222
490.531	8816.51
490.735	8863.61
490.939	8591.23
491.143	8398.72
491.346	8216.45
491.55	8169.35
491.754	8107.91
491.958	8007.56
492.161	7952.26
492.365	7591.82
492.569	7440.27
492.772	7532.43
492.976	7415.69
493.18	7122.84
493.383	7313.3
493.587	7106.45
493.79	7133.08
493.994	6989.72
494.197	6891.41
494.401	6729.63
494.605	6809.5
494.808	6725.53
495.012	6653.85
495.215	6625.18
495.419	6543.26
495.622	6426.53
495.825	6274.98
496.029	6244.26
496.232	6526.88
496.436	6209.44
496.639	6463.39
496.843	6264.74
497.046	6240.16
497.249	6504.35
497.453	6522.78
497.656	6252.45
497.859	6201.25
498.063	6449.05
498.266	6426.53
498.469	6379.42
498.673	6346.66
498.876	6219.68
499.079	6401.95
499.282	6393.76
499.485	6547.36
499.689	6473.63
499.892	6674.33
500.095	6584.22
500.298	6676.38
500.501	6543.26
500.705	6672.28
500.908	6825.88
501.111	6578.08
501.314	6981.53
501.517	7045.01
501.72	7008.15
501.923	7090.07
502.126	7071.64
502.329	7448.46
502.532	7366.54
502.735	7092.12
502.938	7661.45
503.141	7485.33
503.344	7514
503.547	7767.95
503.75	7831.43
503.953	7915.4
504.156	7956.36
504.359	8103.81
504.562	8157.06
504.765	8224.64
504.968	8451.97
505.17	8736.63
505.373	8882.04
505.576	9176.95
505.779	8894.33
505.982	9088.89
506.185	9320.31
506.387	9150.32
506.59	9723.76
506.793	9748.33
506.996	9856.87
507.198	10321.76
507.401	10260.32
507.604	10452.83
507.807	10772.32
508.009	10821.47
508.212	11042.65
508.415	11226.96
508.617	11478.86
508.82	11562.83
509.022	12001.1
509.225	12263.24
509.428	12420.93
509.63	12812.09
509.833	12709.69
510.035	13502.26
510.238	13219.64
510.44	13805.36
510.643	14182.18
510.845	14833.44
511.048	14651.17
511.25	14874.4
511.453	15470.36
511.655	16051.98
511.858	16078.6
512.06	16551.68
512.262	16754.43
512.465	17043.2
512.667	17776.37
512.87	17702.64
513.072	18231.02
513.274	18751.2
513.477	18874.08
513.679	19830.48
513.881	19877.58
514.084	20719.3
514.286	20727.49
514.488	21239.48
514.69	21898.93
514.893	22113.97
515.095	22763.17
515.297	23021.22
515.499	23443.1
515.701	24241.81
515.904	24522.38
516.106	25194.11
516.308	25593.47
516.51	26005.11
516.712	26449.52
516.914	26898.02
517.116	27405.92
517.318	28218.96
517.52	28700.23
517.722	29097.54
517.925	29738.55
518.127	30146.1
518.329	31112.74
518.531	31301.15
518.733	31663.64
518.935	32370.19
519.136	32478.74
519.338	33144.33
519.54	33975.8
519.742	34463.22
519.944	34682.35
520.146	35956.19
520.348	35804.64
520.55	36505.04
520.752	36617.68
520.954	37533.12
521.155	37254.6
521.357	38315.45
521.559	38475.19
521.761	39218.6
521.963	39687.59
522.164	39540.13
522.366	40048.03
522.568	40553.88
522.77	40701.33
522.971	41309.58
523.173	40725.91
523.375	41715.08
523.576	41684.36
523.778	41768.32
523.98	42364.28
524.181	42401.14
524.383	42423.67
524.584	42950
524.786	42597.75
524.988	42655.09
525.189	43187.56
525.391	43421.03
525.592	43365.74
525.794	43574.63
525.995	42917.23
526.197	43232.62
526.398	43279.72
526.6	43048.3
526.801	43447.66
527.003	43122.03
527.204	42741.11
527.406	42868.08
527.607	42771.83
527.808	42433.91
528.01	41514.37
528.211	41950.59
528.412	42001.79
528.614	41637.25
528.815	41557.38
529.016	41438.6
529.218	40871.31
529.419	40543.64
529.62	40072.6
529.822	40263.07
530.023	39140.78
530.224	39153.07
530.425	38962.61
530.626	38460.85
530.828	37647.81
531.029	38155.71
531.23	37144.01
531.431	36509.14
531.632	36468.18
531.833	36234.71
532.035	35681.76
532.236	35393
532.437	34799.08
532.638	34031.1
532.839	34012.66
533.04	33773.05
533.241	33297.92
533.442	33224.2
533.643	32472.59
533.844	31794.71
534.045	31931.93
534.246	31174.18
534.447	30844.46
534.648	30111.28
534.849	29826.62
535.05	29351.49
535.251	28954.18
535.451	28753.48
535.652	28235.35
535.853	28044.88
536.054	27467.36
536.255	27311.71
536.456	26502.76
536.657	26627.69
536.857	26105.46
537.058	25734.78
537.259	25667.19
537.46	25304.7
537.66	24864.39
537.861	24671.88
538.062	24180.37
538.263	24194.7
538.463	23365.28
538.664	23725.72
538.865	22978.21
539.065	22890.15
539.266	22419.11
539.466	22382.25
539.667	21958.32
539.868	21745.33
540.068	21219
540.269	21032.64
540.469	21122.75
540.67	20686.53
540.87	20731.59
541.071	20174.54
541.271	19992.27
541.472	20068.05
541.672	19332.82
541.873	19062.49
542.073	18775.78
542.274	19091.16
542.474	18556.64
542.675	18519.78
542.875	18362.09
543.075	17915.63
543.276	17690.35
543.476	17673.97
543.676	17139.45
543.877	17100.54
544.077	17026.81
544.277	16983.8
544.478	16852.73
544.678	16635.65
544.878	16279.3
545.078	16101.13
545.279	15894.29
545.479	15652.63
545.679	15496.98
545.879	14993.18
546.079	15316.76
546.28	14964.51
546.48	14673.7
546.68	14788.38
546.88	14483.23
547.08	14495.52
547.28	14417.7
547.48	14010.15
547.68	13924.14
547.88	13633.33
548.081	13481.78
548.281	13084.47
548.481	12871.48
548.681	13102.9
548.881	12779.32
549.081	12812.09
549.28	12304.2
549.48	12148.55
549.68	12263.24
549.88	12324.68
550.08	11718.48
550.28	11630.41
550.48	11659.09
550.68	11249.49
550.88	11056.98
551.08	11087.7
551.279	11169.62
551.479	10663.77
551.679	10702.68
551.879	10317.67
552.079	10446.69
552.278	10143.59
552.478	10162.02
552.678	10002.28
552.878	9690.99
553.077	9510.77
553.277	9234.29
553.477	9396.08
553.676	9248.63
553.876	8994.68
554.076	8714.11
554.275	8839.03
554.475	8439.68
554.674	8652.67
554.874	8198.02
555.074	8005.51
555.273	8032.13
555.473	7884.68
555.672	7825.29
555.872	7620.49
556.071	7514
556.271	7561.1
556.47	7231.38
556.67	6932.37
556.869	7094.16
557.068	7047.06
557.268	6754.2
557.467	6786.97
557.667	6764.44
557.866	6381.47
558.065	6442.91
558.265	6461.34
558.464	6072.23
558.663	6156.19
558.863	6025.12
559.062	5877.67
559.261	5855.14
559.461	5885.86
559.66	5552.04
559.859	5525.42
560.058	5308.34
560.258	5361.58
560.457	5152.69
560.656	5386.16
560.855	5105.59
561.054	5203.89
561.253	4878.26
561.453	4995
561.652	4898.74
561.851	4859.83
562.05	4556.73
562.249	4487.1
562.448	4540.35
562.647	4415.42
562.846	4349.89
563.045	4472.76
563.244	4296.64
563.443	4394.94
563.642	4054.98
563.841	4102.08
564.04	3977.16
564.239	4016.07
564.438	3823.56
564.637	3889.09
564.836	3825.61
565.035	3811.27
565.234	3598.28
565.432	3594.19
565.631	3717.06
565.83	3610.57
566.029	3413.96
566.228	3315.66
566.427	3506.12
566.625	3196.88
566.824	3407.82
567.023	3352.52
567.222	3143.63
567.42	3137.49
567.619	3149.78
567.818	3096.53
568.016	3194.83
568.215	2996.18
568.414	2965.46
568.612	2897.88
568.811	2959.31
569.01	2838.48
569.208	2660.31
569.407	2801.62
569.605	2713.56
569.804	2684.89
570.002	2703.32
570.201	2447.32
570.4	2611.16
570.598	2537.43
570.797	2447.32
570.995	2250.72
571.193	2406.36
571.392	2359.26
571.59	2258.91
571.789	2308.06
571.987	2230.24
572.186	2326.49
572.384	1976.29
572.582	2150.37
572.781	2131.94
572.979	1998.82
573.177	2062.3
573.376	1994.72
573.574	2101.22
573.772	1984.48
573.971	1830.88
574.169	1877.99
574.367	1906.66
574.565	1753.06
574.763	1751.01
574.962	1824.74
575.16	1779.68
575.358	1748.97
575.556	1660.9
575.754	1640.42
575.952	1701.86
576.151	1652.71
576.349	1714.15
576.547	1519.59
576.745	1525.74
576.943	1519.59
577.141	1527.78
577.339	1468.39
577.537	1583.08
577.735	1525.74
577.933	1427.43
578.131	1325.04
578.329	1441.77
578.527	1370.09
578.725	1331.18
578.923	1187.82
579.121	1357.8
579.319	1279.98
579.516	1322.99
579.714	1435.63
579.912	1171.44
580.11	1198.06
580.308	1028.08
580.506	1101.81
580.704	1021.94
580.901	1001.46
581.099	1310.7
581.297	1064.94
581.495	1130.48
581.692	1093.62
581.89	1120.24
582.088	1101.81
582.285	1036.27
582.483	1083.38
582.681	1030.13
582.878	995.31
583.076	983.03
583.274	921.59
583.471	1177.58
583.669	874.48
583.866	849.91
584.064	925.68
584.262	753.65
584.459	841.72
584.657	966.64
584.854	876.53
585.052	831.48
585.249	882.67
585.447	917.49
585.644	620.53
585.841	872.43
586.039	800.76
586.236	833.52
586.434	692.21
586.631	681.97
586.828	679.93
587.026	817.14
587.223	679.93
587.42	667.64
587.618	745.46
587.815	784.37
588.012	686.07
588.21	591.86
588.407	749.56
588.604	583.67
588.801	593.91
588.999	716.79
589.196	704.5
589.393	628.73
589.59	663.54
589.787	720.88
589.984	628.73
590.182	743.41
590.379	571.38
590.576	561.14
590.773	657.4
590.97	557.05
591.167	626.68
591.364	528.38
591.561	503.8
591.758	712.69
591.955	643.06
592.152	616.44
592.349	528.38
592.546	522.23
592.743	532.47
592.94	600.05
593.137	663.54
593.334	630.77
593.531	643.06
593.727	610.29
593.924	643.06
594.121	569.34
594.318	575.48
594.515	632.82
594.712	710.65
594.908	710.65
595.105	516.09
595.302	727.03
595.499	688.12
595.696	735.22
595.892	522.23
596.089	763.89
596.286	563.19
596.482	749.56
596.679	739.32
596.876	647.16
597.072	761.84
597.269	708.6
597.466	817.14
597.662	737.27
597.859	737.27
598.055	833.52
598.252	854
598.448	919.54
598.645	1001.46
598.841	954.35
599.038	1013.74
599.234	1054.7
599.431	1032.18
599.627	1140.72
599.824	1155.05
600.02	1191.92
600.217	1189.87
600.413	1224.69
600.609	1253.36
600.806	1683.43
601.002	1359.85
601.198	1325.04
601.395	1499.11
601.591	1521.64
601.787	1636.33
601.984	1734.63
602.18	1751.01
602.376	1832.93
602.572	1861.6
602.769	2047.97
602.965	2041.82
603.161	2103.26
603.357	2109.41
603.553	2275.29
603.75	2252.77
603.946	2346.97
604.142	2342.88
604.338	2594.78
604.534	2504.67
604.73	2578.39
604.926	2795.48
605.122	2975.7
605.318	2983.89
605.514	3186.64
605.71	3151.82
605.906	3272.65
606.102	3375.05
606.298	3475.4
606.494	3696.58
606.69	3872.71
606.886	3796.93
607.082	3755.97
607.278	3925.96
607.474	4018.11
607.67	4192.19
607.866	4247.49
608.062	4448.19
608.257	4579.26
608.453	4720.57
608.649	4812.73
608.845	4861.88
609.041	5083.06
609.236	5404.59
609.432	5527.47
609.628	5646.25
609.824	5799.85
610.019	5744.55
610.215	6039.46
610.411	6236.06
610.606	6277.02
610.802	6375.33
610.998	6557.6
611.193	6903.7
611.389	7006.1
611.584	7253.91
611.78	7159.7
611.976	7403.41
612.171	7970.69
612.367	8161.16
612.562	8028.04
612.758	8232.83
612.953	8466.3
613.149	8728.44
613.344	9117.56
613.539	9211.76
613.735	9408.37
613.93	9715.56
614.126	9891.69
614.321	10227.56
614.517	10485.6
614.712	10903.39
614.907	10989.4
615.103	11192.15
615.298	11448.15
615.493	11757.39
615.688	12052.3
615.884	12726.08
616.079	12597.06
616.274	13113.14
616.47	13428.53
616.665	13547.31
616.86	14104.36
617.055	14282.53
617.25	14747.42
617.445	15388.44
617.641	15146.78
617.836	16086.79
618.031	15904.53
618.226	16873.21
618.421	17071.87
618.616	17288.95
618.811	17747.7
619.006	18366.18
619.201	18579.17
619.396	19322.59
619.591	19189.47
619.786	19785.43
619.981	20076.24
620.176	20733.64
620.371	20829.89
620.566	21784.24
620.761	22109.87
620.956	22421.16
621.151	22539.94
621.346	23414.43
621.541	23365.28
621.735	24583.82
621.93	24600.2
622.125	25157.25
622.32	25273.98
622.515	25966.2
622.709	26410.6
622.904	27287.14
623.099	27377.25
623.294	28094.04
623.488	28286.54
623.683	29109.83
623.878	28945.99
624.072	29943.35
624.267	30301.75
624.462	30578.22
624.656	30672.43
624.851	31708.7
625.046	32052.76
625.24	32677.39
625.435	32712.2
625.629	33310.21
625.824	34006.52
626.018	34207.22
626.213	34041.34
626.407	35106.28
626.602	35436
626.796	35706.34
626.991	36357.59
627.185	36445.65
627.38	36871.63
627.574	36715.98
627.768	36877.77
627.963	37359.05
628.157	37164.49
628.352	37557.7
628.546	36685.26
628.74	38061.5
628.935	37303.75
629.129	37696.96
629.323	37273.03
629.517	37127.63
629.712	36933.07
629.906	36365.78
630.1	36011.48
630.294	36343.25
630.489	35581.41
630.683	35229.16
630.877	34610.67
631.071	33863.16
631.265	33814.01
631.459	32888.33
631.653	32187.92
631.848	31792.67
632.042	30529.07
632.236	30377.52
632.43	29451.84
632.624	28841.54
632.818	27922.01
633.012	27002.47
633.206	26340.97
633.4	25425.53
633.594	24407.69
633.788	23842.45
633.982	23037.6
634.176	22148.78
634.369	21176
634.563	20487.88
634.757	19578.58
634.951	19160.8
635.145	18489.06
635.339	17549.04
635.533	16916.22
635.726	16234.25
635.92	15445.78
636.114	14991.13
636.308	14118.7
636.501	13918
636.695	13217.59
636.889	12515.14
637.083	12033.86
637.276	11638.61
637.47	11007.83
637.664	10676.06
637.857	10317.67
638.051	9930.6
638.244	9508.72
638.438	9123.7
638.632	8605.56
638.825	8441.73
639.019	8042.37
639.212	7653.26
639.406	7657.36
639.599	7167.89
639.793	6971.29
639.986	6696.86
640.18	6494.11
640.373	6004.64
640.567	5922.73
640.76	5570.47
640.954	5468.08
641.147	5162.93
641.34	4913.08
641.534	4792.25
641.727	4603.83
641.92	4517.82
642.114	4243.39
642.307	4061.12
642.5	3979.2
642.694	3727.3
642.887	3522.51
643.08	3649.48
643.273	3549.13
643.467	3250.13
643.66	3123.15
643.853	3051.47
644.046	2869.2
644.239	2760.66
644.432	2772.95
644.626	2531.29
644.819	2437.08
645.012	2355.16
645.205	2398.17
645.398	2428.89
645.591	2095.07
645.784	2093.02
645.977	1945.57
646.17	1853.41
646.363	1871.84
646.556	1587.18
646.749	1683.43
646.942	1679.33
647.135	1673.19
647.328	1576.94
647.521	1544.17
647.714	1458.15
647.907	1394.67
648.099	1259.5
648.292	1409
648.485	1150.96
648.678	1171.44
648.871	1116.14
649.064	1058.8
649.256	954.35
649.449	872.43
649.642	819.19
649.835	972.79
650.027	845.81
650.22	878.58
650.413	903.15
650.605	892.91
650.798	784.37
650.991	679.93
651.183	772.08
651.376	753.65
651.568	800.76
651.761	600.05
651.954	700.41
652.146	669.69
652.339	688.12
652.531	696.31
652.724	546.81
652.916	511.99
653.109	440.31
653.301	565.24
653.494	538.62
653.686	542.71
653.879	559.1
654.071	507.9
654.263	446.46
654.456	434.17
654.648	491.51
654.84	466.94
655.033	411.64
655.225	466.94
655.417	309.24
655.61	485.37
655.802	471.03
655.994	456.7
656.186	274.43
656.379	370.68
656.571	251.9
656.763	301.05
656.955	358.39
657.148	258.04
657.34	389.11
657.532	344.06
657.724	274.43
657.916	364.54
658.108	370.68
658.3	280.57
658.492	294.91
658.684	317.44
658.876	342.01
659.068	184.32
659.26	139.26
659.452	184.32
659.644	270.33
659.836	337.91
660.028	231.42
660.22	174.08
660.412	139.26
660.604	200.7
660.796	235.52
660.988	313.34
661.18	233.47
661.372	274.43
661.563	231.42
661.755	178.17
661.947	126.97
662.139	245.76
662.331	188.41
662.522	215.04
662.714	178.17
662.906	157.69
663.097	120.83
663.289	141.31
663.481	4.1
663.673	176.13
663.864	178.17
664.056	198.65
664.247	141.31
664.439	186.37
664.631	202.75
664.822	61.44
665.014	116.73
665.205	137.21
665.397	92.16
665.588	219.13
665.78	241.66
665.971	251.9
666.163	92.16
666.354	215.04
666.546	79.87
666.737	108.54
666.929	161.79
667.12	100.35
667.311	172.03
667.503	92.16
667.694	174.08
667.885	159.74
668.077	210.94
668.268	53.25
668.459	141.31
668.651	133.12
668.842	90.11
669.033	88.06
669.224	10.24
669.416	335.87
669.607	118.78
669.798	38.91
669.989	225.28
670.18	120.83
670.371	172.03
670.563	30.72
670.754	256
670.945	108.54
671.136	221.18
671.327	83.97
671.518	176.13
671.709	217.08
671.9	233.47
672.091	176.13
672.282	139.26
672.473	143.36
672.664	40.96
672.855	188.41
673.046	96.25
673.237	204.8
673.428	122.88
673.619	206.84
673.809	83.97
674	186.37
674.191	282.62
674.382	143.36
674.573	67.58
674.764	118.78
674.954	241.66
675.145	47.1
675.336	102.4
675.527	88.06
675.717	59.39
675.908	108.54
676.099	73.73
676.289	188.41
676.48	18.43
676.671	165.89
676.861	145.41
677.052	90.11
677.243	94.21
677.433	126.97
677.624	149.5
677.814	120.83
678.005	47.1
678.195	221.18
678.386	118.78
678.576	184.32
678.767	49.15
678.957	155.65
679.148	176.13
679.338	221.18
679.529	167.93
679.719	141.31
679.909	329.72
680.1	192.51
680.29	219.13
680.481	100.35
680.671	299
680.861	192.51
681.052	198.65
681.242	126.97
681.432	196.61
681.622	172.03
681.813	81.92
682.003	143.36
682.193	114.69
682.383	229.37
682.573	210.94
682.764	159.74
682.954	258.04
683.144	270.33
683.334	110.59
683.524	196.61
683.714	92.16
683.904	266.24
684.094	202.75
684.284	210.94
684.474	231.42
684.664	204.8
684.854	202.75
685.044	151.55
685.234	155.65
685.424	182.27
685.614	137.21
685.804	280.57
685.994	219.13
686.184	180.22
686.374	264.19
686.564	210.94
686.753	249.85
686.943	108.54
687.133	108.54
687.323	200.7
687.513	247.8
687.702	157.69
687.892	184.32
688.082	237.56
688.272	178.17
688.461	237.56
688.651	350.2
688.841	221.18
689.03	157.69
689.22	169.98
689.41	225.28
689.599	223.23
689.789	165.89
689.979	327.68
690.168	178.17
690.358	260.09
690.547	180.22
690.737	229.37
690.926	167.93
691.116	180.22
691.305	198.65
691.495	239.61
691.684	151.55
691.874	196.61
692.063	227.32
692.252	280.57
692.442	219.13
692.631	206.84
692.82	124.93
693.01	200.7
693.199	122.88
693.388	174.08
693.578	237.56
693.767	221.18
693.956	262.14
694.146	229.37
694.335	266.24
694.524	137.21
694.713	264.19
694.902	153.6
695.092	135.17
695.281	194.56
695.47	174.08
695.659	137.21
695.848	231.42
696.037	159.74
696.226	325.63
696.415	141.31
696.604	303.1
696.793	157.69
696.982	172.03
697.171	325.63
697.36	149.5
697.549	225.28
697.738	73.73
697.927	153.6
698.116	122.88
698.305	202.75
698.494	165.89
698.683	106.49
698.872	245.76
699.061	165.89
699.25	139.26
699.438	266.24
699.627	114.69
699.816	237.56
700.005	57.34
700.193	133.12
700.382	258.04
700.571	126.97
700.76	174.08
700.948	286.72
701.137	247.8
701.326	268.28
701.514	194.56
701.703	180.22
701.892	143.36
702.08	333.82
702.269	108.54
702.457	100.35
702.646	225.28
702.834	114.69
703.023	225.28
703.212	245.76
703.4	159.74
703.589	172.03
703.777	215.04
703.965	102.4
704.154	108.54
704.342	73.73
704.531	167.93
704.719	227.32
704.907	210.94
705.096	98.3
705.284	110.59
705.472	223.23
705.661	190.46
705.849	196.61
706.037	360.44
706.226	215.04
706.414	145.41
706.602	122.88
706.79	192.51
706.979	161.79
707.167	141.31
707.355	49.15
707.543	231.42
707.731	192.51
707.919	251.9
708.107	135.17
708.296	227.32
708.484	208.89
708.672	237.56
708.86	274.43
709.048	106.49
709.236	151.55
709.424	235.52
709.612	284.67
709.8	133.12
709.988	176.13
710.176	354.3
710.364	294.91
710.551	169.98
710.739	188.41
710.927	155.65
711.115	155.65
711.303	202.75
711.491	278.52
711.679	172.03
711.866	262.14
712.054	135.17
712.242	223.23
712.43	296.96
712.617	155.65
712.805	247.8
712.993	182.27
713.181	145.41
713.368	188.41
713.556	161.79
713.744	167.93
713.931	348.15
714.119	282.62
714.306	200.7
714.494	88.06
714.682	155.65
714.869	45.06
715.057	219.13
715.244	69.63
715.432	198.65
715.619	139.26
715.807	186.37
715.994	133.12
716.182	227.32
716.369	198.65
716.556	260.09
716.744	145.41
716.931	65.54
717.119	182.27
717.306	194.56
717.493	145.41
717.681	206.84
717.868	260.09
718.055	206.84
718.242	231.42
718.43	245.76
718.617	266.24
718.804	147.45
718.991	223.23
719.179	260.09
719.366	256
719.553	206.84
719.74	186.37
719.927	94.21
720.114	200.7
720.301	167.93
720.488	184.32
720.676	126.97
720.863	323.58
721.05	409.59
721.237	256
721.424	348.15
721.611	188.41
721.798	102.4
721.985	90.11
722.172	184.32
722.358	141.31
722.545	215.04
722.732	239.61
722.919	229.37
723.106	258.04
723.293	202.75
723.48	198.65
723.667	120.83
723.853	237.56
724.04	280.57
724.227	237.56
724.414	167.93
724.6	212.99
724.787	358.39
724.974	272.38
725.161	198.65
725.347	149.5
725.534	280.57
725.72	235.52
725.907	284.67
726.094	229.37
726.28	233.47
726.467	223.23
726.653	149.5
726.84	311.29
727.027	278.52
727.213	251.9
727.4	325.63
727.586	296.96
727.773	223.23
727.959	235.52
728.145	143.36
728.332	296.96
728.518	174.08
728.705	210.94
728.891	278.52
729.077	210.94
729.264	233.47
729.45	229.37
729.636	233.47
729.823	239.61
730.009	329.72
730.195	235.52
730.382	342.01
730.568	235.52
730.754	157.69
730.94	190.46
731.126	282.62
731.313	256
731.499	251.9
731.685	227.32
731.871	321.53
732.057	237.56
732.243	313.34
732.429	276.48
732.615	301.05
732.801	278.52
732.987	200.7
733.173	262.14
733.359	192.51
733.545	305.15
733.731	206.84
733.917	380.92
734.103	301.05
734.289	272.38
734.475	188.41
734.661	374.78
734.847	266.24
735.033	206.84
735.219	350.2
735.404	235.52
735.59	227.32
735.776	249.85
735.962	233.47
736.148	323.58
736.333	432.12
736.519	241.66
736.705	239.61
736.89	176.13
737.076	184.32
737.262	229.37
737.447	196.61
737.633	231.42
737.819	315.39
738.004	264.19
738.19	251.9
738.375	208.89
738.561	272.38
738.747	294.91
738.932	249.85
739.118	352.25
739.303	290.81
739.489	292.86
739.674	167.93
739.859	182.27
740.045	245.76
740.23	319.48
740.416	88.06
740.601	284.67
740.786	227.32
740.972	186.37
741.157	243.71
741.342	180.22
741.528	139.26
741.713	325.63
741.898	200.7
742.084	264.19
742.269	237.56
742.454	243.71
742.639	276.48
742.824	249.85
743.01	282.62
743.195	268.28
743.38	247.8
743.565	198.65
743.75	208.89
743.935	395.26
744.12	323.58
744.305	139.26
744.49	258.04
744.675	169.98
744.86	233.47
745.045	321.53
745.23	247.8
745.415	282.62
745.6	299
745.785	206.84
745.97	315.39
746.155	264.19
746.34	249.85
746.525	251.9
746.71	321.53
746.895	141.31
747.079	75.77
747.264	200.7
747.449	323.58
747.634	251.9
747.819	288.76
748.003	231.42
748.188	124.93
748.373	237.56
748.557	251.9
748.742	178.17
748.927	188.41
749.111	247.8
749.296	245.76
749.481	260.09
749.665	202.75
749.85	204.8
750.034	299
750.219	229.37
750.404	190.46
750.588	243.71
750.773	167.93
750.957	206.84
751.141	237.56
751.326	165.89
751.51	49.15
751.695	176.13
751.879	153.6
752.064	274.43
752.248	147.45
752.432	262.14
752.617	221.18
752.801	192.51
752.985	137.21
753.17	276.48
753.354	133.12
753.538	212.99
753.722	174.08
753.907	71.68
754.091	55.3
754.275	239.61
754.459	86.01
754.643	157.69
754.828	288.76
755.012	157.69
755.196	81.92
755.38	139.26
755.564	98.3
755.748	129.02
755.932	147.45
756.116	139.26
756.3	290.81
756.484	141.31
756.668	217.08
756.852	149.5
757.036	149.5
757.22	155.65
757.404	104.45
757.588	94.21
757.772	137.21
757.956	96.25
758.14	276.48
758.323	104.45
758.507	178.17
758.691	131.07
758.875	256
759.059	284.67
759.242	88.06
759.426	159.74
759.61	122.88
759.794	92.16
759.977	145.41
760.161	339.96
760.345	243.71
760.528	180.22
760.712	241.66
760.895	129.02
761.079	100.35
761.263	69.63
761.446	149.5
761.63	190.46
761.813	194.56
761.997	53.25
762.18	163.84
762.364	143.36
762.547	16.38
762.731	73.73
762.914	184.32
763.098	104.45
763.281	137.21
763.464	69.63
763.648	104.45
763.831	135.17
764.015	98.3
764.198	174.08
764.381	8.19
764.564	71.68
764.748	90.11
764.931	133.12
765.114	61.44
765.297	172.03
765.481	-18.43
765.664	155.65
765.847	59.39
766.03	256
766.213	79.87
766.397	51.2
766.58	10.24
766.763	139.26
766.946	83.97
767.129	118.78
767.312	92.16
767.495	26.62
767.678	-32.77
767.861	200.7
768.044	133.12
768.227	16.38
768.41	34.82
768.593	184.32
768.776	86.01
768.959	65.54
769.142	223.23
769.324	45.06
769.507	96.25
769.69	34.82
769.873	12.29
770.056	296.96
770.239	190.46
770.421	161.79
770.604	131.07
770.787	96.25
770.97	98.3
771.152	-22.53
771.335	57.34
771.518	-4.1
771.7	124.93
771.883	288.76
772.066	34.82
772.248	86.01
772.431	135.17
772.613	104.45
772.796	65.54
772.978	51.2
773.161	206.84
773.343	28.67
773.526	6.14
773.708	4.1
773.891	-53.25
774.073	86.01
774.256	34.82
774.438	202.75
774.621	73.73
774.803	120.83
774.985	-38.91
775.168	180.22
775.35	53.25
775.532	116.73
775.715	100.35
775.897	122.88
776.079	-55.3
776.261	63.49
776.444	-2.05
776.626	34.82
776.808	71.68
776.99	-6.14
777.173	73.73
777.355	122.88
777.537	86.01
777.719	108.54
777.901	69.63
778.083	-49.15
778.265	-26.62
778.447	65.54
778.629	-30.72
778.811	104.45
778.993	112.64
779.175	129.02
779.357	-24.58
779.539	20.48
779.721	24.58
779.903	114.69
780.085	-8.19
780.267	55.3
780.449	47.1
780.631	143.36
780.812	157.69
780.994	43.01
781.176	122.88
781.358	-2.05
781.54	69.63
781.721	120.83
781.903	116.73
782.085	-28.67
782.267	143.36
782.448	24.58
782.63	28.67
782.812	126.97
782.993	63.49
783.175	116.73
783.357	94.21
783.538	32.77
783.72	4.1
783.901	69.63
784.083	53.25
784.264	116.73
784.446	-57.34
784.627	-65.54
784.809	75.77
784.99	55.3
785.172	71.68
785.353	4.1
785.535	-4.1
785.716	24.58
785.897	-6.14
786.079	0
786.26	49.15
786.441	49.15
786.623	12.29
786.804	49.15
786.985	-32.77
787.167	96.25
787.348	-24.58
787.529	-14.34
787.71	196.61
787.891	102.4
788.073	-6.14
788.254	-55.3
788.435	176.13
788.616	0
788.797	18.43
788.978	10.24
789.159	-8.19
789.34	55.3
789.522	-43.01
789.703	26.62
789.884	59.39
790.065	110.59
790.246	133.12
790.427	43.01
790.607	184.32
790.788	116.73
790.969	49.15
791.15	79.87
791.331	-34.82
791.512	-4.1
791.693	14.34
791.874	-32.77
792.054	258.04
792.235	69.63
792.416	-8.19
792.597	-22.53
792.778	67.58
792.958	8.19
793.139	22.53
793.32	38.91
793.5	14.34
793.681	118.78
793.862	49.15
794.042	34.82
794.223	-34.82
794.404	-4.1
794.584	-143.36
794.765	102.4
794.945	24.58
795.126	26.62
795.306	83.97
795.487	-51.2
795.667	-22.53
795.848	69.63
796.028	-8.19
796.209	-8.19
796.389	67.58
796.57	-59.39
796.75	-12.29
796.93	4.1
797.111	-83.97
797.291	43.01
797.471	100.35
797.652	63.49
797.832	-14.34
798.012	67.58
798.192	-20.48
798.373	-45.06
798.553	-36.86
798.733	8.19
798.913	-47.1
799.093	57.34
799.274	55.3
799.454	67.58
799.634	81.92
799.814	96.25
799.994	90.11
800.174	79.87
800.354	-14.34
800.534	-75.77
800.714	57.34
800.894	-30.72
801.074	-51.2
801.254	-55.3
801.434	104.45
801.614	-8.19
801.794	-53.25
801.974	1519.59
802.154	-53.25
802.334	20.48
802.514	-65.54
802.693	-36.86
802.873	10.24
803.053	40.96
803.233	77.82
803.413	-30.72
803.592	30.72
803.772	-71.68
803.952	96.25
804.131	-36.86
804.311	47.1
804.491	38.91
804.67	-38.91
804.85	-24.58
805.03	6.14
805.209	122.88
805.389	-28.67
805.568	-63.49
805.748	-36.86
805.928	-73.73
806.107	8.19
806.287	-12.29
806.466	102.4
806.646	-57.34
806.825	16.38
807.004	-65.54
807.184	-16.38
807.363	106.49
807.543	96.25
807.722	-34.82
807.901	81.92
808.081	77.82
808.26	-165.89
808.439	-14.34
808.619	-20.48
808.798	4.1
808.977	47.1
809.156	36.86
809.336	47.1
809.515	69.63
809.694	-55.3
809.873	-16.38
810.052	75.77
810.231	100.35
810.411	92.16
810.59	112.64
810.769	2.05
810.948	73.73
811.127	-51.2
811.306	-79.87
811.485	-26.62
811.664	159.74
811.843	-43.01
812.022	38.91
812.201	-8.19
812.38	34.82
812.559	34.82
812.737	86.01
812.916	-65.54
813.095	-71.68
813.274	81.92
813.453	6.14
813.632	18.43
813.811	98.3
813.989	-120.83
814.168	75.77
814.347	-16.38
814.526	0
814.704	122.88
814.883	102.4
815.062	-61.44
815.24	26.62
815.419	-22.53
815.598	36.86
815.776	-100.35
815.955	-49.15
816.133	-90.11
816.312	-18.43
816.49	-28.67
816.669	149.5
816.847	-12.29
817.026	75.77
817.204	69.63
817.383	16.38
817.561	-88.06
817.74	22.53
817.918	-22.53
818.097	-81.92
818.275	-63.49
818.453	63.49
818.632	4.1
818.81	20.48
818.988	14.34
819.167	-26.62
819.345	34.82
819.523	-83.97
819.701	34.82
819.879	-20.48
820.058	10.24
820.236	-4.1
820.414	16.38
820.592	-28.67
820.77	14.34
820.948	-4.1
821.127	18.43
821.305	4.1
821.483	-79.87
821.661	90.11
821.839	0
822.017	-26.62
822.195	-4.1
822.373	67.58
822.551	65.54
822.729	71.68
822.907	2.05
823.085	88.06
823.262	-69.63
823.44	-4.1
823.618	-112.64
823.796	-10.24
823.974	-6.14
824.152	-106.49
824.329	40.96
824.507	2.05
824.685	10.24
824.863	20.48
825.04	32.77
825.218	77.82
825.396	57.34
825.574	24.58
825.751	-36.86
825.929	45.06
826.107	-69.63
826.284	110.59
826.462	86.01
826.639	-14.34
826.817	-83.97
826.994	8.19
827.172	-40.96
827.349	61.44
827.527	90.11
827.704	-18.43
827.882	118.78
828.059	-26.62
828.237	-34.82
828.414	100.35
828.591	-106.49
828.769	55.3
828.946	-92.16
829.124	104.45
829.301	110.59
829.478	-20.48
829.655	73.73
829.833	12.29
830.01	-178.17
830.187	69.63
830.364	8.19
830.542	4.1
830.719	100.35
830.896	86.01
831.073	-38.91
831.25	120.83
831.427	14.34
831.604	43.01
831.782	-98.3
831.959	92.16
832.136	-75.77
832.313	22.53
832.49	10.24
832.667	14.34
832.844	-61.44
833.021	28.67
833.198	63.49
833.374	49.15
833.551	65.54
833.728	61.44
833.905	100.35
834.082	-92.16
834.259	24.58
834.436	104.45
834.612	-28.67
834.789	47.1
834.966	24.58
835.143	30.72
835.319	-61.44
835.496	-26.62
835.673	30.72
835.85	88.06
836.026	45.06
836.203	75.77
836.38	-38.91
836.556	-18.43
836.733	-45.06
836.909	167.93
837.086	-88.06
837.262	-65.54
837.439	57.34
837.616	-79.87
837.792	-16.38
837.968	55.3
838.145	-43.01
838.321	-55.3
838.498	-28.67
838.674	0
838.851	-2.05
839.027	-43.01
839.203	-86.01
839.38	104.45
839.556	-12.29
839.732	108.54
839.909	-38.91
840.085	28.67
840.261	36.86
840.437	-38.91
840.614	-12.29
840.79	98.3
840.966	69.63
841.142	14.34
841.318	-94.21
841.494	55.3
841.671	8.19
841.847	-104.45
842.023	-34.82
842.199	20.48
842.375	83.97
842.551	-139.26
842.727	-55.3
842.903	55.3
843.079	-67.58
843.255	110.59
843.431	-10.24
843.607	55.3
843.783	-122.88
843.959	30.72
844.134	67.58
844.31	61.44
844.486	-69.63
844.662	-12.29
844.838	8.19
845.013	63.49
845.189	79.87
845.365	14.34
845.541	-8.19
845.716	18.43
845.892	2.05
846.068	-10.24
846.244	-16.38
846.419	153.6
846.595	-34.82
846.77	-94.21
846.946	100.35
847.122	8.19
847.297	14.34
847.473	141.31
847.648	-155.65
847.824	-10.24
847.999	-141.31
848.175	-73.73
848.35	45.06
848.526	135.17
848.701	55.3
848.876	69.63
849.052	55.3
849.227	-14.34
849.403	-16.38
849.578	12.29
849.753	40.96
849.929	53.25
850.104	-118.78
850.279	2.05
850.454	24.58
850.63	-8.19
850.805	18.43
850.98	-26.62
851.155	24.58
851.33	43.01
851.505	-102.4
851.681	24.58
851.856	-26.62
852.031	116.73
852.206	47.1
852.381	8.19
852.556	12.29
852.731	14.34
852.906	30.72
853.081	2.05
853.256	153.6
853.431	-40.96
853.606	-51.2
853.781	-26.62
853.956	-108.54
854.131	71.68
854.305	20.48
854.48	4.1
854.655	-67.58
854.83	-43.01
855.005	28.67
855.18	32.77
855.354	-4.1
855.529	-18.43
855.704	-2.05
855.879	-28.67
856.053	-40.96
856.228	0
856.403	-30.72
856.577	40.96
856.752	-49.15
856.926	6.14
857.101	40.96
857.276	-108.54
857.45	30.72
857.625	108.54
857.799	-49.15
857.974	16.38
858.148	-110.59
858.323	28.67
858.497	-43.01
858.672	-51.2
858.846	-67.58
859.02	73.73
859.195	-73.73
859.369	-47.1
859.543	18.43
859.718	-8.19
859.892	55.3
860.066	30.72
860.241	-94.21
860.415	-63.49
860.589	-10.24
860.763	6.14
860.938	16.38
861.112	38.91
861.286	-12.29
861.46	-26.62
861.634	-65.54
861.808	75.77
861.982	-53.25
862.157	-135.17
862.331	16.38
862.505	-124.93
862.679	-98.3
862.853	-114.69
863.027	-57.34
863.201	135.17
863.375	-2.05
863.549	57.34
863.722	-2.05
863.896	90.11
864.07	-28.67
864.244	-36.86
864.418	8.19
864.592	16.38
864.766	0
864.939	-71.68
865.113	-32.77
865.287	120.83
865.461	-63.49
865.634	32.77
865.808	22.53
865.982	-75.77
866.156	-63.49
866.329	-120.83
866.503	-28.67
866.676	88.06
866.85	-22.53
867.024	-69.63
867.197	71.68
867.371	8.19
867.544	-69.63
867.718	-73.73
867.891	98.3
868.065	-71.68
868.238	12.29
868.412	110.59
868.585	18.43
868.759	-16.38
868.932	-49.15
869.105	-61.44
869.279	26.62
869.452	-55.3
869.625	81.92
869.799	-28.67
869.972	-90.11
870.145	32.77
870.319	86.01
870.492	-40.96
870.665	22.53
870.838	-12.29
871.011	-124.93
871.185	-14.34
871.358	-18.43
871.531	-40.96
871.704	-28.67
871.877	81.92
872.05	12.29
872.223	-110.59
872.396	53.25
872.569	71.68
872.742	-137.21
872.915	-6.14
873.088	-45.06
873.261	-10.24
873.434	51.2
873.607	-47.1
873.78	108.54
873.953	0
874.126	-2.05
874.299	69.63
874.471	8.19
874.644	-32.77
874.817	86.01
874.99	157.69
875.163	-18.43
875.335	16.38
875.508	-61.44
875.681	47.1
875.853	-4.1
876.026	-6.14
876.199	0
876.371	-30.72
876.544	26.62
876.717	30.72
876.889	14.34
877.062	20.48
877.234	-104.45
877.407	-63.49
877.579	86.01
877.752	-20.48
877.924	120.83
878.097	40.96
878.269	51.2
878.442	43.01
878.614	2.05
878.786	61.44
878.959	-14.34
879.131	8.19
879.303	-151.55
879.476	-51.2
879.648	90.11
879.82	-30.72
879.993	6.14
880.165	14.34
880.337	-40.96
880.509	4.1
880.681	-165.89
880.854	-10.24
881.026	43.01
881.198	149.5
881.37	-90.11
881.542	59.39
881.714	-24.58
881.886	6.14
882.058	0
882.23	4.1
882.402	-90.11
882.574	32.77
882.746	94.21
882.918	108.54
883.09	4.1
883.262	6.14
883.434	14.34
883.606	-92.16
883.778	-6.14
883.95	75.77
884.122	-14.34
884.293	81.92
884.465	-10.24
884.637	73.73
884.809	-81.92
884.98	40.96
885.152	104.45
885.324	49.15
885.496	-36.86
885.667	-14.34
885.839	-57.34
886.011	108.54
886.182	-12.29
886.354	53.25
886.525	22.53
886.697	18.43
886.869	-38.91
887.04	-55.3
887.212	73.73
887.383	116.73
887.555	-12.29
887.726	-57.34
887.897	-2.05
888.069	-18.43
888.24	69.63
888.412	16.38
888.583	-4.1
888.754	-34.82
888.926	-94.21
889.097	26.62
889.268	-135.17
889.44	4.1
889.611	-10.24
889.782	-114.69
889.953	-92.16
890.125	26.62
890.296	-88.06
890.467	16.38
890.638	-61.44
890.809	0
890.98	-71.68
891.151	10.24
891.323	75.77
891.494	34.82
891.665	2.05
891.836	-69.63
892.007	14.34
892.178	34.82
892.349	-10.24
892.52	-88.06
892.691	-36.86
892.862	18.43
893.032	-88.06
893.203	81.92
893.374	-63.49
893.545	90.11
893.716	4.1
893.887	8.19
894.057	-16.38
894.228	4.1
894.399	-49.15
894.57	-8.19
894.74	-61.44
894.911	79.87
895.082	-10.24
895.253	-69.63
895.423	-12.29
895.594	61.44
895.764	57.34
895.935	-67.58
896.106	28.67
896.276	-120.83
896.447	36.86
896.617	14.34
896.788	-67.58
896.958	-73.73
897.129	-18.43
897.299	4.1
897.47	69.63
897.64	0
897.81	-8.19
897.981	12.29
898.151	4.1
898.322	-59.39
898.492	-6.14
898.662	-6.14
898.832	-65.54
899.003	-18.43
899.173	90.11
899.343	-40.96
899.513	-26.62
