Data from USB4F104151__189__11-05-18-833.txt Node

Date: Wed Feb 26 11:05:18 EST 2025
User: louis
Spectrometer: USB4F10415
Trigger mode: 4
Integration Time (sec): 1.000000E-1
Scans to average: 1
Electric dark correction enabled: true
Nonlinearity correction enabled: false
Boxcar width: 0
XAxis mode: Wavelengths
Number of Pixels in Spectrum: 3648
>>>>>Begin Spectral Data<<<<<
178.204	-390.82
178.424	-390.82
178.644	-390.82
178.864	-392.87
179.084	-417.44
179.304	0.34
179.524	14.68
179.744	51.54
179.964	51.54
180.184	-11.95
180.404	45.4
180.624	-126.63
180.844	33.11
181.064	-100.01
181.283	2.39
181.503	-57
181.723	96.6
181.943	-192.17
182.163	182.61
182.383	-50.86
182.602	37.2
182.822	164.18
183.042	24.92
183.262	-7.85
183.482	6.49
183.701	67.92
183.921	31.06
184.141	-52.91
184.361	139.6
184.58	84.31
184.8	37.2
185.02	-130.73
185.239	39.25
185.459	59.73
185.679	104.79
185.898	-85.67
186.118	86.36
186.338	-16.04
186.557	104.79
186.777	-61.1
186.997	2.39
187.216	26.96
187.436	211.28
187.655	61.78
187.875	49.49
188.095	41.3
188.314	155.99
188.534	121.17
188.753	16.73
188.973	76.12
189.192	258.39
189.412	16.73
189.631	67.92
189.851	57.68
190.07	129.36
190.29	-59.05
190.509	-42.67
190.729	22.87
190.948	125.27
191.168	317.78
191.387	45.4
191.607	24.92
191.826	4.44
192.045	47.44
192.265	31.06
192.484	82.26
192.704	24.92
192.923	-46.76
193.142	141.65
193.362	106.84
193.581	141.65
193.8	69.97
194.02	51.54
194.239	88.4
194.458	65.88
194.678	-71.34
194.897	24.92
195.116	-18.09
195.335	12.63
195.555	61.78
195.774	-61.1
195.993	65.88
196.212	-32.43
196.432	45.4
196.651	-28.33
196.87	-3.75
197.089	170.32
197.308	65.88
197.528	22.87
197.747	6.49
197.966	74.07
198.185	110.93
198.404	55.64
198.623	76.12
198.842	115.03
199.062	49.49
199.281	98.64
199.5	59.73
199.719	37.2
199.938	74.07
200.157	74.07
200.376	86.36
200.595	121.17
200.814	67.92
201.033	-9.9
201.252	172.37
201.471	6.49
201.69	18.77
201.909	51.54
202.128	123.22
202.347	141.65
202.566	41.3
202.785	-79.53
203.004	-7.85
203.223	231.76
203.442	-22.19
203.661	18.77
203.879	57.68
204.098	164.18
204.317	-87.72
204.536	131.41
204.755	94.55
204.974	102.74
205.193	29.01
205.411	78.16
205.63	94.55
205.849	72.02
206.068	-3.75
206.287	6.49
206.505	147.8
206.724	-9.9
206.943	-18.09
207.162	-28.33
207.381	59.73
207.599	67.92
207.818	-44.71
208.037	49.49
208.255	-16.04
208.474	86.36
208.693	47.44
208.911	4.44
209.13	29.01
209.349	86.36
209.567	59.73
209.786	-9.9
210.005	98.64
210.223	115.03
210.442	-93.87
210.661	31.06
210.879	80.21
211.098	147.8
211.316	41.3
211.535	69.97
211.753	-22.19
211.972	108.88
212.191	51.54
212.409	90.45
212.628	151.89
212.846	35.16
213.065	74.07
213.283	82.26
213.502	55.64
213.72	33.11
213.938	47.44
214.157	-32.43
214.375	139.6
214.594	-16.04
214.812	76.12
215.031	-1.71
215.249	14.68
215.467	-11.95
215.686	18.77
215.904	33.11
216.122	29.01
216.341	188.75
216.559	86.36
216.778	94.55
216.996	135.51
217.214	-32.43
217.432	26.96
217.651	-30.38
217.869	67.92
218.087	-9.9
218.306	24.92
218.524	35.16
218.742	14.68
218.96	110.93
219.179	18.77
219.397	-36.52
219.615	293.2
219.833	123.22
220.051	18.77
220.27	94.55
220.488	147.8
220.706	88.4
220.924	-59.05
221.142	22.87
221.36	106.84
221.578	12.63
221.796	-40.62
222.015	26.96
222.233	59.73
222.451	162.13
222.669	-44.71
222.887	92.5
223.105	-24.23
223.323	41.3
223.541	4.44
223.759	33.11
223.977	69.97
224.195	198.99
224.413	35.16
224.631	-24.23
224.849	43.35
225.067	225.62
225.285	-36.52
225.503	-5.8
225.721	-52.91
225.939	45.4
226.157	-26.28
226.375	246.1
226.592	53.59
226.81	74.07
227.028	127.32
227.246	149.84
227.464	39.25
227.682	76.12
227.9	80.21
228.117	-5.8
228.335	53.59
228.553	37.2
228.771	31.06
228.989	-22.19
229.206	43.35
229.424	65.88
229.642	-5.8
229.86	-106.15
230.077	82.26
230.295	16.73
230.513	151.89
230.731	69.97
230.948	147.8
231.166	178.51
231.384	53.59
231.601	-85.67
231.819	211.28
232.037	39.25
232.254	-16.04
232.472	-83.63
232.689	22.87
232.907	86.36
233.125	-36.52
233.342	22.87
233.56	-3.75
233.777	-13.99
233.995	29.01
234.213	207.19
234.43	90.45
234.648	22.87
234.865	-20.14
235.083	84.31
235.3	67.92
235.518	112.98
235.735	158.03
235.953	102.74
236.17	-9.9
236.388	45.4
236.605	57.68
236.822	88.4
237.04	121.17
237.257	39.25
237.475	-1.71
237.692	16.73
237.909	182.61
238.127	-44.71
238.344	131.41
238.562	39.25
238.779	-59.05
238.996	-40.62
239.214	-7.85
239.431	72.02
239.648	10.58
239.865	102.74
240.083	117.08
240.3	-1.71
240.517	45.4
240.735	57.68
240.952	67.92
241.169	41.3
241.386	20.82
241.603	24.92
241.821	-106.15
242.038	80.21
242.255	106.84
242.472	4.44
242.689	125.27
242.907	16.73
243.124	43.35
243.341	110.93
243.558	-50.86
243.775	-42.67
243.992	-79.53
244.209	125.27
244.426	233.81
244.643	59.73
244.86	-32.43
245.078	160.08
245.295	80.21
245.512	61.78
245.729	-7.85
245.946	90.45
246.163	65.88
246.38	51.54
246.597	49.49
246.814	0.34
247.031	74.07
247.248	53.59
247.464	112.98
247.681	61.78
247.898	47.44
248.115	4.44
248.332	-22.19
248.549	141.65
248.766	137.56
248.983	61.78
249.2	41.3
249.417	137.56
249.633	35.16
249.85	82.26
250.067	20.82
250.284	35.16
250.501	74.07
250.717	98.64
250.934	-50.86
251.151	24.92
251.368	51.54
251.585	82.26
251.801	76.12
252.018	-30.38
252.235	162.13
252.451	-91.82
252.668	78.16
252.885	155.99
253.102	55.64
253.318	80.21
253.535	-24.23
253.752	24.92
253.968	-54.95
254.185	-28.33
254.401	55.64
254.618	98.64
254.835	-3.75
255.051	110.93
255.268	84.31
255.484	45.4
255.701	4.44
255.917	53.59
256.134	-48.81
256.351	39.25
256.567	59.73
256.784	6.49
257	-130.73
257.217	188.75
257.433	49.49
257.65	-13.99
257.866	176.47
258.082	14.68
258.299	-22.19
258.515	45.4
258.732	16.73
258.948	-63.15
259.165	115.03
259.381	-97.96
259.597	72.02
259.814	-32.43
260.03	35.16
260.246	149.84
260.463	153.94
260.679	106.84
260.895	8.53
261.112	59.73
261.328	20.82
261.544	41.3
261.761	155.99
261.977	-3.75
262.193	-38.57
262.409	72.02
262.626	76.12
262.842	22.87
263.058	55.64
263.274	74.07
263.49	78.16
263.707	16.73
263.923	151.89
264.139	-93.87
264.355	49.49
264.571	139.6
264.787	41.3
265.004	92.5
265.22	6.49
265.436	10.58
265.652	63.83
265.868	74.07
266.084	35.16
266.3	31.06
266.516	14.68
266.732	49.49
266.948	-38.57
267.164	20.82
267.38	94.55
267.596	29.01
267.812	141.65
268.028	82.26
268.244	-34.47
268.46	176.47
268.676	-16.04
268.892	74.07
269.108	-9.9
269.324	-44.71
269.54	-18.09
269.756	104.79
269.972	-5.8
270.188	-52.91
270.403	-34.47
270.619	80.21
270.835	96.6
271.051	6.49
271.267	6.49
271.483	29.01
271.698	72.02
271.914	33.11
272.13	78.16
272.346	-34.47
272.562	53.59
272.777	76.12
272.993	-75.43
273.209	61.78
273.425	61.78
273.64	-108.2
273.856	90.45
274.072	26.96
274.287	0.34
274.503	51.54
274.719	98.64
274.934	-13.99
275.15	-30.38
275.366	67.92
275.581	-50.86
275.797	45.4
276.012	2.39
276.228	-7.85
276.444	6.49
276.659	139.6
276.875	-85.67
277.09	98.64
277.306	-16.04
277.521	41.3
277.737	29.01
277.952	41.3
278.168	16.73
278.383	29.01
278.599	90.45
278.814	98.64
279.03	51.54
279.245	141.65
279.461	57.68
279.676	121.17
279.892	-38.57
280.107	-11.95
280.322	63.83
280.538	86.36
280.753	-20.14
280.969	55.64
281.184	35.16
281.399	16.73
281.615	-7.85
281.83	78.16
282.045	-106.15
282.26	-59.05
282.476	14.68
282.691	123.22
282.906	84.31
283.122	57.68
283.337	-44.71
283.552	39.25
283.767	35.16
283.983	55.64
284.198	-46.76
284.413	16.73
284.628	-7.85
284.843	100.69
285.058	72.02
285.274	41.3
285.489	-13.99
285.704	74.07
285.919	10.58
286.134	-20.14
286.349	24.92
286.564	35.16
286.779	133.46
286.995	-48.81
287.21	-77.48
287.425	127.32
287.64	-7.85
287.855	39.25
288.07	-71.34
288.285	119.12
288.5	145.75
288.715	72.02
288.93	-1.71
289.145	37.2
289.36	121.17
289.575	8.53
289.79	166.23
290.004	-77.48
290.219	92.5
290.434	-50.86
290.649	-3.75
290.864	-1.71
291.079	-34.47
291.294	-9.9
291.509	78.16
291.724	-34.47
291.938	33.11
292.153	-22.19
292.368	-34.47
292.583	90.45
292.798	182.61
293.012	63.83
293.227	24.92
293.442	-1.71
293.657	110.93
293.871	121.17
294.086	63.83
294.301	186.71
294.516	53.59
294.73	49.49
294.945	24.92
295.16	18.77
295.374	125.27
295.589	166.23
295.804	43.35
296.018	41.3
296.233	106.84
296.447	2.39
296.662	-26.28
296.877	203.09
297.091	35.16
297.306	47.44
297.52	-40.62
297.735	121.17
297.949	78.16
298.164	102.74
298.378	12.63
298.593	-124.58
298.807	-34.47
299.022	69.97
299.236	110.93
299.451	31.06
299.665	2.39
299.88	-11.95
300.094	-9.9
300.309	18.77
300.523	98.64
300.737	29.01
300.952	74.07
301.166	110.93
301.381	4.44
301.595	-11.95
301.809	147.8
302.024	-42.67
302.238	-34.47
302.452	67.92
302.667	31.06
302.881	176.47
303.095	104.79
303.309	26.96
303.524	49.49
303.738	16.73
303.952	41.3
304.166	98.64
304.381	-128.68
304.595	141.65
304.809	112.98
305.023	35.16
305.237	-61.1
305.452	-71.34
305.666	43.35
305.88	100.69
306.094	6.49
306.308	22.87
306.522	10.58
306.736	41.3
306.95	123.22
307.164	-26.28
307.379	-5.8
307.593	131.41
307.807	98.64
308.021	170.32
308.235	94.55
308.449	-143.02
308.663	20.82
308.877	205.14
309.091	22.87
309.305	96.6
309.519	-97.96
309.733	145.75
309.947	-69.29
310.161	72.02
310.374	98.64
310.588	82.26
310.802	-46.76
311.016	65.88
311.23	104.79
311.444	-11.95
311.658	-24.23
311.872	115.03
312.085	149.84
312.299	151.89
312.513	190.8
312.727	88.4
312.941	-18.09
313.154	84.31
313.368	4.44
313.582	8.53
313.796	51.54
314.009	14.68
314.223	147.8
314.437	24.92
314.651	41.3
314.864	-36.52
315.078	14.68
315.292	2.39
315.505	-7.85
315.719	119.12
315.933	67.92
316.146	-89.77
316.36	26.96
316.573	94.55
316.787	102.74
317.001	121.17
317.214	-38.57
317.428	96.6
317.641	-28.33
317.855	39.25
318.068	41.3
318.282	61.78
318.495	162.13
318.709	18.77
318.922	4.44
319.136	188.75
319.349	178.51
319.563	-46.76
319.776	100.69
319.99	-7.85
320.203	63.83
320.417	26.96
320.63	98.64
320.843	162.13
321.057	29.01
321.27	37.2
321.483	39.25
321.697	94.55
321.91	26.96
322.124	49.49
322.337	90.45
322.55	-79.53
322.763	45.4
322.977	4.44
323.19	16.73
323.403	-5.8
323.617	108.88
323.83	55.64
324.043	49.49
324.256	24.92
324.469	-89.77
324.683	112.98
324.896	96.6
325.109	8.53
325.322	12.63
325.535	74.07
325.748	59.73
325.962	-9.9
326.175	-7.85
326.388	69.97
326.601	110.93
326.814	63.83
327.027	24.92
327.24	88.4
327.453	-69.29
327.666	74.07
327.879	102.74
328.092	135.51
328.305	57.68
328.518	10.58
328.731	4.44
328.944	63.83
329.157	121.17
329.37	-3.75
329.583	133.46
329.796	168.27
330.009	8.53
330.222	86.36
330.435	59.73
330.648	88.4
330.861	22.87
331.073	39.25
331.286	100.69
331.499	-18.09
331.712	-44.71
331.925	-42.67
332.138	39.25
332.35	149.84
332.563	-24.23
332.776	112.98
332.989	-16.04
333.202	-24.23
333.414	51.54
333.627	24.92
333.84	-50.86
334.053	45.4
334.265	61.78
334.478	-32.43
334.691	-9.9
334.903	-18.09
335.116	16.73
335.329	57.68
335.541	121.17
335.754	139.6
335.966	2.39
336.179	-122.54
336.392	20.82
336.604	14.68
336.817	112.98
337.029	88.4
337.242	35.16
337.454	29.01
337.667	49.49
337.88	164.18
338.092	31.06
338.305	41.3
338.517	-36.52
338.729	112.98
338.942	123.22
339.154	-95.91
339.367	-63.15
339.579	69.97
339.792	-22.19
340.004	106.84
340.217	37.2
340.429	106.84
340.641	-20.14
340.854	-89.77
341.066	-46.76
341.278	59.73
341.491	192.85
341.703	39.25
341.915	-44.71
342.128	88.4
342.34	18.77
342.552	51.54
342.764	24.92
342.977	12.63
343.189	129.36
343.401	72.02
343.613	-54.95
343.826	18.77
344.038	-77.48
344.25	88.4
344.462	-97.96
344.674	106.84
344.886	-9.9
345.099	125.27
345.311	14.68
345.523	-22.19
345.735	-59.05
345.947	55.64
346.159	69.97
346.371	6.49
346.583	-32.43
346.795	160.08
347.007	55.64
347.219	115.03
347.431	-7.85
347.643	88.4
347.855	47.44
348.067	65.88
348.279	-28.33
348.491	16.73
348.703	74.07
348.915	-57
349.127	-50.86
349.339	117.08
349.551	10.58
349.763	65.88
349.975	76.12
350.187	94.55
350.399	172.37
350.61	127.32
350.822	67.92
351.034	61.78
351.246	4.44
351.458	72.02
351.669	59.73
351.881	92.5
352.093	18.77
352.305	14.68
352.517	-11.95
352.728	170.32
352.94	57.68
353.152	76.12
353.363	-83.63
353.575	78.16
353.787	178.51
353.999	86.36
354.21	188.75
354.422	-91.82
354.633	39.25
354.845	67.92
355.057	37.2
355.268	4.44
355.48	145.75
355.692	-65.19
355.903	6.49
356.115	53.59
356.326	-48.81
356.538	72.02
356.749	115.03
356.961	129.36
357.172	-3.75
357.384	14.68
357.595	262.48
357.807	4.44
358.018	-61.1
358.23	59.73
358.441	166.23
358.653	86.36
358.864	69.97
359.075	0.34
359.287	57.68
359.498	143.7
359.709	90.45
359.921	53.59
360.132	16.73
360.344	2.39
360.555	37.2
360.766	119.12
360.977	-32.43
361.189	49.49
361.4	41.3
361.611	160.08
361.823	119.12
362.034	47.44
362.245	8.53
362.456	10.58
362.667	35.16
362.879	-40.62
363.09	29.01
363.301	139.6
363.512	37.2
363.723	-7.85
363.935	-57
364.146	37.2
364.357	-7.85
364.568	86.36
364.779	-52.91
364.99	96.6
365.201	-11.95
365.412	100.69
365.623	-22.19
365.834	88.4
366.045	12.63
366.256	63.83
366.467	96.6
366.678	24.92
366.889	57.68
367.1	16.73
367.311	96.6
367.522	-20.14
367.733	92.5
367.944	112.98
368.155	55.64
368.366	10.58
368.577	133.46
368.788	90.45
368.999	-38.57
369.209	-9.9
369.42	207.19
369.631	221.52
369.842	98.64
370.053	26.96
370.264	123.22
370.474	-106.15
370.685	112.98
370.896	35.16
371.107	104.79
371.317	74.07
371.528	-16.04
371.739	131.41
371.95	84.31
372.16	74.07
372.371	-108.2
372.582	0.34
372.792	33.11
373.003	106.84
373.214	127.32
373.424	133.46
373.635	-63.15
373.846	117.08
374.056	12.63
374.267	33.11
374.477	2.39
374.688	-7.85
374.898	51.54
375.109	-7.85
375.319	104.79
375.53	96.6
375.74	26.96
375.951	-9.9
376.161	61.78
376.372	137.56
376.582	12.63
376.793	49.49
377.003	-3.75
377.214	47.44
377.424	149.84
377.635	-3.75
377.845	59.73
378.055	110.93
378.266	6.49
378.476	67.92
378.686	129.36
378.897	49.49
379.107	-7.85
379.317	51.54
379.528	29.01
379.738	86.36
379.948	-20.14
380.158	45.4
380.369	39.25
380.579	145.75
380.789	12.63
380.999	94.55
381.21	108.88
381.42	194.9
381.63	24.92
381.84	125.27
382.05	69.97
382.261	61.78
382.471	133.46
382.681	-34.47
382.891	131.41
383.101	145.75
383.311	8.53
383.521	53.59
383.731	135.51
383.941	104.79
384.151	37.2
384.361	53.59
384.571	55.64
384.781	26.96
384.991	186.71
385.201	133.46
385.411	65.88
385.621	96.6
385.831	14.68
386.041	61.78
386.251	-20.14
386.461	139.6
386.671	51.54
386.881	78.16
387.091	37.2
387.301	131.41
387.511	49.49
387.72	69.97
387.93	24.92
388.14	24.92
388.35	100.69
388.56	131.41
388.769	88.4
388.979	31.06
389.189	47.44
389.399	-38.57
389.609	127.32
389.818	145.75
390.028	82.26
390.238	153.94
390.447	-54.95
390.657	47.44
390.867	24.92
391.076	16.73
391.286	26.96
391.496	53.59
391.705	14.68
391.915	229.71
392.125	65.88
392.334	39.25
392.544	145.75
392.753	84.31
392.963	-1.71
393.172	78.16
393.382	45.4
393.591	180.56
393.801	37.2
394.01	127.32
394.22	106.84
394.429	108.88
394.639	45.4
394.848	57.68
395.058	63.83
395.267	24.92
395.477	18.77
395.686	41.3
395.895	188.75
396.105	237.91
396.314	57.68
396.524	37.2
396.733	18.77
396.942	176.47
397.152	108.88
397.361	98.64
397.57	100.69
397.78	18.77
397.989	96.6
398.198	209.23
398.407	158.03
398.617	31.06
398.826	47.44
399.035	35.16
399.244	131.41
399.453	84.31
399.663	37.2
399.872	51.54
400.081	18.77
400.29	178.51
400.499	-83.63
400.708	76.12
400.917	35.16
401.127	33.11
401.336	37.2
401.545	233.81
401.754	158.03
401.963	96.6
402.172	55.64
402.381	-11.95
402.59	6.49
402.799	125.27
403.008	76.12
403.217	69.97
403.426	78.16
403.635	-20.14
403.844	57.68
404.053	57.68
404.262	78.16
404.471	151.89
404.68	98.64
404.888	90.45
405.097	12.63
405.306	80.21
405.515	78.16
405.724	55.64
405.933	123.22
406.142	49.49
406.35	88.4
406.559	-13.99
406.768	-32.43
406.977	172.37
407.185	-1.71
407.394	100.69
407.603	-54.95
407.812	96.6
408.02	147.8
408.229	47.44
408.438	59.73
408.646	-1.71
408.855	80.21
409.064	45.4
409.272	63.83
409.481	90.45
409.69	-13.99
409.898	-1.71
410.107	41.3
410.315	119.12
410.524	33.11
410.733	47.44
410.941	55.64
411.15	102.74
411.358	172.37
411.567	127.32
411.775	41.3
411.984	53.59
412.192	131.41
412.401	-9.9
412.609	112.98
412.818	108.88
413.026	57.68
413.234	39.25
413.443	74.07
413.651	12.63
413.86	65.88
414.068	135.51
414.276	123.22
414.485	-13.99
414.693	158.03
414.901	217.43
415.11	137.56
415.318	22.87
415.526	-63.15
415.734	160.08
415.943	45.4
416.151	151.89
416.359	-95.91
416.567	137.56
416.776	227.67
416.984	90.45
417.192	258.39
417.4	18.77
417.608	-5.8
417.817	-16.04
418.025	96.6
418.233	141.65
418.441	-24.23
418.649	-120.49
418.857	82.26
419.065	121.17
419.273	-34.47
419.481	53.59
419.689	4.44
419.897	67.92
420.105	-67.24
420.313	61.78
420.521	180.56
420.729	102.74
420.937	8.53
421.145	35.16
421.353	158.03
421.561	162.13
421.769	106.84
421.977	-18.09
422.185	162.13
422.393	69.97
422.601	145.75
422.809	57.68
423.017	117.08
423.224	65.88
423.432	176.47
423.64	102.74
423.848	180.56
424.056	18.77
424.263	117.08
424.471	20.82
424.679	76.12
424.887	6.49
425.094	155.99
425.302	160.08
425.51	110.93
425.718	117.08
425.925	6.49
426.133	-7.85
426.341	188.75
426.548	6.49
426.756	0.34
426.964	67.92
427.171	-22.19
427.379	98.64
427.586	-30.38
427.794	158.03
428.001	108.88
428.209	104.79
428.417	188.75
428.624	172.37
428.832	184.66
429.039	-11.95
429.247	65.88
429.454	115.03
429.662	297.3
429.869	182.61
430.076	137.56
430.284	186.71
430.491	246.1
430.699	219.47
430.906	278.87
431.114	82.26
431.321	123.22
431.528	108.88
431.736	186.71
431.943	180.56
432.15	256.34
432.358	233.81
432.565	280.91
432.772	-1.71
432.979	221.52
433.187	147.8
433.394	270.67
433.601	104.79
433.808	235.86
434.016	299.34
434.223	246.1
434.43	252.24
434.637	315.73
434.844	260.43
435.052	248.15
435.259	336.21
435.466	299.34
435.673	227.67
435.88	309.58
436.087	301.39
436.294	430.41
436.501	405.84
436.708	352.59
436.915	403.79
437.122	471.37
437.329	348.5
437.537	371.02
437.743	457.04
437.95	500.05
438.157	532.81
438.364	424.27
438.571	463.18
438.778	520.53
438.985	530.77
439.192	581.96
439.399	463.18
439.606	600.4
439.813	547.15
440.02	553.29
440.227	729.42
440.433	577.87
440.64	618.83
440.847	565.58
441.054	624.97
441.261	780.62
441.467	710.99
441.674	741.71
441.881	807.24
442.088	723.27
442.294	848.2
442.501	926.02
442.708	899.4
442.914	919.88
443.121	1016.13
443.328	1083.72
443.534	1261.89
443.741	1044.81
443.948	928.07
444.154	1055.05
444.361	1374.53
444.568	1206.59
444.774	1257.79
444.981	1079.62
445.187	1347.9
445.394	1444.16
445.6	1343.81
445.807	1487.17
446.013	1536.32
446.22	1503.55
446.426	1542.46
446.633	1755.45
446.839	1950.01
447.046	1653.05
447.252	1927.48
447.459	1982.78
447.665	2038.07
447.871	2058.55
448.078	2222.39
448.284	2089.27
448.491	2365.75
448.697	2378.03
448.903	2574.64
449.11	2718
449.316	2615.6
449.522	2816.3
449.728	2906.41
449.935	2949.42
450.141	3060.01
450.347	3363.11
450.553	3225.89
450.76	3320.1
450.966	3471.65
451.172	3561.76
451.378	3778.84
451.584	3887.39
451.791	4055.32
451.997	4108.57
452.203	4213.01
452.409	4624.65
452.615	4585.74
452.821	4423.95
453.027	4761.87
453.233	5296.39
453.44	5067.02
453.646	5333.25
453.852	5564.67
454.058	5699.84
454.264	5771.52
454.47	6201.59
454.676	6406.39
454.882	7012.59
455.088	6600.94
455.294	6844.65
455.5	7434.47
455.705	7887.07
455.911	7786.72
456.117	7911.64
456.323	8343.77
456.529	8372.44
456.735	9031.88
456.941	9306.31
457.147	9906.37
457.352	9861.31
457.558	10318.01
457.764	10823.86
457.97	11206.83
458.176	11520.17
458.381	12142.75
458.587	12310.68
458.793	12943.5
458.999	12945.55
459.204	14708.85
459.41	14999.66
459.616	14999.66
459.821	15890.53
460.027	16388.19
460.233	17000.53
460.438	17285.2
460.644	18286.65
460.85	18409.53
461.055	19228.72
461.261	20178.98
461.466	19781.67
461.672	19957.8
461.878	22366.21
462.083	21788.68
462.289	22597.63
462.494	23558.13
462.7	23414.77
462.905	23891.94
463.111	25821.13
463.316	26978.23
463.522	27514.8
463.727	28594.08
463.932	29720.46
464.138	30590.85
464.343	32063.34
464.549	32003.95
464.754	33865.55
464.959	35213.12
465.165	35927.86
465.37	35366.71
465.575	35370.81
465.781	37642.01
465.986	38831.88
466.191	38455.05
466.397	38610.7
466.602	37564.18
466.807	39667.45
467.012	40472.3
467.218	41201.38
467.423	41268.96
467.628	42770.12
467.833	44613.29
468.038	43984.57
468.244	42936.01
468.449	45002.41
468.654	44211.89
468.859	44377.78
469.064	44445.36
469.269	43318.98
469.474	43620.03
469.679	44867.24
469.885	43327.17
470.09	44318.39
470.295	44437.17
470.5	43214.53
470.705	43572.92
470.91	42411.73
471.115	41830.1
471.32	42561.23
471.525	42305.23
471.73	40910.57
471.935	40853.22
472.139	39192.32
472.344	39364.35
472.549	39200.51
472.754	37994.26
472.959	37545.75
473.164	36296.49
473.369	35569.46
473.574	36994.85
473.778	36310.83
473.983	35585.85
474.188	34830.15
474.393	33245.02
474.598	32921.44
474.802	32006
475.007	31741.81
475.212	31541.11
475.417	30207.88
475.621	29937.55
475.826	29530
476.031	28864.41
476.235	28362.66
476.44	28405.67
476.645	27375.54
476.849	27203.51
477.054	26556.35
477.259	26154.95
477.463	26128.33
477.668	25104.34
477.872	25366.48
478.077	24758.24
478.282	24170.47
478.486	23953.38
478.691	23576.56
478.895	23281.65
479.1	22994.93
479.304	23054.33
479.509	22165.51
479.713	22697.98
479.918	21835.78
480.122	21612.56
480.326	21757.96
480.531	21673.99
480.735	21424.14
480.94	21250.07
481.144	21612.56
481.348	20539.42
481.553	20899.86
481.757	20434.97
481.961	20564
482.166	20508.7
482.37	20129.83
482.574	19755.05
482.778	20052
482.983	19798.06
483.187	19423.28
483.391	19449.9
483.595	19220.53
483.8	18686.01
484.004	19189.81
484.208	19066.93
484.412	18626.62
484.616	18511.93
484.821	18298.94
485.025	17766.47
485.229	17836.1
485.433	17367.12
485.637	17125.46
485.841	16939.09
486.045	16640.09
486.249	16529.5
486.453	16490.59
486.657	16240.73
486.861	15853.67
487.065	15278.19
487.269	15573.1
487.473	14850.16
487.677	15390.83
487.881	15038.58
488.085	14332.03
488.289	14327.93
488.493	13629.57
488.697	13774.98
488.901	13590.66
489.105	13117.58
489.309	13017.23
489.512	12875.92
489.716	12787.86
489.92	12341.4
490.124	11954.33
490.328	12226.71
490.531	11780.26
490.735	11944.1
490.939	11460.77
491.143	10936.49
491.346	10909.87
491.55	10827.95
491.754	10574
491.958	10416.31
492.161	10301.62
492.365	10100.92
492.569	9879.74
492.772	9615.55
492.976	9648.32
493.18	9599.17
493.383	9294.02
493.587	9308.36
493.79	9384.13
493.994	8968.4
494.197	9140.43
494.401	8743.12
494.605	8591.57
494.808	8712.4
495.012	8523.99
495.215	8677.58
495.419	8640.72
495.622	8407.25
495.825	8356.05
496.029	8192.22
496.232	8329.43
496.436	8257.75
496.639	8321.24
496.843	8249.56
497.046	8184.02
497.249	8358.1
497.453	8138.97
497.656	8220.89
497.859	8216.79
498.063	8214.74
498.266	8216.79
498.469	8098.01
498.673	8237.27
498.876	8198.36
499.079	8145.11
499.282	8212.7
499.485	8556.75
499.689	8253.66
499.892	8440.02
500.095	8458.45
500.298	8493.27
500.501	8362.2
500.705	8861.9
500.908	8906.96
501.111	8775.89
501.314	8964.3
501.517	8984.78
501.72	9025.74
501.923	8988.88
502.126	9128.14
502.329	9619.65
502.532	9400.52
502.735	9572.55
502.938	9627.84
503.141	9740.48
503.344	9869.5
503.547	9924.8
503.75	9853.12
503.953	10178.75
504.156	10410.17
504.359	10518.71
504.562	10627.25
504.765	10762.42
504.968	11036.84
505.17	11227.31
505.373	11100.33
505.576	11376.81
505.779	11468.97
505.982	11776.16
506.185	12099.74
506.387	12204.19
506.59	12267.67
506.793	12499.09
506.996	12703.89
507.198	13275.27
507.401	13176.97
507.604	13609.09
507.807	13979.78
508.009	14094.46
508.212	14456.95
508.415	14346.36
508.617	14680.18
508.82	14850.16
509.022	15153.26
509.225	15687.78
509.428	16222.3
509.63	16259.17
509.833	16382.04
510.035	17129.55
510.238	17248.33
510.44	17432.65
510.643	18231.36
510.845	18602.04
511.048	18575.42
511.25	19230.77
511.453	19370.03
511.655	20520.99
511.858	20756.5
512.06	21153.81
512.262	21391.37
512.465	21917.7
512.667	22597.63
512.87	22867.96
513.072	23283.7
513.274	23830.51
513.477	24600.54
513.679	24704.99
513.881	25440.21
514.084	25860.04
514.286	26509.25
514.488	26791.87
514.69	28073.9
514.893	28440.48
515.095	28712.86
515.297	29443.99
515.499	29915.02
515.701	30644.1
515.904	31698.8
516.106	32061.29
516.308	32515.94
516.51	33367.9
516.712	33888.08
516.914	34617.16
517.116	35235.64
517.318	35739.44
517.52	36357.93
517.722	36851.49
517.925	37758.74
518.127	38483.72
518.329	39327.49
518.531	39450.36
518.733	40441.58
518.935	40679.14
519.136	41295.58
519.338	42424.01
519.54	42794.7
519.742	43857.59
519.944	44019.38
520.146	45115.04
520.348	45039.27
520.55	45919.9
520.752	46313.11
520.954	47040.14
521.155	47484.54
521.357	48094.84
521.559	48871.02
521.761	49475.17
521.963	49329.76
522.164	49852
522.366	50239.06
522.568	50368.08
522.77	51095.11
522.971	51633.73
523.173	51111.5
523.375	52115
523.576	51947.07
523.778	52145.72
523.98	53138.99
524.181	52917.81
524.383	53048.88
524.584	53970.46
524.786	53319.21
524.988	53458.47
525.189	53610.02
525.391	54007.33
525.592	54062.62
525.794	54222.36
525.995	53706.27
526.197	53689.89
526.398	53466.66
526.6	53722.66
526.801	53382.69
527.003	53483.05
527.204	52733.49
527.406	53524
527.607	52780.59
527.808	52737.58
528.01	51691.07
528.211	52104.76
528.412	52198.97
528.614	51672.64
528.815	51340.87
529.016	51207.75
529.218	50198.1
529.419	50214.49
529.62	49892.96
529.822	49239.65
530.023	48684.65
530.224	48473.71
530.425	47920.76
530.626	46718.6
530.828	46546.58
531.029	47226.5
531.23	45719.2
531.431	44977.83
531.632	45045.41
531.833	44533.42
532.035	44129.97
532.236	43480.77
532.437	42825.42
532.638	42297.04
532.839	42157.78
533.04	41451.23
533.241	40490.73
533.442	40728.3
533.643	39884.53
533.844	39487.23
534.045	38745.86
534.246	38285.07
534.447	37785.36
534.648	36949.79
534.849	37179.17
535.05	35964.72
535.251	35790.64
535.451	35256.12
535.652	35020.61
535.853	34436.94
536.054	34185.04
536.255	33783.63
536.456	32892.77
536.657	33042.27
536.857	32030.57
537.058	31686.51
537.259	31201.15
537.46	30916.48
537.66	30297.99
537.861	29804.43
538.062	29550.48
538.263	29061.02
538.463	28999.58
538.664	28747.68
538.865	28010.41
539.065	27942.83
539.266	27133.88
539.466	27054.01
539.667	26720.19
539.868	26744.77
540.068	26238.92
540.269	25776.08
540.469	25690.06
540.67	25300.95
540.87	25186.26
541.071	24385.51
541.271	24553.44
541.472	24025.06
541.672	23865.32
541.873	23529.45
542.073	22994.93
542.274	23095.28
542.474	22730.75
542.675	22151.17
542.875	22501.37
543.075	21856.26
543.276	21313.55
543.476	21682.19
543.676	21024.79
543.877	20944.92
544.077	20602.91
544.277	20772.89
544.478	20101.15
544.678	20248.61
544.878	19789.86
545.078	19771.43
545.279	19294.25
545.479	19146.8
545.679	18952.24
545.879	18538.55
546.079	18624.57
546.28	18294.85
546.48	17915.97
546.68	18184.26
546.88	17469.51
547.08	17559.63
547.28	17260.62
547.48	16902.23
547.68	16978
547.88	16408.67
548.081	16453.72
548.281	16226.4
548.481	15876.2
548.681	15872.1
548.881	15874.15
549.081	15198.32
549.28	15001.71
549.48	14876.79
549.68	14856.31
549.88	14848.11
550.08	14254.2
550.28	14516.34
550.48	14295.16
550.68	13621.38
550.88	13396.1
551.08	13398.15
551.279	13269.13
551.479	12800.15
551.679	13174.92
551.879	12558.49
552.079	12466.33
552.278	12304.54
552.478	12200.09
552.678	12071.07
552.878	11792.55
553.077	11389.1
553.277	11161.77
553.477	11440.29
553.676	11161.77
553.876	10690.74
554.076	10700.98
554.275	10700.98
554.475	10234.04
554.674	10281.14
554.874	9902.27
555.074	9851.07
555.273	9652.42
555.473	9478.34
555.672	9388.23
555.872	9337.03
556.071	9232.58
556.271	9058.51
556.47	9060.56
556.67	8718.54
556.869	8526.04
557.068	8401.11
557.268	8247.51
557.467	8020.19
557.667	7987.42
557.866	7905.5
558.065	7706.85
558.265	7512.29
558.464	7495.91
558.663	7452.9
558.863	7422.18
559.062	7227.62
559.261	7092.46
559.461	7061.74
559.66	6832.37
559.859	6629.62
560.058	6607.09
560.258	6406.39
560.457	6316.28
560.656	6420.72
560.855	5972.22
561.054	6195.45
561.253	6076.66
561.453	6084.86
561.652	5798.14
561.851	5898.49
562.05	5599.49
562.249	5497.09
562.448	5490.95
562.647	5265.67
562.846	5189.89
563.045	5419.27
563.244	5185.8
563.443	5134.6
563.642	4976.91
563.841	4919.56
564.04	4923.66
564.239	4694.29
564.438	4651.28
564.637	4614.41
564.836	4618.51
565.035	4339.99
565.234	4528.4
565.432	4536.59
565.631	4448.53
565.83	4272.4
566.029	4065.56
566.228	4096.28
566.427	4192.53
566.625	3940.63
566.824	4038.94
567.023	3926.3
567.222	3797.28
567.42	3875.1
567.619	3795.23
567.818	3627.29
568.016	3791.13
568.215	3606.81
568.414	3588.38
568.612	3438.88
568.811	3457.31
569.01	3412.26
569.208	3338.53
569.407	3346.72
569.605	3303.71
569.804	3115.3
570.002	3225.89
570.201	2998.57
570.4	3096.87
570.598	3002.66
570.797	3037.48
570.995	2797.87
571.193	2787.63
571.392	2804.01
571.59	2724.14
571.789	2924.84
571.987	2808.11
572.186	2826.54
572.384	2537.77
572.582	2623.79
572.781	2728.24
572.979	2318.64
573.177	2576.69
573.376	2443.57
573.574	2455.86
573.772	2328.88
573.971	2117.94
574.169	2255.15
574.367	2347.31
574.565	2244.92
574.763	2154.8
574.962	2146.61
575.16	2027.83
575.358	2036.02
575.556	2029.88
575.754	2040.12
575.952	2003.25
576.151	1962.3
576.349	1882.42
576.547	1814.84
576.745	1886.52
576.943	1747.26
577.141	1884.47
577.339	1685.82
577.537	1761.59
577.735	1835.32
577.933	1685.82
578.131	1573.18
578.329	1818.94
578.527	1681.72
578.725	1730.87
578.923	1605.95
579.121	1595.71
579.319	1499.45
579.516	1466.69
579.714	1704.25
579.912	1483.07
580.11	1397.06
580.308	1415.49
580.506	1390.91
580.704	1130.82
580.901	1243.46
581.099	1489.21
581.297	1401.15
581.495	1294.66
581.692	1239.36
581.89	1345.86
582.088	1253.7
582.285	1239.36
582.483	1192.26
582.681	1114.44
582.878	1118.53
583.076	1192.26
583.274	1255.75
583.471	1245.51
583.669	1063.24
583.866	1001.8
584.064	991.56
584.262	948.55
584.459	913.74
584.657	1028.42
584.854	1083.72
585.052	1046.85
585.249	913.74
585.447	1034.57
585.644	827.72
585.841	1089.86
586.039	981.32
586.236	1044.81
586.434	805.19
586.631	864.58
586.828	901.45
587.026	833.86
587.223	758.09
587.42	782.67
587.618	846.15
587.815	1007.94
588.012	844.1
588.21	823.62
588.407	801.1
588.604	876.87
588.801	682.31
588.999	768.33
589.196	790.86
589.393	641.36
589.59	700.75
589.787	770.38
589.984	784.71
590.182	762.19
590.379	653.64
590.576	760.14
590.773	729.42
590.97	665.93
591.167	690.51
591.364	739.66
591.561	698.7
591.758	792.91
591.955	717.13
592.152	684.36
592.349	639.31
592.546	696.65
592.743	600.4
592.94	643.4
593.137	768.33
593.334	827.72
593.531	797
593.727	721.23
593.924	696.65
594.121	708.94
594.318	659.79
594.515	655.69
594.712	887.11
594.908	766.28
595.105	670.03
595.302	842.06
595.499	704.84
595.696	825.67
595.892	723.27
596.089	821.58
596.286	870.73
596.482	878.92
596.679	891.21
596.876	880.97
597.072	899.4
597.269	844.1
597.466	981.32
597.662	1042.76
597.859	944.45
598.055	1061.19
598.252	1112.39
598.448	1141.06
598.645	1208.64
598.841	1155.4
599.038	1263.94
599.234	1366.34
599.431	1354.05
599.627	1440.06
599.824	1390.91
600.02	1427.78
600.217	1497.41
600.413	1493.31
600.609	1681.72
600.806	1872.18
601.002	1630.52
601.198	1769.79
601.395	1954.1
601.591	1919.29
601.787	1974.58
601.984	2117.94
602.18	2154.8
602.376	2359.6
602.572	2347.31
602.769	2539.82
602.965	2545.97
603.161	2695.47
603.357	2687.28
603.553	2836.78
603.75	2679.08
603.946	2883.88
604.142	3111.21
604.338	3334.43
604.534	3199.27
604.73	3473.7
604.926	3336.48
605.122	3694.88
605.318	3641.63
605.514	3801.37
605.71	3811.61
605.906	4135.19
606.102	4215.06
606.298	4225.3
606.494	4342.04
606.69	4569.36
606.886	4653.33
607.082	4686.09
607.278	4933.9
607.474	5130.5
607.67	5222.66
607.866	5118.22
608.062	5525.76
608.257	5603.58
608.453	5671.17
608.649	5918.97
608.845	6035.71
609.041	6150.39
609.236	6492.4
609.432	6711.53
609.628	6848.75
609.824	7043.31
610.019	7151.85
610.215	7420.13
610.411	7725.28
610.606	7870.69
610.802	7964.89
610.998	8278.23
611.193	8562.9
611.389	8349.91
611.584	8939.72
611.78	8802.51
611.976	9033.93
612.171	9449.67
612.367	9767.1
612.562	9894.08
612.758	10068.16
612.953	10113.21
613.149	10764.47
613.344	10944.69
613.539	11296.94
613.735	11671.72
613.93	11827.36
614.126	12124.32
614.321	12781.71
614.517	12943.5
614.712	13324.43
614.907	13469.83
615.103	13877.38
615.298	14125.18
615.493	14624.89
615.688	14549.11
615.884	15409.26
616.079	15751.27
616.274	16244.83
616.47	16271.45
616.665	17010.77
616.86	17268.81
617.055	17735.75
617.25	18323.52
617.445	18686.01
617.641	18757.69
617.836	19253.3
618.031	19671.08
618.226	20756.5
618.421	20987.93
618.616	21559.31
618.811	21985.29
619.006	22462.46
619.201	22589.44
619.396	23361.52
619.591	23527.41
619.786	24414.18
619.981	24616.93
620.176	25671.63
620.371	25937.87
620.566	26296.26
620.761	27115.45
620.956	27645.87
621.151	27973.55
621.346	28479.39
621.541	29163.42
621.735	29855.63
621.93	29890.45
622.125	30769.02
622.32	30908.29
622.515	31831.92
622.709	32413.54
622.904	33058.65
623.099	33337.18
623.294	34271.05
623.488	34295.63
623.683	35385.15
623.878	35352.38
624.072	36579.11
624.267	37048.1
624.462	37185.31
624.656	37295.9
624.851	38620.94
625.046	38579.98
625.24	39386.88
625.435	39798.52
625.629	40537.83
625.824	40804.07
626.018	41539.29
626.213	41287.39
626.407	42430.16
626.602	42208.98
626.796	43165.38
626.991	43429.57
627.185	43773.63
627.38	43916.98
627.574	43939.51
627.768	44506.8
627.963	44211.89
628.157	44777.13
628.352	45018.79
628.546	43763.39
628.74	45358.75
628.935	44488.37
629.129	44443.31
629.323	43708.09
629.517	43894.46
629.712	43697.85
629.906	43486.91
630.1	42378.96
630.294	42667.72
630.489	41750.23
630.683	41246.43
630.877	40683.24
631.071	39741.17
631.265	39388.92
631.459	38518.54
631.653	38008.59
631.848	37218.08
632.042	36005.68
632.236	35006.27
632.43	33980.24
632.624	33421.14
632.818	31971.18
633.012	30928.77
633.206	29972.36
633.4	29251.48
633.594	27838.38
633.788	27082.68
633.982	26646.46
634.176	25411.54
634.369	24158.18
634.563	23699.44
634.757	22437.89
634.951	21749.77
635.145	21045.27
635.339	20400.16
635.533	18876.47
635.726	18823.22
635.92	17692.74
636.114	16963.67
636.308	15978.59
636.501	15593.58
636.695	15011.95
636.889	14542.97
637.083	13893.76
637.276	13185.16
637.47	12738.71
637.664	12245.15
637.857	11735.2
638.051	11149.48
638.244	10924.21
638.438	10320.06
638.632	9885.89
638.825	9421
639.019	9285.83
639.212	8593.62
639.406	8446.16
639.599	7930.08
639.793	7825.63
639.986	7477.48
640.18	7268.58
640.373	6815.98
640.567	6578.42
640.76	6344.95
640.954	6148.34
641.147	5910.78
641.34	5671.17
641.534	5390.6
641.727	5370.12
641.92	5040.39
642.114	4833.55
642.307	4645.13
642.5	4407.57
642.694	4303.12
642.887	4157.72
643.08	4151.57
643.273	3930.39
643.467	3705.12
643.66	3485.98
643.853	3303.71
644.046	3381.54
644.239	3191.08
644.432	2996.52
644.626	2791.72
644.819	2879.79
645.012	2660.65
645.205	2793.77
645.398	2513.2
645.591	2378.03
645.784	2253.11
645.977	2081.08
646.17	2027.83
646.363	2119.99
646.556	1857.85
646.749	1907
646.942	1878.33
647.135	1755.45
647.328	1661.24
647.521	1714.49
647.714	1507.65
647.907	1653.05
648.099	1524.03
648.292	1470.78
648.485	1331.52
648.678	1294.66
648.871	1218.88
649.064	1186.12
649.256	1132.87
649.449	1077.57
649.642	1028.42
649.835	1016.13
650.027	1028.42
650.22	1026.37
650.413	1014.09
650.605	883.02
650.798	774.47
650.991	860.49
651.183	794.95
651.376	868.68
651.568	784.71
651.761	633.16
651.954	762.19
652.146	684.36
652.339	770.38
652.531	797
652.724	528.72
652.916	620.88
653.109	405.84
653.301	659.79
653.494	682.31
653.686	541.01
653.879	647.5
654.071	633.16
654.263	543.05
654.456	407.89
654.648	616.78
654.84	407.89
655.033	465.23
655.225	606.54
655.417	338.26
655.61	581.96
655.802	459.09
655.994	541.01
656.186	311.63
656.379	450.89
656.571	366.93
656.763	295.25
656.955	330.06
657.148	364.88
657.34	362.83
657.532	334.16
657.724	332.11
657.916	285.01
658.108	389.46
658.3	332.11
658.492	338.26
658.684	190.8
658.876	278.87
659.068	229.71
659.26	174.42
659.452	203.09
659.644	287.06
659.836	340.3
660.028	266.58
660.22	209.23
660.412	186.71
660.604	223.57
660.796	217.43
660.988	340.3
661.18	168.27
661.372	268.63
661.563	301.39
661.755	233.81
661.947	194.9
662.139	137.56
662.331	194.9
662.522	225.62
662.714	133.46
662.906	100.69
663.097	196.95
663.289	176.47
663.481	106.84
663.673	301.39
663.864	227.67
664.056	151.89
664.247	160.08
664.439	213.33
664.631	186.71
664.822	254.29
665.014	180.56
665.205	55.64
665.397	145.75
665.588	104.79
665.78	184.66
665.971	213.33
666.163	207.19
666.354	178.51
666.546	174.42
666.737	67.92
666.929	76.12
667.12	125.27
667.311	168.27
667.503	131.41
667.694	117.08
667.885	207.19
668.077	295.25
668.268	63.83
668.459	127.32
668.651	61.78
668.842	223.57
669.033	86.36
669.224	106.84
669.416	268.63
669.607	110.93
669.798	74.07
669.989	237.91
670.18	57.68
670.371	162.13
670.563	76.12
670.754	201.04
670.945	170.32
671.136	201.04
671.327	31.06
671.518	170.32
671.709	176.47
671.9	174.42
672.091	162.13
672.282	80.21
672.473	176.47
672.664	110.93
672.855	92.5
673.046	63.83
673.237	166.23
673.428	158.03
673.619	215.38
673.809	145.75
674	246.1
674.191	192.85
674.382	61.78
674.573	129.36
674.764	133.46
674.954	233.81
675.145	102.74
675.336	123.22
675.527	82.26
675.717	112.98
675.908	90.45
676.099	90.45
676.289	180.56
676.48	129.36
676.671	192.85
676.861	92.5
677.052	149.84
677.243	145.75
677.433	26.96
677.624	237.91
677.814	119.12
678.005	182.61
678.195	223.57
678.386	112.98
678.576	137.56
678.767	49.49
678.957	164.18
679.148	223.57
679.338	223.57
679.529	145.75
679.719	65.88
679.909	209.23
680.1	151.89
680.29	211.28
680.481	90.45
680.671	246.1
680.861	203.09
681.052	110.93
681.242	115.03
681.432	209.23
681.622	196.95
681.813	33.11
682.003	96.6
682.193	102.74
682.383	129.36
682.573	203.09
682.764	184.66
682.954	266.58
683.144	219.47
683.334	196.95
683.524	196.95
683.714	172.37
683.904	211.28
684.094	139.6
684.284	176.47
684.474	295.25
684.664	233.81
684.854	246.1
685.044	260.43
685.234	280.91
685.424	131.41
685.614	164.18
685.804	291.15
685.994	227.67
686.184	182.61
686.374	268.63
686.564	219.47
686.753	190.8
686.943	104.79
687.133	141.65
687.323	223.57
687.513	239.95
687.702	182.61
687.892	168.27
688.082	291.15
688.272	266.58
688.461	196.95
688.651	280.91
688.841	276.82
689.03	237.91
689.22	131.41
689.41	285.01
689.599	272.72
689.789	149.84
689.979	285.01
690.168	194.9
690.358	244.05
690.547	221.52
690.737	227.67
690.926	260.43
691.116	246.1
691.305	225.62
691.495	276.82
691.684	188.75
691.874	155.99
692.063	180.56
692.252	313.68
692.442	164.18
692.631	139.6
692.82	186.71
693.01	194.9
693.199	198.99
693.388	256.34
693.578	256.34
693.767	100.69
693.956	192.85
694.146	172.37
694.335	262.48
694.524	213.33
694.713	239.95
694.902	131.41
695.092	211.28
695.281	235.86
695.47	184.66
695.659	289.1
695.848	260.43
696.037	112.98
696.226	186.71
696.415	188.75
696.604	348.5
696.793	262.48
696.982	178.51
697.171	254.29
697.36	209.23
697.549	182.61
697.738	117.08
697.927	158.03
698.116	160.08
698.305	299.34
698.494	225.62
698.683	184.66
698.872	321.87
699.061	227.67
699.25	196.95
699.438	184.66
699.627	160.08
699.816	323.92
700.005	174.42
700.193	155.99
700.382	225.62
700.571	176.47
700.76	151.89
700.948	182.61
701.137	285.01
701.326	201.04
701.514	151.89
701.703	289.1
701.892	248.15
702.08	360.78
702.269	94.55
702.457	125.27
702.646	223.57
702.834	158.03
703.023	282.96
703.212	252.24
703.4	194.9
703.589	151.89
703.777	186.71
703.965	104.79
704.154	119.12
704.342	100.69
704.531	131.41
704.719	139.6
704.907	215.38
705.096	166.23
705.284	131.41
705.472	162.13
705.661	176.47
705.849	237.91
706.037	262.48
706.226	188.75
706.414	213.33
706.602	137.56
706.79	285.01
706.979	88.4
707.167	221.52
707.355	110.93
707.543	256.34
707.731	231.76
707.919	168.27
708.107	153.94
708.296	158.03
708.484	188.75
708.672	250.19
708.86	221.52
709.048	184.66
709.236	141.65
709.424	115.03
709.612	203.09
709.8	125.27
709.988	192.85
710.176	227.67
710.364	209.23
710.551	137.56
710.739	213.33
710.927	196.95
711.115	166.23
711.303	268.63
711.491	248.15
711.679	162.13
711.866	248.15
712.054	182.61
712.242	186.71
712.43	254.29
712.617	94.55
712.805	301.39
712.993	121.17
713.181	100.69
713.368	266.58
713.556	102.74
713.744	153.94
713.931	332.11
714.119	217.43
714.306	225.62
714.494	162.13
714.682	186.71
714.869	147.8
715.057	172.37
715.244	131.41
715.432	215.38
715.619	168.27
715.807	137.56
715.994	172.37
716.182	248.15
716.369	203.09
716.556	176.47
716.744	80.21
716.931	86.36
717.119	207.19
717.306	219.47
717.493	254.29
717.681	98.64
717.868	127.32
718.055	233.81
718.242	162.13
718.43	219.47
718.617	258.39
718.804	205.14
718.991	424.27
719.179	272.72
719.366	211.28
719.553	172.37
719.74	155.99
719.927	180.56
720.114	209.23
720.301	178.51
720.488	127.32
720.676	117.08
720.863	244.05
721.05	313.68
721.237	196.95
721.424	242
721.611	250.19
721.798	49.49
721.985	213.33
722.172	235.86
722.358	174.42
722.545	258.39
722.732	231.76
722.919	268.63
723.106	250.19
723.293	209.23
723.48	248.15
723.667	258.39
723.853	282.96
724.04	272.72
724.227	246.1
724.414	172.37
724.6	276.82
724.787	274.77
724.974	303.44
725.161	223.57
725.347	119.12
725.534	280.91
725.72	328.02
725.907	227.67
726.094	285.01
726.28	217.43
726.467	231.76
726.653	135.51
726.84	366.93
727.027	393.55
727.213	215.38
727.4	242
727.586	250.19
727.773	194.9
727.959	252.24
728.145	246.1
728.332	178.51
728.518	196.95
728.705	278.87
728.891	190.8
729.077	225.62
729.264	151.89
729.45	149.84
729.636	289.1
729.823	258.39
730.009	280.91
730.195	285.01
730.382	207.19
730.568	166.23
730.754	211.28
730.94	227.67
731.126	256.34
731.313	311.63
731.499	192.85
731.685	272.72
731.871	325.97
732.057	235.86
732.243	262.48
732.429	278.87
732.615	340.3
732.801	358.74
732.987	182.61
733.173	295.25
733.359	201.04
733.545	344.4
733.731	250.19
733.917	346.45
734.103	287.06
734.289	229.71
734.475	227.67
734.661	407.89
734.847	219.47
735.033	246.1
735.219	368.98
735.404	211.28
735.59	196.95
735.776	264.53
735.962	344.4
736.148	311.63
736.333	364.88
736.519	260.43
736.705	278.87
736.89	260.43
737.076	256.34
737.262	190.8
737.447	207.19
737.633	317.78
737.819	315.73
738.004	256.34
738.19	266.58
738.375	295.25
738.561	344.4
738.747	235.86
738.932	186.71
739.118	289.1
739.303	371.02
739.489	301.39
739.674	242
739.859	137.56
740.045	254.29
740.23	252.24
740.416	151.89
740.601	325.97
740.786	231.76
740.972	166.23
741.157	285.01
741.342	129.36
741.528	250.19
741.713	352.59
741.898	270.67
742.084	203.09
742.269	242
742.454	278.87
742.639	309.58
742.824	246.1
743.01	315.73
743.195	356.69
743.38	248.15
743.565	219.47
743.75	282.96
743.935	303.44
744.12	325.97
744.305	174.42
744.49	196.95
744.675	147.8
744.86	153.94
745.045	274.77
745.23	297.3
745.415	239.95
745.6	325.97
745.785	291.15
745.97	315.73
746.155	278.87
746.34	319.82
746.525	248.15
746.71	321.87
746.895	131.41
747.079	147.8
747.264	239.95
747.449	223.57
747.634	305.49
747.819	311.63
748.003	239.95
748.188	141.65
748.373	221.52
748.557	219.47
748.742	166.23
748.927	254.29
749.111	137.56
749.296	201.04
749.481	278.87
749.665	172.37
749.85	145.75
750.034	285.01
750.219	215.38
750.404	223.57
750.588	211.28
750.773	90.45
750.957	211.28
751.141	239.95
751.326	276.82
751.51	82.26
751.695	84.31
751.879	194.9
752.064	344.4
752.248	221.52
752.432	287.06
752.617	280.91
752.801	262.48
752.985	168.27
753.17	264.53
753.354	149.84
753.538	246.1
753.722	137.56
753.907	86.36
754.091	88.4
754.275	301.39
754.459	98.64
754.643	168.27
754.828	145.75
755.012	125.27
755.196	51.54
755.38	209.23
755.564	86.36
755.748	149.84
755.932	211.28
756.116	178.51
756.3	182.61
756.484	155.99
756.668	211.28
756.852	14.68
757.036	201.04
757.22	125.27
757.404	145.75
757.588	98.64
757.772	176.47
757.956	129.36
758.14	319.82
758.323	76.12
758.507	180.56
758.691	117.08
758.875	219.47
759.059	264.53
759.242	121.17
759.426	141.65
759.61	92.5
759.794	86.36
759.977	153.94
760.161	350.54
760.345	213.33
760.528	160.08
760.712	184.66
760.895	76.12
761.079	196.95
761.263	88.4
761.446	96.6
761.63	137.56
761.813	229.71
761.997	22.87
762.18	65.88
762.364	151.89
762.547	43.35
762.731	20.82
762.914	115.03
763.098	162.13
763.281	172.37
763.464	84.31
763.648	88.4
763.831	59.73
764.015	110.93
764.198	137.56
764.381	43.35
764.564	98.64
764.748	143.7
764.931	147.8
765.114	100.69
765.297	213.33
765.481	108.88
765.664	145.75
765.847	72.02
766.03	194.9
766.213	14.68
766.397	8.53
766.58	24.92
766.763	174.42
766.946	33.11
767.129	2.39
767.312	88.4
767.495	8.53
767.678	104.79
767.861	164.18
768.044	115.03
768.227	106.84
768.41	106.84
768.593	88.4
768.776	119.12
768.959	59.73
769.142	94.55
769.324	80.21
769.507	76.12
769.69	74.07
769.873	86.36
770.056	309.58
770.239	37.2
770.421	127.32
770.604	172.37
770.787	57.68
770.97	115.03
771.152	29.01
771.335	137.56
771.518	45.4
771.7	151.89
771.883	170.32
772.066	53.59
772.248	158.03
772.431	145.75
772.613	-5.8
772.796	115.03
772.978	69.97
773.161	129.36
773.343	39.25
773.526	78.16
773.708	-20.14
773.891	-83.63
774.073	145.75
774.256	-36.52
774.438	121.17
774.621	100.69
774.803	24.92
774.985	-5.8
775.168	117.08
775.35	29.01
775.532	151.89
775.715	-11.95
775.897	57.68
776.079	-65.19
776.261	72.02
776.444	143.7
776.626	37.2
776.808	45.4
776.99	20.82
777.173	78.16
777.355	37.2
777.537	57.68
777.719	22.87
777.901	-18.09
778.083	51.54
778.265	-11.95
778.447	-5.8
778.629	-24.23
778.811	72.02
778.993	141.65
779.175	139.6
779.357	72.02
779.539	-54.95
779.721	51.54
779.903	110.93
780.085	55.64
780.267	45.4
780.449	98.64
780.631	102.74
780.812	61.78
780.994	33.11
781.176	47.44
781.358	-3.75
781.54	37.2
781.721	88.4
781.903	137.56
782.085	16.73
782.267	174.42
782.448	-63.15
782.63	-3.75
782.812	20.82
782.993	20.82
783.175	104.79
783.357	26.96
783.538	4.44
783.72	104.79
783.901	59.73
784.083	18.77
784.264	84.31
784.446	-28.33
784.627	-69.29
784.809	98.64
784.99	-91.82
785.172	84.31
785.353	-16.04
785.535	26.96
785.716	0.34
785.897	-40.62
786.079	12.63
786.26	18.77
786.441	74.07
786.623	-28.33
786.804	0.34
786.985	84.31
787.167	98.64
787.348	10.58
787.529	14.68
787.71	0.34
787.891	80.21
788.073	-73.39
788.254	-91.82
788.435	49.49
788.616	57.68
788.797	-81.58
788.978	67.92
789.159	-26.28
789.34	65.88
789.522	65.88
789.703	-87.72
789.884	92.5
790.065	98.64
790.246	176.47
790.427	35.16
790.607	162.13
790.788	63.83
790.969	41.3
791.15	49.49
791.331	-40.62
791.512	-3.75
791.693	-9.9
791.874	-28.33
792.054	123.22
792.235	90.45
792.416	-48.81
792.597	-61.1
792.778	94.55
792.958	98.64
793.139	-61.1
793.32	53.59
793.5	-30.38
793.681	137.56
793.862	39.25
794.042	8.53
794.223	-59.05
794.404	14.68
794.584	-122.54
794.765	-3.75
794.945	69.97
795.126	41.3
795.306	74.07
795.487	2.39
795.667	37.2
795.848	96.6
796.028	53.59
796.209	96.6
796.389	65.88
796.57	-32.43
796.75	-20.14
796.93	24.92
797.111	-5.8
797.291	-54.95
797.471	69.97
797.652	-73.39
797.832	-69.29
798.012	49.49
798.192	-42.67
798.373	-28.33
798.553	10.58
798.733	18.77
798.913	0.34
799.093	76.12
799.274	10.58
799.454	110.93
799.634	2.39
799.814	153.94
799.994	39.25
800.174	8.53
800.354	53.59
800.534	-171.69
800.714	55.64
800.894	-48.81
801.074	2.39
801.254	-69.29
801.434	35.16
801.614	-32.43
801.794	-34.47
801.974	1970.49
802.154	-5.8
802.334	98.64
802.514	-28.33
802.693	-3.75
802.873	18.77
803.053	74.07
803.233	33.11
803.413	67.92
803.592	-38.57
803.772	-77.48
803.952	20.82
804.131	-61.1
804.311	131.41
804.491	115.03
804.67	-26.28
804.85	-50.86
805.03	4.44
805.209	57.68
805.389	6.49
805.568	49.49
805.748	-100.01
805.928	-83.63
806.107	16.73
806.287	31.06
806.466	63.83
806.646	-38.57
806.825	-20.14
807.004	-13.99
807.184	6.49
807.363	26.96
807.543	53.59
807.722	-57
807.901	63.83
808.081	78.16
808.26	-161.45
808.439	8.53
808.619	4.44
808.798	-16.04
808.977	69.97
809.156	129.36
809.336	26.96
809.515	61.78
809.694	-91.82
809.873	-26.28
810.052	24.92
810.231	96.6
810.411	59.73
810.59	86.36
810.769	-13.99
810.948	67.92
811.127	-52.91
811.306	-69.29
811.485	-18.09
811.664	57.68
811.843	37.2
812.022	-16.04
812.201	0.34
812.38	-30.38
812.559	-48.81
812.737	29.01
812.916	-69.29
813.095	-61.1
813.274	24.92
813.453	-108.2
813.632	31.06
813.811	178.51
813.989	-155.3
814.168	-7.85
814.347	-67.24
814.526	41.3
814.704	184.66
814.883	139.6
815.062	-52.91
815.24	16.73
815.419	-71.34
815.598	43.35
815.776	-93.87
815.955	63.83
816.133	-140.97
816.312	74.07
816.49	-77.48
816.669	69.97
816.847	22.87
817.026	92.5
817.204	6.49
817.383	-71.34
817.561	-3.75
817.74	57.68
817.918	49.49
818.097	-50.86
818.275	-100.01
818.453	110.93
818.632	8.53
818.81	-16.04
818.988	-24.23
819.167	-18.09
819.345	-34.47
819.523	26.96
819.701	65.88
819.879	45.4
820.058	-11.95
820.236	39.25
820.414	37.2
820.592	-22.19
820.77	51.54
820.948	-67.24
821.127	-24.23
821.305	-81.58
821.483	-77.48
821.661	131.41
821.839	-5.8
822.017	-1.71
822.195	10.58
822.373	53.59
822.551	74.07
822.729	47.44
822.907	-44.71
823.085	90.45
823.262	65.88
823.44	-61.1
823.618	-54.95
823.796	35.16
823.974	-79.53
824.152	-73.39
824.329	-69.29
824.507	31.06
824.685	12.63
824.863	-67.24
825.04	4.44
825.218	8.53
825.396	-26.28
825.574	57.68
825.751	8.53
825.929	53.59
826.107	-54.95
826.284	29.01
826.462	31.06
826.639	-42.67
826.817	-122.54
826.994	-61.1
827.172	-110.25
827.349	155.99
827.527	-63.15
827.704	-18.09
827.882	14.68
828.059	10.58
828.237	-114.34
828.414	57.68
828.591	-192.17
828.769	-44.71
828.946	-46.76
829.124	88.4
829.301	63.83
829.478	24.92
829.655	0.34
829.833	8.53
830.01	-210.6
830.187	2.39
830.364	-52.91
830.542	20.82
830.719	69.97
830.896	65.88
831.073	-3.75
831.25	-69.29
831.427	-32.43
831.604	-44.71
831.782	-44.71
831.959	121.17
832.136	-87.72
832.313	16.73
832.49	-32.43
832.667	55.64
832.844	-13.99
833.021	110.93
833.198	78.16
833.374	8.53
833.551	-9.9
833.728	43.35
833.905	112.98
834.082	-97.96
834.259	74.07
834.436	86.36
834.612	6.49
834.789	74.07
834.966	41.3
835.143	-16.04
835.319	-67.24
835.496	57.68
835.673	24.92
835.85	41.3
836.026	61.78
836.203	18.77
836.38	-114.34
836.556	-44.71
836.733	63.83
836.909	88.4
837.086	24.92
837.262	-128.68
837.439	31.06
837.616	-3.75
837.792	-1.71
837.968	22.87
838.145	-126.63
838.321	-18.09
838.498	-13.99
838.674	-46.76
838.851	8.53
839.027	-89.77
839.203	-57
839.38	37.2
839.556	-59.05
839.732	12.63
839.909	-65.19
840.085	115.03
840.261	-16.04
840.437	55.64
840.614	-48.81
840.79	31.06
840.966	47.44
841.142	63.83
841.318	-57
841.494	-9.9
841.671	96.6
841.847	-95.91
842.023	-100.01
842.199	115.03
842.375	59.73
842.551	-104.11
842.727	-116.39
842.903	123.22
843.079	-40.62
843.255	82.26
843.431	14.68
843.607	12.63
843.783	-95.91
843.959	10.58
844.134	-22.19
844.31	72.02
844.486	-81.58
844.662	-81.58
844.838	-16.04
845.013	-61.1
845.189	26.96
845.365	39.25
845.541	-7.85
845.716	-50.86
845.892	53.59
846.068	-24.23
846.244	-59.05
846.419	80.21
846.595	-46.76
846.77	-40.62
846.946	67.92
847.122	-110.25
847.297	-30.38
847.473	90.45
847.648	-61.1
847.824	-57
847.999	-83.63
848.175	-46.76
848.35	-22.19
848.526	16.73
848.701	-3.75
848.876	41.3
849.052	129.36
849.227	-87.72
849.403	-85.67
849.578	-1.71
849.753	-3.75
849.929	59.73
850.104	-126.63
850.279	8.53
850.454	-26.28
850.63	2.39
850.805	-9.9
850.98	-9.9
851.155	-1.71
851.33	63.83
851.505	-48.81
851.681	100.69
851.856	-71.34
852.031	67.92
852.206	31.06
852.381	-100.01
852.556	-73.39
852.731	47.44
852.906	65.88
853.081	78.16
853.256	82.26
853.431	8.53
853.606	-20.14
853.781	-46.76
853.956	-81.58
854.131	-26.28
854.305	-52.91
854.48	-16.04
854.655	0.34
854.83	0.34
855.005	18.77
855.18	8.53
855.354	29.01
855.529	35.16
855.704	-24.23
855.879	37.2
856.053	-110.25
856.228	6.49
856.403	-95.91
856.577	57.68
856.752	-93.87
856.926	-59.05
857.101	-30.38
857.276	-93.87
857.45	-46.76
857.625	45.4
857.799	4.44
857.974	-5.8
858.148	-75.43
858.323	-13.99
858.497	26.96
858.672	-85.67
858.846	-110.25
859.02	119.12
859.195	-89.77
859.369	-38.57
859.543	69.97
859.718	6.49
859.892	18.77
860.066	-24.23
860.241	-48.81
860.415	-124.58
860.589	-5.8
860.763	35.16
860.938	-3.75
861.112	-16.04
861.286	14.68
861.46	-52.91
861.634	-116.39
861.808	65.88
861.982	-112.3
862.157	-122.54
862.331	-20.14
862.505	-77.48
862.679	-61.1
862.853	-3.75
863.027	-89.77
863.201	49.49
863.375	-44.71
863.549	72.02
863.722	59.73
863.896	119.12
864.07	37.2
864.244	2.39
864.418	-36.52
864.592	43.35
864.766	-81.58
864.939	-34.47
865.113	-28.33
865.287	119.12
865.461	-52.91
865.634	59.73
865.808	4.44
865.982	-67.24
866.156	-46.76
866.329	-108.2
866.503	-11.95
866.676	63.83
866.85	-26.28
867.024	0.34
867.197	90.45
867.371	29.01
867.544	12.63
867.718	-108.2
867.891	63.83
868.065	-79.53
868.238	24.92
868.412	16.73
868.585	-42.67
868.759	-16.04
868.932	-67.24
869.105	-100.01
869.279	-50.86
869.452	-5.8
869.625	67.92
869.799	-7.85
869.972	-89.77
870.145	-36.52
870.319	61.78
870.492	26.96
870.665	-36.52
870.838	-59.05
871.011	-132.78
871.185	-61.1
871.358	-1.71
871.531	55.64
871.704	-7.85
871.877	43.35
872.05	-63.15
872.223	-122.54
872.396	59.73
872.569	8.53
872.742	-177.83
872.915	-34.47
873.088	-89.77
873.261	-30.38
873.434	-42.67
873.607	6.49
873.78	45.4
873.953	-95.91
874.126	-77.48
874.299	-22.19
874.471	-16.04
874.644	-3.75
874.817	76.12
874.99	53.59
875.163	-38.57
875.335	-48.81
875.508	-73.39
875.681	74.07
875.853	-48.81
876.026	-24.23
876.199	18.77
876.371	-54.95
876.544	-110.25
876.717	16.73
876.889	26.96
877.062	22.87
877.234	-114.34
877.407	-63.15
877.579	-9.9
877.752	-79.53
877.924	45.4
878.097	12.63
878.269	33.11
878.442	65.88
878.614	16.73
878.786	20.82
878.959	18.77
879.131	-32.43
879.303	-75.43
879.476	-116.39
879.648	49.49
879.82	-24.23
879.993	-79.53
880.165	-69.29
880.337	-69.29
880.509	57.68
880.681	-73.39
880.854	-75.43
881.026	31.06
881.198	166.23
881.37	88.4
881.542	-59.05
881.714	-28.33
881.886	-54.95
882.058	-7.85
882.23	-63.15
882.402	57.68
882.574	-9.9
882.746	57.68
882.918	33.11
883.09	-11.95
883.262	-67.24
883.434	6.49
883.606	-87.72
883.778	-34.47
883.95	192.85
884.122	39.25
884.293	90.45
884.465	-18.09
884.637	31.06
884.809	22.87
884.98	41.3
885.152	20.82
885.324	90.45
885.496	-24.23
885.667	-38.57
885.839	-11.95
886.011	67.92
886.182	63.83
886.354	74.07
886.525	-24.23
886.697	57.68
886.869	-57
887.04	12.63
887.212	14.68
887.383	80.21
887.555	37.2
887.726	-106.15
887.897	-44.71
888.069	-85.67
888.24	24.92
888.412	10.58
888.583	-54.95
888.754	10.58
888.926	-69.29
889.097	-42.67
889.268	-112.3
889.44	16.73
889.611	-140.97
889.782	-11.95
889.953	-61.1
890.125	102.74
890.296	-93.87
890.467	-40.62
890.638	-34.47
890.809	-1.71
890.98	-50.86
891.151	-36.52
891.323	94.55
891.494	-42.67
891.665	8.53
891.836	33.11
892.007	33.11
892.178	31.06
892.349	-26.28
892.52	-46.76
892.691	-5.8
892.862	-48.81
893.032	-91.82
893.203	-69.29
893.374	-85.67
893.545	86.36
893.716	-44.71
893.887	24.92
894.057	-36.52
894.228	-28.33
894.399	-40.62
894.57	14.68
894.74	29.01
894.911	-50.86
895.082	-7.85
895.253	-57
895.423	-81.58
895.594	20.82
895.764	0.34
895.935	-67.24
896.106	90.45
896.276	-61.1
896.447	-7.85
896.617	-22.19
896.788	-36.52
896.958	-65.19
897.129	-20.14
897.299	-93.87
897.47	127.32
897.64	43.35
897.81	-22.19
897.981	31.06
898.151	-57
898.322	37.2
898.492	26.96
898.662	-54.95
898.832	-32.43
899.003	-16.04
899.173	47.44
899.343	-38.57
899.513	-83.63
