Data from USB4F104151__25__10-42-07-984.txt Node

Date: Wed Feb 26 10:42:07 EST 2025
User: louis
Spectrometer: USB4F10415
Trigger mode: 4
Integration Time (sec): 1.000000E-1
Scans to average: 1
Electric dark correction enabled: true
Nonlinearity correction enabled: false
Boxcar width: 0
XAxis mode: Wavelengths
Number of Pixels in Spectrum: 3648
>>>>>Begin Spectral Data<<<<<
178.204	-438.09
178.424	-438.09
178.644	-438.09
178.864	-393.04
179.084	-356.18
179.304	-8.02
179.524	-8.02
179.744	-22.36
179.964	28.84
180.184	28.84
180.404	20.65
180.624	4.27
180.844	4.27
181.064	-77.65
181.283	24.75
181.503	-79.7
181.723	84.14
181.943	-51.03
182.163	186.54
182.383	10.41
182.602	92.33
182.822	106.67
183.042	65.71
183.262	-14.17
183.482	61.61
183.701	110.76
183.921	116.9
184.141	-10.07
184.361	73.9
184.58	73.9
184.8	65.71
185.02	-12.12
185.239	127.14
185.459	67.75
185.679	118.95
185.898	-20.31
186.118	61.61
186.338	18.6
186.557	182.44
186.777	6.31
186.997	47.27
187.216	114.86
187.436	71.85
187.655	30.89
187.875	166.06
188.095	100.52
188.314	82.09
188.534	209.06
188.753	-67.41
188.973	200.87
189.192	174.25
189.412	53.42
189.631	82.09
189.851	43.18
190.07	161.96
190.29	51.37
190.509	63.66
190.729	43.18
190.948	65.71
191.168	293.03
191.387	82.09
191.607	53.42
191.826	69.8
192.045	137.38
192.265	-5.97
192.484	184.49
192.704	41.13
192.923	32.94
193.142	182.44
193.362	51.37
193.581	180.39
193.8	-26.45
194.02	118.95
194.239	49.32
194.458	86.19
194.678	98.47
194.897	-26.45
195.116	149.67
195.335	98.47
195.555	135.34
195.774	80.04
195.993	129.19
196.212	94.38
196.432	22.7
196.651	37.03
196.87	55.47
197.089	239.78
197.308	59.56
197.528	61.61
197.747	-14.17
197.966	141.48
198.185	200.87
198.404	24.75
198.623	125.1
198.842	157.86
199.062	151.72
199.281	172.2
199.5	-5.97
199.719	186.54
199.938	114.86
200.157	121
200.376	102.57
200.595	188.58
200.814	104.62
201.033	-28.5
201.252	159.91
201.471	53.42
201.69	151.72
201.909	77.99
202.128	125.1
202.347	67.75
202.566	49.32
202.785	-34.64
203.004	-26.45
203.223	272.55
203.442	121
203.661	-67.41
203.879	86.19
204.098	180.39
204.317	-46.93
204.536	121
204.755	133.29
204.974	106.67
205.193	55.47
205.411	153.77
205.63	170.15
205.849	133.29
206.068	10.41
206.287	-36.69
206.505	209.06
206.724	53.42
206.943	-16.21
207.162	20.65
207.381	98.47
207.599	116.9
207.818	77.99
208.037	-57.17
208.255	71.85
208.474	45.23
208.693	75.95
208.911	20.65
209.13	14.51
209.349	41.13
209.567	63.66
209.786	84.14
210.005	106.67
210.223	114.86
210.442	-94.04
210.661	88.23
210.879	139.43
211.098	88.23
211.316	92.33
211.535	141.48
211.753	16.55
211.972	61.61
212.191	61.61
212.409	84.14
212.628	84.14
212.846	-34.64
213.065	53.42
213.283	207.02
213.502	84.14
213.72	129.19
213.938	8.36
214.157	14.51
214.375	147.62
214.594	75.95
214.812	77.99
215.031	88.23
215.249	53.42
215.467	30.89
215.686	65.71
215.904	94.38
216.122	75.95
216.341	143.53
216.559	116.9
216.778	131.24
216.996	116.9
217.214	-51.03
217.432	41.13
217.651	-14.17
217.869	-1.88
218.087	16.55
218.306	34.99
218.524	71.85
218.742	135.34
218.96	88.23
219.179	18.6
219.397	102.57
219.615	266.41
219.833	47.27
220.051	6.31
220.27	121
220.488	184.49
220.706	-30.55
220.924	14.51
221.142	-24.4
221.36	53.42
221.578	53.42
221.796	-5.97
222.015	-5.97
222.233	6.31
222.451	188.58
222.669	-22.36
222.887	110.76
223.105	55.47
223.323	55.47
223.541	24.75
223.759	149.67
223.977	22.7
224.195	80.04
224.413	96.43
224.631	67.75
224.849	53.42
225.067	174.25
225.285	39.08
225.503	14.51
225.721	-59.22
225.939	102.57
226.157	63.66
226.375	192.68
226.592	24.75
226.81	65.71
227.028	176.3
227.246	188.58
227.464	47.27
227.682	100.52
227.9	47.27
228.117	92.33
228.335	137.38
228.553	41.13
228.771	59.56
228.989	59.56
229.206	98.47
229.424	-14.17
229.642	34.99
229.86	-10.07
230.077	114.86
230.295	32.94
230.513	123.05
230.731	55.47
230.948	217.26
231.166	153.77
231.384	43.18
231.601	-10.07
231.819	170.15
232.037	55.47
232.254	10.41
232.472	26.79
232.689	-55.12
232.907	82.09
233.125	-16.21
233.342	61.61
233.56	-28.5
233.777	49.32
233.995	49.32
234.213	121
234.43	61.61
234.648	77.99
234.865	110.76
235.083	59.56
235.3	22.7
235.518	125.1
235.735	149.67
235.953	100.52
236.17	94.38
236.388	41.13
236.605	32.94
236.822	102.57
237.04	215.21
237.257	106.67
237.475	16.55
237.692	53.42
237.909	53.42
238.127	63.66
238.344	135.34
238.562	110.76
238.779	2.22
238.996	4.27
239.214	71.85
239.431	125.1
239.648	98.47
239.865	71.85
240.083	155.82
240.3	65.71
240.517	-1.88
240.735	18.6
240.952	75.95
241.169	28.84
241.386	100.52
241.603	47.27
241.821	-53.08
242.038	139.43
242.255	129.19
242.472	10.41
242.689	155.82
242.907	92.33
243.124	22.7
243.341	14.51
243.558	57.51
243.775	12.46
243.992	-44.88
244.209	88.23
244.426	159.91
244.643	133.29
244.86	98.47
245.078	114.86
245.295	116.9
245.512	73.9
245.729	12.46
245.946	125.1
246.163	49.32
246.38	80.04
246.597	123.05
246.814	127.14
247.031	67.75
247.248	92.33
247.464	86.19
247.681	59.56
247.898	51.37
248.115	139.43
248.332	-28.5
248.549	215.21
248.766	196.78
248.983	145.58
249.2	116.9
249.417	153.77
249.633	-38.74
249.85	53.42
250.067	98.47
250.284	51.37
250.501	108.71
250.717	100.52
250.934	-89.94
251.151	53.42
251.368	110.76
251.585	121
251.801	39.08
252.018	-61.27
252.235	151.72
252.451	26.79
252.668	4.27
252.885	121
253.102	110.76
253.318	77.99
253.535	37.03
253.752	26.79
253.968	39.08
254.185	-46.93
254.401	59.56
254.618	75.95
254.835	55.47
255.051	77.99
255.268	106.67
255.484	73.9
255.701	65.71
255.917	63.66
256.134	-16.21
256.351	69.8
256.567	-1.88
256.784	82.09
257	-48.98
257.217	123.05
257.433	94.38
257.65	14.51
257.866	137.38
258.082	47.27
258.299	37.03
258.515	41.13
258.732	-5.97
258.948	20.65
259.165	118.95
259.381	-5.97
259.597	92.33
259.814	67.75
260.03	14.51
260.246	71.85
260.463	184.49
260.679	102.57
260.895	86.19
261.112	71.85
261.328	94.38
261.544	-22.36
261.761	96.43
261.977	8.36
262.193	-28.5
262.409	131.24
262.626	51.37
262.842	22.7
263.058	41.13
263.274	166.06
263.49	2.22
263.707	90.28
263.923	125.1
264.139	-26.45
264.355	94.38
264.571	98.47
264.787	90.28
265.004	161.96
265.22	53.42
265.436	-42.84
265.652	12.46
265.868	14.51
266.084	-1.88
266.3	24.75
266.516	37.03
266.732	157.86
266.948	53.42
267.164	88.23
267.38	100.52
267.596	129.19
267.812	194.73
268.028	61.61
268.244	-12.12
268.46	96.43
268.676	16.55
268.892	75.95
269.108	-53.08
269.324	18.6
269.54	-36.69
269.756	121
269.972	-71.51
270.188	65.71
270.403	-55.12
270.619	82.09
270.835	164.01
271.051	102.57
271.267	-32.6
271.483	86.19
271.698	108.71
271.914	94.38
272.13	-16.21
272.346	53.42
272.562	41.13
272.777	114.86
272.993	57.51
273.209	49.32
273.425	123.05
273.64	32.94
273.856	131.24
274.072	-34.64
274.287	-48.98
274.503	123.05
274.719	94.38
274.934	-10.07
275.15	-42.84
275.366	45.23
275.581	-30.55
275.797	-1.88
276.012	96.43
276.228	-26.45
276.444	41.13
276.659	139.43
276.875	-26.45
277.09	16.55
277.306	49.32
277.521	118.95
277.737	84.14
277.952	133.29
278.168	106.67
278.383	129.19
278.599	82.09
278.814	94.38
279.03	84.14
279.245	182.44
279.461	94.38
279.676	143.53
279.892	-30.55
280.107	-91.99
280.322	-18.26
280.538	151.72
280.753	6.31
280.969	53.42
281.184	2.22
281.399	172.2
281.615	37.03
281.83	53.42
282.045	2.22
282.26	-63.32
282.476	55.47
282.691	159.91
282.906	172.2
283.122	71.85
283.337	41.13
283.552	94.38
283.767	39.08
283.983	114.86
284.198	2.22
284.413	69.8
284.628	45.23
284.843	123.05
285.058	24.75
285.274	32.94
285.489	-5.97
285.704	84.14
285.919	47.27
286.134	94.38
286.349	18.6
286.564	41.13
286.779	159.91
286.995	45.23
287.21	-20.31
287.425	8.36
287.64	57.51
287.855	41.13
288.07	-44.88
288.285	161.96
288.5	145.58
288.715	106.67
288.93	34.99
289.145	16.55
289.36	90.28
289.575	77.99
289.79	75.95
290.004	75.95
290.219	106.67
290.434	12.46
290.649	37.03
290.864	8.36
291.079	51.37
291.294	43.18
291.509	82.09
291.724	12.46
291.938	10.41
292.153	110.76
292.368	8.36
292.583	47.27
292.798	139.43
293.012	69.8
293.227	110.76
293.442	18.6
293.657	139.43
293.871	143.53
294.086	147.62
294.301	110.76
294.516	143.53
294.73	14.51
294.945	-38.74
295.16	22.7
295.374	164.01
295.589	88.23
295.804	-38.74
296.018	125.1
296.233	110.76
296.447	53.42
296.662	34.99
296.877	131.24
297.091	121
297.306	57.51
297.52	43.18
297.735	151.72
297.949	96.43
298.164	30.89
298.378	73.9
298.593	-48.98
298.807	20.65
299.022	20.65
299.236	80.04
299.451	51.37
299.665	77.99
299.88	10.41
300.094	-5.97
300.309	57.51
300.523	45.23
300.737	51.37
300.952	65.71
301.166	114.86
301.381	47.27
301.595	-8.02
301.809	168.1
302.024	22.7
302.238	71.85
302.452	180.39
302.667	86.19
302.881	184.49
303.095	43.18
303.309	45.23
303.524	30.89
303.738	69.8
303.952	16.55
304.166	82.09
304.381	-53.08
304.595	231.59
304.809	-38.74
305.023	-42.84
305.237	45.23
305.452	41.13
305.666	123.05
305.88	100.52
306.094	108.71
306.308	110.76
306.522	61.61
306.736	18.6
306.95	121
307.164	90.28
307.379	0.17
307.593	204.97
307.807	98.47
308.021	63.66
308.235	135.34
308.449	-28.5
308.663	32.94
308.877	288.93
309.091	116.9
309.305	98.47
309.519	-63.32
309.733	104.62
309.947	14.51
310.161	90.28
310.374	94.38
310.588	170.15
310.802	55.47
311.016	37.03
311.23	88.23
311.444	14.51
311.658	63.66
311.872	137.38
312.085	133.29
312.299	82.09
312.513	96.43
312.727	106.67
312.941	18.6
313.154	67.75
313.368	55.47
313.582	6.31
313.796	129.19
314.009	55.47
314.223	204.97
314.437	63.66
314.651	121
314.864	-30.55
315.078	-8.02
315.292	-1.88
315.505	26.79
315.719	71.85
315.933	61.61
316.146	24.75
316.36	12.46
316.573	102.57
316.787	53.42
317.001	121
317.214	8.36
317.428	65.71
317.641	-18.26
317.855	32.94
318.068	61.61
318.282	96.43
318.495	149.67
318.709	82.09
318.922	55.47
319.136	151.72
319.349	170.15
319.563	43.18
319.776	77.99
319.99	0.17
320.203	82.09
320.417	59.56
320.63	229.54
320.843	225.45
321.057	98.47
321.27	-26.45
321.483	53.42
321.697	172.2
321.91	71.85
322.124	123.05
322.337	67.75
322.55	28.84
322.763	14.51
322.977	94.38
323.19	18.6
323.403	22.7
323.617	157.86
323.83	53.42
324.043	125.1
324.256	104.62
324.469	-36.69
324.683	188.58
324.896	104.62
325.109	57.51
325.322	-44.88
325.535	139.43
325.748	141.48
325.962	8.36
326.175	125.1
326.388	41.13
326.601	149.67
326.814	45.23
327.027	110.76
327.24	88.23
327.453	-51.03
327.666	69.8
327.879	129.19
328.092	104.62
328.305	-14.17
328.518	53.42
328.731	-14.17
328.944	98.47
329.157	75.95
329.37	90.28
329.583	190.63
329.796	59.56
330.009	-73.56
330.222	166.06
330.435	147.62
330.648	86.19
330.861	59.56
331.073	63.66
331.286	145.58
331.499	96.43
331.712	0.17
331.925	34.99
332.138	57.51
332.35	75.95
332.563	6.31
332.776	180.39
332.989	-32.6
333.202	96.43
333.414	98.47
333.627	57.51
333.84	14.51
334.053	-26.45
334.265	61.61
334.478	32.94
334.691	53.42
334.903	65.71
335.116	-8.02
335.329	61.61
335.541	118.95
335.754	211.11
335.966	71.85
336.179	41.13
336.392	30.89
336.604	63.66
336.817	125.1
337.029	110.76
337.242	32.94
337.454	98.47
337.667	10.41
337.88	92.33
338.092	110.76
338.305	47.27
338.517	26.79
338.729	34.99
338.942	135.34
339.154	10.41
339.367	16.55
339.579	168.1
339.792	98.47
340.004	141.48
340.217	18.6
340.429	-36.69
340.641	65.71
340.854	39.08
341.066	75.95
341.278	153.77
341.491	213.16
341.703	6.31
341.915	-1.88
342.128	108.71
342.34	131.24
342.552	-81.75
342.764	63.66
342.977	73.9
343.189	92.33
343.401	8.36
343.613	-40.79
343.826	6.31
344.038	41.13
344.25	123.05
344.462	12.46
344.674	118.95
344.886	24.75
345.099	77.99
345.311	153.77
345.523	61.61
345.735	-63.32
345.947	84.14
346.159	108.71
346.371	69.8
346.583	88.23
346.795	196.78
347.007	34.99
347.219	16.55
347.431	26.79
347.643	172.2
347.855	51.37
348.067	114.86
348.279	-26.45
348.491	73.9
348.703	26.79
348.915	98.47
349.127	-18.26
349.339	94.38
349.551	-38.74
349.763	67.75
349.975	75.95
350.187	188.58
350.399	123.05
350.61	22.7
350.822	34.99
351.034	96.43
351.246	121
351.458	41.13
351.669	67.75
351.881	176.3
352.093	98.47
352.305	112.81
352.517	121
352.728	157.86
352.94	80.04
353.152	145.58
353.363	-22.36
353.575	53.42
353.787	202.92
353.999	69.8
354.21	137.38
354.422	45.23
354.633	104.62
354.845	65.71
355.057	104.62
355.268	123.05
355.48	151.72
355.692	-1.88
355.903	12.46
356.115	63.66
356.326	-12.12
356.538	106.67
356.749	116.9
356.961	141.48
357.172	-20.31
357.384	-55.12
357.595	174.25
357.807	61.61
358.018	57.51
358.23	37.03
358.441	135.34
358.653	123.05
358.864	118.95
359.075	26.79
359.287	55.47
359.498	114.86
359.709	90.28
359.921	98.47
360.132	100.52
360.344	67.75
360.555	96.43
360.766	92.33
360.977	-1.88
361.189	116.9
361.4	18.6
361.611	207.02
361.823	125.1
362.034	106.67
362.245	-89.94
362.456	-30.55
362.667	100.52
362.879	49.32
363.09	65.71
363.301	41.13
363.512	94.38
363.723	8.36
363.935	59.56
364.146	112.81
364.357	77.99
364.568	59.56
364.779	-38.74
364.99	145.58
365.201	-18.26
365.412	202.92
365.623	16.55
365.834	143.53
366.045	65.71
366.256	51.37
366.467	114.86
366.678	30.89
366.889	114.86
367.1	63.66
367.311	77.99
367.522	-28.5
367.733	0.17
367.944	110.76
368.155	-22.36
368.366	147.62
368.577	151.72
368.788	166.06
368.999	2.22
369.209	73.9
369.42	280.74
369.631	272.55
369.842	102.57
370.053	16.55
370.264	164.01
370.474	41.13
370.685	131.24
370.896	77.99
371.107	196.78
371.317	49.32
371.528	30.89
371.739	104.62
371.95	108.71
372.16	147.62
372.371	0.17
372.582	86.19
372.792	102.57
373.003	139.43
373.214	90.28
373.424	61.61
373.635	12.46
373.846	121
374.056	34.99
374.267	41.13
374.477	77.99
374.688	55.47
374.898	110.76
375.109	131.24
375.319	86.19
375.53	133.29
375.74	186.54
375.951	-16.21
376.161	112.81
376.372	174.25
376.582	88.23
376.793	77.99
377.003	-28.5
377.214	22.7
377.424	90.28
377.635	37.03
377.845	65.71
378.055	170.15
378.266	-22.36
378.476	-1.88
378.686	32.94
378.897	112.81
379.107	63.66
379.317	112.81
379.528	53.42
379.738	84.14
379.948	55.47
380.158	37.03
380.369	84.14
380.579	90.28
380.789	28.84
380.999	69.8
381.21	229.54
381.42	151.72
381.63	71.85
381.84	73.9
382.05	43.18
382.261	145.58
382.471	110.76
382.681	-26.45
382.891	194.73
383.101	147.62
383.311	-1.88
383.521	90.28
383.731	141.48
383.941	176.3
384.151	110.76
384.361	37.03
384.571	55.47
384.781	55.47
384.991	213.16
385.201	194.73
385.411	69.8
385.621	164.01
385.831	59.56
386.041	200.87
386.251	41.13
386.461	211.11
386.671	28.84
386.881	30.89
387.091	65.71
387.301	157.86
387.511	88.23
387.72	133.29
387.93	73.9
388.14	26.79
388.35	34.99
388.56	84.14
388.769	149.67
388.979	41.13
389.189	90.28
389.399	59.56
389.609	104.62
389.818	118.95
390.028	30.89
390.238	84.14
390.447	53.42
390.657	170.15
390.867	8.36
391.076	-59.22
391.286	53.42
391.496	-24.4
391.705	77.99
391.915	184.49
392.125	135.34
392.334	65.71
392.544	149.67
392.753	86.19
392.963	16.55
393.172	30.89
393.382	-44.88
393.591	239.78
393.801	90.28
394.01	170.15
394.22	143.53
394.429	84.14
394.639	51.37
394.848	84.14
395.058	51.37
395.267	94.38
395.477	100.52
395.686	90.28
395.895	174.25
396.105	143.53
396.314	106.67
396.524	116.9
396.733	47.27
396.942	176.3
397.152	80.04
397.361	90.28
397.57	106.67
397.78	55.47
397.989	61.61
398.198	188.58
398.407	8.36
398.617	16.55
398.826	65.71
399.035	43.18
399.244	196.78
399.453	45.23
399.663	14.51
399.872	26.79
400.081	57.51
400.29	106.67
400.499	-14.17
400.708	194.73
400.917	86.19
401.127	34.99
401.336	-16.21
401.545	192.68
401.754	172.2
401.963	168.1
402.172	-1.88
402.381	41.13
402.59	-8.02
402.799	-48.98
403.008	155.82
403.217	100.52
403.426	114.86
403.635	41.13
403.844	69.8
404.053	71.85
404.262	4.27
404.471	170.15
404.68	102.57
404.888	80.04
405.097	71.85
405.306	69.8
405.515	61.61
405.724	71.85
405.933	250.02
406.142	100.52
406.35	127.14
406.559	104.62
406.768	104.62
406.977	180.39
407.185	4.27
407.394	139.43
407.603	39.08
407.812	104.62
408.02	186.54
408.229	24.75
408.438	106.67
408.646	30.89
408.855	6.31
409.064	149.67
409.272	39.08
409.481	98.47
409.69	43.18
409.898	-14.17
410.107	135.34
410.315	170.15
410.524	-24.4
410.733	112.81
410.941	102.57
411.15	137.38
411.358	47.27
411.567	155.82
411.775	43.18
411.984	71.85
412.192	151.72
412.401	12.46
412.609	164.01
412.818	100.52
413.026	51.37
413.234	77.99
413.443	141.48
413.651	123.05
413.86	88.23
414.068	233.64
414.276	217.26
414.485	67.75
414.693	274.6
414.901	262.31
415.11	41.13
415.318	34.99
415.526	47.27
415.734	155.82
415.943	47.27
416.151	184.49
416.359	63.66
416.567	61.61
416.776	166.06
416.984	184.49
417.192	184.49
417.4	-8.02
417.608	2.22
417.817	77.99
418.025	155.82
418.233	252.07
418.441	30.89
418.649	84.14
418.857	131.24
419.065	102.57
419.273	4.27
419.481	57.51
419.689	16.55
419.897	45.23
420.105	-8.02
420.313	174.25
420.521	239.78
420.729	176.3
420.937	102.57
421.145	-32.6
421.353	112.81
421.561	127.14
421.769	116.9
421.977	-12.12
422.185	178.34
422.393	43.18
422.601	90.28
422.809	77.99
423.017	127.14
423.224	168.1
423.432	186.54
423.64	147.62
423.848	153.77
424.056	0.17
424.263	155.82
424.471	75.95
424.679	241.83
424.887	-67.41
425.094	192.68
425.302	69.8
425.51	102.57
425.718	202.92
425.925	92.33
426.133	-3.93
426.341	192.68
426.548	77.99
426.756	88.23
426.964	204.97
427.171	45.23
427.379	133.29
427.586	49.32
427.794	178.34
428.001	233.64
428.209	129.19
428.417	245.93
428.624	204.97
428.832	168.1
429.039	80.04
429.247	137.38
429.454	141.48
429.662	233.64
429.869	161.96
430.076	161.96
430.284	172.2
430.491	155.82
430.699	237.74
430.906	278.69
431.114	231.59
431.321	196.78
431.528	149.67
431.736	161.96
431.943	223.4
432.15	217.26
432.358	219.3
432.565	266.41
432.772	82.09
432.979	243.88
433.187	211.11
433.394	305.32
433.601	194.73
433.808	307.37
434.016	274.6
434.223	254.12
434.43	321.7
434.637	317.61
434.844	340.13
435.052	317.61
435.259	317.61
435.466	327.85
435.673	311.46
435.88	395.43
436.087	411.81
436.294	442.53
436.501	389.28
436.708	368.81
436.915	360.61
437.122	409.76
437.329	264.36
437.537	417.96
437.743	454.82
437.95	454.82
438.157	485.54
438.364	434.34
438.571	420
438.778	546.98
438.985	485.54
439.192	608.42
439.399	540.83
439.606	671.9
439.813	702.62
440.02	790.69
440.227	764.06
440.433	690.34
440.64	581.79
440.847	645.28
441.054	723.1
441.261	684.19
441.467	762.02
441.674	757.92
441.881	876.7
442.088	891.04
442.294	987.29
442.501	962.72
442.708	997.53
442.914	1032.35
443.121	1003.68
443.328	1077.4
443.534	1120.41
443.741	1128.6
443.948	1087.64
444.154	1337.49
444.361	1429.65
444.568	1302.68
444.774	1290.39
444.981	1222.81
445.187	1360.02
445.394	1554.58
445.6	1398.93
445.807	1601.68
446.013	1548.44
446.22	1540.24
446.426	1654.93
446.633	1742.99
446.839	1921.17
447.046	1802.38
447.252	2048.14
447.459	2168.97
447.665	2115.72
447.871	2254.98
448.078	2435.21
448.284	2365.57
448.491	2465.93
448.697	2590.85
448.903	2699.39
449.11	2750.59
449.316	2648.19
449.522	2953.34
449.728	3029.12
449.935	3108.99
450.141	3313.78
450.347	3475.57
450.553	3244.15
450.76	3430.52
450.966	3756.15
451.172	3586.16
451.378	3960.94
451.584	4124.78
451.791	4255.85
451.997	4470.89
452.203	4495.46
452.409	4583.52
452.615	4771.94
452.821	4737.12
453.027	4698.21
453.233	5392.47
453.44	5220.44
453.646	5566.55
453.852	5759.06
454.058	5957.71
454.264	6146.12
454.47	6520.9
454.676	6703.17
454.882	7145.53
455.088	6946.88
455.294	7270.46
455.5	7718.96
455.705	8120.37
455.911	8308.78
456.117	8357.93
456.323	8706.09
456.529	8695.85
456.735	9572.38
456.941	9758.74
457.147	10194.96
457.352	10471.43
457.558	10602.5
457.764	11229.18
457.97	11552.76
458.176	12007.41
458.381	12804.07
458.587	12775.4
458.793	13670.36
458.999	13508.57
459.204	15351.74
459.41	15755.19
459.616	15407.04
459.821	16514.99
460.027	17385.38
460.233	17776.54
460.438	17766.3
460.644	19273.6
460.85	19189.64
461.055	19892.09
461.261	20987.75
461.466	20584.3
461.672	21122.92
461.878	23656.26
462.083	23156.55
462.289	23742.27
462.494	24612.66
462.7	24954.67
462.905	25014.06
463.111	27264.78
463.316	28380.92
463.522	28937.97
463.727	30090.98
463.932	31178.45
464.138	31991.49
464.343	33214.13
464.549	33611.43
464.754	35935.88
464.959	36839.03
465.165	37604.97
465.37	37234.29
465.575	36904.57
465.781	39654.99
465.986	40777.28
466.191	40031.82
466.397	40617.53
466.602	39743.05
466.807	41907.76
467.012	42554.91
467.218	43228.7
467.423	43312.66
467.628	44500.48
467.833	47013.34
468.038	45864.43
468.244	45264.38
468.449	47310.3
468.654	46724.58
468.859	46902.75
469.064	46736.87
469.269	45329.91
469.474	45790.7
469.679	47072.73
469.885	45944.3
470.09	46589.41
470.295	46806.5
470.5	45831.66
470.705	46228.97
470.91	44621.31
471.115	44508.68
471.32	45118.97
471.525	44979.71
471.73	43499.03
471.935	43320.85
472.139	41981.48
472.344	41879.08
472.549	41311.8
472.754	40779.32
472.959	39642.7
473.164	38809.18
473.369	37834.35
473.574	39138.9
473.778	38270.56
473.983	37502.57
474.188	37097.08
474.393	35401.36
474.598	35090.07
474.802	34303.65
475.007	34107.04
475.212	33500.84
475.417	32663.22
475.621	32016.07
475.826	31817.41
476.031	30805.72
476.235	30373.6
476.44	30316.25
476.645	29943.52
476.849	29447.91
477.054	29015.79
477.259	28094.21
477.463	28126.97
477.668	27506.44
477.872	27352.84
478.077	26562.33
478.282	26003.23
478.486	25782.05
478.691	25474.85
478.895	25145.13
479.1	24878.9
479.304	24852.27
479.509	23713.6
479.713	24229.69
479.918	23861.05
480.122	23099.21
480.326	23330.63
480.531	23582.53
480.735	22861.65
480.94	22945.61
481.144	23766.85
481.348	22292.31
481.553	22507.35
481.757	21731.17
481.961	21958.49
482.166	21946.2
482.37	22116.19
482.574	21129.06
482.778	21272.42
482.983	21833.57
483.187	21219.17
483.391	21428.07
483.595	20821.87
483.8	20275.06
484.004	20402.04
484.208	20236.15
484.412	19894.14
484.616	19668.86
484.821	19875.71
485.025	18886.54
485.229	19447.68
485.433	18739.08
485.637	19081.1
485.841	18554.77
486.045	18083.73
486.249	17911.71
486.453	17606.56
486.657	17670.05
486.861	17069.99
487.065	16611.25
487.269	16678.83
487.473	15853.5
487.677	16592.81
487.881	16357.3
488.085	15708.09
488.289	15595.45
488.493	15163.33
488.697	15151.04
488.901	14757.83
489.105	14233.55
489.309	14049.24
489.512	13998.04
489.716	13699.03
489.92	13479.9
490.124	13047.78
490.328	13326.3
490.531	12429.29
490.735	12464.11
490.939	12218.35
491.143	12015.6
491.346	11821.05
491.55	11780.09
491.754	11464.7
491.958	11563
492.161	10932.23
492.365	10711.05
492.569	10545.16
492.772	10641.42
492.976	10629.13
493.18	10342.41
493.383	10199.06
493.587	10008.59
493.79	10156.05
493.994	9551.9
494.197	9707.54
494.401	9580.57
494.605	9154.59
494.808	9302.04
495.012	9277.47
495.215	9297.95
495.419	9197.6
495.622	9005.09
495.825	8843.3
496.029	8849.44
496.232	8990.75
496.436	8949.79
496.639	8996.9
496.843	8769.57
497.046	8769.57
497.249	8876.07
497.453	8894.5
497.656	8472.62
497.859	8495.15
498.063	8656.93
498.266	8779.81
498.469	8656.93
498.673	8708.13
498.876	8745
499.079	8718.37
499.282	8794.15
499.485	8896.55
499.689	8863.78
499.892	8968.23
500.095	8759.33
500.298	9199.65
500.501	8843.3
500.705	9207.84
500.908	9201.69
501.111	9240.61
501.314	9322.52
501.517	9558.04
501.72	9533.47
501.923	9443.35
502.126	9805.85
502.329	9805.85
502.532	9990.16
502.735	9973.78
502.938	10117.14
503.141	10059.79
503.344	10168.34
503.547	10534.92
503.75	10291.21
503.953	10502.15
504.156	10831.88
504.359	10790.92
504.562	10856.45
504.765	11300.86
504.968	11472.89
505.17	11337.73
505.373	11411.45
505.576	11878.39
505.779	11874.29
505.982	12089.33
506.185	12255.22
506.387	12443.63
506.59	12713.96
506.793	13033.44
506.996	13107.17
507.198	13551.58
507.401	13518.81
507.604	13854.68
507.807	14047.19
508.009	14356.43
508.212	14401.49
508.415	14770.12
508.617	15015.88
508.82	15177.67
509.022	15675.32
509.225	15955.9
509.428	16213.94
509.63	16693.16
509.833	16807.85
510.035	17489.82
510.238	17573.79
510.44	17893.27
510.643	18077.59
510.845	18847.63
511.048	18573.2
511.25	19521.41
511.453	20172.66
511.655	20854.64
511.858	20834.16
512.06	21432.16
512.262	21890.91
512.465	22237.02
512.667	22693.71
512.87	22839.12
513.072	23449.41
513.274	24125.24
513.477	24985.39
513.679	25298.73
513.881	25929.5
514.084	26404.63
514.286	26908.43
514.488	27285.26
514.69	28221.18
514.893	28354.3
515.095	29150.96
515.297	30148.32
515.499	30205.66
515.701	31151.82
515.904	31684.3
516.106	32489.15
516.308	33019.57
516.51	33805.99
516.712	34324.13
516.914	35024.53
517.116	35718.79
517.318	36347.52
517.52	36802.17
517.722	37398.13
517.925	38375.01
518.127	39054.93
518.329	39773.77
518.531	39685.71
518.733	41137.72
518.935	41281.08
519.136	41950.76
519.338	43038.23
519.54	43509.27
519.742	44072.46
519.944	44582.4
520.146	45577.72
520.348	45950.45
520.55	46077.42
520.752	46945.76
520.954	48115.15
521.155	47879.63
521.357	48901.57
521.559	49255.87
521.761	49896.88
521.963	49948.08
522.164	50662.82
522.366	51111.33
522.568	51404.19
522.77	52149.65
522.971	52757.89
523.173	52264.33
523.375	52692.36
523.576	53132.67
523.778	53114.24
523.98	53843.32
524.181	53716.34
524.383	54277.49
524.584	54404.46
524.786	54588.78
524.988	54170.99
525.189	55123.3
525.391	54658.41
525.592	54678.89
525.794	55229.79
525.995	55149.92
526.197	55016.8
526.398	55190.88
526.6	55029.09
526.801	54949.22
527.003	54721.9
527.204	54205.81
527.406	54654.31
527.607	54050.16
527.808	54314.35
528.01	52835.72
528.211	53419.39
528.412	53642.62
528.614	53063.04
528.815	52647.3
529.016	52872.58
529.218	52176.27
529.419	51565.98
529.62	50867.62
529.822	50204.08
530.023	50234.8
530.224	49931.7
530.425	48924.1
530.626	48541.13
530.828	48141.77
531.029	48063.95
531.23	47302.1
531.431	46988.77
531.632	46276.07
531.833	46349.8
532.035	45438.45
532.236	44905.98
532.437	44543.49
532.638	43832.85
532.839	43527.7
533.04	43224.6
533.241	41965.1
533.442	41891.37
533.643	41596.46
533.844	40678.97
534.045	40357.44
534.246	39681.61
534.447	39286.36
534.648	38516.32
534.849	38336.1
535.05	37617.26
535.251	37424.75
535.451	36918.9
535.652	36058.76
535.853	35792.52
536.054	35761.8
536.255	34885.27
536.456	33836.71
536.657	34510.49
536.857	33666.73
537.058	32675.51
537.259	32913.08
537.46	32243.39
537.66	31454.92
537.861	31516.36
538.062	30742.23
538.263	30496.47
538.463	30246.62
538.664	29564.65
538.865	29370.09
539.065	29208.3
539.266	28686.07
539.466	28362.49
539.667	27682.56
539.868	27793.15
540.068	27172.62
540.269	26957.58
540.469	26730.26
540.67	26343.19
540.87	26347.29
541.071	25669.41
541.271	25755.43
541.472	25620.26
541.672	24674.1
541.873	24514.36
542.073	23953.21
542.274	24276.79
542.474	24041.28
542.675	23449.41
542.875	23359.3
543.075	22980.43
543.276	22497.11
543.476	22525.78
543.676	22339.41
543.877	21806.94
544.077	22015.83
544.277	21616.48
544.478	21061.48
544.678	21018.47
544.878	20758.38
545.078	20903.79
545.279	20195.19
545.479	20045.69
545.679	20014.97
545.879	19646.33
546.079	19486.59
546.28	18980.75
546.48	19089.29
546.68	18847.63
546.88	18317.2
547.08	18448.27
547.28	18198.42
547.48	17565.6
547.68	17608.61
547.88	17455.01
548.081	17350.56
548.281	17162.15
548.481	16848.81
548.681	16603.05
548.881	16238.51
549.081	16252.85
549.28	15910.84
549.48	15566.78
549.68	15704
549.88	15466.43
550.08	15187.91
550.28	14983.11
550.48	14884.81
550.68	14751.69
550.88	14264.27
551.08	14223.31
551.279	14061.52
551.479	13510.62
551.679	13795.29
551.879	13330.4
552.079	13287.39
552.278	12865.51
552.478	12916.71
552.678	12697.58
552.878	12462.06
553.077	12181.49
553.277	12013.56
553.477	12034.04
553.676	11978.74
553.876	11597.82
554.076	11163.65
554.275	11220.99
554.475	10739.72
554.674	10854.41
554.874	10846.21
555.074	10377.23
555.273	10362.89
555.473	10162.19
555.672	10096.66
555.872	9881.62
556.071	9758.74
556.271	9594.9
556.47	9396.25
556.67	9130.02
556.869	9046.05
557.068	9029.66
557.268	8638.5
557.467	8906.79
557.667	8472.62
557.866	8409.13
558.065	8210.48
558.265	7989.3
558.464	7931.95
558.663	7835.7
558.863	7712.82
559.062	7688.25
559.261	7514.17
559.461	7415.87
559.66	7073.85
559.859	7041.09
560.058	6920.26
560.258	6805.57
560.457	6742.08
560.656	6897.73
560.855	6674.5
561.054	6424.65
561.253	6457.42
561.453	6340.68
561.652	6447.18
561.851	6404.17
562.05	5996.62
562.249	5707.86
562.448	5859.41
562.647	5650.52
562.846	5630.04
563.045	5595.22
563.244	5355.61
563.443	5249.11
563.642	5351.51
563.841	5255.26
564.04	5122.14
564.239	5214.3
564.438	5066.85
564.637	4751.46
564.836	4841.57
565.035	4765.79
565.234	4788.32
565.432	4665.44
565.631	4610.15
565.83	4341.86
566.029	4444.26
566.228	4407.4
566.427	4382.82
566.625	4118.64
566.824	4118.64
567.023	4092.01
567.222	4055.15
567.42	3977.33
567.619	3952.75
567.818	3872.88
568.016	4044.91
568.215	3829.87
568.414	3907.7
568.612	3788.91
568.811	3594.36
569.01	3678.32
569.208	3608.69
569.407	3494.01
569.605	3477.62
569.804	3395.7
570.002	3367.03
570.201	3246.2
570.4	3360.89
570.598	3268.73
570.797	3168.38
570.995	3070.08
571.193	3025.02
571.392	3199.1
571.59	2898.05
571.789	2891.9
571.987	2859.14
572.186	2947.2
572.384	2916.48
572.582	2740.35
572.781	2865.28
572.979	2572.42
573.177	2625.67
573.376	2576.52
573.574	2715.78
573.772	2562.18
573.971	2455.69
574.169	2265.22
574.367	2404.49
574.565	2334.86
574.763	2359.43
574.962	2314.38
575.16	2341
575.358	2144.39
575.556	2228.36
575.754	2164.87
575.952	2128.01
576.151	1988.75
576.349	2068.62
576.547	1917.07
576.745	2048.14
576.943	1998.99
577.141	1949.84
577.339	1867.92
577.537	1927.31
577.735	1951.88
577.933	1833.1
578.131	1675.41
578.329	1869.97
578.527	1820.81
578.725	1767.57
578.923	1704.08
579.121	1718.42
579.319	1493.14
579.516	1597.59
579.714	1757.33
579.912	1597.59
580.11	1441.94
580.308	1407.13
580.506	1497.24
580.704	1427.6
580.901	1405.08
581.099	1382.55
581.297	1370.26
581.495	1413.27
581.692	1396.89
581.89	1384.6
582.088	1396.89
582.285	1280.15
582.483	1202.33
582.681	1372.31
582.878	1214.62
583.076	1243.29
583.274	1231
583.471	1388.69
583.669	1220.76
583.866	1046.68
584.064	1161.37
584.262	1118.36
584.459	1077.4
584.657	1099.93
584.854	1149.08
585.052	991.39
585.249	1130.65
585.447	1071.26
585.644	956.57
585.841	1081.5
586.039	1095.83
586.236	1038.49
586.434	862.37
586.631	921.76
586.828	880.8
587.026	975
587.223	917.66
587.42	938.14
587.618	956.57
587.815	1036.44
588.012	968.86
588.21	821.41
588.407	888.99
588.604	921.76
588.801	805.02
588.999	870.56
589.196	819.36
589.393	778.4
589.59	860.32
589.787	876.7
589.984	870.56
590.182	841.89
590.379	815.26
590.576	743.58
590.773	733.34
590.97	719.01
591.167	852.13
591.364	788.64
591.561	745.63
591.758	805.02
591.955	790.69
592.152	766.11
592.349	680.1
592.546	780.45
592.743	690.34
592.94	719.01
593.137	757.92
593.334	907.42
593.531	782.49
593.727	854.17
593.924	831.65
594.121	772.25
594.318	602.27
594.515	798.88
594.712	817.31
594.908	907.42
595.105	794.78
595.302	831.65
595.499	854.17
595.696	891.04
595.892	903.32
596.089	960.67
596.286	901.28
596.482	1071.26
596.679	979.1
596.876	954.52
597.072	956.57
597.269	946.33
597.466	985.24
597.662	1071.26
597.859	1056.92
598.055	1081.5
598.252	1132.7
598.448	1200.28
598.645	1288.34
598.841	1329.3
599.038	1351.83
599.234	1446.04
599.431	1321.11
599.627	1460.37
599.824	1493.14
600.02	1577.11
600.217	1544.34
600.413	1734.8
600.609	1747.09
600.806	2072.72
601.002	1900.69
601.198	1851.53
601.395	2062.48
601.591	2105.48
601.787	2113.67
601.984	2316.42
602.18	2291.85
602.376	2314.38
602.572	2576.52
602.769	2711.68
602.965	2631.81
603.161	2834.56
603.357	2887.81
603.553	2941.05
603.75	2908.29
603.946	3045.5
604.142	3178.62
604.338	3428.47
604.534	3465.33
604.73	3532.92
604.926	3659.89
605.122	3874.93
605.318	3854.45
605.514	4151.4
605.71	4143.21
605.906	4341.86
606.102	4468.84
606.298	4595.81
606.494	4802.66
606.69	4876.38
606.886	4917.34
607.082	4999.26
607.278	5263.45
607.474	5267.55
607.67	5546.07
607.866	5460.06
608.062	5931.09
608.257	6092.88
608.453	6164.56
608.649	6293.58
608.845	6434.89
609.041	6697.03
609.236	6795.33
609.432	6924.35
609.628	7331.9
609.824	7608.37
610.019	7524.41
610.215	7802.93
610.411	8175.66
610.606	8368.17
610.802	8495.15
610.998	8599.59
611.193	9025.57
611.389	9134.11
611.584	9431.07
611.78	9390.11
611.976	9879.57
612.171	10221.58
612.367	10287.12
612.562	10637.32
612.758	10622.98
612.953	10926.08
613.149	11497.47
613.344	11638.78
613.539	12109.81
613.735	12392.43
613.93	12797.93
614.126	12888.04
614.321	13461.47
614.517	13821.91
614.712	14022.61
614.907	14356.43
615.103	14743.5
615.298	15224.77
615.493	15589.31
615.688	15849.4
615.884	16488.37
616.079	16523.18
616.274	17352.61
616.47	17235.88
616.665	18280.34
616.86	18399.12
617.055	18866.06
617.25	19275.65
617.445	19795.84
617.641	20266.87
617.836	21159.78
618.031	20930.41
618.226	22105.95
618.421	22183.77
618.616	23222.09
618.811	23131.98
619.006	24313.66
619.201	24065.85
619.396	25368.36
619.591	25239.34
619.786	26050.33
619.981	26056.48
620.176	27363.08
620.371	27358.99
620.566	28233.47
620.761	28927.73
620.956	29615.85
621.151	29916.9
621.346	30879.44
621.541	30801.62
621.735	31975.11
621.93	31885
622.125	33029.81
622.32	32970.42
622.515	34080.42
622.709	34510.49
622.904	35534.48
623.099	35702.41
623.294	36402.82
623.488	36777.59
623.683	37721.71
623.878	37951.08
624.072	39175.76
624.267	39167.57
624.462	39978.57
624.656	40582.72
624.851	41309.75
625.046	41416.24
625.24	42372.64
625.435	42544.67
625.629	43634.19
625.824	43804.17
626.018	44762.62
626.213	44400.13
626.407	45417.97
626.602	46018.03
626.796	46751.2
626.991	47021.53
627.185	47316.44
627.38	47130.08
627.574	47480.28
627.768	48041.42
627.963	48231.88
628.157	48487.88
628.352	48913.86
628.546	48444.87
628.74	49341.88
628.935	48575.94
629.129	48629.19
629.323	48278.99
629.517	48287.18
629.712	48272.84
629.906	47859.15
630.1	47072.73
630.294	46759.39
630.489	46540.26
630.683	45798.9
630.877	44643.84
631.071	44248.58
631.265	43949.58
631.459	42804.77
631.653	42239.53
631.848	41354.8
632.042	39941.71
632.236	39411.28
632.43	38049.38
632.624	37672.56
632.818	36210.31
633.012	35024.53
633.206	34428.57
633.4	33762.98
633.594	31700.68
633.788	31063.76
633.982	30058.21
634.176	29136.62
634.369	27768.58
634.563	26720.02
634.757	25784.1
634.951	24950.57
635.145	24039.23
635.339	23275.34
635.533	22110.04
635.726	21221.22
635.92	20418.42
636.114	19658.62
636.308	18804.62
636.501	18018.2
636.695	17565.6
636.889	16342.96
637.083	16033.72
637.276	15523.77
637.47	14731.21
637.664	13981.65
637.857	13465.57
638.051	13129.7
638.244	12552.17
638.438	12079.09
638.632	11513.85
638.825	10915.84
639.019	10758.15
639.212	10016.79
639.406	9773.08
639.599	9312.28
639.793	9142.3
639.986	8634.41
640.18	8405.03
640.373	7874.61
640.567	7735.35
640.76	7530.55
640.954	7319.61
641.147	7028.8
641.34	6590.53
641.534	6307.91
641.727	6156.36
641.92	6008.91
642.114	5595.22
642.307	5382.23
642.5	5349.47
642.694	5038.17
642.887	4933.73
643.08	4862.05
643.273	4716.64
643.467	4317.29
643.66	3997.81
643.853	3977.33
644.046	3883.12
644.239	3801.2
644.432	3655.79
644.626	3399.8
644.819	3272.82
645.012	3244.15
645.205	3127.42
645.398	2992.25
645.591	2881.66
645.784	2803.84
645.977	2576.52
646.17	2498.69
646.363	2433.16
646.556	2304.14
646.749	2209.93
646.942	2230.41
647.135	2085
647.328	2074.76
647.521	1966.22
647.714	1769.62
647.907	1783.95
648.099	1722.51
648.292	1745.04
648.485	1613.97
648.678	1556.63
648.871	1583.25
649.064	1390.74
649.256	1308.82
649.449	1257.62
649.642	1300.63
649.835	1278.1
650.027	1142.94
650.22	1185.94
650.413	1073.31
650.605	1042.59
650.798	989.34
650.991	893.09
651.183	1020.06
651.376	948.38
651.568	1005.72
651.761	903.32
651.954	884.89
652.146	807.07
652.339	811.17
652.531	831.65
652.724	708.77
652.916	721.06
653.109	577.7
653.301	792.73
653.494	655.52
653.686	643.23
653.879	604.32
654.071	641.18
654.263	626.85
654.456	610.47
654.648	657.57
654.84	622.75
655.033	540.83
655.225	653.47
655.417	360.61
655.61	626.85
655.802	649.38
655.994	563.36
656.186	397.48
656.379	645.28
656.571	385.19
656.763	438.44
656.955	389.28
657.148	383.14
657.34	473.25
657.532	387.24
657.724	411.81
657.916	305.32
658.108	442.53
658.3	381.09
658.492	387.24
658.684	286.89
658.876	491.68
659.068	252.07
659.26	280.74
659.452	213.16
659.644	309.41
659.836	444.58
660.028	241.83
660.22	307.37
660.412	319.65
660.604	231.59
660.796	358.57
660.988	438.44
661.18	266.41
661.372	319.65
661.563	321.7
661.755	295.08
661.947	153.77
662.139	231.59
662.331	219.3
662.522	336.04
662.714	198.82
662.906	262.31
663.097	319.65
663.289	178.34
663.481	94.38
663.673	202.92
663.864	231.59
664.056	260.26
664.247	270.5
664.439	258.21
664.631	325.8
664.822	286.89
665.014	215.21
665.205	168.1
665.397	80.04
665.588	182.44
665.78	180.39
665.971	247.97
666.163	196.78
666.354	223.4
666.546	217.26
666.737	186.54
666.929	137.38
667.12	272.55
667.311	254.12
667.503	149.67
667.694	303.27
667.885	274.6
668.077	200.87
668.268	108.71
668.459	221.35
668.651	207.02
668.842	166.06
669.033	180.39
669.224	57.51
669.416	338.09
669.607	180.39
669.798	139.43
669.989	280.74
670.18	155.82
670.371	217.26
670.563	118.95
670.754	274.6
670.945	166.06
671.136	252.07
671.327	166.06
671.518	241.83
671.709	295.08
671.9	245.93
672.091	241.83
672.282	227.5
672.473	170.15
672.664	164.01
672.855	245.93
673.046	243.88
673.237	182.44
673.428	164.01
673.619	221.35
673.809	159.91
674	293.03
674.191	231.59
674.382	159.91
674.573	161.96
674.764	219.3
674.954	303.27
675.145	121
675.336	182.44
675.527	135.34
675.717	108.71
675.908	80.04
676.099	153.77
676.289	223.4
676.48	121
676.671	190.63
676.861	213.16
677.052	270.5
677.243	219.3
677.433	151.72
677.624	207.02
677.814	270.5
678.005	137.38
678.195	305.32
678.386	166.06
678.576	264.36
678.767	110.76
678.957	235.69
679.148	276.65
679.338	309.41
679.529	221.35
679.719	221.35
679.909	299.17
680.1	307.37
680.29	278.69
680.481	184.49
680.671	329.89
680.861	252.07
681.052	266.41
681.242	104.62
681.432	290.98
681.622	260.26
681.813	241.83
682.003	344.23
682.193	149.67
682.383	233.64
682.573	233.64
682.764	225.45
682.954	303.27
683.144	270.5
683.334	227.5
683.524	264.36
683.714	266.41
683.904	284.84
684.094	282.79
684.284	256.17
684.474	391.33
684.664	336.04
684.854	315.56
685.044	252.07
685.234	247.97
685.424	305.32
685.614	219.3
685.804	333.99
685.994	309.41
686.184	266.41
686.374	245.93
686.564	252.07
686.753	272.55
686.943	264.36
687.133	305.32
687.323	252.07
687.513	348.33
687.702	276.65
687.892	196.78
688.082	336.04
688.272	317.61
688.461	272.55
688.651	313.51
688.841	344.23
689.03	266.41
689.22	323.75
689.41	231.59
689.599	250.02
689.789	239.78
689.979	342.18
690.168	239.78
690.358	342.18
690.547	288.93
690.737	319.65
690.926	233.64
691.116	420
691.305	387.24
691.495	323.75
691.684	192.68
691.874	276.65
692.063	303.27
692.252	340.13
692.442	348.33
692.631	237.74
692.82	268.45
693.01	233.64
693.199	254.12
693.388	282.79
693.578	211.11
693.767	217.26
693.956	272.55
694.146	260.26
694.335	282.79
694.524	250.02
694.713	331.94
694.902	239.78
695.092	223.4
695.281	313.51
695.47	237.74
695.659	233.64
695.848	223.4
696.037	172.2
696.226	313.51
696.415	280.74
696.604	350.37
696.793	340.13
696.982	213.16
697.171	350.37
697.36	143.53
697.549	245.93
697.738	180.39
697.927	209.06
698.116	233.64
698.305	327.85
698.494	180.39
698.683	225.45
698.872	317.61
699.061	172.2
699.25	247.97
699.438	237.74
699.627	174.25
699.816	340.13
700.005	213.16
700.193	221.35
700.382	342.18
700.571	250.02
700.76	276.65
700.948	362.66
701.137	293.03
701.326	315.56
701.514	84.14
701.703	256.17
701.892	219.3
702.08	354.47
702.269	233.64
702.457	180.39
702.646	280.74
702.834	270.5
703.023	313.51
703.212	288.93
703.4	215.21
703.589	198.82
703.777	241.83
703.965	204.97
704.154	254.12
704.342	221.35
704.531	106.67
704.719	278.69
704.907	331.94
705.096	137.38
705.284	147.62
705.472	256.17
705.661	225.45
705.849	233.64
706.037	309.41
706.226	231.59
706.414	254.12
706.602	268.45
706.79	305.32
706.979	151.72
707.167	262.31
707.355	186.54
707.543	254.12
707.731	286.89
707.919	161.96
708.107	186.54
708.296	204.97
708.484	243.88
708.672	262.31
708.86	362.66
709.048	194.73
709.236	159.91
709.424	250.02
709.612	227.5
709.8	172.2
709.988	229.54
710.176	280.74
710.364	284.84
710.551	192.68
710.739	184.49
710.927	129.19
711.115	215.21
711.303	340.13
711.491	207.02
711.679	250.02
711.866	336.04
712.054	172.2
712.242	290.98
712.43	358.57
712.617	219.3
712.805	317.61
712.993	254.12
713.181	143.53
713.368	303.27
713.556	217.26
713.744	200.87
713.931	397.48
714.119	278.69
714.306	293.03
714.494	252.07
714.682	229.54
714.869	153.77
715.057	237.74
715.244	106.67
715.432	290.98
715.619	225.45
715.807	280.74
715.994	254.12
716.182	333.99
716.369	241.83
716.556	256.17
716.744	155.82
716.931	161.96
717.119	282.79
717.306	288.93
717.493	393.38
717.681	229.54
717.868	159.91
718.055	274.6
718.242	297.13
718.43	317.61
718.617	323.75
718.804	211.11
718.991	262.31
719.179	233.64
719.366	325.8
719.553	241.83
719.74	278.69
719.927	231.59
720.114	280.74
720.301	164.01
720.488	149.67
720.676	184.49
720.863	395.43
721.05	327.85
721.237	266.41
721.424	272.55
721.611	250.02
721.798	184.49
721.985	182.44
722.172	239.78
722.358	243.88
722.545	370.85
722.732	284.84
722.919	409.76
723.106	301.22
723.293	262.31
723.48	344.23
723.667	202.92
723.853	340.13
724.04	311.46
724.227	319.65
724.414	313.51
724.6	315.56
724.787	344.23
724.974	368.81
725.161	270.5
725.347	231.59
725.534	315.56
725.72	381.09
725.907	297.13
726.094	305.32
726.28	280.74
726.467	338.09
726.653	202.92
726.84	329.89
727.027	415.91
727.213	245.93
727.4	293.03
727.586	311.46
727.773	256.17
727.959	319.65
728.145	233.64
728.332	313.51
728.518	286.89
728.705	301.22
728.891	260.26
729.077	338.09
729.264	186.54
729.45	313.51
729.636	393.38
729.823	319.65
730.009	329.89
730.195	305.32
730.382	329.89
730.568	254.12
730.754	350.37
730.94	321.7
731.126	297.13
731.313	346.28
731.499	293.03
731.685	358.57
731.871	354.47
732.057	372.9
732.243	325.8
732.429	370.85
732.615	315.56
732.801	329.89
732.987	245.93
733.173	303.27
733.359	233.64
733.545	336.04
733.731	293.03
733.917	362.66
734.103	329.89
734.289	258.21
734.475	196.78
734.661	442.53
734.847	237.74
735.033	284.84
735.219	278.69
735.404	319.65
735.59	239.78
735.776	239.78
735.962	297.13
736.148	374.95
736.333	374.95
736.519	270.5
736.705	323.75
736.89	233.64
737.076	348.33
737.262	266.41
737.447	266.41
737.633	321.7
737.819	372.9
738.004	286.89
738.19	286.89
738.375	340.13
738.561	399.52
738.747	329.89
738.932	247.97
739.118	518.31
739.303	415.91
739.489	344.23
739.674	276.65
739.859	250.02
740.045	385.19
740.23	354.47
740.416	235.69
740.601	338.09
740.786	272.55
740.972	221.35
741.157	233.64
741.342	215.21
741.528	221.35
741.713	399.52
741.898	264.36
742.084	241.83
742.269	254.12
742.454	333.99
742.639	315.56
742.824	280.74
743.01	286.89
743.195	321.7
743.38	313.51
743.565	260.26
743.75	288.93
743.935	401.57
744.12	475.3
744.305	250.02
744.49	219.3
744.675	276.65
744.86	254.12
745.045	323.75
745.23	338.09
745.415	280.74
745.6	436.39
745.785	254.12
745.97	360.61
746.155	245.93
746.34	360.61
746.525	250.02
746.71	340.13
746.895	196.78
747.079	188.58
747.264	364.71
747.449	331.94
747.634	340.13
747.819	303.27
748.003	155.82
748.188	153.77
748.373	327.85
748.557	319.65
748.742	235.69
748.927	272.55
749.111	280.74
749.296	245.93
749.481	288.93
749.665	276.65
749.85	204.97
750.034	270.5
750.219	297.13
750.404	157.86
750.588	266.41
750.773	157.86
750.957	200.87
751.141	299.17
751.326	245.93
751.51	149.67
751.695	270.5
751.879	211.11
752.064	299.17
752.248	319.65
752.432	356.52
752.617	336.04
752.801	315.56
752.985	202.92
753.17	284.84
753.354	317.61
753.538	333.99
753.722	170.15
753.907	213.16
754.091	123.05
754.275	282.79
754.459	151.72
754.643	194.73
754.828	182.44
755.012	198.82
755.196	141.48
755.38	204.97
755.564	194.73
755.748	231.59
755.932	307.37
756.116	237.74
756.3	237.74
756.484	155.82
756.668	221.35
756.852	73.9
757.036	198.82
757.22	207.02
757.404	172.2
757.588	196.78
757.772	250.02
757.956	127.14
758.14	360.61
758.323	82.09
758.507	164.01
758.691	164.01
758.875	202.92
759.059	272.55
759.242	118.95
759.426	219.3
759.61	213.16
759.794	96.43
759.977	250.02
760.161	395.43
760.345	342.18
760.528	198.82
760.712	153.77
760.895	233.64
761.079	131.24
761.263	116.9
761.446	129.19
761.63	262.31
761.813	219.3
761.997	92.33
762.18	114.86
762.364	157.86
762.547	20.65
762.731	94.38
762.914	143.53
763.098	135.34
763.281	106.67
763.464	51.37
763.648	114.86
763.831	82.09
764.015	92.33
764.198	151.72
764.381	104.62
764.564	186.54
764.748	157.86
764.931	198.82
765.114	49.32
765.297	227.5
765.481	63.66
765.664	102.57
765.847	182.44
766.03	198.82
766.213	90.28
766.397	114.86
766.58	26.79
766.763	198.82
766.946	116.9
767.129	106.67
767.312	53.42
767.495	155.82
767.678	118.95
767.861	69.8
768.044	153.77
768.227	82.09
768.41	155.82
768.593	145.58
768.776	196.78
768.959	67.75
769.142	153.77
769.324	164.01
769.507	59.56
769.69	102.57
769.873	123.05
770.056	258.21
770.239	114.86
770.421	209.06
770.604	98.47
770.787	129.19
770.97	121
771.152	57.51
771.335	168.1
771.518	28.84
771.7	151.72
771.883	200.87
772.066	102.57
772.248	116.9
772.431	211.11
772.613	157.86
772.796	84.14
772.978	104.62
773.161	241.83
773.343	16.55
773.526	0.17
773.708	-5.97
773.891	-51.03
774.073	24.75
774.256	82.09
774.438	245.93
774.621	63.66
774.803	157.86
774.985	65.71
775.168	135.34
775.35	96.43
775.532	182.44
775.715	49.32
775.897	127.14
776.079	125.1
776.261	104.62
776.444	123.05
776.626	28.84
776.808	73.9
776.99	39.08
777.173	77.99
777.355	45.23
777.537	145.58
777.719	55.47
777.901	-28.5
778.083	57.51
778.265	-53.08
778.447	155.82
778.629	49.32
778.811	57.51
778.993	102.57
779.175	188.58
779.357	77.99
779.539	8.36
779.721	59.56
779.903	213.16
780.085	98.47
780.267	61.61
780.449	155.82
780.631	125.1
780.812	188.58
780.994	133.29
781.176	55.47
781.358	57.51
781.54	118.95
781.721	88.23
781.903	118.95
782.085	34.99
782.267	196.78
782.448	67.75
782.63	30.89
782.812	153.77
782.993	98.47
783.175	77.99
783.357	41.13
783.538	118.95
783.72	77.99
783.901	69.8
784.083	53.42
784.264	92.33
784.446	80.04
784.627	-3.93
784.809	61.61
784.99	-51.03
785.172	127.14
785.353	-32.6
785.535	69.8
785.716	59.56
785.897	88.23
786.079	-22.36
786.26	114.86
786.441	43.18
786.623	-59.22
786.804	12.46
786.985	102.57
787.167	39.08
787.348	0.17
787.529	88.23
787.71	145.58
787.891	71.85
788.073	88.23
788.254	-42.84
788.435	112.81
788.616	98.47
788.797	30.89
788.978	24.75
789.159	75.95
789.34	73.9
789.522	57.51
789.703	47.27
789.884	77.99
790.065	108.71
790.246	172.2
790.427	18.6
790.607	164.01
790.788	159.91
790.969	-26.45
791.15	73.9
791.331	37.03
791.512	24.75
791.693	6.31
791.874	49.32
792.054	200.87
792.235	159.91
792.416	8.36
792.597	14.51
792.778	116.9
792.958	37.03
793.139	30.89
793.32	104.62
793.5	-3.93
793.681	41.13
793.862	108.71
794.042	75.95
794.223	-55.12
794.404	57.51
794.584	-22.36
794.765	57.51
794.945	-32.6
795.126	108.71
795.306	133.29
795.487	-32.6
795.667	22.7
795.848	39.08
796.028	20.65
796.209	-40.79
796.389	133.29
796.57	178.34
796.75	2.22
796.93	34.99
797.111	-20.31
797.291	22.7
797.471	135.34
797.652	22.7
797.832	-14.17
798.012	61.61
798.192	14.51
798.373	-44.88
798.553	-36.69
798.733	84.14
798.913	43.18
799.093	-3.93
799.274	75.95
799.454	94.38
799.634	127.14
799.814	155.82
799.994	71.85
800.174	127.14
800.354	61.61
800.534	-59.22
800.714	127.14
800.894	-104.28
801.074	-94.04
801.254	-57.17
801.434	166.06
801.614	18.6
801.794	-42.84
801.974	1804.43
802.154	53.42
802.334	127.14
802.514	-83.8
802.693	-18.26
802.873	8.36
803.053	170.15
803.233	55.47
803.413	88.23
803.592	-40.79
803.772	-14.17
803.952	92.33
804.131	-57.17
804.311	92.33
804.491	20.65
804.67	-73.56
804.85	-22.36
805.03	45.23
805.209	147.62
805.389	-12.12
805.568	22.7
805.748	-55.12
805.928	30.89
806.107	129.19
806.287	147.62
806.466	24.75
806.646	53.42
806.825	-8.02
807.004	14.51
807.184	71.85
807.363	92.33
807.543	86.19
807.722	-28.5
807.901	65.71
808.081	92.33
808.26	-106.32
808.439	59.56
808.619	0.17
808.798	41.13
808.977	8.36
809.156	86.19
809.336	-26.45
809.515	61.61
809.694	-8.02
809.873	-8.02
810.052	39.08
810.231	108.71
810.411	4.27
810.59	49.32
810.769	-24.4
810.948	94.38
811.127	-65.36
811.306	-14.17
811.485	61.61
811.664	71.85
811.843	51.37
812.022	96.43
812.201	34.99
812.38	-26.45
812.559	-40.79
812.737	10.41
812.916	-63.32
813.095	49.32
813.274	53.42
813.453	16.55
813.632	123.05
813.811	241.83
813.989	-28.5
814.168	131.24
814.347	-87.89
814.526	-24.4
814.704	129.19
814.883	159.91
815.062	0.17
815.24	37.03
815.419	-18.26
815.598	75.95
815.776	-28.5
815.955	57.51
816.133	-100.18
816.312	37.03
816.49	22.7
816.669	39.08
816.847	14.51
817.026	63.66
817.204	34.99
817.383	20.65
817.561	-14.17
817.74	-5.97
817.918	34.99
818.097	6.31
818.275	-16.21
818.453	67.75
818.632	67.75
818.81	24.75
818.988	53.42
819.167	14.51
819.345	16.55
819.523	20.65
819.701	12.46
819.879	37.03
820.058	18.6
820.236	49.32
820.414	8.36
820.592	96.43
820.77	26.79
820.948	-30.55
821.127	-16.21
821.305	14.51
821.483	-83.8
821.661	71.85
821.839	-10.07
822.017	-53.08
822.195	20.65
822.373	77.99
822.551	59.56
822.729	108.71
822.907	-8.02
823.085	96.43
823.262	-16.21
823.44	0.17
823.618	63.66
823.796	12.46
823.974	16.55
824.152	-8.02
824.329	-26.45
824.507	90.28
824.685	63.66
824.863	6.31
825.04	37.03
825.218	24.75
825.396	92.33
825.574	14.51
825.751	102.57
825.929	47.27
826.107	-1.88
826.284	22.7
826.462	55.47
826.639	-46.93
826.817	-61.27
826.994	8.36
827.172	-12.12
827.349	80.04
827.527	14.51
827.704	71.85
827.882	121
828.059	0.17
828.237	30.89
828.414	77.99
828.591	-77.65
828.769	80.04
828.946	-73.56
829.124	157.86
829.301	114.86
829.478	-63.32
829.655	69.8
829.833	-28.5
830.01	-28.5
830.187	125.1
830.364	-42.84
830.542	4.27
830.719	127.14
830.896	65.71
831.073	90.28
831.25	4.27
831.427	61.61
831.604	30.89
831.782	2.22
831.959	127.14
832.136	41.13
832.313	45.23
832.49	-34.64
832.667	2.22
832.844	61.61
833.021	153.77
833.198	37.03
833.374	71.85
833.551	80.04
833.728	-44.88
833.905	69.8
834.082	-28.5
834.259	10.41
834.436	94.38
834.612	39.08
834.789	14.51
834.966	18.6
835.143	-12.12
835.319	-18.26
835.496	73.9
835.673	53.42
835.85	39.08
836.026	61.61
836.203	118.95
836.38	63.66
836.556	26.79
836.733	-30.55
836.909	118.95
837.086	-40.79
837.262	-94.04
837.439	-16.21
837.616	-106.32
837.792	28.84
837.968	-8.02
838.145	-38.74
838.321	69.8
838.498	82.09
838.674	45.23
838.851	174.25
839.027	30.89
839.203	8.36
839.38	92.33
839.556	-22.36
839.732	49.32
839.909	-1.88
840.085	96.43
840.261	-67.41
840.437	51.37
840.614	2.22
840.79	41.13
840.966	75.95
841.142	28.84
841.318	-53.08
841.494	57.51
841.671	121
841.847	-61.27
842.023	-38.74
842.199	139.43
842.375	90.28
842.551	-130.9
842.727	-104.28
842.903	137.38
843.079	-53.08
843.255	155.82
843.431	20.65
843.607	73.9
843.783	-44.88
843.959	-20.31
844.134	-30.55
844.31	100.52
844.486	-44.88
844.662	18.6
844.838	59.56
845.013	82.09
845.189	114.86
845.365	57.51
845.541	-48.98
845.716	-20.31
845.892	63.66
846.068	-110.42
846.244	-69.46
846.419	30.89
846.595	-83.8
846.77	-57.17
846.946	135.34
847.122	43.18
847.297	-22.36
847.473	135.34
847.648	-85.84
847.824	57.51
847.999	-73.56
848.175	-38.74
848.35	86.19
848.526	77.99
848.701	59.56
848.876	82.09
849.052	82.09
849.227	0.17
849.403	-22.36
849.578	49.32
849.753	16.55
849.929	90.28
850.104	-12.12
850.279	45.23
850.454	53.42
850.63	69.8
850.805	28.84
850.98	-5.97
851.155	43.18
851.33	94.38
851.505	-5.97
851.681	26.79
851.856	6.31
852.031	43.18
852.206	-51.03
852.381	-16.21
852.556	-30.55
852.731	18.6
852.906	10.41
853.081	37.03
853.256	84.14
853.431	-8.02
853.606	-28.5
853.781	16.55
853.956	-87.89
854.131	2.22
854.305	-96.08
854.48	2.22
854.655	-30.55
854.83	-44.88
855.005	14.51
855.18	69.8
855.354	-67.41
855.529	-14.17
855.704	-69.46
855.879	90.28
856.053	39.08
856.228	-12.12
856.403	39.08
856.577	127.14
856.752	-110.42
856.926	-16.21
857.101	67.75
857.276	-24.4
857.45	135.34
857.625	37.03
857.799	39.08
857.974	24.75
858.148	-14.17
858.323	69.8
858.497	28.84
858.672	28.84
858.846	-12.12
859.02	18.6
859.195	-108.37
859.369	-22.36
859.543	12.46
859.718	24.75
859.892	32.94
860.066	49.32
860.241	-40.79
860.415	30.89
860.589	-3.93
860.763	37.03
860.938	32.94
861.112	65.71
861.286	-3.93
861.46	32.94
861.634	-40.79
861.808	28.84
861.982	-28.5
862.157	-83.8
862.331	8.36
862.505	-104.28
862.679	-63.32
862.853	6.31
863.027	16.55
863.201	178.34
863.375	-46.93
863.549	98.47
863.722	20.65
863.896	104.62
864.07	-91.99
864.244	8.36
864.418	26.79
864.592	-14.17
864.766	-3.93
864.939	34.99
865.113	-8.02
865.287	96.43
865.461	20.65
865.634	14.51
865.808	-30.55
865.982	-75.6
866.156	-48.98
866.329	-28.5
866.503	10.41
866.676	112.81
866.85	55.47
867.024	-55.12
867.197	69.8
867.371	-3.93
867.544	20.65
867.718	-53.08
867.891	102.57
868.065	-98.13
868.238	18.6
868.412	114.86
868.585	-28.5
868.759	4.27
868.932	-28.5
869.105	-59.22
869.279	59.56
869.452	-36.69
869.625	43.18
869.799	34.99
869.972	-59.22
870.145	-67.41
870.319	71.85
870.492	-46.93
870.665	-55.12
870.838	4.27
871.011	-81.75
871.185	-14.17
871.358	-12.12
871.531	80.04
871.704	-1.88
871.877	73.9
872.05	-32.6
872.223	-94.04
872.396	98.47
872.569	102.57
872.742	-155.47
872.915	106.67
873.088	22.7
873.261	14.51
873.434	16.55
873.607	28.84
873.78	123.05
873.953	-55.12
874.126	8.36
874.299	43.18
874.471	-26.45
874.644	4.27
874.817	69.8
874.99	194.73
875.163	14.51
875.335	51.37
875.508	24.75
875.681	53.42
875.853	-53.08
876.026	20.65
876.199	63.66
876.371	-1.88
876.544	-71.51
876.717	90.28
876.889	-36.69
877.062	47.27
877.234	-89.94
877.407	-22.36
877.579	26.79
877.752	-55.12
877.924	47.27
878.097	22.7
878.269	75.95
878.442	-57.17
878.614	133.29
878.786	77.99
878.959	28.84
879.131	22.7
879.303	-73.56
879.476	45.23
879.648	63.66
879.82	-20.31
879.993	73.9
880.165	-30.55
880.337	-102.23
880.509	8.36
880.681	41.13
880.854	-30.55
881.026	73.9
881.198	114.86
881.37	41.13
881.542	-1.88
881.714	84.14
881.886	26.79
882.058	-1.88
882.23	-5.97
882.402	18.6
882.574	0.17
882.746	77.99
882.918	88.23
883.09	-10.07
883.262	-26.45
883.434	6.31
883.606	-83.8
883.778	-8.02
883.95	161.96
884.122	20.65
884.293	147.62
884.465	-44.88
884.637	196.78
884.809	86.19
884.98	57.51
885.152	12.46
885.324	129.19
885.496	-57.17
885.667	16.55
885.839	37.03
886.011	49.32
886.182	86.19
886.354	-3.93
886.525	34.99
886.697	-1.88
886.869	6.31
887.04	-18.26
887.212	114.86
887.383	118.95
887.555	2.22
887.726	2.22
887.897	-3.93
888.069	57.51
888.24	-28.5
888.412	16.55
888.583	-14.17
888.754	63.66
888.926	-53.08
889.097	-30.55
889.268	-44.88
889.44	39.08
889.611	-32.6
889.782	-36.69
889.953	-28.5
890.125	73.9
890.296	-91.99
890.467	32.94
890.638	30.89
890.809	12.46
890.98	-85.84
891.151	4.27
891.323	10.41
891.494	10.41
891.665	14.51
891.836	-34.64
892.007	26.79
892.178	98.47
892.349	-12.12
892.52	10.41
892.691	6.31
892.862	28.84
893.032	-96.08
893.203	-38.74
893.374	49.32
893.545	26.79
893.716	37.03
893.887	39.08
894.057	-16.21
894.228	-3.93
894.399	4.27
894.57	102.57
894.74	59.56
894.911	0.17
895.082	12.46
895.253	-24.4
895.423	-1.88
895.594	100.52
895.764	16.55
895.935	18.6
896.106	92.33
896.276	63.66
896.447	47.27
896.617	-81.75
896.788	2.22
896.958	-42.84
897.129	-94.04
897.299	18.6
897.47	129.19
897.64	-12.12
897.81	-48.98
897.981	26.79
898.151	-73.56
898.322	-24.4
898.492	39.08
898.662	12.46
898.832	12.46
899.003	-8.02
899.173	137.38
899.343	37.03
899.513	-34.64
