Data from USB4F104151__53__10-43-29-975.txt Node

Date: Wed Feb 26 10:43:29 EST 2025
User: louis
Spectrometer: USB4F10415
Trigger mode: 4
Integration Time (sec): 1.000000E-1
Scans to average: 1
Electric dark correction enabled: true
Nonlinearity correction enabled: false
Boxcar width: 0
XAxis mode: Wavelengths
Number of Pixels in Spectrum: 3648
>>>>>Begin Spectral Data<<<<<
178.204	-442.87
178.424	-442.87
178.644	-442.87
178.864	-451.07
179.084	-434.68
179.304	-57.86
179.524	32.26
179.744	65.02
179.964	38.4
180.184	17.92
180.404	22.02
180.624	-66.05
180.844	26.11
181.064	-45.57
181.283	7.68
181.503	-68.09
181.723	28.16
181.943	-131.58
182.163	179.71
182.383	24.06
182.602	79.36
182.822	151.04
183.042	42.5
183.262	24.06
183.482	-29.18
183.701	83.45
183.921	62.98
184.141	-90.62
184.361	169.47
184.58	103.93
184.8	116.22
185.02	1.54
185.239	132.61
185.459	52.74
185.679	214.52
185.898	-76.29
186.118	7.68
186.338	46.59
186.557	140.8
186.777	-45.57
186.997	17.92
187.216	11.78
187.436	212.48
187.655	62.98
187.875	-4.61
188.095	36.35
188.314	122.37
188.534	146.94
188.753	-14.85
188.973	112.13
189.192	185.85
189.412	60.93
189.631	-37.38
189.851	165.37
190.07	165.37
190.29	-80.38
190.509	32.26
190.729	3.58
190.948	171.52
191.168	300.54
191.387	62.98
191.607	-18.94
191.826	42.5
192.045	11.78
192.265	30.21
192.484	69.12
192.704	65.02
192.923	-4.61
193.142	165.37
193.362	116.22
193.581	163.33
193.8	65.02
194.02	89.6
194.239	62.98
194.458	67.07
194.678	13.82
194.897	50.69
195.116	28.16
195.335	71.17
195.555	99.84
195.774	89.6
195.993	101.89
196.212	48.64
196.432	50.69
196.651	3.58
196.87	54.78
197.089	192
197.308	91.65
197.528	108.03
197.747	-16.9
197.966	1.54
198.185	112.13
198.404	-55.81
198.623	91.65
198.842	128.51
199.062	62.98
199.281	44.54
199.5	9.73
199.719	71.17
199.938	54.78
200.157	146.94
200.376	116.22
200.595	99.84
200.814	60.93
201.033	-59.9
201.252	136.7
201.471	17.92
201.69	81.41
201.909	54.78
202.128	83.45
202.347	50.69
202.566	116.22
202.785	-96.77
203.004	-68.09
203.223	249.34
203.442	30.21
203.661	7.68
203.879	26.11
204.098	79.36
204.317	-107.01
204.536	105.98
204.755	79.36
204.974	46.59
205.193	30.21
205.411	132.61
205.63	112.13
205.849	81.41
206.068	-0.51
206.287	17.92
206.505	101.89
206.724	62.98
206.943	-39.42
207.162	38.4
207.381	24.06
207.599	73.21
207.818	50.69
208.037	17.92
208.255	91.65
208.474	69.12
208.693	95.74
208.911	-4.61
209.13	155.13
209.349	87.55
209.567	93.69
209.786	126.46
210.005	108.03
210.223	40.45
210.442	-29.18
210.661	24.06
210.879	126.46
211.098	-27.14
211.316	67.07
211.535	136.7
211.753	67.07
211.972	-29.18
212.191	87.55
212.409	-12.8
212.628	165.37
212.846	89.6
213.065	11.78
213.283	128.51
213.502	40.45
213.72	40.45
213.938	140.8
214.157	22.02
214.375	116.22
214.594	22.02
214.812	-8.7
215.031	5.63
215.249	3.58
215.467	87.55
215.686	75.26
215.904	126.46
216.122	69.12
216.341	108.03
216.559	87.55
216.778	52.74
216.996	83.45
217.214	75.26
217.432	44.54
217.651	-35.33
217.869	91.65
218.087	30.21
218.306	-55.81
218.524	-4.61
218.742	56.83
218.96	24.06
219.179	-27.14
219.397	54.78
219.615	212.48
219.833	105.98
220.051	-18.94
220.27	87.55
220.488	77.31
220.706	114.17
220.924	34.3
221.142	-33.28
221.36	52.74
221.578	-25.09
221.796	-14.85
222.015	-2.56
222.233	28.16
222.451	163.33
222.669	-31.23
222.887	95.74
223.105	28.16
223.323	71.17
223.541	-47.62
223.759	62.98
223.977	1.54
224.195	126.46
224.413	69.12
224.631	-10.75
224.849	58.88
225.067	273.92
225.285	-53.76
225.503	-14.85
225.721	-35.33
225.939	69.12
226.157	13.82
226.375	173.57
226.592	-14.85
226.81	1.54
227.028	46.59
227.246	122.37
227.464	81.41
227.682	65.02
227.9	112.13
228.117	-66.05
228.335	105.98
228.553	-0.51
228.771	9.73
228.989	52.74
229.206	62.98
229.424	-49.66
229.642	-27.14
229.86	-0.51
230.077	95.74
230.295	34.3
230.513	108.03
230.731	48.64
230.948	228.86
231.166	165.37
231.384	-23.04
231.601	-0.51
231.819	163.33
232.037	36.35
232.254	-78.33
232.472	52.74
232.689	-0.51
232.907	124.41
233.125	-39.42
233.342	34.3
233.56	7.68
233.777	-61.95
233.995	-2.56
234.213	128.51
234.43	46.59
234.648	-6.66
234.865	-6.66
235.083	140.8
235.3	46.59
235.518	5.63
235.735	132.61
235.953	44.54
236.17	38.4
236.388	91.65
236.605	46.59
236.822	112.13
237.04	140.8
237.257	11.78
237.475	-25.09
237.692	48.64
237.909	11.78
238.127	44.54
238.344	99.84
238.562	38.4
238.779	-25.09
238.996	-49.66
239.214	67.07
239.431	83.45
239.648	36.35
239.865	58.88
240.083	85.5
240.3	-39.42
240.517	42.5
240.735	11.78
240.952	171.52
241.169	34.3
241.386	95.74
241.603	7.68
241.821	-14.85
242.038	11.78
242.255	114.17
242.472	26.11
242.689	19.97
242.907	40.45
243.124	52.74
243.341	67.07
243.558	-45.57
243.775	-53.76
243.992	-104.96
244.209	132.61
244.426	194.05
244.643	26.11
244.86	36.35
245.078	52.74
245.295	-4.61
245.512	38.4
245.729	-47.62
245.946	93.69
246.163	56.83
246.38	1.54
246.597	87.55
246.814	48.64
247.031	60.93
247.248	81.41
247.464	91.65
247.681	11.78
247.898	40.45
248.115	30.21
248.332	-18.94
248.549	134.65
248.766	136.7
248.983	46.59
249.2	91.65
249.417	40.45
249.633	-8.7
249.85	44.54
250.067	44.54
250.284	81.41
250.501	34.3
250.717	-8.7
250.934	-49.66
251.151	-55.81
251.368	-14.85
251.585	105.98
251.801	36.35
252.018	-35.33
252.235	138.75
252.451	-20.99
252.668	34.3
252.885	105.98
253.102	7.68
253.318	52.74
253.535	97.79
253.752	24.06
253.968	-0.51
254.185	-43.52
254.401	30.21
254.618	108.03
254.835	-25.09
255.051	73.21
255.268	87.55
255.484	1.54
255.701	42.5
255.917	130.56
256.134	-78.33
256.351	60.93
256.567	-109.05
256.784	17.92
257	-27.14
257.217	83.45
257.433	110.08
257.65	17.92
257.866	171.52
258.082	32.26
258.299	-43.52
258.515	54.78
258.732	-2.56
258.948	-37.38
259.165	26.11
259.381	-35.33
259.597	116.22
259.814	-2.56
260.03	-14.85
260.246	-51.71
260.463	105.98
260.679	105.98
260.895	44.54
261.112	30.21
261.328	93.69
261.544	-4.61
261.761	126.46
261.977	-12.8
262.193	-27.14
262.409	7.68
262.626	77.31
262.842	9.73
263.058	38.4
263.274	58.88
263.49	122.37
263.707	54.78
263.923	120.32
264.139	-84.48
264.355	5.63
264.571	79.36
264.787	28.16
265.004	128.51
265.22	17.92
265.436	48.64
265.652	73.21
265.868	71.17
266.084	-100.86
266.3	15.87
266.516	-43.52
266.732	-31.23
266.948	93.69
267.164	134.65
267.38	69.12
267.596	116.22
267.812	105.98
268.028	52.74
268.244	11.78
268.46	56.83
268.676	65.02
268.892	73.21
269.108	-37.38
269.324	11.78
269.54	-68.09
269.756	73.21
269.972	-10.75
270.188	15.87
270.403	-8.7
270.619	46.59
270.835	44.54
271.051	60.93
271.267	83.45
271.483	-6.66
271.698	79.36
271.914	99.84
272.13	-6.66
272.346	73.21
272.562	26.11
272.777	171.52
272.993	5.63
273.209	42.5
273.425	28.16
273.64	-37.38
273.856	50.69
274.072	-4.61
274.287	34.3
274.503	101.89
274.719	120.32
274.934	-16.9
275.15	-49.66
275.366	97.79
275.581	36.35
275.797	13.82
276.012	112.13
276.228	1.54
276.444	34.3
276.659	105.98
276.875	-27.14
277.09	42.5
277.306	22.02
277.521	65.02
277.737	77.31
277.952	83.45
278.168	54.78
278.383	28.16
278.599	52.74
278.814	108.03
279.03	46.59
279.245	77.31
279.461	-10.75
279.676	128.51
279.892	-94.72
280.107	-100.86
280.322	-51.71
280.538	134.65
280.753	-64
280.969	116.22
281.184	24.06
281.399	196.09
281.615	3.58
281.83	40.45
282.045	-10.75
282.26	-29.18
282.476	28.16
282.691	95.74
282.906	-31.23
283.122	62.98
283.337	5.63
283.552	144.89
283.767	19.97
283.983	62.98
284.198	9.73
284.413	81.41
284.628	-39.42
284.843	85.5
285.058	50.69
285.274	3.58
285.489	1.54
285.704	103.93
285.919	-39.42
286.134	-2.56
286.349	101.89
286.564	-4.61
286.779	91.65
286.995	9.73
287.21	-49.66
287.425	79.36
287.64	-53.76
287.855	62.98
288.07	-47.62
288.285	161.28
288.5	-8.7
288.715	30.21
288.93	91.65
289.145	1.54
289.36	11.78
289.575	15.87
289.79	144.89
290.004	1.54
290.219	54.78
290.434	-2.56
290.649	-70.14
290.864	26.11
291.079	73.21
291.294	97.79
291.509	75.26
291.724	19.97
291.938	-45.57
292.153	40.45
292.368	50.69
292.583	77.31
292.798	89.6
293.012	44.54
293.227	77.31
293.442	60.93
293.657	85.5
293.871	67.07
294.086	62.98
294.301	173.57
294.516	83.45
294.73	-47.62
294.945	-55.81
295.16	54.78
295.374	120.32
295.589	122.37
295.804	77.31
296.018	85.5
296.233	189.95
296.447	24.06
296.662	46.59
296.877	97.79
297.091	3.58
297.306	-16.9
297.52	32.26
297.735	83.45
297.949	7.68
298.164	81.41
298.378	-31.23
298.593	11.78
298.807	-59.9
299.022	85.5
299.236	110.08
299.451	19.97
299.665	-10.75
299.88	17.92
300.094	65.02
300.309	40.45
300.523	58.88
300.737	3.58
300.952	122.37
301.166	28.16
301.381	-16.9
301.595	-39.42
301.809	62.98
302.024	32.26
302.238	-23.04
302.452	153.09
302.667	-0.51
302.881	93.69
303.095	60.93
303.309	60.93
303.524	-39.42
303.738	62.98
303.952	24.06
304.166	22.02
304.381	-82.43
304.595	95.74
304.809	-12.8
305.023	97.79
305.237	5.63
305.452	28.16
305.666	99.84
305.88	89.6
306.094	167.42
306.308	42.5
306.522	71.17
306.736	114.17
306.95	52.74
307.164	34.3
307.379	-4.61
307.593	146.94
307.807	189.95
308.021	120.32
308.235	22.02
308.449	-55.81
308.663	-55.81
308.877	187.9
309.091	67.07
309.305	56.83
309.519	-141.82
309.733	134.65
309.947	-55.81
310.161	71.17
310.374	165.37
310.588	81.41
310.802	-70.14
311.016	50.69
311.23	83.45
311.444	1.54
311.658	26.11
311.872	108.03
312.085	173.57
312.299	161.28
312.513	132.61
312.727	-33.28
312.941	-51.71
313.154	38.4
313.368	-31.23
313.582	67.07
313.796	56.83
314.009	48.64
314.223	142.85
314.437	1.54
314.651	89.6
314.864	-16.9
315.078	19.97
315.292	-23.04
315.505	-20.99
315.719	69.12
315.933	85.5
316.146	60.93
316.36	-10.75
316.573	159.23
316.787	157.18
317.001	77.31
317.214	-41.47
317.428	-4.61
317.641	-14.85
317.855	11.78
318.068	24.06
318.282	71.17
318.495	140.8
318.709	105.98
318.922	48.64
319.136	138.75
319.349	126.46
319.563	-45.57
319.776	159.23
319.99	-64
320.203	105.98
320.417	19.97
320.63	77.31
320.843	181.76
321.057	44.54
321.27	65.02
321.483	60.93
321.697	212.48
321.91	91.65
322.124	77.31
322.337	120.32
322.55	38.4
322.763	30.21
322.977	48.64
323.19	-0.51
323.403	24.06
323.617	103.93
323.83	122.37
324.043	34.3
324.256	40.45
324.469	-47.62
324.683	71.17
324.896	99.84
325.109	34.3
325.322	-70.14
325.535	69.12
325.748	54.78
325.962	22.02
326.175	28.16
326.388	67.07
326.601	60.93
326.814	-68.09
327.027	36.35
327.24	83.45
327.453	-113.15
327.666	48.64
327.879	40.45
328.092	85.5
328.305	50.69
328.518	11.78
328.731	9.73
328.944	73.21
329.157	28.16
329.37	22.02
329.583	122.37
329.796	101.89
330.009	-76.29
330.222	-4.61
330.435	171.52
330.648	71.17
330.861	-14.85
331.073	73.21
331.286	42.5
331.499	1.54
331.712	22.02
331.925	22.02
332.138	22.02
332.35	110.08
332.563	-4.61
332.776	116.22
332.989	-23.04
333.202	116.22
333.414	-27.14
333.627	19.97
333.84	-37.38
334.053	36.35
334.265	46.59
334.478	-31.23
334.691	-27.14
334.903	75.26
335.116	-6.66
335.329	99.84
335.541	13.82
335.754	99.84
335.966	13.82
336.179	69.12
336.392	34.3
336.604	-2.56
336.817	89.6
337.029	75.26
337.242	28.16
337.454	110.08
337.667	-2.56
337.88	157.18
338.092	65.02
338.305	9.73
338.517	-14.85
338.729	155.13
338.942	95.74
339.154	-27.14
339.367	3.58
339.579	85.5
339.792	-70.14
340.004	89.6
340.217	38.4
340.429	103.93
340.641	13.82
340.854	-33.28
341.066	62.98
341.278	128.51
341.491	220.67
341.703	99.84
341.915	-0.51
342.128	65.02
342.34	73.21
342.552	-53.76
342.764	144.89
342.977	-20.99
343.189	30.21
343.401	40.45
343.613	-2.56
343.826	83.45
344.038	17.92
344.25	50.69
344.462	19.97
344.674	11.78
344.886	32.26
345.099	58.88
345.311	146.94
345.523	9.73
345.735	-94.72
345.947	30.21
346.159	75.26
346.371	-55.81
346.583	1.54
346.795	155.13
347.007	-4.61
347.219	58.88
347.431	13.82
347.643	128.51
347.855	24.06
348.067	177.66
348.279	-18.94
348.491	-41.47
348.703	99.84
348.915	-0.51
349.127	26.11
349.339	-29.18
349.551	-6.66
349.763	105.98
349.975	32.26
350.187	17.92
350.399	120.32
350.61	87.55
350.822	17.92
351.034	9.73
351.246	83.45
351.458	179.71
351.669	95.74
351.881	155.13
352.093	101.89
352.305	163.33
352.517	122.37
352.728	114.17
352.94	85.5
353.152	114.17
353.363	34.3
353.575	28.16
353.787	167.42
353.999	134.65
354.21	132.61
354.422	-57.86
354.633	-0.51
354.845	30.21
355.057	91.65
355.268	40.45
355.48	130.56
355.692	-10.75
355.903	-0.51
356.115	-78.33
356.326	-154.11
356.538	101.89
356.749	3.58
356.961	165.37
357.172	22.02
357.384	-80.38
357.595	200.19
357.807	-0.51
358.018	50.69
358.23	9.73
358.441	87.55
358.653	128.51
358.864	93.69
359.075	30.21
359.287	171.52
359.498	89.6
359.709	103.93
359.921	79.36
360.132	110.08
360.344	83.45
360.555	65.02
360.766	54.78
360.977	13.82
361.189	110.08
361.4	-33.28
361.611	101.89
361.823	79.36
362.034	103.93
362.245	-84.48
362.456	19.97
362.667	105.98
362.879	-51.71
363.09	60.93
363.301	97.79
363.512	50.69
363.723	32.26
363.935	36.35
364.146	114.17
364.357	73.21
364.568	17.92
364.779	15.87
364.99	58.88
365.201	7.68
365.412	153.09
365.623	-43.52
365.834	138.75
366.045	79.36
366.256	112.13
366.467	103.93
366.678	62.98
366.889	11.78
367.1	40.45
367.311	69.12
367.522	28.16
367.733	120.32
367.944	89.6
368.155	11.78
368.366	155.13
368.577	118.27
368.788	155.13
368.999	-29.18
369.209	56.83
369.42	275.96
369.631	157.18
369.842	89.6
370.053	5.63
370.264	130.56
370.474	-27.14
370.685	87.55
370.896	36.35
371.107	120.32
371.317	44.54
371.528	-37.38
371.739	110.08
371.95	42.5
372.16	144.89
372.371	-31.23
372.582	5.63
372.792	71.17
373.003	30.21
373.214	-43.52
373.424	155.13
373.635	26.11
373.846	83.45
374.056	13.82
374.267	93.69
374.477	142.85
374.688	-31.23
374.898	22.02
375.109	69.12
375.319	105.98
375.53	124.41
375.74	103.93
375.951	42.5
376.161	87.55
376.372	54.78
376.582	-80.38
376.793	-43.52
377.003	-47.62
377.214	50.69
377.424	95.74
377.635	67.07
377.845	50.69
378.055	173.57
378.266	-18.94
378.476	-6.66
378.686	65.02
378.897	5.63
379.107	67.07
379.317	132.61
379.528	30.21
379.738	101.89
379.948	-18.94
380.158	116.22
380.369	134.65
380.579	103.93
380.789	28.16
380.999	62.98
381.21	116.22
381.42	165.37
381.63	17.92
381.84	60.93
382.05	83.45
382.261	185.85
382.471	97.79
382.681	-4.61
382.891	155.13
383.101	93.69
383.311	-37.38
383.521	40.45
383.731	110.08
383.941	118.27
384.151	11.78
384.361	30.21
384.571	97.79
384.781	91.65
384.991	163.33
385.201	144.89
385.411	95.74
385.621	48.64
385.831	52.74
386.041	38.4
386.251	-25.09
386.461	120.32
386.671	24.06
386.881	124.41
387.091	13.82
387.301	44.54
387.511	56.83
387.72	95.74
387.93	77.31
388.14	-55.81
388.35	22.02
388.56	95.74
388.769	60.93
388.979	114.17
389.189	17.92
389.399	54.78
389.609	110.08
389.818	105.98
390.028	28.16
390.238	77.31
390.447	-68.09
390.657	126.46
390.867	83.45
391.076	-37.38
391.286	71.17
391.496	95.74
391.705	28.16
391.915	103.93
392.125	140.8
392.334	-35.33
392.544	146.94
392.753	56.83
392.963	-10.75
393.172	132.61
393.382	42.5
393.591	259.58
393.801	40.45
394.01	138.75
394.22	81.41
394.429	110.08
394.639	-20.99
394.848	99.84
395.058	87.55
395.267	28.16
395.477	73.21
395.686	50.69
395.895	243.2
396.105	108.03
396.314	60.93
396.524	-14.85
396.733	48.64
396.942	44.54
397.152	85.5
397.361	122.37
397.57	36.35
397.78	26.11
397.989	155.13
398.198	181.76
398.407	34.3
398.617	3.58
398.826	13.82
399.035	-10.75
399.244	87.55
399.453	114.17
399.663	67.07
399.872	93.69
400.081	11.78
400.29	214.52
400.499	-25.09
400.708	132.61
400.917	5.63
401.127	-27.14
401.336	15.87
401.545	230.91
401.754	110.08
401.963	101.89
402.172	58.88
402.381	-55.81
402.59	93.69
402.799	17.92
403.008	116.22
403.217	5.63
403.426	85.5
403.635	-6.66
403.844	1.54
404.053	38.4
404.262	28.16
404.471	249.34
404.68	56.83
404.888	44.54
405.097	54.78
405.306	50.69
405.515	65.02
405.724	99.84
405.933	83.45
406.142	120.32
406.35	116.22
406.559	93.69
406.768	26.11
406.977	181.76
407.185	128.51
407.394	89.6
407.603	-43.52
407.812	-31.23
408.02	202.24
408.229	26.11
408.438	81.41
408.646	-53.76
408.855	-78.33
409.064	17.92
409.272	81.41
409.481	108.03
409.69	-37.38
409.898	-45.57
410.107	128.51
410.315	112.13
410.524	-14.85
410.733	-35.33
410.941	83.45
411.15	65.02
411.358	144.89
411.567	179.71
411.775	67.07
411.984	110.08
412.192	95.74
412.401	-23.04
412.609	144.89
412.818	132.61
413.026	52.74
413.234	58.88
413.443	79.36
413.651	1.54
413.86	97.79
414.068	247.29
414.276	148.99
414.485	-6.66
414.693	110.08
414.901	155.13
415.11	83.45
415.318	93.69
415.526	22.02
415.734	128.51
415.943	54.78
416.151	138.75
416.359	95.74
416.567	83.45
416.776	93.69
416.984	83.45
417.192	103.93
417.4	13.82
417.608	69.12
417.817	3.58
418.025	146.94
418.233	179.71
418.441	-51.71
418.649	67.07
418.857	85.5
419.065	198.14
419.273	-29.18
419.481	114.17
419.689	101.89
419.897	32.26
420.105	-33.28
420.313	157.18
420.521	159.23
420.729	144.89
420.937	71.17
421.145	1.54
421.353	212.48
421.561	136.7
421.769	122.37
421.977	69.12
422.185	69.12
422.393	136.7
422.601	97.79
422.809	165.37
423.017	89.6
423.224	50.69
423.432	183.81
423.64	87.55
423.848	245.24
424.056	-12.8
424.263	95.74
424.471	7.68
424.679	71.17
424.887	-14.85
425.094	85.5
425.302	132.61
425.51	-23.04
425.718	122.37
425.925	67.07
426.133	11.78
426.341	204.28
426.548	105.98
426.756	73.21
426.964	108.03
427.171	-33.28
427.379	73.21
427.586	146.94
427.794	110.08
428.001	122.37
428.209	97.79
428.417	222.72
428.624	136.7
428.832	89.6
429.039	144.89
429.247	56.83
429.454	148.99
429.662	292.35
429.869	165.37
430.076	62.98
430.284	165.37
430.491	216.57
430.699	110.08
430.906	198.14
431.114	93.69
431.321	179.71
431.528	120.32
431.736	175.61
431.943	214.52
432.15	218.62
432.358	165.37
432.565	265.72
432.772	26.11
432.979	140.8
433.187	151.04
433.394	230.91
433.601	177.66
433.808	194.05
434.016	269.82
434.223	251.39
434.43	282.11
434.637	280.06
434.844	253.44
435.052	267.77
435.259	331.26
435.466	249.34
435.673	302.59
435.88	388.6
436.087	413.18
436.294	386.55
436.501	327.16
436.708	275.96
436.915	380.41
437.122	423.42
437.329	357.88
437.537	374.27
437.743	400.89
437.95	534.01
438.157	415.23
438.364	456.19
438.571	472.57
438.778	538.1
438.985	544.25
439.192	634.36
439.399	445.95
439.606	548.34
439.813	546.3
440.02	730.61
440.227	683.51
440.433	644.6
440.64	640.5
440.847	646.65
441.054	703.99
441.261	775.67
441.467	726.52
441.674	728.56
441.881	886.26
442.088	824.82
442.294	726.52
442.501	914.93
442.708	941.55
442.914	888.31
443.121	1033.71
443.328	1009.14
443.534	1123.82
443.741	1015.28
443.948	974.32
444.154	1193.45
444.361	1353.2
444.568	1175.02
444.774	1252.84
444.981	1129.97
445.187	1435.11
445.394	1357.29
445.6	1355.24
445.807	1590.76
446.013	1535.46
446.22	1496.55
446.426	1672.68
446.633	1877.48
446.839	2145.76
447.046	1676.77
447.252	1996.26
447.459	2065.89
447.665	2065.89
447.871	2211.29
448.078	2457.05
448.284	2387.42
448.491	2459.1
448.697	2422.24
448.903	2667.99
449.11	2678.23
449.316	2713.05
449.522	2915.8
449.728	3034.58
449.935	3190.22
450.141	3073.49
450.347	3327.44
450.553	3231.18
450.76	3438.03
450.966	3632.58
451.172	3714.5
451.378	3794.37
451.584	3890.63
451.791	4195.78
451.997	4324.8
452.203	4220.35
452.409	4562.36
452.615	4777.4
452.821	4533.69
453.027	4619.71
453.233	5451.18
453.44	5178.8
453.646	5440.94
453.852	5744.04
454.058	5944.74
454.264	6077.86
454.47	6540.7
454.676	6407.58
454.882	7146.9
455.088	6919.57
455.294	7167.38
455.5	7554.44
455.705	8179.08
455.911	7933.32
456.117	8316.29
456.323	8723.83
456.529	8729.98
456.735	9444.72
456.941	9389.42
457.147	9903.46
457.352	10153.32
457.558	10552.67
457.764	11083.09
457.97	11595.09
458.176	12082.5
458.381	12725.57
458.587	12750.14
458.793	13182.26
458.999	13522.23
459.204	15152.41
459.41	15709.46
459.616	15136.03
459.821	16284.94
460.027	17069.31
460.233	17530.1
460.438	17857.78
460.644	18822.37
460.85	18869.47
461.055	19834.07
461.261	20726.98
461.466	20470.98
461.672	20581.57
461.878	23041.18
462.083	22613.16
462.289	23311.52
462.494	24220.81
462.7	24294.54
462.905	25074.82
463.111	26889.32
463.316	28171.35
463.522	28658.76
463.727	29797.43
463.932	30823.47
464.138	31364.13
464.343	32734.22
464.549	33033.22
464.754	35568.61
464.959	36162.52
465.165	37051.34
465.37	36330.45
465.575	36772.81
465.781	39275.43
465.986	40262.55
466.191	39506.85
466.397	40205.21
466.602	39226.28
466.807	41481.1
467.012	42283.9
467.218	42842.99
467.423	42920.82
467.628	44393.31
467.833	46416.7
468.038	45120.34
468.244	44438.36
468.449	46725.94
468.654	45968.19
468.859	45841.22
469.064	46283.58
469.269	44886.87
469.474	45495.11
469.679	46633.78
469.885	45249.36
470.09	45851.46
470.295	45814.6
470.5	45366.09
470.705	45167.44
470.91	44004.19
471.115	44094.3
471.32	44110.69
471.525	44180.32
471.73	43019.12
471.935	42517.37
472.139	41433.99
472.344	41403.27
472.549	40637.33
472.754	40215.45
472.959	39492.52
473.164	37874.62
473.369	37630.91
473.574	38431.67
473.778	37436.36
473.983	37106.63
474.188	36516.82
474.393	34941.93
474.598	34769.9
474.802	33942.52
475.007	33442.82
475.212	32984.07
475.417	31493.15
475.621	31030.31
475.826	31357.99
476.031	30503.98
476.235	29774.91
476.44	30135.35
476.645	29031.49
476.849	28757.07
477.054	28425.29
477.259	27419.74
477.463	27505.76
477.668	26737.77
477.872	26764.39
478.077	25992.31
478.282	25412.73
478.486	25412.73
478.691	24886.4
478.895	24605.83
479.1	24548.49
479.304	24403.08
479.509	23712.92
479.713	23854.23
479.918	23594.14
480.122	22760.61
480.326	23143.58
480.531	22881.44
480.735	22498.47
480.94	22336.68
481.144	23047.33
481.348	21843.12
481.553	21959.86
481.757	21200.06
481.961	21712.05
482.166	21685.43
482.37	21292.22
482.574	20812.99
482.778	21073.09
482.983	21206.2
483.187	20688.07
483.391	20737.22
483.595	20159.69
483.8	19764.43
484.004	20245.71
484.208	20298.95
484.412	19723.48
484.616	19682.52
484.821	19586.26
485.025	18732.26
485.229	18877.66
485.433	18441.45
485.637	18234.6
485.841	18185.45
486.045	18007.28
486.249	17673.46
486.453	17179.9
486.657	16999.68
486.861	17151.23
487.065	16459.01
487.269	16401.67
487.473	15836.43
487.677	15895.82
487.881	15639.83
488.085	15240.47
488.289	15127.83
488.493	15029.53
488.697	14828.83
488.901	14357.8
489.105	14083.37
489.309	14036.27
489.512	13649.2
489.716	13389.11
489.92	13161.78
490.124	12934.46
490.328	12868.92
490.531	12387.65
490.735	12299.59
490.939	12070.22
491.143	11756.88
491.346	11644.24
491.55	11683.15
491.754	11384.15
491.958	11027.8
492.161	10800.48
492.365	10683.74
492.569	10544.48
492.772	10407.27
492.976	10333.54
493.18	10065.25
493.383	10278.24
493.587	9973.1
493.79	10110.31
493.994	9416.05
494.197	9495.92
494.401	9405.81
494.605	9270.64
494.808	9489.78
495.012	9244.02
495.215	9260.4
495.419	9170.29
495.622	8938.87
495.825	9035.13
496.029	8818.04
496.232	8951.16
496.436	8723.83
496.639	8846.71
496.843	8865.14
497.046	8740.22
497.249	8893.82
497.453	8697.21
497.656	8830.33
497.859	8676.73
498.063	8836.47
498.266	8906.1
498.469	8666.49
498.673	8805.75
498.876	9041.27
499.079	8912.25
499.282	8658.3
499.485	9014.65
499.689	8885.62
499.892	9115
500.095	8973.69
500.298	9184.63
500.501	9016.69
500.705	9327.99
500.908	9340.27
501.111	9446.77
501.314	9457.01
501.517	9565.55
501.72	9680.24
501.923	9520.49
502.126	9721.2
502.329	10122.6
502.532	10104.17
502.735	10009.96
502.938	10358.11
503.141	10605.92
503.344	10640.73
503.547	10677.6
503.75	10517.86
503.953	10831.19
504.156	11066.71
504.359	11095.38
504.562	11218.26
504.765	11476.3
504.968	11646.29
505.17	11699.53
505.373	11877.71
505.576	11949.39
505.779	12307.78
505.982	12465.47
506.185	12856.64
506.387	12739.9
506.59	13133.11
506.793	13495.6
506.996	13403.44
507.198	13980.97
507.401	14118.18
507.604	14490.91
507.807	14748.96
508.009	15031.58
508.212	15385.88
508.415	15435.03
508.617	15830.29
508.82	15756.56
509.022	16200.97
509.225	16874.75
509.428	16813.31
509.63	17173.75
509.833	17444.09
510.035	18414.82
510.238	18269.42
510.44	18773.22
510.643	19363.03
510.845	19801.3
511.048	19629.27
511.25	20458.7
511.453	20976.83
511.655	21787.83
511.858	21828.79
512.06	22226.09
512.262	22731.94
512.465	23010.46
512.667	23884.95
512.87	24136.85
513.072	24642.7
513.274	25607.29
513.477	25703.54
513.679	26549.35
513.881	26821.73
514.084	27790.42
514.286	28292.18
514.488	28646.47
514.69	29719.61
514.893	30067.77
515.095	30522.41
515.297	31323.17
515.499	32058.39
515.701	32547.86
515.904	33614.85
516.106	34112.5
516.308	34571.25
516.51	35701.73
516.712	35922.91
516.914	36791.25
517.116	37577.67
517.318	37897.15
517.52	38566.84
517.722	39244.71
517.925	39908.26
518.127	41048.97
518.329	41417.61
518.531	41810.82
518.733	42793.84
518.935	43363.18
519.136	43766.63
519.338	45179.73
519.54	45458.25
519.742	46619.45
519.944	46256.96
520.146	47936.29
520.348	48116.51
520.55	48741.14
520.752	48849.69
520.954	50137.86
521.155	49863.43
521.357	51010.29
521.559	51686.12
521.761	52216.55
521.963	52181.73
522.164	52894.42
522.366	53406.42
522.568	53910.22
522.77	54409.92
522.971	55257.78
523.173	54702.78
523.375	55317.17
523.576	55413.43
523.778	55712.43
523.98	56310.44
524.181	56722.08
524.383	56773.28
524.584	56873.63
524.786	57100.95
524.988	56672.93
525.189	57377.43
525.391	57195.16
525.592	56996.51
525.794	56986.27
525.995	57207.45
526.197	57068.19
526.398	57125.53
526.6	57072.28
526.801	57002.65
527.003	56746.65
527.204	57084.57
527.406	56734.37
527.607	56328.87
527.808	56261.29
528.01	55503.54
528.211	54942.39
528.412	55577.26
528.614	54844.09
528.815	54635.2
529.016	54745.79
529.218	53639.89
529.419	53607.12
529.62	53021.4
529.822	52484.83
530.023	52136.68
530.224	51897.06
530.425	51194.61
530.626	50604.8
530.828	49871.62
531.029	50453.25
531.23	49208.08
531.431	48503.58
531.632	48372.51
531.833	48108.32
532.035	47313.71
532.236	46848.82
532.437	46316.35
532.638	45288.27
532.839	44909.39
533.04	44266.33
533.241	43502.44
533.442	44215.13
533.643	42900.34
533.844	42445.69
534.045	41839.49
534.246	40817.55
534.447	40690.58
534.648	40315.8
534.849	39820.19
535.05	38861.74
535.251	38745.01
535.451	38036.41
535.652	37336.01
535.853	36836.3
536.054	36451.28
536.255	36256.73
536.456	35230.69
536.657	35122.15
536.857	34487.28
537.058	34151.41
537.259	33750.01
537.46	33537.02
537.66	33006.6
537.861	32312.34
538.062	31972.38
538.263	31470.62
538.463	31089.7
538.664	30807.08
538.865	30415.92
539.065	30286.9
539.266	29834.3
539.466	29520.96
539.667	28789.83
539.868	28912.71
540.068	28443.73
540.269	28046.42
540.469	27841.62
540.67	27335.77
540.87	27004
541.071	26793.06
541.271	26516.59
541.472	26295.41
541.672	25666.68
541.873	25472.12
542.073	25126.02
542.274	25023.62
542.474	24784.01
542.675	24372.36
542.875	24478.86
543.075	24044.69
543.276	23262.37
543.476	23475.35
543.676	22903.97
543.877	23055.52
544.077	22803.62
544.277	22471.85
544.478	21896.37
544.678	21816.5
544.878	21507.26
545.078	21382.33
545.279	20962.5
545.479	20853.95
545.679	20671.68
545.879	20440.26
546.079	20024.53
546.28	19766.48
546.48	19690.71
546.68	19641.56
546.88	19274.97
547.08	19064.03
547.28	18670.82
547.48	18324.71
547.68	18437.35
547.88	18074.86
548.081	18201.83
548.281	17659.12
548.481	17288.44
548.681	17304.82
548.881	17145.08
549.081	16895.23
549.28	16327.94
549.48	16260.36
549.68	16200.97
549.88	16141.58
550.08	15394.07
550.28	15453.46
550.48	15375.64
550.68	14914.84
550.88	14583.07
551.08	14548.26
551.279	14550.31
551.479	14077.23
551.679	14234.92
551.879	13856.04
552.079	13659.44
552.278	13450.55
552.478	13288.76
552.678	13090.1
552.878	12981.56
553.077	12553.54
553.277	12301.64
553.477	12406.08
553.676	12139.85
553.876	11900.23
554.076	11611.47
554.275	11511.12
554.475	11306.32
554.674	11246.93
554.874	11072.86
555.074	10831.19
555.273	10792.28
555.473	10554.72
555.672	10192.23
555.872	10114.41
556.071	10063.21
556.271	10098.02
556.47	9698.67
556.67	9411.95
556.869	9254.26
557.068	9215.35
557.268	8777.08
557.467	8965.5
557.667	8926.58
557.866	8480.13
558.065	8508.8
558.265	8430.98
558.464	8048.01
558.663	8119.68
558.863	8105.35
559.062	7804.3
559.261	7626.12
559.461	7697.8
559.66	7425.42
559.859	7423.37
560.058	6950.29
560.258	7116.18
560.457	7021.97
560.656	7101.84
560.855	6536.6
561.054	6620.57
561.253	6575.52
561.453	6473.12
561.652	6466.97
561.851	6360.48
562.05	6319.52
562.249	5864.87
562.448	6098.34
562.647	5774.76
562.846	5877.16
563.045	5741.99
563.244	5549.48
563.443	5754.28
563.642	5502.38
563.841	5354.93
564.04	5359.02
564.239	5381.55
564.438	5205.42
564.637	5082.55
564.836	5076.4
565.035	4896.18
565.234	5021.11
565.432	4761.02
565.631	4767.16
565.83	4720.06
566.029	4474.3
566.228	4582.84
566.427	4642.23
566.625	4396.48
566.824	4502.97
567.023	4179.39
567.222	4183.49
567.42	4025.79
567.619	4134.34
567.818	4003.27
568.016	4140.48
568.215	3917.25
568.414	3904.96
568.612	3950.02
568.811	3706.31
569.01	3651.02
569.208	3466.7
569.407	3640.78
569.605	3653.06
569.804	3556.81
570.002	3472.84
570.201	3270.09
570.4	3376.59
570.598	3194.32
570.797	3335.63
570.995	3257.81
571.193	3163.6
571.392	3085.78
571.59	3044.82
571.789	3050.96
571.987	2969.04
572.186	3059.15
572.384	2803.16
572.582	2880.98
572.781	2940.37
572.979	2659.8
573.177	2774.49
573.376	2764.25
573.574	2739.67
573.772	2557.4
573.971	2545.11
574.169	2465.24
574.367	2563.54
574.565	2571.74
574.763	2446.81
574.962	2448.86
575.16	2258.4
575.358	2201.05
575.556	2295.26
575.754	2231.77
575.952	2141.66
576.151	2112.99
576.349	2205.15
576.547	1973.73
576.745	2041.31
576.943	1981.92
577.141	2067.94
577.339	1979.87
577.537	1926.63
577.735	1967.59
577.933	1869.28
578.131	1879.52
578.329	1979.87
578.527	1873.38
578.725	1920.48
578.923	1674.73
579.121	1740.26
579.319	1574.38
579.516	1633.77
579.714	1848.8
579.912	1609.19
580.11	1490.41
580.308	1441.26
580.506	1564.14
580.704	1443.31
580.901	1404.39
581.099	1557.99
581.297	1426.92
581.495	1512.94
581.692	1437.16
581.89	1469.93
582.088	1302
582.285	1312.24
582.483	1302
582.681	1273.32
582.878	1265.13
583.076	1322.48
583.274	1146.35
583.471	1293.8
583.669	1250.8
583.866	1168.88
584.064	1172.97
584.262	1082.86
584.459	1086.96
584.657	1193.45
584.854	1193.45
585.052	1109.49
585.249	998.9
585.447	1086.96
585.644	929.27
585.841	1093.1
586.039	1095.15
586.236	1089.01
586.434	980.47
586.631	992.75
586.828	916.98
587.026	992.75
587.223	880.11
587.42	865.78
587.618	876.02
587.815	927.22
588.012	835.06
588.21	996.85
588.407	968.18
588.604	882.16
588.801	863.73
588.999	892.4
589.196	912.88
589.393	736.76
589.59	849.4
589.787	869.87
589.984	839.16
590.182	847.35
590.379	753.14
590.576	927.22
590.773	720.37
590.97	753.14
591.167	792.05
591.364	771.57
591.561	828.92
591.758	939.51
591.955	787.96
592.152	790
592.349	759.28
592.546	816.63
592.743	773.62
592.94	726.52
593.137	828.92
593.334	869.87
593.531	843.25
593.727	792.05
593.924	769.52
594.121	806.39
594.318	693.75
594.515	818.68
594.712	886.26
594.908	986.61
595.105	714.23
595.302	820.72
595.499	880.11
595.696	972.27
595.892	888.31
596.089	882.16
596.286	896.5
596.482	990.7
596.679	992.75
596.876	935.41
597.072	1000.94
597.269	949.75
597.466	1033.71
597.662	1021.42
597.859	1052.14
598.055	1113.58
598.252	1201.65
598.448	1134.06
598.645	1320.43
598.841	1306.09
599.038	1496.55
599.234	1424.87
599.431	1510.89
599.627	1441.26
599.824	1629.67
600.02	1564.14
600.217	1652.2
600.413	1760.74
600.609	1797.6
600.806	2020.83
601.002	1885.67
601.198	1949.15
601.395	2186.72
601.591	2201.05
601.787	2205.15
601.984	2221.53
602.18	2358.75
602.376	2354.65
602.572	2577.88
602.769	2680.28
602.965	2684.38
603.161	3016.15
603.357	3055.06
603.553	3073.49
603.75	3020.24
603.946	3257.81
604.142	3325.39
604.338	3646.92
604.534	3528.14
604.73	3552.71
604.926	3730.89
605.122	4117.95
605.318	3902.92
605.514	4210.11
605.71	4210.11
605.906	4357.57
606.102	4445.63
606.298	4750.78
606.494	4738.49
606.69	5051.83
606.886	4906.42
607.082	5045.68
607.278	5410.22
607.474	5438.89
607.67	5692.84
607.866	5625.26
608.062	6041
608.257	6215.07
608.453	6249.89
608.649	6507.93
608.845	6563.23
609.041	6870.42
609.236	7083.41
609.432	7175.57
609.628	7435.66
609.824	7538.06
610.019	7746.95
610.215	8064.39
610.411	8301.95
610.606	8633.72
610.802	8557.95
610.998	8883.58
611.193	9059.7
611.389	9287.03
611.584	9682.28
611.78	9805.16
611.976	10208.61
612.171	10569.05
612.367	10634.59
612.562	10749.28
612.758	11130.2
612.953	11449.68
613.149	11760.97
613.344	11894.09
613.539	12559.68
613.735	12977.47
613.93	13020.47
614.126	13321.52
614.321	14064.94
614.517	14003.5
614.712	14400.8
614.907	14640.42
615.103	15383.83
615.298	15492.37
615.493	16084.23
615.688	16243.98
615.884	17077.5
616.079	16979.2
616.274	17700.08
616.47	18162.92
616.665	18562.28
616.86	19107.04
617.055	19567.83
617.25	19731.67
617.445	20513.99
617.641	20712.64
617.836	21585.08
618.031	21879.99
618.226	22547.62
618.421	23227.55
618.616	23866.52
618.811	24005.78
619.006	24689.8
619.201	25169.02
619.396	25775.22
619.591	25730.17
619.786	27319.39
619.981	26985.57
620.176	27892.82
620.371	28212.31
620.566	29408.32
620.761	29877.3
620.956	30440.5
621.151	30886.95
621.346	31466.53
621.541	31482.91
621.735	33156.1
621.93	33006.6
622.125	33983.48
622.32	34233.33
622.515	35097.58
622.709	35318.76
622.904	36232.15
623.099	36940.75
623.294	37895.1
623.488	38017.98
623.683	38902.7
623.878	39127.98
624.072	40512.41
624.267	40598.42
624.462	41180.04
624.656	41614.21
624.851	42998.64
625.046	42871.67
625.24	43420.52
625.435	44235.61
625.629	44845.91
625.824	45300.56
626.018	45687.62
626.213	45828.93
626.407	47108.91
626.602	47369.01
626.796	48087.84
626.991	48292.64
627.185	48286.5
627.38	49038.1
627.574	49257.23
627.768	49163.03
627.963	49636.11
628.157	49758.98
628.352	50424.57
628.546	49584.91
628.74	50498.3
628.935	50010.88
629.129	49781.51
629.323	49494.8
629.517	49599.24
629.712	49285.9
629.906	48569.11
630.1	48691.99
630.294	48356.13
630.489	47907.62
630.683	47145.78
630.877	46117.7
631.071	45488.97
631.265	45398.86
631.459	43674.47
631.653	43395.95
631.848	42478.46
632.042	41411.46
632.236	40512.41
632.43	39148.46
632.624	38681.52
632.818	37037
633.012	35859.42
633.206	34980.84
633.4	34333.68
633.594	32400.4
633.788	31775.77
633.982	30895.14
634.176	29871.16
634.369	28421.2
634.563	27434.08
634.757	26256.5
634.951	25586.81
635.145	24700.04
635.339	23657.62
635.533	22510.76
635.726	21896.37
635.92	20647.11
636.114	19821.78
636.308	19082.46
636.501	18574.56
636.695	17581.3
636.889	16794.88
637.083	16080.14
637.276	15598.87
637.47	15064.35
637.664	14341.41
637.857	14249.25
638.051	13233.46
638.244	12885.31
638.438	12242.25
638.632	11935.05
638.825	11126.1
639.019	11054.42
639.212	10227.04
639.406	10120.55
639.599	9424.24
639.793	8959.35
639.986	8670.59
640.18	8742.27
640.373	8207.75
640.567	7941.51
640.76	7445.9
640.954	7267.73
641.147	6845.85
641.34	6749.59
641.534	6546.84
641.727	6311.33
641.92	6014.37
642.114	5866.92
642.307	5354.93
642.5	5389.74
642.694	4980.15
642.887	5080.5
643.08	4746.68
643.273	4625.85
643.467	4482.49
643.66	4273.6
643.853	4064.71
644.046	3855.81
644.239	3804.61
644.432	3638.73
644.626	3438.03
644.819	3319.25
645.012	3184.08
645.205	3067.35
645.398	3083.73
645.591	2852.31
645.784	2678.23
645.977	2723.29
646.17	2465.24
646.363	2448.86
646.556	2239.97
646.749	2205.15
646.942	2164.19
647.135	2174.43
647.328	2020.83
647.521	2080.22
647.714	1875.43
647.907	1846.76
648.099	1703.4
648.292	1777.12
648.485	1603.05
648.678	1443.31
648.871	1611.24
649.064	1500.65
649.256	1342.96
649.449	1285.61
649.642	1207.79
649.835	1218.03
650.027	1183.21
650.22	1172.97
650.413	1220.08
650.605	1121.77
650.798	1027.57
650.991	1005.04
651.183	1060.34
651.376	945.65
651.568	988.66
651.761	890.35
651.954	904.69
652.146	900.59
652.339	796.15
652.531	890.35
652.724	826.87
652.916	699.89
653.109	644.6
653.301	773.62
653.494	802.29
653.686	681.46
653.879	656.89
654.071	644.6
654.263	550.39
654.456	534.01
654.648	685.56
654.84	626.17
655.033	591.35
655.225	577.02
655.417	425.47
655.61	663.03
655.802	513.53
655.994	523.77
656.186	364.03
656.379	562.68
656.571	433.66
656.763	390.65
656.955	280.06
657.148	390.65
657.34	579.06
657.532	396.79
657.724	392.7
657.916	447.99
658.108	460.28
658.3	368.12
658.492	443.9
658.684	296.44
658.876	488.95
659.068	243.2
659.26	318.97
659.452	175.61
659.644	271.87
659.836	450.04
660.028	284.16
660.22	286.2
660.412	302.59
660.604	296.44
660.796	300.54
660.988	353.79
661.18	192
661.372	337.4
661.563	259.58
661.755	265.72
661.947	142.85
662.139	175.61
662.331	189.95
662.522	239.1
662.714	153.09
662.906	177.66
663.097	155.13
663.289	210.43
663.481	105.98
663.673	142.85
663.864	243.2
664.056	312.83
664.247	148.99
664.439	245.24
664.631	247.29
664.822	214.52
665.014	79.36
665.205	157.18
665.397	155.13
665.588	177.66
665.78	138.75
665.971	198.14
666.163	140.8
666.354	173.57
666.546	24.06
666.737	116.22
666.929	7.68
667.12	77.31
667.311	153.09
667.503	181.76
667.694	83.45
667.885	220.67
668.077	148.99
668.268	71.17
668.459	216.57
668.651	194.05
668.842	153.09
669.033	69.12
669.224	19.97
669.416	210.43
669.607	103.93
669.798	138.75
669.989	230.91
670.18	126.46
670.371	173.57
670.563	58.88
670.754	284.16
670.945	237.05
671.136	208.38
671.327	87.55
671.518	224.76
671.709	280.06
671.9	189.95
672.091	235
672.282	216.57
672.473	183.81
672.664	44.54
672.855	69.12
673.046	202.24
673.237	220.67
673.428	155.13
673.619	208.38
673.809	114.17
674	196.09
674.191	124.41
674.382	198.14
674.573	151.04
674.764	79.36
674.954	185.85
675.145	42.5
675.336	95.74
675.527	69.12
675.717	165.37
675.908	93.69
676.099	132.61
676.289	110.08
676.48	30.21
676.671	110.08
676.861	103.93
677.052	155.13
677.243	95.74
677.433	62.98
677.624	138.75
677.814	144.89
678.005	58.88
678.195	271.87
678.386	124.41
678.576	132.61
678.767	112.13
678.957	202.24
679.148	183.81
679.338	298.49
679.529	116.22
679.719	120.32
679.909	294.4
680.1	232.96
680.29	192
680.481	126.46
680.671	138.75
680.861	235
681.052	97.79
681.242	44.54
681.432	228.86
681.622	179.71
681.813	38.4
682.003	157.18
682.193	91.65
682.383	181.76
682.573	112.13
682.764	116.22
682.954	108.03
683.144	267.77
683.334	114.17
683.524	171.52
683.714	181.76
683.904	247.29
684.094	169.47
684.284	69.12
684.474	228.86
684.664	257.53
684.854	237.05
685.044	163.33
685.234	210.43
685.424	214.52
685.614	173.57
685.804	312.83
685.994	171.52
686.184	194.05
686.374	218.62
686.564	87.55
686.753	206.33
686.943	54.78
687.133	159.23
687.323	214.52
687.513	230.91
687.702	208.38
687.892	91.65
688.082	230.91
688.272	325.12
688.461	142.85
688.651	312.83
688.841	220.67
689.03	198.14
689.22	265.72
689.41	159.23
689.599	230.91
689.789	89.6
689.979	222.72
690.168	157.18
690.358	212.48
690.547	181.76
690.737	204.28
690.926	169.47
691.116	126.46
691.305	220.67
691.495	249.34
691.684	81.41
691.874	71.17
692.063	130.56
692.252	239.1
692.442	200.19
692.631	110.08
692.82	140.8
693.01	159.23
693.199	189.95
693.388	179.71
693.578	200.19
693.767	286.2
693.956	230.91
694.146	179.71
694.335	222.72
694.524	151.04
694.713	249.34
694.902	155.13
695.092	77.31
695.281	273.92
695.47	151.04
695.659	105.98
695.848	214.52
696.037	130.56
696.226	267.77
696.415	179.71
696.604	325.12
696.793	282.11
696.982	118.27
697.171	265.72
697.36	75.26
697.549	249.34
697.738	13.82
697.927	148.99
698.116	124.41
698.305	155.13
698.494	183.81
698.683	130.56
698.872	341.5
699.061	122.37
699.25	126.46
699.438	192
699.627	126.46
699.816	341.5
700.005	85.5
700.193	124.41
700.382	228.86
700.571	198.14
700.76	241.15
700.948	200.19
701.137	185.85
701.326	239.1
701.514	140.8
701.703	222.72
701.892	194.05
702.08	306.68
702.269	157.18
702.457	122.37
702.646	151.04
702.834	112.13
703.023	212.48
703.212	218.62
703.4	128.51
703.589	165.37
703.777	62.98
703.965	226.81
704.154	210.43
704.342	46.59
704.531	54.78
704.719	146.94
704.907	206.33
705.096	81.41
705.284	116.22
705.472	179.71
705.661	183.81
705.849	261.63
706.037	370.17
706.226	169.47
706.414	206.33
706.602	185.85
706.79	187.9
706.979	99.84
707.167	126.46
707.355	91.65
707.543	214.52
707.731	253.44
707.919	110.08
708.107	179.71
708.296	112.13
708.484	103.93
708.672	163.33
708.86	146.94
709.048	146.94
709.236	116.22
709.424	171.52
709.612	249.34
709.8	77.31
709.988	153.09
710.176	261.63
710.364	265.72
710.551	214.52
710.739	130.56
710.927	101.89
711.115	171.52
711.303	237.05
711.491	249.34
711.679	159.23
711.866	214.52
712.054	144.89
712.242	200.19
712.43	228.86
712.617	214.52
712.805	239.1
712.993	210.43
713.181	50.69
713.368	175.61
713.556	175.61
713.744	99.84
713.931	357.88
714.119	177.66
714.306	161.28
714.494	130.56
714.682	144.89
714.869	185.85
715.057	142.85
715.244	50.69
715.432	163.33
715.619	200.19
715.807	146.94
715.994	130.56
716.182	202.24
716.369	220.67
716.556	189.95
716.744	91.65
716.931	83.45
717.119	187.9
717.306	126.46
717.493	263.68
717.681	75.26
717.868	220.67
718.055	263.68
718.242	144.89
718.43	183.81
718.617	230.91
718.804	177.66
718.991	247.29
719.179	192
719.366	124.41
719.553	194.05
719.74	245.24
719.927	138.75
720.114	214.52
720.301	159.23
720.488	153.09
720.676	42.5
720.863	247.29
721.05	312.83
721.237	216.57
721.424	226.81
721.611	185.85
721.798	77.31
721.985	161.28
722.172	130.56
722.358	200.19
722.545	196.09
722.732	206.33
722.919	267.77
723.106	208.38
723.293	194.05
723.48	185.85
723.667	136.7
723.853	263.68
724.04	192
724.227	331.26
724.414	224.76
724.6	173.57
724.787	267.77
724.974	306.68
725.161	239.1
725.347	114.17
725.534	169.47
725.72	255.48
725.907	257.53
726.094	278.01
726.28	95.74
726.467	198.14
726.653	198.14
726.84	325.12
727.027	292.35
727.213	192
727.4	222.72
727.586	220.67
727.773	226.81
727.959	128.51
728.145	267.77
728.332	204.28
728.518	173.57
728.705	241.15
728.891	298.49
729.077	263.68
729.264	171.52
729.45	159.23
729.636	331.26
729.823	235
730.009	253.44
730.195	202.24
730.382	239.1
730.568	169.47
730.754	230.91
730.94	300.54
731.126	226.81
731.313	245.24
731.499	263.68
731.685	251.39
731.871	136.7
732.057	239.1
732.243	232.96
732.429	296.44
732.615	341.5
732.801	341.5
732.987	222.72
733.173	183.81
733.359	239.1
733.545	239.1
733.731	173.57
733.917	316.92
734.103	218.62
734.289	261.63
734.475	239.1
734.661	368.12
734.847	192
735.033	169.47
735.219	249.34
735.404	232.96
735.59	105.98
735.776	198.14
735.962	206.33
736.148	304.64
736.333	310.78
736.519	269.82
736.705	189.95
736.89	294.4
737.076	165.37
737.262	161.28
737.447	257.53
737.633	175.61
737.819	306.68
738.004	179.71
738.19	257.53
738.375	239.1
738.561	304.64
738.747	204.28
738.932	128.51
739.118	380.41
739.303	271.87
739.489	298.49
739.674	177.66
739.859	169.47
740.045	206.33
740.23	214.52
740.416	48.64
740.601	204.28
740.786	249.34
740.972	192
741.157	273.92
741.342	77.31
741.528	155.13
741.713	341.5
741.898	151.04
742.084	187.9
742.269	187.9
742.454	259.58
742.639	255.48
742.824	259.58
743.01	325.12
743.195	318.97
743.38	300.54
743.565	210.43
743.75	310.78
743.935	280.06
744.12	404.99
744.305	93.69
744.49	202.24
744.675	239.1
744.86	161.28
745.045	267.77
745.23	185.85
745.415	212.48
745.6	230.91
745.785	142.85
745.97	228.86
746.155	259.58
746.34	275.96
746.525	224.76
746.71	273.92
746.895	124.41
747.079	91.65
747.264	173.57
747.449	255.48
747.634	341.5
747.819	116.22
748.003	189.95
748.188	159.23
748.373	216.57
748.557	157.18
748.742	339.45
748.927	239.1
749.111	179.71
749.296	151.04
749.481	146.94
749.665	308.73
749.85	226.81
750.034	210.43
750.219	165.37
750.404	134.65
750.588	275.96
750.773	159.23
750.957	208.38
751.141	97.79
751.326	228.86
751.51	71.17
751.695	165.37
751.879	140.8
752.064	308.73
752.248	171.52
752.432	255.48
752.617	271.87
752.801	122.37
752.985	144.89
753.17	273.92
753.354	253.44
753.538	253.44
753.722	75.26
753.907	120.32
754.091	13.82
754.275	224.76
754.459	140.8
754.643	77.31
754.828	245.24
755.012	183.81
755.196	99.84
755.38	175.61
755.564	138.75
755.748	200.19
755.932	161.28
756.116	179.71
756.3	214.52
756.484	167.42
756.668	185.85
756.852	-29.18
757.036	218.62
757.22	144.89
757.404	128.51
757.588	85.5
757.772	204.28
757.956	75.26
758.14	237.05
758.323	165.37
758.507	155.13
758.691	122.37
758.875	243.2
759.059	189.95
759.242	44.54
759.426	126.46
759.61	216.57
759.794	89.6
759.977	146.94
760.161	300.54
760.345	148.99
760.528	175.61
760.712	118.27
760.895	157.18
761.079	58.88
761.263	19.97
761.446	93.69
761.63	114.17
761.813	138.75
761.997	71.17
762.18	161.28
762.364	181.76
762.547	-8.7
762.731	81.41
762.914	89.6
763.098	112.13
763.281	42.5
763.464	5.63
763.648	132.61
763.831	95.74
764.015	30.21
764.198	165.37
764.381	52.74
764.564	60.93
764.748	85.5
764.931	19.97
765.114	17.92
765.297	177.66
765.481	44.54
765.664	22.02
765.847	83.45
766.03	204.28
766.213	91.65
766.397	97.79
766.58	3.58
766.763	173.57
766.946	73.21
767.129	73.21
767.312	-0.51
767.495	75.26
767.678	-55.81
767.861	77.31
768.044	114.17
768.227	-45.57
768.41	114.17
768.593	75.26
768.776	71.17
768.959	9.73
769.142	251.39
769.324	79.36
769.507	5.63
769.69	56.83
769.873	34.3
770.056	232.96
770.239	167.42
770.421	132.61
770.604	93.69
770.787	122.37
770.97	126.46
771.152	30.21
771.335	69.12
771.518	30.21
771.7	134.65
771.883	130.56
772.066	52.74
772.248	89.6
772.431	62.98
772.613	155.13
772.796	62.98
772.978	75.26
773.161	173.57
773.343	26.11
773.526	67.07
773.708	-35.33
773.891	50.69
774.073	22.02
774.256	-33.28
774.438	212.48
774.621	142.85
774.803	126.46
774.985	71.17
775.168	99.84
775.35	93.69
775.532	105.98
775.715	32.26
775.897	101.89
776.079	42.5
776.261	144.89
776.444	58.88
776.626	40.45
776.808	54.78
776.99	-37.38
777.173	79.36
777.355	83.45
777.537	34.3
777.719	97.79
777.901	-6.66
778.083	19.97
778.265	32.26
778.447	97.79
778.629	-51.71
778.811	60.93
778.993	13.82
779.175	148.99
779.357	120.32
779.539	22.02
779.721	44.54
779.903	56.83
780.085	112.13
780.267	54.78
780.449	85.5
780.631	73.21
780.812	155.13
780.994	15.87
781.176	42.5
781.358	-12.8
781.54	-18.94
781.721	112.13
781.903	93.69
782.085	-4.61
782.267	165.37
782.448	-45.57
782.63	-10.75
782.812	30.21
782.993	87.55
783.175	89.6
783.357	-33.28
783.538	101.89
783.72	60.93
783.901	26.11
784.083	108.03
784.264	87.55
784.446	-29.18
784.627	-51.71
784.809	62.98
784.99	38.4
785.172	101.89
785.353	-18.94
785.535	48.64
785.716	58.88
785.897	-57.86
786.079	-2.56
786.26	50.69
786.441	1.54
786.623	-0.51
786.804	-37.38
786.985	83.45
787.167	79.36
787.348	5.63
787.529	9.73
787.71	192
787.891	89.6
788.073	22.02
788.254	-47.62
788.435	171.52
788.616	28.16
788.797	1.54
788.978	44.54
789.159	-33.28
789.34	85.5
789.522	-27.14
789.703	19.97
789.884	1.54
790.065	50.69
790.246	138.75
790.427	7.68
790.607	118.27
790.788	130.56
790.969	22.02
791.15	91.65
791.331	3.58
791.512	5.63
791.693	13.82
791.874	28.16
792.054	300.54
792.235	81.41
792.416	-53.76
792.597	13.82
792.778	67.07
792.958	30.21
793.139	108.03
793.32	38.4
793.5	-37.38
793.681	148.99
793.862	26.11
794.042	5.63
794.223	-55.81
794.404	3.58
794.584	-66.05
794.765	30.21
794.945	69.12
795.126	13.82
795.306	67.07
795.487	75.26
795.667	-47.62
795.848	52.74
796.028	-4.61
796.209	26.11
796.389	19.97
796.57	-39.42
796.75	-51.71
796.93	19.97
797.111	13.82
797.291	-70.14
797.471	101.89
797.652	-92.67
797.832	-23.04
798.012	60.93
798.192	-72.19
798.373	-104.96
798.553	34.3
798.733	26.11
798.913	-127.49
799.093	-18.94
799.274	79.36
799.454	-14.85
799.634	42.5
799.814	124.41
799.994	67.07
800.174	-20.99
800.354	95.74
800.534	-68.09
800.714	40.45
800.894	-37.38
801.074	-78.33
801.254	-53.76
801.434	89.6
801.614	-12.8
801.794	15.87
801.974	1676.77
802.154	-74.24
802.334	34.3
802.514	-41.47
802.693	-23.04
802.873	15.87
803.053	132.61
803.233	105.98
803.413	5.63
803.592	-2.56
803.772	-66.05
803.952	56.83
804.131	19.97
804.311	11.78
804.491	93.69
804.67	-18.94
804.85	-78.33
805.03	69.12
805.209	67.07
805.389	3.58
805.568	58.88
805.748	-53.76
805.928	-0.51
806.107	5.63
806.287	89.6
806.466	30.21
806.646	-39.42
806.825	36.35
807.004	-41.47
807.184	87.55
807.363	-27.14
807.543	93.69
807.722	-57.86
807.901	-2.56
808.081	32.26
808.26	-154.11
808.439	65.02
808.619	17.92
808.798	-59.9
808.977	52.74
809.156	46.59
809.336	-23.04
809.515	67.07
809.694	-43.52
809.873	62.98
810.052	89.6
810.231	130.56
810.411	28.16
810.59	208.38
810.769	26.11
810.948	50.69
811.127	-160.25
811.306	-121.34
811.485	-84.48
811.664	99.84
811.843	15.87
812.022	-6.66
812.201	-43.52
812.38	38.4
812.559	-45.57
812.737	44.54
812.916	-39.42
813.095	-94.72
813.274	62.98
813.453	-49.66
813.632	11.78
813.811	69.12
813.989	-37.38
814.168	1.54
814.347	-35.33
814.526	-82.43
814.704	79.36
814.883	77.31
815.062	-55.81
815.24	116.22
815.419	-98.81
815.598	30.21
815.776	-113.15
815.955	-31.23
816.133	-102.91
816.312	24.06
816.49	-47.62
816.669	-2.56
816.847	-61.95
817.026	26.11
817.204	34.3
817.383	-82.43
817.561	-102.91
817.74	13.82
817.918	9.73
818.097	-80.38
818.275	-35.33
818.453	110.08
818.632	52.74
818.81	38.4
818.988	-16.9
819.167	-51.71
819.345	7.68
819.523	-8.7
819.701	1.54
819.879	75.26
820.058	-18.94
820.236	67.07
820.414	-18.94
820.592	-57.86
820.77	-10.75
820.948	-64
821.127	-45.57
821.305	-66.05
821.483	-37.38
821.661	-8.7
821.839	32.26
822.017	-59.9
822.195	-41.47
822.373	-4.61
822.551	-18.94
822.729	124.41
822.907	5.63
823.085	34.3
823.262	85.5
823.44	-20.99
823.618	15.87
823.796	-10.75
823.974	42.5
824.152	-0.51
824.329	-6.66
824.507	5.63
824.685	13.82
824.863	-39.42
825.04	3.58
825.218	-47.62
825.396	-35.33
825.574	-12.8
825.751	-35.33
825.929	5.63
826.107	1.54
826.284	-74.24
826.462	40.45
826.639	-127.49
826.817	-53.76
826.994	-39.42
827.172	-59.9
827.349	101.89
827.527	56.83
827.704	-14.85
827.882	36.35
828.059	5.63
828.237	30.21
828.414	24.06
828.591	-190.97
828.769	15.87
828.946	-51.71
829.124	52.74
829.301	124.41
829.478	52.74
829.655	-4.61
829.833	40.45
830.01	-186.88
830.187	50.69
830.364	-27.14
830.542	5.63
830.719	116.22
830.896	-23.04
831.073	-29.18
831.25	38.4
831.427	58.88
831.604	52.74
831.782	-49.66
831.959	44.54
832.136	-25.09
832.313	1.54
832.49	-53.76
832.667	32.26
832.844	-100.86
833.021	81.41
833.198	28.16
833.374	-41.47
833.551	36.35
833.728	1.54
833.905	34.3
834.082	-172.54
834.259	32.26
834.436	138.75
834.612	-6.66
834.789	48.64
834.966	-37.38
835.143	56.83
835.319	-57.86
835.496	71.17
835.673	-14.85
835.85	69.12
836.026	-6.66
836.203	46.59
836.38	-70.14
836.556	-35.33
836.733	-100.86
836.909	167.42
837.086	-47.62
837.262	-35.33
837.439	9.73
837.616	5.63
837.792	32.26
837.968	32.26
838.145	-137.73
838.321	40.45
838.498	46.59
838.674	87.55
838.851	42.5
839.027	-115.2
839.203	-8.7
839.38	13.82
839.556	-25.09
839.732	101.89
839.909	-102.91
840.085	-6.66
840.261	-47.62
840.437	-111.1
840.614	-82.43
840.79	81.41
840.966	67.07
841.142	-4.61
841.318	-6.66
841.494	22.02
841.671	17.92
841.847	-98.81
842.023	-82.43
842.199	32.26
842.375	151.04
842.551	-70.14
842.727	-68.09
842.903	165.37
843.079	-107.01
843.255	56.83
843.431	1.54
843.607	40.45
843.783	-100.86
843.959	9.73
844.134	-47.62
844.31	62.98
844.486	-68.09
844.662	32.26
844.838	-29.18
845.013	7.68
845.189	19.97
845.365	83.45
845.541	-18.94
845.716	-37.38
845.892	95.74
846.068	7.68
846.244	-76.29
846.419	28.16
846.595	-90.62
846.77	-80.38
846.946	44.54
847.122	9.73
847.297	5.63
847.473	200.19
847.648	-70.14
847.824	22.02
847.999	-70.14
848.175	13.82
848.35	67.07
848.526	48.64
848.701	83.45
848.876	67.07
849.052	120.32
849.227	1.54
849.403	11.78
849.578	-88.57
849.753	15.87
849.929	38.4
850.104	-82.43
850.279	32.26
850.454	46.59
850.63	85.5
850.805	-25.09
850.98	32.26
851.155	17.92
851.33	5.63
851.505	-86.53
851.681	34.3
851.856	-16.9
852.031	-31.23
852.206	9.73
852.381	-49.66
852.556	-8.7
852.731	67.07
852.906	99.84
853.081	24.06
853.256	73.21
853.431	-4.61
853.606	-37.38
853.781	-76.29
853.956	-59.9
854.131	19.97
854.305	-16.9
854.48	-33.28
854.655	-43.52
854.83	-4.61
855.005	-20.99
855.18	-4.61
855.354	-23.04
855.529	32.26
855.704	-6.66
855.879	56.83
856.053	-43.52
856.228	-43.52
856.403	-10.75
856.577	34.3
856.752	-96.77
856.926	-53.76
857.101	-4.61
857.276	-37.38
857.45	-6.66
857.625	44.54
857.799	60.93
857.974	32.26
858.148	-143.87
858.323	62.98
858.497	-57.86
858.672	-84.48
858.846	-29.18
859.02	110.08
859.195	-76.29
859.369	-8.7
859.543	34.3
859.718	-18.94
859.892	40.45
860.066	79.36
860.241	-23.04
860.415	-80.38
860.589	-82.43
860.763	5.63
860.938	-57.86
861.112	30.21
861.286	-18.94
861.46	40.45
861.634	-51.71
861.808	1.54
861.982	-27.14
862.157	-100.86
862.331	-14.85
862.505	-70.14
862.679	-82.43
862.853	44.54
863.027	-90.62
863.201	118.27
863.375	-29.18
863.549	-47.62
863.722	-0.51
863.896	71.17
864.07	-90.62
864.244	-2.56
864.418	83.45
864.592	-59.9
864.766	-2.56
864.939	13.82
865.113	-18.94
865.287	89.6
865.461	-80.38
865.634	-8.7
865.808	-35.33
865.982	-4.61
866.156	32.26
866.329	-51.71
866.503	38.4
866.676	38.4
866.85	1.54
867.024	-37.38
867.197	81.41
867.371	-23.04
867.544	42.5
867.718	-82.43
867.891	69.12
868.065	-104.96
868.238	95.74
868.412	54.78
868.585	-33.28
868.759	-39.42
868.932	-84.48
869.105	3.58
869.279	17.92
869.452	-10.75
869.625	-14.85
869.799	7.68
869.972	-86.53
870.145	-49.66
870.319	46.59
870.492	-47.62
870.665	-12.8
870.838	-51.71
871.011	-193.02
871.185	-64
871.358	5.63
871.531	136.7
871.704	-141.82
871.877	-18.94
872.05	11.78
872.223	-170.49
872.396	15.87
872.569	56.83
872.742	-43.52
872.915	46.59
873.088	-41.47
873.261	-100.86
873.434	108.03
873.607	-57.86
873.78	50.69
873.953	-64
874.126	-16.9
874.299	-33.28
874.471	-72.19
874.644	19.97
874.817	1.54
874.99	132.61
875.163	-86.53
875.335	46.59
875.508	-47.62
875.681	95.74
875.853	-45.57
876.026	-6.66
876.199	26.11
876.371	7.68
876.544	-51.71
876.717	19.97
876.889	-41.47
877.062	7.68
877.234	-102.91
877.407	-102.91
877.579	56.83
877.752	-47.62
877.924	105.98
878.097	-6.66
878.269	-59.9
878.442	9.73
878.614	-20.99
878.786	-107.01
878.959	30.21
879.131	46.59
879.303	-102.91
879.476	-18.94
879.648	81.41
879.82	-20.99
879.993	-20.99
880.165	-4.61
880.337	-41.47
880.509	5.63
880.681	-147.97
880.854	-76.29
881.026	34.3
881.198	128.51
881.37	-14.85
881.542	48.64
881.714	1.54
881.886	-25.09
882.058	-39.42
882.23	19.97
882.402	-16.9
882.574	22.02
882.746	85.5
882.918	75.26
883.09	48.64
883.262	-29.18
883.434	44.54
883.606	-139.77
883.778	30.21
883.95	112.13
884.122	-8.7
884.293	38.4
884.465	11.78
884.637	95.74
884.809	-96.77
884.98	-4.61
885.152	5.63
885.324	75.26
885.496	-29.18
885.667	-16.9
885.839	-4.61
886.011	138.75
886.182	-6.66
886.354	-14.85
886.525	9.73
886.697	32.26
886.869	-135.68
887.04	-57.86
887.212	105.98
887.383	140.8
887.555	120.32
887.726	-92.67
887.897	-12.8
888.069	-66.05
888.24	65.02
888.412	22.02
888.583	-12.8
888.754	13.82
888.926	-176.64
889.097	-43.52
889.268	-94.72
889.44	-41.47
889.611	-152.06
889.782	-139.77
889.953	-23.04
890.125	60.93
890.296	-61.95
890.467	-66.05
890.638	-37.38
890.809	28.16
890.98	-14.85
891.151	46.59
891.323	144.89
891.494	34.3
891.665	-107.01
891.836	-18.94
892.007	-39.42
892.178	44.54
892.349	50.69
892.52	-86.53
892.691	-12.8
892.862	-10.75
893.032	-90.62
893.203	-27.14
893.374	22.02
893.545	-39.42
893.716	-31.23
893.887	46.59
894.057	-59.9
894.228	-41.47
894.399	-70.14
894.57	50.69
894.74	-72.19
894.911	-25.09
895.082	-86.53
895.253	-98.81
895.423	-37.38
895.594	52.74
895.764	7.68
895.935	-121.34
896.106	52.74
896.276	-43.52
896.447	58.88
896.617	-94.72
896.788	-102.91
896.958	-47.62
897.129	-94.72
897.299	-84.48
897.47	62.98
897.64	7.68
897.81	-57.86
897.981	44.54
898.151	-88.57
898.322	30.21
898.492	42.5
898.662	-111.1
898.832	-98.81
899.003	-68.09
899.173	38.4
899.343	-20.99
899.513	-20.99
