Data from USB4F104151__121__13-57-52-298.txt Node

Date: Thu Mar 13 13:57:52 EDT 2025
User: louis
Spectrometer: USB4F10415
Trigger mode: 4
Integration Time (sec): 1.000000E-2
Scans to average: 1
Electric dark correction enabled: true
Nonlinearity correction enabled: false
Boxcar width: 0
XAxis mode: Wavelengths
Number of Pixels in Spectrum: 3648
>>>>>Begin Spectral Data<<<<<
178.204	12.46
178.424	12.46
178.644	12.46
178.864	-30.55
179.084	-42.84
179.304	-32.6
179.524	-1.88
179.744	-18.26
179.964	-24.4
180.184	-63.32
180.404	-22.36
180.624	24.75
180.844	6.31
181.064	-12.12
181.283	59.56
181.503	39.08
181.723	45.23
181.943	26.79
182.163	16.55
182.383	24.75
182.602	77.99
182.822	24.75
183.042	49.32
183.262	0.17
183.482	-20.31
183.701	65.71
183.921	43.18
184.141	34.99
184.361	28.84
184.58	-3.93
184.8	8.36
185.02	71.85
185.239	69.8
185.459	69.8
185.679	30.89
185.898	-24.4
186.118	37.03
186.338	22.7
186.557	16.55
186.777	24.75
186.997	28.84
187.216	12.46
187.436	-18.26
187.655	8.36
187.875	20.65
188.095	0.17
188.314	104.62
188.534	-20.31
188.753	43.18
188.973	-5.97
189.192	28.84
189.412	-24.4
189.631	30.89
189.851	-51.03
190.07	86.19
190.29	10.41
190.509	8.36
190.729	26.79
190.948	47.27
191.168	32.94
191.387	88.23
191.607	4.27
191.826	41.13
192.045	16.55
192.265	32.94
192.484	28.84
192.704	2.22
192.923	32.94
193.142	30.89
193.362	-18.26
193.581	41.13
193.8	22.7
194.02	135.34
194.239	43.18
194.458	37.03
194.678	6.31
194.897	-10.07
195.116	32.94
195.335	67.75
195.555	63.66
195.774	4.27
195.993	12.46
196.212	18.6
196.432	-30.55
196.651	104.62
196.87	-44.88
197.089	10.41
197.308	98.47
197.528	41.13
197.747	77.99
197.966	4.27
198.185	90.28
198.404	-16.21
198.623	16.55
198.842	55.47
199.062	43.18
199.281	22.7
199.5	14.51
199.719	57.51
199.938	18.6
200.157	-10.07
200.376	-34.64
200.595	88.23
200.814	-30.55
201.033	49.32
201.252	57.51
201.471	-18.26
201.69	43.18
201.909	49.32
202.128	-3.93
202.347	75.95
202.566	-8.02
202.785	59.56
203.004	10.41
203.223	-16.21
203.442	-18.26
203.661	2.22
203.879	37.03
204.098	41.13
204.317	47.27
204.536	127.14
204.755	-12.12
204.974	41.13
205.193	118.95
205.411	32.94
205.63	14.51
205.849	34.99
206.068	55.47
206.287	2.22
206.505	14.51
206.724	84.14
206.943	-24.4
207.162	53.42
207.381	57.51
207.599	53.42
207.818	45.23
208.037	8.36
208.255	43.18
208.474	-16.21
208.693	0.17
208.911	8.36
209.13	24.75
209.349	24.75
209.567	73.9
209.786	118.95
210.005	-14.17
210.223	90.28
210.442	53.42
210.661	63.66
210.879	28.84
211.098	26.79
211.316	71.85
211.535	77.99
211.753	-1.88
211.972	65.71
212.191	39.08
212.409	-30.55
212.628	43.18
212.846	24.75
213.065	-28.5
213.283	67.75
213.502	57.51
213.72	43.18
213.938	45.23
214.157	43.18
214.375	98.47
214.594	63.66
214.812	51.37
215.031	69.8
215.249	37.03
215.467	18.6
215.686	59.56
215.904	59.56
216.122	26.79
216.341	108.71
216.559	6.31
216.778	92.33
216.996	37.03
217.214	20.65
217.432	30.89
217.651	55.47
217.869	6.31
218.087	16.55
218.306	-14.17
218.524	80.04
218.742	65.71
218.96	-3.93
219.179	100.52
219.397	53.42
219.615	80.04
219.833	-22.36
220.051	30.89
220.27	104.62
220.488	32.94
220.706	2.22
220.924	39.08
221.142	55.47
221.36	12.46
221.578	12.46
221.796	71.85
222.015	41.13
222.233	-8.02
222.451	22.7
222.669	34.99
222.887	-16.21
223.105	-10.07
223.323	28.84
223.541	-16.21
223.759	22.7
223.977	-22.36
224.195	127.14
224.413	16.55
224.631	86.19
224.849	108.71
225.067	49.32
225.285	61.61
225.503	24.75
225.721	-67.41
225.939	26.79
226.157	26.79
226.375	65.71
226.592	51.37
226.81	43.18
227.028	-3.93
227.246	67.75
227.464	71.85
227.682	32.94
227.9	12.46
228.117	-20.31
228.335	-3.93
228.553	59.56
228.771	30.89
228.989	84.14
229.206	-16.21
229.424	43.18
229.642	32.94
229.86	32.94
230.077	-3.93
230.295	-22.36
230.513	-24.4
230.731	10.41
230.948	32.94
231.166	41.13
231.384	75.95
231.601	59.56
231.819	28.84
232.037	14.51
232.254	-16.21
232.472	8.36
232.689	39.08
232.907	51.37
233.125	67.75
233.342	18.6
233.56	67.75
233.777	10.41
233.995	16.55
234.213	24.75
234.43	57.51
234.648	26.79
234.865	67.75
235.083	12.46
235.3	-16.21
235.518	20.65
235.735	-42.84
235.953	43.18
236.17	57.51
236.388	24.75
236.605	51.37
236.822	45.23
237.04	16.55
237.257	45.23
237.475	41.13
237.692	59.56
237.909	-10.07
238.127	20.65
238.344	80.04
238.562	55.47
238.779	69.8
238.996	-30.55
239.214	8.36
239.431	-22.36
239.648	77.99
239.865	53.42
240.083	-1.88
240.3	8.36
240.517	20.65
240.735	123.05
240.952	-14.17
241.169	30.89
241.386	77.99
241.603	22.7
241.821	53.42
242.038	30.89
242.255	51.37
242.472	30.89
242.689	61.61
242.907	-44.88
243.124	2.22
243.341	59.56
243.558	-16.21
243.775	32.94
243.992	22.7
244.209	90.28
244.426	67.75
244.643	90.28
244.86	51.37
245.078	34.99
245.295	6.31
245.512	67.75
245.729	51.37
245.946	-5.97
246.163	-5.97
246.38	-14.17
246.597	8.36
246.814	43.18
247.031	39.08
247.248	92.33
247.464	82.09
247.681	127.14
247.898	28.84
248.115	45.23
248.332	12.46
248.549	-1.88
248.766	20.65
248.983	16.55
249.2	57.51
249.417	28.84
249.633	53.42
249.85	61.61
250.067	-12.12
250.284	30.89
250.501	65.71
250.717	59.56
250.934	59.56
251.151	61.61
251.368	-12.12
251.585	28.84
251.801	92.33
252.018	-36.69
252.235	77.99
252.451	-16.21
252.668	30.89
252.885	84.14
253.102	86.19
253.318	59.56
253.535	51.37
253.752	59.56
253.968	-24.4
254.185	12.46
254.401	71.85
254.618	82.09
254.835	41.13
255.051	65.71
255.268	34.99
255.484	55.47
255.701	-22.36
255.917	10.41
256.134	30.89
256.351	-22.36
256.567	14.51
256.784	59.56
257	-22.36
257.217	102.57
257.433	18.6
257.65	39.08
257.866	20.65
258.082	-14.17
258.299	-42.84
258.515	-5.97
258.732	32.94
258.948	61.61
259.165	59.56
259.381	24.75
259.597	2.22
259.814	24.75
260.03	-1.88
260.246	32.94
260.463	53.42
260.679	51.37
260.895	6.31
261.112	32.94
261.328	51.37
261.544	43.18
261.761	-36.69
261.977	4.27
262.193	24.75
262.409	18.6
262.626	90.28
262.842	88.23
263.058	26.79
263.274	86.19
263.49	-20.31
263.707	92.33
263.923	90.28
264.139	2.22
264.355	-10.07
264.571	28.84
264.787	0.17
265.004	69.8
265.22	37.03
265.436	75.95
265.652	77.99
265.868	-8.02
266.084	16.55
266.3	32.94
266.516	10.41
266.732	28.84
266.948	53.42
267.164	92.33
267.38	20.65
267.596	45.23
267.812	67.75
268.028	67.75
268.244	32.94
268.46	108.71
268.676	-57.17
268.892	106.67
269.108	-59.22
269.324	-18.26
269.54	118.95
269.756	118.95
269.972	67.75
270.188	32.94
270.403	37.03
270.619	24.75
270.835	12.46
271.051	43.18
271.267	96.43
271.483	2.22
271.698	49.32
271.914	41.13
272.13	0.17
272.346	16.55
272.562	12.46
272.777	47.27
272.993	12.46
273.209	22.7
273.425	63.66
273.64	-5.97
273.856	45.23
274.072	18.6
274.287	8.36
274.503	37.03
274.719	20.65
274.934	26.79
275.15	65.71
275.366	30.89
275.581	90.28
275.797	-12.12
276.012	65.71
276.228	6.31
276.444	102.57
276.659	-8.02
276.875	16.55
277.09	16.55
277.306	86.19
277.521	0.17
277.737	37.03
277.952	45.23
278.168	-8.02
278.383	26.79
278.599	82.09
278.814	6.31
279.03	63.66
279.245	18.6
279.461	39.08
279.676	-46.93
279.892	4.27
280.107	45.23
280.322	32.94
280.538	16.55
280.753	0.17
280.969	94.38
281.184	39.08
281.399	135.34
281.615	0.17
281.83	67.75
282.045	55.47
282.26	47.27
282.476	12.46
282.691	69.8
282.906	106.67
283.122	129.19
283.337	34.99
283.552	92.33
283.767	53.42
283.983	-8.02
284.198	47.27
284.413	67.75
284.628	106.67
284.843	30.89
285.058	34.99
285.274	-14.17
285.489	-48.98
285.704	22.7
285.919	59.56
286.134	84.14
286.349	61.61
286.564	-1.88
286.779	37.03
286.995	0.17
287.21	55.47
287.425	45.23
287.64	-20.31
287.855	6.31
288.07	-16.21
288.285	61.61
288.5	63.66
288.715	57.51
288.93	22.7
289.145	-22.36
289.36	24.75
289.575	20.65
289.79	59.56
290.004	34.99
290.219	-12.12
290.434	34.99
290.649	47.27
290.864	59.56
291.079	-14.17
291.294	96.43
291.509	30.89
291.724	-1.88
291.938	20.65
292.153	32.94
292.368	45.23
292.583	65.71
292.798	-5.97
293.012	2.22
293.227	69.8
293.442	18.6
293.657	-5.97
293.871	65.71
294.086	-16.21
294.301	118.95
294.516	-24.4
294.73	34.99
294.945	77.99
295.16	16.55
295.374	147.62
295.589	59.56
295.804	-5.97
296.018	24.75
296.233	75.95
296.447	8.36
296.662	16.55
296.877	-3.93
297.091	45.23
297.306	-14.17
297.52	-65.36
297.735	2.22
297.949	39.08
298.164	49.32
298.378	37.03
298.593	28.84
298.807	-48.98
299.022	82.09
299.236	51.37
299.451	26.79
299.665	125.1
299.88	-8.02
300.094	14.51
300.309	61.61
300.523	145.58
300.737	51.37
300.952	57.51
301.166	14.51
301.381	77.99
301.595	98.47
301.809	102.57
302.024	61.61
302.238	-20.31
302.452	104.62
302.667	34.99
302.881	84.14
303.095	18.6
303.309	32.94
303.524	43.18
303.738	102.57
303.952	16.55
304.166	92.33
304.381	-48.98
304.595	57.51
304.809	49.32
305.023	41.13
305.237	49.32
305.452	43.18
305.666	88.23
305.88	73.9
306.094	92.33
306.308	24.75
306.522	80.04
306.736	-3.93
306.95	53.42
307.164	57.51
307.379	-14.17
307.593	63.66
307.807	73.9
308.021	39.08
308.235	26.79
308.449	-14.17
308.663	20.65
308.877	118.95
309.091	51.37
309.305	90.28
309.519	20.65
309.733	10.41
309.947	28.84
310.161	92.33
310.374	49.32
310.588	86.19
310.802	63.66
311.016	-16.21
311.23	55.47
311.444	86.19
311.658	65.71
311.872	121
312.085	47.27
312.299	90.28
312.513	116.9
312.727	32.94
312.941	-3.93
313.154	-12.12
313.368	43.18
313.582	73.9
313.796	0.17
314.009	34.99
314.223	18.6
314.437	67.75
314.651	80.04
314.864	84.14
315.078	10.41
315.292	41.13
315.505	20.65
315.719	65.71
315.933	34.99
316.146	104.62
316.36	-44.88
316.573	49.32
316.787	73.9
317.001	98.47
317.214	77.99
317.428	55.47
317.641	2.22
317.855	55.47
318.068	0.17
318.282	77.99
318.495	100.52
318.709	30.89
318.922	-16.21
319.136	80.04
319.349	75.95
319.563	4.27
319.776	98.47
319.99	41.13
320.203	49.32
320.417	37.03
320.63	49.32
320.843	20.65
321.057	24.75
321.27	14.51
321.483	32.94
321.697	45.23
321.91	98.47
322.124	106.67
322.337	12.46
322.55	51.37
322.763	-16.21
322.977	77.99
323.19	32.94
323.403	51.37
323.617	-3.93
323.83	32.94
324.043	2.22
324.256	-8.02
324.469	63.66
324.683	100.52
324.896	-18.26
325.109	65.71
325.322	104.62
325.535	125.1
325.748	12.46
325.962	112.81
326.175	-32.6
326.388	67.75
326.601	41.13
326.814	59.56
327.027	51.37
327.24	39.08
327.453	67.75
327.666	49.32
327.879	57.51
328.092	61.61
328.305	51.37
328.518	90.28
328.731	-24.4
328.944	65.71
329.157	45.23
329.37	37.03
329.583	67.75
329.796	55.47
330.009	57.51
330.222	0.17
330.435	88.23
330.648	49.32
330.861	24.75
331.073	49.32
331.286	104.62
331.499	57.51
331.712	-3.93
331.925	-32.6
332.138	77.99
332.35	43.18
332.563	10.41
332.776	39.08
332.989	67.75
333.202	22.7
333.414	67.75
333.627	100.52
333.84	55.47
334.053	51.37
334.265	57.51
334.478	4.27
334.691	65.71
334.903	8.36
335.116	110.76
335.329	20.65
335.541	51.37
335.754	75.95
335.966	-3.93
336.179	75.95
336.392	37.03
336.604	77.99
336.817	30.89
337.029	47.27
337.242	34.99
337.454	96.43
337.667	49.32
337.88	71.85
338.092	90.28
338.305	53.42
338.517	-57.17
338.729	53.42
338.942	90.28
339.154	-30.55
339.367	55.47
339.579	57.51
339.792	47.27
340.004	82.09
340.217	112.81
340.429	12.46
340.641	28.84
340.854	4.27
341.066	-18.26
341.278	57.51
341.491	92.33
341.703	0.17
341.915	102.57
342.128	92.33
342.34	51.37
342.552	108.71
342.764	4.27
342.977	43.18
343.189	-8.02
343.401	37.03
343.613	77.99
343.826	37.03
344.038	53.42
344.25	63.66
344.462	49.32
344.674	80.04
344.886	41.13
345.099	92.33
345.311	30.89
345.523	67.75
345.735	24.75
345.947	18.6
346.159	67.75
346.371	88.23
346.583	-44.88
346.795	108.71
347.007	98.47
347.219	65.71
347.431	-10.07
347.643	63.66
347.855	24.75
348.067	49.32
348.279	-12.12
348.491	8.36
348.703	-40.79
348.915	30.89
349.127	26.79
349.339	32.94
349.551	55.47
349.763	118.95
349.975	86.19
350.187	-14.17
350.399	24.75
350.61	-16.21
350.822	-14.17
351.034	118.95
351.246	73.9
351.458	82.09
351.669	-20.31
351.881	90.28
352.093	47.27
352.305	45.23
352.517	73.9
352.728	137.38
352.94	24.75
353.152	147.62
353.363	61.61
353.575	65.71
353.787	61.61
353.999	45.23
354.21	80.04
354.422	92.33
354.633	39.08
354.845	98.47
355.057	96.43
355.268	47.27
355.48	63.66
355.692	-8.02
355.903	26.79
356.115	22.7
356.326	96.43
356.538	22.7
356.749	26.79
356.961	63.66
357.172	-8.02
357.384	32.94
357.595	131.24
357.807	32.94
358.018	12.46
358.23	75.95
358.441	61.61
358.653	92.33
358.864	-16.21
359.075	10.41
359.287	14.51
359.498	43.18
359.709	39.08
359.921	34.99
360.132	82.09
360.344	-36.69
360.555	98.47
360.766	63.66
360.977	0.17
361.189	32.94
361.4	94.38
361.611	71.85
361.823	80.04
362.034	53.42
362.245	32.94
362.456	43.18
362.667	59.56
362.879	59.56
363.09	2.22
363.301	-20.31
363.512	69.8
363.723	-8.02
363.935	73.9
364.146	131.24
364.357	-20.31
364.568	16.55
364.779	8.36
364.99	108.71
365.201	39.08
365.412	61.61
365.623	94.38
365.834	16.55
366.045	43.18
366.256	34.99
366.467	24.75
366.678	73.9
366.889	8.36
367.1	-5.97
367.311	14.51
367.522	49.32
367.733	75.95
367.944	55.47
368.155	57.51
368.366	141.48
368.577	65.71
368.788	12.46
368.999	-5.97
369.209	67.75
369.42	45.23
369.631	139.43
369.842	112.81
370.053	-18.26
370.264	10.41
370.474	55.47
370.685	57.51
370.896	90.28
371.107	131.24
371.317	-16.21
371.528	45.23
371.739	69.8
371.95	-10.07
372.16	92.33
372.371	26.79
372.582	110.76
372.792	-8.02
373.003	67.75
373.214	100.52
373.424	41.13
373.635	98.47
373.846	59.56
374.056	37.03
374.267	14.51
374.477	26.79
374.688	34.99
374.898	-40.79
375.109	67.75
375.319	37.03
375.53	16.55
375.74	90.28
375.951	51.37
376.161	82.09
376.372	73.9
376.582	4.27
376.793	24.75
377.003	86.19
377.214	45.23
377.424	16.55
377.635	98.47
377.845	30.89
378.055	49.32
378.266	12.46
378.476	92.33
378.686	39.08
378.897	12.46
379.107	41.13
379.317	108.71
379.528	71.85
379.738	114.86
379.948	37.03
380.158	16.55
380.369	129.19
380.579	32.94
380.789	41.13
380.999	88.23
381.21	75.95
381.42	90.28
381.63	37.03
381.84	63.66
382.05	32.94
382.261	22.7
382.471	114.86
382.681	51.37
382.891	69.8
383.101	30.89
383.311	75.95
383.521	49.32
383.731	-26.45
383.941	75.95
384.151	65.71
384.361	39.08
384.571	30.89
384.781	47.27
384.991	61.61
385.201	100.52
385.411	18.6
385.621	53.42
385.831	69.8
386.041	47.27
386.251	73.9
386.461	118.95
386.671	69.8
386.881	63.66
387.091	57.51
387.301	84.14
387.511	32.94
387.72	49.32
387.93	34.99
388.14	18.6
388.35	39.08
388.56	84.14
388.769	-10.07
388.979	102.57
389.189	98.47
389.399	59.56
389.609	53.42
389.818	98.47
390.028	110.76
390.238	28.84
390.447	37.03
390.657	96.43
390.867	-14.17
391.076	118.95
391.286	45.23
391.496	108.71
391.705	0.17
391.915	133.29
392.125	94.38
392.334	51.37
392.544	73.9
392.753	98.47
392.963	129.19
393.172	37.03
393.382	57.51
393.591	100.52
393.801	155.82
394.01	55.47
394.22	49.32
394.429	116.9
394.639	49.32
394.848	63.66
395.058	16.55
395.267	143.53
395.477	39.08
395.686	108.71
395.895	108.71
396.105	92.33
396.314	53.42
396.524	135.34
396.733	118.95
396.942	137.38
397.152	102.57
397.361	145.58
397.57	139.43
397.78	96.43
397.989	47.27
398.198	32.94
398.407	174.25
398.617	149.67
398.826	112.81
399.035	143.53
399.244	28.84
399.453	20.65
399.663	51.37
399.872	77.99
400.081	135.34
400.29	59.56
400.499	73.9
400.708	147.62
400.917	55.47
401.127	127.14
401.336	100.52
401.545	133.29
401.754	41.13
401.963	166.06
402.172	141.48
402.381	118.95
402.59	149.67
402.799	125.1
403.008	164.01
403.217	125.1
403.426	100.52
403.635	159.91
403.844	157.86
404.053	176.3
404.262	96.43
404.471	164.01
404.68	39.08
404.888	121
405.097	164.01
405.306	223.4
405.515	147.62
405.724	170.15
405.933	123.05
406.142	118.95
406.35	174.25
406.559	153.77
406.768	63.66
406.977	182.44
407.185	188.58
407.394	274.6
407.603	221.35
407.812	239.78
408.02	211.11
408.229	202.92
408.438	135.34
408.646	237.74
408.855	272.55
409.064	215.21
409.272	204.97
409.481	252.07
409.69	227.5
409.898	256.17
410.107	223.4
410.315	256.17
410.524	264.36
410.733	272.55
410.941	258.21
411.15	311.46
411.358	350.37
411.567	336.04
411.775	321.7
411.984	379.04
412.192	340.13
412.401	297.13
412.609	350.37
412.818	348.33
413.026	452.77
413.234	448.68
413.443	460.96
413.651	420
413.86	438.44
414.068	508.07
414.276	432.29
414.485	526.5
414.693	501.92
414.901	524.45
415.11	553.12
415.318	512.16
415.526	647.33
415.734	577.7
415.943	647.33
416.151	680.1
416.359	606.37
416.567	698.53
416.776	755.87
416.984	805.02
417.192	856.22
417.4	766.11
417.608	745.63
417.817	764.06
418.025	823.45
418.233	860.32
418.441	932
418.649	921.76
418.857	1069.21
419.065	999.58
419.273	1071.26
419.481	1091.74
419.689	1214.62
419.897	1214.62
420.105	1231
420.313	1112.22
420.521	1351.83
420.729	1345.69
420.937	1394.84
421.145	1470.61
421.353	1554.58
421.561	1487
421.769	1560.72
421.977	1634.45
422.185	1613.97
422.393	1802.38
422.601	1841.29
422.809	1853.58
423.017	1894.54
423.224	1851.53
423.432	1941.65
423.64	2060.43
423.848	2152.59
424.056	2031.76
424.263	2265.22
424.471	2138.25
424.679	2326.66
424.887	2412.68
425.094	2558.08
425.302	2502.79
425.51	2615.43
425.718	2592.9
425.925	2850.94
426.133	2859.14
426.341	2924.67
426.548	3068.03
426.756	3111.04
426.964	3154.04
427.171	3317.88
427.379	3291.26
427.586	3451
427.794	3549.3
428.001	3784.82
428.209	3827.82
428.417	3698.8
428.624	4149.36
428.832	3997.81
429.039	4092.01
429.247	4182.12
429.454	4411.5
429.662	4714.59
429.869	4595.81
430.076	4864.1
430.284	4704.35
430.491	4831.33
430.699	5017.69
430.906	5095.52
431.114	5103.71
431.321	5419.1
431.528	5605.46
431.736	5931.09
431.943	6060.11
432.15	5892.18
432.358	5851.22
432.565	6309.96
432.772	6174.8
432.979	6611.01
433.187	6625.35
433.394	6719.56
433.601	7217.21
433.808	7241.79
434.016	7086.14
434.223	7292.99
434.43	7782.45
434.637	7606.33
434.844	8173.61
435.052	8237.1
435.259	8540.2
435.466	8402.99
435.673	8296.49
435.88	8869.92
436.087	9324.57
436.294	9318.43
436.501	9351.2
436.708	9062.43
436.915	9574.42
437.122	10172.43
437.329	9791.51
437.537	10278.93
437.743	10405.9
437.95	10410
438.157	11008
438.364	11266.05
438.571	11200.51
438.778	11423.74
438.985	12457.96
439.192	12158.96
439.399	12380.14
439.606	12021.75
439.813	13047.78
440.02	13275.1
440.227	13170.66
440.433	13240.29
440.64	13606.88
440.847	13496.28
441.054	13756.38
441.261	14469.07
441.467	14393.3
441.674	14835.66
441.881	15321.02
442.088	15353.79
442.294	15126.47
442.501	15542.21
442.708	15810.49
442.914	16332.72
443.121	16967.59
443.328	16555.95
443.534	17919.9
443.741	17426.34
443.948	17072.04
444.154	18476.94
444.361	18313.11
444.568	18386.83
444.774	18405.27
444.981	18614.16
445.187	18984.84
445.394	19758.97
445.6	19689.34
445.807	21667.68
446.013	20676.46
446.22	21012.33
446.426	22017.88
446.633	21829.47
446.839	22638.42
447.046	21843.81
447.252	22800.21
447.459	23217.99
447.665	22789.97
447.871	23850.81
448.078	24960.81
448.284	23893.82
448.491	24577.84
448.697	25427.75
448.903	25827.1
449.11	25716.51
449.316	25554.72
449.522	25995.04
449.728	26418.97
449.935	26758.93
450.141	26564.37
450.347	27252.49
450.553	26464.02
450.76	26976.02
450.966	27860.74
451.172	27311.88
451.378	28182.27
451.584	27318.03
451.791	27936.51
451.997	28106.49
452.203	28528.38
452.409	28559.09
452.615	28194.56
452.821	27492.1
453.027	26990.35
453.233	28303.1
453.44	27348.75
453.646	27600.65
453.852	27762.44
454.058	28129.02
454.264	27199.24
454.47	27887.36
454.676	27125.52
454.882	28065.53
455.088	25595.68
455.294	25927.46
455.5	26152.73
455.705	26726.16
455.911	25356.07
456.117	24825.65
456.323	25104.17
456.529	23471.94
456.735	24526.64
456.941	23910.21
457.147	23471.94
457.352	22724.43
457.558	22726.48
457.764	22615.89
457.97	21913.44
458.176	21587.81
458.381	21649.25
458.587	20610.93
458.793	20612.98
458.999	19462.02
459.204	20815.73
459.41	19969.91
459.616	18964.36
459.821	19054.47
460.027	19007.37
460.233	18427.79
460.438	17635.23
460.644	17915.8
460.85	17037.22
461.055	16748.46
461.261	16832.43
461.466	15691.71
461.672	15103.94
461.878	16054.2
462.083	15130.56
462.289	14968.77
462.494	14663.63
462.7	14106.58
462.905	13445.09
463.111	14122.96
463.316	14116.82
463.522	13854.68
463.727	13920.21
463.932	13834.2
464.138	13479.9
464.343	13762.52
464.549	13230.05
464.754	13920.21
464.959	13932.5
465.165	13402.08
465.37	12902.37
465.575	12853.22
465.781	13082.6
465.986	13377.5
466.191	12883.94
466.397	12658.67
466.602	12167.15
466.807	12593.13
467.012	12623.85
467.218	12349.42
467.423	12296.18
467.628	12267.5
467.833	13049.83
468.038	12302.32
468.244	11935.73
468.449	12484.59
468.654	12122.1
468.859	11919.35
469.064	11902.97
469.269	11378.69
469.474	11536.38
469.679	11728.89
469.885	11321.34
470.09	11583.48
470.295	11479.04
470.5	11108.35
470.705	11257.85
470.91	10936.32
471.115	10858.5
471.32	10993.67
471.525	11151.36
471.73	10670.09
471.935	10455.05
472.139	10276.88
472.344	10485.77
472.549	10403.85
472.754	10248.21
472.959	10092.56
473.164	9752.6
473.369	9941.01
473.574	10070.03
473.778	9965.59
473.983	9865.24
474.188	9797.65
474.393	9340.96
474.598	9535.51
474.802	9502.75
475.007	9343
475.212	9396.25
475.417	9072.67
475.621	9046.05
475.826	9052.19
476.031	8831.01
476.235	8738.85
476.44	9089.06
476.645	8529.96
476.849	8781.86
477.054	8314.92
477.259	8431.66
477.463	8458.28
477.668	8106.03
477.872	8327.21
478.077	8106.03
478.282	8122.41
478.486	7823.41
478.691	7876.66
478.895	7893.04
479.1	7782.45
479.304	7796.79
479.509	7542.84
479.713	7727.16
479.918	7610.42
480.122	7333.95
480.326	7604.28
480.531	7645.24
480.735	7426.11
480.94	7342.14
481.144	7430.2
481.348	7209.02
481.553	7327.8
481.757	7061.57
481.961	7329.85
482.166	7604.28
482.37	7325.75
482.574	7198.78
482.778	7403.58
482.983	7389.24
483.187	7239.74
483.391	7335.99
483.595	7268.41
483.8	7022.66
484.004	7174.21
484.208	7272.51
484.412	7192.64
484.616	7168.06
484.821	7372.86
485.025	7229.5
485.229	7229.5
485.433	7102.53
485.637	7278.65
485.841	7217.21
486.045	7088.19
486.249	7340.09
486.453	7211.07
486.657	7225.4
486.861	7198.78
487.065	7096.38
487.269	7194.68
487.473	7151.68
487.677	7147.58
487.881	7262.27
488.085	7258.17
488.289	7325.75
488.493	7221.31
488.697	7323.71
488.901	7190.59
489.105	7317.56
489.309	7127.1
489.512	7305.28
489.716	7436.35
489.92	7401.53
490.124	7413.82
490.328	7452.73
490.531	7344.19
490.735	7270.46
490.939	7528.5
491.143	7415.87
491.346	7413.82
491.55	7602.23
491.754	7622.71
491.958	7596.09
492.161	7456.82
492.365	7737.4
492.569	7706.68
492.772	7548.98
492.976	7673.91
493.18	7804.98
493.383	7815.22
493.587	7749.68
493.79	7999.54
493.994	7774.26
494.197	8005.68
494.401	8101.94
494.605	8161.33
494.808	8132.65
495.012	8202.29
495.215	8159.28
495.419	8413.23
495.622	8427.56
495.825	8527.91
496.029	8421.42
496.232	8691.75
496.436	8435.75
496.639	8796.2
496.843	8581.16
497.046	8888.36
497.249	8941.6
497.453	9134.11
497.656	9246.75
497.859	9340.96
498.063	9308.19
498.266	9603.1
498.469	9478.17
498.673	9545.75
498.876	9861.14
499.079	9721.88
499.282	9697.3
499.485	10270.73
499.689	10123.28
499.892	10379.28
500.095	10354.7
500.298	10770.44
500.501	10553.35
500.705	10860.55
500.908	10960.9
501.111	10934.28
501.314	11380.73
501.517	10932.23
501.72	11354.11
501.923	11206.66
502.126	11646.97
502.329	11925.49
502.532	11986.93
502.735	11847.67
502.938	12144.63
503.141	12175.34
503.344	12783.59
503.547	12445.68
503.75	12738.54
503.953	12914.66
504.156	12988.39
504.359	13119.46
504.562	13262.82
504.765	13588.44
504.968	13699.03
505.17	13895.64
505.373	13887.45
505.576	14092.24
505.779	14499.79
505.982	14403.53
506.185	14788.55
506.387	14815.18
506.59	15075.27
506.793	15167.43
506.996	15169.48
507.198	15753.15
507.401	15536.06
507.604	15689.66
507.807	15978.42
508.009	16203.7
508.212	16385.97
508.415	16433.07
508.617	16680.88
508.82	16697.26
509.022	16431.02
509.225	17317.79
509.428	17313.7
509.63	17479.58
509.833	17647.52
510.035	18104.21
510.238	17975.19
510.44	18374.55
510.643	18796.43
510.845	18972.55
511.048	18792.33
511.25	19371.91
511.453	19234.69
511.655	20021.11
511.858	20051.83
512.06	19679.1
512.262	20164.47
512.465	20184.95
512.667	20258.68
512.87	20727.66
513.072	20914.03
513.274	21475.17
513.477	21442.4
513.679	21677.92
513.881	22200.15
514.084	22419.28
514.286	22335.32
514.488	22470.48
514.69	23209.8
514.893	23404.36
515.095	23131.98
515.297	23605.06
515.499	23707.46
515.701	23977.79
515.904	24266.55
516.106	24377.14
516.308	24831.79
516.51	25216.81
516.712	25143.08
516.914	25612.07
517.116	25640.74
517.318	26089.24
517.52	26203.93
517.722	26068.76
517.925	26953.49
518.127	27045.65
518.329	27084.56
518.531	27186.96
518.733	27918.08
518.935	27772.67
519.136	28178.17
519.338	28731.12
519.54	28567.29
519.742	28841.71
519.944	29167.34
520.146	29927.14
520.348	29632.23
520.55	30015.2
520.752	30166.75
520.954	30379.74
521.155	30506.71
521.357	31080.14
521.559	31299.28
521.761	31792.84
521.963	31844.04
522.164	31762.12
522.366	31809.22
522.568	32495.29
522.77	32714.42
522.971	33193.65
523.173	32974.52
523.375	33627.82
523.576	33607.34
523.778	33650.35
523.98	33691.3
524.181	34348.7
524.383	34270.88
524.584	34606.75
524.786	34627.23
524.988	34442.91
525.189	35104.4
525.391	34952.85
525.592	35612.3
525.794	35557
525.995	35741.32
526.197	35557
526.398	35706.51
526.6	36294.27
526.801	36232.83
527.003	36562.56
527.204	36675.2
527.406	36806.27
527.607	36818.55
527.808	37330.55
528.01	36789.88
528.211	36941.43
528.412	37690.99
528.614	37740.14
528.815	37690.99
529.016	37908.07
529.218	37516.91
529.419	38078.05
529.62	38272.61
529.822	37701.23
530.023	38350.43
530.224	38215.27
530.425	37887.59
530.626	37973.61
530.828	38055.53
531.029	38942.3
531.23	38340.19
531.431	38301.28
531.632	38483.55
531.833	38598.24
532.035	38481.5
532.236	38917.72
532.437	39231.06
532.638	38852.19
532.839	39390.8
533.04	39136.85
533.241	38866.52
533.442	39366.23
533.643	39390.8
533.844	39235.16
534.045	39059.03
534.246	39071.32
534.447	39280.21
534.648	39087.7
534.849	39386.71
535.05	39333.46
535.251	39429.71
535.451	39386.71
535.652	39501.39
535.853	39460.43
536.054	40054.34
536.255	39417.43
536.456	39269.97
536.657	40144.45
536.857	39229.01
537.058	39245.4
537.259	40185.41
537.46	39288.4
537.66	39511.63
537.861	39538.26
538.062	39431.76
538.263	39904.84
538.463	39190.1
538.664	39749.2
538.865	39624.27
539.065	39693.9
539.266	39040.6
539.466	40062.54
539.667	39177.81
539.868	40027.72
540.068	39775.82
540.269	39507.54
540.469	39945.8
540.67	39380.56
540.87	39831.11
541.071	39525.97
541.271	39702.09
541.472	39534.16
541.672	39229.01
541.873	39605.84
542.073	39317.07
542.274	39669.33
542.474	39673.42
542.675	39347.79
542.875	39761.48
543.075	39444.05
543.276	39405.14
543.476	39867.98
543.676	39634.51
543.877	39622.22
544.077	39632.46
544.277	39460.43
544.478	39392.85
544.678	39614.03
544.878	39292.5
545.078	39736.91
545.279	39302.74
545.479	39571.02
545.679	39198.29
545.879	39538.26
546.079	39462.48
546.28	39824.97
546.48	39624.27
546.68	39444.05
546.88	39816.78
547.08	39220.82
547.28	39681.61
547.48	39165.53
547.68	39497.3
547.88	39323.22
548.081	39640.65
548.281	39353.94
548.481	39378.51
548.681	39730.76
548.881	39579.21
549.081	39347.79
549.28	39417.43
549.48	39509.58
549.68	39257.68
549.88	40212.04
550.08	39296.6
550.28	39497.3
550.48	39458.38
550.68	39581.26
550.88	39028.31
551.08	39456.34
551.279	39398.99
551.479	39222.87
551.679	39179.86
551.879	39501.39
552.079	39781.96
552.278	38952.54
552.478	39341.65
552.678	39521.87
552.878	39403.09
553.077	39398.99
553.277	39452.24
553.477	39884.36
553.676	39239.25
553.876	39235.16
554.076	39069.27
554.275	39046.74
554.475	38479.46
554.674	38934.1
554.874	39190.1
555.074	38956.63
555.273	39081.56
555.473	39020.12
555.672	38598.24
555.872	38870.62
556.071	38819.42
556.271	38848.09
556.47	38631.01
556.67	38344.29
556.869	38784.6
557.068	38778.46
557.268	38200.93
557.467	38317.67
557.667	38426.21
557.866	38624.86
558.065	38405.73
558.265	38327.91
558.464	38432.35
558.663	38739.55
558.863	38014.57
559.062	38487.65
559.261	38016.61
559.461	38168.16
559.66	37711.47
559.859	37975.66
560.058	37893.74
560.258	37930.6
560.457	37674.6
560.656	37723.76
560.855	37723.76
561.054	37523.05
561.253	37469.81
561.453	37854.83
561.652	37787.24
561.851	37629.55
562.05	37414.51
562.249	37512.81
562.448	37867.11
562.647	37426.8
562.846	37594.73
563.045	37131.89
563.244	36972.15
563.443	37543.53
563.642	36910.71
563.841	37314.16
564.04	36757.11
564.239	37121.65
564.438	36931.19
564.637	37009.01
564.836	36732.54
565.035	36187.78
565.234	36992.63
565.432	36503.17
565.631	36365.95
565.83	36591.23
566.029	36306.56
566.228	35847.82
566.427	36341.38
566.625	35935.88
566.824	36013.7
567.023	36413.06
567.222	35561.1
567.42	36069
567.619	35776.14
567.818	35774.09
568.016	35468.94
568.215	35769.99
568.414	35518.09
568.612	35690.12
568.811	35688.07
569.01	35350.16
569.208	35057.3
569.407	35462.8
569.605	34762.39
569.804	35231.38
570.002	34887.32
570.201	35016.34
570.4	34520.73
570.598	34322.08
570.797	34844.31
570.995	34244.26
571.193	34135.71
571.392	34293.41
571.59	34109.09
571.789	34342.56
571.987	33853.09
572.186	34262.69
572.384	33414.83
572.582	33920.68
572.781	33984.16
572.979	33527.47
573.177	33552.04
573.376	34008.74
573.574	33431.21
573.772	33580.71
573.971	33195.7
574.169	33318.57
574.367	33027.76
574.565	33248.94
574.763	33001.14
574.962	32691.9
575.16	32841.4
575.358	32485.05
575.556	32106.18
575.754	32601.79
575.952	32116.42
576.151	32601.79
576.349	32251.58
576.547	32155.33
576.745	32394.94
576.943	32046.79
577.141	32061.12
577.339	32046.79
577.537	32153.28
577.735	31819.46
577.933	31260.37
578.131	31606.47
578.329	31106.77
578.527	31098.58
578.725	31264.46
578.923	31477.45
579.121	31043.28
579.319	30940.88
579.516	30881.49
579.714	31045.33
579.912	30666.45
580.11	30637.78
580.308	30734.04
580.506	30424.79
580.704	30222.05
580.901	30445.27
581.099	30424.79
581.297	30189.28
581.495	30072.54
581.692	30191.33
581.89	29740.77
582.088	30316.25
582.285	29998.82
582.483	29830.88
582.681	29621.99
582.878	29802.21
583.076	29187.82
583.274	29644.52
583.471	29107.95
583.669	29112.05
583.866	29179.63
584.064	29073.14
584.262	28704.5
584.459	28948.21
584.657	28890.87
584.854	28598.01
585.052	28192.51
585.249	28641.01
585.447	28382.97
585.644	28208.89
585.841	28352.25
586.039	28337.91
586.236	27930.37
586.434	27971.33
586.631	27922.18
586.828	27821.83
587.026	27946.75
587.223	27776.77
587.42	27797.25
587.618	27909.89
587.815	27389.7
588.012	27510.53
588.21	27440.9
588.407	27565.83
588.604	27371.27
588.801	26883.86
588.999	26765.07
589.196	26896.14
589.393	26910.48
589.59	26816.27
589.787	26953.49
589.984	26656.53
590.182	26255.13
590.379	26562.33
590.576	26525.46
590.773	26361.62
590.97	26304.28
591.167	26224.41
591.364	26398.49
591.561	26259.23
591.758	25986.85
591.955	26033.95
592.152	26144.54
592.349	25804.58
592.546	25863.97
592.743	25925.41
592.94	25198.38
593.137	25452.33
593.334	25681.7
593.531	25022.25
593.727	25554.72
593.924	25409.32
594.121	24977.2
594.318	25497.38
594.515	24882.99
594.712	24971.05
594.908	24932.14
595.105	24844.08
595.302	24565.56
595.499	24434.49
595.696	24403.77
595.892	24188.73
596.089	24717.11
596.286	24594.23
596.482	24606.52
596.679	24313.66
596.876	24233.78
597.072	24028.99
597.269	24158.01
597.466	23850.81
597.662	23633.73
597.859	24057.66
598.055	23875.39
598.252	23717.7
598.448	23486.28
598.645	23783.23
598.841	23279.43
599.038	23258.95
599.234	23385.93
599.431	23009.1
599.627	23365.45
599.824	23134.03
600.02	22794.06
600.217	23256.9
600.413	22708.05
600.609	22734.67
600.806	22576.98
601.002	22710.1
601.198	22740.82
601.395	22658.9
601.591	22488.92
601.787	22310.74
601.984	22388.57
602.18	22538.07
602.376	22560.59
602.572	21829.47
602.769	22298.45
602.965	22015.83
603.161	21811.04
603.357	21917.53
603.553	21669.73
603.75	21630.82
603.946	21462.88
604.142	21639.01
604.338	21395.3
604.534	21747.55
604.73	21456.74
604.926	21108.58
605.122	21350.24
605.318	21120.87
605.514	21180.26
605.71	21024.62
605.906	20936.56
606.102	20905.84
606.298	21004.14
606.494	20991.85
606.69	20911.98
606.886	20631.41
607.082	20504.43
607.278	20834.16
607.474	20311.92
607.67	20463.47
607.866	20191.09
608.062	20502.39
608.257	20569.97
608.453	20547.44
608.649	20410.23
608.845	20070.26
609.041	19857.28
609.236	20098.94
609.432	19955.58
609.628	20096.89
609.824	19924.86
610.019	19488.64
610.215	19818.36
610.411	19787.64
610.606	19361.67
610.802	19466.11
610.998	19722.11
611.193	19523.46
611.389	19556.22
611.584	19296.13
611.78	19027.85
611.976	19150.73
612.171	19150.73
612.367	19320.71
612.562	19279.75
612.758	18800.52
612.953	18759.56
613.149	19099.53
613.344	18884.49
613.539	18990.98
613.735	18769.8
613.93	18937.74
614.126	18655.12
614.321	19052.42
614.517	18751.37
614.712	18565.01
614.907	18552.72
615.103	18513.81
615.298	18700.17
615.493	18540.43
615.688	18309.01
615.884	18569.1
616.079	18227.09
616.274	18374.55
616.47	18218.9
616.665	18282.39
616.86	18026.39
617.055	17967
617.25	17903.51
617.445	18018.2
617.641	17629.09
617.836	17790.88
618.031	17530.78
618.226	17825.69
618.421	17604.51
618.616	17663.9
618.811	17219.49
619.006	17504.16
619.201	17106.85
619.396	17477.54
619.591	16998.31
619.786	17121.19
619.981	16836.52
620.176	17371.04
620.371	17014.7
620.566	16793.51
620.761	16889.77
620.956	16959.4
621.151	16623.53
621.346	16584.62
621.541	16320.43
621.735	16234.42
621.93	16082.87
622.125	16302
622.32	16037.81
622.515	16279.47
622.709	15974.33
622.904	16052.15
623.099	15939.51
623.294	15882.17
623.488	15665.08
623.683	15507.39
623.878	15396.8
624.072	15507.39
624.267	15351.74
624.462	15237.06
624.656	15151.04
624.851	15261.63
625.046	14933.96
625.24	15044.55
625.435	14878.66
625.629	14860.23
625.824	14426.06
626.018	14888.9
626.213	14405.58
626.407	14606.28
626.602	14235.6
626.796	14729.16
626.991	14366.67
627.185	14065.62
627.38	14438.35
627.574	14069.72
627.768	13912.02
627.963	13955.03
628.157	13678.55
628.352	13817.82
628.546	13576.16
628.74	13737.95
628.935	13416.41
629.129	13420.51
629.323	13340.64
629.517	13307.87
629.712	13273.06
629.906	13205.47
630.1	12918.76
630.294	12965.86
630.489	13002.72
630.683	13088.74
630.877	12707.82
631.071	12621.8
631.265	13021.16
631.459	12427.25
631.653	12572.65
631.848	12531.69
632.042	12599.27
632.236	12412.91
632.43	12339.18
632.624	12457.96
632.818	12261.36
633.012	12302.32
633.206	12009.46
633.4	12271.6
633.594	12087.28
633.788	12087.28
633.982	11722.74
634.176	11859.96
634.369	11519.99
634.563	11724.79
634.757	11610.11
634.951	11554.81
635.145	11452.41
635.339	11534.33
635.533	11517.95
635.726	11413.5
635.92	11161.6
636.114	11280.38
636.308	11126.78
636.501	10962.95
636.695	11051.01
636.889	10917.89
637.083	10852.36
637.276	10852.36
637.47	10946.56
637.664	10536.97
637.857	10909.7
638.051	10649.61
638.244	10770.44
638.438	10690.57
638.632	10360.84
638.825	10229.77
639.019	10326.03
639.212	10225.68
639.406	10305.55
639.599	10139.66
639.793	10205.2
639.986	9920.53
640.18	10317.84
640.373	9945.11
640.567	9754.65
640.76	9758.74
640.954	9793.56
641.147	9748.5
641.34	9658.39
641.534	9586.71
641.727	9488.41
641.92	9510.94
642.114	9635.86
642.307	9326.62
642.5	9353.24
642.694	8994.85
642.887	9189.41
643.08	9422.87
643.273	9195.55
643.467	9060.38
643.66	9000.99
643.853	8976.42
644.046	8826.92
644.239	8871.97
644.432	8904.74
644.626	8818.72
644.819	8652.84
645.012	8587.3
645.205	8814.63
645.398	8597.54
645.591	8445.99
645.784	8378.41
645.977	8220.72
646.17	8458.28
646.363	8423.47
646.556	8288.3
646.749	8187.95
646.942	8282.16
647.135	8179.76
647.328	8087.6
647.521	8194.09
647.714	8106.03
647.907	7897.14
648.099	7800.88
648.292	7919.67
648.485	7725.11
648.678	7800.88
648.871	7735.35
649.064	7622.71
649.256	7610.42
649.449	7581.75
649.642	7671.86
649.835	7479.35
650.027	7381.05
650.22	7491.64
650.413	7483.45
650.605	7379
650.798	7299.13
650.991	7159.87
651.183	7102.53
651.376	7000.13
651.568	7192.64
651.761	7133.25
651.954	7094.33
652.146	7071.81
652.339	7123.01
652.531	6905.92
652.724	6985.79
652.916	6662.21
653.109	6832.19
653.301	6864.96
653.494	6756.42
653.686	6598.73
653.879	6484.04
654.071	6664.26
654.263	6617.16
654.456	6586.44
654.648	6574.15
654.84	6430.79
655.033	6432.84
655.225	6381.64
655.417	6432.84
655.61	6328.39
655.802	6395.98
655.994	6316.11
656.186	6389.83
656.379	6236.24
656.571	6273.1
656.763	6144.08
656.955	6176.84
657.148	6078.54
657.34	6119.5
657.532	5961.81
657.724	5902.42
657.916	5910.61
658.108	5910.61
658.3	5673.04
658.492	5791.83
658.684	5761.11
658.876	5648.47
659.068	5703.76
659.26	5634.13
659.452	5759.06
659.644	5511.25
659.836	5470.3
660.028	5447.77
660.22	5455.96
660.412	5382.23
660.604	5345.37
660.796	5464.15
660.988	5206.11
661.18	5351.51
661.372	5304.41
661.563	5179.48
661.755	5099.61
661.947	5122.14
662.139	5040.22
662.331	5169.24
662.522	5032.03
662.714	5005.41
662.906	4984.93
663.097	4915.3
663.289	4876.38
663.481	4993.12
663.673	5042.27
663.864	4819.04
664.056	4833.38
664.247	4825.19
664.439	4690.02
664.631	4808.8
664.822	4700.26
665.014	4714.59
665.205	4655.2
665.397	4661.35
665.588	4647.01
665.78	4653.16
665.971	4505.7
666.163	4378.73
666.354	4472.93
666.546	4331.62
666.737	4495.46
666.929	4448.36
667.12	4446.31
667.311	4413.54
667.503	4376.68
667.694	4280.43
667.885	4307.05
668.077	4243.56
668.268	4155.5
668.459	4214.89
668.651	4196.46
668.842	4087.92
669.033	4069.48
669.224	4184.17
669.416	4151.4
669.607	4251.75
669.798	4051.05
669.989	3956.85
670.18	3967.09
670.371	4141.16
670.563	3958.89
670.754	4030.57
670.945	3893.36
671.136	3997.81
671.327	3885.17
671.518	3850.35
671.709	3942.51
671.9	3840.11
672.091	3860.59
672.282	3690.61
672.473	3690.61
672.664	3889.26
672.855	3952.75
673.046	3704.95
673.237	3772.53
673.428	3684.47
673.619	3672.18
673.809	3690.61
674	3563.64
674.191	3580.02
674.382	3713.14
674.573	3590.26
674.764	3491.96
674.954	3616.88
675.145	3592.31
675.336	3526.77
675.527	3461.24
675.717	3469.43
675.908	3465.33
676.099	3487.86
676.289	3358.84
676.48	3446.9
676.671	3541.11
676.861	3407.99
677.052	3319.93
677.243	3391.61
677.433	3446.9
677.624	3321.98
677.814	3293.3
678.005	3401.85
678.195	3293.3
678.386	3268.73
678.576	3305.59
678.767	3285.11
678.957	3250.3
679.148	3172.47
679.338	3229.82
679.529	3246.2
679.719	3123.32
679.909	3164.28
680.1	3311.74
680.29	3162.23
680.481	3131.51
680.671	3063.93
680.861	3057.79
681.052	3182.71
681.242	3121.28
681.432	3055.74
681.622	3000.44
681.813	2996.35
682.003	3002.49
682.193	2971.77
682.383	2984.06
682.573	2959.49
682.764	2945.15
682.954	2988.16
683.144	3068.03
683.334	3080.32
683.524	3020.92
683.714	2988.16
683.904	2902.14
684.094	3002.49
684.284	2967.68
684.474	3014.78
684.664	2910.33
684.854	2896
685.044	2996.35
685.234	2797.7
685.424	2828.42
685.614	2910.33
685.804	2867.33
685.994	2760.83
686.184	2838.66
686.374	2814.08
686.564	2719.87
686.753	2816.13
686.943	2877.57
687.133	2826.37
687.323	2818.18
687.513	2748.54
687.702	2703.49
687.892	2748.54
688.082	2760.83
688.272	2719.87
688.461	2705.54
688.651	2740.35
688.841	2746.5
689.03	2791.55
689.22	2797.7
689.41	2695.3
689.599	2605.19
689.789	2746.5
689.979	2637.95
690.168	2637.95
690.358	2488.45
690.547	2713.73
690.737	2697.35
690.926	2629.76
691.116	2648.19
691.305	2764.93
691.495	2640
691.684	2695.3
691.874	2678.91
692.063	2629.76
692.252	2633.86
692.442	2672.77
692.631	2560.13
692.82	2564.23
693.01	2572.42
693.199	2586.76
693.388	2654.34
693.578	2566.28
693.767	2568.32
693.956	2547.84
694.146	2543.75
694.335	2705.54
694.524	2640
694.713	2474.12
694.902	2517.12
695.092	2691.2
695.281	2482.31
695.47	2570.37
695.659	2576.52
695.848	2615.43
696.037	2705.54
696.226	2564.23
696.415	2556.04
696.604	2592.9
696.793	2556.04
696.982	2420.87
697.171	2588.8
697.36	2508.93
697.549	2517.12
697.738	2574.47
697.927	2482.31
698.116	2613.38
698.305	2527.36
698.494	2484.36
698.683	2400.39
698.872	2381.96
699.061	2470.02
699.25	2396.29
699.438	2547.84
699.627	2508.93
699.816	2476.16
700.005	2470.02
700.193	2621.57
700.382	2523.27
700.571	2433.16
700.76	2400.39
700.948	2498.69
701.137	2484.36
701.326	2449.54
701.514	2498.69
701.703	2537.6
701.892	2410.63
702.08	2459.78
702.269	2539.65
702.457	2467.97
702.646	2394.25
702.834	2392.2
703.023	2470.02
703.212	2377.86
703.4	2427.01
703.589	2355.33
703.777	2435.21
703.965	2470.02
704.154	2418.82
704.342	2457.73
704.531	2343.05
704.719	2384.01
704.907	2506.88
705.096	2388.1
705.284	2183.31
705.472	2310.28
705.661	2316.42
705.849	2351.24
706.037	2400.39
706.226	2334.86
706.414	2369.67
706.602	2361.48
706.79	2316.42
706.979	2330.76
707.167	2121.87
707.355	2336.9
707.543	2312.33
707.731	2216.07
707.919	2271.37
708.107	2152.59
708.296	2263.18
708.484	2234.5
708.672	2220.17
708.86	2230.41
709.048	2179.21
709.236	2252.94
709.424	2158.73
709.612	2199.69
709.8	2179.21
709.988	2181.26
710.176	2205.83
710.364	2164.87
710.551	2222.22
710.739	2078.86
710.927	2244.74
711.115	2236.55
711.303	2160.78
711.491	2117.77
711.679	2031.76
711.866	2091.15
712.054	2142.35
712.242	2171.02
712.43	2025.61
712.617	2037.9
712.805	2087.05
712.993	2011.28
713.181	2009.23
713.368	2044.04
713.556	2023.56
713.744	2001.04
713.931	2171.02
714.119	2099.34
714.306	2089.1
714.494	2066.57
714.682	2064.52
714.869	1874.06
715.057	1986.7
715.244	1884.3
715.432	1982.6
715.619	2037.9
715.807	1992.84
715.994	1937.55
716.182	1896.59
716.369	1912.97
716.556	1853.58
716.744	1978.51
716.931	1898.64
717.119	1996.94
717.306	1884.3
717.493	1892.49
717.681	1892.49
717.868	1896.59
718.055	1939.6
718.242	1835.15
718.43	1886.35
718.617	1818.77
718.804	1867.92
718.991	1861.77
719.179	1794.19
719.366	1814.67
719.553	1829.01
719.74	1837.2
719.927	1777.81
720.114	1826.96
720.301	1779.86
720.488	1714.32
720.676	1730.7
720.863	1779.86
721.05	1818.77
721.237	1654.93
721.424	1675.41
721.611	1691.79
721.798	1697.94
721.985	1622.16
722.172	1636.5
722.358	1693.84
722.545	1630.35
722.732	1624.21
722.919	1659.03
723.106	1564.82
723.293	1534.1
723.48	1654.93
723.667	1581.2
723.853	1616.02
724.04	1691.79
724.227	1605.78
724.414	1583.25
724.6	1562.77
724.787	1593.49
724.974	1595.54
725.161	1499.28
725.347	1550.48
725.534	1527.96
725.72	1560.72
725.907	1564.82
726.094	1501.33
726.28	1437.84
726.467	1489.04
726.653	1466.52
726.84	1466.52
727.027	1552.53
727.213	1425.56
727.4	1624.21
727.586	1405.08
727.773	1482.9
727.959	1427.6
728.145	1409.17
728.332	1429.65
728.518	1405.08
728.705	1548.44
728.891	1452.18
729.077	1462.42
729.264	1437.84
729.45	1372.31
729.636	1433.75
729.823	1446.04
730.009	1364.12
730.195	1433.75
730.382	1329.3
730.568	1368.21
730.754	1398.93
730.94	1269.91
731.126	1372.31
731.313	1407.13
731.499	1390.74
731.685	1368.21
731.871	1357.97
732.057	1286.3
732.243	1329.3
732.429	1308.82
732.615	1472.66
732.801	1196.18
732.987	1343.64
733.173	1245.34
733.359	1308.82
733.545	1312.92
733.731	1255.58
733.917	1255.58
734.103	1192.09
734.289	1312.92
734.475	1235.1
734.661	1362.07
734.847	1288.34
735.033	1245.34
735.219	1171.61
735.404	1237.14
735.59	1355.93
735.776	1237.14
735.962	1237.14
736.148	1231
736.333	1212.57
736.519	1306.77
736.705	1233.05
736.89	1159.32
737.076	1204.38
737.262	1171.61
737.447	1169.56
737.633	1056.92
737.819	1194.14
738.004	1245.34
738.19	1140.89
738.375	1243.29
738.561	1140.89
738.747	1192.09
738.932	1073.31
739.118	1190.04
739.303	1095.83
739.489	1122.46
739.674	1097.88
739.859	1179.8
740.045	1075.35
740.23	1187.99
740.416	1091.74
740.601	1101.98
740.786	1081.5
740.972	1075.35
741.157	1028.25
741.342	1052.83
741.528	1169.56
741.713	1056.92
741.898	1058.97
742.084	1011.87
742.269	983.2
742.454	1110.17
742.639	1065.11
742.824	1020.06
743.01	1011.87
743.195	1056.92
743.38	1091.74
743.565	1050.78
743.75	1020.06
743.935	1026.2
744.12	1101.98
744.305	979.1
744.49	915.61
744.675	1020.06
744.86	950.43
745.045	993.44
745.23	966.81
745.415	981.15
745.6	1028.25
745.785	921.76
745.97	917.66
746.155	878.75
746.34	921.76
746.525	952.48
746.71	946.33
746.895	913.56
747.079	934.04
747.264	864.41
747.449	995.48
747.634	934.04
747.819	934.04
748.003	852.13
748.188	876.7
748.373	962.72
748.557	909.47
748.742	956.57
748.927	888.99
749.111	858.27
749.296	893.09
749.481	809.12
749.665	809.12
749.85	854.17
750.034	850.08
750.219	899.23
750.404	817.31
750.588	897.18
750.773	880.8
750.957	809.12
751.141	733.34
751.326	798.88
751.51	792.73
751.695	802.97
751.879	843.93
752.064	841.89
752.248	815.26
752.432	798.88
752.617	762.02
752.801	772.25
752.985	725.15
753.17	796.83
753.354	780.45
753.538	802.97
753.722	719.01
753.907	719.01
754.091	698.53
754.275	729.25
754.459	721.06
754.643	766.11
754.828	696.48
755.012	768.16
755.196	784.54
755.38	702.62
755.564	686.24
755.748	669.86
755.932	770.21
756.116	708.77
756.3	753.82
756.484	643.23
756.668	618.66
756.852	690.34
757.036	632.99
757.22	651.42
757.404	624.8
757.588	678.05
757.772	624.8
757.956	659.62
758.14	676
758.323	657.57
758.507	598.18
758.691	620.71
758.875	592.03
759.059	716.96
759.242	620.71
759.426	592.03
759.61	532.64
759.794	604.32
759.977	600.23
760.161	600.23
760.345	592.03
760.528	647.33
760.712	573.6
760.895	632.99
761.079	626.85
761.263	702.62
761.446	600.23
761.63	610.47
761.813	628.9
761.997	528.55
762.18	589.99
762.364	598.18
762.547	555.17
762.731	598.18
762.914	499.88
763.098	510.11
763.281	563.36
763.464	473.25
763.648	575.65
763.831	594.08
764.015	549.03
764.198	506.02
764.381	477.35
764.564	499.88
764.748	542.88
764.931	532.64
765.114	475.3
765.297	536.74
765.481	506.02
765.664	506.02
765.847	561.31
766.03	508.07
766.213	426.15
766.397	565.41
766.58	530.59
766.763	526.5
766.946	460.96
767.129	450.72
767.312	544.93
767.495	565.41
767.678	454.82
767.861	489.64
768.044	546.98
768.227	544.93
768.41	471.2
768.593	487.59
768.776	553.12
768.959	475.3
769.142	420
769.324	503.97
769.507	534.69
769.69	532.64
769.873	454.82
770.056	567.46
770.239	528.55
770.421	491.68
770.604	422.05
770.787	563.36
770.97	469.16
771.152	422.05
771.335	391.33
771.518	463.01
771.7	471.2
771.883	497.83
772.066	528.55
772.248	518.31
772.431	477.35
772.613	475.3
772.796	456.87
772.978	417.96
773.161	452.77
773.343	471.2
773.526	469.16
773.708	413.86
773.891	434.34
774.073	426.15
774.256	497.83
774.438	477.35
774.621	415.91
774.803	508.07
774.985	426.15
775.168	436.39
775.35	434.34
775.532	557.22
775.715	467.11
775.897	323.75
776.079	524.45
776.261	436.39
776.444	428.2
776.626	387.24
776.808	381.09
776.99	397.48
777.173	344.23
777.355	374.95
777.537	397.48
777.719	374.95
777.901	385.19
778.083	372.9
778.265	387.24
778.447	393.38
778.629	342.18
778.811	329.89
778.993	379.04
779.175	399.52
779.357	276.65
779.539	368.81
779.721	282.79
779.903	338.09
780.085	329.89
780.267	331.94
780.449	295.08
780.631	336.04
780.812	377
780.994	276.65
781.176	295.08
781.358	354.47
781.54	333.99
781.721	336.04
781.903	325.8
782.085	348.33
782.267	374.95
782.448	243.88
782.63	309.41
782.812	323.75
782.993	311.46
783.175	252.07
783.357	286.89
783.538	327.85
783.72	364.71
783.901	305.32
784.083	301.22
784.264	381.09
784.446	333.99
784.627	288.93
784.809	327.85
784.99	338.09
785.172	342.18
785.353	315.56
785.535	315.56
785.716	217.26
785.897	172.2
786.079	295.08
786.26	272.55
786.441	299.17
786.623	215.21
786.804	215.21
786.985	266.41
787.167	219.3
787.348	270.5
787.529	274.6
787.71	215.21
787.891	331.94
788.073	221.35
788.254	290.98
788.435	237.74
788.616	231.59
788.797	262.31
788.978	247.97
789.159	284.84
789.34	258.21
789.522	231.59
789.703	207.02
789.884	256.17
790.065	284.84
790.246	235.69
790.427	233.64
790.607	254.12
790.788	172.2
790.969	190.63
791.15	164.01
791.331	196.78
791.512	243.88
791.693	239.78
791.874	219.3
792.054	221.35
792.235	235.69
792.416	170.15
792.597	196.78
792.778	293.03
792.958	241.83
793.139	239.78
793.32	198.82
793.5	227.5
793.681	198.82
793.862	143.53
794.042	176.3
794.223	172.2
794.404	211.11
794.584	225.45
794.765	118.95
794.945	256.17
795.126	247.97
795.306	219.3
795.487	180.39
795.667	151.72
795.848	149.67
796.028	200.87
796.209	174.25
796.389	176.3
796.57	133.29
796.75	221.35
796.93	213.16
797.111	188.58
797.291	164.01
797.471	237.74
797.652	153.77
797.832	192.68
798.012	131.24
798.192	166.06
798.373	174.25
798.553	245.93
798.733	196.78
798.913	198.82
799.093	213.16
799.274	184.49
799.454	100.52
799.634	155.82
799.814	250.02
799.994	209.06
800.174	159.91
800.354	164.01
800.534	137.38
800.714	155.82
800.894	161.96
801.074	170.15
801.254	86.19
801.434	198.82
801.614	161.96
801.794	96.43
801.974	381.09
802.154	106.67
802.334	114.86
802.514	112.81
802.693	139.43
802.873	114.86
803.053	84.14
803.233	176.3
803.413	196.78
803.592	139.43
803.772	96.43
803.952	127.14
804.131	229.54
804.311	116.9
804.491	143.53
804.67	82.09
804.85	143.53
805.03	172.2
805.209	67.75
805.389	121
805.568	166.06
805.748	143.53
805.928	151.72
806.107	67.75
806.287	129.19
806.466	131.24
806.646	200.87
806.825	192.68
807.004	151.72
807.184	198.82
807.363	123.05
807.543	204.97
807.722	213.16
807.901	133.29
808.081	121
808.26	123.05
808.439	143.53
808.619	34.99
808.798	182.44
808.977	51.37
809.156	178.34
809.336	131.24
809.515	143.53
809.694	125.1
809.873	153.77
810.052	176.3
810.231	170.15
810.411	129.19
810.59	141.48
810.769	131.24
810.948	155.82
811.127	55.47
811.306	123.05
811.485	151.72
811.664	123.05
811.843	82.09
812.022	73.9
812.201	98.47
812.38	102.57
812.559	98.47
812.737	125.1
812.916	75.95
813.095	141.48
813.274	149.67
813.453	100.52
813.632	73.9
813.811	59.56
813.989	131.24
814.168	141.48
814.347	37.03
814.526	82.09
814.704	123.05
814.883	155.82
815.062	90.28
815.24	137.38
815.419	137.38
815.598	63.66
815.776	98.47
815.955	88.23
816.133	30.89
816.312	82.09
816.49	75.95
816.669	133.29
816.847	47.27
817.026	106.67
817.204	127.14
817.383	133.29
817.561	106.67
817.74	92.33
817.918	96.43
818.097	123.05
818.275	59.56
818.453	145.58
818.632	182.44
818.81	125.1
818.988	61.61
819.167	18.6
819.345	71.85
819.523	55.47
819.701	24.75
819.879	147.62
820.058	18.6
820.236	90.28
820.414	118.95
820.592	118.95
820.77	127.14
820.948	123.05
821.127	30.89
821.305	123.05
821.483	43.18
821.661	45.23
821.839	65.71
822.017	57.51
822.195	108.71
822.373	82.09
822.551	118.95
822.729	41.13
822.907	100.52
823.085	100.52
823.262	75.95
823.44	30.89
823.618	100.52
823.796	92.33
823.974	155.82
824.152	114.86
824.329	86.19
824.507	98.47
824.685	32.94
824.863	123.05
825.04	125.1
825.218	110.76
825.396	123.05
825.574	69.8
825.751	96.43
825.929	45.23
826.107	104.62
826.284	47.27
826.462	110.76
826.639	125.1
826.817	71.85
826.994	71.85
827.172	49.32
827.349	59.56
827.527	84.14
827.704	86.19
827.882	22.7
828.059	39.08
828.237	2.22
828.414	90.28
828.591	63.66
828.769	57.51
828.946	12.46
829.124	63.66
829.301	168.1
829.478	65.71
829.655	75.95
829.833	77.99
830.01	26.79
830.187	94.38
830.364	14.51
830.542	59.56
830.719	69.8
830.896	108.71
831.073	92.33
831.25	82.09
831.427	164.01
831.604	49.32
831.782	32.94
831.959	90.28
832.136	32.94
832.313	39.08
832.49	118.95
832.667	63.66
832.844	-3.93
833.021	75.95
833.198	94.38
833.374	125.1
833.551	90.28
833.728	73.9
833.905	-3.93
834.082	73.9
834.259	37.03
834.436	112.81
834.612	73.9
834.789	118.95
834.966	51.37
835.143	34.99
835.319	55.47
835.496	90.28
835.673	16.55
835.85	88.23
836.026	118.95
836.203	32.94
836.38	47.27
836.556	71.85
836.733	65.71
836.909	39.08
837.086	6.31
837.262	30.89
837.439	16.55
837.616	84.14
837.792	8.36
837.968	114.86
838.145	73.9
838.321	90.28
838.498	65.71
838.674	71.85
838.851	37.03
839.027	34.99
839.203	67.75
839.38	102.57
839.556	47.27
839.732	16.55
839.909	34.99
840.085	114.86
840.261	22.7
840.437	61.61
840.614	-5.97
840.79	-1.88
840.966	18.6
841.142	16.55
841.318	92.33
841.494	26.79
841.671	100.52
841.847	41.13
842.023	94.38
842.199	135.34
842.375	-3.93
842.551	49.32
842.727	69.8
842.903	59.56
843.079	43.18
843.255	22.7
843.431	-40.79
843.607	65.71
843.783	94.38
843.959	16.55
844.134	104.62
844.31	30.89
844.486	-8.02
844.662	53.42
844.838	-32.6
845.013	51.37
845.189	39.08
845.365	10.41
845.541	45.23
845.716	86.19
845.892	24.75
846.068	55.47
846.244	-48.98
846.419	77.99
846.595	10.41
846.77	61.61
846.946	24.75
847.122	69.8
847.297	-10.07
847.473	84.14
847.648	41.13
847.824	10.41
847.999	2.22
848.175	67.75
848.35	77.99
848.526	14.51
848.701	24.75
848.876	114.86
849.052	100.52
849.227	135.34
849.403	73.9
849.578	92.33
849.753	18.6
849.929	-5.97
850.104	-3.93
850.279	88.23
850.454	45.23
850.63	0.17
850.805	-24.4
850.98	100.52
851.155	34.99
851.33	47.27
851.505	41.13
851.681	51.37
851.856	22.7
852.031	98.47
852.206	43.18
852.381	47.27
852.556	26.79
852.731	30.89
852.906	32.94
853.081	22.7
853.256	47.27
853.431	49.32
853.606	-16.21
853.781	12.46
853.956	2.22
854.131	32.94
854.305	-1.88
854.48	26.79
854.655	16.55
854.83	67.75
855.005	-1.88
855.18	67.75
855.354	55.47
855.529	16.55
855.704	43.18
855.879	4.27
856.053	0.17
856.228	-26.45
856.403	82.09
856.577	157.86
856.752	65.71
856.926	-22.36
857.101	22.7
857.276	-14.17
857.45	32.94
857.625	104.62
857.799	2.22
857.974	-28.5
858.148	32.94
858.323	39.08
858.497	24.75
858.672	43.18
858.846	34.99
859.02	75.95
859.195	4.27
859.369	12.46
859.543	73.9
859.718	63.66
859.892	18.6
860.066	30.89
860.241	45.23
860.415	12.46
860.589	16.55
860.763	49.32
860.938	86.19
861.112	26.79
861.286	30.89
861.46	22.7
861.634	59.56
861.808	24.75
861.982	-61.27
862.157	-28.5
862.331	24.75
862.505	65.71
862.679	32.94
862.853	6.31
863.027	75.95
863.201	41.13
863.375	43.18
863.549	28.84
863.722	-51.03
863.896	10.41
864.07	73.9
864.244	75.95
864.418	8.36
864.592	30.89
864.766	12.46
864.939	43.18
865.113	41.13
865.287	51.37
865.461	2.22
865.634	73.9
865.808	20.65
865.982	80.04
866.156	22.7
866.329	37.03
866.503	51.37
866.676	51.37
866.85	71.85
867.024	45.23
867.197	-28.5
867.371	39.08
867.544	14.51
867.718	-5.97
867.891	47.27
868.065	18.6
868.238	-12.12
868.412	24.75
868.585	8.36
868.759	34.99
868.932	2.22
869.105	26.79
869.279	14.51
869.452	-26.45
869.625	55.47
869.799	47.27
869.972	20.65
870.145	0.17
870.319	65.71
870.492	45.23
870.665	22.7
870.838	-5.97
871.011	10.41
871.185	37.03
871.358	-30.55
871.531	26.79
871.704	-3.93
871.877	84.14
872.05	37.03
872.223	-3.93
872.396	16.55
872.569	49.32
872.742	-12.12
872.915	8.36
873.088	-16.21
873.261	2.22
873.434	61.61
873.607	39.08
873.78	53.42
873.953	59.56
874.126	-10.07
874.299	8.36
874.471	28.84
874.644	-8.02
874.817	16.55
874.99	67.75
875.163	32.94
875.335	34.99
875.508	26.79
875.681	45.23
875.853	22.7
876.026	71.85
876.199	65.71
876.371	45.23
876.544	-79.7
876.717	-32.6
876.889	26.79
877.062	94.38
877.234	24.75
877.407	-28.5
877.579	61.61
877.752	51.37
877.924	-24.4
878.097	32.94
878.269	-5.97
878.442	26.79
878.614	-32.6
878.786	-20.31
878.959	77.99
879.131	-16.21
879.303	2.22
879.476	8.36
879.648	41.13
879.82	24.75
879.993	26.79
880.165	61.61
880.337	51.37
880.509	2.22
880.681	14.51
880.854	84.14
881.026	-5.97
881.198	32.94
881.37	69.8
881.542	59.56
881.714	-8.02
881.886	16.55
882.058	53.42
882.23	32.94
882.402	-1.88
882.574	-18.26
882.746	53.42
882.918	67.75
883.09	20.65
883.262	24.75
883.434	53.42
883.606	53.42
883.778	77.99
883.95	69.8
884.122	34.99
884.293	45.23
884.465	4.27
884.637	39.08
884.809	-1.88
884.98	-24.4
885.152	61.61
885.324	26.79
885.496	-10.07
885.667	14.51
885.839	-14.17
886.011	73.9
886.182	-36.69
886.354	61.61
886.525	26.79
886.697	53.42
886.869	30.89
887.04	-3.93
887.212	0.17
887.383	84.14
887.555	26.79
887.726	0.17
887.897	-20.31
888.069	55.47
888.24	-24.4
888.412	-30.55
888.583	-42.84
888.754	34.99
888.926	10.41
889.097	24.75
889.268	-1.88
889.44	53.42
889.611	45.23
889.782	75.95
889.953	0.17
890.125	-20.31
890.296	10.41
890.467	0.17
890.638	4.27
890.809	49.32
890.98	10.41
891.151	57.51
891.323	73.9
891.494	114.86
891.665	67.75
891.836	12.46
892.007	2.22
892.178	43.18
892.349	24.75
892.52	55.47
892.691	-18.26
892.862	-14.17
893.032	-51.03
893.203	-22.36
893.374	37.03
893.545	39.08
893.716	84.14
893.887	37.03
894.057	49.32
894.228	28.84
894.399	-16.21
894.57	51.37
894.74	80.04
894.911	24.75
895.082	24.75
895.253	16.55
895.423	-57.17
895.594	32.94
895.764	8.36
895.935	30.89
896.106	24.75
896.276	22.7
896.447	96.43
896.617	-5.97
896.788	-16.21
896.958	-20.31
897.129	28.84
897.299	-8.02
897.47	-65.36
897.64	45.23
897.81	-8.02
897.981	51.37
898.151	69.8
898.322	-8.02
898.492	34.99
898.662	41.13
898.832	-3.93
899.003	18.6
899.173	-85.84
899.343	14.51
899.513	57.51
