Data from USB4F104151__290__14-02-47-736.txt Node

Date: Thu Mar 13 14:02:47 EDT 2025
User: louis
Spectrometer: USB4F10415
Trigger mode: 4
Integration Time (sec): 1.000000E-2
Scans to average: 1
Electric dark correction enabled: true
Nonlinearity correction enabled: false
Boxcar width: 0
XAxis mode: Wavelengths
Number of Pixels in Spectrum: 3648
>>>>>Begin Spectral Data<<<<<
178.204	-34.82
178.424	-34.82
178.644	-34.82
178.864	-49.15
179.084	-55.3
179.304	79.87
179.524	16.38
179.744	-28.67
179.964	57.34
180.184	-38.91
180.404	0
180.624	-36.86
180.844	36.86
181.064	-45.06
181.283	-63.49
181.503	12.29
181.723	10.24
181.943	-40.96
182.163	26.62
182.383	-45.06
182.602	43.01
182.822	-24.58
183.042	43.01
183.262	40.96
183.482	-47.1
183.701	61.44
183.921	0
184.141	-16.38
184.361	4.1
184.58	28.67
184.8	104.45
185.02	-36.86
185.239	32.77
185.459	59.39
185.679	16.38
185.898	-14.34
186.118	81.92
186.338	28.67
186.557	20.48
186.777	-40.96
186.997	24.58
187.216	-34.82
187.436	67.58
187.655	-49.15
187.875	71.68
188.095	2.05
188.314	43.01
188.534	88.06
188.753	10.24
188.973	20.48
189.192	59.39
189.412	32.77
189.631	34.82
189.851	-10.24
190.07	-32.77
190.29	-63.49
190.509	6.14
190.729	30.72
190.948	10.24
191.168	73.73
191.387	18.43
191.607	26.62
191.826	38.91
192.045	16.38
192.265	6.14
192.484	10.24
192.704	28.67
192.923	-24.58
193.142	24.58
193.362	-28.67
193.581	16.38
193.8	8.19
194.02	65.54
194.239	38.91
194.458	32.77
194.678	-10.24
194.897	0
195.116	40.96
195.335	-8.19
195.555	81.92
195.774	-16.38
195.993	10.24
196.212	49.15
196.432	-53.25
196.651	12.29
196.87	51.2
197.089	118.78
197.308	8.19
197.528	96.25
197.747	-16.38
197.966	-24.58
198.185	34.82
198.404	40.96
198.623	-24.58
198.842	43.01
199.062	28.67
199.281	61.44
199.5	0
199.719	16.38
199.938	0
200.157	-16.38
200.376	-43.01
200.595	49.15
200.814	24.58
201.033	-16.38
201.252	-12.29
201.471	43.01
201.69	0
201.909	-26.62
202.128	51.2
202.347	-16.38
202.566	16.38
202.785	-20.48
203.004	4.1
203.223	0
203.442	92.16
203.661	16.38
203.879	38.91
204.098	-4.1
204.317	65.54
204.536	59.39
204.755	-12.29
204.974	16.38
205.193	32.77
205.411	43.01
205.63	-36.86
205.849	12.29
206.068	53.25
206.287	-16.38
206.505	16.38
206.724	32.77
206.943	36.86
207.162	79.87
207.381	-12.29
207.599	47.1
207.818	-14.34
208.037	6.14
208.255	24.58
208.474	8.19
208.693	57.34
208.911	155.65
209.13	73.73
209.349	47.1
209.567	81.92
209.786	59.39
210.005	16.38
210.223	-24.58
210.442	73.73
210.661	14.34
210.879	22.53
211.098	-30.72
211.316	2.05
211.535	-20.48
211.753	-59.39
211.972	-20.48
212.191	4.1
212.409	-4.1
212.628	43.01
212.846	-30.72
213.065	55.3
213.283	6.14
213.502	77.82
213.72	18.43
213.938	28.67
214.157	10.24
214.375	36.86
214.594	53.25
214.812	75.77
215.031	65.54
215.249	-53.25
215.467	28.67
215.686	-2.05
215.904	-20.48
216.122	40.96
216.341	55.3
216.559	53.25
216.778	0
216.996	55.3
217.214	22.53
217.432	28.67
217.651	-61.44
217.869	-12.29
218.087	20.48
218.306	45.06
218.524	51.2
218.742	-8.19
218.96	65.54
219.179	-36.86
219.397	-47.1
219.615	24.58
219.833	47.1
220.051	26.62
220.27	16.38
220.488	53.25
220.706	-30.72
220.924	-36.86
221.142	106.49
221.36	20.48
221.578	2.05
221.796	-57.34
222.015	6.14
222.233	-6.14
222.451	24.58
222.669	-73.73
222.887	-22.53
223.105	-22.53
223.323	16.38
223.541	18.43
223.759	43.01
223.977	-65.53
224.195	38.91
224.413	18.43
224.631	90.11
224.849	-30.72
225.067	81.92
225.285	-77.82
225.503	-16.38
225.721	36.86
225.939	20.48
226.157	2.05
226.375	24.58
226.592	61.44
226.81	47.1
227.028	16.38
227.246	18.43
227.464	-20.48
227.682	-40.96
227.9	16.38
228.117	32.77
228.335	-24.58
228.553	67.58
228.771	-24.58
228.989	43.01
229.206	-22.53
229.424	40.96
229.642	-32.77
229.86	65.54
230.077	32.77
230.295	-32.77
230.513	30.72
230.731	40.96
230.948	-36.86
231.166	-34.82
231.384	10.24
231.601	-20.48
231.819	-45.06
232.037	-34.82
232.254	-10.24
232.472	-14.34
232.689	-20.48
232.907	59.39
233.125	24.58
233.342	2.05
233.56	-20.48
233.777	59.39
233.995	28.67
234.213	61.44
234.43	-4.1
234.648	36.86
234.865	61.44
235.083	55.3
235.3	8.19
235.518	49.15
235.735	49.15
235.953	28.67
236.17	6.14
236.388	49.15
236.605	45.06
236.822	0
237.04	-12.29
237.257	28.67
237.475	20.48
237.692	45.06
237.909	-22.53
238.127	49.15
238.344	-12.29
238.562	4.1
238.779	40.96
238.996	-16.38
239.214	53.25
239.431	122.88
239.648	-10.24
239.865	-4.1
240.083	30.72
240.3	55.3
240.517	12.29
240.735	24.58
240.952	73.73
241.169	20.48
241.386	6.14
241.603	57.34
241.821	-18.43
242.038	-10.24
242.255	26.62
242.472	-18.43
242.689	-6.14
242.907	40.96
243.124	-20.48
243.341	40.96
243.558	51.2
243.775	98.3
243.992	67.58
244.209	12.29
244.426	4.1
244.643	-6.14
244.86	0
245.078	8.19
245.295	20.48
245.512	57.34
245.729	-10.24
245.946	32.77
246.163	16.38
246.38	57.34
246.597	22.53
246.814	-10.24
247.031	65.54
247.248	45.06
247.464	51.2
247.681	10.24
247.898	45.06
248.115	57.34
248.332	-20.48
248.549	18.43
248.766	90.11
248.983	4.1
249.2	26.62
249.417	102.4
249.633	69.63
249.85	-28.67
250.067	69.63
250.284	49.15
250.501	16.38
250.717	77.82
250.934	51.2
251.151	-16.38
251.368	-16.38
251.585	77.82
251.801	8.19
252.018	22.53
252.235	-20.48
252.451	59.39
252.668	-16.38
252.885	-12.29
253.102	53.25
253.318	73.73
253.535	22.53
253.752	2.05
253.968	-71.68
254.185	67.58
254.401	40.96
254.618	24.58
254.835	10.24
255.051	45.06
255.268	40.96
255.484	51.2
255.701	65.54
255.917	40.96
256.134	-45.06
256.351	28.67
256.567	10.24
256.784	10.24
257	-18.43
257.217	75.77
257.433	86.01
257.65	-6.14
257.866	55.3
258.082	51.2
258.299	53.25
258.515	10.24
258.732	-16.38
258.948	67.58
259.165	-59.39
259.381	75.77
259.597	-4.1
259.814	61.44
260.03	-12.29
260.246	49.15
260.463	-22.53
260.679	20.48
260.895	20.48
261.112	12.29
261.328	36.86
261.544	28.67
261.761	67.58
261.977	-61.44
262.193	8.19
262.409	36.86
262.626	18.43
262.842	53.25
263.058	18.43
263.274	24.58
263.49	8.19
263.707	-43.01
263.923	47.1
264.139	16.38
264.355	38.91
264.571	28.67
264.787	-24.58
265.004	45.06
265.22	69.63
265.436	-47.1
265.652	-69.63
265.868	67.58
266.084	32.77
266.3	69.63
266.516	18.43
266.732	45.06
266.948	10.24
267.164	65.54
267.38	24.58
267.596	-4.1
267.812	30.72
268.028	-51.2
268.244	34.82
268.46	40.96
268.676	32.77
268.892	-8.19
269.108	49.15
269.324	-24.58
269.54	26.62
269.756	-63.49
269.972	32.77
270.188	57.34
270.403	10.24
270.619	-8.19
270.835	86.01
271.051	49.15
271.267	63.49
271.483	77.82
271.698	90.11
271.914	86.01
272.13	10.24
272.346	36.86
272.562	47.1
272.777	65.54
272.993	63.49
273.209	16.38
273.425	-28.67
273.64	-88.06
273.856	81.92
274.072	-6.14
274.287	43.01
274.503	47.1
274.719	77.82
274.934	28.67
275.15	-49.15
275.366	-2.05
275.581	53.25
275.797	38.91
276.012	-30.72
276.228	38.91
276.444	40.96
276.659	38.91
276.875	6.14
277.09	53.25
277.306	45.06
277.521	12.29
277.737	38.91
277.952	67.58
278.168	-38.91
278.383	124.93
278.599	-8.19
278.814	26.62
279.03	-24.58
279.245	8.19
279.461	30.72
279.676	20.48
279.892	20.48
280.107	57.34
280.322	26.62
280.538	69.63
280.753	34.82
280.969	12.29
281.184	-4.1
281.399	81.92
281.615	61.44
281.83	12.29
282.045	12.29
282.26	110.59
282.476	10.24
282.691	65.54
282.906	12.29
283.122	16.38
283.337	38.91
283.552	-61.44
283.767	61.44
283.983	43.01
284.198	36.86
284.413	16.38
284.628	0
284.843	4.1
285.058	0
285.274	-32.77
285.489	-88.06
285.704	36.86
285.919	20.48
286.134	28.67
286.349	-34.82
286.564	26.62
286.779	-40.96
286.995	43.01
287.21	8.19
287.425	-81.92
287.64	20.48
287.855	-8.19
288.07	-36.86
288.285	83.97
288.5	-2.05
288.715	57.34
288.93	-16.38
289.145	43.01
289.36	16.38
289.575	6.14
289.79	16.38
290.004	-4.1
290.219	51.2
290.434	40.96
290.649	49.15
290.864	-12.29
291.079	32.77
291.294	26.62
291.509	57.34
291.724	43.01
291.938	4.1
292.153	20.48
292.368	16.38
292.583	30.72
292.798	24.58
293.012	12.29
293.227	-40.96
293.442	59.39
293.657	-40.96
293.871	45.06
294.086	71.68
294.301	59.39
294.516	81.92
294.73	10.24
294.945	49.15
295.16	51.2
295.374	-8.19
295.589	75.77
295.804	0
296.018	-30.72
296.233	81.92
296.447	0
296.662	34.82
296.877	18.43
297.091	49.15
297.306	34.82
297.52	-24.58
297.735	-22.53
297.949	-8.19
298.164	34.82
298.378	26.62
298.593	47.1
298.807	-16.38
299.022	51.2
299.236	4.1
299.451	-10.24
299.665	30.72
299.88	26.62
300.094	22.53
300.309	4.1
300.523	28.67
300.737	-53.25
300.952	22.53
301.166	55.3
301.381	40.96
301.595	43.01
301.809	-4.1
302.024	57.34
302.238	16.38
302.452	81.92
302.667	55.3
302.881	18.43
303.095	-28.67
303.309	-6.14
303.524	14.34
303.738	57.34
303.952	32.77
304.166	-26.62
304.381	65.54
304.595	-22.53
304.809	61.44
305.023	4.1
305.237	-38.91
305.452	22.53
305.666	49.15
305.88	24.58
306.094	83.97
306.308	-26.62
306.522	86.01
306.736	81.92
306.95	69.63
307.164	-40.96
307.379	-28.67
307.593	38.91
307.807	8.19
308.021	36.86
308.235	36.86
308.449	75.77
308.663	47.1
308.877	51.2
309.091	40.96
309.305	49.15
309.519	24.58
309.733	73.73
309.947	-24.58
310.161	57.34
310.374	14.34
310.588	43.01
310.802	32.77
311.016	45.06
311.23	45.06
311.444	-40.96
311.658	69.63
311.872	36.86
312.085	-63.49
312.299	24.58
312.513	-14.34
312.727	94.21
312.941	65.54
313.154	67.58
313.368	-38.91
313.582	-14.34
313.796	6.14
314.009	16.38
314.223	34.82
314.437	18.43
314.651	24.58
314.864	59.39
315.078	38.91
315.292	-30.72
315.505	75.77
315.719	59.39
315.933	18.43
316.146	8.19
316.36	-8.19
316.573	104.45
316.787	-14.34
317.001	6.14
317.214	20.48
317.428	63.49
317.641	49.15
317.855	34.82
318.068	26.62
318.282	16.38
318.495	-28.67
318.709	30.72
318.922	106.49
319.136	-55.3
319.349	77.82
319.563	8.19
319.776	-40.96
319.99	20.48
320.203	53.25
320.417	65.54
320.63	69.63
320.843	131.07
321.057	-10.24
321.27	53.25
321.483	22.53
321.697	12.29
321.91	-63.49
322.124	28.67
322.337	102.4
322.55	28.67
322.763	83.97
322.977	8.19
323.19	32.77
323.403	-83.97
323.617	28.67
323.83	92.16
324.043	6.14
324.256	38.91
324.469	49.15
324.683	49.15
324.896	36.86
325.109	-40.96
325.322	88.06
325.535	59.39
325.748	98.3
325.962	-55.3
326.175	-20.48
326.388	63.49
326.601	88.06
326.814	38.91
327.027	-30.72
327.24	53.25
327.453	53.25
327.666	4.1
327.879	53.25
328.092	0
328.305	26.62
328.518	36.86
328.731	47.1
328.944	-32.77
329.157	0
329.37	36.86
329.583	-45.06
329.796	83.97
330.009	14.34
330.222	-6.14
330.435	63.49
330.648	-16.38
330.861	10.24
331.073	88.06
331.286	86.01
331.499	24.58
331.712	-30.72
331.925	20.48
332.138	8.19
332.35	0
332.563	10.24
332.776	47.1
332.989	2.05
333.202	32.77
333.414	30.72
333.627	16.38
333.84	16.38
334.053	20.48
334.265	-38.91
334.478	118.78
334.691	83.97
334.903	53.25
335.116	4.1
335.329	49.15
335.541	102.4
335.754	22.53
335.966	63.49
336.179	79.87
336.392	51.2
336.604	57.34
336.817	12.29
337.029	83.97
337.242	0
337.454	77.82
337.667	-14.34
337.88	65.54
338.092	73.73
338.305	59.39
338.517	4.1
338.729	-4.1
338.942	43.01
339.154	34.82
339.367	51.2
339.579	-20.48
339.792	79.87
340.004	61.44
340.217	10.24
340.429	55.3
340.641	-8.19
340.854	79.87
341.066	88.06
341.278	40.96
341.491	45.06
341.703	2.05
341.915	24.58
342.128	0
342.34	40.96
342.552	90.11
342.764	32.77
342.977	14.34
343.189	92.16
343.401	43.01
343.613	8.19
343.826	2.05
344.038	43.01
344.25	26.62
344.462	98.3
344.674	124.93
344.886	-10.24
345.099	55.3
345.311	49.15
345.523	10.24
345.735	53.25
345.947	20.48
346.159	120.83
346.371	57.34
346.583	-16.38
346.795	-2.05
347.007	14.34
347.219	-20.48
347.431	16.38
347.643	55.3
347.855	32.77
348.067	98.3
348.279	-8.19
348.491	65.54
348.703	28.67
348.915	73.73
349.127	65.54
349.339	47.1
349.551	2.05
349.763	75.77
349.975	14.34
350.187	53.25
350.399	-34.82
350.61	38.91
350.822	32.77
351.034	32.77
351.246	94.21
351.458	38.91
351.669	-4.1
351.881	49.15
352.093	4.1
352.305	67.58
352.517	32.77
352.728	40.96
352.94	24.58
353.152	55.3
353.363	26.62
353.575	47.1
353.787	-40.96
353.999	24.58
354.21	90.11
354.422	32.77
354.633	49.15
354.845	43.01
355.057	57.34
355.268	90.11
355.48	57.34
355.692	75.77
355.903	34.82
356.115	28.67
356.326	-8.19
356.538	43.01
356.749	94.21
356.961	-40.96
357.172	92.16
357.384	40.96
357.595	86.01
357.807	57.34
358.018	-40.96
358.23	34.82
358.441	43.01
358.653	77.82
358.864	26.62
359.075	75.77
359.287	36.86
359.498	53.25
359.709	77.82
359.921	-2.05
360.132	-51.2
360.344	81.92
360.555	10.24
360.766	20.48
360.977	65.54
361.189	-14.34
361.4	10.24
361.611	51.2
361.823	49.15
362.034	32.77
362.245	83.97
362.456	4.1
362.667	69.63
362.879	59.39
363.09	26.62
363.301	53.25
363.512	-10.24
363.723	126.97
363.935	34.82
364.146	110.59
364.357	4.1
364.568	16.38
364.779	53.25
364.99	53.25
365.201	43.01
365.412	34.82
365.623	26.62
365.834	10.24
366.045	26.62
366.256	-8.19
366.467	67.58
366.678	-8.19
366.889	79.87
367.1	-12.29
367.311	67.58
367.522	22.53
367.733	36.86
367.944	92.16
368.155	100.35
368.366	18.43
368.577	88.06
368.788	0
368.999	38.91
369.209	59.39
369.42	45.06
369.631	32.77
369.842	-24.58
370.053	-4.1
370.264	59.39
370.474	40.96
370.685	102.4
370.896	8.19
371.107	-20.48
371.317	38.91
371.528	-34.82
371.739	49.15
371.95	-10.24
372.16	57.34
372.371	-2.05
372.582	10.24
372.792	4.1
373.003	124.93
373.214	63.49
373.424	-18.43
373.635	20.48
373.846	155.65
374.056	86.01
374.267	20.48
374.477	61.44
374.688	77.82
374.898	0
375.109	100.35
375.319	10.24
375.53	55.3
375.74	57.34
375.951	43.01
376.161	83.97
376.372	47.1
376.582	32.77
376.793	73.73
377.003	49.15
377.214	-57.34
377.424	81.92
377.635	30.72
377.845	49.15
378.055	77.82
378.266	-4.1
378.476	40.96
378.686	57.34
378.897	32.77
379.107	77.82
379.317	49.15
379.528	59.39
379.738	57.34
379.948	90.11
380.158	71.68
380.369	12.29
380.579	92.16
380.789	-28.67
380.999	67.58
381.21	73.73
381.42	67.58
381.63	81.92
381.84	71.68
382.05	75.77
382.261	40.96
382.471	100.35
382.681	-2.05
382.891	49.15
383.101	45.06
383.311	26.62
383.521	34.82
383.731	-16.38
383.941	86.01
384.151	24.58
384.361	-12.29
384.571	65.54
384.781	26.62
384.991	34.82
385.201	116.73
385.411	57.34
385.621	34.82
385.831	77.82
386.041	43.01
386.251	49.15
386.461	108.54
386.671	53.25
386.881	-43.01
387.091	24.58
387.301	24.58
387.511	8.19
387.72	75.77
387.93	100.35
388.14	0
388.35	40.96
388.56	49.15
388.769	88.06
388.979	12.29
389.189	40.96
389.399	51.2
389.609	116.73
389.818	131.07
390.028	18.43
390.238	94.21
390.447	67.58
390.657	59.39
390.867	38.91
391.076	69.63
391.286	55.3
391.496	63.49
391.705	49.15
391.915	77.82
392.125	61.44
392.334	20.48
392.544	65.54
392.753	86.01
392.963	-16.38
393.172	83.97
393.382	28.67
393.591	73.73
393.801	26.62
394.01	108.54
394.22	43.01
394.429	67.58
394.639	90.11
394.848	67.58
395.058	61.44
395.267	124.93
395.477	-32.77
395.686	159.74
395.895	79.87
396.105	86.01
396.314	92.16
396.524	77.82
396.733	57.34
396.942	83.97
397.152	147.45
397.361	139.26
397.57	83.97
397.78	133.12
397.989	110.59
398.198	73.73
398.407	79.87
398.617	75.77
398.826	141.31
399.035	120.83
399.244	116.73
399.453	49.15
399.663	26.62
399.872	118.78
400.081	16.38
400.29	86.01
400.499	106.49
400.708	122.88
400.917	92.16
401.127	49.15
401.336	59.39
401.545	86.01
401.754	67.58
401.963	104.45
402.172	57.34
402.381	61.44
402.59	94.21
402.799	73.73
403.008	90.11
403.217	147.45
403.426	63.49
403.635	90.11
403.844	114.69
404.053	161.79
404.262	139.26
404.471	131.07
404.68	112.64
404.888	163.84
405.097	118.78
405.306	143.36
405.515	151.55
405.724	169.98
405.933	100.35
406.142	145.41
406.35	108.54
406.559	217.08
406.768	200.7
406.977	106.49
407.185	227.32
407.394	116.73
407.603	184.32
407.812	212.99
408.02	172.03
408.229	155.65
408.438	266.24
408.646	155.65
408.855	231.42
409.064	256
409.272	272.38
409.481	233.47
409.69	253.95
409.898	321.53
410.107	196.61
410.315	335.87
410.524	317.44
410.733	315.39
410.941	276.48
411.15	321.53
411.358	309.24
411.567	303.1
411.775	344.06
411.984	290.81
412.192	430.07
412.401	380.92
412.609	428.03
412.818	344.06
413.026	425.98
413.234	401.4
413.443	466.94
413.651	524.28
413.86	483.32
414.068	552.95
414.276	598.01
414.485	507.9
414.693	595.96
414.901	632.82
415.11	528.38
415.318	688.12
415.526	661.49
415.734	702.45
415.943	706.55
416.151	702.45
416.359	741.36
416.567	780.28
416.776	776.18
416.984	880.63
417.192	851.96
417.4	980.98
417.608	903.15
417.817	958.45
418.025	876.53
418.233	1042.42
418.441	991.22
418.649	1066.99
418.857	1114.1
419.065	1142.77
419.273	1150.96
419.481	1196.01
419.689	1261.55
419.897	1406.95
420.105	1464.3
420.313	1419.24
420.521	1474.54
420.729	1392.62
420.937	1472.49
421.145	1677.29
421.353	1667.05
421.561	1679.33
421.769	1681.38
421.977	1855.46
422.185	1839.08
422.393	1900.52
422.601	2047.97
422.809	1953.76
423.017	1982.43
423.224	2201.57
423.432	2183.13
423.64	2252.77
423.848	2488.28
424.056	2406.36
424.263	2631.64
424.471	2453.47
424.679	2697.17
424.887	2899.92
425.094	2850.77
425.302	2922.45
425.51	2987.99
425.718	3022.8
425.925	3170.26
426.133	3250.13
426.341	3407.82
426.548	3565.51
426.756	3508.17
426.964	3622.86
427.171	3694.54
427.379	3958.72
427.586	3960.77
427.794	4069.31
428.001	4270.01
428.209	4474.81
428.417	4349.89
428.624	4607.93
428.832	4493.24
429.039	4638.65
429.247	4702.14
429.454	5105.59
429.662	5296.05
429.869	5105.59
430.076	5314.48
430.284	5343.15
430.491	5486.51
430.699	5820.33
430.906	5896.1
431.114	5971.88
431.321	6266.78
431.528	6176.67
431.736	6580.12
431.943	7047.06
432.15	6780.82
432.358	6782.87
432.565	7294.86
432.772	7454.61
432.979	7638.92
433.187	7581.58
433.394	7907.21
433.601	8286.08
433.808	8214.4
434.016	8232.83
434.223	8556.41
434.43	8992.63
434.637	8898.42
434.844	9459.57
435.052	9658.22
435.259	9371.5
435.466	9527.15
435.673	9584.49
435.88	10164.07
436.087	10571.61
436.294	10479.46
436.501	10348.39
436.708	10837.85
436.915	10856.28
437.122	11575.12
437.329	11552.59
437.537	11661.13
437.743	11988.81
437.95	11913.03
438.157	12496.71
438.364	13029.18
438.571	12812.09
438.778	12990.27
438.985	14407.46
439.192	13645.62
439.399	14231.33
439.606	13733.68
439.813	14712.61
440.02	15441.68
440.227	15136.54
440.433	15152.92
440.64	15499.03
440.847	15374.1
441.054	15939.34
441.261	16871.17
441.467	16979.71
441.674	16940.8
441.881	17460.98
442.088	17590
442.294	17456.89
442.501	18003.69
442.708	18411.24
442.914	19050.21
443.121	19554.01
443.328	18984.67
443.534	20596.42
443.741	20100.81
443.948	19529.43
444.154	21305.02
444.361	20885.19
444.568	20909.76
444.774	21345.98
444.981	21264.06
445.187	22009.52
445.394	23369.37
445.6	22941.35
445.807	25034.37
446.013	23664.28
446.22	24051.34
446.426	25167.49
446.633	25241.21
446.839	25976.44
447.046	25196.16
447.252	26797.67
447.459	26558.06
447.665	26551.91
447.871	27541.08
448.078	28868.17
448.284	27133.54
448.491	28268.11
448.697	29152.84
448.903	29572.67
449.11	29931.06
449.316	29384.26
449.522	29972.02
449.728	30289.46
449.935	30977.58
450.141	30895.66
450.347	31884.83
450.553	30535.21
450.76	31020.58
450.966	31792.67
451.172	31723.04
451.378	32032.28
451.584	31901.21
451.791	32282.13
451.997	32474.64
452.203	32892.43
452.409	32968.2
452.615	32392.72
452.821	31309.35
453.027	31088.17
453.233	32742.92
453.44	31307.3
453.646	31772.19
453.852	31706.65
454.058	32304.66
454.264	31092.26
454.47	32271.89
454.676	31180.32
454.882	32749.07
455.088	29523.52
455.294	30193.2
455.5	30586.41
455.705	30916.14
455.911	29439.55
456.117	28876.36
456.323	28841.54
456.529	27356.77
456.735	28474.96
456.941	27430.49
457.147	26953.32
457.352	26424.94
457.558	26066.55
457.764	26340.97
457.97	25458.3
458.176	25243.26
458.381	25302.65
458.587	24133.26
458.793	23658.13
458.999	22578.86
459.204	24034.96
459.41	23570.07
459.616	22189.74
459.821	22138.54
460.027	21845.68
460.233	21241.53
460.438	20655.81
460.644	20719.3
460.85	19506.9
461.055	19244.76
461.261	19310.3
461.466	17915.63
461.672	17510.13
461.878	18745.06
462.083	17479.41
462.289	17129.21
462.494	16758.53
462.7	16094.99
462.905	15746.83
463.111	16238.34
463.316	16238.34
463.522	15879.95
463.727	16099.08
463.932	16164.62
464.138	15879.95
464.343	15920.91
464.549	15404.82
464.754	16107.27
464.959	15847.18
465.165	15466.26
465.37	15171.35
465.575	14546.72
465.781	15296.28
465.986	15298.33
466.191	14933.79
466.397	14419.75
466.602	14042.92
466.807	14260.01
467.012	14409.51
467.218	14214.95
467.423	14073.64
467.628	14200.62
467.833	14944.03
468.038	14335.78
468.244	13934.38
468.449	14298.92
468.654	13858.6
468.859	13776.69
469.064	13860.65
469.269	13057.85
469.474	13248.31
469.679	13408.05
469.885	13072.18
470.09	13346.61
470.295	13379.38
470.5	12846.91
470.705	12883.77
470.91	12711.74
471.115	12437.31
471.32	12898.11
471.525	12697.41
471.73	12283.72
471.935	12353.35
472.139	11988.81
472.344	12154.69
472.549	11972.43
472.754	11794.25
472.959	11722.57
473.164	11376.47
473.369	11130.71
473.574	11589.46
473.778	11321.17
473.983	11282.26
474.188	11261.78
474.393	10809.18
474.598	10792.8
474.802	10790.75
475.007	10501.98
475.212	10547.04
475.417	10241.89
475.621	10463.07
475.826	10342.24
476.031	10186.6
476.235	10000.23
476.44	10145.64
476.645	9938.79
476.849	10016.62
477.054	9762.67
477.259	9494.38
477.463	9701.23
477.668	9584.49
477.872	9549.68
478.077	9252.72
478.282	9217.91
478.486	9101.17
478.691	9158.52
478.895	9029.49
479.1	8937.34
479.304	8920.95
479.509	8707.96
479.713	8802.17
479.918	8775.55
480.122	8540.03
480.326	8648.57
480.531	8707.96
480.735	8611.71
480.94	8464.25
481.144	8843.13
481.348	8398.72
481.553	8560.51
481.757	8222.59
481.961	8396.67
482.166	8767.35
482.37	8707.96
482.574	8136.58
482.778	8265.6
482.983	8607.61
483.187	8241.03
483.391	8382.34
483.595	8341.38
483.8	8376.19
484.004	8349.57
484.208	8177.54
484.412	8316.8
484.616	8208.26
484.821	8171.4
485.025	8290.18
485.229	8341.38
485.433	8161.16
485.637	8202.11
485.841	8120.2
486.045	8144.77
486.249	8351.62
486.453	8374.14
486.657	8298.37
486.861	8454.01
487.065	8130.44
487.269	8267.65
487.473	8271.75
487.677	8464.25
487.881	8408.96
488.085	8146.82
488.289	8281.99
488.493	8357.76
488.697	8445.82
488.901	8435.58
489.105	8468.35
489.309	8472.45
489.512	8454.01
489.716	8533.89
489.92	8374.14
490.124	8423.3
490.328	8607.61
490.531	8464.25
490.735	8464.25
490.939	8460.16
491.143	8544.13
491.346	8542.08
491.55	8636.28
491.754	8605.56
491.958	8693.63
492.161	8808.31
492.365	8736.63
492.569	8697.72
492.772	8640.38
492.976	8814.46
493.18	8980.34
493.383	9017.21
493.587	9179
493.79	9135.99
493.994	9043.83
494.197	9209.72
494.401	9492.34
494.605	9416.56
494.808	9385.84
495.012	9504.62
495.215	9492.34
495.419	9559.92
495.622	9555.82
495.825	9623.41
496.029	9789.29
496.232	9789.29
496.436	9992.04
496.639	10166.12
496.843	10256.23
497.046	10360.67
497.249	10295.14
497.453	10424.16
497.656	10594.14
497.859	10532.7
498.063	10624.86
498.266	10862.43
498.469	10848.09
498.673	10932.06
498.876	11321.17
499.079	11274.07
499.282	11448.15
499.485	11489.1
499.689	11784.01
499.892	11814.73
500.095	11820.88
500.298	12324.68
500.501	12193.61
500.705	12379.97
500.908	12613.44
501.111	12773.18
501.314	12623.68
501.517	12937.02
501.72	13117.24
501.923	13197.11
502.126	13453.11
502.329	13483.83
502.532	13621.04
502.735	13655.86
502.938	13868.84
503.141	14008.11
503.344	14339.88
503.547	14337.83
503.75	14960.41
503.953	14819.1
504.156	14827.29
504.359	15220.5
504.562	15066.91
504.765	15490.84
504.968	15580.95
505.17	15703.82
505.373	15984.4
505.576	16146.19
505.779	16490.24
505.982	16437
506.185	16781.06
506.387	16822.02
506.59	17319.67
506.793	17387.25
506.996	17409.78
507.198	17878.77
507.401	17852.14
507.604	18212.59
507.807	18265.83
508.009	18761.44
508.212	18564.84
508.415	19064.54
508.617	19160.8
508.82	19418.84
509.022	19201.76
509.225	19650.26
509.428	20152.01
509.63	20115.15
509.833	20188.88
510.035	20686.53
510.238	20627.14
510.44	20975.3
510.643	21350.07
510.845	21618.36
511.048	21483.19
511.25	21475
511.453	22159.02
511.655	22630.05
511.858	22535.85
512.06	22668.97
512.262	23172.77
512.465	23015.07
512.667	23426.71
512.87	23719.57
513.072	23799.44
513.274	24393.36
513.477	24651.4
513.679	25112.19
513.881	25067.14
514.084	25343.61
514.286	25775.73
514.488	25908.85
514.69	26189.42
514.893	26676.84
515.095	26629.74
515.297	26773.1
515.499	26971.75
515.701	27475.55
515.904	27715.16
516.106	28261.97
516.308	28120.66
516.51	28769.86
516.712	28749.39
516.914	29136.45
517.116	29650.49
517.318	29648.44
517.52	29849.14
517.722	30271.03
517.925	30406.19
518.127	30756.39
518.329	31233.57
518.531	30942.76
518.733	31663.64
518.935	32120.34
519.136	31923.74
519.338	32583.18
519.54	32495.12
519.742	33168.9
519.944	33187.33
520.146	33660.41
520.348	34217.46
520.55	34014.71
520.752	33992.19
520.954	34848.24
521.155	34608.62
521.357	35468.77
521.559	35675.62
521.761	36171.22
521.963	35956.19
522.164	36226.52
522.366	36253.14
522.568	36859.34
522.77	36969.93
522.971	37336.52
523.173	36842.96
523.375	37682.62
523.576	37973.44
523.778	37752.26
523.98	38614.45
524.181	38456.76
524.383	38368.69
524.584	39105.96
524.786	39120.3
524.988	39040.43
525.189	39830.94
525.391	39794.08
525.592	40232.35
525.794	40627.6
525.995	40482.2
526.197	40465.81
526.398	40603.03
526.6	41153.93
526.801	40822.16
527.003	40986
527.204	41231.75
527.406	42114.43
527.607	41735.56
527.808	42098.05
528.01	41831.81
528.211	41747.84
528.412	42823.03
528.614	42464.63
528.815	42100.09
529.016	42845.55
529.218	42108.29
529.419	42644.85
529.62	42829.17
529.822	42759.54
530.023	43105.65
530.224	42878.32
530.425	43226.48
530.626	42900.85
530.828	42939.76
531.029	44053.86
531.23	43613.54
531.431	43535.72
531.632	43603.3
531.833	43578.73
532.035	43980.13
532.236	43519.34
532.437	43795.81
532.638	43693.41
532.839	43885.92
533.04	44107.1
533.241	43627.88
533.442	44578.14
533.643	44000.61
533.844	43976.03
534.045	43939.17
534.246	44033.38
534.447	44326.24
534.648	44322.14
534.849	44602.71
535.05	43840.87
535.251	44246.36
535.451	44318.04
535.652	44176.73
535.853	44418.39
536.054	44647.77
536.255	44580.18
536.456	43953.51
536.657	44877.14
536.857	44119.39
537.058	44285.28
537.259	44827.99
537.46	44621.14
537.66	44322.14
537.861	44356.96
538.062	44336.48
538.263	44590.42
538.463	44223.84
538.664	44348.76
538.865	44244.32
539.065	44600.66
539.266	44119.39
539.466	44561.75
539.667	43814.24
539.868	44756.31
540.068	44008.8
540.269	44238.17
540.469	44713.3
540.67	44264.8
540.87	44567.9
541.071	44385.63
541.271	44563.8
541.472	44432.73
541.672	43924.83
541.873	44221.79
542.073	43863.39
542.274	44688.73
542.474	44262.75
542.675	43871.59
542.875	44725.59
543.075	44277.08
543.276	43908.45
543.476	44660.05
543.676	44094.82
543.877	43955.55
544.077	43939.17
544.277	43906.4
544.478	44389.72
544.678	44295.52
544.878	44229.98
545.078	44240.22
545.279	43890.02
545.479	43898.21
545.679	43986.27
545.879	44342.62
546.079	44475.74
546.28	43885.92
546.48	43822.44
546.68	44205.41
546.88	44125.53
547.08	44209.5
547.28	44479.83
547.48	43732.32
547.68	44354.91
547.88	43715.94
548.081	43943.27
548.281	44322.14
548.481	43724.13
548.681	44457.31
548.881	44039.52
549.081	43761
549.28	43832.68
549.48	44348.76
549.68	44019.04
549.88	44516.7
550.08	43926.88
550.28	44154.21
550.48	43599.21
550.68	44123.49
550.88	43488.62
551.08	43533.67
551.279	44248.41
551.479	43746.66
551.679	43961.7
551.879	43890.02
552.079	44393.82
552.278	44131.68
552.478	43822.44
552.678	43877.73
552.878	44324.19
553.077	43752.8
553.277	43427.18
553.477	44103.01
553.676	43511.14
553.876	43472.23
554.076	43380.07
554.275	43447.66
554.475	43050.35
554.674	43593.06
554.874	43642.21
555.074	43496.81
555.273	43349.35
555.473	43648.36
555.672	43087.21
555.872	43011.44
556.071	43515.24
556.271	43281.77
556.47	43246.96
556.67	42964.34
556.869	42874.23
557.068	43009.39
557.268	42515.83
557.467	42820.98
557.667	42841.46
557.866	42794.35
558.065	42794.35
558.265	42634.61
558.464	42548.6
558.663	43187.56
558.863	42462.58
559.062	43187.56
559.261	42128.77
559.461	42933.62
559.66	42341.75
559.859	42569.08
560.058	42263.93
560.258	42225.02
560.457	41809.28
560.656	42222.97
560.855	42093.95
561.054	42116.48
561.253	41930.11
561.453	41840
561.652	42042.75
561.851	42073.47
562.05	41725.32
562.249	41739.65
562.448	41753.99
562.647	41506.18
562.846	41596.29
563.045	41710.98
563.244	41434.5
563.443	41614.72
563.642	40908.18
563.841	41577.86
564.04	40801.68
564.239	41512.33
564.438	40693.14
564.637	41180.56
564.836	41168.27
565.035	40600.98
565.234	41280.91
565.432	40752.53
565.631	40785.3
565.83	40435.09
566.029	40682.9
566.228	40447.38
566.427	40406.42
566.625	40195.48
566.824	40136.09
567.023	40480.15
567.222	39364.01
567.42	40349.08
567.619	39992.73
567.818	40005.02
568.016	39613.86
568.215	40269.21
568.414	39665.06
568.612	39755.17
568.811	39521.7
569.01	39652.77
569.208	38837.68
569.407	39517.6
569.605	38620.59
569.804	39415.21
570.002	38520.24
570.201	39067.05
570.4	38966.7
570.598	38761.9
570.797	38299.06
570.995	38315.45
571.193	38108.6
571.392	39095.72
571.59	37938.62
571.789	38264.25
571.987	37979.58
572.186	37961.15
572.384	37846.46
572.582	38061.5
572.781	37879.23
572.979	37197.26
573.177	37363.14
573.376	37719.49
573.574	37533.12
573.772	37162.44
573.971	36924.88
574.169	36556.24
574.367	36283.86
574.565	36679.12
574.763	36511.19
574.962	36703.7
575.16	36138.46
575.358	36351.45
575.556	35929.56
575.754	36396.5
575.952	35886.56
576.151	36756.94
576.349	35876.32
576.547	35886.56
576.745	35917.28
576.943	35753.44
577.141	35648.99
577.339	35511.78
577.537	35409.38
577.735	35339.75
577.933	35298.79
578.131	35141.1
578.329	35229.16
578.527	34903.53
578.725	34729.45
578.923	35139.05
579.121	34645.49
579.319	34276.85
579.516	34932.2
579.714	34745.84
579.912	34518.51
580.11	34455.03
580.308	34366.96
580.506	33990.14
580.704	33668.61
580.901	33900.03
581.099	34270.71
581.297	33609.22
581.495	33766.91
581.692	33752.57
581.89	33482.24
582.088	33437.19
582.285	32914.95
582.483	33453.57
582.681	33394.18
582.878	32888.33
583.076	33037.83
583.274	33388.03
583.471	32556.56
583.669	32716.3
583.866	32132.63
584.064	32708.11
584.262	32103.96
584.459	32661.01
584.657	32349.71
584.854	32224.79
585.052	31690.27
585.249	32183.83
585.447	32140.82
585.644	31860.25
585.841	31870.49
586.039	31780.38
586.236	31432.22
586.434	31120.93
586.631	31510.05
586.828	31120.93
587.026	31436.32
587.223	31331.87
587.42	31084.07
587.618	31122.98
587.815	30565.93
588.012	30891.56
588.21	30610.99
588.407	31157.8
588.604	30662.19
588.801	30371.38
588.999	30471.73
589.196	30002.74
589.393	30262.83
589.59	29933.11
589.787	29881.91
589.984	29879.86
590.182	29462.08
590.379	29777.47
590.576	29474.37
590.773	29478.46
590.97	29474.37
591.167	29216.32
591.364	29183.55
591.561	29589.05
591.758	28837.45
591.955	29288
592.152	29357.63
592.349	28771.91
592.546	28933.7
592.743	28796.49
592.94	28163.67
593.137	28831.3
593.334	28853.83
593.531	28190.29
593.727	28636.75
593.924	28374.61
594.121	27973.21
594.318	28186.19
594.515	27936.34
594.712	28208.72
594.908	27692.63
595.105	27883.09
595.302	27614.81
595.499	27838.04
595.696	27635.29
595.892	27510.36
596.089	27575.9
596.286	27516.51
596.482	27655.77
596.679	27178.59
596.876	27192.93
597.072	27135.59
597.269	27180.64
597.466	26762.86
597.662	26709.61
597.859	26764.9
598.055	26756.71
598.252	26510.96
598.448	26336.88
598.645	26048.11
598.841	26230.38
599.038	26070.64
599.234	26275.44
599.431	26154.61
599.627	25818.74
599.824	26072.69
600.02	25796.21
600.217	26001.01
600.413	25697.91
600.609	25704.06
600.806	25347.71
601.002	25532.03
601.198	25499.26
601.395	25308.8
601.591	25296.51
601.787	25079.43
601.984	24962.69
602.18	25138.82
602.376	24825.48
602.572	24735.37
602.769	24985.22
602.965	24497.8
603.161	24729.22
603.357	24653.45
603.553	24381.07
603.75	24395.4
603.946	24356.49
604.142	24456.84
604.338	23649.94
604.534	24045.2
604.73	23774.87
604.926	23807.64
605.122	23938.71
605.318	23410.33
605.514	23809.68
605.71	23352.99
605.906	23588.5
606.102	23498.39
606.298	23398.04
606.494	23111.33
606.69	23615.13
606.886	23234.21
607.082	23240.35
607.278	23250.59
607.474	22896.29
607.67	23076.51
607.866	22736.55
608.062	22808.23
608.257	22324.91
608.453	22822.56
608.649	22800.04
608.845	22562.47
609.041	22525.61
609.236	22437.55
609.432	22298.28
609.628	22382.25
609.824	21995.18
610.019	22120.11
610.215	22189.74
610.411	22349.48
610.606	22093.49
610.802	22025.9
610.998	22030
611.193	21937.84
611.389	21843.63
611.584	21708.47
611.78	21501.62
611.976	21659.32
612.171	21575.35
612.367	21671.61
612.562	21604.02
612.758	21360.31
612.953	21143.23
613.149	21520.06
613.344	21135.04
613.539	21272.25
613.735	21294.78
613.93	21251.77
614.126	21128.89
614.321	21300.92
614.517	21345.98
614.712	21139.13
614.907	20862.66
615.103	21020.35
615.298	20631.24
615.493	20971.2
615.688	20444.87
615.884	20883.14
616.079	20373.19
616.274	20713.16
616.47	20584.13
616.665	20569.8
616.86	20573.89
617.055	20334.28
617.25	20494.02
617.445	20545.22
617.641	20039.37
617.836	20002.51
618.031	19805.91
618.226	19990.22
618.421	19824.34
618.616	19979.98
618.811	19541.72
619.006	20020.94
619.201	19173.08
619.396	19789.52
619.591	19300.06
619.786	19769.04
619.981	19103.45
620.176	19373.78
620.371	18982.62
620.566	19140.32
620.761	18767.59
620.956	19158.75
621.151	18751.2
621.346	18923.23
621.541	18579.17
621.735	18820.83
621.93	18362.09
622.125	18276.07
622.32	18044.65
622.515	18102
622.709	18079.47
622.904	18251.5
623.099	17743.6
623.294	17770.22
623.488	17596.15
623.683	17702.64
623.878	17624.82
624.072	17624.82
624.267	17260.28
624.462	17370.87
624.656	16869.12
624.851	17135.35
625.046	17065.72
625.24	16965.37
625.435	16838.4
625.629	16789.25
625.824	16846.59
626.018	16604.93
626.213	16295.69
626.407	16637.7
626.602	15910.67
626.796	16203.53
626.991	16135.95
627.185	15755.02
627.38	15791.89
627.574	15626
627.768	15699.73
627.963	15615.76
628.157	15636.24
628.352	15714.06
628.546	15443.73
628.74	15374.1
628.935	15048.47
629.129	15392.53
629.323	14851.87
629.517	14941.98
629.712	15001.37
629.906	15109.91
630.1	14780.19
630.294	14610.21
630.489	14530.34
630.683	14661.41
630.877	14282.53
631.071	14360.36
631.265	14473
631.459	14073.64
631.653	14212.9
631.848	13866.8
632.042	14051.11
632.236	14094.12
632.43	13807.41
632.624	14032.68
632.818	13748.01
633.012	13623.09
633.206	13682.48
633.4	13500.21
633.594	13371.19
633.788	13473.59
633.982	13279.03
634.176	13465.39
634.369	13336.37
634.563	13227.83
634.757	13156.15
634.951	12988.22
635.145	12998.46
635.339	12869.44
635.533	12771.13
635.726	12814.14
635.92	12508.99
636.114	12537.66
636.308	12562.24
636.501	12386.11
636.695	12533.57
636.889	12451.65
637.083	12353.35
637.276	12162.89
637.47	12193.61
637.664	12156.74
637.857	12296
638.051	11956.04
638.244	12009.29
638.438	11923.27
638.632	11902.79
638.825	11835.21
639.019	11562.83
639.212	11538.26
639.406	11528.02
639.599	11605.84
639.793	11358.03
639.986	11263.83
640.18	11220.82
640.373	11315.03
640.567	11159.38
640.76	11198.29
640.954	11079.51
641.147	10964.82
641.34	10962.78
641.534	11077.46
641.727	10714.97
641.92	10790.75
642.114	10757.98
642.307	10501.98
642.5	10639.2
642.694	10325.86
642.887	10340.19
643.08	10325.86
643.273	10262.37
643.467	10375.01
643.66	10162.02
643.853	9789.29
644.046	10182.5
644.239	9987.94
644.432	10123.11
644.626	9871.21
644.819	9979.75
645.012	9721.71
645.205	9854.83
645.398	9881.45
645.591	9764.72
645.784	9629.55
645.977	9588.59
646.17	9475.95
646.363	9340.79
646.556	9293.68
646.749	9111.41
646.942	9449.33
647.135	9377.65
647.328	9023.35
647.521	9183.09
647.714	9011.06
647.907	8931.19
648.099	8767.35
648.292	8929.14
648.485	8912.76
648.678	8533.89
648.871	8505.21
649.064	8695.68
649.256	8603.52
649.449	8671.1
649.642	8662.91
649.835	8347.52
650.027	8464.25
650.22	8279.94
650.413	8220.55
650.605	8150.92
650.798	8316.8
650.991	8161.16
651.183	8218.5
651.376	7962.5
651.568	8144.77
651.761	7968.65
651.954	7917.45
652.146	7964.55
652.339	7823.24
652.531	7825.29
652.724	7890.82
652.916	7677.83
653.109	7708.55
653.301	7602.06
653.494	7526.29
653.686	7544.72
653.879	7542.67
654.071	7667.59
654.263	7278.48
654.456	7378.83
654.648	7470.99
654.84	7198.61
655.033	7061.4
655.225	7266.19
655.417	7049.11
655.61	7159.7
655.802	7137.17
655.994	6868.89
656.186	7055.25
656.379	6801.3
656.571	7071.64
656.763	6856.6
656.955	6721.43
657.148	6819.74
657.34	6819.74
657.532	6764.44
657.724	6516.64
657.916	6807.45
658.108	6651.8
658.3	6594.46
658.492	6578.08
658.684	6582.17
658.876	6631.32
659.068	6203.3
659.26	6391.71
659.452	6354.85
659.644	6504.35
659.836	6299.55
660.028	6356.9
660.22	5996.45
660.412	6074.28
660.604	6125.47
660.796	6004.64
660.988	5908.39
661.18	6064.04
661.372	6053.8
661.563	5984.16
661.755	5803.94
661.947	5869.48
662.139	5627.82
662.331	5719.98
662.522	5791.66
662.714	5769.13
662.906	5726.12
663.097	5619.63
663.289	5595.05
663.481	5613.48
663.673	5650.35
663.864	5347.25
664.056	5439.4
664.247	5502.89
664.439	5420.97
664.631	5468.08
664.822	5416.88
665.014	5330.86
665.205	5310.38
665.397	5326.77
665.588	5242.8
665.78	5093.3
665.971	5310.38
666.163	5138.35
666.354	5038
666.546	5185.46
666.737	5087.15
666.929	4872.12
667.12	5099.44
667.311	5038
667.503	4943.8
667.694	4982.71
667.885	4863.93
668.077	4810.68
668.268	4902.84
668.459	4857.78
668.651	4825.01
668.842	4894.65
669.033	4782.01
669.224	4806.58
669.416	4730.81
669.607	4628.41
669.798	4540.35
669.989	4575.16
670.18	4702.14
670.371	4800.44
670.563	4456.38
670.754	4423.61
670.945	4472.76
671.136	4401.08
671.327	4616.12
671.518	4380.61
671.709	4530.11
671.9	4493.24
672.091	4407.23
672.282	4331.45
672.473	4302.78
672.664	4358.08
672.855	4313.02
673.046	4335.55
673.237	4204.48
673.428	4206.53
673.619	4331.45
673.809	4294.59
674	4233.15
674.191	4112.32
674.382	4046.79
674.573	4206.53
674.764	4145.09
674.954	4179.9
675.145	4186.05
675.336	3954.63
675.527	4140.99
675.717	4048.83
675.908	3999.68
676.099	4026.31
676.289	3991.49
676.48	3841.99
676.671	3932.1
676.861	3983.3
677.052	3891.14
677.243	3852.23
677.433	3952.58
677.624	3940.29
677.814	3954.63
678.005	3979.2
678.195	3794.89
678.386	3903.43
678.576	3794.89
678.767	3768.26
678.957	3866.57
679.148	3698.63
679.338	3819.46
679.529	3866.57
679.719	3866.57
679.909	3786.69
680.1	3657.67
680.29	3598.28
680.481	3739.59
680.671	3696.58
680.861	3620.81
681.052	3606.47
681.242	3542.99
681.432	3583.95
681.622	3491.79
681.813	3487.69
682.003	3594.19
682.193	3497.93
682.383	3588.04
682.573	3620.81
682.764	3557.32
682.954	3524.55
683.144	3600.33
683.334	3536.84
683.524	3559.37
683.714	3463.12
683.904	3487.69
684.094	3651.53
684.284	3440.59
684.474	3420.11
684.664	3334.09
684.854	3491.79
685.044	3465.16
685.234	3344.33
685.424	3387.34
685.614	3411.92
685.804	3395.53
685.994	3370.96
686.184	3411.92
686.374	3346.38
686.564	3411.92
686.753	3448.78
686.943	3334.09
687.133	3198.93
687.323	3473.36
687.513	3284.94
687.702	3231.69
687.892	3151.82
688.082	3227.6
688.272	3346.38
688.461	3352.52
688.651	3260.37
688.841	3301.33
689.03	3280.85
689.22	3309.52
689.41	3198.93
689.599	3241.93
689.789	3317.71
689.979	3168.21
690.168	3213.26
690.358	3119.06
690.547	3196.88
690.737	3110.86
690.926	3332.05
691.116	3178.45
691.305	3243.98
691.495	3284.94
691.684	3104.72
691.874	3080.15
692.063	3186.64
692.252	3166.16
692.442	2973.65
692.631	3074
692.82	3030.99
693.01	3006.42
693.199	3168.21
693.388	3182.54
693.578	3096.53
693.767	3008.47
693.956	3110.86
694.146	2949.07
694.335	2985.94
694.524	3018.71
694.713	3022.8
694.902	3215.31
695.092	3090.38
695.281	3071.95
695.47	3074
695.659	3028.95
695.848	3030.99
696.037	3024.85
696.226	2930.64
696.415	3106.77
696.604	3071.95
696.793	2949.07
696.982	2934.74
697.171	2961.36
697.36	2932.69
697.549	2987.99
697.738	3137.49
697.927	3018.71
698.116	3016.66
698.305	3014.61
698.494	2971.6
698.683	2865.11
698.872	2998.23
699.061	2883.54
699.25	2947.03
699.438	2873.3
699.627	3074
699.816	2961.36
700.005	2981.84
700.193	2912.21
700.382	2957.27
700.571	2840.53
700.76	2895.83
700.948	2924.5
701.137	2875.35
701.326	2899.92
701.514	2922.45
701.703	2768.85
701.892	2883.54
702.08	2777.05
702.269	2875.35
702.457	2838.48
702.646	2897.88
702.834	2805.72
703.023	2787.29
703.212	2883.54
703.4	2807.77
703.589	2830.29
703.777	2959.31
703.965	2783.19
704.154	2801.62
704.342	2873.3
704.531	2764.76
704.719	2719.7
704.907	2883.54
705.096	2672.6
705.284	2727.89
705.472	2645.98
705.661	2734.04
705.849	2676.7
706.037	2656.22
706.226	2742.23
706.414	2775
706.602	2707.41
706.79	2639.83
706.979	2701.27
707.167	2746.33
707.355	2582.49
707.543	2652.12
707.731	2768.85
707.919	2637.78
708.107	2514.91
708.296	2519
708.484	2535.39
708.672	2641.88
708.86	2547.67
709.048	2602.97
709.236	2598.87
709.424	2574.3
709.612	2516.95
709.8	2465.75
709.988	2457.56
710.176	2602.97
710.364	2510.81
710.551	2498.52
710.739	2523.1
710.927	2449.37
711.115	2361.31
711.303	2260.96
711.491	2453.47
711.679	2361.31
711.866	2400.22
712.054	2473.95
712.242	2432.99
712.43	2392.03
712.617	2531.29
712.805	2265.05
712.993	2353.12
713.181	2332.64
713.368	2346.97
713.556	2326.49
713.744	2285.53
713.931	2336.73
714.119	2287.58
714.306	2293.73
714.494	2318.3
714.682	2404.32
714.869	2359.26
715.057	2238.43
715.244	2254.81
715.432	2230.24
715.619	2295.77
715.807	2269.15
715.994	2297.82
716.182	2170.85
716.369	2240.48
716.556	2252.77
716.744	2125.79
716.931	2228.19
717.119	2260.96
717.306	2142.18
717.493	2148.32
717.681	2062.3
717.868	2205.66
718.055	2146.27
718.242	2066.4
718.43	2191.33
718.617	2060.26
718.804	2101.22
718.991	2076.64
719.179	2062.3
719.366	2070.5
719.553	2086.88
719.74	2074.59
719.927	2080.74
720.114	2090.98
720.301	2140.13
720.488	2093.02
720.676	1986.53
720.863	1982.43
721.05	2047.97
721.237	1920.99
721.424	1974.24
721.611	2019.3
721.798	1867.75
721.985	1943.52
722.172	1982.43
722.358	1976.29
722.545	1859.56
722.732	1794.02
722.919	2007.01
723.106	1886.18
723.293	1902.56
723.48	1845.22
723.667	1884.13
723.853	1820.64
724.04	1884.13
724.227	1851.36
724.414	1953.76
724.6	1800.16
724.787	1826.79
724.974	1892.32
725.161	1769.44
725.347	1855.46
725.534	1849.32
725.72	1861.6
725.907	1736.68
726.094	1810.4
726.28	1726.44
726.467	1822.69
726.653	1785.83
726.84	1794.02
727.027	1789.92
727.213	1779.68
727.4	1863.65
727.586	1599.46
727.773	1705.96
727.959	1744.87
728.145	1681.38
728.332	1789.92
728.518	1632.23
728.705	1724.39
728.891	1703.91
729.077	1648.61
729.264	1748.97
729.45	1665
729.636	1656.81
729.823	1654.76
730.009	1693.67
730.195	1665
730.382	1585.13
730.568	1656.81
730.754	1675.24
730.94	1642.47
731.126	1613.8
731.313	1667.05
731.499	1621.99
731.685	1646.57
731.871	1593.32
732.057	1724.39
732.243	1593.32
732.429	1593.32
732.615	1548.26
732.801	1449.96
732.987	1683.43
733.173	1540.07
733.359	1474.54
733.545	1591.27
733.731	1435.63
733.917	1466.35
734.103	1464.3
734.289	1533.93
734.475	1472.49
734.661	1525.74
734.847	1503.21
735.033	1566.7
735.219	1550.31
735.404	1466.35
735.59	1550.31
735.776	1476.59
735.962	1449.96
736.148	1454.06
736.333	1507.31
736.519	1435.63
736.705	1490.92
736.89	1474.54
737.076	1413.1
737.262	1368.04
737.447	1345.52
737.633	1398.76
737.819	1427.43
738.004	1404.91
738.19	1351.66
738.375	1445.87
738.561	1400.81
738.747	1413.1
738.932	1337.32
739.118	1351.66
739.303	1406.95
739.489	1404.91
739.674	1402.86
739.859	1347.56
740.045	1337.32
740.23	1361.9
740.416	1286.12
740.601	1286.12
740.786	1390.57
740.972	1298.41
741.157	1286.12
741.342	1282.03
741.528	1355.76
741.713	1261.55
741.898	1163.25
742.084	1196.01
742.269	1220.59
742.454	1343.47
742.639	1228.78
742.824	1415.15
743.01	1261.55
743.195	1320.94
743.38	1263.6
743.565	1198.06
743.75	1206.25
743.935	1196.01
744.12	1232.88
744.305	1234.93
744.49	1183.73
744.675	1245.17
744.86	1222.64
745.045	1140.72
745.23	1144.81
745.415	1216.49
745.6	1134.57
745.785	1208.3
745.97	1124.33
746.155	1124.33
746.34	1101.81
746.525	1064.94
746.71	1110
746.895	1050.61
747.079	1007.6
747.264	1042.42
747.449	1191.92
747.634	1007.6
747.819	1060.85
748.003	1042.42
748.188	1077.23
748.373	1054.7
748.557	1081.33
748.742	1052.66
748.927	1048.56
749.111	1028.08
749.296	1050.61
749.481	1038.32
749.665	1050.61
749.85	1034.22
750.034	1005.55
750.219	1023.98
750.404	983.02
750.588	960.5
750.773	946.16
750.957	933.87
751.141	915.44
751.326	1001.46
751.51	880.63
751.695	921.59
751.879	1015.79
752.064	999.41
752.248	948.21
752.432	952.31
752.617	901.11
752.801	866.29
752.985	839.67
753.17	911.35
753.354	903.15
753.538	929.78
753.722	884.72
753.907	835.57
754.091	946.16
754.275	917.49
754.459	884.72
754.643	942.07
754.828	849.91
755.012	864.24
755.196	827.38
755.38	821.24
755.564	854
755.748	862.19
755.932	839.67
756.116	811
756.3	856.05
756.484	790.52
756.668	735.22
756.852	839.67
757.036	798.71
757.22	739.32
757.404	741.36
757.588	759.8
757.772	749.56
757.956	745.46
758.14	757.75
758.323	700.41
758.507	763.89
758.691	798.71
758.875	696.31
759.059	747.51
759.242	749.56
759.426	772.08
759.61	761.84
759.794	593.91
759.977	774.13
760.161	735.22
760.345	651.25
760.528	724.98
760.712	778.23
760.895	657.4
761.079	692.21
761.263	681.97
761.446	704.5
761.63	708.6
761.813	651.25
761.997	663.54
762.18	636.92
762.364	616.44
762.547	657.4
762.731	655.35
762.914	688.12
763.098	616.44
763.281	645.11
763.464	622.58
763.648	622.58
763.831	655.35
764.015	690.17
764.198	647.16
764.381	673.78
764.564	589.82
764.748	587.77
764.931	593.91
765.114	548.86
765.297	573.43
765.481	602.1
765.664	665.59
765.847	616.44
766.03	671.73
766.213	647.16
766.397	679.93
766.58	632.82
766.763	641.01
766.946	538.62
767.129	565.24
767.312	587.77
767.495	591.86
767.678	571.38
767.861	606.2
768.044	565.24
768.227	630.77
768.41	626.68
768.593	647.16
768.776	608.25
768.959	610.29
769.142	567.29
769.324	481.27
769.507	591.86
769.69	550.9
769.873	573.43
770.056	559.1
770.239	593.91
770.421	595.96
770.604	632.82
770.787	489.46
770.97	573.43
771.152	491.51
771.335	485.37
771.518	591.86
771.7	534.52
771.883	573.43
772.066	557.05
772.248	544.76
772.431	405.5
772.613	534.52
772.796	530.42
772.978	507.9
773.161	530.42
773.343	544.76
773.526	481.27
773.708	575.48
773.891	483.32
774.073	600.05
774.256	557.05
774.438	544.76
774.621	479.22
774.803	507.9
774.985	446.46
775.168	454.65
775.35	419.83
775.532	483.32
775.715	475.13
775.897	559.1
776.079	606.2
776.261	483.32
776.444	409.59
776.626	421.88
776.808	458.75
776.99	462.84
777.173	436.22
777.355	425.98
777.537	417.79
777.719	483.32
777.901	479.22
778.083	370.68
778.265	413.69
778.447	401.4
778.629	352.25
778.811	411.64
778.993	411.64
779.175	475.13
779.357	374.78
779.539	471.03
779.721	399.35
779.903	448.51
780.085	401.4
780.267	454.65
780.449	385.02
780.631	374.78
780.812	401.4
780.994	415.74
781.176	356.35
781.358	399.35
781.54	344.06
781.721	425.98
781.903	385.02
782.085	417.79
782.267	419.83
782.448	393.21
782.63	421.88
782.812	337.91
782.993	356.35
783.175	303.1
783.357	346.11
783.538	339.96
783.72	311.29
783.901	405.5
784.083	352.25
784.264	303.1
784.446	356.35
784.627	290.81
784.809	288.76
784.99	342.01
785.172	303.1
785.353	290.81
785.535	253.95
785.716	301.05
785.897	284.67
786.079	374.78
786.26	303.1
786.441	286.72
786.623	280.57
786.804	352.25
786.985	294.91
787.167	333.82
787.348	290.81
787.529	315.39
787.71	339.96
787.891	208.89
788.073	294.91
788.254	299
788.435	262.14
788.616	278.52
788.797	253.95
788.978	311.29
789.159	268.28
789.34	227.32
789.522	307.2
789.703	278.52
789.884	208.89
790.065	282.62
790.246	249.85
790.427	245.76
790.607	188.41
790.788	233.47
790.969	268.28
791.15	266.24
791.331	163.84
791.512	249.85
791.693	196.61
791.874	256
792.054	280.57
792.235	196.61
792.416	157.69
792.597	284.67
792.778	206.84
792.958	153.6
793.139	221.18
793.32	186.37
793.5	260.09
793.681	278.52
793.862	167.93
794.042	243.71
794.223	196.61
794.404	206.84
794.584	153.6
794.765	278.52
794.945	212.99
795.126	198.65
795.306	137.21
795.487	73.73
795.667	217.08
795.848	182.27
796.028	217.08
796.209	174.08
796.389	262.14
796.57	225.28
796.75	104.45
796.93	204.8
797.111	208.89
797.291	180.22
797.471	198.65
797.652	192.51
797.832	157.69
798.012	157.69
798.192	194.56
798.373	225.28
798.553	126.97
798.733	174.08
798.913	169.98
799.093	161.79
799.274	190.46
799.454	94.21
799.634	217.08
799.814	174.08
799.994	157.69
800.174	153.6
800.354	139.26
800.534	212.99
800.714	231.42
800.894	98.3
801.074	151.55
801.254	184.32
801.434	163.84
801.614	157.69
801.794	155.65
801.974	407.55
802.154	176.13
802.334	190.46
802.514	143.36
802.693	79.87
802.873	186.37
803.053	184.32
803.233	163.84
803.413	163.84
803.592	196.61
803.772	98.3
803.952	198.65
804.131	34.82
804.311	151.55
804.491	180.22
804.67	139.26
804.85	124.93
805.03	106.49
805.209	186.37
805.389	151.55
805.568	172.03
805.748	126.97
805.928	186.37
806.107	116.73
806.287	63.49
806.466	47.1
806.646	83.97
806.825	32.77
807.004	53.25
807.184	131.07
807.363	86.01
807.543	208.89
807.722	153.6
807.901	145.41
808.081	151.55
808.26	94.21
808.439	129.02
808.619	141.31
808.798	178.17
808.977	124.93
809.156	139.26
809.336	51.2
809.515	215.04
809.694	98.3
809.873	73.73
810.052	194.56
810.231	163.84
810.411	153.6
810.59	149.5
810.769	116.73
810.948	116.73
811.127	90.11
811.306	120.83
811.485	38.91
811.664	151.55
811.843	112.64
812.022	186.37
812.201	147.45
812.38	100.35
812.559	100.35
812.737	110.59
812.916	129.02
813.095	36.86
813.274	129.02
813.453	51.2
813.632	73.73
813.811	147.45
813.989	98.3
814.168	73.73
814.347	98.3
814.526	129.02
814.704	104.45
814.883	139.26
815.062	59.39
815.24	106.49
815.419	81.92
815.598	92.16
815.776	53.25
815.955	63.49
816.133	135.17
816.312	92.16
816.49	83.97
816.669	77.82
816.847	88.06
817.026	61.44
817.204	61.44
817.383	67.58
817.561	90.11
817.74	104.45
817.918	-24.58
818.097	118.78
818.275	28.67
818.453	81.92
818.632	20.48
818.81	98.3
818.988	57.34
819.167	86.01
819.345	45.06
819.523	90.11
819.701	83.97
819.879	143.36
820.058	67.58
820.236	57.34
820.414	65.54
820.592	69.63
820.77	122.88
820.948	106.49
821.127	92.16
821.305	57.34
821.483	81.92
821.661	106.49
821.839	73.73
822.017	83.97
822.195	73.73
822.373	155.65
822.551	67.58
822.729	49.15
822.907	65.54
823.085	90.11
823.262	141.31
823.44	106.49
823.618	135.17
823.796	38.91
823.974	-18.43
824.152	81.92
824.329	36.86
824.507	69.63
824.685	124.93
824.863	88.06
825.04	110.59
825.218	73.73
825.396	24.58
825.574	59.39
825.751	88.06
825.929	116.73
826.107	24.58
826.284	63.49
826.462	32.77
826.639	-2.05
826.817	118.78
826.994	38.91
827.172	65.54
827.349	28.67
827.527	73.73
827.704	67.58
827.882	53.25
828.059	63.49
828.237	-20.48
828.414	57.34
828.591	51.2
828.769	120.83
828.946	-14.34
829.124	69.63
829.301	92.16
829.478	83.97
829.655	81.92
829.833	98.3
830.01	-32.77
830.187	71.68
830.364	-10.24
830.542	63.49
830.719	90.11
830.896	73.73
831.073	129.02
831.25	18.43
831.427	81.92
831.604	43.01
831.782	71.68
831.959	163.84
832.136	92.16
832.313	59.39
832.49	61.44
832.667	47.1
832.844	8.19
833.021	81.92
833.198	51.2
833.374	34.82
833.551	65.54
833.728	-10.24
833.905	6.14
834.082	65.54
834.259	110.59
834.436	69.63
834.612	-16.38
834.789	63.49
834.966	53.25
835.143	6.14
835.319	57.34
835.496	20.48
835.673	55.3
835.85	61.44
836.026	67.58
836.203	28.67
836.38	24.58
836.556	-4.1
836.733	57.34
836.909	106.49
837.086	10.24
837.262	38.91
837.439	81.92
837.616	24.58
837.792	59.39
837.968	83.97
838.145	30.72
838.321	120.83
838.498	51.2
838.674	49.15
838.851	86.01
839.027	45.06
839.203	49.15
839.38	40.96
839.556	10.24
839.732	16.38
839.909	22.53
840.085	32.77
840.261	81.92
840.437	81.92
840.614	0
840.79	98.3
840.966	10.24
841.142	75.77
841.318	10.24
841.494	61.44
841.671	32.77
841.847	59.39
842.023	49.15
842.199	-32.77
842.375	26.62
842.551	40.96
842.727	49.15
842.903	26.62
843.079	-55.3
843.255	45.06
843.431	81.92
843.607	75.77
843.783	-77.82
843.959	45.06
844.134	-2.05
844.31	73.73
844.486	20.48
844.662	53.25
844.838	69.63
845.013	59.39
845.189	-32.77
845.365	63.49
845.541	45.06
845.716	63.49
845.892	49.15
846.068	59.39
846.244	45.06
846.419	43.01
846.595	16.38
846.77	0
846.946	4.1
847.122	59.39
847.297	0
847.473	32.77
847.648	-34.82
847.824	-45.06
847.999	30.72
848.175	73.73
848.35	-2.05
848.526	-8.19
848.701	53.25
848.876	-55.3
849.052	36.86
849.227	-6.14
849.403	34.82
849.578	81.92
849.753	20.48
849.929	-38.91
850.104	10.24
850.279	47.1
850.454	43.01
850.63	131.07
850.805	-30.72
850.98	61.44
851.155	-24.58
851.33	8.19
851.505	40.96
851.681	12.29
851.856	26.62
852.031	131.07
852.206	34.82
852.381	75.77
852.556	71.68
852.731	20.48
852.906	-12.29
853.081	88.06
853.256	10.24
853.431	-24.58
853.606	32.77
853.781	49.15
853.956	24.58
854.131	6.14
854.305	73.73
854.48	45.06
854.655	-65.53
854.83	26.62
855.005	34.82
855.18	43.01
855.354	-22.53
855.529	67.58
855.704	67.58
855.879	-16.38
856.053	0
856.228	-24.58
856.403	-34.82
856.577	32.77
856.752	73.73
856.926	0
857.101	8.19
857.276	112.64
857.45	20.48
857.625	51.2
857.799	73.73
857.974	0
858.148	-18.43
858.323	-8.19
858.497	28.67
858.672	57.34
858.846	16.38
859.02	51.2
859.195	-14.34
859.369	22.53
859.543	61.44
859.718	100.35
859.892	69.63
860.066	49.15
860.241	-45.06
860.415	-36.86
860.589	22.53
860.763	-51.2
860.938	24.58
861.112	18.43
861.286	53.25
861.46	36.86
861.634	-20.48
861.808	8.19
861.982	40.96
862.157	-16.38
862.331	10.24
862.505	-38.91
862.679	-36.86
862.853	77.82
863.027	40.96
863.201	57.34
863.375	-16.38
863.549	24.58
863.722	20.48
863.896	-28.67
864.07	57.34
864.244	36.86
864.418	-38.91
864.592	22.53
864.766	81.92
864.939	32.77
865.113	43.01
865.287	43.01
865.461	-45.06
865.634	-16.38
865.808	0
865.982	40.96
866.156	-43.01
866.329	-18.43
866.503	16.38
866.676	-12.29
866.85	-38.91
867.024	63.49
867.197	26.62
867.371	57.34
867.544	-32.77
867.718	-12.29
867.891	71.68
868.065	-57.34
868.238	-4.1
868.412	10.24
868.585	47.1
868.759	6.14
868.932	14.34
869.105	-6.14
869.279	2.05
869.452	0
869.625	49.15
869.799	-4.1
869.972	30.72
870.145	16.38
870.319	-61.44
870.492	40.96
870.665	12.29
870.838	73.73
871.011	-12.29
871.185	-32.77
871.358	53.25
871.531	43.01
871.704	8.19
871.877	26.62
872.05	53.25
872.223	16.38
872.396	-14.34
872.569	22.53
872.742	-8.19
872.915	59.39
873.088	16.38
873.261	18.43
873.434	57.34
873.607	-22.53
873.78	67.58
873.953	53.25
874.126	-28.67
874.299	57.34
874.471	43.01
874.644	26.62
874.817	90.11
874.99	16.38
875.163	20.48
875.335	24.58
875.508	-79.87
875.681	36.86
875.853	-4.1
876.026	-22.53
876.199	-63.49
876.371	-6.14
876.544	-4.1
876.717	-4.1
876.889	4.1
877.062	10.24
877.234	-98.3
877.407	0
877.579	-24.58
877.752	67.58
877.924	-120.83
878.097	12.29
878.269	12.29
878.442	30.72
878.614	-14.34
878.786	63.49
878.959	-2.05
879.131	28.67
879.303	65.54
879.476	8.19
879.648	-45.06
879.82	28.67
879.993	-32.77
880.165	45.06
880.337	28.67
880.509	-14.34
880.681	-53.25
880.854	0
881.026	-36.86
881.198	45.06
881.37	40.96
881.542	10.24
881.714	43.01
881.886	28.67
882.058	51.2
882.23	34.82
882.402	30.72
882.574	36.86
882.746	2.05
882.918	-12.29
883.09	-32.77
883.262	10.24
883.434	24.58
883.606	34.82
883.778	2.05
883.95	55.3
884.122	-8.19
884.293	28.67
884.465	-10.24
884.637	0
884.809	-16.38
884.98	24.58
885.152	-8.19
885.324	67.58
885.496	10.24
885.667	32.77
885.839	16.38
886.011	12.29
886.182	4.1
886.354	10.24
886.525	6.14
886.697	0
886.869	32.77
887.04	-26.62
887.212	-40.96
887.383	49.15
887.555	-14.34
887.726	-34.82
887.897	49.15
888.069	-55.3
888.24	69.63
888.412	53.25
888.583	-38.91
888.754	-32.77
888.926	-16.38
889.097	-38.91
889.268	-24.58
889.44	26.62
889.611	-4.1
889.782	8.19
889.953	-4.1
890.125	-26.62
890.296	55.3
890.467	65.54
890.638	-28.67
890.809	61.44
890.98	-14.34
891.151	-12.29
891.323	4.1
891.494	8.19
891.665	2.05
891.836	20.48
892.007	0
892.178	-47.1
892.349	-36.86
892.52	71.68
892.691	-2.05
892.862	14.34
893.032	10.24
893.203	-38.91
893.374	40.96
893.545	32.77
893.716	8.19
893.887	2.05
894.057	77.82
894.228	63.49
894.399	4.1
894.57	47.1
894.74	-49.15
894.911	-16.38
895.082	0
895.253	-38.91
895.423	-118.78
895.594	57.34
895.764	-16.38
895.935	2.05
896.106	-14.34
896.276	-22.53
896.447	-10.24
896.617	30.72
896.788	-24.58
896.958	-24.58
897.129	24.58
897.299	16.38
897.47	30.72
897.64	10.24
897.81	43.01
897.981	-18.43
898.151	-10.24
898.322	-18.43
898.492	4.1
898.662	53.25
898.832	57.34
899.003	-32.77
899.173	-24.58
899.343	36.86
899.513	-14.34
