Data from USB4F104151__33__13-52-50-641.txt Node

Date: Thu Mar 13 13:52:50 EDT 2025
User: louis
Spectrometer: USB4F10415
Trigger mode: 4
Integration Time (sec): 1.000000E-2
Scans to average: 1
Electric dark correction enabled: true
Nonlinearity correction enabled: false
Boxcar width: 0
XAxis mode: Wavelengths
Number of Pixels in Spectrum: 3648
>>>>>Begin Spectral Data<<<<<
178.204	-20.99
178.424	-20.99
178.644	-20.99
178.864	-74.24
179.084	-33.28
179.304	-16.9
179.524	42.5
179.744	-29.18
179.964	32.26
180.184	15.87
180.404	-61.95
180.624	-74.24
180.844	1.54
181.064	26.11
181.283	32.26
181.503	-33.28
181.723	65.02
181.943	7.68
182.163	73.21
182.383	50.69
182.602	38.4
182.822	34.3
183.042	62.98
183.262	-0.51
183.482	83.45
183.701	32.26
183.921	15.87
184.141	13.82
184.361	28.16
184.58	-6.66
184.8	40.45
185.02	-29.18
185.239	22.02
185.459	65.02
185.679	48.64
185.898	-4.61
186.118	71.17
186.338	105.98
186.557	60.93
186.777	40.45
186.997	9.73
187.216	-8.7
187.436	-66.05
187.655	-16.9
187.875	52.74
188.095	-8.7
188.314	-4.61
188.534	62.98
188.753	42.5
188.973	-23.04
189.192	13.82
189.412	-18.94
189.631	71.17
189.851	-23.04
190.07	19.97
190.29	15.87
190.509	-51.71
190.729	-6.66
190.948	44.54
191.168	83.45
191.387	44.54
191.607	1.54
191.826	9.73
192.045	-0.51
192.265	48.64
192.484	42.5
192.704	40.45
192.923	-41.47
193.142	-23.04
193.362	9.73
193.581	71.17
193.8	30.21
194.02	15.87
194.239	22.02
194.458	48.64
194.678	7.68
194.897	65.02
195.116	9.73
195.335	65.02
195.555	24.06
195.774	26.11
195.993	36.35
196.212	-14.85
196.432	26.11
196.651	62.98
196.87	7.68
197.089	50.69
197.308	-20.99
197.528	69.12
197.747	-49.66
197.966	-4.61
198.185	38.4
198.404	3.58
198.623	-37.38
198.842	54.78
199.062	24.06
199.281	24.06
199.5	3.58
199.719	-16.9
199.938	48.64
200.157	44.54
200.376	7.68
200.595	28.16
200.814	1.54
201.033	42.5
201.252	-76.29
201.471	48.64
201.69	17.92
201.909	40.45
202.128	-59.9
202.347	77.31
202.566	22.02
202.785	44.54
203.004	1.54
203.223	34.3
203.442	-49.66
203.661	-78.33
203.879	30.21
204.098	93.69
204.317	-47.62
204.536	-10.75
204.755	-31.23
204.974	34.3
205.193	-4.61
205.411	3.58
205.63	38.4
205.849	-14.85
206.068	13.82
206.287	28.16
206.505	-45.57
206.724	-20.99
206.943	-33.28
207.162	99.84
207.381	26.11
207.599	58.88
207.818	73.21
208.037	163.33
208.255	42.5
208.474	24.06
208.693	52.74
208.911	46.59
209.13	-8.7
209.349	19.97
209.567	1.54
209.786	42.5
210.005	44.54
210.223	112.13
210.442	11.78
210.661	-10.75
210.879	77.31
211.098	11.78
211.316	83.45
211.535	-4.61
211.753	17.92
211.972	1.54
212.191	32.26
212.409	30.21
212.628	28.16
212.846	-18.94
213.065	30.21
213.283	11.78
213.502	-14.85
213.72	11.78
213.938	69.12
214.157	-6.66
214.375	58.88
214.594	46.59
214.812	-70.14
215.031	22.02
215.249	-12.8
215.467	-33.28
215.686	3.58
215.904	28.16
216.122	-55.81
216.341	11.78
216.559	50.69
216.778	93.69
216.996	-8.7
217.214	-4.61
217.432	62.98
217.651	9.73
217.869	71.17
218.087	-27.14
218.306	77.31
218.524	15.87
218.742	46.59
218.96	22.02
219.179	17.92
219.397	73.21
219.615	-88.57
219.833	40.45
220.051	-6.66
220.27	24.06
220.488	30.21
220.706	13.82
220.924	-16.9
221.142	15.87
221.36	1.54
221.578	24.06
221.796	7.68
222.015	32.26
222.233	22.02
222.451	17.92
222.669	52.74
222.887	81.41
223.105	52.74
223.323	-18.94
223.541	-4.61
223.759	-4.61
223.977	81.41
224.195	54.78
224.413	50.69
224.631	-27.14
224.849	-37.38
225.067	77.31
225.285	34.3
225.503	79.36
225.721	32.26
225.939	46.59
226.157	56.83
226.375	62.98
226.592	-18.94
226.81	-27.14
227.028	-14.85
227.246	52.74
227.464	44.54
227.682	-10.75
227.9	5.63
228.117	26.11
228.335	3.58
228.553	60.93
228.771	71.17
228.989	-0.51
229.206	52.74
229.424	56.83
229.642	62.98
229.86	-10.75
230.077	95.74
230.295	-18.94
230.513	58.88
230.731	58.88
230.948	56.83
231.166	28.16
231.384	11.78
231.601	-39.42
231.819	50.69
232.037	24.06
232.254	5.63
232.472	-2.56
232.689	28.16
232.907	19.97
233.125	-27.14
233.342	46.59
233.56	50.69
233.777	42.5
233.995	5.63
234.213	91.65
234.43	69.12
234.648	22.02
234.865	1.54
235.083	52.74
235.3	56.83
235.518	22.02
235.735	30.21
235.953	-2.56
236.17	79.36
236.388	46.59
236.605	19.97
236.822	19.97
237.04	34.3
237.257	17.92
237.475	52.74
237.692	34.3
237.909	58.88
238.127	-14.85
238.344	15.87
238.562	58.88
238.779	52.74
238.996	3.58
239.214	5.63
239.431	62.98
239.648	-8.7
239.865	110.08
240.083	58.88
240.3	36.35
240.517	-2.56
240.735	-39.42
240.952	15.87
241.169	22.02
241.386	17.92
241.603	-4.61
241.821	128.51
242.038	87.55
242.255	-12.8
242.472	-31.23
242.689	-10.75
242.907	-25.09
243.124	38.4
243.341	-8.7
243.558	32.26
243.775	36.35
243.992	60.93
244.209	28.16
244.426	38.4
244.643	44.54
244.86	17.92
245.078	-20.99
245.295	75.26
245.512	56.83
245.729	36.35
245.946	-35.33
246.163	103.93
246.38	-20.99
246.597	-41.47
246.814	95.74
247.031	-0.51
247.248	52.74
247.464	58.88
247.681	-37.38
247.898	13.82
248.115	44.54
248.332	-8.7
248.549	122.37
248.766	-31.23
248.983	44.54
249.2	-23.04
249.417	-33.28
249.633	69.12
249.85	81.41
250.067	-4.61
250.284	40.45
250.501	15.87
250.717	1.54
250.934	9.73
251.151	-16.9
251.368	83.45
251.585	11.78
251.801	1.54
252.018	22.02
252.235	-14.85
252.451	44.54
252.668	77.31
252.885	81.41
253.102	65.02
253.318	7.68
253.535	48.64
253.752	1.54
253.968	17.92
254.185	99.84
254.401	48.64
254.618	-27.14
254.835	-37.38
255.051	15.87
255.268	26.11
255.484	30.21
255.701	38.4
255.917	48.64
256.134	-25.09
256.351	-25.09
256.567	22.02
256.784	-2.56
257	26.11
257.217	-0.51
257.433	52.74
257.65	-18.94
257.866	36.35
258.082	13.82
258.299	48.64
258.515	32.26
258.732	1.54
258.948	54.78
259.165	36.35
259.381	-45.57
259.597	46.59
259.814	11.78
260.03	26.11
260.246	73.21
260.463	-10.75
260.679	-10.75
260.895	44.54
261.112	62.98
261.328	89.6
261.544	34.3
261.761	48.64
261.977	60.93
262.193	5.63
262.409	7.68
262.626	42.5
262.842	62.98
263.058	-2.56
263.274	65.02
263.49	22.02
263.707	19.97
263.923	19.97
264.139	77.31
264.355	3.58
264.571	13.82
264.787	79.36
265.004	30.21
265.22	101.89
265.436	11.78
265.652	69.12
265.868	73.21
266.084	-31.23
266.3	15.87
266.516	50.69
266.732	5.63
266.948	30.21
267.164	36.35
267.38	-6.66
267.596	24.06
267.812	36.35
268.028	-25.09
268.244	60.93
268.46	17.92
268.676	77.31
268.892	-0.51
269.108	-57.86
269.324	24.06
269.54	11.78
269.756	75.26
269.972	87.55
270.188	34.3
270.403	62.98
270.619	50.69
270.835	48.64
271.051	-27.14
271.267	62.98
271.483	-4.61
271.698	50.69
271.914	91.65
272.13	85.5
272.346	40.45
272.562	40.45
272.777	46.59
272.993	-2.56
273.209	-2.56
273.425	3.58
273.64	28.16
273.856	22.02
274.072	22.02
274.287	38.4
274.503	1.54
274.719	71.17
274.934	19.97
275.15	-2.56
275.366	40.45
275.581	17.92
275.797	24.06
276.012	77.31
276.228	67.07
276.444	54.78
276.659	40.45
276.875	30.21
277.09	1.54
277.306	13.82
277.521	-4.61
277.737	30.21
277.952	-16.9
278.168	40.45
278.383	17.92
278.599	-70.14
278.814	3.58
279.03	-72.19
279.245	97.79
279.461	79.36
279.676	30.21
279.892	1.54
280.107	5.63
280.322	15.87
280.538	-82.43
280.753	11.78
280.969	-53.76
281.184	50.69
281.399	30.21
281.615	44.54
281.83	40.45
282.045	7.68
282.26	73.21
282.476	-0.51
282.691	58.88
282.906	77.31
283.122	22.02
283.337	42.5
283.552	97.79
283.767	-4.61
283.983	101.89
284.198	-6.66
284.413	-4.61
284.628	56.83
284.843	-4.61
285.058	-10.75
285.274	5.63
285.489	22.02
285.704	42.5
285.919	36.35
286.134	24.06
286.349	19.97
286.564	-12.8
286.779	48.64
286.995	69.12
287.21	28.16
287.425	22.02
287.64	7.68
287.855	-8.7
288.07	52.74
288.285	50.69
288.5	65.02
288.715	48.64
288.93	24.06
289.145	44.54
289.36	79.36
289.575	34.3
289.79	38.4
290.004	5.63
290.219	34.3
290.434	1.54
290.649	5.63
290.864	93.69
291.079	-8.7
291.294	73.21
291.509	-14.85
291.724	24.06
291.938	22.02
292.153	60.93
292.368	-29.18
292.583	-25.09
292.798	26.11
293.012	13.82
293.227	-53.76
293.442	-23.04
293.657	34.3
293.871	69.12
294.086	50.69
294.301	122.37
294.516	62.98
294.73	65.02
294.945	50.69
295.16	-6.66
295.374	-8.7
295.589	48.64
295.804	3.58
296.018	32.26
296.233	69.12
296.447	5.63
296.662	17.92
296.877	46.59
297.091	114.17
297.306	71.17
297.52	-20.99
297.735	60.93
297.949	28.16
298.164	11.78
298.378	11.78
298.593	19.97
298.807	11.78
299.022	24.06
299.236	40.45
299.451	81.41
299.665	24.06
299.88	-8.7
300.094	75.26
300.309	22.02
300.523	34.3
300.737	7.68
300.952	67.07
301.166	120.32
301.381	26.11
301.595	87.55
301.809	114.17
302.024	110.08
302.238	44.54
302.452	50.69
302.667	71.17
302.881	24.06
303.095	36.35
303.309	46.59
303.524	-2.56
303.738	-12.8
303.952	-33.28
304.166	28.16
304.381	50.69
304.595	-37.38
304.809	-25.09
305.023	-64
305.237	17.92
305.452	67.07
305.666	28.16
305.88	-14.85
306.094	-45.57
306.308	28.16
306.522	52.74
306.736	85.5
306.95	85.5
307.164	30.21
307.379	36.35
307.593	50.69
307.807	-0.51
308.021	83.45
308.235	89.6
308.449	75.26
308.663	-25.09
308.877	144.89
309.091	56.83
309.305	-0.51
309.519	-29.18
309.733	83.45
309.947	-10.75
310.161	99.84
310.374	67.07
310.588	36.35
310.802	-18.94
311.016	-0.51
311.23	28.16
311.444	56.83
311.658	60.93
311.872	-25.09
312.085	13.82
312.299	93.69
312.513	48.64
312.727	73.21
312.941	9.73
313.154	9.73
313.368	40.45
313.582	26.11
313.796	-12.8
314.009	95.74
314.223	9.73
314.437	62.98
314.651	28.16
314.864	13.82
315.078	-10.75
315.292	-43.52
315.505	36.35
315.719	28.16
315.933	44.54
316.146	38.4
316.36	-10.75
316.573	7.68
316.787	7.68
317.001	-12.8
317.214	19.97
317.428	48.64
317.641	11.78
317.855	-27.14
318.068	56.83
318.282	32.26
318.495	38.4
318.709	7.68
318.922	15.87
319.136	28.16
319.349	69.12
319.563	38.4
319.776	75.26
319.99	11.78
320.203	103.93
320.417	56.83
320.63	38.4
320.843	-16.9
321.057	7.68
321.27	46.59
321.483	54.78
321.697	56.83
321.91	60.93
322.124	65.02
322.337	5.63
322.55	-2.56
322.763	19.97
322.977	19.97
323.19	42.5
323.403	99.84
323.617	-14.85
323.83	77.31
324.043	28.16
324.256	42.5
324.469	-39.42
324.683	81.41
324.896	36.35
325.109	-10.75
325.322	32.26
325.535	3.58
325.748	7.68
325.962	17.92
326.175	34.3
326.388	36.35
326.601	-0.51
326.814	-37.38
327.027	36.35
327.24	9.73
327.453	56.83
327.666	73.21
327.879	73.21
328.092	54.78
328.305	44.54
328.518	50.69
328.731	60.93
328.944	52.74
329.157	1.54
329.37	93.69
329.583	-25.09
329.796	28.16
330.009	40.45
330.222	93.69
330.435	56.83
330.648	-4.61
330.861	62.98
331.073	38.4
331.286	58.88
331.499	101.89
331.712	56.83
331.925	62.98
332.138	-33.28
332.35	15.87
332.563	58.88
332.776	52.74
332.989	11.78
333.202	30.21
333.414	3.58
333.627	-0.51
333.84	-39.42
334.053	-37.38
334.265	36.35
334.478	9.73
334.691	-39.42
334.903	46.59
335.116	79.36
335.329	54.78
335.541	83.45
335.754	83.45
335.966	13.82
336.179	9.73
336.392	75.26
336.604	1.54
336.817	36.35
337.029	38.4
337.242	71.17
337.454	22.02
337.667	44.54
337.88	17.92
338.092	62.98
338.305	46.59
338.517	48.64
338.729	105.98
338.942	87.55
339.154	-6.66
339.367	71.17
339.579	5.63
339.792	58.88
340.004	26.11
340.217	11.78
340.429	52.74
340.641	-27.14
340.854	17.92
341.066	71.17
341.278	83.45
341.491	28.16
341.703	42.5
341.915	22.02
342.128	19.97
342.34	11.78
342.552	56.83
342.764	17.92
342.977	87.55
343.189	-20.99
343.401	11.78
343.613	-16.9
343.826	30.21
344.038	-68.09
344.25	7.68
344.462	22.02
344.674	42.5
344.886	36.35
345.099	54.78
345.311	38.4
345.523	44.54
345.735	-6.66
345.947	62.98
346.159	19.97
346.371	13.82
346.583	79.36
346.795	157.18
347.007	34.3
347.219	-14.85
347.431	-8.7
347.643	42.5
347.855	44.54
348.067	-2.56
348.279	93.69
348.491	38.4
348.703	28.16
348.915	-47.62
349.127	24.06
349.339	13.82
349.551	-8.7
349.763	81.41
349.975	-12.8
350.187	32.26
350.399	67.07
350.61	40.45
350.822	42.5
351.034	3.58
351.246	-47.62
351.458	19.97
351.669	48.64
351.881	52.74
352.093	79.36
352.305	62.98
352.517	24.06
352.728	-4.61
352.94	-31.23
353.152	-12.8
353.363	71.17
353.575	-8.7
353.787	118.27
353.999	19.97
354.21	11.78
354.422	83.45
354.633	30.21
354.845	77.31
355.057	81.41
355.268	15.87
355.48	73.21
355.692	9.73
355.903	-20.99
356.115	56.83
356.326	-29.18
356.538	75.26
356.749	-14.85
356.961	89.6
357.172	-0.51
357.384	-18.94
357.595	65.02
357.807	15.87
358.018	85.5
358.23	89.6
358.441	93.69
358.653	30.21
358.864	-18.94
359.075	77.31
359.287	-2.56
359.498	75.26
359.709	5.63
359.921	85.5
360.132	32.26
360.344	24.06
360.555	58.88
360.766	40.45
360.977	46.59
361.189	-10.75
361.4	50.69
361.611	75.26
361.823	40.45
362.034	69.12
362.245	65.02
362.456	46.59
362.667	-33.28
362.879	38.4
363.09	44.54
363.301	24.06
363.512	7.68
363.723	-8.7
363.935	71.17
364.146	60.93
364.357	114.17
364.568	34.3
364.779	46.59
364.99	73.21
365.201	34.3
365.412	52.74
365.623	5.63
365.834	52.74
366.045	67.07
366.256	30.21
366.467	13.82
366.678	-10.75
366.889	-4.61
367.1	19.97
367.311	26.11
367.522	46.59
367.733	5.63
367.944	126.46
368.155	34.3
368.366	44.54
368.577	11.78
368.788	65.02
368.999	-0.51
369.209	85.5
369.42	73.21
369.631	73.21
369.842	73.21
370.053	56.83
370.264	38.4
370.474	34.3
370.685	50.69
370.896	62.98
371.107	85.5
371.317	48.64
371.528	93.69
371.739	79.36
371.95	-55.81
372.16	58.88
372.371	-6.66
372.582	-12.8
372.792	5.63
373.003	32.26
373.214	85.5
373.424	65.02
373.635	52.74
373.846	30.21
374.056	83.45
374.267	101.89
374.477	36.35
374.688	44.54
374.898	89.6
375.109	7.68
375.319	38.4
375.53	17.92
375.74	40.45
375.951	75.26
376.161	85.5
376.372	9.73
376.582	32.26
376.793	58.88
377.003	54.78
377.214	157.18
377.424	-8.7
377.635	32.26
377.845	44.54
378.055	89.6
378.266	34.3
378.476	24.06
378.686	38.4
378.897	36.35
379.107	52.74
379.317	40.45
379.528	17.92
379.738	54.78
379.948	3.58
380.158	-18.94
380.369	42.5
380.579	85.5
380.789	42.5
380.999	34.3
381.21	50.69
381.42	24.06
381.63	13.82
381.84	13.82
382.05	54.78
382.261	26.11
382.471	-8.7
382.681	-39.42
382.891	77.31
383.101	50.69
383.311	58.88
383.521	46.59
383.731	60.93
383.941	75.26
384.151	-64
384.361	7.68
384.571	65.02
384.781	42.5
384.991	24.06
385.201	26.11
385.411	24.06
385.621	48.64
385.831	73.21
386.041	87.55
386.251	30.21
386.461	140.8
386.671	75.26
386.881	91.65
387.091	81.41
387.301	93.69
387.511	13.82
387.72	-31.23
387.93	65.02
388.14	36.35
388.35	67.07
388.56	5.63
388.769	3.58
388.979	95.74
389.189	52.74
389.399	54.78
389.609	91.65
389.818	60.93
390.028	69.12
390.238	62.98
390.447	3.58
390.657	87.55
390.867	38.4
391.076	40.45
391.286	19.97
391.496	56.83
391.705	34.3
391.915	26.11
392.125	3.58
392.334	85.5
392.544	48.64
392.753	95.74
392.963	9.73
393.172	153.09
393.382	73.21
393.591	112.13
393.801	85.5
394.01	105.98
394.22	56.83
394.429	69.12
394.639	89.6
394.848	85.5
395.058	42.5
395.267	81.41
395.477	-2.56
395.686	36.35
395.895	-18.94
396.105	34.3
396.314	85.5
396.524	110.08
396.733	7.68
396.942	30.21
397.152	44.54
397.361	40.45
397.57	132.61
397.78	81.41
397.989	69.12
398.198	116.22
398.407	13.82
398.617	79.36
398.826	124.41
399.035	79.36
399.244	54.78
399.453	58.88
399.663	71.17
399.872	105.98
400.081	103.93
400.29	120.32
400.499	99.84
400.708	22.02
400.917	9.73
401.127	15.87
401.336	101.89
401.545	48.64
401.754	77.31
401.963	52.74
402.172	112.13
402.381	122.37
402.59	71.17
402.799	-6.66
403.008	95.74
403.217	79.36
403.426	146.94
403.635	136.7
403.844	187.9
404.053	116.22
404.262	103.93
404.471	148.99
404.68	79.36
404.888	144.89
405.097	38.4
405.306	73.21
405.515	118.27
405.724	108.03
405.933	110.08
406.142	181.76
406.35	159.23
406.559	118.27
406.768	97.79
406.977	183.81
407.185	171.52
407.394	179.71
407.603	132.61
407.812	146.94
408.02	120.32
408.229	114.17
408.438	130.56
408.646	101.89
408.855	220.67
409.064	192
409.272	67.07
409.481	175.61
409.69	224.76
409.898	251.39
410.107	151.04
410.315	220.67
410.524	249.34
410.733	194.05
410.941	148.99
411.15	273.92
411.358	282.11
411.567	228.86
411.775	230.91
411.984	308.73
412.192	300.54
412.401	243.2
412.609	318.97
412.818	278.01
413.026	290.3
413.234	353.79
413.443	368.12
413.651	359.93
413.86	327.16
414.068	394.75
414.276	466.42
414.485	341.5
414.693	482.81
414.901	427.51
415.11	466.42
415.318	359.93
415.526	431.61
415.734	521.72
415.943	458.23
416.151	605.69
416.359	546.3
416.567	593.4
416.776	591.35
416.984	536.06
417.192	622.07
417.4	646.65
417.608	644.6
417.817	724.47
418.025	699.89
418.233	790
418.441	759.28
418.649	839.16
418.857	878.07
419.065	869.87
419.273	888.31
419.481	886.26
419.689	937.46
419.897	953.84
420.105	1031.66
420.313	1000.94
420.521	1064.43
420.729	992.75
420.937	1162.73
421.145	1168.88
421.353	1203.69
421.561	1295.85
421.769	1328.62
421.977	1379.82
422.185	1322.48
422.393	1404.39
422.601	1396.2
422.809	1469.93
423.017	1480.17
423.224	1500.65
423.432	1635.82
423.64	1592.81
423.848	1713.64
424.056	1750.5
424.263	1955.3
424.471	1869.28
424.679	1830.37
424.887	1971.68
425.094	2057.7
425.302	2061.79
425.51	2053.6
425.718	2149.86
425.925	2147.81
426.133	2368.99
426.341	2401.76
426.548	2506.2
426.756	2532.83
426.964	2606.55
427.171	2713.05
427.379	2780.63
427.586	2821.59
427.794	3010
428.001	2872.79
428.209	3065.3
428.417	3222.99
428.624	3268.05
428.832	3358.16
429.039	3278.29
429.247	3333.58
429.454	3753.41
429.662	3859.91
429.869	3677.64
430.076	3810.76
430.284	3714.5
430.491	3882.44
430.699	4242.88
430.906	4087.23
431.114	4289.98
431.321	4380.09
431.528	4406.72
431.736	4675
431.943	5010.87
432.15	4793.78
432.358	4937.14
432.565	5111.22
432.772	5207.47
432.979	5430.7
433.187	5598.63
433.394	5621.16
433.601	5893.54
433.808	5840.29
434.016	5942.69
434.223	6133.15
434.43	6301.09
434.637	6116.77
434.844	6833.56
435.052	6862.23
435.259	6813.08
435.466	6804.89
435.673	6729.11
435.88	7304.59
436.087	7703.95
436.294	7607.69
436.501	7447.95
436.708	7662.99
436.915	7765.39
437.122	8111.49
437.329	8230.27
437.537	8609.15
437.743	8746.36
437.95	8654.2
438.157	8826.23
438.364	9454.96
438.571	9260.4
438.778	9313.65
438.985	10130.79
439.192	9606.51
439.399	10003.82
439.606	9770.35
439.813	10562.91
440.02	10927.45
440.227	10722.65
440.433	10820.95
440.64	11238.74
440.847	11087.19
441.054	11197.78
441.261	11867.47
441.467	12115.27
441.674	12215.62
441.881	12614.98
442.088	12428.61
442.294	12619.07
442.501	12819.77
442.708	13176.12
442.914	13741.36
443.121	13970.73
443.328	13663.54
443.534	14527.78
443.741	14361.89
443.948	14335.27
444.154	15107.35
444.361	14759.2
444.568	15133.98
444.774	15224.09
444.981	15410.45
445.187	15781.14
445.394	16491.78
445.6	16284.94
445.807	18066.67
446.013	16971.01
446.22	17339.64
446.426	17898.73
446.633	18408.68
446.839	18746.59
447.046	18046.19
447.252	19129.56
447.459	19139.8
447.665	18955.49
447.871	19553.49
448.078	20704.45
448.284	19602.64
448.491	20167.88
448.697	20909.25
448.903	21277.88
449.11	21386.43
449.316	20942.02
449.522	21523.64
449.728	21765.3
449.935	22178.99
450.141	21972.14
450.347	22795.43
450.553	21720.24
450.76	22037.68
450.966	22856.87
451.172	22432.94
451.378	23458.97
451.584	22680.74
451.791	23258.27
451.997	23202.97
452.203	23262.37
452.409	23483.55
452.615	23139.49
452.821	22215.85
453.027	22140.08
453.233	23327.9
453.44	22615.21
453.646	22754.47
453.852	22760.61
454.058	23268.51
454.264	22387.88
454.47	22697.13
454.676	22154.41
454.882	23135.39
455.088	21228.73
455.294	21497.02
455.5	21511.35
455.705	21951.67
455.911	21066.94
456.117	20380.87
456.323	20030.67
456.529	19164.38
456.735	20184.27
456.941	19356.89
457.147	19252.44
457.352	18564.32
457.558	18412.78
457.764	18461.93
457.97	17894.64
458.176	17319.16
458.381	17759.47
458.587	16504.07
458.793	16758.02
458.999	15897.87
459.204	16688.39
459.41	16506.12
459.616	15101.21
459.821	15299.86
460.027	15426.84
460.233	15109.4
460.438	14306.6
460.644	14603.55
460.85	13839.66
461.055	13622.58
461.261	13532.47
461.466	12528.96
461.672	12340.55
461.878	13258.04
462.083	12561.73
462.289	11951.43
462.494	12213.57
462.7	11556.18
462.905	11031.9
463.111	11513.17
463.316	11457.87
463.522	11408.72
463.727	11582.8
463.932	11455.83
464.138	11273.56
464.343	11220.31
464.549	10798.43
464.754	11341.14
464.959	11302.23
465.165	11115.86
465.37	10792.28
465.575	10333.54
465.781	10761.56
465.986	10812.76
466.191	10679.65
466.397	10167.65
466.602	9710.96
466.807	10255.72
467.012	10214.76
467.218	9954.66
467.423	9848.17
467.628	10018.15
467.833	10433.89
468.038	10157.41
468.244	9473.39
468.449	10222.95
468.654	9827.69
468.859	9813.35
469.064	9647.47
469.269	9407.86
469.474	9176.44
469.679	9686.38
469.885	9348.47
470.09	9389.42
470.295	9407.86
470.5	9237.88
470.705	9125.24
470.91	9205.11
471.115	8934.78
471.32	9024.89
471.525	8965.5
471.73	8830.33
471.935	8605.05
472.139	8551.81
472.344	8451.46
472.549	8539.52
472.754	8295.81
472.959	8166.79
473.164	8174.98
473.369	7757.19
473.574	8316.29
473.778	8084.87
473.983	7773.58
474.188	8107.4
474.393	7673.23
474.598	7759.24
474.802	7595.4
475.007	7556.49
475.212	7658.89
475.417	7251.35
475.621	7423.37
475.826	7447.95
476.031	7296.4
476.235	7091.6
476.44	7292.3
476.645	6938.01
476.849	6972.82
477.054	6901.14
477.259	6774.17
477.463	6874.52
477.668	6694.3
477.872	6819.22
478.077	6600.09
478.282	6626.71
478.486	6587.8
478.691	6262.18
478.895	6378.91
479.1	6270.37
479.304	6294.94
479.509	6204.83
479.713	6368.67
479.918	6067.62
480.122	6002.08
480.326	6147.49
480.531	6118.82
480.735	6141.35
480.94	6231.46
481.144	6354.34
481.348	5971.36
481.553	5934.5
481.757	5924.26
481.961	6075.81
482.166	6129.06
482.37	5983.65
482.574	6129.06
482.778	5918.12
482.983	6067.62
483.187	6020.52
483.391	5989.8
483.595	5973.41
483.8	5778.86
484.004	5997.99
484.208	5969.32
484.412	5920.17
484.616	6098.34
484.821	5844.39
485.025	5840.29
485.229	6047.14
485.433	5918.12
485.637	5901.73
485.841	5821.86
486.045	6051.24
486.249	6022.56
486.453	5905.83
486.657	5696.94
486.861	5967.27
487.065	5889.45
487.269	5715.37
487.473	5905.83
487.677	5938.6
487.881	6067.62
488.085	6055.33
488.289	5987.75
488.493	5952.93
488.697	5815.72
488.901	5981.6
489.105	6024.61
489.309	5936.55
489.512	6196.64
489.716	5909.93
489.92	6008.23
490.124	6036.9
490.328	6243.74
490.531	6145.44
490.735	6141.35
490.939	6223.27
491.143	5991.84
491.346	6073.76
491.55	6337.95
491.754	6215.07
491.958	6235.55
492.161	6288.8
492.365	6391.2
492.569	6108.58
492.772	6346.14
492.976	6372.77
493.18	6542.75
493.383	6520.22
493.587	6526.36
493.79	6620.57
493.994	6550.94
494.197	6606.24
494.401	6634.91
494.605	6753.69
494.808	6782.36
495.012	6761.88
495.215	6864.28
495.419	6950.29
495.622	6933.91
495.825	7114.13
496.029	7167.38
496.232	7169.43
496.436	7183.76
496.639	7316.88
496.843	7300.5
497.046	7476.62
497.249	7583.12
497.453	7591.31
497.656	7601.55
497.859	7755.15
498.063	7781.77
498.266	7945.61
498.469	7974.28
498.673	7986.57
498.876	8072.58
499.079	8039.81
499.282	8414.59
499.485	8613.24
499.689	8410.5
499.892	8691.07
500.095	8596.86
500.298	8875.38
500.501	8902.01
500.705	9252.21
500.908	9155.96
501.111	9188.72
501.314	9317.75
501.517	9428.34
501.72	9686.38
501.923	9596.27
502.126	9985.38
502.329	10112.36
502.532	9999.72
502.735	10134.89
502.938	10399.07
503.141	10702.17
503.344	10675.55
503.547	10728.8
503.75	10685.79
503.953	10945.88
504.156	11103.57
504.359	11281.75
504.562	11410.77
504.765	11724.11
504.968	11855.18
505.17	11988.3
505.373	11902.28
505.576	12145.99
505.779	12442.95
505.982	12473.67
506.185	12883.26
506.387	12721.47
506.59	12776.77
506.793	12899.64
506.996	13165.88
507.198	13450.55
507.401	13352.24
507.604	13643.06
507.807	13960.49
508.009	14056.75
508.212	14196.01
508.415	14486.82
508.617	14497.06
508.82	14742.82
509.022	14738.72
509.225	15308.05
509.428	15246.62
509.63	15279.38
509.833	15650.07
510.035	15955.21
510.238	15781.14
510.44	16385.29
510.643	16567.56
510.845	16694.53
511.048	16450.82
511.25	16909.57
511.453	17085.69
511.655	17843.44
511.858	17626.36
512.06	17677.55
512.262	18050.28
512.465	17929.45
512.667	18517.22
512.87	18652.39
513.072	18797.79
513.274	19158.24
513.477	19416.28
513.679	19637.46
513.881	19911.89
514.084	20210.89
514.286	20253.9
514.488	20468.94
514.69	21210.3
514.893	21048.51
515.095	20876.48
515.297	21509.3
515.499	21537.98
515.701	22092.97
515.904	22279.34
516.106	22426.79
516.308	22439.08
516.51	23338.14
516.712	23180.45
516.914	23405.72
517.116	23911.57
517.318	23815.32
517.52	24284.3
517.722	24120.46
517.925	24904.84
518.127	25132.16
518.329	25195.65
518.531	25365.63
518.733	25869.43
518.935	25904.24
519.136	26100.85
519.338	26899.56
519.54	26661.99
519.742	26819.69
519.944	27163.75
520.146	27763.8
520.348	27853.91
520.55	28314.7
520.752	28126.29
520.954	28748.87
521.155	29004.87
521.357	28906.57
521.559	29332.54
521.761	30000.18
521.963	29822.01
522.164	29994.04
522.366	30516.27
522.568	30538.8
522.77	30762.03
522.971	30966.82
523.173	31003.69
523.375	31407.14
523.576	31616.03
523.778	31560.73
523.98	32424.98
524.181	32594.96
524.383	32390.16
524.584	32904.2
524.786	32785.42
524.988	32777.23
525.189	33195.01
525.391	33223.69
525.592	33735.68
525.794	34092.02
525.995	33895.42
526.197	34276.34
526.398	34251.77
526.6	34735.09
526.801	34653.17
527.003	35107.82
527.204	35146.73
527.406	35501.03
527.607	35042.28
527.808	35619.81
528.01	35077.1
528.211	35380.2
528.412	36256.73
528.614	35828.7
528.815	36467.67
529.016	36312.02
529.218	36082.65
529.419	36439
529.62	36574.16
529.822	36414.42
530.023	36897.74
530.224	36623.31
530.425	36502.48
530.626	37043.15
530.828	36738
531.029	37364.68
531.23	36731.86
531.431	37241.8
531.632	37546.95
531.833	37790.66
532.035	37479.36
532.236	37233.61
532.437	37688.26
532.638	37352.39
532.839	37807.04
533.04	37727.17
533.241	36975.56
533.442	38329.27
533.643	37499.84
533.844	37905.34
534.045	38165.43
534.246	37837.76
534.447	38532.02
534.648	38124.47
534.849	37723.07
535.05	37813.18
535.251	38128.57
535.451	38136.76
535.652	38392.76
535.853	38185.91
536.054	38106.04
536.255	38439.86
536.456	37913.53
536.657	38718.39
536.857	38200.25
537.058	37837.76
537.259	38372.28
537.46	38491.06
537.66	38366.13
537.861	38228.92
538.062	38181.82
538.263	38263.74
538.463	38185.91
538.664	38169.53
538.865	38638.51
539.065	38441.91
539.266	37989.31
539.466	38652.85
539.667	37675.97
539.868	38855.6
540.068	38316.98
540.269	38101.95
540.469	38120.38
540.67	38214.58
540.87	38237.11
541.071	38054.84
541.271	38689.71
541.472	38290.36
541.672	38493.11
541.873	37702.59
542.073	37645.25
542.274	38650.8
542.474	38114.23
542.675	37680.07
542.875	38534.07
543.075	38351.8
543.276	37704.64
543.476	38339.51
543.676	38269.88
543.877	38208.44
544.077	38347.7
544.277	38228.92
544.478	38218.68
544.678	38310.84
544.878	38271.93
545.078	38341.56
545.279	38331.32
545.479	37958.59
545.679	38296.5
545.879	38073.28
546.079	38452.15
546.28	38245.3
546.48	37997.5
546.68	37962.68
546.88	38609.84
547.08	38122.43
547.28	38013.88
547.48	38163.39
547.68	38732.72
547.88	37747.65
548.081	38538.16
548.281	38497.2
548.481	37983.16
548.681	38540.21
548.881	37901.25
549.081	38323.13
549.28	37737.41
549.48	38347.7
549.68	38101.95
549.88	38697.91
550.08	38181.82
550.28	38462.39
550.48	38190.01
550.68	38595.51
550.88	37981.12
551.08	37577.67
551.279	38222.78
551.479	38435.77
551.679	38261.69
551.879	38251.45
552.079	38304.7
552.278	38050.75
552.478	38142.91
552.678	37868.48
552.878	38034.36
553.077	37829.57
553.277	37469.12
553.477	38529.97
553.676	37884.86
553.876	37960.64
554.076	37714.88
554.275	37723.07
554.475	37522.37
554.674	38106.04
554.874	37809.09
555.074	38017.98
555.273	38130.62
555.473	37891.01
555.672	37399.49
555.872	37647.3
556.071	37538.76
556.271	37950.4
556.47	37655.49
556.67	37366.73
556.869	37471.17
557.068	37602.24
557.268	37002.19
557.467	37450.69
557.667	37188.55
557.866	37131.21
558.065	36938.7
558.265	37041.1
558.464	37073.87
558.663	37231.56
558.863	36678.61
559.062	37200.84
559.261	36436.95
559.461	37483.46
559.66	36211.67
559.859	36658.13
560.058	36506.58
560.258	36932.56
560.457	36283.35
560.656	36461.52
560.855	36309.97
561.054	36502.48
561.253	36160.47
561.453	35951.58
561.652	36373.46
561.851	36465.62
562.05	35900.38
562.249	35886.04
562.448	35943.39
562.647	35986.39
562.846	35408.87
563.045	36223.96
563.244	35576.8
563.443	36203.48
563.642	35220.45
563.841	35972.06
564.04	35118.06
564.239	35918.81
564.438	35400.68
564.637	35845.09
564.836	35699.68
565.035	35019.75
565.234	35204.07
565.432	34847.72
565.631	35216.36
565.83	35349.48
566.029	34683.89
566.228	34921.45
566.427	34741.23
566.625	34575.34
566.824	34485.23
567.023	34939.88
567.222	34388.98
567.42	34520.05
567.619	34288.63
567.818	34225.14
568.016	33989.63
568.215	34278.39
568.414	34120.7
568.612	34329.59
568.811	33786.88
569.01	34118.65
569.208	33373.19
569.407	34001.91
569.605	33537.02
569.804	33666.05
570.002	33291.27
570.201	33633.28
570.4	33217.54
570.598	32908.3
570.797	33211.4
570.995	32771.08
571.193	32574.48
571.392	32883.72
571.59	32715.79
571.789	32633.87
571.987	32408.59
572.186	32615.44
572.384	32629.77
572.582	32601.1
572.781	32519.18
572.979	32027.67
573.177	31872.03
573.376	32183.32
573.574	31761.44
573.772	31999
573.971	31527.97
574.169	31423.52
574.367	31540.25
574.565	31499.3
574.763	31200.29
574.962	31343.65
575.16	30700.59
575.358	31220.77
575.556	30565.42
575.754	30884.9
575.952	30682.16
576.151	30874.66
576.349	30536.75
576.547	30676.01
576.745	30374.96
576.943	30192.69
577.141	30055.48
577.339	30270.51
577.537	30112.82
577.735	29787.19
577.933	29604.92
578.131	29588.54
578.329	29668.41
578.527	29629.5
578.725	29516.86
578.923	29449.28
579.121	29449.28
579.319	29340.74
579.516	29252.67
579.714	29099.08
579.912	28841.03
580.11	28986.44
580.308	28671.05
580.506	28406.86
580.704	28636.24
580.901	28474.45
581.099	28720.2
581.297	27999.32
581.495	28392.53
581.692	28236.88
581.89	27796.57
582.088	28482.64
582.285	28140.63
582.483	28302.42
582.681	27874.39
582.878	27896.92
583.076	27964.5
583.274	27733.08
583.471	27262.05
583.669	27366.49
583.866	27350.11
584.064	27219.04
584.262	27198.56
584.459	26946.66
584.657	27325.54
584.854	27341.92
585.052	26743.91
585.249	26661.99
585.447	26770.54
585.644	26739.82
585.841	26567.79
586.039	26678.38
586.236	26489.96
586.434	26293.36
586.631	26106.99
586.828	25719.93
587.026	26289.26
587.223	25906.29
587.42	25744.5
587.618	25853.05
587.815	25363.58
588.012	25427.07
588.21	25642.1
588.407	25539.71
588.604	25539.71
588.801	25189.5
588.999	25013.38
589.196	25353.34
589.393	25162.88
589.59	25093.25
589.787	24888.45
589.984	24949.89
590.182	24802.44
590.379	24808.58
590.576	24636.55
590.773	24874.12
590.97	24190.09
591.167	24564.87
591.364	23952.53
591.561	24439.95
591.758	24292.49
591.955	24267.92
592.152	24024.21
592.349	24292.49
592.546	24001.68
592.743	24200.33
592.94	23567.51
593.137	24020.11
593.334	23997.59
593.531	23643.29
593.727	23850.13
593.924	23796.88
594.121	23321.76
594.318	23694.49
594.515	23413.91
594.712	23506.07
594.908	23016.61
595.105	23174.3
595.302	22766.76
595.499	23293.08
595.696	22944.93
595.892	22758.56
596.089	23022.75
596.286	23061.66
596.482	22873.25
596.679	22736.04
596.876	22428.84
597.072	22611.11
597.269	22576.3
597.466	22189.23
597.662	22176.94
597.859	22273.2
598.055	22318.25
598.252	22213.81
598.448	22052.02
598.645	22092.97
598.841	21664.95
599.038	21877.94
599.234	21753.01
599.431	21656.76
599.627	21443.77
599.824	21613.75
600.02	21583.03
600.217	21447.86
600.413	21415.1
600.609	21064.89
600.806	20991.17
601.002	21394.62
601.198	20964.54
601.395	21195.96
601.591	20772.04
601.787	20849.86
601.984	20923.58
602.18	21193.92
602.376	20808.9
602.572	20714.69
602.769	20532.42
602.965	20497.61
603.161	20548.81
603.357	20362.44
603.553	20061.39
603.75	20550.85
603.946	19993.81
604.142	20282.57
604.338	19842.26
604.534	19979.47
604.73	19875.02
604.926	19619.03
605.122	20122.83
605.318	19717.33
605.514	19614.93
605.71	19637.46
605.906	19420.38
606.102	19387.61
606.298	19510.49
606.494	19223.77
606.69	19191
606.886	19332.31
607.082	19152.09
607.278	19442.9
607.474	18863.33
607.67	19049.69
607.866	18660.58
608.062	18803.94
608.257	18820.32
608.453	18701.54
608.649	18801.89
608.845	18545.89
609.041	18443.49
609.236	18445.54
609.432	18603.24
609.628	18388.2
609.824	18345.19
610.019	18031.85
610.215	18242.79
610.411	18242.79
610.606	17874.16
610.802	18175.21
610.998	18183.4
611.193	17925.36
611.389	17890.54
611.584	17657.07
611.78	17425.65
611.976	17503.48
612.171	17749.23
612.367	17718.51
612.562	17405.17
612.758	17366.26
612.953	17460.47
613.149	17822.96
613.344	17478.9
613.539	17396.98
613.735	17501.43
613.93	17337.59
614.126	17130.75
614.321	17151.23
614.517	16882.94
614.712	16913.66
614.907	16995.58
615.103	17173.75
615.298	16794.88
615.493	17136.89
615.688	16702.72
615.884	16958.72
616.079	16620.8
616.274	16512.26
616.47	16651.52
616.665	16538.88
616.86	16319.75
617.055	16528.64
617.25	16370.95
617.445	16588.03
617.641	16252.17
617.836	16465.16
618.031	16047.37
618.226	16155.91
618.421	15963.4
618.616	16370.95
618.811	15873.29
619.006	16112.91
619.201	15768.85
619.396	15803.66
619.591	15226.14
619.786	15863.05
619.981	15437.08
620.176	15459.6
620.371	15273.24
620.566	15549.71
620.761	15557.91
620.956	15416.6
621.151	15246.62
621.346	15287.57
621.541	14972.19
621.735	15244.57
621.93	14892.32
622.125	14818.59
622.32	14701.86
622.515	14708
622.709	14621.98
622.904	14462.24
623.099	14232.87
623.294	14230.82
623.488	14011.69
623.683	14208.3
623.878	13940.01
624.072	13913.39
624.267	13815.09
624.462	13882.67
624.656	13802.8
624.851	13759.79
625.046	13567.28
625.24	13581.62
625.435	13333.81
625.629	13438.26
625.824	13532.47
626.018	13208.89
626.213	12787
626.407	12893.5
626.602	12930.36
626.796	12938.55
626.991	12883.26
627.185	12770.62
627.38	12795.2
627.574	12623.17
627.768	12797.24
627.963	12502.34
628.157	12387.65
628.352	12553.54
628.546	12174.66
628.74	12166.47
628.935	12143.94
629.129	12111.18
629.323	11943.24
629.517	11865.42
629.712	11873.61
629.906	11894.09
630.1	11660.62
630.294	11689.29
630.489	11855.18
630.683	11705.68
630.877	11492.69
631.071	11502.93
631.265	11461.97
631.459	11418.96
631.653	11343.19
631.848	11302.23
632.042	11298.13
632.236	11189.59
632.43	11142.49
632.624	11091.29
632.818	11199.83
633.012	10831.19
633.206	10866.01
633.4	10886.49
633.594	10642.78
633.788	10777.95
633.982	10773.85
634.176	10605.92
634.369	10405.22
634.563	10597.73
634.757	10509.66
634.951	10476.9
635.145	10433.89
635.339	10548.58
635.533	10143.08
635.726	10317.15
635.92	10087.78
636.114	10069.35
636.308	10251.62
636.501	10061.16
636.695	9971.05
636.889	9819.5
637.083	9708.91
637.276	9897.32
637.47	9708.91
637.664	9600.37
637.857	9706.86
638.051	9643.37
638.244	9633.13
638.438	9706.86
638.632	9418.1
638.825	9364.85
639.019	9389.42
639.212	9241.97
639.406	9198.96
639.599	9084.28
639.793	9000.31
639.986	9018.74
640.18	9051.51
640.373	8975.74
640.567	8676.73
640.76	8779.13
640.954	8676.73
641.147	8740.22
641.34	8678.78
641.534	8838.52
641.727	8672.64
641.92	8545.66
642.114	8650.11
642.307	8516.99
642.5	8469.89
642.694	8379.78
642.887	8316.29
643.08	8416.64
643.273	8240.51
643.467	8203.65
643.66	8086.92
643.853	8095.11
644.046	8148.36
644.239	8123.78
644.432	7898.5
644.626	7843.21
644.819	7974.28
645.012	7746.95
645.205	7658.89
645.398	7744.91
645.591	7802.25
645.784	7601.55
645.977	7392.66
646.17	7677.32
646.363	7636.36
646.556	7394.7
646.749	7380.37
646.942	7581.07
647.135	7308.69
647.328	7189.91
647.521	7228.82
647.714	7093.65
647.907	7030.16
648.099	7026.07
648.292	7142.8
648.485	6849.94
648.678	6899.09
648.871	7046.55
649.064	6817.18
649.256	6800.79
649.449	6718.87
649.642	6612.38
649.835	6667.67
650.027	6546.84
650.22	6571.42
650.413	6622.62
650.605	6653.34
650.798	6376.86
650.991	6368.67
651.183	6340
651.376	6307.23
651.568	6391.2
651.761	6278.56
651.954	6159.78
652.146	6200.74
652.339	6122.91
652.531	6061.48
652.724	6018.47
652.916	6063.52
653.109	6217.12
653.301	5981.6
653.494	6018.47
653.686	5823.91
653.879	5823.91
654.071	5973.41
654.263	5889.45
654.456	5692.84
654.648	5692.84
654.84	5486
655.033	5690.79
655.225	5586.35
655.417	5432.75
655.61	5479.85
655.802	5615.02
655.994	5430.7
656.186	5432.75
656.379	5459.37
656.571	5412.27
656.763	5180.85
656.955	5211.57
657.148	5180.85
657.34	5098.93
657.532	5291.44
657.724	5074.35
657.916	5002.68
658.108	5111.22
658.3	5012.92
658.492	4969.91
658.684	4957.62
658.876	4783.54
659.068	4830.65
659.26	4738.49
659.452	4801.97
659.644	5023.16
659.836	4707.77
660.028	4810.17
660.22	4525.5
660.412	4566.46
660.604	4582.84
660.796	4550.07
660.988	4556.22
661.18	4455.87
661.372	4462.01
661.563	4560.31
661.755	4378.05
661.947	4402.62
662.139	4421.05
662.331	4376
662.522	4292.03
662.714	4312.51
662.906	4316.61
663.097	4318.65
663.289	4181.44
663.481	4150.72
663.673	4111.81
663.864	3947.97
664.056	4048.32
664.247	3954.12
664.439	4007.36
664.631	3947.97
664.822	3921.35
665.014	4007.36
665.205	3919.3
665.397	3763.65
665.588	3900.87
665.78	3851.72
665.971	3843.53
666.163	3761.61
666.354	3767.75
666.546	3759.56
666.737	3763.65
666.929	3773.89
667.12	3687.88
667.311	3780.04
667.503	3780.04
667.694	3657.16
667.885	3661.26
668.077	3585.48
668.268	3616.2
668.459	3528.14
668.651	3605.96
668.842	3511.75
669.033	3448.27
669.224	3468.75
669.416	3497.42
669.607	3501.51
669.798	3509.71
669.989	3595.72
670.18	3376.59
670.371	3489.23
670.563	3395.02
670.754	3423.69
670.945	3397.07
671.136	3425.74
671.327	3241.42
671.518	3206.61
671.709	3335.63
671.9	3272.14
672.091	3366.35
672.282	3261.9
672.473	3151.31
672.664	3257.81
672.855	3243.47
673.046	3235.28
673.237	3210.7
673.428	3102.16
673.619	3249.61
673.809	3073.49
674	3155.41
674.191	3065.3
674.382	3139.02
674.573	3053.01
674.764	3104.21
674.954	3106.26
675.145	3059.15
675.336	2936.28
675.527	2938.32
675.717	3100.11
675.908	3026.39
676.099	3081.68
676.289	2966.99
676.48	2944.47
676.671	2995.67
676.861	2973.14
677.052	2940.37
677.243	2837.97
677.433	2854.36
677.624	2883.03
677.814	2905.56
678.005	2934.23
678.195	2831.83
678.386	2805.21
678.576	2946.52
678.767	2852.31
678.957	2833.88
679.148	2835.92
679.338	2774.49
679.529	2848.21
679.719	2766.29
679.909	2778.58
680.1	2852.31
680.29	2854.36
680.481	2782.68
680.671	2678.23
680.861	2721.24
681.052	2758.1
681.242	2735.57
681.432	2860.5
681.622	2692.57
681.813	2823.64
682.003	2704.85
682.193	2741.72
682.383	2721.24
682.573	2803.16
682.764	2780.63
682.954	2723.29
683.144	2758.1
683.334	2665.94
683.524	2780.63
683.714	2760.15
683.904	2575.83
684.094	2790.87
684.284	2536.92
684.474	2805.21
684.664	2610.65
684.854	2665.94
685.044	2594.26
685.234	2569.69
685.424	2606.55
685.614	2649.56
685.804	2639.32
685.994	2670.04
686.184	2727.38
686.374	2645.46
686.564	2602.46
686.753	2663.9
686.943	2534.87
687.133	2557.4
687.323	2649.56
687.513	2633.18
687.702	2575.83
687.892	2588.12
688.082	2530.78
688.272	2573.78
688.461	2627.03
688.651	2622.94
688.841	2579.93
689.03	2500.06
689.22	2596.31
689.41	2532.83
689.599	2637.27
689.789	2594.26
689.979	2455
690.168	2557.4
690.358	2493.91
690.547	2553.31
690.737	2598.36
690.926	2532.83
691.116	2541.02
691.305	2633.18
691.495	2561.5
691.684	2465.24
691.874	2629.08
692.063	2459.1
692.252	2569.69
692.442	2592.22
692.631	2489.82
692.82	2567.64
693.01	2557.4
693.199	2520.54
693.388	2455
693.578	2608.6
693.767	2553.31
693.956	2422.24
694.146	2600.41
694.335	2495.96
694.524	2563.54
694.713	2629.08
694.902	2522.59
695.092	2616.79
695.281	2596.31
695.47	2645.46
695.659	2665.94
695.848	2586.07
696.037	2627.03
696.226	2600.41
696.415	2575.83
696.604	2504.15
696.793	2510.3
696.982	2600.41
697.171	2627.03
697.36	2592.22
697.549	2516.44
697.738	2500.06
697.927	2444.76
698.116	2565.59
698.305	2495.96
698.494	2602.46
698.683	2604.5
698.872	2551.26
699.061	2491.87
699.25	2522.59
699.438	2563.54
699.627	2606.55
699.816	2491.87
700.005	2541.02
700.193	2465.24
700.382	2743.77
700.571	2563.54
700.76	2387.42
700.948	2629.08
701.137	2520.54
701.326	2524.63
701.514	2624.98
701.703	2655.7
701.892	2491.87
702.08	2530.78
702.269	2409.95
702.457	2622.94
702.646	2590.17
702.834	2520.54
703.023	2432.47
703.212	2422.24
703.4	2491.87
703.589	2457.05
703.777	2608.6
703.965	2504.15
704.154	2467.29
704.342	2545.11
704.531	2483.67
704.719	2412
704.907	2545.11
705.096	2346.46
705.284	2330.08
705.472	2368.99
705.661	2409.95
705.849	2518.49
706.037	2444.76
706.226	2416.09
706.414	2444.76
706.602	2485.72
706.79	2332.12
706.979	2424.28
707.167	2317.79
707.355	2334.17
707.543	2379.23
707.731	2309.6
707.919	2305.5
708.107	2303.45
708.296	2282.97
708.484	2344.41
708.672	2196.96
708.86	2342.36
709.048	2225.63
709.236	2317.79
709.424	2272.73
709.612	2244.06
709.8	2158.05
709.988	2188.77
710.176	2160.1
710.364	2289.12
710.551	2231.77
710.739	2219.49
710.927	2272.73
711.115	2180.57
711.303	2160.1
711.491	2209.25
711.679	2092.51
711.866	2153.95
712.054	2237.92
712.242	2074.08
712.43	2104.8
712.617	2147.81
712.805	2053.6
712.993	2213.34
713.181	2063.84
713.368	2094.56
713.556	2141.66
713.744	2014.69
713.931	2123.23
714.119	2104.8
714.306	2106.85
714.494	2063.84
714.682	2063.84
714.869	1953.25
715.057	2063.84
715.244	2035.17
715.432	2053.6
715.619	1996.26
715.807	2082.27
715.994	2006.5
716.182	2112.99
716.369	1988.07
716.556	1953.25
716.744	2026.98
716.931	1906.15
717.119	1951.2
717.306	2016.74
717.493	1963.49
717.681	1889.76
717.868	1914.34
718.055	1877.48
718.242	1869.28
718.43	1832.42
718.617	1930.72
718.804	1840.61
718.991	1799.65
719.179	1904.1
719.366	1922.53
719.553	1875.43
719.74	1779.17
719.927	1846.76
720.114	1787.36
720.301	1809.89
720.488	1807.84
720.676	1779.17
720.863	1861.09
721.05	1760.74
721.237	1746.41
721.424	1750.5
721.611	1609.19
721.798	1807.84
721.985	1697.25
722.172	1758.69
722.358	1695.21
722.545	1748.45
722.732	1768.93
722.919	1715.69
723.106	1695.21
723.293	1689.06
723.48	1670.63
723.667	1668.58
723.853	1684.97
724.04	1695.21
724.227	1611.24
724.414	1619.43
724.6	1719.78
724.787	1629.67
724.974	1603.05
725.161	1656.29
725.347	1631.72
725.534	1580.52
725.72	1603.05
725.907	1609.19
726.094	1637.86
726.28	1574.38
726.467	1555.94
726.653	1514.98
726.84	1502.7
727.027	1594.86
727.213	1533.42
727.4	1410.54
727.586	1517.03
727.773	1572.33
727.959	1533.42
728.145	1570.28
728.332	1484.27
728.518	1482.22
728.705	1512.94
728.891	1580.52
729.077	1566.18
729.264	1484.27
729.45	1435.11
729.636	1496.55
729.823	1457.64
730.009	1453.55
730.195	1390.06
730.382	1476.07
730.568	1502.7
730.754	1426.92
730.94	1459.69
731.126	1529.32
731.313	1457.64
731.499	1394.15
731.685	1502.7
731.871	1455.59
732.057	1424.87
732.243	1433.07
732.429	1390.06
732.615	1459.69
732.801	1414.63
732.987	1422.83
733.173	1373.68
733.359	1388.01
733.545	1363.44
733.731	1349.1
733.917	1385.96
734.103	1445.35
734.289	1385.96
734.475	1312.24
734.661	1410.54
734.847	1258.99
735.033	1367.53
735.219	1310.19
735.404	1322.48
735.59	1361.39
735.776	1261.04
735.962	1424.87
736.148	1330.67
736.333	1320.43
736.519	1205.74
736.705	1324.52
736.89	1283.56
737.076	1279.47
737.262	1226.22
737.447	1261.04
737.633	1238.51
737.819	1179.12
738.004	1185.26
738.19	1230.32
738.375	1181.17
738.561	1279.47
738.747	1293.8
738.932	1228.27
739.118	1261.04
739.303	1215.98
739.489	1213.93
739.674	1277.42
739.859	1156.59
740.045	1201.65
740.23	1175.02
740.416	1068.53
740.601	1103.34
740.786	1197.55
740.972	1213.93
741.157	1111.54
741.342	1189.36
741.528	1146.35
741.713	1185.26
741.898	1138.16
742.084	1150.45
742.269	1127.92
742.454	1029.62
742.639	1170.93
742.824	1089.01
743.01	1068.53
743.195	1074.67
743.38	1078.77
743.565	1142.25
743.75	1099.25
743.935	1099.25
744.12	1097.2
744.305	1084.91
744.49	1093.1
744.675	1052.14
744.86	1072.62
745.045	1025.52
745.23	1041.9
745.415	957.94
745.6	1019.38
745.785	1046
745.97	1111.54
746.155	1021.42
746.34	1056.24
746.525	984.56
746.71	1107.44
746.895	972.27
747.079	931.31
747.264	986.61
747.449	886.26
747.634	945.65
747.819	1064.43
748.003	908.79
748.188	1017.33
748.373	943.6
748.557	925.17
748.742	914.93
748.927	855.54
749.111	959.99
749.296	898.55
749.481	855.54
749.665	916.98
749.85	947.7
750.034	863.73
750.219	916.98
750.404	921.07
750.588	839.16
750.773	828.92
750.957	902.64
751.141	876.02
751.326	808.44
751.51	859.63
751.695	890.35
751.879	855.54
752.064	814.58
752.248	765.43
752.432	888.31
752.617	804.34
752.801	810.48
752.985	761.33
753.17	806.39
753.354	790
753.538	810.48
753.722	851.44
753.907	792.05
754.091	722.42
754.275	753.14
754.459	759.28
754.643	744.95
754.828	712.18
755.012	771.57
755.196	697.85
755.38	667.13
755.564	693.75
755.748	736.76
755.932	773.62
756.116	726.52
756.3	675.32
756.484	734.71
756.668	712.18
756.852	703.99
757.036	636.41
757.22	675.32
757.404	681.46
757.588	675.32
757.772	779.76
757.956	689.65
758.14	652.79
758.323	718.33
758.507	607.73
758.691	726.52
758.875	648.69
759.059	626.17
759.242	683.51
759.426	564.73
759.61	630.26
759.794	499.19
759.977	607.73
760.161	595.45
760.345	720.37
760.528	638.45
760.712	570.87
760.895	642.55
761.079	540.15
761.263	607.73
761.446	558.58
761.63	630.26
761.813	669.17
761.997	564.73
762.18	505.34
762.364	531.96
762.547	597.49
762.731	617.97
762.914	574.97
763.098	574.97
763.281	577.02
763.464	595.45
763.648	568.82
763.831	587.26
764.015	564.73
764.198	570.87
764.381	531.96
764.564	550.39
764.748	579.06
764.931	562.68
765.114	542.2
765.297	495.1
765.481	521.72
765.664	597.49
765.847	597.49
766.03	560.63
766.213	574.97
766.397	507.38
766.58	509.43
766.763	648.69
766.946	423.42
767.129	531.96
767.312	552.44
767.495	562.68
767.678	546.3
767.861	529.91
768.044	425.47
768.227	503.29
768.41	585.21
768.593	566.78
768.776	456.19
768.959	568.82
769.142	544.25
769.324	411.13
769.507	505.34
769.69	468.47
769.873	503.29
770.056	562.68
770.239	427.51
770.421	589.3
770.604	476.66
770.787	546.3
770.97	493.05
771.152	435.71
771.335	527.86
771.518	515.58
771.7	513.53
771.883	470.52
772.066	433.66
772.248	493.05
772.431	441.85
772.613	497.14
772.796	468.47
772.978	394.75
773.161	404.99
773.343	470.52
773.526	452.09
773.708	466.42
773.891	327.16
774.073	495.1
774.256	484.86
774.438	417.27
774.621	460.28
774.803	556.54
774.985	425.47
775.168	431.61
775.35	507.38
775.532	534.01
775.715	435.71
775.897	419.32
776.079	407.03
776.261	407.03
776.444	370.17
776.626	386.55
776.808	495.1
776.99	456.19
777.173	384.51
777.355	411.13
777.537	445.95
777.719	384.51
777.901	364.03
778.083	439.8
778.265	341.5
778.447	378.36
778.629	423.42
778.811	376.31
778.993	349.69
779.175	429.56
779.357	402.94
779.539	325.12
779.721	331.26
779.903	415.23
780.085	355.83
780.267	278.01
780.449	351.74
780.631	404.99
780.812	308.73
780.994	374.27
781.176	337.4
781.358	359.93
781.54	267.77
781.721	368.12
781.903	355.83
782.085	364.03
782.267	372.22
782.448	372.22
782.63	261.63
782.812	306.68
782.993	261.63
783.175	321.02
783.357	345.59
783.538	343.55
783.72	269.82
783.901	300.54
784.083	294.4
784.264	331.26
784.446	271.87
784.627	286.2
784.809	306.68
784.99	318.97
785.172	357.88
785.353	300.54
785.535	263.68
785.716	308.73
785.897	308.73
786.079	296.44
786.26	259.58
786.441	247.29
786.623	280.06
786.804	278.01
786.985	278.01
787.167	232.96
787.348	241.15
787.529	292.35
787.71	341.5
787.891	257.53
788.073	292.35
788.254	226.81
788.435	318.97
788.616	230.91
788.797	235
788.978	202.24
789.159	228.86
789.34	282.11
789.522	235
789.703	284.16
789.884	265.72
790.065	288.25
790.246	273.92
790.427	237.05
790.607	273.92
790.788	232.96
790.969	257.53
791.15	136.7
791.331	222.72
791.512	142.85
791.693	251.39
791.874	189.95
792.054	220.67
792.235	263.68
792.416	200.19
792.597	200.19
792.778	167.42
792.958	144.89
793.139	235
793.32	232.96
793.5	161.28
793.681	194.05
793.862	220.67
794.042	185.85
794.223	183.81
794.404	212.48
794.584	253.44
794.765	192
794.945	153.09
795.126	208.38
795.306	218.62
795.487	169.47
795.667	212.48
795.848	241.15
796.028	151.04
796.209	230.91
796.389	200.19
796.57	226.81
796.75	169.47
796.93	169.47
797.111	247.29
797.291	210.43
797.471	198.14
797.652	146.94
797.832	89.6
798.012	189.95
798.192	134.65
798.373	155.13
798.553	116.22
798.733	181.76
798.913	138.75
799.093	173.57
799.274	185.85
799.454	128.51
799.634	148.99
799.814	130.56
799.994	163.33
800.174	157.18
800.354	157.18
800.534	134.65
800.714	171.52
800.894	136.7
801.074	138.75
801.254	183.81
801.434	142.85
801.614	173.57
801.794	116.22
801.974	333.31
802.154	187.9
802.334	122.37
802.514	136.7
802.693	202.24
802.873	165.37
803.053	187.9
803.233	163.33
803.413	108.03
803.592	114.17
803.772	83.45
803.952	153.09
804.131	167.42
804.311	142.85
804.491	126.46
804.67	112.13
804.85	91.65
805.03	155.13
805.209	126.46
805.389	95.74
805.568	130.56
805.748	181.76
805.928	151.04
806.107	138.75
806.287	198.14
806.466	93.69
806.646	177.66
806.825	101.89
807.004	95.74
807.184	140.8
807.363	105.98
807.543	103.93
807.722	122.37
807.901	89.6
808.081	83.45
808.26	87.55
808.439	148.99
808.619	118.27
808.798	181.76
808.977	99.84
809.156	155.13
809.336	130.56
809.515	114.17
809.694	155.13
809.873	132.61
810.052	142.85
810.231	146.94
810.411	81.41
810.59	159.23
810.769	163.33
810.948	159.23
811.127	95.74
811.306	114.17
811.485	77.31
811.664	93.69
811.843	77.31
812.022	99.84
812.201	32.26
812.38	97.79
812.559	75.26
812.737	126.46
812.916	122.37
813.095	81.41
813.274	89.6
813.453	144.89
813.632	122.37
813.811	91.65
813.989	54.78
814.168	93.69
814.347	95.74
814.526	151.04
814.704	101.89
814.883	114.17
815.062	136.7
815.24	89.6
815.419	40.45
815.598	52.74
815.776	142.85
815.955	38.4
816.133	54.78
816.312	110.08
816.49	95.74
816.669	175.61
816.847	38.4
817.026	99.84
817.204	81.41
817.383	103.93
817.561	97.79
817.74	93.69
817.918	79.36
818.097	130.56
818.275	28.16
818.453	83.45
818.632	44.54
818.81	-0.51
818.988	91.65
819.167	132.61
819.345	7.68
819.523	3.58
819.701	93.69
819.879	50.69
820.058	69.12
820.236	138.75
820.414	46.59
820.592	151.04
820.77	99.84
820.948	44.54
821.127	83.45
821.305	126.46
821.483	36.35
821.661	73.21
821.839	50.69
822.017	52.74
822.195	60.93
822.373	28.16
822.551	108.03
822.729	54.78
822.907	56.83
823.085	48.64
823.262	120.32
823.44	48.64
823.618	62.98
823.796	95.74
823.974	54.78
824.152	85.5
824.329	69.12
824.507	120.32
824.685	116.22
824.863	48.64
825.04	32.26
825.218	132.61
825.396	24.06
825.574	159.23
825.751	54.78
825.929	30.21
826.107	-20.99
826.284	130.56
826.462	36.35
826.639	87.55
826.817	112.13
826.994	71.17
827.172	30.21
827.349	62.98
827.527	85.5
827.704	108.03
827.882	71.17
828.059	93.69
828.237	24.06
828.414	32.26
828.591	103.93
828.769	38.4
828.946	52.74
829.124	75.26
829.301	77.31
829.478	62.98
829.655	46.59
829.833	105.98
830.01	71.17
830.187	75.26
830.364	101.89
830.542	36.35
830.719	-8.7
830.896	62.98
831.073	87.55
831.25	67.07
831.427	73.21
831.604	62.98
831.782	69.12
831.959	93.69
832.136	26.11
832.313	-31.23
832.49	118.27
832.667	95.74
832.844	62.98
833.021	89.6
833.198	75.26
833.374	24.06
833.551	159.23
833.728	36.35
833.905	60.93
834.082	30.21
834.259	44.54
834.436	65.02
834.612	36.35
834.789	-16.9
834.966	81.41
835.143	77.31
835.319	5.63
835.496	97.79
835.673	108.03
835.85	120.32
836.026	48.64
836.203	83.45
836.38	38.4
836.556	114.17
836.733	62.98
836.909	56.83
837.086	48.64
837.262	15.87
837.439	-12.8
837.616	62.98
837.792	11.78
837.968	46.59
838.145	7.68
838.321	97.79
838.498	50.69
838.674	48.64
838.851	13.82
839.027	-8.7
839.203	15.87
839.38	67.07
839.556	46.59
839.732	30.21
839.909	13.82
840.085	-0.51
840.261	40.45
840.437	56.83
840.614	99.84
840.79	44.54
840.966	85.5
841.142	24.06
841.318	60.93
841.494	44.54
841.671	44.54
841.847	87.55
842.023	17.92
842.199	42.5
842.375	65.02
842.551	3.58
842.727	36.35
842.903	89.6
843.079	62.98
843.255	-6.66
843.431	58.88
843.607	89.6
843.783	73.21
843.959	-14.85
844.134	67.07
844.31	36.35
844.486	-18.94
844.662	54.78
844.838	15.87
845.013	136.7
845.189	60.93
845.365	73.21
845.541	69.12
845.716	134.65
845.892	32.26
846.068	67.07
846.244	67.07
846.419	46.59
846.595	7.68
846.77	46.59
846.946	73.21
847.122	44.54
847.297	67.07
847.473	-25.09
847.648	13.82
847.824	69.12
847.999	5.63
848.175	44.54
848.35	15.87
848.526	77.31
848.701	62.98
848.876	73.21
849.052	40.45
849.227	42.5
849.403	22.02
849.578	19.97
849.753	50.69
849.929	5.63
850.104	56.83
850.279	58.88
850.454	48.64
850.63	54.78
850.805	44.54
850.98	38.4
851.155	62.98
851.33	48.64
851.505	34.3
851.681	130.56
851.856	48.64
852.031	38.4
852.206	69.12
852.381	87.55
852.556	93.69
852.731	-35.33
852.906	79.36
853.081	30.21
853.256	65.02
853.431	-64
853.606	24.06
853.781	3.58
853.956	42.5
854.131	60.93
854.305	-14.85
854.48	56.83
854.655	24.06
854.83	85.5
855.005	15.87
855.18	-12.8
855.354	3.58
855.529	-31.23
855.704	13.82
855.879	91.65
856.053	62.98
856.228	32.26
856.403	28.16
856.577	60.93
856.752	26.11
856.926	85.5
857.101	65.02
857.276	11.78
857.45	17.92
857.625	79.36
857.799	-4.61
857.974	60.93
858.148	11.78
858.323	108.03
858.497	3.58
858.672	60.93
858.846	52.74
859.02	42.5
859.195	62.98
859.369	1.54
859.543	22.02
859.718	89.6
859.892	30.21
860.066	50.69
860.241	-18.94
860.415	7.68
860.589	32.26
860.763	-35.33
860.938	69.12
861.112	-10.75
861.286	52.74
861.46	9.73
861.634	22.02
861.808	67.07
861.982	83.45
862.157	26.11
862.331	22.02
862.505	85.5
862.679	-31.23
862.853	-39.42
863.027	1.54
863.201	19.97
863.375	101.89
863.549	105.98
863.722	38.4
863.896	30.21
864.07	-2.56
864.244	-23.04
864.418	-25.09
864.592	52.74
864.766	-39.42
864.939	3.58
865.113	1.54
865.287	65.02
865.461	44.54
865.634	-0.51
865.808	62.98
865.982	-10.75
866.156	-20.99
866.329	52.74
866.503	7.68
866.676	83.45
866.85	22.02
867.024	56.83
867.197	-6.66
867.371	36.35
867.544	60.93
867.718	15.87
867.891	11.78
868.065	48.64
868.238	54.78
868.412	24.06
868.585	34.3
868.759	34.3
868.932	-2.56
869.105	-27.14
869.279	50.69
869.452	-2.56
869.625	67.07
869.799	9.73
869.972	-57.86
870.145	17.92
870.319	-14.85
870.492	42.5
870.665	91.65
870.838	67.07
871.011	-0.51
871.185	7.68
871.358	22.02
871.531	-6.66
871.704	-45.57
871.877	54.78
872.05	116.22
872.223	54.78
872.396	-53.76
872.569	132.61
872.742	-25.09
872.915	32.26
873.088	7.68
873.261	58.88
873.434	-39.42
873.607	-35.33
873.78	11.78
873.953	60.93
874.126	28.16
874.299	22.02
874.471	-0.51
874.644	48.64
874.817	-16.9
874.99	65.02
875.163	36.35
875.335	22.02
875.508	69.12
875.681	5.63
875.853	-25.09
876.026	-14.85
876.199	5.63
876.371	-18.94
876.544	15.87
876.717	34.3
876.889	9.73
877.062	-10.75
877.234	50.69
877.407	34.3
877.579	19.97
877.752	-39.42
877.924	-4.61
878.097	-25.09
878.269	40.45
878.442	26.11
878.614	24.06
878.786	65.02
878.959	34.3
879.131	71.17
879.303	-29.18
879.476	-16.9
879.648	-27.14
879.82	67.07
879.993	38.4
880.165	58.88
880.337	-31.23
880.509	9.73
880.681	79.36
880.854	-25.09
881.026	99.84
881.198	-8.7
881.37	81.41
881.542	28.16
881.714	36.35
881.886	28.16
882.058	36.35
882.23	52.74
882.402	17.92
882.574	81.41
882.746	54.78
882.918	73.21
883.09	22.02
883.262	-43.52
883.434	32.26
883.606	46.59
883.778	11.78
883.95	48.64
884.122	7.68
884.293	46.59
884.465	-31.23
884.637	-23.04
884.809	-2.56
884.98	48.64
885.152	-27.14
885.324	-14.85
885.496	26.11
885.667	11.78
885.839	-29.18
886.011	46.59
886.182	-31.23
886.354	40.45
886.525	-14.85
886.697	11.78
886.869	-14.85
887.04	-41.47
887.212	3.58
887.383	95.74
887.555	34.3
887.726	-88.57
887.897	-14.85
888.069	22.02
888.24	36.35
888.412	71.17
888.583	17.92
888.754	67.07
888.926	-0.51
889.097	15.87
889.268	26.11
889.44	22.02
889.611	62.98
889.782	81.41
889.953	-23.04
890.125	32.26
890.296	7.68
890.467	26.11
890.638	93.69
890.809	67.07
890.98	-47.62
891.151	15.87
891.323	42.5
891.494	-29.18
891.665	89.6
891.836	-33.28
892.007	19.97
892.178	81.41
892.349	-27.14
892.52	7.68
892.691	32.26
892.862	9.73
893.032	19.97
893.203	3.58
893.374	50.69
893.545	7.68
893.716	15.87
893.887	3.58
894.057	-55.81
894.228	5.63
894.399	71.17
894.57	40.45
894.74	40.45
894.911	65.02
895.082	-23.04
895.253	65.02
895.423	-2.56
895.594	124.41
895.764	15.87
895.935	28.16
896.106	77.31
896.276	-57.86
896.447	-64
896.617	-51.71
896.788	17.92
896.958	26.11
897.129	3.58
897.299	38.4
897.47	75.26
897.64	77.31
897.81	-78.33
897.981	50.69
898.151	19.97
898.322	26.11
898.492	56.83
898.662	15.87
898.832	-43.52
899.003	-31.23
899.173	46.59
899.343	19.97
899.513	-16.9
