Data from USB4F104151__158__13-58-41-253.txt Node

Date: Thu Mar 13 13:58:41 EDT 2025
User: louis
Spectrometer: USB4F10415
Trigger mode: 4
Integration Time (sec): 1.000000E-2
Scans to average: 1
Electric dark correction enabled: true
Nonlinearity correction enabled: false
Boxcar width: 0
XAxis mode: Wavelengths
Number of Pixels in Spectrum: 3648
>>>>>Begin Spectral Data<<<<<
178.204	-25.09
178.424	-25.09
178.644	-25.09
178.864	-10.75
179.084	-59.9
179.304	-107.01
179.524	42.5
179.744	-23.04
179.964	42.5
180.184	24.06
180.404	-14.85
180.624	-27.14
180.844	-25.09
181.064	15.87
181.283	-20.99
181.503	97.79
181.723	-4.61
181.943	-57.86
182.163	22.02
182.383	-47.62
182.602	34.3
182.822	77.31
183.042	13.82
183.262	-41.47
183.482	54.78
183.701	-12.8
183.921	99.84
184.141	40.45
184.361	24.06
184.58	5.63
184.8	48.64
185.02	-51.71
185.239	77.31
185.459	32.26
185.679	42.5
185.898	-43.52
186.118	30.21
186.338	-6.66
186.557	38.4
186.777	-0.51
186.997	15.87
187.216	-0.51
187.436	44.54
187.655	5.63
187.875	89.6
188.095	-51.71
188.314	87.55
188.534	30.21
188.753	-0.51
188.973	73.21
189.192	3.58
189.412	60.93
189.631	36.35
189.851	13.82
190.07	-16.9
190.29	-0.51
190.509	11.78
190.729	30.21
190.948	60.93
191.168	30.21
191.387	-4.61
191.607	-12.8
191.826	50.69
192.045	-80.38
192.265	-6.66
192.484	1.54
192.704	-66.05
192.923	11.78
193.142	48.64
193.362	38.4
193.581	60.93
193.8	5.63
194.02	22.02
194.239	3.58
194.458	-2.56
194.678	28.16
194.897	15.87
195.116	40.45
195.335	1.54
195.555	30.21
195.774	-37.38
195.993	-10.75
196.212	17.92
196.432	-31.23
196.651	11.78
196.87	-10.75
197.089	65.02
197.308	-39.42
197.528	58.88
197.747	36.35
197.966	-14.85
198.185	54.78
198.404	-23.04
198.623	32.26
198.842	56.83
199.062	75.26
199.281	17.92
199.5	1.54
199.719	48.64
199.938	32.26
200.157	7.68
200.376	-10.75
200.595	-2.56
200.814	40.45
201.033	-41.47
201.252	28.16
201.471	22.02
201.69	-23.04
201.909	-4.61
202.128	-2.56
202.347	19.97
202.566	-37.38
202.785	5.63
203.004	-16.9
203.223	30.21
203.442	-20.99
203.661	19.97
203.879	-27.14
204.098	40.45
204.317	34.3
204.536	95.74
204.755	-8.7
204.974	56.83
205.193	42.5
205.411	75.26
205.63	36.35
205.849	26.11
206.068	38.4
206.287	36.35
206.505	30.21
206.724	-27.14
206.943	67.07
207.162	101.89
207.381	28.16
207.599	13.82
207.818	22.02
208.037	7.68
208.255	-0.51
208.474	-2.56
208.693	11.78
208.911	-31.23
209.13	11.78
209.349	44.54
209.567	-14.85
209.786	28.16
210.005	15.87
210.223	42.5
210.442	-33.28
210.661	13.82
210.879	30.21
211.098	48.64
211.316	48.64
211.535	54.78
211.753	-4.61
211.972	-0.51
212.191	15.87
212.409	17.92
212.628	-14.85
212.846	52.74
213.065	-8.7
213.283	103.93
213.502	-6.66
213.72	30.21
213.938	46.59
214.157	-4.61
214.375	22.02
214.594	42.5
214.812	56.83
215.031	24.06
215.249	-0.51
215.467	44.54
215.686	42.5
215.904	58.88
216.122	91.65
216.341	-4.61
216.559	-96.77
216.778	17.92
216.996	58.88
217.214	5.63
217.432	28.16
217.651	-14.85
217.869	3.58
218.087	-27.14
218.306	48.64
218.524	62.98
218.742	48.64
218.96	-6.66
219.179	15.87
219.397	-4.61
219.615	-20.99
219.833	22.02
220.051	54.78
220.27	17.92
220.488	-8.7
220.706	-4.61
220.924	60.93
221.142	34.3
221.36	13.82
221.578	-35.33
221.796	22.02
222.015	54.78
222.233	30.21
222.451	71.17
222.669	40.45
222.887	56.83
223.105	-2.56
223.323	36.35
223.541	11.78
223.759	-12.8
223.977	65.02
224.195	97.79
224.413	105.98
224.631	30.21
224.849	40.45
225.067	71.17
225.285	69.12
225.503	-0.51
225.721	-47.62
225.939	3.58
226.157	-14.85
226.375	-29.18
226.592	46.59
226.81	7.68
227.028	11.78
227.246	11.78
227.464	13.82
227.682	99.84
227.9	44.54
228.117	44.54
228.335	62.98
228.553	9.73
228.771	-16.9
228.989	62.98
229.206	22.02
229.424	58.88
229.642	-0.51
229.86	24.06
230.077	87.55
230.295	36.35
230.513	36.35
230.731	7.68
230.948	-4.61
231.166	24.06
231.384	71.17
231.601	-18.94
231.819	34.3
232.037	-12.8
232.254	3.58
232.472	-16.9
232.689	15.87
232.907	-2.56
233.125	24.06
233.342	-4.61
233.56	-25.09
233.777	15.87
233.995	67.07
234.213	24.06
234.43	-0.51
234.648	3.58
234.865	-10.75
235.083	44.54
235.3	-31.23
235.518	-12.8
235.735	38.4
235.953	17.92
236.17	-27.14
236.388	24.06
236.605	11.78
236.822	-18.94
237.04	30.21
237.257	77.31
237.475	-51.71
237.692	75.26
237.909	77.31
238.127	15.87
238.344	22.02
238.562	34.3
238.779	19.97
238.996	30.21
239.214	-27.14
239.431	-47.62
239.648	17.92
239.865	62.98
240.083	-0.51
240.3	-0.51
240.517	83.45
240.735	52.74
240.952	15.87
241.169	60.93
241.386	-59.9
241.603	11.78
241.821	17.92
242.038	54.78
242.255	-78.33
242.472	-23.04
242.689	28.16
242.907	52.74
243.124	62.98
243.341	-0.51
243.558	36.35
243.775	26.11
243.992	-45.57
244.209	73.21
244.426	36.35
244.643	91.65
244.86	62.98
245.078	7.68
245.295	11.78
245.512	7.68
245.729	26.11
245.946	48.64
246.163	-2.56
246.38	22.02
246.597	-6.66
246.814	3.58
247.031	5.63
247.248	13.82
247.464	120.32
247.681	-45.57
247.898	56.83
248.115	60.93
248.332	11.78
248.549	105.98
248.766	-35.33
248.983	-12.8
249.2	1.54
249.417	52.74
249.633	9.73
249.85	65.02
250.067	-4.61
250.284	19.97
250.501	-18.94
250.717	-29.18
250.934	-53.76
251.151	44.54
251.368	44.54
251.585	-31.23
251.801	-2.56
252.018	7.68
252.235	40.45
252.451	77.31
252.668	50.69
252.885	24.06
253.102	40.45
253.318	1.54
253.535	48.64
253.752	46.59
253.968	28.16
254.185	-23.04
254.401	22.02
254.618	-0.51
254.835	38.4
255.051	52.74
255.268	36.35
255.484	11.78
255.701	79.36
255.917	-2.56
256.134	24.06
256.351	13.82
256.567	122.37
256.784	34.3
257	-16.9
257.217	-14.85
257.433	30.21
257.65	28.16
257.866	-12.8
258.082	-14.85
258.299	1.54
258.515	22.02
258.732	-37.38
258.948	42.5
259.165	52.74
259.381	32.26
259.597	1.54
259.814	3.58
260.03	9.73
260.246	22.02
260.463	-12.8
260.679	40.45
260.895	69.12
261.112	28.16
261.328	-33.28
261.544	24.06
261.761	36.35
261.977	-25.09
262.193	-70.14
262.409	-25.09
262.626	11.78
262.842	56.83
263.058	-25.09
263.274	22.02
263.49	7.68
263.707	11.78
263.923	73.21
264.139	5.63
264.355	-20.99
264.571	42.5
264.787	15.87
265.004	50.69
265.22	73.21
265.436	17.92
265.652	69.12
265.868	-27.14
266.084	17.92
266.3	28.16
266.516	9.73
266.732	48.64
266.948	26.11
267.164	46.59
267.38	52.74
267.596	30.21
267.812	-12.8
268.028	118.27
268.244	-18.94
268.46	44.54
268.676	24.06
268.892	9.73
269.108	-41.47
269.324	24.06
269.54	52.74
269.756	54.78
269.972	65.02
270.188	-57.86
270.403	-57.86
270.619	-45.57
270.835	58.88
271.051	-20.99
271.267	44.54
271.483	65.02
271.698	67.07
271.914	120.32
272.13	56.83
272.346	67.07
272.562	11.78
272.777	32.26
272.993	-6.66
273.209	-0.51
273.425	52.74
273.64	9.73
273.856	19.97
274.072	60.93
274.287	19.97
274.503	28.16
274.719	7.68
274.934	28.16
275.15	-0.51
275.366	-43.52
275.581	-10.75
275.797	19.97
276.012	11.78
276.228	-0.51
276.444	60.93
276.659	44.54
276.875	-6.66
277.09	97.79
277.306	52.74
277.521	93.69
277.737	60.93
277.952	69.12
278.168	44.54
278.383	60.93
278.599	15.87
278.814	32.26
279.03	5.63
279.245	46.59
279.461	67.07
279.676	192
279.892	-47.62
280.107	9.73
280.322	11.78
280.538	-4.61
280.753	44.54
280.969	50.69
281.184	38.4
281.399	19.97
281.615	3.58
281.83	34.3
282.045	40.45
282.26	-23.04
282.476	5.63
282.691	83.45
282.906	28.16
283.122	69.12
283.337	-31.23
283.552	-8.7
283.767	28.16
283.983	22.02
284.198	-53.76
284.413	-29.18
284.628	69.12
284.843	28.16
285.058	44.54
285.274	-10.75
285.489	32.26
285.704	85.5
285.919	11.78
286.134	-33.28
286.349	-64
286.564	-0.51
286.779	-16.9
286.995	1.54
287.21	30.21
287.425	77.31
287.64	3.58
287.855	38.4
288.07	36.35
288.285	-35.33
288.5	60.93
288.715	-12.8
288.93	-2.56
289.145	52.74
289.36	40.45
289.575	13.82
289.79	67.07
290.004	-2.56
290.219	46.59
290.434	3.58
290.649	-18.94
290.864	52.74
291.079	11.78
291.294	22.02
291.509	9.73
291.724	-35.33
291.938	44.54
292.153	32.26
292.368	83.45
292.583	44.54
292.798	24.06
293.012	95.74
293.227	124.41
293.442	15.87
293.657	79.36
293.871	38.4
294.086	34.3
294.301	105.98
294.516	54.78
294.73	99.84
294.945	-10.75
295.16	112.13
295.374	-8.7
295.589	50.69
295.804	17.92
296.018	75.26
296.233	30.21
296.447	54.78
296.662	-47.62
296.877	38.4
297.091	-8.7
297.306	73.21
297.52	54.78
297.735	60.93
297.949	67.07
298.164	48.64
298.378	-0.51
298.593	77.31
298.807	65.02
299.022	11.78
299.236	32.26
299.451	-8.7
299.665	44.54
299.88	46.59
300.094	71.17
300.309	77.31
300.523	56.83
300.737	62.98
300.952	5.63
301.166	87.55
301.381	30.21
301.595	-29.18
301.809	22.02
302.024	38.4
302.238	38.4
302.452	40.45
302.667	-14.85
302.881	42.5
303.095	-10.75
303.309	9.73
303.524	50.69
303.738	65.02
303.952	5.63
304.166	22.02
304.381	30.21
304.595	38.4
304.809	-31.23
305.023	48.64
305.237	-4.61
305.452	7.68
305.666	9.73
305.88	52.74
306.094	79.36
306.308	42.5
306.522	17.92
306.736	17.92
306.95	97.79
307.164	36.35
307.379	-8.7
307.593	134.65
307.807	89.6
308.021	48.64
308.235	-29.18
308.449	-6.66
308.663	65.02
308.877	71.17
309.091	-25.09
309.305	-4.61
309.519	54.78
309.733	54.78
309.947	71.17
310.161	54.78
310.374	38.4
310.588	22.02
310.802	34.3
311.016	3.58
311.23	-18.94
311.444	44.54
311.658	15.87
311.872	93.69
312.085	99.84
312.299	54.78
312.513	-14.85
312.727	-27.14
312.941	-35.33
313.154	3.58
313.368	1.54
313.582	22.02
313.796	38.4
314.009	46.59
314.223	-23.04
314.437	-8.7
314.651	75.26
314.864	36.35
315.078	9.73
315.292	44.54
315.505	24.06
315.719	48.64
315.933	-8.7
316.146	46.59
316.36	-27.14
316.573	52.74
316.787	38.4
317.001	36.35
317.214	1.54
317.428	28.16
317.641	50.69
317.855	34.3
318.068	81.41
318.282	7.68
318.495	17.92
318.709	36.35
318.922	-27.14
319.136	114.17
319.349	3.58
319.563	-18.94
319.776	5.63
319.99	-39.42
320.203	17.92
320.417	44.54
320.63	77.31
320.843	3.58
321.057	-10.75
321.27	-18.94
321.483	24.06
321.697	58.88
321.91	7.68
322.124	13.82
322.337	36.35
322.55	11.78
322.763	-20.99
322.977	3.58
323.19	-20.99
323.403	-4.61
323.617	11.78
323.83	62.98
324.043	19.97
324.256	38.4
324.469	9.73
324.683	50.69
324.896	-37.38
325.109	62.98
325.322	-18.94
325.535	54.78
325.748	17.92
325.962	71.17
326.175	-37.38
326.388	69.12
326.601	19.97
326.814	50.69
327.027	19.97
327.24	75.26
327.453	38.4
327.666	17.92
327.879	32.26
328.092	9.73
328.305	-25.09
328.518	50.69
328.731	-25.09
328.944	30.21
329.157	58.88
329.37	118.27
329.583	-25.09
329.796	32.26
330.009	26.11
330.222	36.35
330.435	116.22
330.648	54.78
330.861	22.02
331.073	-14.85
331.286	54.78
331.499	58.88
331.712	3.58
331.925	19.97
332.138	-2.56
332.35	1.54
332.563	60.93
332.776	56.83
332.989	-109.05
333.202	-8.7
333.414	19.97
333.627	15.87
333.84	22.02
334.053	26.11
334.265	56.83
334.478	30.21
334.691	36.35
334.903	15.87
335.116	-8.7
335.329	5.63
335.541	40.45
335.754	19.97
335.966	54.78
336.179	36.35
336.392	36.35
336.604	85.5
336.817	110.08
337.029	69.12
337.242	-6.66
337.454	32.26
337.667	34.3
337.88	79.36
338.092	44.54
338.305	42.5
338.517	85.5
338.729	44.54
338.942	24.06
339.154	56.83
339.367	19.97
339.579	67.07
339.792	22.02
340.004	-2.56
340.217	40.45
340.429	26.11
340.641	48.64
340.854	56.83
341.066	36.35
341.278	71.17
341.491	-6.66
341.703	5.63
341.915	-43.52
342.128	38.4
342.34	-8.7
342.552	52.74
342.764	67.07
342.977	73.21
343.189	-23.04
343.401	52.74
343.613	69.12
343.826	87.55
344.038	65.02
344.25	77.31
344.462	17.92
344.674	24.06
344.886	17.92
345.099	-33.28
345.311	-76.29
345.523	11.78
345.735	3.58
345.947	22.02
346.159	46.59
346.371	110.08
346.583	-2.56
346.795	36.35
347.007	-29.18
347.219	-12.8
347.431	-14.85
347.643	19.97
347.855	19.97
348.067	50.69
348.279	73.21
348.491	-10.75
348.703	5.63
348.915	24.06
349.127	-6.66
349.339	-12.8
349.551	-33.28
349.763	36.35
349.975	89.6
350.187	122.37
350.399	-33.28
350.61	44.54
350.822	48.64
351.034	11.78
351.246	67.07
351.458	73.21
351.669	77.31
351.881	-64
352.093	-23.04
352.305	26.11
352.517	19.97
352.728	77.31
352.94	11.78
353.152	19.97
353.363	40.45
353.575	-4.61
353.787	40.45
353.999	93.69
354.21	13.82
354.422	52.74
354.633	67.07
354.845	9.73
355.057	-0.51
355.268	3.58
355.48	50.69
355.692	15.87
355.903	30.21
356.115	103.93
356.326	-37.38
356.538	73.21
356.749	34.3
356.961	11.78
357.172	58.88
357.384	62.98
357.595	71.17
357.807	73.21
358.018	-37.38
358.23	122.37
358.441	54.78
358.653	50.69
358.864	95.74
359.075	-4.61
359.287	36.35
359.498	65.02
359.709	52.74
359.921	-0.51
360.132	60.93
360.344	50.69
360.555	-102.91
360.766	-4.61
360.977	-0.51
361.189	-2.56
361.4	-16.9
361.611	-39.42
361.823	26.11
362.034	3.58
362.245	50.69
362.456	5.63
362.667	103.93
362.879	-27.14
363.09	13.82
363.301	77.31
363.512	-6.66
363.723	1.54
363.935	36.35
364.146	77.31
364.357	52.74
364.568	81.41
364.779	97.79
364.99	36.35
365.201	1.54
365.412	22.02
365.623	38.4
365.834	83.45
366.045	15.87
366.256	-20.99
366.467	44.54
366.678	87.55
366.889	11.78
367.1	-4.61
367.311	42.5
367.522	19.97
367.733	5.63
367.944	128.51
368.155	71.17
368.366	69.12
368.577	44.54
368.788	87.55
368.999	17.92
369.209	52.74
369.42	52.74
369.631	24.06
369.842	19.97
370.053	48.64
370.264	7.68
370.474	120.32
370.685	75.26
370.896	5.63
371.107	60.93
371.317	-6.66
371.528	50.69
371.739	30.21
371.95	44.54
372.16	99.84
372.371	-25.09
372.582	-6.66
372.792	81.41
373.003	-25.09
373.214	-16.9
373.424	65.02
373.635	85.5
373.846	69.12
374.056	46.59
374.267	67.07
374.477	3.58
374.688	48.64
374.898	19.97
375.109	50.69
375.319	46.59
375.53	-33.28
375.74	71.17
375.951	58.88
376.161	5.63
376.372	71.17
376.582	65.02
376.793	-8.7
377.003	40.45
377.214	36.35
377.424	122.37
377.635	105.98
377.845	-0.51
378.055	65.02
378.266	81.41
378.476	56.83
378.686	81.41
378.897	50.69
379.107	81.41
379.317	38.4
379.528	22.02
379.738	38.4
379.948	30.21
380.158	19.97
380.369	-43.52
380.579	-10.75
380.789	-12.8
380.999	54.78
381.21	52.74
381.42	3.58
381.63	11.78
381.84	30.21
382.05	9.73
382.261	116.22
382.471	83.45
382.681	65.02
382.891	91.65
383.101	93.69
383.311	19.97
383.521	-12.8
383.731	26.11
383.941	11.78
384.151	50.69
384.361	85.5
384.571	1.54
384.781	46.59
384.991	67.07
385.201	79.36
385.411	-10.75
385.621	48.64
385.831	9.73
386.041	101.89
386.251	3.58
386.461	50.69
386.671	112.13
386.881	19.97
387.091	1.54
387.301	99.84
387.511	46.59
387.72	-6.66
387.93	77.31
388.14	79.36
388.35	73.21
388.56	-0.51
388.769	71.17
388.979	-4.61
389.189	60.93
389.399	97.79
389.609	56.83
389.818	87.55
390.028	22.02
390.238	-16.9
390.447	73.21
390.657	77.31
390.867	65.02
391.076	1.54
391.286	95.74
391.496	110.08
391.705	26.11
391.915	69.12
392.125	5.63
392.334	69.12
392.544	15.87
392.753	-23.04
392.963	50.69
393.172	11.78
393.382	-2.56
393.591	17.92
393.801	5.63
394.01	32.26
394.22	42.5
394.429	77.31
394.639	95.74
394.848	44.54
395.058	17.92
395.267	138.75
395.477	97.79
395.686	85.5
395.895	40.45
396.105	101.89
396.314	42.5
396.524	7.68
396.733	46.59
396.942	87.55
397.152	13.82
397.361	60.93
397.57	71.17
397.78	58.88
397.989	50.69
398.198	81.41
398.407	36.35
398.617	120.32
398.826	62.98
399.035	89.6
399.244	60.93
399.453	60.93
399.663	128.51
399.872	118.27
400.081	89.6
400.29	75.26
400.499	122.37
400.708	130.56
400.917	89.6
401.127	48.64
401.336	42.5
401.545	56.83
401.754	146.94
401.963	79.36
402.172	73.21
402.381	91.65
402.59	69.12
402.799	87.55
403.008	108.03
403.217	52.74
403.426	71.17
403.635	112.13
403.844	54.78
404.053	171.52
404.262	101.89
404.471	165.37
404.68	93.69
404.888	103.93
405.097	126.46
405.306	62.98
405.515	136.7
405.724	99.84
405.933	40.45
406.142	62.98
406.35	116.22
406.559	183.81
406.768	140.8
406.977	163.33
407.185	167.42
407.394	112.13
407.603	134.65
407.812	165.37
408.02	267.77
408.229	204.28
408.438	206.33
408.646	198.14
408.855	183.81
409.064	120.32
409.272	173.57
409.481	169.47
409.69	175.61
409.898	255.48
410.107	263.68
410.315	228.86
410.524	161.28
410.733	237.05
410.941	220.67
411.15	323.07
411.358	249.34
411.567	310.78
411.775	235
411.984	353.79
412.192	335.35
412.401	275.96
412.609	384.51
412.818	372.22
413.026	347.64
413.234	364.03
413.443	384.51
413.651	314.88
413.86	390.65
414.068	435.71
414.276	392.7
414.485	456.19
414.693	466.42
414.901	527.86
415.11	560.63
415.318	587.26
415.526	589.3
415.734	558.58
415.943	558.58
416.151	519.67
416.359	538.1
416.567	617.97
416.776	699.89
416.984	710.13
417.192	716.28
417.4	757.24
417.608	753.14
417.817	728.56
418.025	742.9
418.233	882.16
418.441	720.37
418.649	867.83
418.857	949.75
419.065	929.27
419.273	916.98
419.481	1021.42
419.689	1056.24
419.897	1054.19
420.105	1107.44
420.313	1089.01
420.521	1240.56
420.729	1232.37
420.937	1172.97
421.145	1381.87
421.353	1302
421.561	1461.74
421.769	1385.96
421.977	1428.97
422.185	1535.46
422.393	1564.14
422.601	1586.66
422.809	1633.77
423.017	1705.45
423.224	1740.26
423.432	1809.89
423.64	1818.08
423.848	1932.77
424.056	1924.58
424.263	2108.9
424.471	2006.5
424.679	2121.18
424.887	2242.01
425.094	2319.84
425.302	2272.73
425.51	2432.47
425.718	2412
425.925	2547.16
426.133	2581.98
426.341	2696.66
426.548	2829.78
426.756	2883.03
426.964	2833.88
427.171	3005.91
427.379	3063.25
427.586	3120.59
427.794	3374.54
428.001	3573.19
428.209	3591.63
428.417	3458.51
428.624	3714.5
428.832	3714.5
429.039	3765.7
429.247	3608.01
429.454	4015.55
429.662	4292.03
429.869	4052.42
430.076	4246.98
430.284	4076.99
430.491	4509.12
430.699	4638.14
430.906	4593.08
431.114	4703.67
431.321	4808.12
431.528	4871.61
431.736	5172.66
431.943	5612.97
432.15	5459.37
432.358	5486
432.565	5795.24
432.772	5703.08
432.979	6100.39
433.187	5989.8
433.394	6182.31
433.601	6557.08
433.808	6483.36
434.016	6450.59
434.223	6948.25
434.43	7296.4
434.637	7079.32
434.844	7490.96
435.052	7685.51
435.259	7628.17
435.466	7566.73
435.673	7517.58
435.88	8203.65
436.087	8359.3
436.294	8641.92
436.501	8207.75
436.708	8453.5
436.915	8912.25
437.122	9256.31
437.329	9194.87
437.537	9524.59
437.743	9713
437.95	9602.41
438.157	10100.07
438.364	10321.25
438.571	10325.35
438.778	10284.39
438.985	11322.71
439.192	10968.41
439.399	11218.26
439.606	10927.45
439.813	11627.85
440.02	12363.08
440.227	12080.46
440.433	11986.25
440.64	12242.25
440.847	12252.49
441.054	12475.71
441.261	13366.58
441.467	13307.19
441.674	13546.8
441.881	13876.52
442.088	13835.56
442.294	14021.93
442.501	13960.49
442.708	14271.78
442.914	14712.1
443.121	15734.03
443.328	15181.08
443.534	16309.51
443.741	15953.16
443.948	15785.23
444.154	16665.86
444.361	16637.19
444.568	16874.75
444.774	16702.72
444.981	16784.64
445.187	17288.44
445.394	18328.81
445.6	18119.92
445.807	19752.15
446.013	18873.57
446.22	19053.79
446.426	20139.21
446.633	20163.79
446.839	20829.38
447.046	19535.06
447.252	21234.88
447.459	21112
447.665	20964.54
447.871	21822.64
448.078	22766.76
448.284	21761.2
448.491	22265
448.697	23039.14
448.903	23295.13
449.11	23817.36
449.316	22998.18
449.522	23710.87
449.728	24480.91
449.935	24720.52
450.141	25001.09
450.347	25058.43
450.553	24153.23
450.76	24679.56
450.966	25502.84
451.172	25072.77
451.378	25859.19
451.584	25130.11
451.791	25580.67
451.997	25922.68
452.203	26313.84
452.409	26131.57
452.615	25705.59
452.821	24898.69
453.027	24525.96
453.233	26176.62
453.44	25007.23
453.646	25240.7
453.852	25193.6
454.058	25580.67
454.264	25214.08
454.47	25418.88
454.676	24771.72
454.882	25787.51
455.088	23303.32
455.294	23747.73
455.5	23993.49
455.705	24388.75
455.911	23309.47
456.117	22863.01
456.323	22471.85
456.529	21365.95
456.735	22521
456.941	21705.91
457.147	21281.98
457.352	20870.34
457.558	20659.4
457.764	20546.76
457.97	20016.33
458.176	19776.72
458.381	19614.93
458.587	18605.28
458.793	18887.9
458.999	17560.82
459.204	18969.82
459.41	18615.52
459.616	17323.26
459.821	17386.74
460.027	17452.28
460.233	16884.99
460.438	16037.13
460.644	16325.89
460.85	15559.95
461.055	15516.95
461.261	15252.76
461.466	14101.8
461.672	13583.66
461.878	14820.64
462.083	13839.66
462.289	13321.52
462.494	13647.15
462.7	12537.15
462.905	12424.51
463.111	12860.73
463.316	13010.23
463.522	12571.97
463.727	12604.74
463.932	12817.72
464.138	12510.53
464.343	12838.2
464.549	12270.92
464.754	12498.24
464.959	12555.58
465.165	12514.63
465.37	12088.65
465.575	11658.57
465.781	12084.55
465.986	12340.55
466.191	11998.54
466.397	11685.2
466.602	10919.26
466.807	11504.98
467.012	11455.83
467.218	11386.19
467.423	10984.79
467.628	11279.7
467.833	11681.1
468.038	11257.17
468.244	10990.94
468.449	11330.9
468.654	11246.93
468.859	10904.92
469.064	10904.92
469.269	10216.8
469.474	10591.58
469.679	10638.69
469.885	10483.04
470.09	10702.17
470.295	10513.76
470.5	10409.31
470.705	10452.32
470.91	10052.97
471.115	10005.86
471.32	10329.44
471.525	10145.13
471.73	10034.53
471.935	9887.08
472.139	9655.66
472.344	9583.98
472.549	9573.74
472.754	9497.97
472.959	9213.3
473.164	9125.24
473.369	8844.67
473.574	9352.56
473.778	9022.84
473.983	9182.58
474.188	8942.97
474.393	8732.03
474.598	8867.19
474.802	8568.19
475.007	8615.29
475.212	8666.49
475.417	8336.77
475.621	8174.98
475.826	8170.88
476.031	8224.13
476.235	8023.43
476.44	8181.12
476.645	7888.26
476.849	8127.88
477.054	7900.55
477.259	7656.84
477.463	7837.06
477.668	7671.18
477.872	7493.01
478.077	7640.46
478.282	7417.23
478.486	7247.25
478.691	7220.63
478.895	7282.06
479.1	7150.99
479.304	7253.39
479.509	7202.19
479.713	7179.67
479.918	6905.24
480.122	6798.74
480.326	6995.35
480.531	6974.87
480.735	6862.23
480.94	6851.99
481.144	7064.98
481.348	6569.37
481.553	6802.84
481.757	6622.62
481.961	6788.5
482.166	6948.25
482.37	6897.05
482.574	6596
482.778	6978.97
482.983	6772.12
483.187	6661.53
483.391	6815.13
483.595	6737.31
483.8	6589.85
484.004	6636.95
484.208	6868.38
484.412	6682.01
484.616	6516.12
484.821	6577.56
485.025	6641.05
485.229	6526.36
485.433	6833.56
485.637	6647.19
485.841	6712.73
486.045	6542.75
486.249	6753.69
486.453	6464.93
486.657	6636.95
486.861	6677.91
487.065	6552.99
487.269	6565.28
487.473	6475.17
487.677	6667.67
487.881	6718.87
488.085	6792.6
488.289	6763.93
488.493	6651.29
488.697	6843.8
488.901	6755.74
489.105	6759.83
489.309	6712.73
489.512	6938.01
489.716	6880.66
489.92	6950.29
490.124	6655.39
490.328	6933.91
490.531	6677.91
490.735	6882.71
490.939	7077.27
491.143	6636.95
491.346	6790.55
491.55	6976.92
491.754	7136.66
491.958	6978.97
492.161	7021.97
492.365	7097.75
492.569	7054.74
492.772	6915.48
492.976	7378.32
493.18	7140.76
493.383	7476.62
493.587	7196.05
493.79	7470.48
493.994	7339.41
494.197	7601.55
494.401	7509.39
494.605	7658.89
494.808	7738.76
495.012	7501.2
495.215	7699.85
495.419	7761.29
495.622	7658.89
495.825	8000.9
496.029	7837.06
496.232	8197.51
496.436	7912.84
496.639	8349.06
496.843	8240.51
497.046	8428.93
497.249	8519.04
497.453	8498.56
497.656	8785.27
497.859	8375.68
498.063	8662.4
498.266	9016.69
498.469	8869.24
498.673	8844.67
498.876	9049.46
499.079	9278.83
499.282	9037.17
499.485	9385.33
499.689	9633.13
499.892	9514.35
500.095	9520.49
500.298	9885.03
500.501	9948.52
500.705	10229.09
500.908	10329.44
501.111	10288.48
501.314	10325.35
501.517	10677.6
501.72	10671.45
501.923	10872.15
502.126	10968.41
502.329	11289.94
502.532	11298.13
502.735	11298.13
502.938	11576.66
503.141	11642.19
503.344	11791.69
503.547	11894.09
503.75	12119.37
503.953	12420.42
504.156	12381.51
504.359	12545.34
504.562	12500.29
504.765	12840.25
504.968	13008.19
505.17	13002.04
505.373	12989.75
505.576	13473.07
505.779	13722.93
505.982	13751.6
506.185	13956.4
506.387	14052.65
506.59	14169.38
506.793	14449.96
506.996	14390.56
507.198	15136.03
507.401	14576.93
507.604	15107.35
507.807	15158.55
508.009	15547.67
508.212	15779.09
508.415	15947.02
508.617	16104.71
508.82	16004.36
509.022	16258.31
509.225	16428.29
509.428	16762.11
509.63	16860.41
509.833	16807.17
510.035	17495.29
510.238	17401.08
510.44	17661.17
510.643	17878.26
510.845	18099.44
511.048	18197.74
511.25	18566.37
511.453	18578.66
511.655	19285.21
511.858	19053.79
512.06	19201.24
512.262	19662.04
512.465	19471.57
512.667	20131.02
512.87	20294.86
513.072	20159.69
513.274	20765.89
513.477	21157.05
513.679	21175.48
513.881	21470.39
514.084	21736.63
514.286	21826.74
514.488	21869.75
514.69	22613.16
514.893	22695.08
515.095	22609.06
515.297	22777
515.499	22994.08
515.701	23555.22
515.904	23714.97
516.106	23577.75
516.308	24267.92
516.51	24439.95
516.712	24210.57
516.914	24870.02
517.116	25418.88
517.318	25468.03
517.52	25406.59
517.722	25814.13
517.925	26045.55
518.127	26403.95
518.329	26659.95
518.531	26262.64
518.733	27200.61
518.935	27376.73
519.136	27346.01
519.338	27855.96
519.54	28079.19
519.742	28556.36
519.944	28312.66
520.146	29277.25
520.348	29004.87
520.55	29244.48
520.752	29449.28
520.954	30035
521.155	29916.22
521.357	30321.71
521.559	30561.33
521.761	31116.33
521.963	30995.5
522.164	31269.92
522.366	31562.78
522.568	31775.77
522.77	31607.84
522.971	32267.28
523.173	32181.27
523.375	32455.7
523.576	32779.28
523.778	32431.12
523.98	33172.49
524.181	33338.37
524.383	33518.59
524.584	34112.5
524.786	34046.97
524.988	34122.74
525.189	34268.15
525.391	34376.69
525.592	34690.03
525.794	34735.09
525.995	34354.16
526.197	34499.57
526.398	35025.9
526.6	35199.97
526.801	35630.05
527.003	35521.51
527.204	35613.66
527.406	36074.46
527.607	36039.64
527.808	36418.52
528.01	35754.97
528.211	36469.72
528.412	36920.27
528.614	36600.79
528.815	36690.9
529.016	37241.8
529.218	36721.62
529.419	36604.88
529.62	37026.76
529.822	37012.43
530.023	37131.21
530.224	37430.21
530.425	37479.36
530.626	37108.68
530.828	37186.5
531.029	37929.92
531.23	37665.73
531.431	37626.82
531.632	37610.43
531.833	37675.97
532.035	37704.64
532.236	37850.05
532.437	38290.36
532.638	37417.93
532.839	38362.04
533.04	38147
533.241	37708.74
533.442	38345.65
533.643	38372.28
533.844	38015.93
534.045	38302.65
534.246	38030.27
534.447	38378.42
534.648	38230.97
534.849	38482.87
535.05	37888.96
535.251	38233.02
535.451	38628.27
535.652	38382.52
535.853	38319.03
536.054	38564.79
536.255	38413.24
536.456	38022.08
536.657	38871.98
536.857	38224.82
537.058	38556.6
537.259	38620.08
537.46	38577.08
537.66	38435.77
537.861	38661.04
538.062	38474.68
538.263	38570.93
538.463	38826.93
538.664	38499.25
538.865	38538.16
539.065	38325.18
539.266	38396.85
539.466	38904.75
539.667	37927.87
539.868	39187.37
540.068	38507.44
540.269	38118.33
540.469	38824.88
540.67	38271.93
540.87	38288.31
541.071	38372.28
541.271	38763.44
541.472	38179.77
541.672	38294.46
541.873	38103.99
542.073	37678.02
542.274	38378.42
542.474	38394.81
542.675	38216.63
542.875	38552.5
543.075	38259.64
543.276	38161.34
543.476	38593.46
543.676	38372.28
543.877	38542.26
544.077	38276.02
544.277	38286.26
544.478	38466.49
544.678	38216.63
544.878	38077.37
545.078	38648.75
545.279	37999.55
545.479	38081.47
545.679	38276.02
545.879	38419.38
546.079	38097.85
546.28	37790.66
546.48	38192.06
546.68	38276.02
546.88	38075.32
547.08	38634.42
547.28	38478.77
547.48	38003.64
547.68	38134.71
547.88	38157.24
548.081	38101.95
548.281	37919.68
548.481	38149.05
548.681	38325.18
548.881	38257.59
549.081	38431.67
549.28	37952.44
549.48	37911.49
549.68	37876.67
549.88	38728.63
550.08	37944.25
550.28	38259.64
550.48	37913.53
550.68	38691.76
550.88	38022.08
551.08	38165.43
551.279	37897.15
551.479	37665.73
551.679	37919.68
551.879	38181.82
552.079	38306.74
552.278	38190.01
552.478	38050.75
552.678	37891.01
552.878	37860.29
553.077	37921.73
553.277	37897.15
553.477	38181.82
553.676	37462.98
553.876	37962.68
554.076	37981.12
554.275	37878.72
554.475	37614.53
554.674	37972.92
554.874	37956.54
555.074	37551.04
555.273	37624.77
555.473	37944.25
555.672	37372.87
555.872	37686.21
556.071	37557.19
556.271	37718.98
556.47	37483.46
556.67	37170.12
556.869	37239.75
557.068	37211.08
557.268	36932.56
557.467	37360.58
557.667	37116.87
557.866	37170.12
558.065	37376.97
558.265	36660.18
558.464	37049.29
558.663	37274.57
558.863	36490.2
559.062	37444.55
559.261	36899.79
559.461	37227.46
559.66	36715.47
559.859	36516.82
560.058	36658.13
560.258	36613.07
560.457	36514.77
560.656	36674.51
560.855	36422.61
561.054	36787.15
561.253	36162.52
561.453	36295.64
561.652	36430.8
561.851	36359.13
562.05	36387.8
562.249	36139.99
562.448	36342.74
562.647	36342.74
562.846	36373.46
563.045	36082.65
563.244	35933.15
563.443	36211.67
563.642	35517.41
563.841	35722.21
564.04	35662.82
564.239	36420.56
564.438	35701.73
564.637	35732.45
564.836	35439.59
565.035	35523.55
565.234	35607.52
565.432	35443.68
565.631	35378.15
565.83	35523.55
566.029	34970.6
566.228	34966.51
566.427	35107.82
566.625	35003.37
566.824	34636.78
567.023	34878.44
567.222	34636.78
567.42	35351.52
567.619	34737.13
567.818	34870.25
568.016	34747.37
568.215	34636.78
568.414	34477.04
568.612	34741.23
568.811	34284.53
569.01	34360.31
569.208	33958.91
569.407	34233.33
569.605	33860.6
569.804	34208.76
570.002	33707.01
570.201	34329.59
570.4	33766.4
570.598	33608.7
570.797	33584.13
570.995	34057.21
571.193	33332.23
571.392	33721.34
571.59	33106.95
571.789	33283.08
571.987	33147.91
572.186	33057.8
572.384	32967.69
572.582	33139.72
572.781	33096.71
572.979	32627.73
573.177	32812.04
573.376	32723.98
573.574	32830.48
573.772	32836.62
573.971	32320.53
574.169	32218.13
574.367	32078.87
574.565	32451.6
574.763	32062.49
574.962	31968.28
575.16	31955.99
575.358	32199.7
575.556	31630.37
575.754	32017.43
575.952	31562.78
576.151	31935.51
576.349	31392.8
576.547	31108.13
576.745	31685.66
576.943	31280.16
577.141	31480.86
577.339	30757.93
577.537	30747.69
577.735	30964.78
577.933	30491.69
578.131	30637.1
578.329	30276.66
578.527	30305.33
578.725	30217.27
578.923	30549.04
579.121	29940.79
579.319	30043.19
579.516	30522.41
579.714	30116.92
579.912	30088.24
580.11	29944.89
580.308	29989.94
580.506	29707.32
580.704	29377.6
580.901	29856.82
581.099	29602.88
581.297	29482.05
581.495	29404.22
581.692	29359.17
581.89	28697.67
582.088	28984.39
582.285	28382.29
582.483	29209.67
582.681	28875.85
582.878	28742.73
583.076	28687.43
583.274	28490.83
583.471	28439.63
583.669	28359.76
583.866	28441.68
584.064	28558.41
584.262	28050.52
584.459	28472.4
584.657	27685.98
584.854	28042.32
585.052	27565.15
585.249	27784.28
585.447	28200.02
585.644	27950.17
585.841	27804.76
586.039	27886.68
586.236	27122.79
586.434	27696.22
586.631	27059.3
586.828	27206.75
587.026	27296.86
587.223	27106.4
587.42	26907.75
587.618	27001.96
587.815	26897.51
588.012	26733.67
588.21	26406
588.407	27300.96
588.604	26485.87
588.801	26516.59
588.999	26342.51
589.196	26133.62
589.393	26186.86
589.59	26428.52
589.787	25959.54
589.984	26076.27
590.182	25975.92
590.379	25851
590.576	25805.94
590.773	25625.72
590.97	25107.58
591.167	25840.76
591.364	25103.49
591.561	25502.84
591.758	25201.79
591.955	25244.8
592.152	25490.56
592.349	24827.01
592.546	24906.88
592.743	25306.24
592.94	24835.21
593.137	25080.96
593.334	24892.55
593.531	24734.85
593.727	24695.94
593.924	24773.77
594.121	24405.13
594.318	24638.6
594.515	24495.24
594.712	24497.29
594.908	24341.64
595.105	24065.17
595.302	23893.14
595.499	24319.12
595.696	24089.74
595.892	23663.77
596.089	23930
596.286	23733.4
596.482	23702.68
596.679	23760.02
596.876	23651.48
597.072	23653.53
597.269	23544.98
597.466	23270.56
597.662	23233.69
597.859	23356.57
598.055	23319.71
598.252	23155.87
598.448	22793.38
598.645	22918.31
598.841	22924.45
599.038	22766.76
599.234	22744.23
599.431	22662.31
599.627	22463.66
599.824	22664.36
600.02	22275.24
600.217	22482.09
600.413	22236.33
600.609	22017.2
600.806	22142.13
601.002	22185.13
601.198	21910.71
601.395	21826.74
601.591	21912.75
601.787	21742.77
601.984	22045.87
602.18	22103.21
602.376	21716.15
602.572	21884.08
602.769	21761.2
602.965	21781.68
603.161	21419.19
603.357	21318.84
603.553	21298.36
603.75	21656.76
603.946	21058.75
604.142	21288.12
604.338	20886.72
604.534	21146.81
604.73	20720.84
604.926	21093.57
605.122	20935.87
605.318	20505.8
605.514	20538.57
605.71	20511.94
605.906	20499.66
606.102	20481.22
606.298	20534.47
606.494	20296.91
606.69	20587.72
606.886	20231.37
607.082	19958.99
607.278	20311.24
607.474	19610.84
607.67	20016.33
607.866	19623.12
608.062	19981.52
608.257	19705.04
608.453	19668.18
608.649	19703
608.845	19428.57
609.041	19705.04
609.236	19676.37
609.432	19453.14
609.628	19330.27
609.824	19356.89
610.019	19301.59
610.215	19096.8
610.411	18947.29
610.606	18892
610.802	19242.2
610.998	19045.6
611.193	19109.08
611.389	18830.56
611.584	18834.66
611.78	18574.56
611.976	18810.08
612.171	18748.64
612.367	18953.44
612.562	18439.4
612.758	18205.93
612.953	18363.62
613.149	18478.31
613.344	18332.9
613.539	18699.49
613.735	18253.03
613.93	18433.25
614.126	18302.18
614.321	18293.99
614.517	18046.19
614.712	17753.33
614.907	17790.19
615.103	18107.63
615.298	17757.43
615.493	17884.4
615.688	17562.87
615.884	18068.72
616.079	17439.99
616.274	18056.43
616.47	17685.75
616.665	17487.09
616.86	17716.47
617.055	17616.12
617.25	17450.23
617.445	17595.64
617.641	17220.86
617.836	17218.81
618.031	17270.01
618.226	17341.69
618.421	17059.07
618.616	17325.3
618.811	16770.3
619.006	17106.17
619.201	16829.7
619.396	16782.59
619.591	16547.08
619.786	16760.06
619.981	16395.53
620.176	16704.77
620.371	16176.39
620.566	16471.3
620.761	16203.02
620.956	16258.31
621.151	15899.92
621.346	16082.19
621.541	16008.46
621.735	16207.11
621.93	15678.74
622.125	15551.76
622.32	15582.48
622.515	15701.26
622.709	15418.64
622.904	15537.43
623.099	15488.28
623.294	15291.67
623.488	15316.25
623.683	15170.84
623.878	15050.01
624.072	14867.74
624.267	14630.18
624.462	14927.13
624.656	14593.31
624.851	14701.86
625.046	14357.8
625.24	14210.34
625.435	14183.72
625.629	14400.8
625.824	14214.44
626.018	14275.88
626.213	13761.84
626.407	14050.6
626.602	13872.43
626.796	13810.99
626.991	13890.86
627.185	13849.9
627.38	13530.42
627.574	13610.29
627.768	13466.93
627.963	13282.61
628.157	13243.7
628.352	13260.09
628.546	13180.21
628.74	13167.93
628.935	12899.64
629.129	12926.27
629.323	12537.15
629.517	12877.12
629.712	12549.44
629.906	12578.11
630.1	12565.82
630.294	12483.91
630.489	12420.42
630.683	12772.67
630.877	12213.57
631.071	12174.66
631.265	12336.45
631.459	12272.96
631.653	12225.86
631.848	12119.37
632.042	11730.25
632.236	11996.49
632.43	11851.08
632.624	11957.58
632.818	11752.78
633.012	11699.53
633.206	11734.35
633.4	11752.78
633.594	11531.6
633.788	11574.61
633.982	11664.72
634.176	11326.8
634.369	11271.51
634.563	11177.3
634.757	11263.32
634.951	11060.57
635.145	11105.62
635.339	11255.12
635.533	11076.95
635.726	11148.63
635.92	10886.49
636.114	10827.1
636.308	10904.92
636.501	10710.36
636.695	10894.68
636.889	10644.83
637.083	10505.57
637.276	10495.33
637.47	10308.96
637.664	10270.05
637.857	10315.11
638.051	10308.96
638.244	10249.57
638.438	10229.09
638.632	10179.94
638.825	10153.32
639.019	9809.26
639.212	9887.08
639.406	9725.29
639.599	9792.87
639.793	9565.55
639.986	9735.53
640.18	9723.24
640.373	9479.54
640.567	9450.86
640.76	9604.46
640.954	9489.78
641.147	9467.25
641.34	9399.66
641.534	9254.26
641.727	9270.64
641.92	9305.46
642.114	9043.32
642.307	9059.7
642.5	8967.54
642.694	8834.43
642.887	8830.33
643.08	8844.67
643.273	8947.06
643.467	8836.47
643.66	8662.4
643.853	8476.03
644.046	8572.29
644.239	8682.88
644.432	8643.96
644.626	8461.69
644.819	8254.85
645.012	8353.15
645.205	8308.1
645.398	8318.34
645.591	8299.91
645.784	8217.99
645.977	8099.2
646.17	8148.36
646.363	8209.79
646.556	8066.44
646.749	8062.34
646.942	7824.78
647.135	7660.94
647.328	7732.62
647.521	7644.56
647.714	7447.95
647.907	7736.71
648.099	7536.01
648.292	7617.93
648.485	7511.44
648.678	7413.13
648.871	7355.79
649.064	7437.71
649.256	7423.37
649.449	7284.11
649.642	7253.39
649.835	7189.91
650.027	7107.99
650.22	6966.68
650.413	6962.58
650.605	6991.25
650.798	7058.84
650.991	7003.54
651.183	7105.94
651.376	6860.18
651.568	6888.85
651.761	6673.82
651.954	6897.05
652.146	6874.52
652.339	6614.43
652.531	6507.93
652.724	6579.61
652.916	6485.41
653.109	6374.81
653.301	6630.81
653.494	6434.21
653.686	6262.18
653.879	6391.2
654.071	6258.08
654.263	6268.32
654.456	6340
654.648	6178.21
654.84	6098.34
655.033	6026.66
655.225	6024.61
655.417	6038.95
655.61	6127.01
655.802	5918.12
655.994	5805.48
656.186	5934.5
656.379	5770.66
656.571	5803.43
656.763	5572.01
656.955	5709.22
657.148	5717.42
657.34	5729.7
657.532	5578.15
657.724	5492.14
657.916	5522.86
658.108	5596.59
658.3	5461.42
658.492	5576.11
658.684	5209.52
658.876	5303.73
659.068	5309.87
659.26	5201.33
659.452	5182.9
659.644	5133.75
659.836	5062.07
660.028	5207.47
660.22	4978.1
660.412	4914.61
660.604	5064.11
660.796	5088.69
660.988	4916.66
661.18	4828.6
661.372	4906.42
661.563	4967.86
661.755	4681.14
661.947	4775.35
662.139	4818.36
662.331	4840.89
662.522	4695.48
662.714	4568.51
662.906	4619.71
663.097	4707.77
663.289	4722.1
663.481	4439.48
663.673	4513.21
663.864	4505.02
664.056	4386.24
664.247	4453.82
664.439	4316.61
664.631	4376
664.822	4310.46
665.014	4408.76
665.205	4347.33
665.397	4259.26
665.588	4312.51
665.78	4302.27
665.971	4277.69
666.163	4095.43
666.354	4197.82
666.546	4212.16
666.737	4113.86
666.929	4146.62
667.12	3954.12
667.311	3870.15
667.503	3984.84
667.694	4029.89
667.885	3995.08
668.077	3993.03
668.268	3796.42
668.459	3884.48
668.651	3923.4
668.842	3960.26
669.033	3835.33
669.224	3722.7
669.416	3878.34
669.607	3870.15
669.798	3870.15
669.989	3696.07
670.18	3818.95
670.371	3728.84
670.563	3659.21
670.754	3745.22
670.945	3698.12
671.136	3679.69
671.327	3532.23
671.518	3538.38
671.709	3616.2
671.9	3452.36
672.091	3478.99
672.282	3546.57
672.473	3448.27
672.664	3470.8
672.855	3349.96
673.046	3474.89
673.237	3421.64
673.428	3435.98
673.619	3415.5
673.809	3384.78
674	3384.78
674.191	3362.25
674.382	3452.36
674.573	3255.76
674.764	3458.51
674.954	3290.57
675.145	3319.25
675.336	3190.22
675.527	3280.33
675.717	3352.01
675.908	3200.46
676.099	3249.61
676.289	3165.65
676.48	3214.8
676.671	3200.46
676.861	3124.69
677.052	3167.7
677.243	3274.19
677.433	2923.99
677.624	3141.07
677.814	3208.66
678.005	3093.97
678.195	2999.76
678.386	3057.11
678.576	3233.23
678.767	3073.49
678.957	3016.15
679.148	3065.3
679.338	3032.53
679.529	2889.17
679.719	2969.04
679.909	2915.8
680.1	2913.75
680.29	2999.76
680.481	2932.18
680.671	2915.8
680.861	2964.95
681.052	2923.99
681.242	3012.05
681.432	2979.28
681.622	2919.89
681.813	2858.45
682.003	2842.07
682.193	2770.39
682.383	3024.34
682.573	2711
682.764	2880.98
682.954	2850.26
683.144	2919.89
683.334	2792.92
683.524	2932.18
683.714	2864.6
683.904	2874.84
684.094	2743.77
684.284	2737.62
684.474	2747.86
684.664	2704.85
684.854	2829.78
685.044	2745.81
685.234	2870.74
685.424	2719.19
685.614	2733.53
685.804	2754.01
685.994	2772.44
686.184	2729.43
686.374	2766.29
686.564	2782.68
686.753	2788.82
686.943	2667.99
687.133	2766.29
687.323	2733.53
687.513	2727.38
687.702	2616.79
687.892	2616.79
688.082	2778.58
688.272	2803.16
688.461	2596.31
688.651	2868.69
688.841	2704.85
689.03	2727.38
689.22	2645.46
689.41	2680.28
689.599	2655.7
689.789	2670.04
689.979	2692.57
690.168	2676.18
690.358	2584.02
690.547	2688.47
690.737	2649.56
690.926	2645.46
691.116	2520.54
691.305	2555.35
691.495	2624.98
691.684	2612.7
691.874	2520.54
692.063	2584.02
692.252	2678.23
692.442	2700.76
692.631	2616.79
692.82	2659.8
693.01	2534.87
693.199	2649.56
693.388	2569.69
693.578	2504.15
693.767	2686.42
693.956	2573.78
694.146	2514.39
694.335	2686.42
694.524	2551.26
694.713	2557.4
694.902	2659.8
695.092	2592.22
695.281	2532.83
695.47	2635.22
695.659	2584.02
695.848	2573.78
696.037	2579.93
696.226	2506.2
696.415	2567.64
696.604	2520.54
696.793	2620.89
696.982	2526.68
697.171	2606.55
697.36	2532.83
697.549	2524.63
697.738	2541.02
697.927	2620.89
698.116	2731.48
698.305	2450.91
698.494	2604.5
698.683	2452.95
698.872	2471.39
699.061	2665.94
699.25	2502.11
699.438	2489.82
699.627	2403.8
699.816	2479.58
700.005	2471.39
700.193	2520.54
700.382	2479.58
700.571	2440.67
700.76	2504.15
700.948	2594.26
701.137	2508.25
701.326	2444.76
701.514	2409.95
701.703	2528.73
701.892	2340.32
702.08	2389.47
702.269	2399.71
702.457	2379.23
702.646	2543.07
702.834	2436.57
703.023	2346.46
703.212	2379.23
703.4	2412
703.589	2416.09
703.777	2360.8
703.965	2403.8
704.154	2215.39
704.342	2309.6
704.531	2313.69
704.719	2356.7
704.907	2364.89
705.096	2242.01
705.284	2340.32
705.472	2401.76
705.661	2262.49
705.849	2270.69
706.037	2387.42
706.226	2141.66
706.414	2223.58
706.602	2268.64
706.79	2207.2
706.979	2112.99
707.167	2158.05
707.355	2248.16
707.543	2221.53
707.731	2207.2
707.919	2215.39
708.107	2067.94
708.296	2141.66
708.484	2018.79
708.672	2131.42
708.86	2151.9
709.048	2196.96
709.236	2063.84
709.424	2145.76
709.612	2045.41
709.8	2139.62
709.988	2018.79
710.176	2123.23
710.364	2010.59
710.551	1998.31
710.739	2096.61
710.927	2098.66
711.115	1932.77
711.303	2049.5
711.491	1988.07
711.679	2045.41
711.866	2029.03
712.054	1940.96
712.242	1895.91
712.43	1928.67
712.617	1900
712.805	1957.35
712.993	1938.91
713.181	1963.49
713.368	1883.62
713.556	1943.01
713.744	1867.24
713.931	2016.74
714.119	1885.67
714.306	1824.23
714.494	1875.43
714.682	1900
714.869	1832.42
715.057	1809.89
715.244	1779.17
715.432	1746.41
715.619	1787.36
715.807	1758.69
715.994	1781.22
716.182	1863.14
716.369	1813.99
716.556	1766.89
716.744	1662.44
716.931	1744.36
717.119	1715.69
717.306	1811.94
717.493	1715.69
717.681	1664.49
717.868	1711.59
718.055	1707.49
718.242	1707.49
718.43	1680.87
718.617	1709.54
718.804	1629.67
718.991	1672.68
719.179	1631.72
719.366	1568.23
719.553	1779.17
719.74	1547.75
719.927	1623.53
720.114	1707.49
720.301	1627.62
720.488	1601
720.676	1580.52
720.863	1674.73
721.05	1545.7
721.237	1660.39
721.424	1512.94
721.611	1510.89
721.798	1598.95
721.985	1576.42
722.172	1510.89
722.358	1572.33
722.545	1539.56
722.732	1488.36
722.919	1512.94
723.106	1512.94
723.293	1455.59
723.48	1609.19
723.667	1469.93
723.853	1351.15
724.04	1422.83
724.227	1521.13
724.414	1416.68
724.6	1463.79
724.787	1449.45
724.974	1449.45
725.161	1312.24
725.347	1508.84
725.534	1416.68
725.72	1349.1
725.907	1375.72
726.094	1428.97
726.28	1424.87
726.467	1445.35
726.653	1426.92
726.84	1342.96
727.027	1332.72
727.213	1381.87
727.4	1412.59
727.586	1334.76
727.773	1359.34
727.959	1289.71
728.145	1285.61
728.332	1332.72
728.518	1295.85
728.705	1238.51
728.891	1236.46
729.077	1326.57
729.264	1310.19
729.45	1265.13
729.636	1289.71
729.823	1320.43
730.009	1314.28
730.195	1312.24
730.382	1240.56
730.568	1183.21
730.754	1265.13
730.94	1299.95
731.126	1230.32
731.313	1256.94
731.499	1242.61
731.685	1244.65
731.871	1263.08
732.057	1250.8
732.243	1203.69
732.429	1136.11
732.615	1150.45
732.801	1271.28
732.987	1158.64
733.173	1168.88
733.359	1203.69
733.545	1261.04
733.731	1175.02
733.917	1152.49
734.103	1134.06
734.289	1142.25
734.475	1037.81
734.661	1185.26
734.847	1142.25
735.033	1160.69
735.219	1121.77
735.404	1191.41
735.59	1138.16
735.776	1089.01
735.962	1195.5
736.148	1021.42
736.333	1052.14
736.519	1125.87
736.705	1013.23
736.89	1089.01
737.076	1105.39
737.262	1039.86
737.447	1041.9
737.633	1101.3
737.819	1089.01
738.004	986.61
738.19	1015.28
738.375	1035.76
738.561	1078.77
738.747	990.7
738.932	1048.05
739.118	1011.18
739.303	994.8
739.489	1091.06
739.674	1011.18
739.859	1011.18
740.045	1000.94
740.23	1058.29
740.416	1037.81
740.601	1062.38
740.786	980.47
740.972	886.26
741.157	978.42
741.342	931.31
741.528	900.59
741.713	962.03
741.898	902.64
742.084	968.18
742.269	957.94
742.454	916.98
742.639	878.07
742.824	1021.42
743.01	914.93
743.195	888.31
743.38	894.45
743.565	871.92
743.75	847.35
743.935	1035.76
744.12	861.68
744.305	986.61
744.49	863.73
744.675	871.92
744.86	849.4
745.045	835.06
745.23	755.19
745.415	810.48
745.6	814.58
745.785	865.78
745.97	843.25
746.155	835.06
746.34	886.26
746.525	828.92
746.71	798.2
746.895	771.57
747.079	794.1
747.264	781.81
747.449	902.64
747.634	841.2
747.819	826.87
748.003	857.59
748.188	796.15
748.373	802.29
748.557	740.85
748.742	798.2
748.927	775.67
749.111	714.23
749.296	769.52
749.481	771.57
749.665	884.21
749.85	724.47
750.034	749.04
750.219	744.95
750.404	740.85
750.588	759.28
750.773	734.71
750.957	775.67
751.141	677.37
751.326	785.91
751.51	628.21
751.695	701.94
751.879	699.89
752.064	714.23
752.248	716.28
752.432	667.13
752.617	724.47
752.801	644.6
752.985	706.04
753.17	669.17
753.354	665.08
753.538	665.08
753.722	591.35
753.907	634.36
754.091	652.79
754.275	683.51
754.459	701.94
754.643	583.16
754.828	613.88
755.012	620.02
755.196	544.25
755.38	605.69
755.564	566.78
755.748	577.02
755.932	554.49
756.116	656.89
756.3	622.07
756.484	544.25
756.668	636.41
756.852	568.82
757.036	642.55
757.22	589.3
757.404	558.58
757.588	531.96
757.772	542.2
757.956	577.02
758.14	458.23
758.323	615.93
758.507	540.15
758.691	548.34
758.875	495.1
759.059	560.63
759.242	550.39
759.426	568.82
759.61	529.91
759.794	493.05
759.977	554.49
760.161	525.82
760.345	568.82
760.528	429.56
760.712	484.86
760.895	558.58
761.079	505.34
761.263	433.66
761.446	452.09
761.63	536.06
761.813	456.19
761.997	495.1
762.18	478.71
762.364	521.72
762.547	421.37
762.731	478.71
762.914	474.62
763.098	443.9
763.281	394.75
763.464	447.99
763.648	480.76
763.831	439.8
764.015	435.71
764.198	417.27
764.381	437.75
764.564	480.76
764.748	411.13
764.931	486.9
765.114	435.71
765.297	491
765.481	452.09
765.664	372.22
765.847	458.23
766.03	501.24
766.213	507.38
766.397	478.71
766.58	486.9
766.763	431.61
766.946	425.47
767.129	423.42
767.312	411.13
767.495	474.62
767.678	486.9
767.861	361.98
768.044	491
768.227	458.23
768.41	341.5
768.593	413.18
768.776	495.1
768.959	460.28
769.142	394.75
769.324	409.08
769.507	431.61
769.69	450.04
769.873	478.71
770.056	427.51
770.239	404.99
770.421	480.76
770.604	384.51
770.787	413.18
770.97	390.65
771.152	361.98
771.335	372.22
771.518	331.26
771.7	361.98
771.883	374.27
772.066	359.93
772.248	478.71
772.431	384.51
772.613	505.34
772.796	454.14
772.978	349.69
773.161	396.79
773.343	443.9
773.526	316.92
773.708	335.35
773.891	314.88
774.073	337.4
774.256	366.07
774.438	411.13
774.621	296.44
774.803	507.38
774.985	380.41
775.168	323.07
775.35	370.17
775.532	345.59
775.715	337.4
775.897	380.41
776.079	357.88
776.261	347.64
776.444	351.74
776.626	318.97
776.808	364.03
776.99	323.07
777.173	316.92
777.355	298.49
777.537	339.45
777.719	382.46
777.901	364.03
778.083	251.39
778.265	263.68
778.447	355.83
778.629	327.16
778.811	355.83
778.993	314.88
779.175	347.64
779.357	359.93
779.539	243.2
779.721	331.26
779.903	237.05
780.085	341.5
780.267	312.83
780.449	237.05
780.631	314.88
780.812	314.88
780.994	253.44
781.176	243.2
781.358	251.39
781.54	263.68
781.721	312.83
781.903	296.44
782.085	235
782.267	247.29
782.448	286.2
782.63	296.44
782.812	208.38
782.993	171.52
783.175	232.96
783.357	185.85
783.538	310.78
783.72	261.63
783.901	220.67
784.083	265.72
784.264	235
784.446	239.1
784.627	278.01
784.809	255.48
784.99	212.48
785.172	243.2
785.353	220.67
785.535	273.92
785.716	245.24
785.897	271.87
786.079	185.85
786.26	241.15
786.441	206.33
786.623	192
786.804	192
786.985	228.86
787.167	218.62
787.348	196.09
787.529	216.57
787.71	208.38
787.891	247.29
788.073	200.19
788.254	251.39
788.435	247.29
788.616	241.15
788.797	192
788.978	183.81
789.159	239.1
789.34	226.81
789.522	200.19
789.703	187.9
789.884	202.24
790.065	155.13
790.246	183.81
790.427	185.85
790.607	155.13
790.788	175.61
790.969	161.28
791.15	159.23
791.331	228.86
791.512	161.28
791.693	155.13
791.874	235
792.054	204.28
792.235	212.48
792.416	157.18
792.597	196.09
792.778	230.91
792.958	187.9
793.139	181.76
793.32	153.09
793.5	206.33
793.681	134.65
793.862	210.43
794.042	144.89
794.223	138.75
794.404	65.02
794.584	155.13
794.765	169.47
794.945	206.33
795.126	189.95
795.306	185.85
795.487	105.98
795.667	192
795.848	187.9
796.028	151.04
796.209	148.99
796.389	165.37
796.57	103.93
796.75	120.32
796.93	60.93
797.111	134.65
797.291	132.61
797.471	130.56
797.652	120.32
797.832	167.42
798.012	130.56
798.192	101.89
798.373	163.33
798.553	85.5
798.733	206.33
798.913	116.22
799.093	124.41
799.274	110.08
799.454	148.99
799.634	122.37
799.814	132.61
799.994	85.5
800.174	165.37
800.354	130.56
800.534	95.74
800.714	165.37
800.894	52.74
801.074	128.51
801.254	95.74
801.434	175.61
801.614	155.13
801.794	97.79
801.974	413.18
802.154	73.21
802.334	151.04
802.514	97.79
802.693	89.6
802.873	136.7
803.053	161.28
803.233	181.76
803.413	69.12
803.592	87.55
803.772	116.22
803.952	175.61
804.131	97.79
804.311	81.41
804.491	112.13
804.67	3.58
804.85	87.55
805.03	151.04
805.209	134.65
805.389	56.83
805.568	87.55
805.748	69.12
805.928	79.36
806.107	62.98
806.287	50.69
806.466	40.45
806.646	132.61
806.825	124.41
807.004	89.6
807.184	52.74
807.363	87.55
807.543	77.31
807.722	19.97
807.901	151.04
808.081	112.13
808.26	181.76
808.439	99.84
808.619	56.83
808.798	81.41
808.977	108.03
809.156	101.89
809.336	120.32
809.515	140.8
809.694	97.79
809.873	56.83
810.052	97.79
810.231	163.33
810.411	130.56
810.59	101.89
810.769	62.98
810.948	126.46
811.127	77.31
811.306	120.32
811.485	81.41
811.664	118.27
811.843	79.36
812.022	138.75
812.201	126.46
812.38	46.59
812.559	89.6
812.737	69.12
812.916	79.36
813.095	73.21
813.274	56.83
813.453	110.08
813.632	67.07
813.811	22.02
813.989	54.78
814.168	136.7
814.347	93.69
814.526	103.93
814.704	120.32
814.883	67.07
815.062	77.31
815.24	7.68
815.419	58.88
815.598	40.45
815.776	7.68
815.955	30.21
816.133	85.5
816.312	40.45
816.49	89.6
816.669	24.06
816.847	71.17
817.026	97.79
817.204	48.64
817.383	56.83
817.561	97.79
817.74	132.61
817.918	73.21
818.097	103.93
818.275	50.69
818.453	77.31
818.632	40.45
818.81	46.59
818.988	19.97
819.167	122.37
819.345	22.02
819.523	103.93
819.701	85.5
819.879	62.98
820.058	15.87
820.236	73.21
820.414	130.56
820.592	-29.18
820.77	163.33
820.948	44.54
821.127	40.45
821.305	52.74
821.483	60.93
821.661	28.16
821.839	87.55
822.017	36.35
822.195	44.54
822.373	52.74
822.551	50.69
822.729	-0.51
822.907	60.93
823.085	13.82
823.262	99.84
823.44	28.16
823.618	56.83
823.796	118.27
823.974	-25.09
824.152	-4.61
824.329	52.74
824.507	44.54
824.685	-18.94
824.863	91.65
825.04	60.93
825.218	15.87
825.396	75.26
825.574	-45.57
825.751	54.78
825.929	95.74
826.107	71.17
826.284	32.26
826.462	73.21
826.639	36.35
826.817	122.37
826.994	58.88
827.172	-27.14
827.349	79.36
827.527	105.98
827.704	87.55
827.882	52.74
828.059	-18.94
828.237	97.79
828.414	17.92
828.591	1.54
828.769	3.58
828.946	87.55
829.124	97.79
829.301	58.88
829.478	5.63
829.655	56.83
829.833	52.74
830.01	24.06
830.187	7.68
830.364	44.54
830.542	75.26
830.719	-16.9
830.896	17.92
831.073	93.69
831.25	75.26
831.427	69.12
831.604	-12.8
831.782	71.17
831.959	40.45
832.136	52.74
832.313	146.94
832.49	73.21
832.667	110.08
832.844	69.12
833.021	60.93
833.198	93.69
833.374	-2.56
833.551	-2.56
833.728	60.93
833.905	3.58
834.082	24.06
834.259	56.83
834.436	99.84
834.612	15.87
834.789	28.16
834.966	24.06
835.143	11.78
835.319	40.45
835.496	134.65
835.673	87.55
835.85	17.92
836.026	116.22
836.203	75.26
836.38	9.73
836.556	3.58
836.733	-12.8
836.909	85.5
837.086	11.78
837.262	-14.85
837.439	69.12
837.616	71.17
837.792	-37.38
837.968	-25.09
838.145	32.26
838.321	71.17
838.498	69.12
838.674	32.26
838.851	-39.42
839.027	36.35
839.203	-37.38
839.38	3.58
839.556	15.87
839.732	-18.94
839.909	54.78
840.085	-20.99
840.261	-41.47
840.437	40.45
840.614	-64
840.79	30.21
840.966	95.74
841.142	85.5
841.318	30.21
841.494	-23.04
841.671	38.4
841.847	60.93
842.023	34.3
842.199	34.3
842.375	65.02
842.551	24.06
842.727	62.98
842.903	85.5
843.079	19.97
843.255	9.73
843.431	114.17
843.607	-6.66
843.783	19.97
843.959	22.02
844.134	11.78
844.31	136.7
844.486	-0.51
844.662	11.78
844.838	-20.99
845.013	48.64
845.189	5.63
845.365	-41.47
845.541	44.54
845.716	36.35
845.892	17.92
846.068	19.97
846.244	28.16
846.419	11.78
846.595	60.93
846.77	52.74
846.946	-4.61
847.122	13.82
847.297	13.82
847.473	67.07
847.648	-33.28
847.824	114.17
847.999	30.21
848.175	-20.99
848.35	79.36
848.526	60.93
848.701	-23.04
848.876	28.16
849.052	-16.9
849.227	-33.28
849.403	24.06
849.578	52.74
849.753	50.69
849.929	26.11
850.104	3.58
850.279	9.73
850.454	13.82
850.63	60.93
850.805	-35.33
850.98	89.6
851.155	-12.8
851.33	87.55
851.505	24.06
851.681	62.98
851.856	-8.7
852.031	67.07
852.206	-29.18
852.381	-70.14
852.556	-23.04
852.731	-20.99
852.906	-51.71
853.081	-27.14
853.256	-6.66
853.431	-18.94
853.606	-2.56
853.781	28.16
853.956	65.02
854.131	19.97
854.305	54.78
854.48	30.21
854.655	32.26
854.83	3.58
855.005	65.02
855.18	3.58
855.354	-0.51
855.529	5.63
855.704	-35.33
855.879	38.4
856.053	50.69
856.228	-0.51
856.403	30.21
856.577	52.74
856.752	73.21
856.926	99.84
857.101	62.98
857.276	-2.56
857.45	97.79
857.625	65.02
857.799	110.08
857.974	-18.94
858.148	-12.8
858.323	81.41
858.497	34.3
858.672	36.35
858.846	52.74
859.02	112.13
859.195	-88.57
859.369	17.92
859.543	58.88
859.718	7.68
859.892	-27.14
860.066	28.16
860.241	-35.33
860.415	-39.42
860.589	5.63
860.763	1.54
860.938	36.35
861.112	24.06
861.286	-49.66
861.46	30.21
861.634	24.06
861.808	42.5
861.982	19.97
862.157	56.83
862.331	-29.18
862.505	73.21
862.679	5.63
862.853	48.64
863.027	48.64
863.201	65.02
863.375	-2.56
863.549	15.87
863.722	15.87
863.896	15.87
864.07	40.45
864.244	11.78
864.418	-41.47
864.592	19.97
864.766	13.82
864.939	24.06
865.113	-29.18
865.287	50.69
865.461	-27.14
865.634	44.54
865.808	60.93
865.982	-45.57
866.156	34.3
866.329	40.45
866.503	-10.75
866.676	-4.61
866.85	9.73
867.024	-16.9
867.197	11.78
867.371	118.27
867.544	-12.8
867.718	11.78
867.891	-0.51
868.065	28.16
868.238	-39.42
868.412	3.58
868.585	42.5
868.759	62.98
868.932	19.97
869.105	67.07
869.279	-35.33
869.452	-6.66
869.625	91.65
869.799	13.82
869.972	28.16
870.145	30.21
870.319	-8.7
870.492	22.02
870.665	24.06
870.838	42.5
871.011	-27.14
871.185	15.87
871.358	42.5
871.531	62.98
871.704	30.21
871.877	24.06
872.05	-16.9
872.223	-33.28
872.396	15.87
872.569	3.58
872.742	65.02
872.915	69.12
873.088	15.87
873.261	-0.51
873.434	32.26
873.607	-66.05
873.78	-33.28
873.953	-49.66
874.126	9.73
874.299	24.06
874.471	73.21
874.644	-39.42
874.817	22.02
874.99	36.35
875.163	1.54
875.335	81.41
875.508	42.5
875.681	30.21
875.853	-33.28
876.026	38.4
876.199	34.3
876.371	40.45
876.544	15.87
876.717	28.16
876.889	-12.8
877.062	58.88
877.234	-16.9
877.407	22.02
877.579	24.06
877.752	24.06
877.924	5.63
878.097	-27.14
878.269	3.58
878.442	48.64
878.614	7.68
878.786	34.3
878.959	36.35
879.131	19.97
879.303	-20.99
879.476	1.54
879.648	-39.42
879.82	-68.09
879.993	-12.8
880.165	-14.85
880.337	-39.42
880.509	-27.14
880.681	-80.38
880.854	3.58
881.026	60.93
881.198	93.69
881.37	40.45
881.542	36.35
881.714	-12.8
881.886	15.87
882.058	-16.9
882.23	-10.75
882.402	-43.52
882.574	-2.56
882.746	15.87
882.918	24.06
883.09	-25.09
883.262	-18.94
883.434	44.54
883.606	-37.38
883.778	-53.76
883.95	73.21
884.122	15.87
884.293	91.65
884.465	1.54
884.637	19.97
884.809	-41.47
884.98	5.63
885.152	28.16
885.324	7.68
885.496	22.02
885.667	60.93
885.839	-31.23
886.011	-4.61
886.182	17.92
886.354	9.73
886.525	9.73
886.697	22.02
886.869	22.02
887.04	62.98
887.212	46.59
887.383	36.35
887.555	-12.8
887.726	-31.23
887.897	-20.99
888.069	60.93
888.24	-16.9
888.412	36.35
888.583	79.36
888.754	62.98
888.926	-64
889.097	-25.09
889.268	-4.61
889.44	3.58
889.611	73.21
889.782	32.26
889.953	-64
890.125	38.4
890.296	52.74
890.467	-16.9
890.638	3.58
890.809	-43.52
890.98	19.97
891.151	65.02
891.323	-45.57
891.494	-8.7
891.665	-18.94
891.836	30.21
892.007	-29.18
892.178	54.78
892.349	32.26
892.52	-37.38
892.691	56.83
892.862	-12.8
893.032	-37.38
893.203	-25.09
893.374	-12.8
893.545	-20.99
893.716	28.16
893.887	36.35
894.057	-27.14
894.228	-33.28
894.399	-10.75
894.57	-29.18
894.74	69.12
894.911	-16.9
895.082	38.4
895.253	-39.42
895.423	-33.28
895.594	97.79
895.764	9.73
895.935	-20.99
896.106	7.68
896.276	-25.09
896.447	-29.18
896.617	62.98
896.788	-45.57
896.958	-20.99
897.129	-29.18
897.299	54.78
897.47	-0.51
897.64	38.4
897.81	-20.99
897.981	-68.09
898.151	69.12
898.322	-53.76
898.492	-57.86
898.662	22.02
898.832	1.54
899.003	-20.99
899.173	17.92
899.343	32.26
899.513	36.35
