Data from USB4F104151__216__14-00-10-023.txt Node

Date: Thu Mar 13 14:00:10 EDT 2025
User: louis
Spectrometer: USB4F10415
Trigger mode: 4
Integration Time (sec): 1.000000E-2
Scans to average: 1
Electric dark correction enabled: true
Nonlinearity correction enabled: false
Boxcar width: 0
XAxis mode: Wavelengths
Number of Pixels in Spectrum: 3648
>>>>>Begin Spectral Data<<<<<
178.204	-32.26
178.424	-32.26
178.644	-32.26
178.864	-87.55
179.084	-89.6
179.304	-15.87
179.524	-1.54
179.744	-24.06
179.964	-15.87
180.184	0.51
180.404	66.05
180.624	27.14
180.844	43.52
181.064	0.51
181.283	-17.92
181.503	-13.82
181.723	-48.64
181.943	35.33
182.163	41.47
182.383	31.23
182.602	-5.63
182.822	18.94
183.042	31.23
183.262	0.51
183.482	14.85
183.701	68.09
183.921	33.28
184.141	-7.68
184.361	55.81
184.58	74.24
184.8	61.95
185.02	2.56
185.239	43.52
185.459	66.05
185.679	8.7
185.898	-22.02
186.118	86.53
186.338	41.47
186.557	121.34
186.777	41.47
186.997	33.28
187.216	49.66
187.436	68.09
187.655	10.75
187.875	51.71
188.095	39.42
188.314	10.75
188.534	25.09
188.753	27.14
188.973	68.09
189.192	94.72
189.412	16.9
189.631	43.52
189.851	31.23
190.07	78.33
190.29	35.33
190.509	35.33
190.729	66.05
190.948	61.95
191.168	115.2
191.387	109.05
191.607	-9.73
191.826	100.86
192.045	100.86
192.265	-11.78
192.484	0.51
192.704	100.86
192.923	82.43
193.142	127.49
193.362	111.1
193.581	31.23
193.8	-5.63
194.02	59.9
194.239	-44.54
194.458	82.43
194.678	-11.78
194.897	16.9
195.116	43.52
195.335	107.01
195.555	113.15
195.774	25.09
195.993	39.42
196.212	33.28
196.432	100.86
196.651	33.28
196.87	59.9
197.089	53.76
197.308	0.51
197.528	16.9
197.747	4.61
197.966	6.66
198.185	35.33
198.404	27.14
198.623	123.39
198.842	57.86
199.062	70.14
199.281	29.18
199.5	-15.87
199.719	41.47
199.938	92.67
200.157	27.14
200.376	45.57
200.595	-7.68
200.814	57.86
201.033	35.33
201.252	-11.78
201.471	78.33
201.69	133.63
201.909	31.23
202.128	27.14
202.347	49.66
202.566	37.38
202.785	20.99
203.004	29.18
203.223	-28.16
203.442	0.51
203.661	33.28
203.879	37.38
204.098	16.9
204.317	35.33
204.536	27.14
204.755	-3.58
204.974	47.62
205.193	-67.07
205.411	90.62
205.63	33.28
205.849	6.66
206.068	10.75
206.287	59.9
206.505	82.43
206.724	-7.68
206.943	72.19
207.162	0.51
207.381	109.05
207.599	16.9
207.818	59.9
208.037	98.81
208.255	23.04
208.474	51.71
208.693	20.99
208.911	6.66
209.13	-1.54
209.349	35.33
209.567	88.57
209.786	25.09
210.005	92.67
210.223	35.33
210.442	41.47
210.661	14.85
210.879	84.48
211.098	64
211.316	80.38
211.535	66.05
211.753	51.71
211.972	10.75
212.191	0.51
212.409	70.14
212.628	20.99
212.846	53.76
213.065	-1.54
213.283	57.86
213.502	41.47
213.72	-7.68
213.938	70.14
214.157	33.28
214.375	14.85
214.594	90.62
214.812	-77.31
215.031	55.81
215.249	35.33
215.467	0.51
215.686	76.29
215.904	86.53
216.122	70.14
216.341	41.47
216.559	2.56
216.778	82.43
216.996	72.19
217.214	115.2
217.432	57.86
217.651	57.86
217.869	64
218.087	8.7
218.306	53.76
218.524	23.04
218.742	90.62
218.96	78.33
219.179	53.76
219.397	74.24
219.615	31.23
219.833	66.05
220.051	51.71
220.27	96.77
220.488	68.09
220.706	25.09
220.924	25.09
221.142	-15.87
221.36	37.38
221.578	61.95
221.796	-30.21
222.015	27.14
222.233	-9.73
222.451	57.86
222.669	18.94
222.887	12.8
223.105	8.7
223.323	45.57
223.541	39.42
223.759	76.29
223.977	6.66
224.195	49.66
224.413	-28.16
224.631	76.29
224.849	68.09
225.067	129.53
225.285	55.81
225.503	37.38
225.721	35.33
225.939	35.33
226.157	51.71
226.375	59.9
226.592	-3.58
226.81	57.86
227.028	72.19
227.246	14.85
227.464	-7.68
227.682	53.76
227.9	53.76
228.117	2.56
228.335	61.95
228.553	-9.73
228.771	33.28
228.989	-3.58
229.206	-22.02
229.424	49.66
229.642	25.09
229.86	18.94
230.077	0.51
230.295	111.1
230.513	92.67
230.731	111.1
230.948	-5.63
231.166	27.14
231.384	66.05
231.601	29.18
231.819	39.42
232.037	18.94
232.254	43.52
232.472	111.1
232.689	16.9
232.907	23.04
233.125	29.18
233.342	41.47
233.56	-34.3
233.777	-19.97
233.995	53.76
234.213	25.09
234.43	10.75
234.648	-7.68
234.865	29.18
235.083	66.05
235.3	86.53
235.518	98.81
235.735	72.19
235.953	100.86
236.17	2.56
236.388	55.81
236.605	29.18
236.822	41.47
237.04	47.62
237.257	45.57
237.475	98.81
237.692	109.05
237.909	49.66
238.127	74.24
238.344	-11.78
238.562	29.18
238.779	37.38
238.996	-19.97
239.214	10.75
239.431	84.48
239.648	-3.58
239.865	66.05
240.083	76.29
240.3	78.33
240.517	135.68
240.735	43.52
240.952	20.99
241.169	16.9
241.386	59.9
241.603	66.05
241.821	72.19
242.038	43.52
242.255	43.52
242.472	61.95
242.689	10.75
242.907	-36.35
243.124	10.75
243.341	20.99
243.558	4.61
243.775	39.42
243.992	49.66
244.209	92.67
244.426	82.43
244.643	57.86
244.86	53.76
245.078	0.51
245.295	107.01
245.512	53.76
245.729	23.04
245.946	6.66
246.163	47.62
246.38	90.62
246.597	10.75
246.814	33.28
247.031	0.51
247.248	76.29
247.464	16.9
247.681	-46.59
247.898	53.76
248.115	119.29
248.332	18.94
248.549	139.77
248.766	76.29
248.983	115.2
249.2	68.09
249.417	-1.54
249.633	31.23
249.85	70.14
250.067	33.28
250.284	98.81
250.501	57.86
250.717	55.81
250.934	16.9
251.151	41.47
251.368	-22.02
251.585	76.29
251.801	12.8
252.018	27.14
252.235	107.01
252.451	4.61
252.668	80.38
252.885	55.81
253.102	59.9
253.318	35.33
253.535	43.52
253.752	78.33
253.968	82.43
254.185	43.52
254.401	43.52
254.618	27.14
254.835	-1.54
255.051	43.52
255.268	45.57
255.484	10.75
255.701	86.53
255.917	80.38
256.134	18.94
256.351	43.52
256.567	-3.58
256.784	98.81
257	2.56
257.217	20.99
257.433	-67.07
257.65	33.28
257.866	35.33
258.082	16.9
258.299	66.05
258.515	55.81
258.732	14.85
258.948	45.57
259.165	59.9
259.381	123.39
259.597	16.9
259.814	57.86
260.03	18.94
260.246	78.33
260.463	78.33
260.679	68.09
260.895	33.28
261.112	86.53
261.328	74.24
261.544	78.33
261.761	23.04
261.977	41.47
262.193	37.38
262.409	94.72
262.626	35.33
262.842	123.39
263.058	-11.78
263.274	90.62
263.49	66.05
263.707	102.91
263.923	45.57
264.139	-30.21
264.355	41.47
264.571	131.58
264.787	61.95
265.004	107.01
265.22	14.85
265.436	35.33
265.652	33.28
265.868	14.85
266.084	78.33
266.3	37.38
266.516	43.52
266.732	90.62
266.948	61.95
267.164	86.53
267.38	57.86
267.596	27.14
267.812	-1.54
268.028	6.66
268.244	35.33
268.46	25.09
268.676	0.51
268.892	35.33
269.108	0.51
269.324	23.04
269.54	-46.59
269.756	18.94
269.972	-40.45
270.188	-32.26
270.403	-24.06
270.619	102.91
270.835	129.53
271.051	70.14
271.267	10.75
271.483	41.47
271.698	51.71
271.914	88.57
272.13	10.75
272.346	45.57
272.562	61.95
272.777	55.81
272.993	59.9
273.209	-7.68
273.425	49.66
273.64	35.33
273.856	25.09
274.072	102.91
274.287	-3.58
274.503	29.18
274.719	23.04
274.934	29.18
275.15	68.09
275.366	94.72
275.581	27.14
275.797	78.33
276.012	-13.82
276.228	35.33
276.444	59.9
276.659	96.77
276.875	8.7
277.09	43.52
277.306	78.33
277.521	47.62
277.737	23.04
277.952	90.62
278.168	-9.73
278.383	76.29
278.599	78.33
278.814	70.14
279.03	-65.02
279.245	84.48
279.461	107.01
279.676	47.62
279.892	14.85
280.107	27.14
280.322	37.38
280.538	84.48
280.753	-46.59
280.969	-5.63
281.184	55.81
281.399	70.14
281.615	-34.3
281.83	100.86
282.045	86.53
282.26	6.66
282.476	-7.68
282.691	53.76
282.906	78.33
283.122	84.48
283.337	43.52
283.552	-30.21
283.767	90.62
283.983	12.8
284.198	61.95
284.413	55.81
284.628	98.81
284.843	53.76
285.058	45.57
285.274	68.09
285.489	2.56
285.704	111.1
285.919	20.99
286.134	109.05
286.349	35.33
286.564	74.24
286.779	-24.06
286.995	-7.68
287.21	53.76
287.425	66.05
287.64	45.57
287.855	66.05
288.07	41.47
288.285	29.18
288.5	57.86
288.715	86.53
288.93	57.86
289.145	18.94
289.36	66.05
289.575	-1.54
289.79	72.19
290.004	68.09
290.219	98.81
290.434	25.09
290.649	53.76
290.864	-5.63
291.079	16.9
291.294	55.81
291.509	64
291.724	51.71
291.938	68.09
292.153	35.33
292.368	41.47
292.583	33.28
292.798	6.66
293.012	64
293.227	8.7
293.442	41.47
293.657	80.38
293.871	49.66
294.086	12.8
294.301	76.29
294.516	27.14
294.73	20.99
294.945	51.71
295.16	10.75
295.374	8.7
295.589	92.67
295.804	59.9
296.018	59.9
296.233	66.05
296.447	74.24
296.662	-24.06
296.877	37.38
297.091	64
297.306	84.48
297.52	78.33
297.735	66.05
297.949	53.76
298.164	16.9
298.378	25.09
298.593	8.7
298.807	29.18
299.022	49.66
299.236	49.66
299.451	49.66
299.665	29.18
299.88	12.8
300.094	16.9
300.309	88.57
300.523	41.47
300.737	-15.87
300.952	82.43
301.166	16.9
301.381	10.75
301.595	57.86
301.809	55.81
302.024	55.81
302.238	51.71
302.452	45.57
302.667	41.47
302.881	55.81
303.095	18.94
303.309	35.33
303.524	55.81
303.738	76.29
303.952	37.38
304.166	39.42
304.381	51.71
304.595	14.85
304.809	53.76
305.023	10.75
305.237	47.62
305.452	31.23
305.666	119.29
305.88	76.29
306.094	20.99
306.308	147.97
306.522	37.38
306.736	94.72
306.95	-52.74
307.164	49.66
307.379	-50.69
307.593	29.18
307.807	55.81
308.021	39.42
308.235	123.39
308.449	-73.21
308.663	25.09
308.877	98.81
309.091	37.38
309.305	74.24
309.519	-1.54
309.733	41.47
309.947	-28.16
310.161	45.57
310.374	117.25
310.588	4.61
310.802	98.81
311.016	131.58
311.23	119.29
311.444	14.85
311.658	0.51
311.872	47.62
312.085	102.91
312.299	84.48
312.513	100.86
312.727	72.19
312.941	70.14
313.154	90.62
313.368	29.18
313.582	104.96
313.796	98.81
314.009	59.9
314.223	18.94
314.437	115.2
314.651	-15.87
314.864	37.38
315.078	16.9
315.292	41.47
315.505	53.76
315.719	16.9
315.933	98.81
316.146	102.91
316.36	109.05
316.573	53.76
316.787	57.86
317.001	18.94
317.214	49.66
317.428	90.62
317.641	-30.21
317.855	113.15
318.068	0.51
318.282	-22.02
318.495	55.81
318.709	76.29
318.922	8.7
319.136	129.53
319.349	94.72
319.563	-5.63
319.776	-7.68
319.99	-9.73
320.203	80.38
320.417	-3.58
320.63	29.18
320.843	25.09
321.057	53.76
321.27	92.67
321.483	100.86
321.697	76.29
321.91	49.66
322.124	-7.68
322.337	39.42
322.55	35.33
322.763	47.62
322.977	-3.58
323.19	-13.82
323.403	66.05
323.617	25.09
323.83	78.33
324.043	61.95
324.256	82.43
324.469	78.33
324.683	45.57
324.896	14.85
325.109	51.71
325.322	53.76
325.535	98.81
325.748	49.66
325.962	84.48
326.175	25.09
326.388	68.09
326.601	25.09
326.814	39.42
327.027	31.23
327.24	111.1
327.453	-1.54
327.666	49.66
327.879	68.09
328.092	84.48
328.305	49.66
328.518	10.75
328.731	66.05
328.944	51.71
329.157	82.43
329.37	8.7
329.583	61.95
329.796	70.14
330.009	-17.92
330.222	86.53
330.435	45.57
330.648	45.57
330.861	92.67
331.073	84.48
331.286	45.57
331.499	92.67
331.712	131.58
331.925	23.04
332.138	8.7
332.35	55.81
332.563	84.48
332.776	109.05
332.989	27.14
333.202	90.62
333.414	16.9
333.627	37.38
333.84	20.99
334.053	49.66
334.265	61.95
334.478	47.62
334.691	-28.16
334.903	82.43
335.116	92.67
335.329	18.94
335.541	16.9
335.754	117.25
335.966	45.57
336.179	27.14
336.392	76.29
336.604	31.23
336.817	20.99
337.029	68.09
337.242	98.81
337.454	82.43
337.667	14.85
337.88	113.15
338.092	-28.16
338.305	98.81
338.517	51.71
338.729	4.61
338.942	49.66
339.154	64
339.367	57.86
339.579	37.38
339.792	59.9
340.004	82.43
340.217	119.29
340.429	84.48
340.641	113.15
340.854	53.76
341.066	82.43
341.278	78.33
341.491	57.86
341.703	6.66
341.915	94.72
342.128	57.86
342.34	16.9
342.552	74.24
342.764	98.81
342.977	45.57
343.189	123.39
343.401	33.28
343.613	10.75
343.826	70.14
344.038	-5.63
344.25	68.09
344.462	41.47
344.674	2.56
344.886	43.52
345.099	82.43
345.311	49.66
345.523	88.57
345.735	49.66
345.947	74.24
346.159	70.14
346.371	53.76
346.583	-17.92
346.795	-9.73
347.007	27.14
347.219	66.05
347.431	49.66
347.643	76.29
347.855	76.29
348.067	53.76
348.279	61.95
348.491	33.28
348.703	92.67
348.915	41.47
349.127	33.28
349.339	82.43
349.551	111.1
349.763	78.33
349.975	66.05
350.187	57.86
350.399	115.2
350.61	33.28
350.822	51.71
351.034	-5.63
351.246	4.61
351.458	2.56
351.669	41.47
351.881	57.86
352.093	59.9
352.305	35.33
352.517	41.47
352.728	25.09
352.94	49.66
353.152	27.14
353.363	41.47
353.575	33.28
353.787	92.67
353.999	98.81
354.21	4.61
354.422	117.25
354.633	84.48
354.845	-5.63
355.057	4.61
355.268	74.24
355.48	33.28
355.692	100.86
355.903	92.67
356.115	59.9
356.326	51.71
356.538	84.48
356.749	31.23
356.961	57.86
357.172	80.38
357.384	16.9
357.595	88.57
357.807	92.67
358.018	53.76
358.23	74.24
358.441	86.53
358.653	57.86
358.864	86.53
359.075	131.58
359.287	6.66
359.498	66.05
359.709	100.86
359.921	41.47
360.132	-5.63
360.344	115.2
360.555	51.71
360.766	45.57
360.977	31.23
361.189	94.72
361.4	76.29
361.611	94.72
361.823	-30.21
362.034	18.94
362.245	4.61
362.456	78.33
362.667	84.48
362.879	86.53
363.09	55.81
363.301	49.66
363.512	152.06
363.723	84.48
363.935	43.52
364.146	43.52
364.357	-3.58
364.568	98.81
364.779	90.62
364.99	43.52
365.201	115.2
365.412	2.56
365.623	-11.78
365.834	100.86
366.045	49.66
366.256	53.76
366.467	16.9
366.678	61.95
366.889	76.29
367.1	45.57
367.311	78.33
367.522	2.56
367.733	80.38
367.944	74.24
368.155	-22.02
368.366	61.95
368.577	74.24
368.788	80.38
368.999	68.09
369.209	82.43
369.42	68.09
369.631	123.39
369.842	29.18
370.053	64
370.264	-81.41
370.474	72.19
370.685	102.91
370.896	86.53
371.107	51.71
371.317	90.62
371.528	16.9
371.739	154.11
371.95	51.71
372.16	59.9
372.371	70.14
372.582	86.53
372.792	20.99
373.003	33.28
373.214	59.9
373.424	100.86
373.635	55.81
373.846	18.94
374.056	104.96
374.267	49.66
374.477	61.95
374.688	137.73
374.898	-9.73
375.109	98.81
375.319	55.81
375.53	98.81
375.74	-1.54
375.951	68.09
376.161	31.23
376.372	59.9
376.582	92.67
376.793	150.01
377.003	10.75
377.214	61.95
377.424	43.52
377.635	80.38
377.845	37.38
378.055	94.72
378.266	45.57
378.476	109.05
378.686	61.95
378.897	53.76
379.107	-7.68
379.317	51.71
379.528	82.43
379.738	57.86
379.948	41.47
380.158	121.34
380.369	14.85
380.579	74.24
380.789	47.62
380.999	49.66
381.21	74.24
381.42	158.21
381.63	-3.58
381.84	59.9
382.05	61.95
382.261	139.77
382.471	20.99
382.681	125.44
382.891	86.53
383.101	8.7
383.311	84.48
383.521	59.9
383.731	72.19
383.941	45.57
384.151	-65.02
384.361	168.45
384.571	-13.82
384.781	35.33
384.991	59.9
385.201	92.67
385.411	25.09
385.621	59.9
385.831	57.86
386.041	152.06
386.251	100.86
386.461	74.24
386.671	80.38
386.881	37.38
387.091	55.81
387.301	72.19
387.511	53.76
387.72	66.05
387.93	57.86
388.14	70.14
388.35	92.67
388.56	33.28
388.769	104.96
388.979	72.19
389.189	27.14
389.399	27.14
389.609	41.47
389.818	98.81
390.028	16.9
390.238	64
390.447	33.28
390.657	125.44
390.867	109.05
391.076	18.94
391.286	96.77
391.496	113.15
391.705	109.05
391.915	78.33
392.125	133.63
392.334	8.7
392.544	160.25
392.753	33.28
392.963	66.05
393.172	111.1
393.382	25.09
393.591	123.39
393.801	94.72
394.01	113.15
394.22	39.42
394.429	61.95
394.639	72.19
394.848	90.62
395.058	111.1
395.267	27.14
395.477	92.67
395.686	98.81
395.895	150.01
396.105	119.29
396.314	92.67
396.524	133.63
396.733	102.91
396.942	186.88
397.152	158.21
397.361	117.25
397.57	102.91
397.78	84.48
397.989	137.73
398.198	127.49
398.407	94.72
398.617	107.01
398.826	78.33
399.035	74.24
399.244	111.1
399.453	111.1
399.663	119.29
399.872	160.25
400.081	64
400.29	121.34
400.499	129.53
400.708	84.48
400.917	90.62
401.127	96.77
401.336	141.82
401.545	186.88
401.754	78.33
401.963	188.93
402.172	131.58
402.381	141.82
402.59	162.3
402.799	190.97
403.008	154.11
403.217	182.78
403.426	107.01
403.635	115.2
403.844	135.68
404.053	143.87
404.262	160.25
404.471	188.93
404.68	190.97
404.888	154.11
405.097	147.97
405.306	199.16
405.515	182.78
405.724	174.59
405.933	180.73
406.142	150.01
406.35	209.4
406.559	211.45
406.768	197.12
406.977	182.78
407.185	242.17
407.394	254.46
407.603	266.75
407.812	225.79
408.02	289.28
408.229	279.04
408.438	162.3
408.646	205.31
408.855	172.54
409.064	299.52
409.272	287.23
409.481	393.72
409.69	262.65
409.898	297.47
410.107	242.17
410.315	320
410.524	369.15
410.733	369.15
410.941	369.15
411.15	367.1
411.358	410.11
411.567	463.35
411.775	395.77
411.984	356.86
412.192	401.91
412.401	489.98
412.609	475.64
412.818	498.17
413.026	473.59
413.234	551.42
413.443	518.65
413.651	557.56
413.86	543.22
414.068	631.29
414.276	614.9
414.485	666.1
414.693	647.67
414.901	686.58
415.11	623.09
415.318	598.52
415.526	737.78
415.734	748.02
415.943	723.44
416.151	756.21
416.359	795.12
416.567	868.85
416.776	862.71
416.984	893.43
417.192	965.11
417.4	934.39
417.608	1014.26
417.817	979.44
418.025	1096.18
418.233	1126.89
418.441	1204.72
418.649	1159.66
418.857	1288.68
419.065	1221.1
419.273	1188.33
419.481	1346.03
419.689	1450.47
419.897	1368.56
420.105	1477.1
420.313	1628.65
420.521	1479.15
420.729	1573.35
420.937	1552.87
421.145	1835.49
421.353	1739.24
421.561	2005.47
421.769	1946.08
421.977	2058.72
422.185	2011.62
422.393	2071.01
422.601	2154.98
422.809	2193.89
423.017	2243.04
423.224	2331.1
423.432	2441.69
423.64	2449.88
423.848	2652.63
424.056	2607.58
424.263	2750.93
424.471	2806.23
424.679	2800.09
424.887	2855.38
425.094	3129.81
425.302	3152.34
425.51	3170.77
425.718	3267.02
425.925	3297.74
426.133	3402.19
426.341	3672.52
426.548	3715.53
426.756	3793.35
426.964	3862.98
427.171	4102.59
427.379	4137.41
427.586	4129.22
427.794	4407.74
428.001	4743.61
428.209	4743.61
428.417	4633.02
428.624	5036.47
428.832	4995.51
429.039	5024.18
429.247	5075.38
429.454	5544.36
429.662	5857.7
429.869	5511.6
430.076	5749.16
430.284	5788.07
430.491	5779.88
430.699	6261.15
430.906	6154.66
431.114	6279.58
431.321	6605.21
431.528	6826.39
431.736	7092.63
431.943	7434.64
432.15	7248.27
432.358	7299.47
432.565	7698.83
432.772	7825.8
432.979	8024.45
433.187	8356.22
433.394	8143.24
433.601	8710.52
433.808	8683.9
434.016	8720.76
434.223	8972.66
434.43	9681.26
434.637	9564.53
434.844	9974.12
435.052	10232.16
435.259	10244.45
435.466	10432.86
435.673	10142.05
435.88	10975.58
436.087	11610.45
436.294	11329.88
436.501	11207
436.708	11321.68
436.915	11655.5
437.122	12417.35
437.329	12187.97
437.537	12755.26
437.743	12986.68
437.95	12726.59
438.157	13357.36
438.364	13857.07
438.571	13914.41
438.778	13924.65
438.985	15397.14
439.192	14610.72
439.399	15145.24
439.606	14795.04
439.813	15829.26
440.02	16666.88
440.227	16115.98
440.433	16064.78
440.64	16660.74
440.847	16449.8
441.054	16826.62
441.261	17838.32
441.467	17907.95
441.674	18032.88
441.881	18729.19
442.088	18677.99
442.294	18835.68
442.501	19237.08
442.708	19671.25
442.914	20302.03
443.121	21192.89
443.328	20662.47
443.534	22106.29
443.741	21080.25
443.948	20912.32
444.154	22450.35
444.361	22427.82
444.568	22800.55
444.774	22630.57
444.981	22786.21
445.187	23634.07
445.394	24680.58
445.6	24238.22
445.807	26450.03
446.013	25274.49
446.22	25766.01
446.426	27134.05
446.633	27074.66
446.839	27967.57
447.046	26669.16
447.252	28393.55
447.459	28321.87
447.665	28186.71
447.871	29143.11
448.078	30828.59
448.284	29194.31
448.491	30081.08
448.697	30937.13
448.903	31717.4
449.11	31922.2
449.316	31506.46
449.522	31854.62
449.728	32555.02
449.935	33009.67
450.141	32968.71
450.347	33667.07
450.553	32397.33
450.76	32970.76
450.966	34303.99
451.172	33437.7
451.378	34670.57
451.584	33603.58
451.791	34697.2
451.997	34158.58
452.203	35454.95
452.409	34981.87
452.615	34930.67
452.821	33533.95
453.027	33243.14
453.233	34881.52
453.44	33599.49
453.646	34062.33
453.852	34471.92
454.058	34592.75
454.264	33503.23
454.47	34441.2
454.676	33349.64
454.882	34398.2
455.088	31688.73
455.294	32184.34
455.5	32804.88
455.705	33067.02
455.911	31569.95
456.117	30799.91
456.323	30631.98
456.529	28823.62
456.735	30337.07
456.941	29540.41
457.147	28983.37
457.352	28141.65
457.558	27867.22
457.764	28155.99
457.97	27627.61
458.176	26595.43
458.381	27103.33
458.587	25569.4
458.793	25282.69
458.999	24359.05
459.204	26114.16
459.41	25020.55
459.616	23584.92
459.821	23756.95
460.027	23795.86
460.233	22739.11
460.438	21854.39
460.644	22253.74
460.85	21186.75
461.055	20984
461.261	20787.39
461.466	19534.04
461.672	18614.5
461.878	19996.88
462.083	18659.56
462.289	18479.33
462.494	18157.8
462.7	17266.94
462.905	17033.47
463.111	17393.91
463.316	17836.27
463.522	17254.65
463.727	17139.96
463.932	17275.13
464.138	16969.98
464.343	16980.22
464.549	16597.25
464.754	17125.63
464.959	17060.09
465.165	17025.28
465.37	16124.17
465.575	15814.93
465.781	16451.84
465.986	16593.15
466.191	15708.43
466.397	15585.55
466.602	14735.65
466.807	15044.89
467.012	15651.09
467.218	15239.45
467.423	14946.59
467.628	15163.67
467.833	15870.22
468.038	15384.85
468.244	14811.42
468.449	15255.83
468.654	14840.09
468.859	15008.03
469.064	14420.26
469.269	14242.09
469.474	14473.51
469.679	14547.23
469.885	13943.08
470.09	14596.39
470.295	14367.01
470.5	13904.17
470.705	14201.13
470.91	13527.35
471.115	13740.33
471.32	13775.15
471.525	13709.61
471.73	13420.85
471.935	13248.82
472.139	12804.41
472.344	12970.3
472.549	12718.4
472.754	12861.76
472.959	12343.62
473.164	12110.15
473.369	12173.64
473.574	12476.74
473.778	12458.31
473.983	12212.55
474.188	12249.41
474.393	11737.42
474.598	11874.63
474.802	11555.15
475.007	11506
475.212	11579.73
475.417	11135.32
475.621	11247.96
475.826	11194.71
476.031	11082.07
476.235	10856.79
476.44	11147.61
476.645	10901.85
476.849	10920.28
477.054	10703.2
477.259	10436.96
477.463	10373.47
477.668	10006.89
477.872	10281.32
478.077	10066.28
478.282	10015.08
478.486	9804.14
478.691	9914.73
478.895	9795.95
479.1	9773.42
479.304	9542
479.509	9525.61
479.713	9572.72
479.918	9412.98
480.122	9283.95
480.326	9347.44
480.531	9550.19
480.735	9138.55
480.94	9224.56
481.144	9376.11
481.348	8999.29
481.553	9009.53
481.757	8849.78
481.961	8954.23
482.166	9249.14
482.37	9286
482.574	8978.81
482.778	9064.82
482.983	9087.35
483.187	9148.79
483.391	9077.11
483.595	8810.87
483.8	8898.94
484.004	9023.86
484.208	8958.33
484.412	9003.38
484.616	9142.64
484.821	8968.57
485.025	8710.52
485.229	8870.26
485.433	8833.4
485.637	8853.88
485.841	8751.48
486.045	8860.02
486.249	8757.63
486.453	9044.34
486.657	8970.62
486.861	9132.4
487.065	8696.19
487.269	8839.55
487.473	8835.45
487.677	8927.61
487.881	9068.92
488.085	9007.48
488.289	8980.85
488.493	8853.88
488.697	8931.7
488.901	8993.14
489.105	8880.5
489.309	9007.48
489.512	9324.91
489.716	9165.17
489.92	8898.94
490.124	8993.14
490.328	9126.26
490.531	9142.64
490.735	9130.36
490.939	9146.74
491.143	9156.98
491.346	9202.04
491.55	9322.87
491.754	9228.66
491.958	9341.3
492.161	9396.59
492.365	9666.92
492.569	9265.52
492.772	9404.78
492.976	9650.54
493.18	9617.77
493.383	9783.66
493.587	9816.43
493.79	9900.39
493.994	9646.44
494.197	9634.16
494.401	10121.57
494.605	10029.41
494.808	10279.27
495.012	10133.86
495.215	10076.52
495.419	10498.4
495.622	10289.51
495.825	10486.11
496.029	10510.69
496.232	10768.73
496.436	10660.19
496.639	11008.34
496.843	10787.16
497.046	11237.72
497.249	11415.89
497.453	11319.64
497.656	11405.65
497.859	11444.56
498.063	11790.67
498.266	11880.78
498.469	11829.58
498.673	12046.66
498.876	12218.69
499.079	12337.48
499.282	12159.3
499.485	12646.72
499.689	12722.49
499.892	12927.29
500.095	12699.97
500.298	13265.21
500.501	13068.6
500.705	13300.02
500.908	13773.1
501.111	14002.47
501.314	13908.27
501.517	13846.83
501.72	14428.45
501.923	14266.66
502.126	14852.38
502.329	14788.89
502.532	14805.28
502.735	14942.49
502.938	15501.59
503.141	15339.8
503.344	15671.57
503.547	15868.17
503.75	15778.06
503.953	16156.94
504.156	16435.46
504.359	16533.76
504.562	16523.52
504.765	16931.07
504.968	17178.87
505.17	17586.42
505.373	17416.44
505.576	17721.59
505.779	17957.1
505.982	18135.28
506.185	18655.46
506.387	18503.91
506.59	18716.9
506.793	19175.64
506.996	18766.05
507.198	19808.47
507.401	19568.85
507.604	20037.84
507.807	20340.94
508.009	20732.1
508.212	20781.25
508.415	20953.28
508.617	21469.37
508.82	21639.35
509.022	21469.37
509.225	21944.5
509.428	22274.22
509.63	22519.98
509.833	22278.32
510.035	22673.57
510.238	22974.63
510.44	23351.45
510.643	23605.4
510.845	23974.03
511.048	23918.74
511.25	24563.85
511.453	24785.03
511.655	25708.66
511.858	24832.13
512.06	25860.21
512.262	26112.11
512.465	26005.62
512.667	26237.04
512.87	26601.58
513.072	26472.56
513.274	27353.18
513.477	27433.05
513.679	28186.71
513.881	28301.39
514.084	28817.48
514.286	28622.92
514.488	28891.21
514.69	29659.2
514.893	30113.84
515.095	29999.16
515.297	30183.48
515.499	30478.38
515.701	30890.02
515.904	31625.25
516.106	31485.98
516.308	31903.77
516.51	32372.75
516.712	32479.25
516.914	32960.52
517.116	33611.78
517.318	33507.33
517.52	33697.79
517.722	33808.38
517.925	34430.96
518.127	34707.44
518.329	34967.53
518.531	35387.36
518.733	36241.37
518.935	36311
519.136	36204.5
519.338	36759.5
519.54	36925.39
519.742	37167.05
519.944	37507.01
520.146	38393.78
520.348	38549.43
520.55	38420.41
520.752	38834.1
520.954	39622.56
521.155	39571.36
521.357	39905.18
521.559	40239
521.761	40880.02
521.963	40714.13
522.164	41209.74
522.366	41574.28
522.568	41813.89
522.77	41957.25
522.971	42520.44
523.173	42477.43
523.375	42747.76
523.576	42973.04
523.778	42823.54
523.98	43878.24
524.181	43722.6
524.383	43675.49
524.584	44574.55
524.786	44773.2
524.988	44603.22
525.189	45152.08
525.391	45301.58
525.592	45645.64
525.794	45975.36
525.995	45664.07
526.197	46149.44
526.398	46360.38
526.6	46759.73
526.801	46575.42
527.003	47034.16
527.204	47267.63
527.406	47470.38
527.607	47114.03
527.808	47707.94
528.01	47128.37
528.211	47679.27
528.412	48371.49
528.614	48191.26
528.815	48326.43
529.016	48643.87
529.218	47980.32
529.419	48664.35
529.62	48656.15
529.822	48621.34
530.023	48738.07
530.224	49192.72
530.425	49035.03
530.626	48670.49
530.828	48539.42
531.029	49725.19
531.23	49239.82
531.431	49286.93
531.632	48762.65
531.833	49565.45
532.035	49489.68
532.236	49833.74
532.437	50169.6
532.638	49585.93
532.839	50286.34
533.04	50016
533.241	49729.29
533.442	50720.51
533.643	49977.09
533.844	49743.62
534.045	50237.19
534.246	49874.69
534.447	50740.99
534.648	50106.12
534.849	50353.92
535.05	49913.61
535.251	50110.21
535.451	50308.86
535.652	50335.49
535.853	50042.63
536.054	50581.24
536.255	50401.02
536.456	49866.5
536.657	50669.31
536.857	50431.74
537.058	49866.5
537.259	50401.02
537.46	50497.28
537.66	50306.82
537.861	50489.09
538.062	50495.23
538.263	50745.08
538.463	50308.86
538.664	50169.6
538.865	50614.01
539.065	50945.78
539.266	50061.06
539.466	50925.3
539.667	50022.15
539.868	50411.26
540.068	50200.32
540.269	50194.18
540.469	50298.62
540.67	50214.66
540.87	50036.48
541.071	50157.31
541.271	50540.28
541.472	50298.62
541.672	50204.42
541.873	50386.69
542.073	49807.11
542.274	50999.03
542.474	50409.21
542.675	49938.18
542.875	50497.28
543.075	50536.19
543.276	49714.95
543.476	50587.39
543.676	50345.73
543.877	50214.66
544.077	50310.91
544.277	50206.47
544.478	50079.49
544.678	50190.08
544.878	49997.57
545.078	50411.26
545.279	49975.05
545.479	50265.86
545.679	50269.95
545.879	50431.74
546.079	49872.65
546.28	50169.6
546.48	49782.54
546.68	50304.77
546.88	50198.27
547.08	50255.62
547.28	49547.02
547.48	49938.18
547.68	50138.88
547.88	49893.13
548.081	50392.83
548.281	50140.93
548.481	49884.93
548.681	50480.89
548.881	50145.03
549.081	50095.88
549.28	49485.58
549.48	50441.98
549.68	49618.7
549.88	50163.46
550.08	49561.36
550.28	50657.02
550.48	49583.88
550.68	50542.33
550.88	49477.39
551.08	49958.66
551.279	50386.69
551.479	49858.31
551.679	49774.34
551.879	49870.6
552.079	49995.53
552.278	49913.61
552.478	49643.27
552.678	49485.58
552.878	50185.99
553.077	49837.83
553.277	49286.93
553.477	50263.81
553.676	49938.18
553.876	49938.18
554.076	49299.22
554.275	49729.29
554.475	49254.16
554.674	49338.13
554.874	49800.97
555.074	49293.07
555.273	49770.25
555.473	50067.2
555.672	48930.58
555.872	49463.05
556.071	49436.43
556.271	49604.36
556.47	48846.61
556.67	48971.54
556.869	48969.49
557.068	49297.17
557.268	48779.03
557.467	48723.74
557.667	48893.72
557.866	48865.05
558.065	48680.73
558.265	48697.11
558.464	48527.13
558.663	48994.07
558.863	48301.85
559.062	49051.41
559.261	48183.07
559.461	48750.36
559.66	48099.11
559.859	48430.88
560.058	48080.67
560.258	48475.93
560.457	47902.5
560.656	48520.99
560.855	47953.7
561.054	47882.02
561.253	47900.45
561.453	47757.1
561.652	47894.31
561.851	48006.95
562.05	47769.38
562.249	47312.69
562.448	47802.15
562.647	47761.19
562.846	47576.87
563.045	47671.08
563.244	47226.67
563.443	47691.56
563.642	46956.34
563.841	47585.07
564.04	47230.77
564.239	47527.72
564.438	46645.05
564.637	47107.89
564.836	46956.34
565.035	46774.07
565.234	46956.34
565.432	46923.57
565.631	46219.07
565.83	46972.72
566.029	46473.02
566.228	46206.78
566.427	46282.56
566.625	45887.3
566.824	45936.45
567.023	46231.36
567.222	45086.54
567.42	46186.3
567.619	45967.17
567.818	45651.78
568.016	45762.37
568.215	45840.2
568.414	45688.65
568.612	45610.82
568.811	45225.81
569.01	45111.12
569.208	44629.85
569.407	45211.47
569.605	45193.04
569.804	45414.22
570.002	44709.72
570.201	44810.07
570.4	44423
570.598	44459.87
570.797	43958.11
570.995	44328.8
571.193	44197.73
571.392	44631.89
571.59	43935.59
571.789	44117.85
571.987	43925.35
572.186	43462.5
572.384	43433.83
572.582	43994.98
572.781	43286.38
572.979	42825.59
573.177	43503.46
573.376	43204.46
573.574	43016.05
573.772	43118.45
573.971	42606.45
574.169	42606.45
574.367	42325.88
574.565	42606.45
574.763	42217.34
574.962	42141.56
575.16	42063.74
575.358	42301.31
575.556	41975.68
575.754	42112.89
575.952	41209.74
576.151	42282.87
576.349	41330.57
576.547	41518.98
576.745	41607.05
576.943	41437.06
577.141	40832.91
577.339	41017.23
577.537	40826.77
577.735	40886.16
577.933	40318.87
578.131	41013.13
578.329	40538.01
578.527	40474.52
578.725	40120.22
578.923	40583.06
579.121	40189.85
579.319	40189.85
579.516	40034.21
579.714	39890.85
579.912	39673.76
580.11	39569.32
580.308	39460.77
580.506	39436.2
580.704	38760.37
580.901	39104.43
581.099	39108.52
581.297	38920.11
581.495	38756.27
581.692	38789.04
581.89	38487.99
582.088	38866.86
582.285	38195.13
582.483	38246.33
582.681	38621.11
582.878	37978.04
583.076	37900.22
583.274	38483.89
583.471	37863.36
583.669	37611.46
583.866	37568.45
584.064	37373.89
584.262	37023.69
584.459	37664.71
584.657	36876.24
584.854	37210.06
585.052	36538.32
585.249	37038.03
585.447	37152.71
585.644	36573.14
585.841	36751.31
586.039	37050.31
586.236	35903.45
586.434	36294.61
586.631	35989.47
586.828	35956.7
587.026	36022.23
587.223	35934.17
587.42	35663.84
587.618	35885.02
587.815	35477.47
588.012	35225.57
588.21	35373.03
588.407	35618.78
588.604	35055.59
588.801	34822.12
588.999	35293.16
589.196	34885.61
589.393	35295.21
589.59	34746.35
589.787	34904.04
589.984	34310.13
590.182	34330.61
590.379	34646
590.576	34168.82
590.773	34121.72
590.97	33886.2
591.167	34086.9
591.364	33525.76
591.561	33959.93
591.758	33462.27
591.955	33875.96
592.152	33619.97
592.349	33427.46
592.546	33581.06
592.743	33167.37
592.94	33003.53
593.137	33093.64
593.334	33046.54
593.531	32550.93
593.727	32811.02
593.924	32899.08
594.121	32426
594.318	32804.88
594.515	32036.89
594.712	32358.42
594.908	32233.49
595.105	32514.06
595.302	31905.82
595.499	32057.37
595.696	31756.32
595.892	31696.92
596.089	32159.77
596.286	31893.53
596.482	31744.03
596.679	31580.19
596.876	31457.31
597.072	31170.6
597.269	31328.29
597.466	30879.78
597.662	31037.48
597.859	30935.08
598.055	31197.22
598.252	30773.29
598.448	30777.39
598.645	30568.49
598.841	30142.52
599.038	30435.38
599.234	30261.3
599.431	30068.79
599.627	29687.87
599.824	30119.99
600.02	29909.05
600.217	30109.75
600.413	29759.55
600.609	29769.79
600.806	29532.22
601.002	29786.17
601.198	29315.14
601.395	29462.59
601.591	29098.05
601.787	29388.86
601.984	28956.74
602.18	29112.39
602.376	28878.92
602.572	28710.99
602.769	28600.4
602.965	28420.17
603.161	28573.77
603.357	28463.18
603.553	28381.26
603.75	28358.74
603.946	27951.19
604.142	28076.12
604.338	27537.5
604.534	27922.52
604.73	27637.85
604.926	27361.37
605.122	27572.32
605.318	27267.17
605.514	27148.39
605.71	27195.49
605.906	27136.1
606.102	27109.47
606.298	27338.85
606.494	26996.84
606.69	26982.5
606.886	26585.19
607.082	26415.21
607.278	27080.8
607.474	26538.09
607.67	26388.59
607.866	26005.62
608.062	26581.1
608.257	25845.88
608.453	26527.85
608.649	26388.59
608.845	26040.43
609.041	25991.28
609.236	25880.69
609.432	25475.2
609.628	25876.6
609.824	25806.97
610.019	25530.49
610.215	25358.46
610.411	25297.02
610.606	25323.65
610.802	25309.31
610.998	25391.23
611.193	25419.9
611.389	25075.84
611.584	24821.89
611.78	24836.23
611.976	24993.92
612.171	24854.66
612.367	24699.02
612.562	24848.52
612.758	24490.12
612.953	24617.1
613.149	24719.49
613.344	24217.74
613.539	24561.8
613.735	24195.21
613.93	24615.05
614.126	24232.08
614.321	24406.16
614.517	23924.88
614.712	23928.98
614.907	23748.76
615.103	23906.45
615.298	23691.41
615.493	24117.39
615.688	23279.77
615.884	24029.33
616.079	23294.11
616.274	23201.95
616.47	23089.31
616.665	23349.4
616.86	23294.11
617.055	23308.44
617.25	23029.92
617.445	23253.15
617.641	22798.5
617.836	23189.66
618.031	22773.92
618.226	22927.52
618.421	22716.58
618.616	22880.42
618.811	22274.22
619.006	22710.44
619.201	21840.05
619.396	22366.38
619.591	21860.53
619.786	22220.97
619.981	21608.63
620.176	22044.85
620.371	21543.1
620.566	21862.58
620.761	21682.36
620.956	21700.79
621.151	21414.07
621.346	21610.68
621.541	20869.31
621.735	21270.72
621.93	20818.11
622.125	20797.63
622.32	20584.65
622.515	20797.63
622.709	20385.99
622.904	20850.88
623.099	20173
623.294	20308.17
623.488	20101.33
623.683	19994.83
623.878	19747.03
624.072	19755.22
624.267	19851.47
624.462	19433.69
624.656	19677.4
624.851	19529.94
625.046	19218.65
625.24	19300.57
625.435	18923.74
625.629	18852.06
625.824	18979.04
626.018	18841.82
626.213	18335.98
626.407	18671.84
626.602	18428.13
626.796	18317.54
626.991	18190.57
627.185	18231.53
627.38	18100.46
627.574	17934.57
627.768	17744.11
627.963	17977.58
628.157	17711.35
628.352	17690.87
628.546	17322.23
628.74	17709.3
628.935	17346.81
629.129	17598.71
629.323	17160.44
629.517	17113.34
629.712	17039.61
629.906	17197.31
630.1	16435.46
630.294	16537.86
630.489	16511.24
630.683	16752.9
630.877	16288.01
631.071	16369.93
631.265	16507.14
631.459	16410.89
631.653	15845.65
631.848	16206.09
632.042	15919.37
632.236	16091.4
632.43	15567.12
632.624	15841.55
632.818	15581.46
633.012	15479.06
633.206	15513.88
633.4	15294.74
633.594	15010.07
633.788	15309.08
633.982	15401.24
634.176	15401.24
634.369	15071.51
634.563	15276.31
634.757	14721.31
634.951	14723.36
635.145	14817.57
635.339	15040.79
635.533	14790.94
635.726	14690.59
635.92	14395.68
636.114	14524.71
636.308	14233.89
636.501	14450.98
636.695	14160.17
636.889	14033.19
637.083	14061.87
637.276	14082.35
637.47	13846.83
637.664	13914.41
637.857	13762.86
638.051	13807.92
638.244	13400.37
638.438	13500.72
638.632	13273.4
638.825	13619.5
639.019	13318.45
639.212	13203.77
639.406	13197.62
639.599	13082.94
639.793	13121.85
639.986	12998.97
640.18	13066.55
640.373	12982.59
640.567	12740.93
640.76	12656.96
640.954	12486.98
641.147	12370.24
641.34	12403.01
641.534	12503.36
641.727	12269.89
641.92	12212.55
642.114	12118.34
642.307	12263.75
642.5	12120.39
642.694	12030.28
642.887	11813.2
643.08	11884.87
643.273	11700.56
643.467	11710.8
643.66	11641.17
643.853	11856.2
644.046	11440.47
644.239	11610.45
644.432	11407.7
644.626	11460.95
644.819	11229.52
645.012	11174.23
645.205	11067.74
645.398	11166.04
645.591	11000.15
645.784	11168.09
645.977	10742.11
646.17	10989.91
646.363	10586.46
646.556	10731.87
646.749	10529.12
646.942	10672.48
647.135	10568.03
647.328	10504.54
647.521	10369.38
647.714	10010.98
647.907	10447.2
648.099	10142.05
648.292	10140.01
648.485	10158.44
648.678	9777.51
648.871	9861.48
649.064	9929.06
649.256	9959.78
649.449	9978.22
649.642	9773.42
649.835	9732.46
650.027	9390.45
650.22	9617.77
650.413	9351.54
650.605	9257.33
650.798	9535.85
650.991	9193.84
651.183	9367.92
651.376	9097.59
651.568	9111.92
651.761	9142.64
651.954	9052.53
652.146	8946.04
652.339	8993.14
652.531	8866.17
652.724	8778.11
652.916	8757.63
653.109	8677.76
653.301	8737.15
653.494	8628.6
653.686	8442.24
653.879	8511.87
654.071	8374.66
654.263	8325.5
654.456	8274.31
654.648	8380.8
654.84	8157.57
655.033	8196.48
655.225	7995.78
655.417	8026.5
655.61	8046.98
655.802	7893.38
655.994	7870.86
656.186	7868.81
656.379	7741.83
656.571	7786.89
656.763	7537.04
656.955	7575.95
657.148	7643.53
657.34	7621
657.532	7424.4
657.724	7414.16
657.916	7401.87
658.108	7338.38
658.3	7348.62
658.492	7248.27
658.684	7192.98
658.876	7094.68
659.068	7197.07
659.26	7129.49
659.452	7184.79
659.644	7004.57
659.836	6834.58
660.028	6998.42
660.22	6879.64
660.412	6658.46
660.604	6566.3
660.796	6660.51
660.988	6609.31
661.18	6773.14
661.372	6570.4
661.563	6508.96
661.755	6384.03
661.947	6517.15
662.139	6451.61
662.331	6341.02
662.522	6263.2
662.714	6222.24
662.906	6316.45
663.097	6171.04
663.289	6093.22
663.481	6105.51
663.673	6005.16
663.864	5962.15
664.056	5878.18
664.247	5900.71
664.439	5962.15
664.631	5726.63
664.822	5810.6
665.014	5706.15
665.205	5579.18
665.397	5648.81
665.588	5581.23
665.78	5472.68
665.971	5624.23
666.163	5546.41
666.354	5540.27
666.546	5613.99
666.737	5319.09
666.929	5556.65
667.12	5362.09
667.311	5341.61
667.503	5325.23
667.694	5206.45
667.885	5276.08
668.077	5255.6
668.268	5095.86
668.459	5194.16
668.651	5269.94
668.842	5108.15
669.033	5081.52
669.224	5089.71
669.416	5110.19
669.607	4960.69
669.798	5046.71
669.989	5087.67
670.18	4866.49
670.371	4811.19
670.563	4862.39
670.754	4846.01
670.945	4694.46
671.136	4714.94
671.327	4798.9
671.518	4737.46
671.709	4714.94
671.9	4749.75
672.091	4743.61
672.282	4596.15
672.473	4577.72
672.664	4565.43
672.855	4604.35
673.046	4542.91
673.237	4600.25
673.428	4600.25
673.619	4508.09
673.809	4405.69
674	4342.21
674.191	4557.24
674.382	4489.66
674.573	4467.13
674.764	4221.38
674.954	4401.6
675.145	4286.91
675.336	4286.91
675.527	4286.91
675.717	4321.73
675.908	4215.23
676.099	4204.99
676.289	4213.18
676.48	4219.33
676.671	4125.12
676.861	4168.13
677.052	4100.55
677.243	4000.19
677.433	4207.04
677.624	4063.68
677.814	4155.84
678.005	4092.35
678.195	4176.32
678.386	4078.02
678.576	4006.34
678.767	4008.39
678.957	4045.25
679.148	4024.77
679.338	3977.67
679.529	3949
679.719	3856.84
679.909	3949
680.1	3822.02
680.29	3944.9
680.481	4057.54
680.671	3926.47
680.861	3736.01
681.052	3727.82
681.242	3781.06
681.432	3785.16
681.622	3660.23
681.813	3776.97
682.003	3850.69
682.193	3707.34
682.383	3826.12
682.573	3783.11
682.764	3787.21
682.954	3678.66
683.144	3721.67
683.334	3674.57
683.524	3633.61
683.714	3752.39
683.904	3703.24
684.094	3592.65
684.284	3654.09
684.474	3674.57
684.664	3666.38
684.854	3654.09
685.044	3738.05
685.234	3670.47
685.424	3541.45
685.614	3570.12
685.804	3713.48
685.994	3537.35
686.184	3527.11
686.374	3531.21
686.564	3467.72
686.753	3520.97
686.943	3484.11
687.133	3463.63
687.323	3551.69
687.513	3549.64
687.702	3480.01
687.892	3377.61
688.082	3447.24
688.272	3451.34
688.461	3408.33
688.651	3451.34
688.841	3465.68
689.03	3367.37
689.22	3416.52
689.41	3539.4
689.599	3576.27
689.789	3492.3
689.979	3506.63
690.168	3416.52
690.358	3453.39
690.547	3320.27
690.737	3408.33
690.926	3408.33
691.116	3314.13
691.305	3338.7
691.495	3291.6
691.684	3340.75
691.874	3369.42
692.063	3295.69
692.252	3359.18
692.442	3353.04
692.631	3357.13
692.82	3389.9
693.01	3287.5
693.199	3367.37
693.388	3359.18
693.578	3320.27
693.767	3412.43
693.956	3383.76
694.146	3375.56
694.335	3271.12
694.524	3264.97
694.713	3207.63
694.902	3336.65
695.092	3191.25
695.281	3242.45
695.47	3312.08
695.659	3260.88
695.848	3209.68
696.037	3250.64
696.226	3273.17
696.415	3314.13
696.604	3281.36
696.793	3267.02
696.982	3238.35
697.171	3191.25
697.36	3264.97
697.549	3170.77
697.738	3244.49
697.927	3170.77
698.116	3353.04
698.305	3174.86
698.494	3125.71
698.683	3238.35
698.872	3289.55
699.061	3262.93
699.25	3256.78
699.438	3176.91
699.627	3279.31
699.816	3158.48
700.005	3156.43
700.193	3160.53
700.382	3285.45
700.571	3183.06
700.76	3178.96
700.948	3217.87
701.137	3129.81
701.326	3064.27
701.514	3058.13
701.703	3039.7
701.892	3129.81
702.08	3109.33
702.269	3197.39
702.457	3219.92
702.646	2998.74
702.834	3023.31
703.023	3006.93
703.212	3125.71
703.4	3023.31
703.589	2945.49
703.777	3041.75
703.965	3039.7
704.154	3049.94
704.342	3121.62
704.531	2951.63
704.719	2972.11
704.907	3074.51
705.096	2937.3
705.284	3013.07
705.472	3060.18
705.661	2845.14
705.849	2888.15
706.037	2900.44
706.226	2814.42
706.414	2779.61
706.602	2900.44
706.79	2818.52
706.979	2877.91
707.167	2879.96
707.355	2722.26
707.543	2738.65
707.731	2879.96
707.919	2789.85
708.107	2818.52
708.296	2834.9
708.484	2763.22
708.672	2818.52
708.86	2752.98
709.048	2732.5
709.236	2611.67
709.424	2691.54
709.612	2705.88
709.8	2701.78
709.988	2763.22
710.176	2724.31
710.364	2640.34
710.551	2558.42
710.739	2587.1
710.927	2593.24
711.115	2593.24
711.303	2695.64
711.491	2453.98
711.679	2521.56
711.866	2628.06
712.054	2535.9
712.242	2576.86
712.43	2499.03
712.617	2544.09
712.805	2507.23
712.993	2509.27
713.181	2488.79
713.368	2523.61
713.556	2470.36
713.744	2316.76
713.931	2447.83
714.119	2396.64
714.306	2384.35
714.494	2435.55
714.682	2417.12
714.869	2294.24
715.057	2267.61
715.244	2400.73
715.432	2308.57
715.619	2286.05
715.807	2355.68
715.994	2197.98
716.182	2197.98
716.369	2236.89
716.556	2240.99
716.744	2302.43
716.931	2230.75
717.119	2228.7
717.306	2132.45
717.493	2204.13
717.681	2249.18
717.868	2159.07
718.055	2187.74
718.242	2218.46
718.43	2195.93
718.617	2083.3
718.804	2120.16
718.991	2148.83
719.179	2171.36
719.366	2062.82
719.553	2034.14
719.74	2071.01
719.927	1972.71
720.114	1984.99
720.301	1987.04
720.488	1917.41
720.676	2052.58
720.863	2040.29
721.05	2001.38
721.237	2042.34
721.424	1962.47
721.611	2028
721.798	1944.03
721.985	1993.19
722.172	1786.34
722.358	1958.37
722.545	1984.99
722.732	1976.8
722.919	1845.73
723.106	1976.8
723.293	1802.72
723.48	1853.92
723.667	1915.36
723.853	1843.68
724.04	1950.18
724.227	1786.34
724.414	1853.92
724.6	1892.84
724.787	1776.1
724.974	1858.02
725.161	1978.85
725.347	1802.72
725.534	1749.48
725.72	1640.93
725.907	1829.35
726.094	1780.2
726.28	1729
726.467	1708.52
726.653	1718.76
726.84	1847.78
727.027	1815.01
727.213	1571.3
727.4	1655.27
727.586	1614.31
727.773	1825.25
727.959	1634.79
728.145	1704.42
728.332	1655.27
728.518	1640.93
728.705	1690.09
728.891	1649.13
729.077	1499.63
729.264	1661.41
729.45	1532.39
729.636	1563.11
729.823	1561.06
730.009	1602.02
730.195	1604.07
730.382	1548.78
730.568	1599.98
730.754	1546.73
730.94	1651.17
731.126	1479.15
731.313	1509.86
731.499	1452.52
731.685	1548.78
731.871	1612.26
732.057	1470.95
732.243	1550.82
732.429	1581.54
732.615	1446.38
732.801	1538.54
732.987	1544.68
733.173	1573.35
733.359	1518.06
733.545	1446.38
733.731	1513.96
733.917	1470.95
734.103	1470.95
734.289	1466.86
734.475	1384.94
734.661	1368.56
734.847	1374.7
735.033	1393.13
735.219	1386.99
735.404	1346.03
735.59	1343.98
735.776	1389.03
735.962	1341.93
736.148	1274.35
736.333	1329.64
736.519	1460.71
736.705	1313.26
736.89	1274.35
737.076	1368.56
737.262	1323.5
737.447	1270.25
737.633	1303.02
737.819	1346.03
738.004	1294.83
738.19	1241.58
738.375	1296.88
738.561	1311.21
738.747	1272.3
738.932	1202.67
739.118	1223.15
739.303	1317.36
739.489	1286.64
739.674	1231.34
739.859	1204.72
740.045	1317.36
740.23	1135.09
740.416	1208.81
740.601	1255.92
740.786	1241.58
740.972	1137.13
741.157	1135.09
741.342	1171.95
741.528	1155.57
741.713	1208.81
741.898	1130.99
742.084	1202.67
742.269	1255.92
742.454	1133.04
742.639	1147.37
742.824	1171.95
743.01	1165.81
743.195	1110.51
743.38	1133.04
743.565	1178.09
743.75	1155.57
743.935	1098.22
744.12	1130.99
744.305	1159.66
744.49	1204.72
744.675	1122.8
744.86	1143.28
745.045	1049.07
745.23	1077.74
745.415	1081.84
745.6	1028.59
745.785	938.48
745.97	1028.59
746.155	1094.13
746.34	1116.65
746.525	1016.3
746.71	1110.51
746.895	1018.35
747.079	1057.26
747.264	983.54
747.449	985.58
747.634	952.82
747.819	1028.59
748.003	897.52
748.188	1010.16
748.373	1030.64
748.557	920.05
748.742	993.78
748.927	901.62
749.111	918
749.296	946.67
749.481	913.91
749.665	856.56
749.85	885.23
750.034	907.76
750.219	909.81
750.404	913.91
750.588	930.29
750.773	852.47
750.957	827.89
751.141	831.99
751.326	856.56
751.51	836.08
751.695	811.51
751.879	872.95
752.064	909.81
752.248	782.84
752.432	926.19
752.617	817.65
752.801	860.66
752.985	846.32
753.17	846.32
753.354	811.51
753.538	782.84
753.722	795.12
753.907	782.84
754.091	803.32
754.275	864.75
754.459	831.99
754.643	797.17
754.828	807.41
755.012	772.6
755.196	756.21
755.38	752.12
755.564	795.12
755.748	729.59
755.932	791.03
756.116	741.88
756.3	776.69
756.484	682.49
756.668	731.64
756.852	692.73
757.036	748.02
757.22	750.07
757.404	678.39
757.588	772.6
757.772	700.92
757.956	721.4
758.14	684.53
758.323	702.97
758.507	651.77
758.691	631.29
758.875	731.64
759.059	686.58
759.242	666.1
759.426	625.14
759.61	694.77
759.794	670.2
759.977	690.68
760.161	647.67
760.345	555.51
760.528	623.09
760.712	571.9
760.895	541.18
761.079	633.33
761.263	608.76
761.446	635.38
761.63	645.62
761.813	623.09
761.997	612.85
762.18	600.57
762.364	649.72
762.547	549.37
762.731	442.87
762.914	604.66
763.098	588.28
763.281	518.65
763.464	557.56
763.648	647.67
763.831	588.28
764.015	557.56
764.198	594.42
764.381	571.9
764.564	565.75
764.748	535.03
764.931	614.9
765.114	616.95
765.297	575.99
765.481	633.33
765.664	561.66
765.847	573.94
766.03	584.18
766.213	516.6
766.397	604.66
766.58	635.38
766.763	508.41
766.946	612.85
767.129	623.09
767.312	438.78
767.495	535.03
767.678	565.75
767.861	530.94
768.044	586.23
768.227	500.22
768.41	467.45
768.593	573.94
768.776	461.3
768.959	549.37
769.142	500.22
769.324	578.04
769.507	500.22
769.69	485.88
769.873	426.49
770.056	535.03
770.239	543.22
770.421	471.54
770.604	496.12
770.787	463.35
770.97	489.98
771.152	537.08
771.335	506.36
771.518	483.83
771.7	551.42
771.883	619
772.066	496.12
772.248	463.35
772.431	506.36
772.613	494.07
772.796	438.78
772.978	543.22
773.161	477.69
773.343	393.72
773.526	453.11
773.708	483.83
773.891	440.83
774.073	494.07
774.256	432.63
774.438	436.73
774.621	408.06
774.803	528.89
774.985	434.68
775.168	420.35
775.35	487.93
775.532	465.4
775.715	408.06
775.897	485.88
776.079	469.5
776.261	406.01
776.444	424.44
776.626	393.72
776.808	444.92
776.99	336.38
777.173	483.83
777.355	434.68
777.537	367.1
777.719	408.06
777.901	434.68
778.083	418.3
778.265	436.73
778.447	352.76
778.629	356.86
778.811	412.15
778.993	426.49
779.175	420.35
779.357	385.53
779.539	401.91
779.721	295.42
779.903	340.47
780.085	369.15
780.267	311.8
780.449	406.01
780.631	434.68
780.812	422.39
780.994	451.07
781.176	336.38
781.358	416.25
781.54	307.71
781.721	389.63
781.903	317.95
782.085	363
782.267	358.91
782.448	330.23
782.63	352.76
782.812	373.24
782.993	346.62
783.175	315.9
783.357	320
783.538	299.52
783.72	356.86
783.901	338.43
784.083	393.72
784.264	332.28
784.446	283.13
784.627	356.86
784.809	334.33
784.99	215.55
785.172	332.28
785.353	397.82
785.535	326.14
785.716	295.42
785.897	281.08
786.079	354.81
786.26	289.28
786.441	332.28
786.623	322.04
786.804	221.69
786.985	283.13
787.167	293.37
787.348	217.6
787.529	225.79
787.71	326.14
787.891	256.51
788.073	272.89
788.254	268.8
788.435	330.23
788.616	219.64
788.797	322.04
788.978	256.51
789.159	276.99
789.34	238.08
789.522	201.21
789.703	268.8
789.884	207.36
790.065	326.14
790.246	244.22
790.427	223.74
790.607	236.03
790.788	297.47
790.969	231.93
791.15	221.69
791.331	281.08
791.512	203.26
791.693	209.4
791.874	223.74
792.054	281.08
792.235	184.83
792.416	213.5
792.597	221.69
792.778	240.12
792.958	197.12
793.139	215.55
793.32	233.98
793.5	174.59
793.681	246.27
793.862	197.12
794.042	231.93
794.223	213.5
794.404	221.69
794.584	254.46
794.765	215.55
794.945	133.63
795.126	213.5
795.306	197.12
795.487	188.93
795.667	227.84
795.848	186.88
796.028	188.93
796.209	221.69
796.389	225.79
796.57	139.77
796.75	172.54
796.93	176.64
797.111	209.4
797.291	168.45
797.471	152.06
797.652	168.45
797.832	160.25
798.012	279.04
798.192	156.16
798.373	182.78
798.553	164.35
798.733	180.73
798.913	213.5
799.093	172.54
799.274	158.21
799.454	178.69
799.634	94.72
799.814	203.26
799.994	150.01
800.174	182.78
800.354	180.73
800.534	145.92
800.714	205.31
800.894	154.11
801.074	156.16
801.254	147.97
801.434	70.14
801.614	188.93
801.794	143.87
801.974	383.48
802.154	158.21
802.334	174.59
802.514	170.49
802.693	178.69
802.873	135.68
803.053	162.3
803.233	123.39
803.413	231.93
803.592	188.93
803.772	180.73
803.952	143.87
804.131	107.01
804.311	125.44
804.491	166.4
804.67	164.35
804.85	53.76
805.03	197.12
805.209	172.54
805.389	113.15
805.568	98.81
805.748	186.88
805.928	158.21
806.107	78.33
806.287	117.25
806.466	197.12
806.646	150.01
806.825	133.63
807.004	121.34
807.184	188.93
807.363	145.92
807.543	188.93
807.722	68.09
807.901	127.49
808.081	164.35
808.26	98.81
808.439	135.68
808.619	119.29
808.798	147.97
808.977	240.12
809.156	107.01
809.336	117.25
809.515	156.16
809.694	121.34
809.873	125.44
810.052	172.54
810.231	174.59
810.411	166.4
810.59	92.67
810.769	162.3
810.948	94.72
811.127	121.34
811.306	143.87
811.485	47.62
811.664	160.25
811.843	160.25
812.022	172.54
812.201	102.91
812.38	211.45
812.559	72.19
812.737	80.38
812.916	154.11
813.095	76.29
813.274	139.77
813.453	111.1
813.632	29.18
813.811	111.1
813.989	45.57
814.168	107.01
814.347	94.72
814.526	76.29
814.704	78.33
814.883	133.63
815.062	64
815.24	162.3
815.419	80.38
815.598	84.48
815.776	25.09
815.955	121.34
816.133	109.05
816.312	123.39
816.49	117.25
816.669	86.53
816.847	92.67
817.026	107.01
817.204	127.49
817.383	104.96
817.561	76.29
817.74	221.69
817.918	125.44
818.097	119.29
818.275	94.72
818.453	102.91
818.632	68.09
818.81	68.09
818.988	82.43
819.167	84.48
819.345	76.29
819.523	76.29
819.701	150.01
819.879	70.14
820.058	125.44
820.236	59.9
820.414	160.25
820.592	41.47
820.77	16.9
820.948	98.81
821.127	76.29
821.305	109.05
821.483	88.57
821.661	125.44
821.839	72.19
822.017	143.87
822.195	158.21
822.373	182.78
822.551	111.1
822.729	133.63
822.907	68.09
823.085	23.04
823.262	27.14
823.44	113.15
823.618	92.67
823.796	45.57
823.974	90.62
824.152	102.91
824.329	16.9
824.507	107.01
824.685	137.73
824.863	104.96
825.04	64
825.218	86.53
825.396	27.14
825.574	127.49
825.751	123.39
825.929	102.91
826.107	61.95
826.284	59.9
826.462	100.86
826.639	74.24
826.817	-13.82
826.994	78.33
827.172	55.81
827.349	109.05
827.527	84.48
827.704	100.86
827.882	96.77
828.059	104.96
828.237	64
828.414	18.94
828.591	4.61
828.769	115.2
828.946	102.91
829.124	137.73
829.301	74.24
829.478	92.67
829.655	49.66
829.833	104.96
830.01	18.94
830.187	90.62
830.364	117.25
830.542	33.28
830.719	39.42
830.896	74.24
831.073	72.19
831.25	86.53
831.427	29.18
831.604	10.75
831.782	35.33
831.959	66.05
832.136	16.9
832.313	109.05
832.49	0.51
832.667	68.09
832.844	61.95
833.021	8.7
833.198	72.19
833.374	96.77
833.551	59.9
833.728	107.01
833.905	51.71
834.082	107.01
834.259	27.14
834.436	49.66
834.612	-52.74
834.789	92.67
834.966	104.96
835.143	68.09
835.319	12.8
835.496	90.62
835.673	39.42
835.85	25.09
836.026	41.47
836.203	90.62
836.38	107.01
836.556	35.33
836.733	20.99
836.909	41.47
837.086	72.19
837.262	37.38
837.439	80.38
837.616	80.38
837.792	109.05
837.968	74.24
838.145	6.66
838.321	47.62
838.498	49.66
838.674	92.67
838.851	47.62
839.027	35.33
839.203	-3.58
839.38	94.72
839.556	51.71
839.732	74.24
839.909	45.57
840.085	10.75
840.261	100.86
840.437	68.09
840.614	100.86
840.79	49.66
840.966	109.05
841.142	68.09
841.318	25.09
841.494	29.18
841.671	113.15
841.847	-32.26
842.023	70.14
842.199	8.7
842.375	104.96
842.551	129.53
842.727	90.62
842.903	35.33
843.079	16.9
843.255	-13.82
843.431	41.47
843.607	123.39
843.783	31.23
843.959	33.28
844.134	29.18
844.31	74.24
844.486	78.33
844.662	76.29
844.838	90.62
845.013	61.95
845.189	53.76
845.365	51.71
845.541	49.66
845.716	-19.97
845.892	82.43
846.068	82.43
846.244	41.47
846.419	51.71
846.595	55.81
846.77	14.85
846.946	72.19
847.122	41.47
847.297	41.47
847.473	80.38
847.648	-81.41
847.824	61.95
847.999	66.05
848.175	27.14
848.35	12.8
848.526	43.52
848.701	10.75
848.876	115.2
849.052	16.9
849.227	47.62
849.403	51.71
849.578	37.38
849.753	-1.54
849.929	31.23
850.104	4.61
850.279	-7.68
850.454	49.66
850.63	-22.02
850.805	80.38
850.98	66.05
851.155	59.9
851.33	-13.82
851.505	66.05
851.681	-3.58
851.856	55.81
852.031	12.8
852.206	90.62
852.381	16.9
852.556	37.38
852.731	23.04
852.906	4.61
853.081	70.14
853.256	-19.97
853.431	74.24
853.606	115.2
853.781	-15.87
853.956	37.38
854.131	80.38
854.305	18.94
854.48	18.94
854.655	25.09
854.83	94.72
855.005	74.24
855.18	43.52
855.354	-24.06
855.529	6.66
855.704	-42.5
855.879	61.95
856.053	0.51
856.228	20.99
856.403	2.56
856.577	16.9
856.752	18.94
856.926	18.94
857.101	-15.87
857.276	78.33
857.45	113.15
857.625	-28.16
857.799	59.9
857.974	14.85
858.148	61.95
858.323	18.94
858.497	-44.54
858.672	74.24
858.846	35.33
859.02	12.8
859.195	-22.02
859.369	33.28
859.543	43.52
859.718	12.8
859.892	-11.78
860.066	41.47
860.241	-7.68
860.415	90.62
860.589	57.86
860.763	27.14
860.938	4.61
861.112	123.39
861.286	33.28
861.46	-3.58
861.634	-26.11
861.808	74.24
861.982	-1.54
862.157	-11.78
862.331	20.99
862.505	45.57
862.679	49.66
862.853	53.76
863.027	49.66
863.201	41.47
863.375	80.38
863.549	-34.3
863.722	86.53
863.896	76.29
864.07	29.18
864.244	31.23
864.418	53.76
864.592	29.18
864.766	4.61
864.939	-3.58
865.113	39.42
865.287	43.52
865.461	43.52
865.634	8.7
865.808	64
865.982	45.57
866.156	12.8
866.329	90.62
866.503	98.81
866.676	84.48
866.85	33.28
867.024	33.28
867.197	16.9
867.371	53.76
867.544	6.66
867.718	45.57
867.891	100.86
868.065	-22.02
868.238	14.85
868.412	49.66
868.585	18.94
868.759	41.47
868.932	76.29
869.105	68.09
869.279	68.09
869.452	45.57
869.625	43.52
869.799	-34.3
869.972	74.24
870.145	-7.68
870.319	66.05
870.492	29.18
870.665	14.85
870.838	0.51
871.011	68.09
871.185	66.05
871.358	-42.5
871.531	59.9
871.704	25.09
871.877	8.7
872.05	-22.02
872.223	20.99
872.396	18.94
872.569	74.24
872.742	-65.02
872.915	29.18
873.088	0.51
873.261	27.14
873.434	70.14
873.607	51.71
873.78	66.05
873.953	31.23
874.126	-3.58
874.299	57.86
874.471	55.81
874.644	-13.82
874.817	66.05
874.99	49.66
875.163	59.9
875.335	-5.63
875.508	-40.45
875.681	2.56
875.853	68.09
876.026	88.57
876.199	-32.26
876.371	-5.63
876.544	8.7
876.717	113.15
876.889	-7.68
877.062	8.7
877.234	0.51
877.407	4.61
877.579	18.94
877.752	59.9
877.924	-30.21
878.097	45.57
878.269	74.24
878.442	-26.11
878.614	-13.82
878.786	78.33
878.959	-9.73
879.131	-3.58
879.303	16.9
879.476	41.47
879.648	33.28
879.82	76.29
879.993	-50.69
880.165	8.7
880.337	94.72
880.509	-7.68
880.681	-9.73
880.854	64
881.026	31.23
881.198	25.09
881.37	-50.69
881.542	10.75
881.714	-22.02
881.886	12.8
882.058	84.48
882.23	4.61
882.402	68.09
882.574	29.18
882.746	12.8
882.918	43.52
883.09	20.99
883.262	66.05
883.434	68.09
883.606	4.61
883.778	27.14
883.95	33.28
884.122	4.61
884.293	115.2
884.465	18.94
884.637	-9.73
884.809	41.47
884.98	35.33
885.152	53.76
885.324	33.28
885.496	53.76
885.667	12.8
885.839	2.56
886.011	47.62
886.182	-15.87
886.354	78.33
886.525	39.42
886.697	72.19
886.869	41.47
887.04	82.43
887.212	86.53
887.383	115.2
887.555	-17.92
887.726	43.52
887.897	-7.68
888.069	29.18
888.24	25.09
888.412	4.61
888.583	59.9
888.754	76.29
888.926	-44.54
889.097	20.99
889.268	23.04
889.44	66.05
889.611	29.18
889.782	-24.06
889.953	31.23
890.125	98.81
890.296	57.86
890.467	43.52
890.638	-5.63
890.809	-15.87
890.98	76.29
891.151	12.8
891.323	123.39
891.494	6.66
891.665	35.33
891.836	0.51
892.007	16.9
892.178	84.48
892.349	72.19
892.52	82.43
892.691	-9.73
892.862	-28.16
893.032	16.9
893.203	-5.63
893.374	20.99
893.545	55.81
893.716	8.7
893.887	-5.63
894.057	37.38
894.228	29.18
894.399	-17.92
894.57	117.25
894.74	-15.87
894.911	-11.78
895.082	55.81
895.253	14.85
895.423	45.57
895.594	90.62
895.764	-15.87
895.935	12.8
896.106	-22.02
896.276	-7.68
896.447	-1.54
896.617	-44.54
896.788	-26.11
896.958	0.51
897.129	25.09
897.299	-5.63
897.47	61.95
897.64	49.66
897.81	-26.11
897.981	-7.68
898.151	0.51
898.322	25.09
898.492	39.42
898.662	25.09
898.832	27.14
899.003	0.51
899.173	-54.78
899.343	6.66
899.513	-44.54
