Data from USB4F104151__157__13-58-40-713.txt Node

Date: Thu Mar 13 13:58:40 EDT 2025
User: louis
Spectrometer: USB4F10415
Trigger mode: 4
Integration Time (sec): 1.000000E-2
Scans to average: 1
Electric dark correction enabled: true
Nonlinearity correction enabled: false
Boxcar width: 0
XAxis mode: Wavelengths
Number of Pixels in Spectrum: 3648
>>>>>Begin Spectral Data<<<<<
178.204	-18.94
178.424	-18.94
178.644	-18.94
178.864	-55.81
179.084	-61.95
179.304	-23.04
179.524	9.73
179.744	9.73
179.964	-39.42
180.184	34.3
180.404	-49.66
180.624	-14.85
180.844	-10.75
181.064	-27.14
181.283	42.5
181.503	-18.94
181.723	87.55
181.943	28.16
182.163	44.54
182.383	-8.7
182.602	65.02
182.822	73.21
183.042	-4.61
183.262	-18.94
183.482	9.73
183.701	-43.52
183.921	22.02
184.141	52.74
184.361	7.68
184.58	69.12
184.8	50.69
185.02	71.17
185.239	93.69
185.459	26.11
185.679	30.21
185.898	-51.71
186.118	17.92
186.338	73.21
186.557	-20.99
186.777	-8.7
186.997	50.69
187.216	15.87
187.436	13.82
187.655	28.16
187.875	67.07
188.095	19.97
188.314	73.21
188.534	46.59
188.753	58.88
188.973	22.02
189.192	38.4
189.412	36.35
189.631	-31.23
189.851	22.02
190.07	38.4
190.29	24.06
190.509	-25.09
190.729	1.54
190.948	103.93
191.168	-16.9
191.387	15.87
191.607	42.5
191.826	48.64
192.045	40.45
192.265	17.92
192.484	-10.75
192.704	73.21
192.923	13.82
193.142	79.36
193.362	-23.04
193.581	36.35
193.8	22.02
194.02	52.74
194.239	69.12
194.458	71.17
194.678	11.78
194.897	44.54
195.116	30.21
195.335	22.02
195.555	46.59
195.774	-10.75
195.993	40.45
196.212	28.16
196.432	42.5
196.651	71.17
196.87	-31.23
197.089	105.98
197.308	3.58
197.528	22.02
197.747	-25.09
197.966	-2.56
198.185	83.45
198.404	36.35
198.623	5.63
198.842	28.16
199.062	69.12
199.281	-12.8
199.5	38.4
199.719	15.87
199.938	-16.9
200.157	19.97
200.376	13.82
200.595	17.92
200.814	42.5
201.033	30.21
201.252	-6.66
201.471	44.54
201.69	-18.94
201.909	75.26
202.128	38.4
202.347	-0.51
202.566	-29.18
202.785	-2.56
203.004	30.21
203.223	28.16
203.442	36.35
203.661	30.21
203.879	11.78
204.098	-59.9
204.317	38.4
204.536	17.92
204.755	-4.61
204.974	19.97
205.193	54.78
205.411	38.4
205.63	87.55
205.849	97.79
206.068	-8.7
206.287	-20.99
206.505	24.06
206.724	44.54
206.943	13.82
207.162	101.89
207.381	40.45
207.599	48.64
207.818	-2.56
208.037	56.83
208.255	-35.33
208.474	38.4
208.693	-39.42
208.911	1.54
209.13	75.26
209.349	-2.56
209.567	-25.09
209.786	13.82
210.005	11.78
210.223	24.06
210.442	-47.62
210.661	19.97
210.879	7.68
211.098	50.69
211.316	24.06
211.535	50.69
211.753	71.17
211.972	38.4
212.191	-10.75
212.409	-6.66
212.628	28.16
212.846	44.54
213.065	54.78
213.283	56.83
213.502	19.97
213.72	13.82
213.938	40.45
214.157	-33.28
214.375	36.35
214.594	7.68
214.812	13.82
215.031	-45.57
215.249	40.45
215.467	32.26
215.686	26.11
215.904	42.5
216.122	-2.56
216.341	50.69
216.559	5.63
216.778	26.11
216.996	-20.99
217.214	17.92
217.432	5.63
217.651	5.63
217.869	67.07
218.087	-39.42
218.306	36.35
218.524	26.11
218.742	-10.75
218.96	67.07
219.179	38.4
219.397	48.64
219.615	89.6
219.833	34.3
220.051	-61.95
220.27	58.88
220.488	-33.28
220.706	-61.95
220.924	26.11
221.142	99.84
221.36	5.63
221.578	15.87
221.796	46.59
222.015	15.87
222.233	-23.04
222.451	83.45
222.669	-10.75
222.887	54.78
223.105	-10.75
223.323	9.73
223.541	1.54
223.759	44.54
223.977	-14.85
224.195	-18.94
224.413	36.35
224.631	28.16
224.849	-2.56
225.067	73.21
225.285	-53.76
225.503	46.59
225.721	-0.51
225.939	1.54
226.157	34.3
226.375	30.21
226.592	26.11
226.81	52.74
227.028	-10.75
227.246	79.36
227.464	-16.9
227.682	58.88
227.9	22.02
228.117	54.78
228.335	13.82
228.553	-4.61
228.771	11.78
228.989	56.83
229.206	60.93
229.424	103.93
229.642	-39.42
229.86	34.3
230.077	58.88
230.295	7.68
230.513	-39.42
230.731	56.83
230.948	50.69
231.166	30.21
231.384	-6.66
231.601	7.68
231.819	67.07
232.037	26.11
232.254	-18.94
232.472	62.98
232.689	-6.66
232.907	75.26
233.125	-29.18
233.342	38.4
233.56	3.58
233.777	108.03
233.995	1.54
234.213	-2.56
234.43	36.35
234.648	42.5
234.865	30.21
235.083	34.3
235.3	15.87
235.518	-10.75
235.735	30.21
235.953	-6.66
236.17	-14.85
236.388	-12.8
236.605	40.45
236.822	69.12
237.04	13.82
237.257	9.73
237.475	52.74
237.692	67.07
237.909	34.3
238.127	30.21
238.344	40.45
238.562	58.88
238.779	118.27
238.996	-6.66
239.214	-4.61
239.431	52.74
239.648	50.69
239.865	60.93
240.083	-6.66
240.3	62.98
240.517	26.11
240.735	15.87
240.952	-23.04
241.169	44.54
241.386	67.07
241.603	19.97
241.821	17.92
242.038	42.5
242.255	17.92
242.472	9.73
242.689	7.68
242.907	7.68
243.124	28.16
243.341	-2.56
243.558	5.63
243.775	1.54
243.992	-6.66
244.209	60.93
244.426	-8.7
244.643	42.5
244.86	24.06
245.078	3.58
245.295	-41.47
245.512	-33.28
245.729	9.73
245.946	52.74
246.163	-20.99
246.38	-4.61
246.597	42.5
246.814	1.54
247.031	67.07
247.248	54.78
247.464	1.54
247.681	52.74
247.898	44.54
248.115	15.87
248.332	13.82
248.549	56.83
248.766	99.84
248.983	83.45
249.2	7.68
249.417	24.06
249.633	5.63
249.85	36.35
250.067	38.4
250.284	3.58
250.501	5.63
250.717	5.63
250.934	9.73
251.151	5.63
251.368	50.69
251.585	3.58
251.801	-10.75
252.018	87.55
252.235	77.31
252.451	-53.76
252.668	44.54
252.885	-4.61
253.102	-31.23
253.318	15.87
253.535	60.93
253.752	89.6
253.968	38.4
254.185	-0.51
254.401	15.87
254.618	-23.04
254.835	-10.75
255.051	83.45
255.268	1.54
255.484	9.73
255.701	67.07
255.917	71.17
256.134	-27.14
256.351	22.02
256.567	34.3
256.784	19.97
257	69.12
257.217	36.35
257.433	5.63
257.65	11.78
257.866	-10.75
258.082	-25.09
258.299	-31.23
258.515	67.07
258.732	-23.04
258.948	71.17
259.165	65.02
259.381	77.31
259.597	13.82
259.814	79.36
260.03	-20.99
260.246	30.21
260.463	34.3
260.679	22.02
260.895	56.83
261.112	73.21
261.328	-55.81
261.544	67.07
261.761	19.97
261.977	79.36
262.193	19.97
262.409	30.21
262.626	13.82
262.842	79.36
263.058	-16.9
263.274	101.89
263.49	50.69
263.707	7.68
263.923	-0.51
264.139	-0.51
264.355	44.54
264.571	67.07
264.787	24.06
265.004	42.5
265.22	7.68
265.436	17.92
265.652	79.36
265.868	24.06
266.084	38.4
266.3	48.64
266.516	5.63
266.732	11.78
266.948	60.93
267.164	71.17
267.38	-18.94
267.596	34.3
267.812	99.84
268.028	42.5
268.244	48.64
268.46	48.64
268.676	-27.14
268.892	-6.66
269.108	-8.7
269.324	-37.38
269.54	-2.56
269.756	19.97
269.972	26.11
270.188	67.07
270.403	-35.33
270.619	60.93
270.835	67.07
271.051	-20.99
271.267	-37.38
271.483	30.21
271.698	36.35
271.914	42.5
272.13	32.26
272.346	75.26
272.562	50.69
272.777	19.97
272.993	28.16
273.209	19.97
273.425	3.58
273.64	132.61
273.856	24.06
274.072	42.5
274.287	71.17
274.503	38.4
274.719	24.06
274.934	5.63
275.15	11.78
275.366	71.17
275.581	19.97
275.797	52.74
276.012	-57.86
276.228	32.26
276.444	36.35
276.659	77.31
276.875	1.54
277.09	67.07
277.306	1.54
277.521	54.78
277.737	-8.7
277.952	17.92
278.168	-2.56
278.383	62.98
278.599	85.5
278.814	9.73
279.03	9.73
279.245	-16.9
279.461	28.16
279.676	65.02
279.892	97.79
280.107	24.06
280.322	71.17
280.538	36.35
280.753	42.5
280.969	56.83
281.184	-23.04
281.399	11.78
281.615	50.69
281.83	26.11
282.045	-96.77
282.26	-31.23
282.476	11.78
282.691	5.63
282.906	-53.76
283.122	83.45
283.337	-4.61
283.552	38.4
283.767	75.26
283.983	62.98
284.198	28.16
284.413	3.58
284.628	-6.66
284.843	24.06
285.058	54.78
285.274	7.68
285.489	-16.9
285.704	83.45
285.919	79.36
286.134	75.26
286.349	40.45
286.564	65.02
286.779	-49.66
286.995	26.11
287.21	-12.8
287.425	-8.7
287.64	-31.23
287.855	-27.14
288.07	-39.42
288.285	58.88
288.5	87.55
288.715	24.06
288.93	-14.85
289.145	42.5
289.36	9.73
289.575	42.5
289.79	7.68
290.004	50.69
290.219	50.69
290.434	75.26
290.649	34.3
290.864	5.63
291.079	-10.75
291.294	15.87
291.509	46.59
291.724	54.78
291.938	36.35
292.153	89.6
292.368	103.93
292.583	15.87
292.798	-43.52
293.012	9.73
293.227	60.93
293.442	77.31
293.657	19.97
293.871	28.16
294.086	26.11
294.301	60.93
294.516	17.92
294.73	30.21
294.945	13.82
295.16	69.12
295.374	-10.75
295.589	75.26
295.804	62.98
296.018	-14.85
296.233	-0.51
296.447	32.26
296.662	75.26
296.877	7.68
297.091	1.54
297.306	58.88
297.52	69.12
297.735	24.06
297.949	22.02
298.164	124.41
298.378	65.02
298.593	-12.8
298.807	99.84
299.022	114.17
299.236	-27.14
299.451	85.5
299.665	17.92
299.88	65.02
300.094	-18.94
300.309	54.78
300.523	5.63
300.737	17.92
300.952	34.3
301.166	54.78
301.381	42.5
301.595	9.73
301.809	1.54
302.024	34.3
302.238	62.98
302.452	73.21
302.667	46.59
302.881	50.69
303.095	30.21
303.309	5.63
303.524	-59.9
303.738	58.88
303.952	-12.8
304.166	26.11
304.381	-35.33
304.595	58.88
304.809	95.74
305.023	-4.61
305.237	-31.23
305.452	60.93
305.666	48.64
305.88	-4.61
306.094	11.78
306.308	-2.56
306.522	-25.09
306.736	15.87
306.95	50.69
307.164	-25.09
307.379	-16.9
307.593	54.78
307.807	79.36
308.021	108.03
308.235	36.35
308.449	9.73
308.663	54.78
308.877	46.59
309.091	77.31
309.305	40.45
309.519	24.06
309.733	71.17
309.947	50.69
310.161	9.73
310.374	44.54
310.588	7.68
310.802	22.02
311.016	-27.14
311.23	46.59
311.444	26.11
311.658	-25.09
311.872	1.54
312.085	-2.56
312.299	-12.8
312.513	65.02
312.727	26.11
312.941	77.31
313.154	77.31
313.368	-23.04
313.582	17.92
313.796	-29.18
314.009	79.36
314.223	50.69
314.437	60.93
314.651	60.93
314.864	-18.94
315.078	81.41
315.292	28.16
315.505	-8.7
315.719	17.92
315.933	75.26
316.146	48.64
316.36	-55.81
316.573	40.45
316.787	38.4
317.001	13.82
317.214	-31.23
317.428	95.74
317.641	24.06
317.855	22.02
318.068	38.4
318.282	50.69
318.495	34.3
318.709	73.21
318.922	99.84
319.136	73.21
319.349	36.35
319.563	32.26
319.776	-43.52
319.99	-12.8
320.203	67.07
320.417	19.97
320.63	7.68
320.843	26.11
321.057	11.78
321.27	9.73
321.483	13.82
321.697	60.93
321.91	108.03
322.124	67.07
322.337	32.26
322.55	50.69
322.763	44.54
322.977	60.93
323.19	36.35
323.403	95.74
323.617	65.02
323.83	32.26
324.043	54.78
324.256	-4.61
324.469	-25.09
324.683	22.02
324.896	97.79
325.109	58.88
325.322	36.35
325.535	58.88
325.748	42.5
325.962	42.5
326.175	-4.61
326.388	46.59
326.601	15.87
326.814	89.6
327.027	-6.66
327.24	15.87
327.453	11.78
327.666	19.97
327.879	71.17
328.092	36.35
328.305	46.59
328.518	28.16
328.731	50.69
328.944	54.78
329.157	44.54
329.37	50.69
329.583	67.07
329.796	42.5
330.009	-10.75
330.222	126.46
330.435	-35.33
330.648	34.3
330.861	58.88
331.073	1.54
331.286	-39.42
331.499	69.12
331.712	28.16
331.925	67.07
332.138	-4.61
332.35	34.3
332.563	28.16
332.776	24.06
332.989	44.54
333.202	38.4
333.414	5.63
333.627	62.98
333.84	15.87
334.053	48.64
334.265	34.3
334.478	75.26
334.691	62.98
334.903	-8.7
335.116	38.4
335.329	-12.8
335.541	5.63
335.754	44.54
335.966	36.35
336.179	44.54
336.392	30.21
336.604	34.3
336.817	22.02
337.029	32.26
337.242	17.92
337.454	44.54
337.667	60.93
337.88	91.65
338.092	30.21
338.305	-25.09
338.517	75.26
338.729	28.16
338.942	13.82
339.154	79.36
339.367	42.5
339.579	85.5
339.792	15.87
340.004	32.26
340.217	54.78
340.429	52.74
340.641	-12.8
340.854	7.68
341.066	65.02
341.278	91.65
341.491	50.69
341.703	28.16
341.915	3.58
342.128	22.02
342.34	42.5
342.552	103.93
342.764	52.74
342.977	30.21
343.189	93.69
343.401	28.16
343.613	44.54
343.826	89.6
344.038	83.45
344.25	32.26
344.462	9.73
344.674	50.69
344.886	60.93
345.099	15.87
345.311	-20.99
345.523	79.36
345.735	-12.8
345.947	34.3
346.159	9.73
346.371	75.26
346.583	40.45
346.795	42.5
347.007	60.93
347.219	50.69
347.431	-12.8
347.643	99.84
347.855	79.36
348.067	120.32
348.279	110.08
348.491	71.17
348.703	124.41
348.915	67.07
349.127	48.64
349.339	91.65
349.551	26.11
349.763	34.3
349.975	22.02
350.187	56.83
350.399	42.5
350.61	40.45
350.822	5.63
351.034	26.11
351.246	114.17
351.458	17.92
351.669	108.03
351.881	99.84
352.093	38.4
352.305	89.6
352.517	5.63
352.728	79.36
352.94	60.93
353.152	34.3
353.363	17.92
353.575	99.84
353.787	95.74
353.999	22.02
354.21	13.82
354.422	1.54
354.633	97.79
354.845	60.93
355.057	42.5
355.268	81.41
355.48	105.98
355.692	-14.85
355.903	54.78
356.115	99.84
356.326	24.06
356.538	50.69
356.749	46.59
356.961	62.98
357.172	32.26
357.384	108.03
357.595	5.63
357.807	83.45
358.018	126.46
358.23	17.92
358.441	52.74
358.653	13.82
358.864	11.78
359.075	62.98
359.287	26.11
359.498	79.36
359.709	38.4
359.921	30.21
360.132	46.59
360.344	13.82
360.555	-20.99
360.766	44.54
360.977	75.26
361.189	69.12
361.4	-31.23
361.611	75.26
361.823	77.31
362.034	34.3
362.245	71.17
362.456	69.12
362.667	11.78
362.879	-14.85
363.09	-0.51
363.301	42.5
363.512	50.69
363.723	36.35
363.935	34.3
364.146	79.36
364.357	15.87
364.568	36.35
364.779	75.26
364.99	11.78
365.201	44.54
365.412	44.54
365.623	-12.8
365.834	69.12
366.045	85.5
366.256	42.5
366.467	11.78
366.678	52.74
366.889	22.02
367.1	7.68
367.311	151.04
367.522	-8.7
367.733	65.02
367.944	118.27
368.155	81.41
368.366	50.69
368.577	48.64
368.788	85.5
368.999	97.79
369.209	52.74
369.42	52.74
369.631	101.89
369.842	19.97
370.053	58.88
370.264	-18.94
370.474	44.54
370.685	-27.14
370.896	17.92
371.107	62.98
371.317	1.54
371.528	42.5
371.739	65.02
371.95	36.35
372.16	67.07
372.371	79.36
372.582	48.64
372.792	-27.14
373.003	38.4
373.214	46.59
373.424	22.02
373.635	-53.76
373.846	97.79
374.056	34.3
374.267	26.11
374.477	-6.66
374.688	42.5
374.898	38.4
375.109	40.45
375.319	75.26
375.53	26.11
375.74	54.78
375.951	46.59
376.161	32.26
376.372	56.83
376.582	-45.57
376.793	9.73
377.003	50.69
377.214	30.21
377.424	-20.99
377.635	69.12
377.845	1.54
378.055	30.21
378.266	50.69
378.476	50.69
378.686	83.45
378.897	22.02
379.107	75.26
379.317	26.11
379.528	17.92
379.738	116.22
379.948	67.07
380.158	73.21
380.369	95.74
380.579	71.17
380.789	17.92
380.999	50.69
381.21	75.26
381.42	40.45
381.63	54.78
381.84	87.55
382.05	19.97
382.261	56.83
382.471	26.11
382.681	9.73
382.891	58.88
383.101	60.93
383.311	81.41
383.521	95.74
383.731	56.83
383.941	95.74
384.151	40.45
384.361	9.73
384.571	11.78
384.781	-6.66
384.991	36.35
385.201	56.83
385.411	62.98
385.621	34.3
385.831	54.78
386.041	77.31
386.251	75.26
386.461	50.69
386.671	58.88
386.881	36.35
387.091	22.02
387.301	52.74
387.511	11.78
387.72	50.69
387.93	-18.94
388.14	-20.99
388.35	-4.61
388.56	28.16
388.769	15.87
388.979	46.59
389.189	34.3
389.399	83.45
389.609	40.45
389.818	67.07
390.028	-16.9
390.238	36.35
390.447	67.07
390.657	42.5
390.867	65.02
391.076	32.26
391.286	52.74
391.496	67.07
391.705	17.92
391.915	11.78
392.125	83.45
392.334	83.45
392.544	-39.42
392.753	40.45
392.963	19.97
393.172	42.5
393.382	46.59
393.591	40.45
393.801	118.27
394.01	26.11
394.22	95.74
394.429	71.17
394.639	13.82
394.848	114.17
395.058	26.11
395.267	44.54
395.477	34.3
395.686	17.92
395.895	95.74
396.105	15.87
396.314	124.41
396.524	112.13
396.733	99.84
396.942	99.84
397.152	132.61
397.361	93.69
397.57	142.85
397.78	50.69
397.989	48.64
398.198	118.27
398.407	99.84
398.617	67.07
398.826	83.45
399.035	-12.8
399.244	24.06
399.453	153.09
399.663	71.17
399.872	73.21
400.081	50.69
400.29	56.83
400.499	36.35
400.708	91.65
400.917	95.74
401.127	85.5
401.336	-6.66
401.545	136.7
401.754	58.88
401.963	112.13
402.172	130.56
402.381	87.55
402.59	97.79
402.799	75.26
403.008	26.11
403.217	101.89
403.426	101.89
403.635	132.61
403.844	75.26
404.053	130.56
404.262	159.23
404.471	71.17
404.68	101.89
404.888	108.03
405.097	65.02
405.306	196.09
405.515	171.52
405.724	130.56
405.933	99.84
406.142	169.47
406.35	140.8
406.559	167.42
406.768	120.32
406.977	187.9
407.185	144.89
407.394	175.61
407.603	161.28
407.812	165.37
408.02	179.71
408.229	157.18
408.438	224.76
408.646	126.46
408.855	196.09
409.064	269.82
409.272	124.41
409.481	329.21
409.69	290.3
409.898	241.15
410.107	251.39
410.315	175.61
410.524	255.48
410.733	288.25
410.941	333.31
411.15	290.3
411.358	286.2
411.567	288.25
411.775	267.77
411.984	327.16
412.192	411.13
412.401	298.49
412.609	357.88
412.818	339.45
413.026	382.46
413.234	396.79
413.443	445.95
413.651	427.51
413.86	386.55
414.068	390.65
414.276	458.23
414.485	452.09
414.693	443.9
414.901	480.76
415.11	493.05
415.318	482.81
415.526	546.3
415.734	534.01
415.943	546.3
416.151	644.6
416.359	585.21
416.567	613.88
416.776	652.79
416.984	681.46
417.192	656.89
417.4	634.36
417.608	706.04
417.817	757.24
418.025	822.77
418.233	773.62
418.441	873.97
418.649	822.77
418.857	919.03
419.065	974.32
419.273	921.07
419.481	951.79
419.689	1023.47
419.897	1078.77
420.105	1058.29
420.313	1084.91
420.521	1134.06
420.729	1179.12
420.937	1244.65
421.145	1316.33
421.353	1281.52
421.561	1367.53
421.769	1338.86
421.977	1428.97
422.185	1406.44
422.393	1508.84
422.601	1758.69
422.809	1582.57
423.017	1596.9
423.224	1730.02
423.432	1818.08
423.64	1818.08
423.848	1914.34
424.056	1840.61
424.263	2020.83
424.471	2047.46
424.679	2086.37
424.887	2129.38
425.094	2172.38
425.302	2301.4
425.51	2305.5
425.718	2270.69
425.925	2424.28
426.133	2551.26
426.341	2702.81
426.548	2780.63
426.756	2909.65
426.964	2786.77
427.171	2973.14
427.379	2977.23
427.586	3165.65
427.794	3122.64
428.001	3315.15
428.209	3483.08
428.417	3392.97
428.624	3679.69
428.832	3671.5
429.039	3673.54
429.247	3712.46
429.454	4087.23
429.662	4234.69
429.869	3976.64
430.076	4203.97
430.284	4046.27
430.491	4275.65
430.699	4433.34
430.906	4457.92
431.114	4511.16
431.321	4847.03
431.528	4814.26
431.736	5156.27
431.943	5457.32
432.15	5057.97
432.358	5318.06
432.565	5727.66
432.772	5643.69
432.979	5768.62
433.187	5903.78
433.394	5918.12
433.601	6350.24
433.808	6440.35
434.016	6380.96
434.223	6444.45
434.43	7050.64
434.637	6874.52
434.844	7243.15
435.052	7476.62
435.259	7284.11
435.466	7544.2
435.673	7343.5
435.88	7773.58
436.087	8406.4
436.294	8234.37
436.501	8154.5
436.708	8330.62
436.915	8465.79
437.122	8959.35
437.329	9047.41
437.537	9201.01
437.743	9381.23
437.95	9354.61
438.157	9696.62
438.364	10214.76
438.571	9962.86
438.778	10147.17
438.985	11023.7
439.192	10710.36
439.399	10970.46
439.606	10710.36
439.813	11421.01
440.02	12223.81
440.227	11728.21
440.433	11871.56
440.64	12080.46
440.847	11869.51
441.054	12207.43
441.261	12911.93
441.467	12813.63
441.674	13114.68
441.881	13647.15
442.088	13534.51
442.294	13645.1
442.501	13821.23
442.708	13950.25
442.914	14599.46
443.121	15344.92
443.328	14937.37
443.534	16030.99
443.741	15500.56
443.948	15281.43
444.154	16559.36
444.361	16289.03
444.568	16467.2
444.774	16426.25
444.981	16530.69
445.187	17007.87
445.394	17618.16
445.6	17632.5
445.807	19219.67
446.013	18492.65
446.22	18701.54
446.426	19639.51
446.633	19967.18
446.839	20436.17
447.046	19453.14
447.252	20479.18
447.459	20475.08
447.665	20436.17
447.871	21566.65
448.078	22205.61
448.284	21306.55
448.491	21738.68
448.697	22658.21
448.903	22897.83
449.11	23170.21
449.316	22817.96
449.522	22787.24
449.728	23581.85
449.935	23741.59
450.141	23432.35
450.347	24325.26
450.553	23612.57
450.76	23882.9
450.966	24730.76
451.172	24319.12
451.378	24857.73
451.584	24675.46
451.791	25074.82
451.997	24872.07
452.203	25443.45
452.409	25394.3
452.615	24974.47
452.821	24142.99
453.027	24046.74
453.233	25480.32
453.44	24257.68
453.646	24865.92
453.852	24734.85
454.058	25203.84
454.264	24300.69
454.47	24804.49
454.676	24077.46
454.882	25246.85
455.088	22680.74
455.294	23065.76
455.5	23319.71
455.705	23747.73
455.911	22846.63
456.117	22314.16
456.323	21884.08
456.529	20677.83
456.735	21853.36
456.941	21324.99
457.147	20671.68
457.352	20356.3
457.558	19559.64
457.764	19856.59
457.97	19713.24
458.176	19260.63
458.381	19158.24
458.587	18377.96
458.793	18449.64
458.999	17308.92
459.204	18734.31
459.41	17951.98
459.616	16672
459.821	17097.98
460.027	16878.85
460.233	16196.87
460.438	15858.96
460.644	15760.66
460.85	15269.14
461.055	14968.09
461.261	14656.8
461.466	13722.93
461.672	13518.13
461.878	14349.61
462.083	13219.13
462.289	13397.3
462.494	13145.4
462.7	12569.92
462.905	11976.01
463.111	12600.64
463.316	12926.27
463.522	12492.1
463.727	12469.57
463.932	12223.81
464.138	12340.55
464.343	12502.34
464.549	11971.91
464.754	12373.32
464.959	12313.92
465.165	12152.13
465.37	11748.68
465.575	11296.08
465.781	11846.99
465.986	11642.19
466.191	11355.47
466.397	11312.47
466.602	10863.96
466.807	11021.66
467.012	11242.84
467.218	11130.2
467.423	10986.84
467.628	11007.32
467.833	11386.19
468.038	10968.41
468.244	10808.67
468.449	11095.38
468.654	10861.91
468.859	10524
469.064	10589.53
469.269	10202.47
469.474	10362.21
469.679	10583.39
469.885	10407.27
470.09	10491.23
470.295	10349.92
470.5	9956.71
470.705	10153.32
470.91	9899.37
471.115	9983.34
471.32	10012.01
471.525	9846.12
471.73	9653.61
471.935	9573.74
472.139	9393.52
472.344	9346.42
472.549	9342.32
472.754	9182.58
472.959	8998.26
473.164	8779.13
473.369	8670.59
473.574	9213.3
473.778	8910.2
473.983	8789.37
474.188	8936.82
474.393	8539.52
474.598	8637.82
474.802	8398.21
475.007	8314.24
475.212	8428.93
475.417	8017.29
475.621	8013.19
475.826	8107.4
476.031	7990.66
476.235	7736.71
476.44	7929.22
476.645	7794.06
476.849	7687.56
477.054	7749
477.259	7527.82
477.463	7619.98
477.668	7478.67
477.872	7529.87
478.077	7378.32
478.282	7105.94
478.486	7071.12
478.691	7005.59
478.895	7067.03
479.1	6833.56
479.304	7171.47
479.509	6862.23
479.713	6976.92
479.918	6745.5
480.122	6636.95
480.326	6880.66
480.531	6927.77
480.735	6471.07
480.94	6589.85
481.144	6892.95
481.348	6544.8
481.553	6563.23
481.757	6550.94
481.961	6454.69
482.166	6630.81
482.37	6645.15
482.574	6413.73
482.778	6364.57
482.983	6710.68
483.187	6598.04
483.391	6589.85
483.595	6772.12
483.8	6518.17
484.004	6532.51
484.208	6604.19
484.412	6596
484.616	6509.98
484.821	6700.44
485.025	6477.21
485.229	6682.01
485.433	6499.74
485.637	6460.83
485.841	6546.84
486.045	6450.59
486.249	6489.5
486.453	6544.8
486.657	6628.76
486.861	6481.31
487.065	6270.37
487.269	6587.8
487.473	6458.78
487.677	6405.53
487.881	6596
488.085	6458.78
488.289	6555.04
488.493	6528.41
488.697	6643.1
488.901	6575.52
489.105	6493.6
489.309	6735.26
489.512	6714.78
489.716	6536.6
489.92	6436.25
490.124	6563.23
490.328	6808.98
490.531	6552.99
490.735	6712.73
490.939	6792.6
491.143	6888.85
491.346	6712.73
491.55	6827.42
491.754	6729.11
491.958	7028.12
492.161	6821.27
492.365	6878.62
492.569	6866.33
492.772	6987.16
492.976	7126.42
493.18	7120.28
493.383	7087.51
493.587	7132.56
493.79	7263.63
493.994	7083.41
494.197	7167.38
494.401	7329.17
494.605	7253.39
494.808	7374.22
495.012	7470.48
495.215	7542.16
495.419	7531.92
495.622	7484.81
495.825	7662.99
496.029	7832.97
496.232	7751.05
496.436	7824.78
496.639	7818.63
496.843	8000.9
497.046	8199.55
497.249	8279.43
497.453	8072.58
497.656	8394.11
497.859	8496.51
498.063	8471.93
498.266	8641.92
498.469	8627.58
498.673	8815.99
498.876	9125.24
499.079	9213.3
499.282	9078.13
499.485	9323.89
499.689	9395.57
499.892	9375.09
500.095	9418.1
500.298	9786.73
500.501	9563.5
500.705	9807.21
500.908	10136.93
501.111	9985.38
501.314	10247.52
501.517	10399.07
501.72	10229.09
501.923	10437.98
502.126	10478.94
502.329	10868.06
502.532	10818.91
502.735	10917.21
502.938	11193.69
503.141	11378
503.344	11656.53
503.547	11566.42
503.75	11578.7
503.953	11908.43
504.156	11963.72
504.359	12227.91
504.562	12244.29
504.765	12596.54
504.968	12821.82
505.17	12639.55
505.373	12840.25
505.576	13043
505.779	13258.04
505.982	13444.4
506.185	13645.1
506.387	13632.82
506.59	13950.25
506.793	14097.7
506.996	14038.31
507.198	14611.75
507.401	14329.13
507.604	14722.34
507.807	15068.44
508.009	15189.27
508.212	15070.49
508.415	15484.18
508.617	15916.3
508.82	15846.67
509.022	15762.7
509.225	16229.64
509.428	16352.52
509.63	16536.84
509.833	16612.61
510.035	17095.93
510.238	16897.28
510.44	17317.11
510.643	17474.81
510.845	17515.76
511.048	17444.09
511.25	17904.88
511.453	18181.35
511.655	18877.66
511.858	18693.35
512.06	18846.94
512.262	19148
512.465	19434.71
512.667	19285.21
512.87	19645.65
513.072	19789.01
513.274	20094.16
513.477	20425.93
513.679	20657.35
513.881	20731.08
514.084	21097.66
514.286	21175.48
514.488	21292.22
514.69	22015.15
514.893	22027.44
515.095	21990.58
515.297	22473.9
515.499	22787.24
515.701	22961.31
515.904	23131.3
516.106	23336.09
516.308	23504.03
516.51	23856.28
516.712	23827.6
516.914	24212.62
517.116	24446.09
517.318	24458.38
517.52	24835.21
517.722	24962.18
517.925	25384.06
518.127	26193.01
518.329	25803.89
518.531	25920.63
518.733	26711.14
518.935	26561.64
519.136	26735.72
519.338	27331.68
519.54	27499.61
519.742	27874.39
519.944	27698.27
520.146	28544.08
520.348	28326.99
520.55	28679.24
520.752	28783.69
520.954	29291.59
521.155	29029.45
521.357	29697.08
521.559	29797.43
521.761	30045.24
521.963	30430.26
522.164	30307.38
522.366	30618.67
522.568	30946.34
522.77	31005.73
522.971	31327.27
523.173	31425.57
523.375	31398.94
523.576	32085.01
523.778	31755.29
523.98	32381.97
524.181	32451.6
524.383	32398.35
524.584	32783.37
524.786	33025.03
524.988	32951.31
525.189	33633.28
525.391	33780.73
525.592	33862.65
525.794	34202.61
525.995	34036.73
526.197	33997.82
526.398	34302.96
526.6	35017.71
526.801	34565.1
527.003	34671.6
527.204	34862.06
527.406	35290.09
527.607	35222.5
527.808	35322.85
528.01	34995.18
528.211	35216.36
528.412	35996.63
528.614	35591.14
528.815	36027.35
529.016	36414.42
529.218	35830.75
529.419	36230.1
529.62	36170.71
529.822	36168.66
530.023	36211.67
530.224	36506.58
530.425	36238.3
530.626	36070.36
530.828	36135.9
531.029	37004.24
531.23	36547.54
531.431	36756.43
531.632	36883.41
531.833	36811.73
532.035	36608.98
532.236	36561.87
532.437	37163.98
532.638	37063.63
532.839	37012.43
533.04	37032.91
533.241	36473.81
533.442	37731.26
533.643	37295.05
533.844	37170.12
534.045	37143.5
534.246	36805.58
534.447	37450.69
534.648	37336.01
534.849	37008.33
535.05	36957.13
535.251	37112.78
535.451	37145.55
535.652	37286.86
535.853	37497.8
536.054	37309.38
536.255	37532.61
536.456	37245.9
536.657	37776.32
536.857	37379.01
537.058	37483.46
537.259	37903.29
537.46	37575.62
537.66	37413.83
537.861	37503.94
538.062	37456.84
538.263	37835.71
538.463	37362.63
538.664	37565.38
538.865	37469.12
539.065	37766.08
539.266	37272.52
539.466	37974.97
539.667	37096.39
539.868	37960.64
540.068	37549
540.269	37239.75
540.469	37297.09
540.67	37108.68
540.87	37061.58
541.071	37571.52
541.271	37702.59
541.472	37499.84
541.672	37694.4
541.873	37442.5
542.073	36953.04
542.274	37579.71
542.474	37755.84
542.675	37295.05
542.875	37813.18
543.075	37417.93
543.276	36994
543.476	37776.32
543.676	37020.62
543.877	37299.14
544.077	37557.19
544.277	37256.14
544.478	37061.58
544.678	37467.08
544.878	37505.99
545.078	37186.5
545.279	37276.62
545.479	37041.1
545.679	37340.1
545.879	37460.93
546.079	37295.05
546.28	37118.92
546.48	36967.37
546.68	37344.2
546.88	37471.17
547.08	37282.76
547.28	37303.24
547.48	37020.62
547.68	37319.62
547.88	37037
548.081	37600.19
548.281	37725.12
548.481	36961.23
548.681	37757.89
548.881	37133.26
549.081	37139.4
549.28	37237.7
549.48	37241.8
549.68	37172.17
549.88	37944.25
550.08	36953.04
550.28	37450.69
550.48	37049.29
550.68	37784.51
550.88	37499.84
551.08	36678.61
551.279	37440.45
551.479	37094.35
551.679	37127.11
551.879	37004.24
552.079	37319.62
552.278	37086.15
552.478	37086.15
552.678	36975.56
552.878	37239.75
553.077	37213.13
553.277	36582.35
553.477	37387.21
553.676	36867.02
553.876	36809.68
554.076	36842.45
554.275	36910.03
554.475	36432.85
554.674	36891.6
554.874	36758.48
555.074	36813.77
555.273	36924.36
555.473	36961.23
555.672	37034.95
555.872	37159.88
556.071	36627.41
556.271	36744.14
556.47	36709.33
556.67	36277.21
556.869	36465.62
557.068	36533.2
557.268	36324.31
557.467	36348.89
557.667	36049.88
557.866	36262.87
558.065	36408.28
558.265	35986.39
558.464	36144.09
558.663	36420.56
558.863	35970.01
559.062	36506.58
559.261	35783.65
559.461	36266.97
559.66	35912.67
559.859	35904.48
560.058	35695.58
560.258	35896.28
560.457	35339.24
560.656	35625.95
560.855	35552.23
561.054	35724.25
561.253	35394.53
561.453	35572.71
561.652	35703.78
561.851	35939.29
562.05	35738.59
562.249	35294.18
562.448	35367.91
562.647	35242.98
562.846	35410.92
563.045	34898.92
563.244	34489.33
563.443	35951.58
563.642	34849.77
563.841	34839.53
564.04	34849.77
564.239	34972.65
564.438	34696.17
564.637	34884.59
564.836	34903.02
565.035	34808.81
565.234	34876.4
565.432	34458.61
565.631	34753.52
565.83	34876.4
566.029	33956.86
566.228	34524.15
566.427	34479.09
566.625	34450.42
566.824	33797.12
567.023	34292.72
567.222	33623.04
567.42	34575.34
567.619	33856.51
567.818	33969.15
568.016	33893.37
568.215	34249.72
568.414	33588.22
568.612	33917.95
568.811	33616.9
569.01	33778.68
569.208	33367.04
569.407	33715.2
569.605	32896.01
569.804	33436.67
570.002	32898.06
570.201	33051.66
570.4	32810
570.598	32728.08
570.797	32867.34
570.995	33092.62
571.193	32744.46
571.392	32887.82
571.59	32287.76
571.789	32670.73
571.987	32187.41
572.186	32447.5
572.384	32058.39
572.582	32656.4
572.781	32310.29
572.979	31915.03
573.177	32279.57
573.376	31896.6
573.574	31695.9
573.772	32013.34
573.971	31241.25
574.169	31202.34
574.367	31196.2
574.565	31538.21
574.763	30882.86
574.962	31474.72
575.16	30934.06
575.358	31179.81
575.556	30700.59
575.754	31122.47
575.952	30538.8
576.151	30880.81
576.349	30540.85
576.547	30493.74
576.745	30315.57
576.943	30682.16
577.141	30172.21
577.339	30680.11
577.537	30368.82
577.735	30053.43
577.933	29633.6
578.131	29996.09
578.329	29840.44
578.527	29498.43
578.725	29803.58
578.923	29684.8
579.121	29434.94
579.319	29121.6
579.516	29195.33
579.714	29172.8
579.912	29193.28
580.11	29006.92
580.308	29011.01
580.506	29508.67
580.704	28601.42
580.901	28841.03
581.099	29207.62
581.297	28499.02
581.495	28480.59
581.692	28736.59
581.89	28304.46
582.088	28572.75
582.285	28116.05
582.483	28509.26
582.681	28509.26
582.878	28009.56
583.076	27800.66
583.274	28206.16
583.471	27493.47
583.669	27757.66
583.866	27939.93
584.064	27894.87
584.262	27270.24
584.459	27892.82
584.657	27341.92
584.854	27753.56
585.052	26811.49
585.249	27391.07
585.447	27165.79
585.644	26553.45
585.841	26895.46
586.039	27188.32
586.236	26774.63
586.434	26850.41
586.631	26393.71
586.828	26514.54
587.026	26555.5
587.223	26694.76
587.42	26205.3
587.618	26236.02
587.815	26152.05
588.012	26168.43
588.21	25998.45
588.407	25988.21
588.604	26045.55
588.801	25652.34
588.999	25703.54
589.196	25586.81
589.393	25775.22
589.59	25531.51
589.787	25234.56
589.984	25447.55
590.182	25388.16
590.379	25513.08
590.576	24986.75
590.773	25130.11
590.97	24874.12
591.167	24908.93
591.364	24730.76
591.561	24878.21
591.758	24642.7
591.955	24607.88
592.152	24732.81
592.349	24439.95
592.546	24341.64
592.743	24638.6
592.94	24237.2
593.137	24388.75
593.334	24331.4
593.531	23973.01
593.727	24235.15
593.924	24071.31
594.121	23760.02
594.318	24050.83
594.515	23555.22
594.712	23927.95
594.908	23549.08
595.105	23741.59
595.302	23542.94
595.499	23610.52
595.696	23690.39
595.892	23243.93
596.089	23358.62
596.286	23350.43
596.482	23278.75
596.679	23430.3
596.876	23078.05
597.072	22824.1
597.269	22856.87
597.466	22643.88
597.662	22703.27
597.859	22930.59
598.055	22809.76
598.252	22299.82
598.448	22465.71
598.645	22557.86
598.841	22295.72
599.038	22269.1
599.234	22203.57
599.431	21916.85
599.627	21996.72
599.824	22402.22
600.02	21769.4
600.217	21951.67
600.413	21980.34
600.609	21763.25
600.806	21802.16
601.002	21716.15
601.198	21249.21
601.395	21441.72
601.591	21462.2
601.787	21464.25
601.984	21216.44
602.18	21329.08
602.376	21112
602.572	21097.66
602.769	21130.43
602.965	21140.67
603.161	20976.83
603.357	20526.28
603.553	20753.6
603.75	20647.11
603.946	20520.13
604.142	20507.85
604.338	20061.39
604.534	20653.25
604.73	20122.83
604.926	19889.36
605.122	20526.28
605.318	20194.51
605.514	20059.34
605.71	20040.91
605.906	20133.07
606.102	19938.51
606.298	19840.21
606.494	19838.16
606.69	19827.92
606.886	19719.38
607.082	19358.94
607.278	19692.76
607.474	19238.11
607.67	19619.03
607.866	19313.88
608.062	19215.58
608.257	19401.94
608.453	19068.13
608.649	19129.56
608.845	18713.83
609.041	18928.86
609.236	19111.13
609.432	19023.07
609.628	18920.67
609.824	18986.21
610.019	18625.76
610.215	18453.73
610.411	18597.09
610.606	18515.17
610.802	18664.68
610.998	18822.37
611.193	18183.4
611.389	18418.92
611.584	18324.71
611.78	18173.16
611.976	18195.69
612.171	18214.12
612.367	18068.72
612.562	17859.82
612.758	17788.14
612.953	18038
613.149	17849.58
613.344	17794.29
613.539	18072.81
613.735	17982.7
613.93	17835.25
614.126	17683.7
614.321	17935.6
614.517	17534.2
614.712	17599.73
614.907	17503.48
615.103	17487.09
615.298	17155.32
615.493	17749.23
615.688	17304.82
615.884	17868.02
616.079	17054.97
616.274	17712.37
616.47	16903.42
616.665	17286.39
616.86	17188.09
617.055	17229.05
617.25	17009.92
617.445	17155.32
617.641	16778.5
617.836	16923.9
618.031	16680.19
618.226	16628.99
618.421	16508.16
618.616	16874.75
618.811	16413.96
619.006	16796.93
619.201	16293.13
619.396	16473.35
619.591	15987.98
619.786	16368.9
619.981	16008.46
620.176	16108.81
620.371	15815.95
620.566	16065.8
620.761	15893.77
620.956	15981.84
621.151	15676.69
621.346	15781.14
621.541	15490.32
621.735	15475.99
621.93	15377.69
622.125	15484.18
622.32	15199.51
622.515	15228.18
622.709	15078.68
622.904	15025.43
623.099	15129.88
623.294	14992.67
623.488	14820.64
623.683	14834.97
623.878	14804.25
624.072	14409
624.267	14437.67
624.462	14533.92
624.656	14398.76
624.851	14218.54
625.046	14109.99
625.24	14003.5
625.435	14189.86
625.629	13849.9
625.824	13970.73
626.018	13671.73
626.213	13497.65
626.407	13630.77
626.602	13071.67
626.796	13567.28
626.991	13495.6
627.185	13389.11
627.38	13155.64
627.574	13391.16
627.768	13348.15
627.963	12952.89
628.157	12922.17
628.352	12881.21
628.546	12637.5
628.74	13161.78
628.935	12641.6
629.129	12567.87
629.323	12485.95
629.517	12610.88
629.712	12684.61
629.906	12461.38
630.1	12086.6
630.294	12191.05
630.489	12332.36
630.683	12397.89
630.877	11943.24
631.071	11896.14
631.265	12160.33
631.459	11924.81
631.653	11720.01
631.848	11771.21
632.042	11597.14
632.236	11830.6
632.43	11525.46
632.624	11658.57
632.818	11588.94
633.012	11210.07
633.206	11427.15
633.4	11242.84
633.594	11246.93
633.788	11232.6
633.982	11263.32
634.176	11070.81
634.369	10988.89
634.563	11109.72
634.757	11015.51
634.951	10882.39
635.145	10845.53
635.339	10868.06
635.533	10728.8
635.726	10716.51
635.92	10726.75
636.114	10575.2
636.308	10323.3
636.501	10446.18
636.695	10519.9
636.889	10343.78
637.083	10437.98
637.276	10126.69
637.47	9919.85
637.664	10286.44
637.857	10179.94
638.051	10020.2
638.244	9913.7
638.438	10001.77
638.632	9971.05
638.825	9848.17
639.019	9663.85
639.212	9801.07
639.406	9690.48
639.599	9569.65
639.793	9495.92
639.986	9493.87
640.18	9475.44
640.373	9418.1
640.567	9293.17
640.76	9356.66
640.954	9237.88
641.147	8899.96
641.34	9117.04
641.534	9211.25
641.727	8940.92
641.92	8971.64
642.114	8850.81
642.307	8945.02
642.5	8928.63
642.694	8703.36
642.887	8703.36
643.08	8748.41
643.273	8578.43
643.467	8615.29
643.66	8506.75
643.853	8480.13
644.046	8304
644.239	8363.39
644.432	8199.55
644.626	8197.51
644.819	8039.81
645.012	8344.96
645.205	8138.12
645.398	8043.91
645.591	8156.55
645.784	7931.27
645.977	7918.98
646.17	7869.83
646.363	7753.1
646.556	7665.04
646.749	7802.25
646.942	7724.43
647.135	7656.84
647.328	7523.73
647.521	7581.07
647.714	7601.55
647.907	7443.85
648.099	7351.7
648.292	7478.67
648.485	7079.32
648.678	7265.68
648.871	7206.29
649.064	7341.46
649.256	7185.81
649.449	7163.28
649.642	7112.08
649.835	6833.56
650.027	7089.56
650.22	6989.21
650.413	6874.52
650.605	6790.55
650.798	6835.61
650.991	6761.88
651.183	6682.01
651.376	6661.53
651.568	6659.48
651.761	6651.29
651.954	6559.13
652.146	6403.49
652.339	6454.69
652.531	6387.1
652.724	6346.14
652.916	6170.02
653.109	6393.25
653.301	6296.99
653.494	6268.32
653.686	6153.63
653.879	6237.6
654.071	6108.58
654.263	5971.36
654.456	6004.13
654.648	6016.42
654.84	5995.94
655.033	5881.25
655.225	5778.86
655.417	5967.27
655.61	5774.76
655.802	5907.88
655.994	5791.14
656.186	5686.7
656.379	5586.35
656.571	5584.3
656.763	5526.96
656.955	5514.67
657.148	5655.98
657.34	5502.38
657.532	5408.17
657.724	5375.41
657.916	5549.48
658.108	5418.41
658.3	5275.06
658.492	5289.39
658.684	5236.14
658.876	5199.28
659.068	5164.47
659.26	5299.63
659.452	5043.64
659.644	5000.63
659.836	5055.92
660.028	5049.78
660.22	4951.48
660.412	4959.67
660.604	4812.21
660.796	4785.59
660.988	5057.97
661.18	4797.88
661.372	4826.55
661.563	4804.02
661.755	4844.98
661.947	4722.1
662.139	4703.67
662.331	4607.42
662.522	4521.4
662.714	4474.3
662.906	4572.6
663.097	4472.25
663.289	4484.54
663.481	4425.15
663.673	4505.02
663.864	4382.14
664.056	4462.01
664.247	4324.8
664.439	4287.93
664.631	4339.13
664.822	4246.98
665.014	4320.7
665.205	4140.48
665.397	4218.3
665.588	4230.59
665.78	4036.03
665.971	4158.91
666.163	4025.79
666.354	4019.65
666.546	4156.86
666.737	3958.21
666.929	4027.84
667.12	3974.6
667.311	3966.4
667.503	3861.96
667.694	3917.25
667.885	3847.62
668.077	3759.56
668.268	3941.83
668.459	3730.89
668.651	3718.6
668.842	3741.13
669.033	3753.41
669.224	3702.22
669.416	3706.31
669.607	3734.98
669.798	3708.36
669.989	3634.63
670.18	3591.63
670.371	3618.25
670.563	3493.32
670.754	3472.84
670.945	3544.52
671.136	3567.05
671.327	3493.32
671.518	3519.95
671.709	3509.71
671.9	3433.93
672.091	3401.16
672.282	3460.56
672.473	3474.89
672.664	3507.66
672.855	3290.57
673.046	3360.2
673.237	3321.29
673.428	3237.33
673.619	3284.43
673.809	3237.33
674	3329.49
674.191	3261.9
674.382	3266
674.573	3335.63
674.764	3151.31
674.954	3098.06
675.145	3036.63
675.336	3255.76
675.527	3128.78
675.717	3149.26
675.908	3220.94
676.099	3202.51
676.289	3175.89
676.48	3192.27
676.671	3096.02
676.861	3114.45
677.052	3042.77
677.243	3016.15
677.433	3122.64
677.624	3055.06
677.814	3040.72
678.005	3081.68
678.195	3042.77
678.386	3081.68
678.576	3032.53
678.767	2999.76
678.957	3014.1
679.148	3007.95
679.338	2891.22
679.529	2809.3
679.719	2940.37
679.909	2911.7
680.1	2958.8
680.29	2848.21
680.481	2778.58
680.671	2852.31
680.861	2764.25
681.052	2842.07
681.242	2901.46
681.432	2842.07
681.622	2928.08
681.813	2880.98
682.003	2829.78
682.193	2803.16
682.383	2786.77
682.573	2782.68
682.764	2788.82
682.954	2731.48
683.144	2741.72
683.334	2723.29
683.524	2801.11
683.714	2719.19
683.904	2803.16
684.094	2688.47
684.284	2780.63
684.474	2762.2
684.664	2780.63
684.854	2663.9
685.044	2778.58
685.234	2606.55
685.424	2627.03
685.614	2727.38
685.804	2612.7
685.994	2727.38
686.184	2651.61
686.374	2790.87
686.564	2692.57
686.753	2610.65
686.943	2672.09
687.133	2751.96
687.323	2778.58
687.513	2569.69
687.702	2620.89
687.892	2516.44
688.082	2643.42
688.272	2667.99
688.461	2586.07
688.651	2651.61
688.841	2680.28
689.03	2682.33
689.22	2577.88
689.41	2635.22
689.599	2600.41
689.789	2536.92
689.979	2518.49
690.168	2567.64
690.358	2575.83
690.547	2493.91
690.737	2538.97
690.926	2551.26
691.116	2473.43
691.305	2518.49
691.495	2670.04
691.684	2551.26
691.874	2661.85
692.063	2608.6
692.252	2612.7
692.442	2590.17
692.631	2549.21
692.82	2510.3
693.01	2573.78
693.199	2399.71
693.388	2598.36
693.578	2506.2
693.767	2649.56
693.956	2590.17
694.146	2481.63
694.335	2381.28
694.524	2446.81
694.713	2510.3
694.902	2573.78
695.092	2608.6
695.281	2465.24
695.47	2508.25
695.659	2436.57
695.848	2565.59
696.037	2475.48
696.226	2483.67
696.415	2516.44
696.604	2545.11
696.793	2557.4
696.982	2446.81
697.171	2481.63
697.36	2471.39
697.549	2452.95
697.738	2438.62
697.927	2379.23
698.116	2565.59
698.305	2522.59
698.494	2426.33
698.683	2459.1
698.872	2520.54
699.061	2418.14
699.25	2442.71
699.438	2340.32
699.627	2405.85
699.816	2430.43
700.005	2459.1
700.193	2432.47
700.382	2328.03
700.571	2395.61
700.76	2346.46
700.948	2493.91
701.137	2317.79
701.326	2444.76
701.514	2368.99
701.703	2512.35
701.892	2371.04
702.08	2299.36
702.269	2379.23
702.457	2405.85
702.646	2366.94
702.834	2239.97
703.023	2407.9
703.212	2313.69
703.4	2405.85
703.589	2233.82
703.777	2215.39
703.965	2223.58
704.154	2221.53
704.342	2231.77
704.531	2246.11
704.719	2256.35
704.907	2260.45
705.096	2190.81
705.284	2158.05
705.472	2282.97
705.661	2252.25
705.849	2139.62
706.037	2149.86
706.226	2242.01
706.414	2149.86
706.602	2049.5
706.79	2158.05
706.979	2149.86
707.167	2151.9
707.355	2090.46
707.543	2022.88
707.731	2123.23
707.919	2121.18
708.107	2010.59
708.296	2012.64
708.484	2096.61
708.672	2117.09
708.86	2033.12
709.048	2090.46
709.236	2053.6
709.424	1986.02
709.612	2094.56
709.8	2037.22
709.988	2026.98
710.176	1969.63
710.364	2061.79
710.551	2076.13
710.739	1992.16
710.927	2072.03
711.115	2033.12
711.303	1934.82
711.491	1947.11
711.679	2002.4
711.866	1912.29
712.054	1936.87
712.242	1963.49
712.43	1943.01
712.617	1951.2
712.805	1983.97
712.993	1912.29
713.181	1857
713.368	1879.52
713.556	1906.15
713.744	1852.9
713.931	1879.52
714.119	1877.48
714.306	1742.31
714.494	1779.17
714.682	1852.9
714.869	1797.6
715.057	1746.41
715.244	1826.28
715.432	1834.47
715.619	1775.08
715.807	1832.42
715.994	1834.47
716.182	1723.88
716.369	1775.08
716.556	1762.79
716.744	1770.98
716.931	1601
717.119	1676.77
717.306	1699.3
717.493	1574.38
717.681	1648.1
717.868	1654.25
718.055	1656.29
718.242	1594.86
718.43	1742.31
718.617	1717.73
718.804	1697.25
718.991	1641.96
719.179	1574.38
719.366	1650.15
719.553	1660.39
719.74	1529.32
719.927	1687.01
720.114	1545.7
720.301	1439.21
720.488	1514.98
720.676	1426.92
720.863	1566.18
721.05	1443.31
721.237	1568.23
721.424	1533.42
721.611	1461.74
721.798	1527.27
721.985	1451.5
722.172	1506.79
722.358	1410.54
722.545	1433.07
722.732	1594.86
722.919	1502.7
723.106	1486.31
723.293	1459.69
723.48	1357.29
723.667	1439.21
723.853	1476.07
724.04	1410.54
724.227	1406.44
724.414	1394.15
724.6	1465.83
724.787	1453.55
724.974	1347.05
725.161	1336.81
725.347	1349.1
725.534	1351.15
725.72	1418.73
725.907	1332.72
726.094	1359.34
726.28	1320.43
726.467	1324.52
726.653	1351.15
726.84	1424.87
727.027	1302
727.213	1357.29
727.4	1267.18
727.586	1363.44
727.773	1277.42
727.959	1242.61
728.145	1316.33
728.332	1369.58
728.518	1222.13
728.705	1361.39
728.891	1224.17
729.077	1306.09
729.264	1275.37
729.45	1289.71
729.636	1250.8
729.823	1269.23
730.009	1205.74
730.195	1222.13
730.382	1283.56
730.568	1211.89
730.754	1158.64
730.94	1213.93
731.126	1263.08
731.313	1254.89
731.499	1129.97
731.685	1195.5
731.871	1248.75
732.057	1121.77
732.243	1172.97
732.429	1150.45
732.615	1172.97
732.801	1246.7
732.987	1082.86
733.173	1168.88
733.359	1203.69
733.545	1189.36
733.731	1050.1
733.917	1156.59
734.103	1103.34
734.289	1218.03
734.475	1152.49
734.661	1146.35
734.847	1132.01
735.033	1076.72
735.219	1103.34
735.404	980.47
735.59	1000.94
735.776	1097.2
735.962	1175.02
736.148	1197.55
736.333	1060.34
736.519	1140.21
736.705	1058.29
736.89	1015.28
737.076	1031.66
737.262	1101.3
737.447	1070.58
737.633	1033.71
737.819	964.08
738.004	1080.82
738.19	992.75
738.375	939.51
738.561	1007.09
738.747	976.37
738.932	947.7
739.118	990.7
739.303	984.56
739.489	970.23
739.674	1019.38
739.859	990.7
740.045	1007.09
740.23	968.18
740.416	902.64
740.601	1009.14
740.786	976.37
740.972	931.31
741.157	968.18
741.342	876.02
741.528	959.99
741.713	984.56
741.898	853.49
742.084	865.78
742.269	894.45
742.454	923.12
742.639	927.22
742.824	847.35
743.01	896.5
743.195	865.78
743.38	923.12
743.565	820.72
743.75	894.45
743.935	853.49
744.12	835.06
744.305	792.05
744.49	826.87
744.675	861.68
744.86	851.44
745.045	820.72
745.23	886.26
745.415	843.25
745.6	859.63
745.785	798.2
745.97	835.06
746.155	845.3
746.34	855.54
746.525	757.24
746.71	853.49
746.895	851.44
747.079	841.2
747.264	691.7
747.449	751.09
747.634	730.61
747.819	781.81
748.003	792.05
748.188	734.71
748.373	790
748.557	730.61
748.742	740.85
748.927	798.2
749.111	703.99
749.296	796.15
749.481	787.96
749.665	765.43
749.85	808.44
750.034	826.87
750.219	736.76
750.404	685.56
750.588	669.17
750.773	663.03
750.957	747
751.141	714.23
751.326	667.13
751.51	595.45
751.695	622.07
751.879	695.8
752.064	726.52
752.248	644.6
752.432	632.31
752.617	634.36
752.801	763.38
752.985	613.88
753.17	693.75
753.354	605.69
753.538	624.12
753.722	599.54
753.907	667.13
754.091	585.21
754.275	617.97
754.459	597.49
754.643	615.93
754.828	646.65
755.012	656.89
755.196	611.83
755.38	544.25
755.564	622.07
755.748	667.13
755.932	574.97
756.116	591.35
756.3	673.27
756.484	556.54
756.668	632.31
756.852	579.06
757.036	577.02
757.22	560.63
757.404	443.9
757.588	542.2
757.772	517.62
757.956	589.3
758.14	517.62
758.323	548.34
758.507	527.86
758.691	538.1
758.875	456.19
759.059	552.44
759.242	470.52
759.426	529.91
759.61	493.05
759.794	488.95
759.977	570.87
760.161	540.15
760.345	540.15
760.528	546.3
760.712	413.18
760.895	478.71
761.079	511.48
761.263	527.86
761.446	425.47
761.63	462.33
761.813	458.23
761.997	525.82
762.18	558.58
762.364	468.47
762.547	472.57
762.731	542.2
762.914	499.19
763.098	390.65
763.281	505.34
763.464	458.23
763.648	517.62
763.831	468.47
764.015	464.38
764.198	521.72
764.381	437.75
764.564	540.15
764.748	460.28
764.931	525.82
765.114	411.13
765.297	435.71
765.481	466.42
765.664	404.99
765.847	454.14
766.03	407.03
766.213	429.56
766.397	404.99
766.58	388.6
766.763	445.95
766.946	488.95
767.129	493.05
767.312	435.71
767.495	347.64
767.678	407.03
767.861	429.56
768.044	404.99
768.227	435.71
768.41	437.75
768.593	468.47
768.776	355.83
768.959	396.79
769.142	417.27
769.324	437.75
769.507	392.7
769.69	464.38
769.873	486.9
770.056	437.75
770.239	495.1
770.421	445.95
770.604	509.43
770.787	396.79
770.97	411.13
771.152	409.08
771.335	312.83
771.518	423.42
771.7	321.02
771.883	402.94
772.066	331.26
772.248	331.26
772.431	439.8
772.613	347.64
772.796	404.99
772.978	341.5
773.161	372.22
773.343	368.12
773.526	329.21
773.708	323.07
773.891	431.61
774.073	390.65
774.256	325.12
774.438	347.64
774.621	333.31
774.803	413.18
774.985	407.03
775.168	396.79
775.35	366.07
775.532	364.03
775.715	314.88
775.897	427.51
776.079	349.69
776.261	353.79
776.444	380.41
776.626	298.49
776.808	355.83
776.99	368.12
777.173	282.11
777.355	378.36
777.537	329.21
777.719	312.83
777.901	339.45
778.083	366.07
778.265	345.59
778.447	339.45
778.629	333.31
778.811	284.16
778.993	357.88
779.175	400.89
779.357	273.92
779.539	364.03
779.721	282.11
779.903	282.11
780.085	331.26
780.267	249.34
780.449	251.39
780.631	310.78
780.812	230.91
780.994	265.72
781.176	261.63
781.358	296.44
781.54	247.29
781.721	308.73
781.903	286.2
782.085	335.35
782.267	282.11
782.448	257.53
782.63	253.44
782.812	335.35
782.993	230.91
783.175	370.17
783.357	210.43
783.538	304.64
783.72	230.91
783.901	269.82
784.083	253.44
784.264	239.1
784.446	237.05
784.627	275.96
784.809	159.23
784.99	232.96
785.172	214.52
785.353	224.76
785.535	290.3
785.716	202.24
785.897	251.39
786.079	251.39
786.26	261.63
786.441	271.87
786.623	165.37
786.804	263.68
786.985	212.48
787.167	179.71
787.348	206.33
787.529	275.96
787.71	243.2
787.891	245.24
788.073	189.95
788.254	218.62
788.435	194.05
788.616	226.81
788.797	226.81
788.978	144.89
789.159	239.1
789.34	243.2
789.522	175.61
789.703	75.26
789.884	185.85
790.065	196.09
790.246	192
790.427	155.13
790.607	212.48
790.788	177.66
790.969	212.48
791.15	218.62
791.331	179.71
791.512	208.38
791.693	192
791.874	124.41
792.054	165.37
792.235	181.76
792.416	159.23
792.597	247.29
792.778	103.93
792.958	214.52
793.139	222.72
793.32	167.42
793.5	181.76
793.681	210.43
793.862	171.52
794.042	124.41
794.223	146.94
794.404	194.05
794.584	153.09
794.765	181.76
794.945	161.28
795.126	189.95
795.306	198.14
795.487	157.18
795.667	126.46
795.848	116.22
796.028	136.7
796.209	165.37
796.389	142.85
796.57	116.22
796.75	222.72
796.93	189.95
797.111	169.47
797.291	208.38
797.471	181.76
797.652	136.7
797.832	89.6
798.012	130.56
798.192	138.75
798.373	159.23
798.553	155.13
798.733	114.17
798.913	97.79
799.093	110.08
799.274	220.67
799.454	75.26
799.634	165.37
799.814	167.42
799.994	161.28
800.174	124.41
800.354	122.37
800.534	85.5
800.714	148.99
800.894	175.61
801.074	83.45
801.254	136.7
801.434	128.51
801.614	202.24
801.794	146.94
801.974	372.22
802.154	105.98
802.334	194.05
802.514	97.79
802.693	132.61
802.873	87.55
803.053	134.65
803.233	155.13
803.413	144.89
803.592	120.32
803.772	132.61
803.952	75.26
804.131	108.03
804.311	101.89
804.491	126.46
804.67	122.37
804.85	151.04
805.03	93.69
805.209	114.17
805.389	91.65
805.568	97.79
805.748	9.73
805.928	183.81
806.107	48.64
806.287	83.45
806.466	75.26
806.646	116.22
806.825	173.57
807.004	103.93
807.184	126.46
807.363	118.27
807.543	118.27
807.722	71.17
807.901	159.23
808.081	91.65
808.26	19.97
808.439	148.99
808.619	144.89
808.798	95.74
808.977	67.07
809.156	118.27
809.336	91.65
809.515	83.45
809.694	105.98
809.873	114.17
810.052	34.3
810.231	132.61
810.411	22.02
810.59	95.74
810.769	148.99
810.948	48.64
811.127	81.41
811.306	40.45
811.485	148.99
811.664	126.46
811.843	79.36
812.022	60.93
812.201	30.21
812.38	110.08
812.559	71.17
812.737	95.74
812.916	87.55
813.095	89.6
813.274	81.41
813.453	93.69
813.632	120.32
813.811	26.11
813.989	5.63
814.168	87.55
814.347	40.45
814.526	120.32
814.704	103.93
814.883	142.85
815.062	87.55
815.24	93.69
815.419	85.5
815.598	48.64
815.776	42.5
815.955	60.93
816.133	101.89
816.312	52.74
816.49	36.35
816.669	110.08
816.847	124.41
817.026	91.65
817.204	54.78
817.383	128.51
817.561	42.5
817.74	108.03
817.918	65.02
818.097	19.97
818.275	28.16
818.453	26.11
818.632	97.79
818.81	83.45
818.988	42.5
819.167	32.26
819.345	50.69
819.523	62.98
819.701	165.37
819.879	120.32
820.058	1.54
820.236	71.17
820.414	83.45
820.592	99.84
820.77	71.17
820.948	103.93
821.127	99.84
821.305	75.26
821.483	30.21
821.661	101.89
821.839	91.65
822.017	81.41
822.195	-6.66
822.373	105.98
822.551	36.35
822.729	42.5
822.907	101.89
823.085	32.26
823.262	30.21
823.44	1.54
823.618	5.63
823.796	60.93
823.974	26.11
824.152	108.03
824.329	75.26
824.507	124.41
824.685	54.78
824.863	101.89
825.04	17.92
825.218	79.36
825.396	-6.66
825.574	13.82
825.751	13.82
825.929	46.59
826.107	11.78
826.284	79.36
826.462	69.12
826.639	1.54
826.817	-12.8
826.994	128.51
827.172	28.16
827.349	79.36
827.527	71.17
827.704	124.41
827.882	34.3
828.059	34.3
828.237	24.06
828.414	56.83
828.591	75.26
828.769	56.83
828.946	42.5
829.124	58.88
829.301	91.65
829.478	56.83
829.655	62.98
829.833	81.41
830.01	26.11
830.187	42.5
830.364	24.06
830.542	54.78
830.719	54.78
830.896	32.26
831.073	73.21
831.25	50.69
831.427	81.41
831.604	50.69
831.782	9.73
831.959	-2.56
832.136	42.5
832.313	93.69
832.49	42.5
832.667	52.74
832.844	36.35
833.021	19.97
833.198	38.4
833.374	17.92
833.551	87.55
833.728	79.36
833.905	22.02
834.082	38.4
834.259	-16.9
834.436	71.17
834.612	24.06
834.789	67.07
834.966	-10.75
835.143	28.16
835.319	13.82
835.496	28.16
835.673	15.87
835.85	93.69
836.026	1.54
836.203	79.36
836.38	36.35
836.556	5.63
836.733	118.27
836.909	48.64
837.086	46.59
837.262	69.12
837.439	-0.51
837.616	62.98
837.792	73.21
837.968	91.65
838.145	42.5
838.321	75.26
838.498	46.59
838.674	-18.94
838.851	26.11
839.027	85.5
839.203	69.12
839.38	28.16
839.556	-20.99
839.732	-6.66
839.909	-18.94
840.085	-0.51
840.261	-10.75
840.437	30.21
840.614	77.31
840.79	69.12
840.966	101.89
841.142	13.82
841.318	13.82
841.494	73.21
841.671	-0.51
841.847	-66.05
842.023	103.93
842.199	71.17
842.375	-25.09
842.551	-12.8
842.727	46.59
842.903	116.22
843.079	83.45
843.255	62.98
843.431	30.21
843.607	-2.56
843.783	17.92
843.959	58.88
844.134	79.36
844.31	34.3
844.486	-14.85
844.662	67.07
844.838	85.5
845.013	26.11
845.189	-4.61
845.365	58.88
845.541	60.93
845.716	5.63
845.892	54.78
846.068	3.58
846.244	24.06
846.419	130.56
846.595	19.97
846.77	17.92
846.946	42.5
847.122	34.3
847.297	11.78
847.473	114.17
847.648	36.35
847.824	42.5
847.999	-12.8
848.175	-4.61
848.35	-35.33
848.526	28.16
848.701	24.06
848.876	71.17
849.052	46.59
849.227	-6.66
849.403	22.02
849.578	-18.94
849.753	93.69
849.929	40.45
850.104	42.5
850.279	36.35
850.454	77.31
850.63	95.74
850.805	-2.56
850.98	7.68
851.155	19.97
851.33	95.74
851.505	-4.61
851.681	50.69
851.856	40.45
852.031	-6.66
852.206	22.02
852.381	83.45
852.556	-6.66
852.731	67.07
852.906	67.07
853.081	54.78
853.256	13.82
853.431	91.65
853.606	17.92
853.781	-14.85
853.956	-33.28
854.131	50.69
854.305	52.74
854.48	-18.94
854.655	9.73
854.83	81.41
855.005	89.6
855.18	126.46
855.354	56.83
855.529	50.69
855.704	-6.66
855.879	77.31
856.053	30.21
856.228	9.73
856.403	75.26
856.577	-0.51
856.752	-31.23
856.926	52.74
857.101	50.69
857.276	-74.24
857.45	22.02
857.625	52.74
857.799	71.17
857.974	17.92
858.148	-2.56
858.323	3.58
858.497	-53.76
858.672	87.55
858.846	-27.14
859.02	50.69
859.195	-10.75
859.369	75.26
859.543	30.21
859.718	54.78
859.892	22.02
860.066	24.06
860.241	1.54
860.415	11.78
860.589	26.11
860.763	28.16
860.938	75.26
861.112	-2.56
861.286	17.92
861.46	-8.7
861.634	38.4
861.808	28.16
861.982	24.06
862.157	13.82
862.331	83.45
862.505	38.4
862.679	-6.66
862.853	-14.85
863.027	71.17
863.201	60.93
863.375	-31.23
863.549	40.45
863.722	7.68
863.896	-2.56
864.07	17.92
864.244	-0.51
864.418	56.83
864.592	30.21
864.766	24.06
864.939	34.3
865.113	-43.52
865.287	13.82
865.461	34.3
865.634	58.88
865.808	9.73
865.982	95.74
866.156	85.5
866.329	-20.99
866.503	-0.51
866.676	42.5
866.85	-12.8
867.024	126.46
867.197	26.11
867.371	-57.86
867.544	-31.23
867.718	-47.62
867.891	-33.28
868.065	13.82
868.238	-16.9
868.412	9.73
868.585	38.4
868.759	46.59
868.932	17.92
869.105	-18.94
869.279	3.58
869.452	11.78
869.625	69.12
869.799	36.35
869.972	13.82
870.145	-23.04
870.319	-2.56
870.492	73.21
870.665	30.21
870.838	36.35
871.011	36.35
871.185	50.69
871.358	36.35
871.531	17.92
871.704	36.35
871.877	15.87
872.05	17.92
872.223	34.3
872.396	-4.61
872.569	26.11
872.742	7.68
872.915	48.64
873.088	83.45
873.261	5.63
873.434	-35.33
873.607	42.5
873.78	7.68
873.953	56.83
874.126	30.21
874.299	24.06
874.471	-23.04
874.644	3.58
874.817	19.97
874.99	-23.04
875.163	11.78
875.335	-2.56
875.508	62.98
875.681	-8.7
875.853	-8.7
876.026	5.63
876.199	1.54
876.371	54.78
876.544	-18.94
876.717	15.87
876.889	22.02
877.062	50.69
877.234	79.36
877.407	-0.51
877.579	-20.99
877.752	28.16
877.924	-10.75
878.097	-10.75
878.269	-0.51
878.442	17.92
878.614	54.78
878.786	24.06
878.959	-6.66
879.131	-18.94
879.303	-72.19
879.476	32.26
879.648	9.73
879.82	-29.18
879.993	-14.85
880.165	-12.8
880.337	26.11
880.509	24.06
880.681	58.88
880.854	28.16
881.026	-4.61
881.198	65.02
881.37	36.35
881.542	-29.18
881.714	-4.61
881.886	-10.75
882.058	19.97
882.23	50.69
882.402	-43.52
882.574	7.68
882.746	71.17
882.918	-23.04
883.09	56.83
883.262	77.31
883.434	-10.75
883.606	17.92
883.778	-76.29
883.95	17.92
884.122	13.82
884.293	17.92
884.465	5.63
884.637	3.58
884.809	9.73
884.98	46.59
885.152	22.02
885.324	38.4
885.496	60.93
885.667	24.06
885.839	-18.94
886.011	11.78
886.182	67.07
886.354	44.54
886.525	-8.7
886.697	85.5
886.869	-33.28
887.04	7.68
887.212	79.36
887.383	15.87
887.555	11.78
887.726	24.06
887.897	-6.66
888.069	32.26
888.24	-39.42
888.412	17.92
888.583	46.59
888.754	-6.66
888.926	42.5
889.097	50.69
889.268	-20.99
889.44	42.5
889.611	-29.18
889.782	36.35
889.953	32.26
890.125	7.68
890.296	11.78
890.467	17.92
890.638	-23.04
890.809	-45.57
890.98	-12.8
891.151	26.11
891.323	-12.8
891.494	40.45
891.665	36.35
891.836	17.92
892.007	-18.94
892.178	-39.42
892.349	13.82
892.52	26.11
892.691	38.4
892.862	48.64
893.032	69.12
893.203	-4.61
893.374	65.02
893.545	62.98
893.716	-45.57
893.887	-45.57
894.057	17.92
894.228	79.36
894.399	-41.47
894.57	1.54
894.74	-25.09
894.911	-39.42
895.082	62.98
895.253	17.92
895.423	1.54
895.594	52.74
895.764	11.78
895.935	15.87
896.106	38.4
896.276	5.63
896.447	65.02
896.617	-31.23
896.788	30.21
896.958	89.6
897.129	44.54
897.299	-2.56
897.47	42.5
897.64	-51.71
897.81	75.26
897.981	13.82
898.151	67.07
898.322	-35.33
898.492	11.78
898.662	-55.81
898.832	24.06
899.003	87.55
899.173	36.35
899.343	11.78
899.513	-20.99
