Data from USB4F104151__125__13-57-54-318.txt Node

Date: Thu Mar 13 13:57:54 EDT 2025
User: louis
Spectrometer: USB4F10415
Trigger mode: 4
Integration Time (sec): 1.000000E-2
Scans to average: 1
Electric dark correction enabled: true
Nonlinearity correction enabled: false
Boxcar width: 0
XAxis mode: Wavelengths
Number of Pixels in Spectrum: 3648
>>>>>Begin Spectral Data<<<<<
178.204	-49.49
178.424	-49.49
178.644	-49.49
178.864	-72.02
179.084	-65.88
179.304	28.33
179.524	61.1
179.744	28.33
179.964	1.71
180.184	-55.64
180.404	-47.44
180.624	-33.11
180.844	5.8
181.064	-4.44
181.283	-47.44
181.503	-16.73
181.723	79.53
181.943	1.71
182.163	16.04
182.383	32.43
182.602	48.81
182.822	1.71
183.042	-22.87
183.262	-63.83
183.482	40.62
183.701	-59.73
183.921	59.05
184.141	5.8
184.361	-57.68
184.58	-12.63
184.8	-16.73
185.02	18.09
185.239	-31.06
185.459	-4.44
185.679	22.19
185.898	-76.12
186.118	40.62
186.338	-20.82
186.557	18.09
186.777	50.86
186.997	-39.25
187.216	-92.5
187.436	-24.92
187.655	-35.16
187.875	-14.68
188.095	-51.54
188.314	59.05
188.534	-2.39
188.753	-35.16
188.973	24.23
189.192	-8.53
189.412	9.9
189.631	36.52
189.851	46.76
190.07	5.8
190.29	-16.73
190.509	7.85
190.729	-49.49
190.948	22.19
191.168	79.53
191.387	7.85
191.607	-35.16
191.826	24.23
192.045	-74.07
192.265	13.99
192.484	95.91
192.704	-26.96
192.923	-33.11
193.142	-12.63
193.362	-41.3
193.581	-35.16
193.8	-51.54
194.02	-57.68
194.239	22.19
194.458	54.95
194.678	1.71
194.897	-12.63
195.116	-26.96
195.335	-63.83
195.555	13.99
195.774	11.95
195.993	24.23
196.212	-45.4
196.432	13.99
196.651	40.62
196.87	3.75
197.089	22.19
197.308	11.95
197.528	-6.49
197.747	-24.92
197.966	18.09
198.185	-31.06
198.404	-16.73
198.623	63.15
198.842	26.28
199.062	-8.53
199.281	-18.77
199.5	-53.59
199.719	-22.87
199.938	11.95
200.157	9.9
200.376	-24.92
200.595	-31.06
200.814	46.76
201.033	-8.53
201.252	-51.54
201.471	-16.73
201.69	13.99
201.909	-16.73
202.128	-10.58
202.347	46.76
202.566	-59.73
202.785	-31.06
203.004	3.75
203.223	-14.68
203.442	9.9
203.661	24.23
203.879	-67.92
204.098	-33.11
204.317	-57.68
204.536	-2.39
204.755	18.09
204.974	59.05
205.193	-6.49
205.411	-0.34
205.63	-18.77
205.849	73.39
206.068	-37.2
206.287	-14.68
206.505	7.85
206.724	-4.44
206.943	36.52
207.162	-8.53
207.381	50.86
207.599	-67.92
207.818	-39.25
208.037	44.71
208.255	-43.35
208.474	30.38
208.693	1.71
208.911	1.71
209.13	-49.49
209.349	46.76
209.567	32.43
209.786	36.52
210.005	-45.4
210.223	-24.92
210.442	-76.12
210.661	48.81
210.879	7.85
211.098	-20.82
211.316	-6.49
211.535	95.91
211.753	38.57
211.972	-31.06
212.191	-65.88
212.409	16.04
212.628	-2.39
212.846	-22.87
213.065	3.75
213.283	-20.82
213.502	-92.5
213.72	-41.3
213.938	42.67
214.157	22.19
214.375	-22.87
214.594	36.52
214.812	54.95
215.031	-31.06
215.249	22.19
215.467	-45.4
215.686	9.9
215.904	-12.63
216.122	-65.88
216.341	28.33
216.559	5.8
216.778	57
216.996	-55.64
217.214	18.09
217.432	22.19
217.651	-33.11
217.869	44.71
218.087	40.62
218.306	-33.11
218.524	3.75
218.742	54.95
218.96	-45.4
219.179	-43.35
219.397	-35.16
219.615	3.75
219.833	5.8
220.051	-39.25
220.27	16.04
220.488	-14.68
220.706	40.62
220.924	-96.6
221.142	11.95
221.36	-26.96
221.578	-22.87
221.796	28.33
222.015	-22.87
222.233	-24.92
222.451	-20.82
222.669	-4.44
222.887	-31.06
223.105	-47.44
223.323	-55.64
223.541	26.28
223.759	38.57
223.977	-8.53
224.195	-6.49
224.413	-4.44
224.631	38.57
224.849	26.28
225.067	9.9
225.285	-96.6
225.503	-29.01
225.721	18.09
225.939	-24.92
226.157	-0.34
226.375	-12.63
226.592	13.99
226.81	-22.87
227.028	13.99
227.246	81.58
227.464	-20.82
227.682	50.86
227.9	-16.73
228.117	38.57
228.335	-37.2
228.553	3.75
228.771	-57.68
228.989	-14.68
229.206	-0.34
229.424	52.91
229.642	-47.44
229.86	44.71
230.077	-61.78
230.295	24.23
230.513	1.71
230.731	18.09
230.948	-12.63
231.166	61.1
231.384	-26.96
231.601	-49.49
231.819	46.76
232.037	7.85
232.254	1.71
232.472	-82.26
232.689	24.23
232.907	44.71
233.125	-4.44
233.342	-18.77
233.56	-86.36
233.777	-6.49
233.995	9.9
234.213	50.86
234.43	3.75
234.648	-20.82
234.865	-33.11
235.083	3.75
235.3	-43.35
235.518	-74.07
235.735	-18.77
235.953	65.19
236.17	34.47
236.388	24.23
236.605	-24.92
236.822	18.09
237.04	-18.77
237.257	20.14
237.475	-92.5
237.692	11.95
237.909	42.67
238.127	-6.49
238.344	-6.49
238.562	28.33
238.779	13.99
238.996	-14.68
239.214	24.23
239.431	1.71
239.648	-10.58
239.865	-8.53
240.083	7.85
240.3	-43.35
240.517	-0.34
240.735	38.57
240.952	57
241.169	32.43
241.386	57
241.603	-6.49
241.821	-10.58
242.038	46.76
242.255	50.86
242.472	-26.96
242.689	20.14
242.907	-43.35
243.124	1.71
243.341	1.71
243.558	11.95
243.775	-47.44
243.992	-2.39
244.209	16.04
244.426	22.19
244.643	-2.39
244.86	1.71
245.078	26.28
245.295	-90.45
245.512	24.23
245.729	9.9
245.946	57
246.163	-14.68
246.38	11.95
246.597	-53.59
246.814	-74.07
247.031	3.75
247.248	16.04
247.464	-16.73
247.681	81.58
247.898	-2.39
248.115	-2.39
248.332	20.14
248.549	16.04
248.766	-57.68
248.983	-24.92
249.2	54.95
249.417	20.14
249.633	11.95
249.85	48.81
250.067	26.28
250.284	100.01
250.501	-10.58
250.717	79.53
250.934	7.85
251.151	-8.53
251.368	5.8
251.585	57
251.801	30.38
252.018	38.57
252.235	-10.58
252.451	71.34
252.668	22.19
252.885	81.58
253.102	42.67
253.318	-49.49
253.535	-35.16
253.752	34.47
253.968	24.23
254.185	20.14
254.401	-39.25
254.618	-26.96
254.835	24.23
255.051	18.09
255.268	20.14
255.484	-37.2
255.701	13.99
255.917	9.9
256.134	-8.53
256.351	-24.92
256.567	-47.44
256.784	32.43
257	-26.96
257.217	38.57
257.433	13.99
257.65	-6.49
257.866	-8.53
258.082	-33.11
258.299	-55.64
258.515	18.09
258.732	-55.64
258.948	-35.16
259.165	11.95
259.381	-51.54
259.597	-29.01
259.814	-47.44
260.03	38.57
260.246	46.76
260.463	38.57
260.679	50.86
260.895	7.85
261.112	-53.59
261.328	-6.49
261.544	5.8
261.761	63.15
261.977	-2.39
262.193	-22.87
262.409	7.85
262.626	16.04
262.842	13.99
263.058	-29.01
263.274	54.95
263.49	-18.77
263.707	-6.49
263.923	38.57
264.139	54.95
264.355	34.47
264.571	42.67
264.787	-16.73
265.004	-31.06
265.22	91.82
265.436	11.95
265.652	-6.49
265.868	13.99
266.084	-22.87
266.3	24.23
266.516	95.91
266.732	71.34
266.948	9.9
267.164	-2.39
267.38	-10.58
267.596	9.9
267.812	-63.83
268.028	22.19
268.244	-41.3
268.46	-45.4
268.676	5.8
268.892	59.05
269.108	32.43
269.324	40.62
269.54	1.71
269.756	20.14
269.972	-14.68
270.188	28.33
270.403	-31.06
270.619	-45.4
270.835	-55.64
271.051	11.95
271.267	18.09
271.483	32.43
271.698	40.62
271.914	40.62
272.13	5.8
272.346	-47.44
272.562	5.8
272.777	-20.82
272.993	-51.54
273.209	22.19
273.425	-0.34
273.64	1.71
273.856	-35.16
274.072	59.05
274.287	38.57
274.503	28.33
274.719	-59.73
274.934	-24.92
275.15	-0.34
275.366	67.24
275.581	13.99
275.797	-67.92
276.012	-18.77
276.228	79.53
276.444	-16.73
276.659	38.57
276.875	5.8
277.09	32.43
277.306	59.05
277.521	-35.16
277.737	3.75
277.952	-0.34
278.168	-20.82
278.383	18.09
278.599	-14.68
278.814	-47.44
279.03	-24.92
279.245	5.8
279.461	-61.78
279.676	26.28
279.892	-72.02
280.107	-41.3
280.322	-4.44
280.538	-8.53
280.753	13.99
280.969	-12.63
281.184	61.1
281.399	18.09
281.615	-65.88
281.83	-2.39
282.045	-47.44
282.26	13.99
282.476	13.99
282.691	89.77
282.906	34.47
283.122	13.99
283.337	87.72
283.552	13.99
283.767	18.09
283.983	-39.25
284.198	54.95
284.413	11.95
284.628	-18.77
284.843	-2.39
285.058	-18.77
285.274	46.76
285.489	54.95
285.704	-2.39
285.919	-55.64
286.134	42.67
286.349	-35.16
286.564	-12.63
286.779	7.85
286.995	-12.63
287.21	-0.34
287.425	-39.25
287.64	65.19
287.855	22.19
288.07	-26.96
288.285	54.95
288.5	-53.59
288.715	28.33
288.93	-0.34
289.145	18.09
289.36	-51.54
289.575	16.04
289.79	-6.49
290.004	91.82
290.219	48.81
290.434	63.15
290.649	-10.58
290.864	-14.68
291.079	-16.73
291.294	32.43
291.509	57
291.724	16.04
291.938	30.38
292.153	32.43
292.368	-22.87
292.583	-14.68
292.798	26.28
293.012	40.62
293.227	11.95
293.442	52.91
293.657	-35.16
293.871	-12.63
294.086	-0.34
294.301	50.86
294.516	22.19
294.73	34.47
294.945	13.99
295.16	50.86
295.374	-0.34
295.589	-24.92
295.804	-0.34
296.018	5.8
296.233	32.43
296.447	-6.49
296.662	-4.44
296.877	-20.82
297.091	7.85
297.306	-31.06
297.52	-82.26
297.735	26.28
297.949	77.48
298.164	5.8
298.378	30.38
298.593	-0.34
298.807	-26.96
299.022	42.67
299.236	-6.49
299.451	28.33
299.665	-51.54
299.88	28.33
300.094	7.85
300.309	-6.49
300.523	-0.34
300.737	20.14
300.952	-31.06
301.166	22.19
301.381	-51.54
301.595	30.38
301.809	-76.12
302.024	-22.87
302.238	18.09
302.452	-24.92
302.667	1.71
302.881	13.99
303.095	-8.53
303.309	-41.3
303.524	20.14
303.738	5.8
303.952	22.19
304.166	44.71
304.381	13.99
304.595	106.15
304.809	-0.34
305.023	32.43
305.237	-47.44
305.452	-74.07
305.666	16.04
305.88	-4.44
306.094	1.71
306.308	-53.59
306.522	-16.73
306.736	18.09
306.95	-26.96
307.164	-65.88
307.379	-76.12
307.593	46.76
307.807	-26.96
308.021	1.71
308.235	-16.73
308.449	9.9
308.663	-4.44
308.877	-16.73
309.091	-14.68
309.305	75.43
309.519	24.23
309.733	-31.06
309.947	16.04
310.161	-0.34
310.374	-24.92
310.588	-45.4
310.802	-57.68
311.016	3.75
311.23	-0.34
311.444	-0.34
311.658	11.95
311.872	46.76
312.085	-84.31
312.299	-6.49
312.513	-18.77
312.727	24.23
312.941	7.85
313.154	32.43
313.368	67.24
313.582	3.75
313.796	-12.63
314.009	-72.02
314.223	9.9
314.437	16.04
314.651	42.67
314.864	13.99
315.078	-59.73
315.292	7.85
315.505	-45.4
315.719	-2.39
315.933	3.75
316.146	75.43
316.36	67.24
316.573	52.91
316.787	7.85
317.001	7.85
317.214	-33.11
317.428	-12.63
317.641	7.85
317.855	-20.82
318.068	22.19
318.282	48.81
318.495	54.95
318.709	28.33
318.922	20.14
319.136	50.86
319.349	48.81
319.563	-41.3
319.776	-4.44
319.99	28.33
320.203	-29.01
320.417	28.33
320.63	-47.44
320.843	-10.58
321.057	-72.02
321.27	79.53
321.483	-35.16
321.697	26.28
321.91	-12.63
322.124	13.99
322.337	20.14
322.55	-18.77
322.763	36.52
322.977	-24.92
323.19	22.19
323.403	-16.73
323.617	-33.11
323.83	7.85
324.043	30.38
324.256	-0.34
324.469	-16.73
324.683	-41.3
324.896	-45.4
325.109	24.23
325.322	-43.35
325.535	-2.39
325.748	26.28
325.962	28.33
326.175	-43.35
326.388	13.99
326.601	83.63
326.814	-18.77
327.027	18.09
327.24	-63.83
327.453	-43.35
327.666	3.75
327.879	26.28
328.092	71.34
328.305	-2.39
328.518	32.43
328.731	-2.39
328.944	38.57
329.157	16.04
329.37	-4.44
329.583	59.05
329.796	-49.49
330.009	-8.53
330.222	100.01
330.435	28.33
330.648	34.47
330.861	5.8
331.073	32.43
331.286	-43.35
331.499	73.39
331.712	38.57
331.925	18.09
332.138	-6.49
332.35	81.58
332.563	57
332.776	-78.16
332.989	16.04
333.202	13.99
333.414	-2.39
333.627	-2.39
333.84	13.99
334.053	-16.73
334.265	24.23
334.478	-26.96
334.691	30.38
334.903	-8.53
335.116	73.39
335.329	48.81
335.541	7.85
335.754	22.19
335.966	48.81
336.179	-6.49
336.392	-18.77
336.604	-8.53
336.817	46.76
337.029	13.99
337.242	-24.92
337.454	24.23
337.667	-24.92
337.88	-4.44
338.092	52.91
338.305	-2.39
338.517	3.75
338.729	-39.25
338.942	20.14
339.154	9.9
339.367	40.62
339.579	-47.44
339.792	28.33
340.004	-2.39
340.217	-74.07
340.429	5.8
340.641	-24.92
340.854	-8.53
341.066	110.25
341.278	22.19
341.491	77.48
341.703	1.71
341.915	18.09
342.128	40.62
342.34	-39.25
342.552	59.05
342.764	16.04
342.977	-26.96
343.189	-29.01
343.401	46.76
343.613	-76.12
343.826	-12.63
344.038	5.8
344.25	13.99
344.462	-57.68
344.674	-8.53
344.886	61.1
345.099	24.23
345.311	13.99
345.523	59.05
345.735	63.15
345.947	30.38
346.159	-29.01
346.371	50.86
346.583	-8.53
346.795	54.95
347.007	22.19
347.219	-37.2
347.431	22.19
347.643	22.19
347.855	32.43
348.067	-22.87
348.279	16.04
348.491	13.99
348.703	1.71
348.915	65.19
349.127	-35.16
349.339	22.19
349.551	-31.06
349.763	-10.58
349.975	-33.11
350.187	89.77
350.399	24.23
350.61	-12.63
350.822	50.86
351.034	3.75
351.246	-6.49
351.458	79.53
351.669	3.75
351.881	13.99
352.093	20.14
352.305	46.76
352.517	28.33
352.728	65.19
352.94	13.99
353.152	54.95
353.363	34.47
353.575	13.99
353.787	-33.11
353.999	-55.64
354.21	-14.68
354.422	-31.06
354.633	24.23
354.845	24.23
355.057	-24.92
355.268	22.19
355.48	-2.39
355.692	18.09
355.903	-39.25
356.115	13.99
356.326	-26.96
356.538	30.38
356.749	34.47
356.961	-16.73
357.172	18.09
357.384	-51.54
357.595	22.19
357.807	48.81
358.018	85.67
358.23	40.62
358.441	44.71
358.653	50.86
358.864	-18.77
359.075	18.09
359.287	-24.92
359.498	38.57
359.709	54.95
359.921	-18.77
360.132	-0.34
360.344	46.76
360.555	34.47
360.766	-37.2
360.977	11.95
361.189	18.09
361.4	-41.3
361.611	48.81
361.823	-22.87
362.034	7.85
362.245	-43.35
362.456	38.57
362.667	1.71
362.879	-0.34
363.09	-16.73
363.301	26.28
363.512	5.8
363.723	-2.39
363.935	16.04
364.146	26.28
364.357	18.09
364.568	5.8
364.779	5.8
364.99	112.3
365.201	42.67
365.412	5.8
365.623	34.47
365.834	91.82
366.045	-2.39
366.256	-16.73
366.467	116.39
366.678	-51.54
366.889	-26.96
367.1	34.47
367.311	-18.77
367.522	16.04
367.733	22.19
367.944	-57.68
368.155	9.9
368.366	22.19
368.577	7.85
368.788	30.38
368.999	38.57
369.209	-8.53
369.42	18.09
369.631	30.38
369.842	5.8
370.053	30.38
370.264	26.28
370.474	36.52
370.685	-49.49
370.896	-47.44
371.107	-8.53
371.317	-4.44
371.528	36.52
371.739	20.14
371.95	-4.44
372.16	24.23
372.371	24.23
372.582	-24.92
372.792	-16.73
373.003	-0.34
373.214	3.75
373.424	77.48
373.635	18.09
373.846	-18.77
374.056	-33.11
374.267	-49.49
374.477	-20.82
374.688	-8.53
374.898	-2.39
375.109	-29.01
375.319	63.15
375.53	22.19
375.74	16.04
375.951	65.19
376.161	-10.58
376.372	52.91
376.582	-8.53
376.793	7.85
377.003	7.85
377.214	-51.54
377.424	38.57
377.635	1.71
377.845	1.71
378.055	102.06
378.266	-6.49
378.476	11.95
378.686	-22.87
378.897	22.19
379.107	28.33
379.317	36.52
379.528	13.99
379.738	77.48
379.948	7.85
380.158	40.62
380.369	-33.11
380.579	-18.77
380.789	13.99
380.999	30.38
381.21	-2.39
381.42	42.67
381.63	1.71
381.84	16.04
382.05	57
382.261	73.39
382.471	46.76
382.681	-33.11
382.891	73.39
383.101	36.52
383.311	61.1
383.521	1.71
383.731	5.8
383.941	97.96
384.151	77.48
384.361	26.28
384.571	-14.68
384.781	97.96
384.991	63.15
385.201	26.28
385.411	11.95
385.621	77.48
385.831	30.38
386.041	11.95
386.251	1.71
386.461	1.71
386.671	40.62
386.881	38.57
387.091	65.19
387.301	13.99
387.511	-12.63
387.72	20.14
387.93	16.04
388.14	13.99
388.35	-20.82
388.56	13.99
388.769	28.33
388.979	-41.3
389.189	-33.11
389.399	71.34
389.609	-61.78
389.818	30.38
390.028	5.8
390.238	112.3
390.447	42.67
390.657	63.15
390.867	-22.87
391.076	-78.16
391.286	16.04
391.496	71.34
391.705	-26.96
391.915	71.34
392.125	16.04
392.334	85.67
392.544	128.68
392.753	48.81
392.963	-8.53
393.172	46.76
393.382	38.57
393.591	1.71
393.801	40.62
394.01	83.63
394.22	95.91
394.429	48.81
394.639	-2.39
394.848	71.34
395.058	-18.77
395.267	95.91
395.477	46.76
395.686	24.23
395.895	52.91
396.105	77.48
396.314	-18.77
396.524	52.91
396.733	54.95
396.942	104.11
397.152	-16.73
397.361	104.11
397.57	38.57
397.78	-14.68
397.989	81.58
398.198	38.57
398.407	44.71
398.617	95.91
398.826	38.57
399.035	1.71
399.244	30.38
399.453	44.71
399.663	81.58
399.872	46.76
400.081	83.63
400.29	1.71
400.499	26.28
400.708	104.11
400.917	11.95
401.127	54.95
401.336	30.38
401.545	104.11
401.754	73.39
401.963	120.49
402.172	116.39
402.381	24.23
402.59	71.34
402.799	57
403.008	67.24
403.217	69.29
403.426	-43.35
403.635	118.44
403.844	71.34
404.053	26.28
404.262	75.43
404.471	145.06
404.68	120.49
404.888	79.53
405.097	44.71
405.306	126.63
405.515	57
405.724	204.46
405.933	138.92
406.142	145.06
406.35	50.86
406.559	79.53
406.768	116.39
406.977	116.39
407.185	177.83
407.394	110.25
407.603	108.2
407.812	79.53
408.02	138.92
408.229	220.84
408.438	204.46
408.646	177.83
408.855	218.79
409.064	186.02
409.272	175.78
409.481	194.22
409.69	261.8
409.898	200.36
410.107	214.7
410.315	253.61
410.524	226.98
410.733	231.08
410.941	208.55
411.15	282.28
411.358	356.01
411.567	306.85
411.775	325.29
411.984	353.96
412.192	302.76
412.401	343.72
412.609	296.61
412.818	364.2
413.026	290.47
413.234	439.97
413.443	364.2
413.651	388.77
413.86	401.06
414.068	548.51
414.276	456.36
414.485	439.97
414.693	437.92
414.901	589.47
415.11	534.18
415.318	573.09
415.526	517.79
415.734	646.82
415.943	575.14
416.151	616.1
416.359	648.86
416.567	687.78
416.776	695.97
416.984	734.88
417.192	745.12
417.4	738.98
417.608	749.22
417.817	796.32
418.025	890.53
418.233	1029.79
418.441	855.71
418.649	954.01
418.857	1005.21
419.065	1021.6
419.273	956.06
419.481	1070.75
419.689	1089.18
419.897	1130.14
420.105	1156.76
420.313	1232.54
420.521	1367.7
420.729	1259.16
420.937	1379.99
421.145	1390.23
421.353	1492.63
421.561	1474.2
421.769	1568.4
421.977	1678.99
422.185	1662.61
422.393	1672.85
422.601	1750.67
422.809	1889.93
423.017	1765.01
423.224	1914.51
423.432	1992.33
423.64	2072.2
423.848	2119.31
424.056	2111.11
424.263	2082.44
424.471	2193.03
424.679	2410.12
424.887	2395.78
425.094	2543.24
425.302	2416.26
425.51	2696.83
425.718	2576
425.925	2606.72
426.133	2774.66
426.341	2856.58
426.548	3176.06
426.756	3108.48
426.964	3190.39
427.171	3292.79
427.379	3526.26
427.586	3546.74
427.794	3610.23
428.001	3696.24
428.209	3958.38
428.417	3784.3
428.624	3997.29
428.832	4087.4
429.039	4101.74
429.247	4142.7
429.454	4365.93
429.662	4544.1
429.869	4372.07
430.076	4793.95
430.284	4683.36
430.491	4849.25
430.699	5152.35
430.906	5207.64
431.114	5215.84
431.321	5432.92
431.528	5443.16
431.736	5942.86
431.943	6018.64
432.15	5959.25
432.358	6030.93
432.565	6364.75
432.772	6291.02
432.979	6919.75
433.187	6839.87
433.394	6897.22
433.601	7153.21
433.808	7294.52
434.016	7300.67
434.223	7470.65
434.43	7888.43
434.637	7685.69
434.844	8336.94
435.052	8549.93
435.259	8449.58
435.466	8396.33
435.673	8369.71
435.88	8801.83
436.087	9356.83
436.294	9354.78
436.501	9295.39
436.708	9459.23
436.915	9590.3
437.122	10077.71
437.329	9995.79
437.537	10403.34
437.743	10491.4
437.95	10315.28
438.157	10960.39
438.364	11597.31
438.571	11279.87
438.778	11365.89
438.985	12484.08
439.192	11939.32
439.399	12479.98
439.606	12228.08
439.813	12967.4
440.02	13487.58
440.227	13325.79
440.433	13360.61
440.64	13641.18
440.847	13514.2
441.054	13829.59
441.261	14646.73
441.467	14538.19
441.674	14861.77
441.881	15474.11
442.088	15615.42
442.294	15295.94
442.501	15680.96
442.708	15939
442.914	16559.53
443.121	17270.18
443.328	16905.64
443.534	17984.92
443.741	17536.42
443.948	17286.56
444.154	18548.11
444.361	18498.96
444.568	18707.85
444.774	18371.99
444.981	18834.83
445.187	19481.99
445.394	20225.4
445.6	19780.99
445.807	22041.95
446.013	20741.49
446.22	21353.83
446.426	22048.09
446.633	22191.45
446.839	22988.11
447.046	21998.94
447.252	22867.28
447.459	23188.81
447.665	23297.35
447.871	24337.72
448.078	25275.69
448.284	24249.66
448.491	24569.14
448.697	25453.86
448.903	26131.74
449.11	26223.9
449.316	25517.35
449.522	26051.87
449.728	27018.51
449.935	26815.76
450.141	27430.15
450.347	27536.65
450.553	26735.89
450.76	27204.88
450.966	27999.49
451.172	27557.13
451.378	28224.76
451.584	27514.12
451.791	28140.8
451.997	28550.39
452.203	28898.55
452.409	28611.83
452.615	28818.67
452.821	27823.36
453.027	27208.97
453.233	28865.78
453.44	27403.53
453.646	27585.8
453.852	27997.44
454.058	28384.51
454.264	27585.8
454.47	28294.39
454.676	27632.9
454.882	28577.01
455.088	26047.77
455.294	26238.23
455.5	26858.77
455.705	27206.92
455.911	25916.7
456.117	25163.05
456.323	25126.19
456.529	23688.51
456.735	25048.36
456.941	24151.35
457.147	24081.72
457.352	22828.37
457.558	22924.62
457.764	22549.84
457.97	22244.7
458.176	22035.8
458.381	21710.18
458.587	20864.36
458.793	20821.36
458.999	19576.19
459.204	21095.78
459.41	20424.05
459.616	18988.42
459.821	19322.24
460.027	19078.54
460.233	18793.87
460.438	17835.42
460.644	18128.28
460.85	17118.63
461.055	17081.77
461.261	16811.43
461.466	15461.82
461.672	15334.85
461.878	16178.61
462.083	15244.74
462.289	14835.14
462.494	14702.03
462.7	14204.37
462.905	13759.96
463.111	14185.94
463.316	14341.58
463.522	13790.68
463.727	14018
463.932	13970.9
464.138	13825.5
464.343	13946.33
464.549	13327.84
464.754	13989.33
464.959	13741.53
465.165	13753.82
465.37	13077.99
465.575	12680.68
465.781	13290.98
465.986	13456.86
466.191	12975.59
466.397	12711.4
466.602	12027.38
466.807	12729.83
467.012	12434.92
467.218	12422.64
467.423	12318.19
467.628	12459.5
467.833	12787.18
468.038	12283.38
468.244	12076.53
468.449	12529.13
468.654	12107.25
468.859	12084.72
469.064	11998.71
469.269	11732.47
469.474	11486.72
469.679	11730.42
469.885	11290.11
470.09	11943.41
470.295	11460.09
470.5	11357.69
470.705	11181.57
470.91	11089.41
471.115	10950.15
471.32	11271.68
471.525	11163.14
471.73	10819.08
471.935	10851.85
472.139	10497.55
472.344	10649.1
472.549	10429.96
472.754	10524.17
472.959	9944.59
473.164	10176.02
473.369	9911.83
473.574	10231.31
473.778	10253.84
473.983	10247.69
474.188	9915.92
474.393	9430.55
474.598	9498.14
474.802	9537.05
475.007	9344.54
475.212	9405.98
475.417	9117.22
475.621	8988.19
475.826	8986.15
476.031	8889.89
476.235	8703.53
476.44	9076.26
476.645	8601.13
476.849	8660.52
477.054	8478.25
477.259	8517.16
477.463	8527.4
477.668	8341.04
477.872	8406.57
478.077	8357.42
478.282	8169.01
478.486	7890.48
478.691	7896.63
478.895	7894.58
479.1	7902.77
479.304	7874.1
479.509	7607.86
479.713	7816.76
479.918	7581.24
480.122	7562.81
480.326	7663.16
480.531	7751.22
480.735	7372.35
480.94	7538.23
481.144	7759.41
481.348	7263.8
481.553	7302.72
481.757	7231.04
481.961	7544.38
482.166	7456.31
482.37	7335.48
482.574	7196.22
482.778	7388.73
482.983	7335.48
483.187	7312.96
483.391	7329.34
483.595	7317.05
483.8	7310.91
484.004	7132.73
484.208	7286.33
484.412	7319.1
484.616	7212.6
484.821	7419.45
485.025	7192.12
485.229	7468.6
485.433	7280.19
485.637	7386.68
485.841	7378.49
486.045	7300.67
486.249	7104.06
486.453	7163.45
486.657	7339.58
486.861	7349.82
487.065	7130.69
487.269	7226.94
487.473	7145.02
487.677	7419.45
487.881	7558.71
488.085	7278.14
488.289	7441.98
488.493	7243.32
488.697	7544.38
488.901	7444.03
489.105	7231.04
489.309	7239.23
489.512	7519.8
489.716	7200.32
489.92	7323.19
490.124	7386.68
490.328	7456.31
490.531	7435.83
490.735	7448.12
490.939	7446.07
491.143	7364.15
491.346	7382.59
491.55	7511.61
491.754	7478.84
491.958	7564.86
492.161	7734.84
492.365	7720.5
492.569	7638.58
492.772	7614.01
492.976	7796.28
493.18	7763.51
493.383	8023.6
493.587	7863.86
493.79	7956.02
493.994	8078.9
494.197	8054.32
494.401	8216.11
494.605	8064.56
494.808	8400.43
495.012	8277.55
495.215	8242.73
495.419	8322.6
495.622	8429.1
495.825	8529.45
496.029	8543.78
496.232	8799.78
496.436	8654.37
496.639	8914.47
496.843	8930.85
497.046	9006.63
497.249	9342.49
497.453	9192.99
497.656	9195.04
497.859	9266.72
498.063	9473.56
498.266	9657.88
498.469	9674.26
498.673	9629.21
498.876	9739.8
499.079	9983.51
499.282	9885.2
499.485	10360.33
499.689	10216.97
499.892	10212.88
500.095	10540.55
500.298	10681.86
500.501	10569.23
500.705	11134.46
500.908	10831.37
501.111	11032.07
501.314	11243.01
501.517	11288.06
501.72	11572.73
501.923	11480.57
502.126	11560.44
502.329	11716.09
502.532	11849.21
502.735	11834.87
502.938	12436.97
503.141	12570.09
503.344	12545.52
503.547	12742.12
503.75	12699.11
503.953	13131.23
504.156	13133.28
504.359	13315.55
504.562	13530.59
504.765	13716.95
504.968	13852.12
505.17	13776.34
505.373	13915.61
505.576	14259.67
505.779	14521.81
505.982	14620.11
506.185	14792.14
506.387	14955.97
506.59	14771.66
506.793	15082.95
506.996	15226.31
507.198	15809.98
507.401	15658.43
507.604	15791.55
507.807	16178.61
508.009	16160.18
508.212	16219.57
508.415	16977.32
508.617	16897.45
508.82	17196.45
509.022	17014.18
509.225	17569.18
509.428	17630.62
509.63	17624.48
509.833	17954.2
510.035	18269.59
510.238	18032.02
510.44	18781.58
510.643	18757
510.845	19021.19
511.048	18904.46
511.25	19510.66
511.453	19451.27
511.655	20043.13
511.858	19832.19
512.06	20200.82
512.262	20422
512.465	20409.72
512.667	20915.56
512.87	20936.04
513.072	21171.56
513.274	21499.23
513.477	21626.21
513.679	22009.18
513.881	21904.73
514.084	22283.61
514.286	22519.12
514.488	22781.26
514.69	23459.14
514.893	23260.49
515.095	23516.48
515.297	24075.58
515.499	24036.67
515.701	24266.04
515.904	24610.1
516.106	24745.27
516.308	25050.41
516.51	25494.82
516.712	25326.89
516.914	25601.32
517.116	26035.49
517.318	26311.96
517.52	26555.67
517.722	26498.33
517.925	26883.34
518.127	26948.88
518.329	27256.07
518.531	27315.47
518.733	28085.5
518.935	28341.5
519.136	28206.33
519.338	28716.28
519.54	28775.67
519.742	29369.58
519.944	29162.73
520.146	30020.83
520.348	30006.5
520.55	30375.13
520.752	30663.89
520.954	30758.1
521.155	30602.46
521.357	31003.86
521.559	31655.11
521.761	31929.54
521.963	31886.53
522.164	32109.76
522.366	32339.13
522.568	32646.33
522.77	32699.58
522.971	33430.7
523.173	33129.65
523.375	33369.26
523.576	33461.42
523.778	33727.66
523.98	34288.8
524.181	34438.3
524.383	34419.87
524.584	34581.66
524.786	34874.52
524.988	35132.56
525.189	35439.76
525.391	35333.26
525.592	35630.22
525.794	35892.36
525.995	36277.38
526.197	36033.67
526.398	35853.45
526.6	36183.17
526.801	36914.3
527.003	36760.7
527.204	36742.27
527.406	37065.85
527.607	37006.45
527.808	37604.46
528.01	36850.81
528.211	37244.02
528.412	38161.51
528.614	37885.03
528.815	38327.39
529.016	38421.6
529.218	38032.49
529.419	38468.7
529.62	38413.41
529.822	38196.32
530.023	38419.55
530.224	38227.04
530.425	38339.68
530.626	38515.81
530.828	38368.35
531.029	39504.98
531.23	38876.25
531.431	39023.7
531.632	39281.75
531.833	39187.54
532.035	38956.12
532.236	39357.52
532.437	39386.19
532.638	39400.53
532.839	39451.73
533.04	39720.01
533.241	39158.87
533.442	39820.36
533.643	39480.4
533.844	39521.36
534.045	39672.91
534.246	39175.25
534.447	39832.65
534.648	39521.36
534.849	39599.18
535.05	39619.66
535.251	39777.36
535.451	39849.03
535.652	39894.09
535.853	39597.13
536.054	40219.72
536.255	39945.29
536.456	39650.38
536.657	40014.92
536.857	39668.81
537.058	39783.5
537.259	40592.45
537.46	39765.07
537.66	39687.25
537.861	40043.59
538.062	39830.6
538.263	40039.5
538.463	39883.85
538.664	39345.23
538.865	40051.78
539.065	40391.75
539.266	40066.12
539.466	40150.09
539.667	39445.58
539.868	40115.27
540.068	40092.74
540.269	39863.37
540.469	40221.76
540.67	39806.03
540.87	39689.29
541.071	40084.55
541.271	39988.3
541.472	40092.74
541.672	40019.02
541.873	39631.95
542.073	39318.61
542.274	40508.48
542.474	39748.68
542.675	39701.58
542.875	40238.15
543.075	39980.1
543.276	39810.12
543.476	40055.88
543.676	39992.39
543.877	40055.88
544.077	39726.16
544.277	40133.7
544.478	39758.92
544.678	39806.03
544.878	39824.46
545.078	40115.27
545.279	39775.31
545.479	39527.5
545.679	39969.86
545.879	39924.81
546.079	39629.9
546.28	39922.76
546.48	39613.52
546.68	40051.78
546.88	39803.98
547.08	40145.99
547.28	40023.11
547.48	39525.46
547.68	39722.06
547.88	39859.27
548.081	40133.7
548.281	39705.68
548.481	39703.63
548.681	40131.65
548.881	40088.65
549.081	39693.39
549.28	39668.81
549.48	40111.17
549.68	39939.15
549.88	39865.42
550.08	39986.25
550.28	40125.51
550.48	39484.5
550.68	39969.86
550.88	39543.89
551.08	39908.43
551.279	39828.55
551.479	39547.98
551.679	39992.39
551.879	39834.7
552.079	39724.11
552.278	39617.61
552.478	39640.14
552.678	39933
552.878	39732.3
553.077	39781.45
553.277	39707.72
553.477	39894.09
553.676	39638.09
553.876	39386.19
554.076	39029.85
554.275	39418.96
554.475	38841.43
554.674	39601.23
554.874	39269.46
555.074	39543.89
555.273	39083.09
555.473	39521.36
555.672	39140.44
555.872	39156.82
556.071	39142.49
556.271	39484.5
556.47	38755.42
556.67	39058.52
556.869	38806.62
557.068	39341.14
557.268	38898.78
557.467	39216.21
557.667	38937.69
557.866	39199.83
558.065	38851.67
558.265	38831.19
558.464	38775.9
558.663	38747.23
558.863	38456.42
559.062	39087.19
559.261	38245.48
559.461	38978.65
559.66	38710.36
559.859	38548.57
560.058	38030.44
560.258	38376.55
560.457	38251.62
560.656	38040.68
560.855	38126.69
561.054	38388.83
561.253	37948.52
561.453	38319.2
561.652	38241.38
561.851	37860.46
562.05	37739.63
562.249	37330.03
562.448	37923.94
562.647	37837.93
562.846	37463.15
563.045	37395.57
563.244	37055.61
563.443	37581.93
563.642	37221.49
563.841	37241.97
564.04	37076.08
564.239	37438.58
564.438	37133.43
564.637	37182.58
564.836	37153.91
565.035	36785.27
565.234	36971.64
565.432	36582.52
565.631	36310.14
565.83	37143.67
566.029	36732.03
566.228	36603
566.427	36582.52
566.625	36551.8
566.824	36111.49
567.023	36504.7
567.222	36052.1
567.42	36508.8
567.619	36209.79
567.818	35796.1
568.016	36232.32
568.215	35865.74
568.414	35490.96
568.612	36291.71
568.811	35820.68
569.01	35789.96
569.208	35384.46
569.407	35851.4
569.605	35327.12
569.804	35261.58
570.002	35386.51
570.201	35345.55
570.4	35196.05
570.598	34868.37
570.797	34993.3
570.995	35058.84
571.193	34309.28
571.392	34591.9
571.59	34698.39
571.789	34313.38
571.987	34464.92
572.186	34086.05
572.384	34292.9
572.582	34112.67
572.781	34413.73
572.979	33639.59
573.177	33907.88
573.376	33883.3
573.574	33572.01
573.772	33805.48
573.971	33719.46
574.169	33223.86
574.367	33227.95
574.565	33338.54
574.763	33565.87
574.962	33141.94
575.16	32928.95
575.358	33103.03
575.556	32638.14
575.754	33006.77
575.952	32156.86
576.151	32887.99
576.349	32236.73
576.547	32324.8
576.745	32347.33
576.943	32380.09
577.141	32113.86
577.339	32287.93
577.537	31792.33
577.735	32314.56
577.933	31667.4
578.131	32183.49
578.329	31864
578.527	31290.57
578.725	31417.55
578.923	31319.24
579.121	31319.24
579.319	31343.82
579.516	31485.13
579.714	31143.12
579.912	31014.1
580.11	30903.51
580.308	30901.46
580.506	30729.43
580.704	30452.95
580.901	30702.81
581.099	30774.49
581.297	30164.19
581.495	30291.16
581.692	30383.32
581.89	30010.59
582.088	30205.15
582.285	30131.42
582.483	29822.18
582.681	30125.28
582.878	29861.09
583.076	29242.6
583.274	29848.8
583.471	29119.73
583.669	29441.26
583.866	29269.23
584.064	29480.17
584.262	29076.72
584.459	29232.36
584.657	28912.88
584.854	28935.41
585.052	28785.91
585.249	28904.69
585.447	28902.64
585.644	28472.57
585.841	28822.77
586.039	28724.47
586.236	28386.55
586.434	28243.2
586.631	28189.95
586.828	28198.14
587.026	28232.96
587.223	28247.29
587.42	27598.09
587.618	27968.77
587.815	27774.21
588.012	27315.47
588.21	27479.3
588.407	27895.04
588.604	27524.36
588.801	27294.99
588.999	27528.45
589.196	27524.36
589.393	27241.74
589.59	26871.06
589.787	27061.52
589.984	26723.6
590.182	26496.28
590.379	26793.23
590.576	26602.77
590.773	26705.17
590.97	26494.23
591.167	26418.46
591.364	26504.47
591.561	26369.3
591.758	26244.38
591.955	26195.23
592.152	26125.6
592.349	26160.41
592.546	25928.99
592.743	25941.28
592.94	25621.8
593.137	25576.74
593.334	25759.01
593.531	25384.23
593.727	25785.63
593.924	25806.11
594.121	25013.55
594.318	25220.39
594.515	25091.37
594.712	25460.01
594.908	24952.11
595.105	25087.28
595.302	24962.35
595.499	24984.88
595.696	24943.92
595.892	24552.76
596.089	24804.66
596.286	24689.97
596.482	24462.65
596.679	24653.11
596.876	24456.5
597.072	24440.12
597.269	24395.06
597.466	23926.08
597.662	24065.34
597.859	24368.44
598.055	24139.07
598.252	23831.87
598.448	24042.81
598.645	23764.29
598.841	23440.71
599.038	23670.08
599.234	23708.99
599.431	23246.15
599.627	23217.48
599.824	23424.33
600.02	23307.59
600.217	23037.26
600.413	22984.01
600.609	22912.33
600.806	23020.88
601.002	23203.14
601.198	22652.24
601.395	22822.22
601.591	22713.68
601.787	22820.17
601.984	22418.77
602.18	22568.27
602.376	22515.03
602.572	22502.74
602.769	22377.81
602.965	22068.57
603.161	22127.96
603.357	21933.4
603.553	22134.1
603.75	21955.93
603.946	21648.74
604.142	21953.88
604.338	21767.52
604.534	21914.97
604.73	21710.18
604.926	21464.42
605.122	21493.09
605.318	21187.94
605.514	20913.52
605.71	21071.21
605.906	21124.46
606.102	21151.08
606.298	21060.97
606.494	20862.32
606.69	21130.6
606.886	21063.02
607.082	20591.98
607.278	20747.63
607.474	20555.12
607.67	20557.17
607.866	20510.07
608.062	20686.19
608.257	20438.39
608.453	20362.61
608.649	20356.47
608.845	20108.66
609.041	20305.27
609.236	20385.14
609.432	19944.83
609.628	20235.64
609.824	19944.83
610.019	19854.72
610.215	19903.87
610.411	20194.68
610.606	19891.58
610.802	20055.42
610.998	19766.65
611.193	19912.06
611.389	19631.49
611.584	19570.05
611.78	19447.17
611.976	19494.27
612.171	19350.92
612.367	19477.89
612.562	19275.14
612.758	19035.53
612.953	19082.63
613.149	19285.38
613.344	19015.05
613.539	19559.81
613.735	19377.54
613.93	19019.14
614.126	18926.99
614.321	19039.62
614.517	18963.85
614.712	18722.19
614.907	18599.31
615.103	18621.84
615.298	18580.88
615.493	18793.87
615.688	18474.38
615.884	18679.18
616.079	18245.01
616.274	18656.65
616.47	18288.02
616.665	18734.48
616.86	18347.41
617.055	18238.87
617.25	18093.46
617.445	18068.89
617.641	17903
617.836	18195.86
618.031	17808.79
618.226	17659.29
618.421	17735.07
618.616	17624.48
618.811	17661.34
619.006	17827.23
619.201	17171.88
619.396	17407.39
619.591	17188.26
619.786	17577.37
619.981	17087.91
620.176	17169.83
620.371	17053.09
620.566	17016.23
620.761	17010.09
620.956	17186.21
621.151	16780.71
621.346	16893.35
621.541	16446.9
621.735	16836.01
621.93	16092.6
622.125	16403.89
622.32	16315.83
622.515	16410.03
622.709	15926.71
622.904	16199.09
623.099	16049.59
623.294	15988.15
623.488	15680.96
623.683	15920.57
623.878	15603.13
624.072	15697.34
624.267	15519.17
624.462	15510.97
624.656	15381.95
624.851	15584.7
625.046	15070.66
625.24	15021.51
625.435	14988.74
625.629	15050.18
625.824	14990.79
626.018	14642.64
626.213	14702.03
626.407	14409.17
626.602	14400.97
626.796	14753.23
626.991	14321.1
627.185	14269.9
627.38	14196.18
627.574	14065.11
627.768	14130.64
627.963	14130.64
628.157	13798.87
628.352	13882.84
628.546	13673.95
628.74	13866.46
628.935	13624.79
629.129	13639.13
629.323	13503.96
629.517	13387.23
629.712	13264.35
629.906	13370.85
630.1	12983.78
630.294	13270.5
630.489	13309.41
630.683	13190.63
630.877	12895.72
631.071	12572.14
631.265	12809.7
631.459	12662.25
631.653	12703.21
631.848	12365.29
632.042	12576.23
632.236	12572.14
632.43	12537.32
632.624	12271.09
632.818	12365.29
633.012	12168.69
633.206	12021.24
633.4	12289.52
633.594	11945.46
633.788	11963.89
633.982	11855.35
634.176	11853.3
634.369	11922.93
634.563	11863.54
634.757	11990.52
634.951	11607.55
635.145	11658.74
635.339	11709.94
635.533	11515.39
635.726	11554.3
635.92	11365.89
636.114	11165.18
636.308	11230.72
636.501	11200
636.695	11056.64
636.889	10956.29
637.083	10909.19
637.276	10927.62
637.47	11025.92
637.664	10821.13
637.857	10901
638.051	10829.32
638.244	10434.06
638.438	10681.86
638.632	10401.29
638.825	10362.38
639.019	10513.93
639.212	10427.92
639.406	10354.19
639.599	10272.27
639.793	10323.47
639.986	10216.97
640.18	10188.3
640.373	10106.38
640.567	9917.97
640.76	9801.24
640.954	9813.52
641.147	9848.34
641.34	9571.86
641.534	9756.18
641.727	9592.34
641.92	9801.24
642.114	9448.99
642.307	9575.96
642.5	9532.95
642.694	9246.24
642.887	9371.16
643.08	9309.72
643.273	9145.89
643.467	9141.79
643.66	9006.63
643.853	8922.66
644.046	9020.96
644.239	9018.91
644.432	8996.39
644.626	8787.49
644.819	8836.64
645.012	8785.44
645.205	8865.32
645.398	8621.61
645.591	8496.68
645.784	8496.68
645.977	8439.34
646.17	8498.73
646.363	8232.49
646.556	8230.45
646.749	8160.81
646.942	8336.94
647.135	8091.18
647.328	8300.08
647.521	8199.73
647.714	7953.97
647.907	8142.38
648.099	8058.42
648.292	7978.54
648.485	7986.74
648.678	7970.35
648.871	7921.2
649.064	7665.21
649.256	7652.92
649.449	7603.77
649.642	7577.14
649.835	7405.11
650.027	7607.86
650.22	7351.87
650.413	7249.47
650.605	7259.71
650.798	7224.89
650.991	7218.75
651.183	7403.07
651.376	7118.4
651.568	7190.08
651.761	7337.53
651.954	7024.19
652.146	7255.61
652.339	7077.44
652.531	7036.48
652.724	7007.81
652.916	6692.42
653.109	6823.49
653.301	6862.4
653.494	6760
653.686	6721.09
653.879	6714.95
654.071	6567.49
654.263	6561.35
654.456	6563.4
654.648	6600.26
654.84	6506.06
655.033	6553.16
655.225	6590.02
655.417	6282.83
655.61	6303.31
655.802	6506.06
655.994	6374.99
656.186	6299.21
656.379	6176.33
656.571	6370.89
656.763	6110.8
656.955	6237.77
657.148	6104.65
657.34	6065.74
657.532	5942.86
657.724	5940.82
657.916	5998.16
658.108	5944.91
658.3	5815.89
658.492	5897.81
658.684	5768.79
658.876	5588.57
659.068	5772.88
659.26	5492.31
659.452	5670.48
659.644	5482.07
659.836	5543.51
660.028	5480.02
660.22	5510.74
660.412	5523.03
660.604	5484.12
660.796	5387.86
660.988	5469.78
661.18	5197.4
661.372	5129.82
661.563	5289.56
661.755	5250.65
661.947	5236.31
662.139	5228.12
662.331	5203.55
662.522	5135.96
662.714	5162.59
662.906	4875.87
663.097	4992.61
663.289	5084.77
663.481	4841.06
663.673	4939.36
663.864	4871.78
664.056	4752.99
664.247	4888.16
664.439	4834.91
664.631	4720.23
664.822	4793.95
665.014	4736.61
665.205	4724.32
665.397	4736.61
665.588	4540.01
665.78	4583.01
665.971	4669.03
666.163	4619.88
666.354	4488.81
666.546	4472.42
666.737	4372.07
666.929	4453.99
667.12	4392.55
667.311	4433.51
667.503	4392.55
667.694	4410.98
667.885	4261.48
668.077	4302.44
668.268	4275.82
668.459	4255.34
668.651	4226.67
668.842	4085.36
669.033	4279.91
669.224	4259.43
669.416	4165.23
669.607	4101.74
669.798	4013.68
669.989	4116.08
670.18	4144.75
670.371	4032.11
670.563	3917.42
670.754	3882.61
670.945	3927.66
671.136	3815.02
671.327	3946.09
671.518	3855.98
671.709	3946.09
671.9	3843.7
672.091	3882.61
672.282	3835.5
672.473	3812.98
672.664	3878.51
672.855	3825.26
673.046	3853.94
673.237	3751.54
673.428	3618.42
673.619	3765.87
673.809	3776.11
674	3565.17
674.191	3751.54
674.382	3579.51
674.573	3614.32
674.764	3487.35
674.954	3540.6
675.145	3458.68
675.336	3487.35
675.527	3520.12
675.717	3481.21
675.908	3501.69
676.099	3440.25
676.289	3358.33
676.48	3460.73
676.671	3305.08
676.861	3378.81
677.052	3501.69
677.243	3358.33
677.433	3378.81
677.624	3397.24
677.814	3391.09
678.005	3300.98
678.195	3198.59
678.386	3194.49
678.576	3333.75
678.767	3255.93
678.957	3196.54
679.148	3243.64
679.338	3167.87
679.529	3176.06
679.719	3243.64
679.909	3090.04
680.1	3092.09
680.29	3075.71
680.481	3088
680.671	3098.24
680.861	2981.5
681.052	3120.76
681.242	2973.31
681.432	3147.39
681.622	2877.05
681.813	3102.33
682.003	2922.11
682.193	2877.05
682.383	2971.26
682.573	3108.48
682.764	2956.93
682.954	2981.5
683.144	3034.75
683.334	3075.71
683.524	3051.13
683.714	2879.1
683.904	2899.58
684.094	3030.65
684.284	2872.96
684.474	2750.08
684.664	2872.96
684.854	2799.23
685.044	2850.43
685.234	2860.67
685.424	2981.5
685.614	2971.26
685.804	2905.73
685.994	2793.09
686.184	2832
686.374	2793.09
686.564	2801.28
686.753	2815.62
686.943	2705.03
687.133	2707.07
687.323	2700.93
687.513	2608.77
687.702	2770.56
687.892	2627.2
688.082	2676.35
688.272	2659.97
688.461	2649.73
688.651	2619.01
688.841	2737.79
689.03	2635.39
689.22	2662.02
689.41	2698.88
689.599	2559.62
689.789	2680.45
689.979	2743.94
690.168	2676.35
690.358	2582.15
690.547	2645.63
690.737	2768.51
690.926	2680.45
691.116	2539.14
691.305	2606.72
691.495	2565.76
691.684	2541.19
691.874	2655.87
692.063	2569.86
692.252	2610.82
692.442	2535.04
692.631	2481.8
692.82	2512.52
693.01	2547.33
693.199	2602.63
693.388	2506.37
693.578	2461.32
693.767	2672.26
693.956	2510.47
694.146	2408.07
694.335	2659.97
694.524	2612.87
694.713	2487.94
694.902	2657.92
695.092	2518.66
695.281	2422.41
695.47	2424.45
695.659	2506.37
695.848	2512.52
696.037	2637.44
696.226	2549.38
696.415	2483.84
696.604	2496.13
696.793	2453.13
696.982	2553.48
697.171	2547.33
697.36	2528.9
697.549	2563.72
697.738	2387.59
697.927	2604.67
698.116	2580.1
698.305	2395.78
698.494	2416.26
698.683	2512.52
698.872	2524.8
699.061	2518.66
699.25	2461.32
699.438	2418.31
699.627	2434.69
699.816	2533
700.005	2492.04
700.193	2526.85
700.382	2399.88
700.571	2438.79
700.76	2477.7
700.948	2520.71
701.137	2479.75
701.326	2543.24
701.514	2500.23
701.703	2428.55
701.892	2416.26
702.08	2512.52
702.269	2379.4
702.457	2430.6
702.646	2377.35
702.834	2377.35
703.023	2311.82
703.212	2487.94
703.4	2385.54
703.589	2352.77
703.777	2379.4
703.965	2317.96
704.154	2358.92
704.342	2330.25
704.531	2406.02
704.719	2193.03
704.907	2393.73
705.096	2414.21
705.284	2299.53
705.472	2291.34
705.661	2320.01
705.849	2315.91
706.037	2324.1
706.226	2277
706.414	2449.03
706.602	2176.65
706.79	2438.79
706.979	2211.46
707.167	2266.76
707.355	2233.99
707.543	2174.6
707.731	2309.77
707.919	2233.99
708.107	2219.66
708.296	2213.51
708.484	2201.23
708.672	2164.36
708.86	2301.58
709.048	2283.14
709.236	2264.71
709.424	2299.53
709.612	2205.32
709.8	2102.92
709.988	2059.92
710.176	2090.63
710.364	2121.35
710.551	2248.33
710.739	2145.93
710.927	2258.57
711.115	2072.2
711.303	2145.93
711.491	2221.7
711.679	2059.92
711.866	2156.17
712.054	2059.92
712.242	2021
712.43	2131.59
712.617	2127.5
712.805	1990.28
712.993	1947.28
713.181	1986.19
713.368	1996.43
713.556	1980.04
713.744	1937.04
713.931	2006.67
714.119	1894.03
714.306	2043.53
714.494	1951.37
714.682	1969.8
714.869	1889.93
715.057	2018.96
715.244	1826.45
715.432	1898.13
715.619	1865.36
715.807	1832.59
715.994	1900.17
716.182	1816.21
716.369	1939.09
716.556	1998.48
716.744	1918.61
716.931	1842.83
717.119	1859.21
717.306	1855.12
717.493	1760.91
717.681	1810.06
717.868	1791.63
718.055	1914.51
718.242	1719.95
718.43	1865.36
718.617	1908.37
718.804	1859.21
718.991	1799.82
719.179	1709.71
719.366	1779.34
719.553	1787.54
719.74	1726.1
719.927	1851.02
720.114	1779.34
720.301	1678.99
720.488	1678.99
720.676	1662.61
720.863	1726.1
721.05	1744.53
721.237	1668.75
721.424	1742.48
721.611	1654.42
721.798	1758.86
721.985	1713.81
722.172	1595.03
722.358	1611.41
722.545	1705.62
722.732	1642.13
722.919	1762.96
723.106	1525.4
723.293	1642.13
723.48	1549.97
723.667	1547.92
723.853	1461.91
724.04	1578.64
724.227	1642.13
724.414	1590.93
724.6	1480.34
724.787	1490.58
724.974	1570.45
725.161	1416.85
725.347	1496.72
725.534	1535.64
725.72	1492.63
725.907	1611.41
726.094	1558.16
726.28	1433.24
726.467	1470.1
726.653	1410.71
726.84	1457.81
727.027	1513.11
727.213	1453.72
727.4	1453.72
727.586	1443.48
727.773	1373.85
727.959	1416.85
728.145	1461.91
728.332	1412.76
728.518	1410.71
728.705	1488.53
728.891	1390.23
729.077	1388.18
729.264	1437.33
729.45	1433.24
729.636	1402.52
729.823	1359.51
730.009	1316.5
730.195	1384.09
730.382	1418.9
730.568	1285.78
730.754	1369.75
730.94	1398.42
731.126	1394.33
731.313	1296.02
731.499	1404.57
731.685	1310.36
731.871	1343.13
732.057	1351.32
732.243	1355.41
732.429	1336.98
732.615	1310.36
732.801	1263.26
732.987	1314.45
733.173	1298.07
733.359	1293.97
733.545	1273.5
733.731	1293.97
733.917	1197.72
734.103	1236.63
734.289	1253.02
734.475	1242.78
734.661	1201.82
734.847	1152.67
735.033	1291.93
735.219	1187.48
735.404	1158.81
735.59	1134.23
735.776	1203.86
735.962	1242.78
736.148	1177.24
736.333	1236.63
736.519	1156.76
736.705	1197.72
736.89	1097.37
737.076	1132.19
737.262	1138.33
737.447	1134.23
737.633	1195.67
737.819	1128.09
738.004	1158.81
738.19	1044.12
738.375	1111.71
738.561	1175.19
738.747	1156.76
738.932	1203.86
739.118	1146.52
739.303	1152.67
739.489	1130.14
739.674	1056.41
739.859	1017.5
740.045	1089.18
740.23	1013.4
740.416	1040.03
740.601	1058.46
740.786	1066.65
740.972	1085.08
741.157	1040.03
741.342	1099.42
741.528	1031.83
741.713	1152.67
741.898	997.02
742.084	1001.12
742.269	1064.6
742.454	1101.47
742.639	994.97
742.824	966.3
743.01	1054.36
743.195	1005.21
743.38	1083.03
743.565	947.87
743.75	1011.36
743.935	1029.79
744.12	947.87
744.305	990.88
744.49	968.35
744.675	1035.93
744.86	947.87
745.045	997.02
745.23	880.29
745.415	939.68
745.6	964.25
745.785	884.38
745.97	898.72
746.155	908.96
746.34	994.97
746.525	843.42
746.71	853.66
746.895	870.05
747.079	923.29
747.264	904.86
747.449	929.44
747.634	892.57
747.819	908.96
748.003	798.37
748.188	818.85
748.373	884.38
748.557	755.36
748.742	831.13
748.927	849.57
749.111	824.99
749.296	845.47
749.481	822.94
749.665	796.32
749.85	743.07
750.034	878.24
750.219	749.22
750.404	779.93
750.588	761.5
750.773	777.89
750.957	816.8
751.141	775.84
751.326	784.03
751.51	753.31
751.695	702.11
751.879	755.36
752.064	718.5
752.248	767.65
752.432	841.37
752.617	874.14
752.801	814.75
752.985	757.41
753.17	745.12
753.354	718.5
753.538	714.4
753.722	679.58
753.907	657.06
754.091	695.97
754.275	706.21
754.459	708.26
754.643	673.44
754.828	657.06
755.012	665.25
755.196	671.39
755.38	579.23
755.564	689.82
755.748	665.25
755.932	652.96
756.116	640.67
756.3	607.91
756.484	618.15
756.668	603.81
756.852	632.48
757.036	677.54
757.22	640.67
757.404	673.44
757.588	632.48
757.772	665.25
757.956	568.99
758.14	614.05
758.323	568.99
758.507	579.23
758.691	536.23
758.875	525.99
759.059	663.2
759.242	544.42
759.426	519.84
759.61	528.03
759.794	669.34
759.977	581.28
760.161	581.28
760.345	579.23
760.528	593.57
760.712	542.37
760.895	521.89
761.079	587.43
761.263	448.16
761.446	587.43
761.63	589.47
761.813	519.84
761.997	550.56
762.18	640.67
762.364	577.19
762.547	437.92
762.731	472.74
762.914	528.03
763.098	482.98
763.281	597.67
763.464	525.99
763.648	462.5
763.831	464.55
764.015	532.13
764.198	521.89
764.381	583.33
764.564	499.36
764.748	493.22
764.931	499.36
765.114	509.6
765.297	562.85
765.481	474.79
765.664	513.7
765.847	562.85
766.03	540.32
766.213	482.98
766.397	429.73
766.58	497.32
766.763	462.5
766.946	452.26
767.129	458.4
767.312	442.02
767.495	493.22
767.678	448.16
767.861	462.5
768.044	505.51
768.227	466.6
768.41	439.97
768.593	468.64
768.776	370.34
768.959	548.51
769.142	485.03
769.324	433.83
769.507	437.92
769.69	460.45
769.873	380.58
770.056	390.82
770.239	433.83
770.421	464.55
770.604	435.88
770.787	386.72
770.97	409.25
771.152	499.36
771.335	450.21
771.518	456.36
771.7	421.54
771.883	450.21
772.066	448.16
772.248	368.29
772.431	411.3
772.613	407.2
772.796	450.21
772.978	439.97
773.161	507.55
773.343	427.68
773.526	366.25
773.708	347.81
773.891	433.83
774.073	437.92
774.256	433.83
774.438	376.48
774.621	362.15
774.803	382.63
774.985	388.77
775.168	452.26
775.35	433.83
775.532	356.01
775.715	351.91
775.897	362.15
776.079	429.73
776.261	454.31
776.444	444.07
776.626	433.83
776.808	378.53
776.99	308.9
777.173	419.49
777.355	386.72
777.537	294.57
777.719	323.24
777.901	325.29
778.083	370.34
778.265	407.2
778.447	396.96
778.629	349.86
778.811	378.53
778.993	356.01
779.175	390.82
779.357	394.92
779.539	302.76
779.721	329.38
779.903	343.72
780.085	343.72
780.267	302.76
780.449	284.33
780.631	341.67
780.812	284.33
780.994	366.25
781.176	267.94
781.358	292.52
781.54	237.22
781.721	296.61
781.903	267.94
782.085	241.32
782.267	290.47
782.448	396.96
782.63	366.25
782.812	247.46
782.993	233.13
783.175	360.1
783.357	255.65
783.538	272.04
783.72	292.52
783.901	247.46
784.083	265.89
784.264	313
784.446	212.65
784.627	325.29
784.809	255.65
784.99	231.08
785.172	274.09
785.353	194.22
785.535	249.51
785.716	212.65
785.897	177.83
786.079	286.37
786.26	235.18
786.441	276.13
786.623	214.7
786.804	202.41
786.985	167.59
787.167	255.65
787.348	239.27
787.529	231.08
787.71	169.64
787.891	233.13
788.073	194.22
788.254	183.98
788.435	231.08
788.616	212.65
788.797	181.93
788.978	188.07
789.159	226.98
789.34	167.59
789.522	280.23
789.703	194.22
789.884	261.8
790.065	229.03
790.246	149.16
790.427	241.32
790.607	218.79
790.788	220.84
790.969	157.35
791.15	181.93
791.331	153.26
791.512	198.31
791.693	202.41
791.874	140.97
792.054	204.46
792.235	138.92
792.416	157.35
792.597	145.06
792.778	202.41
792.958	140.97
793.139	143.02
793.32	169.64
793.5	145.06
793.681	218.79
793.862	173.74
794.042	104.11
794.223	155.3
794.404	155.3
794.584	95.91
794.765	116.39
794.945	122.54
795.126	104.11
795.306	202.41
795.487	153.26
795.667	183.98
795.848	136.87
796.028	130.73
796.209	163.5
796.389	143.02
796.57	122.54
796.75	159.4
796.93	42.67
797.111	59.05
797.291	106.15
797.471	149.16
797.652	143.02
797.832	145.06
798.012	147.11
798.192	138.92
798.373	122.54
798.553	153.26
798.733	138.92
798.913	104.11
799.093	151.21
799.274	134.82
799.454	79.53
799.634	138.92
799.814	155.3
799.994	75.43
800.174	126.63
800.354	71.34
800.534	120.49
800.714	161.45
800.894	124.58
801.074	87.72
801.254	91.82
801.434	124.58
801.614	69.29
801.794	67.24
801.974	382.63
802.154	147.11
802.334	104.11
802.514	46.76
802.693	102.06
802.873	169.64
803.053	65.19
803.233	118.44
803.413	61.1
803.592	32.43
803.772	155.3
803.952	151.21
804.131	128.68
804.311	97.96
804.491	81.58
804.67	110.25
804.85	122.54
805.03	85.67
805.209	40.62
805.389	95.91
805.568	87.72
805.748	93.87
805.928	104.11
806.107	132.78
806.287	104.11
806.466	108.2
806.646	104.11
806.825	65.19
807.004	87.72
807.184	179.88
807.363	83.63
807.543	36.52
807.722	110.25
807.901	132.78
808.081	77.48
808.26	95.91
808.439	145.06
808.619	106.15
808.798	61.1
808.977	5.8
809.156	112.3
809.336	59.05
809.515	69.29
809.694	91.82
809.873	52.91
810.052	134.82
810.231	104.11
810.411	120.49
810.59	79.53
810.769	65.19
810.948	67.24
811.127	67.24
811.306	106.15
811.485	102.06
811.664	71.34
811.843	67.24
812.022	79.53
812.201	-33.11
812.38	108.2
812.559	69.29
812.737	120.49
812.916	79.53
813.095	106.15
813.274	28.33
813.453	79.53
813.632	22.19
813.811	106.15
813.989	32.43
814.168	63.15
814.347	71.34
814.526	71.34
814.704	69.29
814.883	91.82
815.062	16.04
815.24	-4.44
815.419	44.71
815.598	50.86
815.776	54.95
815.955	97.96
816.133	-10.58
816.312	79.53
816.49	1.71
816.669	114.34
816.847	38.57
817.026	26.28
817.204	-8.53
817.383	67.24
817.561	91.82
817.74	26.28
817.918	71.34
818.097	87.72
818.275	50.86
818.453	108.2
818.632	54.95
818.81	59.05
818.988	87.72
819.167	40.62
819.345	44.71
819.523	32.43
819.701	59.05
819.879	108.2
820.058	65.19
820.236	73.39
820.414	44.71
820.592	59.05
820.77	44.71
820.948	13.99
821.127	22.19
821.305	59.05
821.483	69.29
821.661	67.24
821.839	22.19
822.017	71.34
822.195	30.38
822.373	36.52
822.551	22.19
822.729	54.95
822.907	-20.82
823.085	89.77
823.262	52.91
823.44	136.87
823.618	65.19
823.796	50.86
823.974	71.34
824.152	30.38
824.329	-69.97
824.507	34.47
824.685	97.96
824.863	-20.82
825.04	42.67
825.218	-8.53
825.396	-2.39
825.574	79.53
825.751	79.53
825.929	30.38
826.107	40.62
826.284	34.47
826.462	57
826.639	79.53
826.817	38.57
826.994	7.85
827.172	-22.87
827.349	1.71
827.527	65.19
827.704	81.58
827.882	18.09
828.059	81.58
828.237	-51.54
828.414	52.91
828.591	100.01
828.769	40.62
828.946	24.23
829.124	13.99
829.301	59.05
829.478	38.57
829.655	13.99
829.833	102.06
830.01	-39.25
830.187	97.96
830.364	24.23
830.542	20.14
830.719	81.58
830.896	3.75
831.073	63.15
831.25	77.48
831.427	83.63
831.604	-24.92
831.782	-41.3
831.959	-16.73
832.136	24.23
832.313	48.81
832.49	28.33
832.667	40.62
832.844	61.1
833.021	26.28
833.198	36.52
833.374	28.33
833.551	7.85
833.728	48.81
833.905	50.86
834.082	120.49
834.259	93.87
834.436	97.96
834.612	67.24
834.789	3.75
834.966	28.33
835.143	-37.2
835.319	77.48
835.496	32.43
835.673	65.19
835.85	46.76
836.026	-67.92
836.203	81.58
836.38	38.57
836.556	-26.96
836.733	67.24
836.909	13.99
837.086	73.39
837.262	5.8
837.439	44.71
837.616	65.19
837.792	-4.44
837.968	59.05
838.145	40.62
838.321	-29.01
838.498	71.34
838.674	13.99
838.851	-20.82
839.027	20.14
839.203	13.99
839.38	5.8
839.556	7.85
839.732	9.9
839.909	-26.96
840.085	32.43
840.261	18.09
840.437	106.15
840.614	5.8
840.79	32.43
840.966	46.76
841.142	32.43
841.318	-22.87
841.494	-6.49
841.671	-51.54
841.847	7.85
842.023	-39.25
842.199	11.95
842.375	-2.39
842.551	18.09
842.727	24.23
842.903	50.86
843.079	44.71
843.255	50.86
843.431	79.53
843.607	-20.82
843.783	22.19
843.959	26.28
844.134	-90.45
844.31	-8.53
844.486	18.09
844.662	85.67
844.838	-12.63
845.013	-2.39
845.189	5.8
845.365	67.24
845.541	-2.39
845.716	18.09
845.892	7.85
846.068	7.85
846.244	-0.34
846.419	75.43
846.595	71.34
846.77	1.71
846.946	-76.12
847.122	-98.64
847.297	13.99
847.473	-18.77
847.648	28.33
847.824	18.09
847.999	-18.77
848.175	-61.78
848.35	-67.92
848.526	-12.63
848.701	32.43
848.876	-16.73
849.052	38.57
849.227	57
849.403	-0.34
849.578	-10.58
849.753	34.47
849.929	42.67
850.104	-59.73
850.279	36.52
850.454	1.71
850.63	38.57
850.805	-14.68
850.98	59.05
851.155	-20.82
851.33	-26.96
851.505	1.71
851.681	-2.39
851.856	30.38
852.031	67.24
852.206	-10.58
852.381	30.38
852.556	1.71
852.731	20.14
852.906	24.23
853.081	1.71
853.256	-55.64
853.431	-4.44
853.606	1.71
853.781	40.62
853.956	-67.92
854.131	-2.39
854.305	-12.63
854.48	13.99
854.655	22.19
854.83	-10.58
855.005	7.85
855.18	18.09
855.354	22.19
855.529	28.33
855.704	18.09
855.879	67.24
856.053	-16.73
856.228	34.47
856.403	-16.73
856.577	38.57
856.752	-24.92
856.926	-10.58
857.101	54.95
857.276	-6.49
857.45	38.57
857.625	13.99
857.799	20.14
857.974	-47.44
858.148	30.38
858.323	18.09
858.497	-65.88
858.672	-6.49
858.846	18.09
859.02	5.8
859.195	30.38
859.369	18.09
859.543	-10.58
859.718	13.99
859.892	-16.73
860.066	36.52
860.241	42.67
860.415	-49.49
860.589	-35.16
860.763	-4.44
860.938	32.43
861.112	20.14
861.286	-61.78
861.46	-14.68
861.634	-33.11
861.808	-26.96
861.982	20.14
862.157	-57.68
862.331	-59.73
862.505	-2.39
862.679	-18.77
862.853	32.43
863.027	-20.82
863.201	63.15
863.375	40.62
863.549	-0.34
863.722	-16.73
863.896	13.99
864.07	-2.39
864.244	40.62
864.418	16.04
864.592	-26.96
864.766	-18.77
864.939	26.28
865.113	22.19
865.287	48.81
865.461	-20.82
865.634	48.81
865.808	30.38
865.982	-2.39
866.156	11.95
866.329	-6.49
866.503	-22.87
866.676	38.57
866.85	54.95
867.024	-33.11
867.197	63.15
867.371	52.91
867.544	3.75
867.718	-20.82
867.891	-22.87
868.065	34.47
868.238	-106.84
868.412	-39.25
868.585	-12.63
868.759	11.95
868.932	18.09
869.105	32.43
869.279	5.8
869.452	-41.3
869.625	-39.25
869.799	11.95
869.972	-39.25
870.145	-49.49
870.319	-22.87
870.492	-2.39
870.665	-53.59
870.838	-47.44
871.011	-90.45
871.185	61.1
871.358	-8.53
871.531	24.23
871.704	46.76
871.877	20.14
872.05	-6.49
872.223	9.9
872.396	40.62
872.569	48.81
872.742	3.75
872.915	69.29
873.088	-29.01
873.261	-41.3
873.434	-33.11
873.607	5.8
873.78	-10.58
873.953	57
874.126	-39.25
874.299	-24.92
874.471	18.09
874.644	-55.64
874.817	-2.39
874.99	-4.44
875.163	34.47
875.335	-14.68
875.508	11.95
875.681	-33.11
875.853	22.19
876.026	13.99
876.199	-24.92
876.371	75.43
876.544	7.85
876.717	-22.87
876.889	1.71
877.062	-16.73
877.234	-86.36
877.407	16.04
877.579	-16.73
877.752	-43.35
877.924	-31.06
878.097	-57.68
878.269	-26.96
878.442	-10.58
878.614	-33.11
878.786	46.76
878.959	46.76
879.131	32.43
879.303	-84.31
879.476	34.47
879.648	46.76
879.82	-35.16
879.993	-76.12
880.165	18.09
880.337	-35.16
880.509	-59.73
880.681	-18.77
880.854	13.99
881.026	-47.44
881.198	16.04
881.37	-57.68
881.542	9.9
881.714	-65.88
881.886	-16.73
882.058	-18.77
882.23	-8.53
882.402	-57.68
882.574	-33.11
882.746	-53.59
882.918	-6.49
883.09	-33.11
883.262	7.85
883.434	24.23
883.606	-14.68
883.778	-84.31
883.95	-51.54
884.122	24.23
884.293	13.99
884.465	36.52
884.637	-22.87
884.809	-2.39
884.98	18.09
885.152	57
885.324	-12.63
885.496	-53.59
885.667	-0.34
885.839	13.99
886.011	16.04
886.182	-76.12
886.354	38.57
886.525	7.85
886.697	-18.77
886.869	-31.06
887.04	-41.3
887.212	7.85
887.383	13.99
887.555	-24.92
887.726	38.57
887.897	-16.73
888.069	-37.2
888.24	9.9
888.412	16.04
888.583	-49.49
888.754	-80.21
888.926	-35.16
889.097	-63.83
889.268	28.33
889.44	-18.77
889.611	-22.87
889.782	-61.78
889.953	-12.63
890.125	-10.58
890.296	-78.16
890.467	1.71
890.638	-33.11
890.809	-43.35
890.98	-76.12
891.151	-43.35
891.323	52.91
891.494	-41.3
891.665	-55.64
891.836	-61.78
892.007	-20.82
892.178	-57.68
892.349	38.57
892.52	-80.21
892.691	26.28
892.862	-16.73
893.032	-82.26
893.203	1.71
893.374	7.85
893.545	9.9
893.716	-24.92
893.887	30.38
894.057	-18.77
894.228	-22.87
894.399	-59.73
894.57	-14.68
894.74	-59.73
894.911	-0.34
895.082	-74.07
895.253	-67.92
895.423	13.99
895.594	-35.16
895.764	30.38
895.935	-8.53
896.106	34.47
896.276	-51.54
896.447	-14.68
896.617	-41.3
896.788	-6.49
896.958	-55.64
897.129	-74.07
897.299	-16.73
897.47	36.52
897.64	5.8
897.81	-41.3
897.981	5.8
898.151	-37.2
898.322	22.19
898.492	24.23
898.662	3.75
898.832	-4.44
899.003	11.95
899.173	11.95
899.343	-16.73
899.513	-6.49
