Data from USB4F104151__94__13-54-33-430.txt Node

Date: Thu Mar 13 13:54:33 EDT 2025
User: louis
Spectrometer: USB4F10415
Trigger mode: 4
Integration Time (sec): 1.000000E-2
Scans to average: 1
Electric dark correction enabled: true
Nonlinearity correction enabled: false
Boxcar width: 0
XAxis mode: Wavelengths
Number of Pixels in Spectrum: 3648
>>>>>Begin Spectral Data<<<<<
178.204	-16.38
178.424	-16.38
178.644	-16.38
178.864	-79.87
179.084	2.05
179.304	-26.62
179.524	30.72
179.744	28.67
179.964	-6.14
180.184	-12.29
180.404	18.43
180.624	-38.91
180.844	-6.14
181.064	-45.06
181.283	6.14
181.503	38.91
181.723	12.29
181.943	16.38
182.163	36.86
182.383	51.2
182.602	34.82
182.822	26.62
183.042	55.3
183.262	88.06
183.482	59.39
183.701	34.82
183.921	96.25
184.141	0
184.361	-24.58
184.58	20.48
184.8	10.24
185.02	-22.53
185.239	30.72
185.459	77.82
185.679	94.21
185.898	12.29
186.118	116.73
186.338	-8.19
186.557	-2.05
186.777	22.53
186.997	86.01
187.216	-10.24
187.436	43.01
187.655	79.87
187.875	-8.19
188.095	0
188.314	122.88
188.534	77.82
188.753	61.44
188.973	8.19
189.192	75.77
189.412	-18.43
189.631	-22.53
189.851	-16.38
190.07	77.82
190.29	4.1
190.509	36.86
190.729	24.58
190.948	83.97
191.168	40.96
191.387	57.34
191.607	28.67
191.826	-8.19
192.045	51.2
192.265	-16.38
192.484	-26.62
192.704	0
192.923	-34.82
193.142	96.25
193.362	49.15
193.581	141.31
193.8	-43.01
194.02	30.72
194.239	73.73
194.458	-16.38
194.678	-88.06
194.897	10.24
195.116	-28.67
195.335	18.43
195.555	47.1
195.774	-4.1
195.993	53.25
196.212	0
196.432	-10.24
196.651	16.38
196.87	-8.19
197.089	24.58
197.308	79.87
197.528	61.44
197.747	4.1
197.966	-2.05
198.185	61.44
198.404	-4.1
198.623	6.14
198.842	94.21
199.062	40.96
199.281	98.3
199.5	45.06
199.719	2.05
199.938	102.4
200.157	26.62
200.376	65.54
200.595	4.1
200.814	2.05
201.033	53.25
201.252	71.68
201.471	47.1
201.69	86.01
201.909	-16.38
202.128	88.06
202.347	22.53
202.566	-12.29
202.785	61.44
203.004	30.72
203.223	81.92
203.442	12.29
203.661	8.19
203.879	-26.62
204.098	-28.67
204.317	-38.91
204.536	24.58
204.755	38.91
204.974	28.67
205.193	67.58
205.411	36.86
205.63	40.96
205.849	38.91
206.068	59.39
206.287	14.34
206.505	6.14
206.724	38.91
206.943	-6.14
207.162	18.43
207.381	73.73
207.599	34.82
207.818	59.39
208.037	63.49
208.255	61.44
208.474	12.29
208.693	53.25
208.911	20.48
209.13	51.2
209.349	28.67
209.567	71.68
209.786	53.25
210.005	24.58
210.223	8.19
210.442	36.86
210.661	20.48
210.879	32.77
211.098	36.86
211.316	38.91
211.535	28.67
211.753	-12.29
211.972	38.91
212.191	18.43
212.409	36.86
212.628	36.86
212.846	28.67
213.065	51.2
213.283	-28.67
213.502	16.38
213.72	30.72
213.938	-2.05
214.157	20.48
214.375	38.91
214.594	43.01
214.812	12.29
215.031	77.82
215.249	34.82
215.467	38.91
215.686	-2.05
215.904	88.06
216.122	45.06
216.341	-12.29
216.559	-26.62
216.778	51.2
216.996	75.77
217.214	45.06
217.432	43.01
217.651	53.25
217.869	135.17
218.087	53.25
218.306	28.67
218.524	40.96
218.742	49.15
218.96	43.01
219.179	69.63
219.397	59.39
219.615	98.3
219.833	55.3
220.051	51.2
220.27	-18.43
220.488	88.06
220.706	67.58
220.924	-30.72
221.142	-36.86
221.36	36.86
221.578	100.35
221.796	24.58
222.015	53.25
222.233	2.05
222.451	40.96
222.669	-18.43
222.887	32.77
223.105	45.06
223.323	43.01
223.541	47.1
223.759	47.1
223.977	-38.91
224.195	133.12
224.413	43.01
224.631	55.3
224.849	-14.34
225.067	30.72
225.285	86.01
225.503	20.48
225.721	-6.14
225.939	77.82
226.157	47.1
226.375	83.97
226.592	26.62
226.81	38.91
227.028	16.38
227.246	24.58
227.464	67.58
227.682	-45.06
227.9	-16.38
228.117	-16.38
228.335	-34.82
228.553	26.62
228.771	-14.34
228.989	-30.72
229.206	8.19
229.424	38.91
229.642	-38.91
229.86	86.01
230.077	45.06
230.295	61.44
230.513	-38.91
230.731	94.21
230.948	86.01
231.166	20.48
231.384	-18.43
231.601	79.87
231.819	28.67
232.037	8.19
232.254	-32.77
232.472	43.01
232.689	24.58
232.907	38.91
233.125	96.25
233.342	92.16
233.56	-61.44
233.777	45.06
233.995	-6.14
234.213	36.86
234.43	98.3
234.648	83.97
234.865	-79.87
235.083	40.96
235.3	4.1
235.518	67.58
235.735	-10.24
235.953	-10.24
236.17	6.14
236.388	22.53
236.605	47.1
236.822	36.86
237.04	55.3
237.257	65.54
237.475	53.25
237.692	92.16
237.909	28.67
238.127	26.62
238.344	47.1
238.562	94.21
238.779	106.49
238.996	-10.24
239.214	65.54
239.431	-49.15
239.648	47.1
239.865	51.2
240.083	-12.29
240.3	40.96
240.517	28.67
240.735	110.59
240.952	77.82
241.169	59.39
241.386	-4.1
241.603	28.67
241.821	45.06
242.038	24.58
242.255	43.01
242.472	18.43
242.689	-8.19
242.907	14.34
243.124	6.14
243.341	22.53
243.558	-38.91
243.775	-4.1
243.992	32.77
244.209	77.82
244.426	32.77
244.643	-14.34
244.86	49.15
245.078	65.54
245.295	38.91
245.512	34.82
245.729	-28.67
245.946	67.58
246.163	6.14
246.38	81.92
246.597	65.54
246.814	83.97
247.031	77.82
247.248	57.34
247.464	18.43
247.681	38.91
247.898	16.38
248.115	114.69
248.332	10.24
248.549	110.59
248.766	88.06
248.983	96.25
249.2	45.06
249.417	43.01
249.633	53.25
249.85	20.48
250.067	79.87
250.284	69.63
250.501	83.97
250.717	81.92
250.934	8.19
251.151	28.67
251.368	2.05
251.585	-10.24
251.801	102.4
252.018	57.34
252.235	59.39
252.451	45.06
252.668	43.01
252.885	36.86
253.102	83.97
253.318	10.24
253.535	63.49
253.752	61.44
253.968	2.05
254.185	71.68
254.401	-20.48
254.618	-4.1
254.835	98.3
255.051	73.73
255.268	81.92
255.484	69.63
255.701	-10.24
255.917	12.29
256.134	53.25
256.351	32.77
256.567	45.06
256.784	92.16
257	71.68
257.217	-4.1
257.433	47.1
257.65	30.72
257.866	12.29
258.082	38.91
258.299	-32.77
258.515	53.25
258.732	38.91
258.948	45.06
259.165	61.44
259.381	28.67
259.597	63.49
259.814	94.21
260.03	59.39
260.246	26.62
260.463	43.01
260.679	24.58
260.895	0
261.112	47.1
261.328	10.24
261.544	51.2
261.761	110.59
261.977	8.19
262.193	-28.67
262.409	69.63
262.626	30.72
262.842	-4.1
263.058	112.64
263.274	108.54
263.49	-12.29
263.707	51.2
263.923	-18.43
264.139	69.63
264.355	51.2
264.571	36.86
264.787	-2.05
265.004	71.68
265.22	59.39
265.436	0
265.652	83.97
265.868	-30.72
266.084	55.3
266.3	63.49
266.516	8.19
266.732	151.55
266.948	18.43
267.164	-16.38
267.38	26.62
267.596	26.62
267.812	26.62
268.028	-4.1
268.244	32.77
268.46	55.3
268.676	53.25
268.892	34.82
269.108	32.77
269.324	0
269.54	36.86
269.756	-4.1
269.972	16.38
270.188	34.82
270.403	86.01
270.619	14.34
270.835	34.82
271.051	-20.48
271.267	6.14
271.483	110.59
271.698	-2.05
271.914	28.67
272.13	59.39
272.346	47.1
272.562	30.72
272.777	55.3
272.993	32.77
273.209	26.62
273.425	24.58
273.64	-30.72
273.856	-6.14
274.072	22.53
274.287	4.1
274.503	47.1
274.719	112.64
274.934	110.59
275.15	-16.38
275.366	-22.53
275.581	51.2
275.797	83.97
276.012	4.1
276.228	-26.62
276.444	79.87
276.659	100.35
276.875	0
277.09	67.58
277.306	59.39
277.521	20.48
277.737	-26.62
277.952	65.54
278.168	65.54
278.383	26.62
278.599	-65.54
278.814	55.3
279.03	-16.38
279.245	-26.62
279.461	94.21
279.676	90.11
279.892	-16.38
280.107	0
280.322	22.53
280.538	34.82
280.753	28.67
280.969	12.29
281.184	30.72
281.399	86.01
281.615	4.1
281.83	10.24
282.045	-16.38
282.26	-12.29
282.476	-28.67
282.691	14.34
282.906	18.43
283.122	24.58
283.337	51.2
283.552	24.58
283.767	32.77
283.983	174.08
284.198	-2.05
284.413	30.72
284.628	2.05
284.843	-4.1
285.058	28.67
285.274	65.54
285.489	-55.3
285.704	38.91
285.919	77.82
286.134	32.77
286.349	106.49
286.564	20.48
286.779	-8.19
286.995	-10.24
287.21	71.68
287.425	51.2
287.64	63.49
287.855	24.58
288.07	38.91
288.285	131.07
288.5	69.63
288.715	47.1
288.93	-36.86
289.145	47.1
289.36	34.82
289.575	75.77
289.79	61.44
290.004	28.67
290.219	51.2
290.434	92.16
290.649	75.77
290.864	-14.34
291.079	-14.34
291.294	26.62
291.509	6.14
291.724	20.48
291.938	28.67
292.153	55.3
292.368	20.48
292.583	94.21
292.798	16.38
293.012	30.72
293.227	2.05
293.442	77.82
293.657	24.58
293.871	16.38
294.086	51.2
294.301	47.1
294.516	-14.34
294.73	53.25
294.945	8.19
295.16	18.43
295.374	-75.77
295.589	55.3
295.804	55.3
296.018	43.01
296.233	51.2
296.447	45.06
296.662	38.91
296.877	73.73
297.091	79.87
297.306	81.92
297.52	6.14
297.735	-16.38
297.949	75.77
298.164	10.24
298.378	-20.48
298.593	40.96
298.807	55.3
299.022	-61.44
299.236	106.49
299.451	75.77
299.665	14.34
299.88	-10.24
300.094	36.86
300.309	-4.1
300.523	26.62
300.737	120.83
300.952	-4.1
301.166	86.01
301.381	12.29
301.595	-10.24
301.809	22.53
302.024	53.25
302.238	18.43
302.452	38.91
302.667	34.82
302.881	2.05
303.095	75.77
303.309	59.39
303.524	16.38
303.738	90.11
303.952	63.49
304.166	20.48
304.381	47.1
304.595	86.01
304.809	65.54
305.023	45.06
305.237	69.63
305.452	10.24
305.666	43.01
305.88	108.54
306.094	47.1
306.308	71.68
306.522	55.3
306.736	120.83
306.95	86.01
307.164	75.77
307.379	12.29
307.593	-10.24
307.807	71.68
308.021	90.11
308.235	65.54
308.449	38.91
308.663	36.86
308.877	75.77
309.091	-40.96
309.305	40.96
309.519	-24.58
309.733	18.43
309.947	2.05
310.161	112.64
310.374	20.48
310.588	81.92
310.802	-24.58
311.016	43.01
311.23	26.62
311.444	-8.19
311.658	32.77
311.872	96.25
312.085	2.05
312.299	92.16
312.513	4.1
312.727	-20.48
312.941	65.54
313.154	-20.48
313.368	77.82
313.582	61.44
313.796	24.58
314.009	81.92
314.223	-38.91
314.437	67.58
314.651	24.58
314.864	38.91
315.078	61.44
315.292	90.11
315.505	-43.01
315.719	92.16
315.933	63.49
316.146	88.06
316.36	34.82
316.573	10.24
316.787	86.01
317.001	71.68
317.214	12.29
317.428	36.86
317.641	4.1
317.855	-4.1
318.068	2.05
318.282	18.43
318.495	51.2
318.709	92.16
318.922	24.58
319.136	45.06
319.349	77.82
319.563	34.82
319.776	28.67
319.99	51.2
320.203	14.34
320.417	10.24
320.63	0
320.843	14.34
321.057	83.97
321.27	-2.05
321.483	-34.82
321.697	88.06
321.91	45.06
322.124	28.67
322.337	61.44
322.55	8.19
322.763	34.82
322.977	10.24
323.19	83.97
323.403	92.16
323.617	57.34
323.83	116.73
324.043	38.91
324.256	86.01
324.469	69.63
324.683	14.34
324.896	28.67
325.109	12.29
325.322	34.82
325.535	12.29
325.748	51.2
325.962	61.44
326.175	24.58
326.388	38.91
326.601	40.96
326.814	4.1
327.027	47.1
327.24	126.97
327.453	-28.67
327.666	8.19
327.879	86.01
328.092	28.67
328.305	75.77
328.518	-4.1
328.731	22.53
328.944	86.01
329.157	32.77
329.37	49.15
329.583	6.14
329.796	159.74
330.009	65.54
330.222	88.06
330.435	47.1
330.648	36.86
330.861	4.1
331.073	49.15
331.286	34.82
331.499	61.44
331.712	47.1
331.925	24.58
332.138	-16.38
332.35	18.43
332.563	53.25
332.776	55.3
332.989	-36.86
333.202	69.63
333.414	-18.43
333.627	61.44
333.84	83.97
334.053	-28.67
334.265	36.86
334.478	34.82
334.691	67.58
334.903	96.25
335.116	-14.34
335.329	57.34
335.541	51.2
335.754	43.01
335.966	-18.43
336.179	26.62
336.392	-14.34
336.604	61.44
336.817	59.39
337.029	61.44
337.242	-67.58
337.454	14.34
337.667	-16.38
337.88	38.91
338.092	43.01
338.305	-20.48
338.517	-10.24
338.729	-59.39
338.942	55.3
339.154	47.1
339.367	38.91
339.579	-30.72
339.792	-8.19
340.004	43.01
340.217	36.86
340.429	26.62
340.641	-18.43
340.854	71.68
341.066	94.21
341.278	26.62
341.491	81.92
341.703	40.96
341.915	32.77
342.128	22.53
342.34	40.96
342.552	-6.14
342.764	12.29
342.977	108.54
343.189	-20.48
343.401	98.3
343.613	2.05
343.826	88.06
344.038	63.49
344.25	61.44
344.462	36.86
344.674	49.15
344.886	92.16
345.099	120.83
345.311	149.5
345.523	81.92
345.735	51.2
345.947	16.38
346.159	-4.1
346.371	71.68
346.583	32.77
346.795	59.39
347.007	18.43
347.219	-30.72
347.431	-8.19
347.643	69.63
347.855	86.01
348.067	12.29
348.279	30.72
348.491	51.2
348.703	10.24
348.915	65.54
349.127	90.11
349.339	71.68
349.551	18.43
349.763	126.97
349.975	18.43
350.187	2.05
350.399	14.34
350.61	108.54
350.822	98.3
351.034	45.06
351.246	53.25
351.458	77.82
351.669	65.54
351.881	-22.53
352.093	51.2
352.305	4.1
352.517	36.86
352.728	22.53
352.94	-4.1
353.152	47.1
353.363	98.3
353.575	18.43
353.787	22.53
353.999	16.38
354.21	90.11
354.422	129.02
354.633	36.86
354.845	49.15
355.057	20.48
355.268	100.35
355.48	-26.62
355.692	40.96
355.903	-43.01
356.115	8.19
356.326	20.48
356.538	30.72
356.749	73.73
356.961	137.21
357.172	-16.38
357.384	59.39
357.595	38.91
357.807	34.82
358.018	83.97
358.23	49.15
358.441	118.78
358.653	12.29
358.864	22.53
359.075	-24.58
359.287	30.72
359.498	94.21
359.709	28.67
359.921	57.34
360.132	65.54
360.344	67.58
360.555	63.49
360.766	71.68
360.977	28.67
361.189	32.77
361.4	36.86
361.611	38.91
361.823	2.05
362.034	43.01
362.245	81.92
362.456	18.43
362.667	98.3
362.879	47.1
363.09	2.05
363.301	28.67
363.512	59.39
363.723	32.77
363.935	24.58
364.146	96.25
364.357	108.54
364.568	43.01
364.779	-20.48
364.99	106.49
365.201	47.1
365.412	102.4
365.623	174.08
365.834	59.39
366.045	83.97
366.256	114.69
366.467	57.34
366.678	34.82
366.889	38.91
367.1	71.68
367.311	112.64
367.522	-45.06
367.733	32.77
367.944	51.2
368.155	26.62
368.366	118.78
368.577	38.91
368.788	45.06
368.999	4.1
369.209	20.48
369.42	36.86
369.631	18.43
369.842	94.21
370.053	-53.25
370.264	98.3
370.474	-28.67
370.685	45.06
370.896	4.1
371.107	43.01
371.317	40.96
371.528	59.39
371.739	122.88
371.95	88.06
372.16	83.97
372.371	45.06
372.582	53.25
372.792	51.2
373.003	51.2
373.214	61.44
373.424	75.77
373.635	24.58
373.846	65.54
374.056	14.34
374.267	59.39
374.477	94.21
374.688	57.34
374.898	30.72
375.109	38.91
375.319	63.49
375.53	86.01
375.74	38.91
375.951	45.06
376.161	12.29
376.372	110.59
376.582	47.1
376.793	38.91
377.003	86.01
377.214	51.2
377.424	26.62
377.635	-6.14
377.845	36.86
378.055	112.64
378.266	-4.1
378.476	65.54
378.686	79.87
378.897	51.2
379.107	71.68
379.317	4.1
379.528	79.87
379.738	61.44
379.948	28.67
380.158	-8.19
380.369	-18.43
380.579	-47.1
380.789	32.77
380.999	34.82
381.21	65.54
381.42	55.3
381.63	8.19
381.84	129.02
382.05	47.1
382.261	16.38
382.471	67.58
382.681	28.67
382.891	75.77
383.101	-6.14
383.311	14.34
383.521	26.62
383.731	-53.25
383.941	59.39
384.151	65.54
384.361	30.72
384.571	30.72
384.781	59.39
384.991	47.1
385.201	-6.14
385.411	45.06
385.621	67.58
385.831	67.58
386.041	34.82
386.251	30.72
386.461	108.54
386.671	-30.72
386.881	2.05
387.091	45.06
387.301	30.72
387.511	-63.49
387.72	30.72
387.93	100.35
388.14	57.34
388.35	-28.67
388.56	77.82
388.769	-8.19
388.979	79.87
389.189	86.01
389.399	116.73
389.609	73.73
389.818	149.5
390.028	83.97
390.238	40.96
390.447	-2.05
390.657	61.44
390.867	137.21
391.076	26.62
391.286	57.34
391.496	6.14
391.705	137.21
391.915	45.06
392.125	96.25
392.334	-16.38
392.544	90.11
392.753	47.1
392.963	108.54
393.172	24.58
393.382	139.26
393.591	20.48
393.801	106.49
394.01	96.25
394.22	75.77
394.429	49.15
394.639	51.2
394.848	34.82
395.058	24.58
395.267	65.54
395.477	-4.1
395.686	61.44
395.895	129.02
396.105	108.54
396.314	61.44
396.524	81.92
396.733	73.73
396.942	77.82
397.152	12.29
397.361	55.3
397.57	94.21
397.78	22.53
397.989	-20.48
398.198	145.41
398.407	96.25
398.617	86.01
398.826	-2.05
399.035	110.59
399.244	43.01
399.453	110.59
399.663	55.3
399.872	57.34
400.081	51.2
400.29	92.16
400.499	57.34
400.708	141.31
400.917	153.6
401.127	120.83
401.336	61.44
401.545	124.93
401.754	108.54
401.963	114.69
402.172	-30.72
402.381	73.73
402.59	43.01
402.799	102.4
403.008	96.25
403.217	43.01
403.426	108.54
403.635	118.78
403.844	81.92
404.053	133.12
404.262	61.44
404.471	141.31
404.68	147.45
404.888	92.16
405.097	98.3
405.306	86.01
405.515	145.41
405.724	45.06
405.933	122.88
406.142	65.54
406.35	59.39
406.559	157.69
406.768	83.97
406.977	126.97
407.185	73.73
407.394	112.64
407.603	153.6
407.812	176.13
408.02	165.89
408.229	98.3
408.438	161.79
408.646	126.97
408.855	118.78
409.064	126.97
409.272	178.17
409.481	172.03
409.69	155.65
409.898	149.5
410.107	151.55
410.315	188.41
410.524	155.65
410.733	190.46
410.941	192.51
411.15	137.21
411.358	251.9
411.567	180.22
411.775	182.27
411.984	192.51
412.192	178.17
412.401	210.94
412.609	206.84
412.818	219.13
413.026	346.11
413.234	182.27
413.443	339.96
413.651	237.56
413.86	212.99
414.068	303.1
414.276	327.67
414.485	309.24
414.693	305.15
414.901	329.72
415.11	366.59
415.318	313.34
415.526	331.77
415.734	442.36
415.943	354.3
416.151	413.69
416.359	438.27
416.567	374.78
416.776	393.21
416.984	475.13
417.192	464.89
417.4	481.27
417.608	434.17
417.817	579.58
418.025	522.23
418.233	532.47
418.441	540.66
418.649	624.63
418.857	684.02
419.065	589.82
419.273	618.49
419.481	624.63
419.689	673.78
419.897	684.02
420.105	696.31
420.313	724.98
420.521	784.37
420.729	749.56
420.937	819.19
421.145	792.56
421.353	790.52
421.561	878.58
421.769	915.44
421.977	1030.13
422.185	911.35
422.393	1015.79
422.601	1069.04
422.809	1142.77
423.017	1128.43
423.224	1103.86
423.432	1136.62
423.64	1150.96
423.848	1294.32
424.056	1298.41
424.263	1222.64
424.471	1292.27
424.679	1372.14
424.887	1447.91
425.094	1464.3
425.302	1452.01
425.51	1492.97
425.718	1558.5
425.925	1437.67
426.133	1589.22
426.341	1632.23
426.548	1843.17
426.756	1755.11
426.964	1875.94
427.171	1888.23
427.379	2058.21
427.586	2033.63
427.794	2029.54
428.001	2207.71
428.209	2224.09
428.417	2228.19
428.624	2389.98
428.832	2308.06
429.039	2336.73
429.247	2314.2
429.454	2496.47
429.662	2764.76
429.869	2590.68
430.076	2772.95
430.284	2676.7
430.491	2768.85
430.699	3028.95
430.906	2885.59
431.114	2990.03
431.321	2969.55
431.528	3110.86
431.736	3241.93
431.943	3561.42
432.15	3426.25
432.358	3413.96
432.565	3571.66
432.772	3672.01
432.979	3758.02
433.187	3880.9
433.394	3792.84
433.601	4104.13
433.808	4097.99
434.016	4153.28
434.223	4220.86
434.43	4593.59
434.637	4360.13
434.844	4577.21
435.052	4751.29
435.259	4671.42
435.466	4804.53
435.673	4798.39
435.88	5179.31
436.087	5248.94
436.294	5412.78
436.501	5177.27
436.708	5341.1
436.915	5564.33
437.122	5756.84
437.329	5918.63
437.537	6016.93
437.743	5918.63
437.95	5885.86
438.157	6258.59
438.364	6528.92
438.571	6553.5
438.778	6447.01
438.985	7061.4
439.192	6891.41
439.399	7155.6
439.606	6737.82
439.813	7280.53
440.02	7876.49
440.227	7778.19
440.433	7569.29
440.64	7745.42
440.847	7593.87
441.054	7745.42
441.261	8378.24
441.467	8224.64
441.674	8638.33
441.881	8787.83
442.088	8832.89
442.294	8949.62
442.501	8943.48
442.708	9056.12
442.914	9326.45
443.121	9764.72
443.328	9494.38
443.534	10303.33
443.741	10106.73
443.948	9881.45
444.154	10655.58
444.361	10696.54
444.568	10542.94
444.774	10544.99
444.981	10633.05
445.187	10788.7
445.394	11280.21
445.6	11265.88
445.807	12240.71
446.013	11964.23
446.22	12007.24
446.426	12222.28
446.633	12693.31
446.839	13139.77
447.046	12715.84
447.252	13223.73
447.459	13080.38
447.665	13125.43
447.871	13518.64
448.078	14313.25
448.284	13731.63
448.491	14208.81
448.697	14491.43
448.903	14829.34
449.11	14812.96
449.316	14589.73
449.522	14841.63
449.728	15415.06
449.935	15441.68
450.141	15296.28
450.347	15800.08
450.553	15185.69
450.76	15507.22
450.966	16027.4
451.172	15636.24
451.378	16037.64
451.584	15556.37
451.791	16080.65
451.997	16066.31
452.203	16242.44
452.409	16258.82
452.615	16156.43
452.821	15855.37
453.027	15288.09
453.233	16191.24
453.44	15339.29
453.646	15810.32
453.852	15793.93
454.058	16049.93
454.264	15187.74
454.47	16025.36
454.676	15181.59
454.882	15886.09
455.088	14464.8
455.294	14858.01
455.5	14880.54
455.705	14946.08
455.911	14339.88
456.117	14110.5
456.323	13977.39
456.529	13066.04
456.735	13743.92
456.941	13182.77
457.147	13209.4
457.352	12414.79
457.558	12543.81
457.764	12592.96
457.97	12207.94
458.176	11990.86
458.381	12029.77
458.587	11421.52
458.793	11519.82
458.999	10786.65
459.204	11528.02
459.41	11446.1
459.616	10626.91
459.821	10776.41
460.027	10547.04
460.233	10348.39
460.438	9795.43
460.644	9969.51
460.85	9465.71
461.055	9475.95
461.261	9516.91
461.466	8685.44
461.672	8480.64
461.878	8861.56
462.083	8275.84
462.289	8353.66
462.494	8216.45
462.7	7827.34
462.905	7671.69
463.111	7849.86
463.316	7745.42
463.522	7819.14
463.727	7878.54
463.932	7778.19
464.138	7497.61
464.343	7712.65
464.549	7540.62
464.754	7845.77
464.959	7753.61
465.165	7833.48
465.37	7460.75
465.575	7231.38
465.781	7360.4
465.986	7499.66
466.191	7155.6
466.397	7155.6
466.602	6659.99
466.807	6938.52
467.012	7133.08
467.218	6977.43
467.423	6907.8
467.628	6922.13
467.833	7221.14
468.038	6930.33
468.244	6686.62
468.449	6807.45
468.654	6727.58
468.859	6776.73
469.064	6717.34
469.269	6545.31
469.474	6569.88
469.679	6680.47
469.885	6404
470.09	6426.53
470.295	6565.79
470.5	6158.24
470.705	6303.65
470.91	6211.49
471.115	6365.09
471.32	6277.02
471.525	6295.46
471.73	6051.75
471.935	6090.66
472.139	5855.14
472.344	5943.21
472.549	5693.35
472.754	5861.29
472.959	5732.26
473.164	5445.55
473.369	5515.18
473.574	5732.26
473.778	5654.44
473.983	5599.15
474.188	5459.88
474.393	5320.62
474.598	5296.05
474.802	5189.55
475.007	5351.34
475.212	5207.98
475.417	4923.32
475.621	4970.42
475.826	5128.11
476.031	5017.52
476.235	4900.79
476.44	4964.28
476.645	4898.74
476.849	4931.51
477.054	4747.19
477.259	4908.98
477.463	4698.04
477.668	4523.96
477.872	4614.07
478.077	4655.03
478.282	4569.02
478.486	4519.87
478.691	4528.06
478.895	4343.74
479.1	4294.59
479.304	4396.99
479.509	4235.2
479.713	4310.97
479.918	4220.86
480.122	4216.77
480.326	4304.83
480.531	4175.81
480.735	4194.24
480.94	4128.7
481.144	4249.54
481.348	4110.27
481.553	4106.18
481.757	4081.6
481.961	4265.92
482.166	4097.99
482.37	4077.51
482.574	4136.9
482.778	4114.37
482.983	4218.82
483.187	4100.03
483.391	4231.1
483.595	4077.51
483.8	4081.6
484.004	4304.83
484.208	4106.18
484.412	4030.4
484.616	4263.87
484.821	4069.31
485.025	4044.74
485.229	4216.77
485.433	4136.9
485.637	4206.53
485.841	4171.71
486.045	4167.62
486.249	4100.03
486.453	4081.6
486.657	4071.36
486.861	4050.88
487.065	3991.49
487.269	4134.85
487.473	3977.16
487.677	4040.64
487.881	4140.99
488.085	4065.22
488.289	3979.2
488.493	4075.46
488.697	4116.42
488.901	4059.07
489.105	4100.03
489.309	4329.41
489.512	4175.81
489.716	4220.86
489.92	4120.51
490.124	4116.42
490.328	4321.21
490.531	4190.14
490.735	4310.97
490.939	4313.02
491.143	4249.54
491.346	4376.51
491.55	4376.51
491.754	4358.08
491.958	4343.74
492.161	4413.37
492.365	4444.09
492.569	4296.64
492.772	4390.85
492.976	4433.85
493.18	4476.86
493.383	4456.38
493.587	4392.89
493.79	4458.43
493.994	4427.71
494.197	4511.68
494.401	4704.18
494.605	4478.91
494.808	4712.38
495.012	4677.56
495.215	4888.5
495.419	4671.42
495.622	4755.38
495.825	4779.96
496.029	4902.84
496.232	4997.04
496.436	5085.11
496.639	5093.3
496.843	4982.71
497.046	5070.77
497.249	5312.43
497.453	5271.47
497.656	5271.47
497.859	5394.35
498.063	5476.27
498.266	5482.41
498.469	5437.36
498.673	5515.18
498.876	5607.34
499.079	5697.45
499.282	5593
499.485	5961.64
499.689	5910.44
499.892	6037.41
500.095	5949.35
500.298	5975.97
500.501	6104.99
500.705	6064.04
500.908	6268.83
501.111	6287.26
501.314	6422.43
501.517	6578.08
501.72	6664.09
501.923	6602.65
502.126	6741.91
502.329	6752.15
502.532	6909.85
502.735	7051.16
502.938	7053.2
503.141	7184.27
503.344	7169.94
503.547	7364.5
503.75	7534.48
503.953	7530.38
504.156	7614.35
504.359	7626.64
504.562	7751.56
504.765	7954.31
504.968	7915.4
505.17	8073.09
505.373	8103.81
505.576	8286.08
505.779	8294.27
505.982	8361.86
506.185	8607.61
506.387	8521.6
506.59	8941.43
506.793	8882.04
506.996	9123.7
507.198	8951.67
507.401	9215.86
507.604	9181.04
507.807	9424.75
508.009	9637.74
508.212	9602.93
508.415	9842.54
508.617	9725.8
508.82	9895.78
509.022	9951.08
509.225	10143.59
509.428	10381.15
509.63	10383.2
509.833	10391.39
510.035	10723.16
510.238	10739.55
510.44	10919.77
510.643	11249.49
510.845	11212.63
511.048	11079.51
511.25	11401.04
511.453	11659.09
511.655	12052.3
511.858	11896.65
512.06	11923.27
512.262	12060.49
512.465	12267.33
512.667	12474.18
512.87	12556.1
513.072	12605.25
513.274	12879.68
513.477	13037.37
513.679	13037.37
513.881	13299.51
514.084	13451.06
514.286	13565.74
514.488	13676.34
514.69	14051.11
514.893	14110.5
515.095	14243.62
515.297	14442.28
515.499	14749.47
515.701	14694.18
515.904	14745.38
516.106	15087.39
516.308	15238.94
516.51	15372.05
516.712	15402.77
516.914	15494.93
517.116	15701.78
517.318	16215.82
517.52	16207.62
517.722	16033.55
517.925	16373.51
518.127	16738.05
518.329	16994.04
518.531	16813.82
518.733	17131.26
518.935	17366.77
519.136	17413.88
519.338	17766.13
519.54	17712.88
519.742	18065.13
519.944	18288.36
520.146	18550.5
520.348	18536.17
520.55	18824.93
520.752	18876.13
520.954	18990.81
521.155	19007.2
521.357	19511
521.559	19580.63
521.761	19975.89
521.963	19975.89
522.164	20344.52
522.366	20213.45
522.568	20137.68
522.77	20580.04
522.971	21059.26
523.173	20739.78
523.375	21096.13
523.576	21247.68
523.778	21116.61
523.98	21540.54
524.181	21606.07
524.383	21634.74
524.584	21841.59
524.786	21857.97
524.988	22083.25
525.189	22486.7
525.391	22359.72
525.592	22800.04
525.794	22730.41
525.995	22754.98
526.197	22941.35
526.398	23105.18
526.6	23273.12
526.801	23166.62
527.003	23504.54
527.204	23178.91
527.406	23479.96
527.607	23658.13
527.808	23701.14
528.01	23494.3
528.211	23643.8
528.412	24344.2
528.614	24270.48
528.815	23942.8
529.016	24278.67
529.218	24192.65
529.419	24434.32
529.62	24532.62
529.822	24372.88
530.023	24598.15
530.224	24608.39
530.425	24661.64
530.626	24899.2
530.828	24340.11
531.029	25147.01
531.23	24843.91
531.431	25093.76
531.632	25089.67
531.833	25079.43
532.035	25024.13
532.236	25202.3
532.437	25132.67
532.638	24934.02
532.839	25319.04
533.04	25441.92
533.241	25177.73
533.442	25405.05
533.643	25069.19
533.844	25349.76
534.045	25575.03
534.246	25462.4
534.447	25675.38
534.648	25470.59
534.849	25454.2
535.05	25319.04
535.251	25726.58
535.451	25544.31
535.652	25437.82
535.853	25654.9
536.054	25515.64
536.255	25509.5
536.456	25476.73
536.657	25939.57
536.857	25710.2
537.058	25421.44
537.259	25912.95
537.46	25876.09
537.66	25630.33
537.861	25771.64
538.062	25693.82
538.263	25816.69
538.463	25931.38
538.664	25716.34
538.865	25771.64
539.065	25947.76
539.266	25857.65
539.466	25665.14
539.667	25548.41
539.868	25654.9
540.068	25900.66
540.269	25652.86
540.469	25826.93
540.67	25382.52
540.87	25869.94
541.071	25798.26
541.271	25869.94
541.472	25808.5
541.672	25548.41
541.873	25663.1
542.073	25527.93
542.274	26252.91
542.474	25716.34
542.675	25570.94
542.875	25673.34
543.075	25759.35
543.276	25550.46
543.476	25976.44
543.676	25804.41
543.877	25947.76
544.077	25921.14
544.277	25806.45
544.478	26072.69
544.678	26035.83
544.878	25863.8
545.078	25779.83
545.279	25400.96
545.479	25716.34
545.679	25984.63
545.879	25699.96
546.079	25947.76
546.28	26001.01
546.48	25276.03
546.68	25990.77
546.88	25771.64
547.08	25804.41
547.28	25683.58
547.48	25691.77
547.68	25958
547.88	25429.63
548.081	26003.06
548.281	25575.03
548.481	25505.4
548.681	26111.6
548.881	25769.59
549.081	25724.54
549.28	25372.28
549.48	26056.31
549.68	25642.62
549.88	26136.18
550.08	25564.79
550.28	25650.81
550.48	25575.03
550.68	26009.2
550.88	25691.77
551.08	25777.78
551.279	25910.9
551.479	25489.02
551.679	25556.6
551.879	25677.43
552.079	26117.75
552.278	25415.29
552.478	25642.62
552.678	25884.28
552.878	25833.08
553.077	25581.18
553.277	25298.56
553.477	25763.45
553.676	25474.68
553.876	25659
554.076	25704.06
554.275	25620.09
554.475	25370.24
554.674	25450.11
554.874	25751.16
555.074	25228.93
555.273	25392.76
555.473	25493.11
555.672	25450.11
555.872	25341.57
556.071	25220.74
556.271	25540.22
556.47	25206.4
556.67	25454.2
556.869	24929.92
557.068	25271.93
557.268	25007.75
557.467	25050.75
557.667	25235.07
557.866	25040.51
558.065	25282.17
558.265	24925.83
558.464	24956.55
558.663	25009.79
558.863	24522.38
559.062	25245.31
559.261	24600.2
559.461	25017.99
559.66	24495.75
559.859	24911.49
560.058	24596.1
560.258	24561.29
560.457	24747.65
560.656	24708.74
560.855	24440.46
561.054	24772.23
561.253	24569.48
561.453	24409.74
561.652	24364.68
561.851	24592.01
562.05	24434.32
562.249	24141.46
562.448	24282.77
562.647	24401.55
562.846	24125.07
563.045	24247.95
563.244	23948.95
563.443	24147.6
563.642	23940.75
563.841	23854.74
564.04	23649.94
564.239	24338.06
564.438	23899.8
564.637	23862.93
564.836	23664.28
565.035	23203.49
565.234	23740.05
565.432	23803.54
565.631	23594.65
565.83	23572.12
566.029	23391.9
566.228	23443.1
566.427	23408.28
566.625	23205.53
566.824	22957.73
567.023	23410.33
567.222	22849.19
567.42	23193.25
567.619	22978.21
567.818	22875.81
568.016	22879.91
568.215	23068.32
568.414	22808.23
568.612	23103.14
568.811	22564.52
569.01	22628.01
569.208	22257.32
569.407	22566.57
569.605	22646.44
569.804	22541.99
570.002	22140.59
570.201	22466.22
570.4	22245.04
570.598	22265.52
570.797	21950.13
570.995	22228.65
571.193	22036.14
571.392	21870.26
571.59	21745.33
571.789	21765.81
571.987	21747.38
572.186	21679.8
572.384	21579.45
572.582	21608.12
572.781	21503.67
572.979	21178.04
573.177	21397.18
573.376	21597.88
573.574	21368.51
573.772	21614.26
573.971	21325.5
574.169	21116.61
574.367	21018.3
574.565	20942.53
574.763	20827.84
574.962	20731.59
575.16	20623.05
575.358	20756.16
575.556	20508.36
575.754	20745.92
575.952	20225.74
576.151	20666.05
576.349	20346.57
576.547	20383.43
576.745	20350.67
576.943	20070.09
577.141	20221.64
577.339	20123.34
577.537	20022.99
577.735	19887.82
577.933	19828.43
578.131	19801.81
578.329	19771.09
578.527	19742.42
578.725	19701.46
578.923	19762.9
579.121	19463.9
579.319	19396.31
579.516	19513.05
579.714	19285.72
579.912	19087.07
580.11	19277.53
580.308	19218.14
580.506	19056.35
580.704	18835.17
580.901	19121.88
581.099	19261.15
581.297	18982.62
581.495	18657
581.692	18958.05
581.89	18460.39
582.088	18648.8
582.285	18646.76
582.483	18843.36
582.681	18671.33
582.878	18421.48
583.076	18376.42
583.274	18458.34
583.471	18300.65
583.669	18069.23
583.866	18159.34
584.064	18314.98
584.262	17706.74
584.459	18587.36
584.657	17665.78
584.854	18155.24
585.052	17544.95
585.249	17839.86
585.447	17950.45
585.644	17624.82
585.841	17491.7
586.039	17774.32
586.236	17452.79
586.434	17489.65
586.631	17524.47
586.828	17524.47
587.026	17270.52
587.223	17137.4
587.42	17178.36
587.618	17141.5
587.815	17213.18
588.012	16971.52
588.21	16965.37
588.407	17491.7
588.604	16877.31
588.801	16848.64
588.999	16826.11
589.196	16803.58
589.393	16662.27
589.59	16531.2
589.787	16484.1
589.984	16561.92
590.182	16490.24
590.379	16774.91
590.576	16217.86
590.773	16428.81
590.97	16305.93
591.167	16205.58
591.364	15927.05
591.561	16211.72
591.758	16070.41
591.955	16041.74
592.152	16170.76
592.349	16054.03
592.546	15912.72
592.743	15963.92
592.94	15859.47
593.137	15679.25
593.334	15965.96
593.531	15529.75
593.727	15484.69
593.924	15752.98
594.121	15259.42
594.318	15714.06
594.515	15437.59
594.712	15591.19
594.908	15261.46
595.105	15372.05
595.302	14937.88
595.499	15103.77
595.696	15488.79
595.892	15027.99
596.089	14968.6
596.286	15134.49
596.482	14913.31
596.679	14884.64
596.876	15050.52
597.072	14817.05
597.269	14714.66
597.466	14735.14
597.662	14851.87
597.859	14847.77
598.055	14745.38
598.252	14522.15
598.448	14526.24
598.645	14505.76
598.841	14442.28
599.038	14470.95
599.234	14534.43
599.431	14393.12
599.627	14307.11
599.824	14417.7
600.02	14053.16
600.217	14096.17
600.413	13973.29
600.609	13938.48
600.806	14051.11
601.002	14057.26
601.198	13903.66
601.395	13834.03
601.591	13868.84
601.787	13821.74
601.984	13754.16
602.18	13934.38
602.376	13653.81
602.572	13602.61
602.769	13518.64
602.965	13557.55
603.161	13383.48
603.357	13395.76
603.553	13393.72
603.75	13508.4
603.946	13199.16
604.142	13121.34
604.338	13088.57
604.534	13246.26
604.73	13043.51
604.926	13010.75
605.122	12900.16
605.318	13098.81
605.514	13023.03
605.71	12746.56
605.906	12791.61
606.102	12740.41
606.298	12652.35
606.494	12599.1
606.69	12945.21
606.886	12672.83
607.082	12531.52
607.278	12597.06
607.474	12480.32
607.67	12441.41
607.866	12588.86
608.062	12527.42
608.257	12302.15
608.453	12218.18
608.649	12271.43
608.845	12101.45
609.041	12111.69
609.236	12173.13
609.432	12203.85
609.628	12019.53
609.824	11966.28
610.019	11822.92
610.215	11859.79
610.411	11933.51
610.606	11822.92
610.802	11870.03
610.998	11886.41
611.193	11921.23
611.389	11863.88
611.584	11714.38
611.78	11587.41
611.976	11593.55
612.171	11478.86
612.367	11626.32
612.562	11712.33
612.758	11548.5
612.953	11499.34
613.149	11575.12
613.344	11265.88
613.539	11530.06
613.735	11333.46
613.93	11241.3
614.126	11198.29
614.321	11257.68
614.517	11317.08
614.712	11118.42
614.907	11044.7
615.103	10989.4
615.298	11124.57
615.493	11114.33
615.688	11118.42
615.884	11011.93
616.079	10880.86
616.274	11050.84
616.47	10919.77
616.665	11007.83
616.86	10925.91
617.055	10979.16
617.25	10930.01
617.445	10936.15
617.641	10694.49
617.836	10696.54
618.031	10671.97
618.226	10626.91
618.421	10483.55
618.616	10633.05
618.811	10588
619.006	10598.24
619.201	10370.91
619.396	10450.78
619.591	10127.21
619.786	10182.5
619.981	10301.28
620.176	10123.11
620.371	10000.23
620.566	10004.33
620.761	10041.19
620.956	10053.48
621.151	9785.19
621.346	10010.47
621.541	9838.44
621.735	10000.23
621.93	9719.66
622.125	9625.45
622.32	9604.97
622.515	9793.39
622.709	9320.31
622.904	9680.75
623.099	9365.36
623.294	9420.66
623.488	9267.06
623.683	9267.06
623.878	9275.25
624.072	9314.16
624.267	9084.79
624.462	9076.6
624.656	8992.63
624.851	8875.9
625.046	8980.34
625.24	8976.25
625.435	8761.21
625.629	8916.86
625.824	8705.92
626.018	8728.44
626.213	8544.13
626.407	8740.73
626.602	8499.07
626.796	8284.03
626.991	8384.38
627.185	8365.95
627.38	8312.71
627.574	8251.27
627.768	8378.24
627.963	8177.54
628.157	8107.91
628.352	8087.43
628.546	7976.84
628.74	8165.25
628.935	7831.43
629.129	7907.21
629.323	7858.06
629.517	7970.69
629.712	7944.07
629.906	7819.14
630.1	7669.64
630.294	7858.06
630.489	7657.36
630.683	7790.47
630.877	7565.2
631.071	7557
631.265	7550.86
631.459	7415.69
631.653	7634.83
631.848	7356.3
632.042	7384.98
632.236	7401.36
632.43	7366.54
632.624	7182.23
632.818	7249.81
633.012	7026.58
633.206	7196.56
633.4	7249.81
633.594	7008.15
633.788	7182.23
633.982	7085.97
634.176	6932.37
634.369	6942.61
634.563	6862.74
634.757	6918.04
634.951	6823.83
635.145	6872.98
635.339	6799.26
635.533	6743.96
635.726	6772.63
635.92	6729.63
636.114	6700.95
636.308	6533.02
636.501	6549.4
636.695	6553.5
636.889	6492.06
637.083	6414.24
637.276	6283.17
637.47	6469.53
637.664	6256.54
637.857	6371.23
638.051	6307.74
638.244	6244.26
638.438	6080.42
638.632	6383.52
638.825	6139.81
639.019	6166.43
639.212	5988.26
639.406	6088.61
639.599	6021.03
639.793	5963.68
639.986	5986.21
640.18	5943.21
640.373	5873.57
640.567	5775.27
640.76	5853.09
640.954	5730.22
641.147	5681.07
641.34	5699.5
641.534	5758.89
641.727	5674.92
641.92	5584.81
642.114	5523.37
642.307	5584.81
642.5	5441.45
642.694	5461.93
642.887	5267.38
643.08	5511.08
643.273	5363.63
643.467	5269.42
643.66	5337.01
643.853	5220.27
644.046	5029.81
644.239	5162.93
644.432	5291.95
644.626	5162.93
644.819	5078.96
645.012	5136.31
645.205	4960.18
645.398	4927.41
645.591	4913.08
645.784	4902.84
645.977	4911.03
646.17	4808.63
646.363	4882.36
646.556	4886.45
646.749	4802.49
646.942	4751.29
647.135	4708.28
647.328	4698.04
647.521	4704.18
647.714	4499.39
647.907	4673.46
648.099	4495.29
648.292	4628.41
648.485	4530.11
648.678	4462.52
648.871	4380.61
649.064	4392.89
649.256	4419.52
649.449	4358.08
649.642	4298.69
649.835	4317.12
650.027	4378.56
650.22	4349.89
650.413	4235.2
650.605	4325.31
650.798	4235.2
650.991	4102.08
651.183	4155.33
651.376	4081.6
651.568	4184
651.761	4014.02
651.954	3977.16
652.146	3921.86
652.339	4003.78
652.531	3983.3
652.724	3950.53
652.916	3837.89
653.109	3833.8
653.301	3895.24
653.494	3971.01
653.686	3747.78
653.879	3837.89
654.071	3878.85
654.263	3766.21
654.456	3692.49
654.648	3786.69
654.84	3721.16
655.033	3749.83
655.225	3594.19
655.417	3741.64
655.61	3581.9
655.802	3592.14
655.994	3473.36
656.186	3616.71
656.379	3489.74
656.571	3643.34
656.763	3514.31
656.955	3362.76
657.148	3373
657.34	3375.05
657.532	3203.02
657.724	3364.81
657.916	3379.15
658.108	3430.35
658.3	3260.37
658.492	3221.45
658.684	3174.35
658.876	3262.41
659.068	3448.78
659.26	3200.98
659.452	3108.82
659.644	3076.05
659.836	3051.47
660.028	3037.14
660.22	3096.53
660.412	3000.27
660.604	2998.23
660.796	2973.65
660.988	2998.23
661.18	2998.23
661.372	2969.55
661.563	2875.35
661.755	2901.97
661.947	2906.07
662.139	2863.06
662.331	2908.12
662.522	2799.57
662.714	2783.19
662.906	2844.63
663.097	2705.37
663.289	2797.53
663.481	2738.13
663.673	2781.14
663.864	2695.13
664.056	2574.3
664.247	2736.09
664.439	2668.5
664.631	2643.93
664.822	2711.51
665.014	2586.58
665.205	2592.73
665.397	2633.69
665.588	2535.39
665.78	2506.71
665.971	2519
666.163	2527.19
666.354	2529.24
666.546	2535.39
666.737	2461.66
666.929	2418.65
667.12	2404.32
667.311	2355.16
667.503	2400.22
667.694	2508.76
667.885	2453.47
668.077	2377.69
668.268	2426.84
668.459	2400.22
668.651	2346.97
668.842	2365.4
669.033	2371.55
669.224	2228.19
669.416	2328.54
669.607	2242.53
669.798	2287.58
669.989	2277.34
670.18	2265.05
670.371	2314.2
670.563	2291.68
670.754	2275.29
670.945	2222.05
671.136	2312.16
671.327	2273.25
671.518	2111.46
671.709	2142.18
671.9	2318.3
672.091	2142.18
672.282	2193.37
672.473	2172.89
672.664	2181.09
672.855	2242.53
673.046	2041.82
673.237	2162.65
673.428	2170.85
673.619	2052.06
673.809	2025.44
674	1992.67
674.191	2150.37
674.382	2133.98
674.573	2041.82
674.764	2002.91
674.954	2084.83
675.145	1964
675.336	2068.45
675.527	2027.49
675.717	2107.36
675.908	1927.14
676.099	1941.47
676.289	1998.82
676.48	1910.75
676.671	1982.43
676.861	1947.62
677.052	1955.81
677.243	1787.88
677.433	2107.36
677.624	2011.11
677.814	1964
678.005	2031.58
678.195	1875.94
678.386	1933.28
678.576	1865.7
678.767	1918.95
678.957	1867.75
679.148	1873.89
679.338	1884.13
679.529	1810.4
679.719	1820.64
679.909	1910.75
680.1	1871.84
680.29	2013.15
680.481	1974.24
680.671	1882.08
680.861	1914.85
681.052	1789.92
681.242	1873.89
681.432	1837.03
681.622	1677.29
681.813	1794.02
682.003	1826.79
682.193	1892.32
682.383	1867.75
682.573	1773.54
682.764	1742.82
682.954	1900.52
683.144	1863.65
683.334	1781.73
683.524	1939.43
683.714	1722.34
683.904	1761.25
684.094	1828.84
684.284	1777.64
684.474	1814.5
684.664	1894.37
684.854	1837.03
685.044	1812.45
685.234	1740.77
685.424	1826.79
685.614	1726.44
685.804	1839.08
685.994	1810.4
686.184	1753.06
686.374	1736.68
686.564	1703.91
686.753	1726.44
686.943	1886.18
687.133	1771.49
687.323	1808.36
687.513	1736.68
687.702	1644.52
687.892	1791.97
688.082	1828.84
688.272	1794.02
688.461	1755.11
688.651	1798.12
688.841	1732.58
689.03	1691.62
689.22	1759.21
689.41	1759.21
689.599	1810.4
689.789	1689.57
689.979	1748.97
690.168	1718.25
690.358	1630.18
690.547	1771.49
690.737	1714.15
690.926	1722.34
691.116	1646.57
691.305	1757.16
691.495	1691.62
691.684	1720.29
691.874	1816.55
692.063	1703.91
692.252	1695.72
692.442	1673.19
692.631	1667.05
692.82	1654.76
693.01	1667.05
693.199	1689.57
693.388	1755.11
693.578	1695.72
693.767	1697.77
693.956	1720.29
694.146	1671.14
694.335	1685.48
694.524	1718.25
694.713	1658.85
694.902	1773.54
695.092	1624.04
695.281	1714.15
695.47	1748.97
695.659	1767.4
695.848	1714.15
696.037	1720.29
696.226	1646.57
696.415	1705.96
696.604	1759.21
696.793	1613.8
696.982	1699.81
697.171	1746.92
697.36	1765.35
697.549	1810.4
697.738	1708.01
697.927	1705.96
698.116	1740.77
698.305	1624.04
698.494	1689.57
698.683	1669.09
698.872	1710.05
699.061	1751.01
699.25	1755.11
699.438	1808.36
699.627	1759.21
699.816	1732.58
700.005	1765.35
700.193	1726.44
700.382	1714.15
700.571	1755.11
700.76	1767.4
700.948	1763.3
701.137	1656.81
701.326	1769.44
701.514	1632.23
701.703	1695.72
701.892	1710.05
702.08	1751.01
702.269	1679.33
702.457	1759.21
702.646	1712.1
702.834	1779.68
703.023	1742.82
703.212	1644.52
703.4	1748.97
703.589	1636.33
703.777	1695.72
703.965	1703.91
704.154	1630.18
704.342	1748.97
704.531	1626.09
704.719	1634.28
704.907	1601.51
705.096	1701.86
705.284	1662.95
705.472	1638.37
705.661	1687.53
705.849	1628.14
706.037	1658.85
706.226	1626.09
706.414	1644.52
706.602	1613.8
706.79	1740.77
706.979	1585.13
707.167	1624.04
707.355	1570.79
707.543	1722.34
707.731	1652.71
707.919	1611.75
708.107	1685.48
708.296	1658.85
708.484	1613.8
708.672	1587.18
708.86	1634.28
709.048	1560.55
709.236	1673.19
709.424	1595.37
709.612	1544.17
709.8	1544.17
709.988	1562.6
710.176	1513.45
710.364	1615.85
710.551	1486.83
710.739	1550.31
710.927	1533.93
711.115	1519.59
711.303	1533.93
711.491	1452.01
711.679	1527.78
711.866	1484.78
712.054	1503.21
712.242	1501.16
712.43	1458.15
712.617	1550.31
712.805	1462.25
712.993	1503.21
713.181	1492.97
713.368	1439.72
713.556	1392.62
713.744	1427.43
713.931	1566.7
714.119	1454.06
714.306	1390.57
714.494	1404.91
714.682	1394.67
714.869	1503.21
715.057	1519.59
715.244	1335.28
715.432	1417.19
715.619	1394.67
715.807	1425.39
715.994	1449.96
716.182	1286.12
716.369	1423.34
716.556	1384.43
716.744	1294.32
716.931	1429.48
717.119	1341.42
717.306	1421.29
717.493	1298.41
717.681	1474.54
717.868	1335.28
718.055	1341.42
718.242	1318.89
718.43	1261.55
718.617	1392.62
718.804	1341.42
718.991	1392.62
719.179	1292.27
719.366	1286.12
719.553	1292.27
719.74	1294.32
719.927	1325.04
720.114	1351.66
720.301	1331.18
720.488	1273.84
720.676	1294.32
720.863	1304.56
721.05	1376.23
721.237	1218.54
721.424	1308.65
721.611	1267.69
721.798	1183.73
721.985	1189.87
722.172	1261.55
722.358	1206.25
722.545	1196.01
722.732	1243.12
722.919	1245.16
723.106	1191.92
723.293	1236.97
723.48	1181.68
723.667	1179.63
723.853	1189.87
724.04	1251.31
724.227	1208.3
724.414	1126.38
724.6	1171.44
724.787	1234.93
724.974	1185.77
725.161	1306.6
725.347	1107.95
725.534	1193.97
725.72	1167.34
725.907	1153.01
726.094	1116.14
726.28	1189.87
726.467	1044.46
726.653	1153.01
726.84	1253.36
727.027	1030.13
727.213	1075.18
727.4	1122.29
727.586	1101.81
727.773	1118.19
727.959	1140.72
728.145	1091.57
728.332	1062.9
728.518	1120.24
728.705	1091.57
728.891	1050.61
729.077	1103.86
729.264	1048.56
729.45	1118.19
729.636	1003.5
729.823	1101.81
730.009	946.16
730.195	1040.37
730.382	1110
730.568	993.26
730.754	1009.65
730.94	1142.77
731.126	1073.14
731.313	1017.84
731.499	1075.18
731.685	1069.04
731.871	1105.9
732.057	1005.55
732.243	1017.84
732.429	1023.98
732.615	1126.38
732.801	1034.22
732.987	1028.08
733.173	1081.33
733.359	1060.85
733.545	950.26
733.731	919.54
733.917	1062.9
734.103	1062.9
734.289	1042.42
734.475	1015.79
734.661	1005.55
734.847	1023.98
735.033	1110
735.219	991.22
735.404	1073.14
735.59	995.31
735.776	987.12
735.962	1021.94
736.148	1017.84
736.333	985.07
736.519	888.82
736.705	894.96
736.89	892.91
737.076	956.4
737.262	942.07
737.447	1005.55
737.633	935.92
737.819	958.45
738.004	854
738.19	864.24
738.375	905.2
738.561	974.83
738.747	911.35
738.932	937.97
739.118	933.87
739.303	888.82
739.489	948.21
739.674	899.06
739.859	901.11
740.045	964.59
740.23	899.06
740.416	991.22
740.601	825.33
740.786	849.91
740.972	878.58
741.157	913.39
741.342	847.86
741.528	960.5
741.713	782.32
741.898	862.19
742.084	892.91
742.269	890.87
742.454	880.63
742.639	882.67
742.824	753.65
743.01	841.72
743.195	886.77
743.38	860.15
743.565	837.62
743.75	825.33
743.935	786.42
744.12	819.19
744.305	815.09
744.49	737.27
744.675	774.13
744.86	813.04
745.045	772.08
745.23	819.19
745.415	784.37
745.6	780.28
745.785	765.94
745.97	772.08
746.155	774.13
746.34	698.36
746.525	720.88
746.71	786.42
746.895	753.65
747.079	747.51
747.264	825.33
747.449	737.27
747.634	727.03
747.819	753.65
748.003	702.45
748.188	618.49
748.373	782.32
748.557	772.08
748.742	714.74
748.927	688.12
749.111	749.56
749.296	745.46
749.481	677.88
749.665	696.31
749.85	735.22
750.034	739.32
750.219	667.64
750.404	548.86
750.588	636.92
750.773	643.06
750.957	710.65
751.141	647.16
751.326	591.86
751.51	598.01
751.695	622.58
751.879	647.16
752.064	567.29
752.248	636.92
752.432	708.6
752.617	598.01
752.801	612.34
752.985	587.77
753.17	632.82
753.354	571.38
753.538	651.25
753.722	516.09
753.907	542.71
754.091	587.77
754.275	643.06
754.459	563.19
754.643	548.86
754.828	606.2
755.012	632.82
755.196	624.63
755.38	546.81
755.564	487.42
755.748	524.28
755.932	475.13
756.116	598.01
756.3	628.73
756.484	511.99
756.668	573.43
756.852	593.91
757.036	507.9
757.22	524.28
757.404	491.51
757.588	491.51
757.772	413.69
757.956	546.81
758.14	526.33
758.323	448.51
758.507	526.33
758.691	479.22
758.875	546.81
759.059	409.59
759.242	516.09
759.426	528.38
759.61	481.27
759.794	507.9
759.977	493.56
760.161	495.61
760.345	497.66
760.528	548.86
760.712	468.98
760.895	505.85
761.079	405.5
761.263	608.25
761.446	434.17
761.63	475.13
761.813	458.74
761.997	456.7
762.18	460.79
762.364	409.59
762.547	442.36
762.731	446.46
762.914	430.07
763.098	450.55
763.281	468.98
763.464	385.02
763.648	477.18
763.831	366.59
764.015	370.68
764.198	372.73
764.381	430.07
764.564	397.31
764.748	387.07
764.931	395.26
765.114	428.03
765.297	411.64
765.481	401.4
765.664	501.75
765.847	380.92
766.03	405.5
766.213	421.88
766.397	421.88
766.58	436.22
766.763	372.73
766.946	368.63
767.129	378.87
767.312	356.35
767.495	415.74
767.678	421.88
767.861	423.93
768.044	378.87
768.227	425.98
768.41	430.07
768.593	407.55
768.776	491.51
768.959	411.64
769.142	438.27
769.324	409.59
769.507	327.67
769.69	380.92
769.873	346.11
770.056	399.35
770.239	389.11
770.421	421.88
770.604	382.97
770.787	364.54
770.97	409.59
771.152	337.91
771.335	362.49
771.518	421.88
771.7	425.98
771.883	327.67
772.066	360.44
772.248	387.07
772.431	342.01
772.613	382.97
772.796	348.15
772.978	352.25
773.161	387.07
773.343	399.35
773.526	313.34
773.708	262.14
773.891	352.25
774.073	276.48
774.256	405.5
774.438	311.29
774.621	337.91
774.803	307.2
774.985	253.95
775.168	333.82
775.35	348.15
775.532	378.87
775.715	358.39
775.897	307.2
776.079	354.3
776.261	288.76
776.444	333.82
776.626	286.72
776.808	317.44
776.99	356.35
777.173	321.53
777.355	286.72
777.537	280.57
777.719	317.44
777.901	286.72
778.083	294.91
778.265	290.81
778.447	393.21
778.629	278.52
778.811	319.48
778.993	319.48
779.175	296.96
779.357	329.72
779.539	290.81
779.721	196.61
779.903	284.67
780.085	397.31
780.267	225.28
780.449	282.62
780.631	237.56
780.812	352.25
780.994	305.15
781.176	258.04
781.358	243.71
781.54	307.2
781.721	260.09
781.903	237.56
782.085	266.24
782.267	237.56
782.448	235.52
782.63	231.42
782.812	241.66
782.993	309.24
783.175	305.15
783.357	155.65
783.538	215.04
783.72	292.86
783.901	264.19
784.083	288.76
784.264	227.32
784.446	190.46
784.627	208.89
784.809	219.13
784.99	319.48
785.172	249.85
785.353	215.04
785.535	159.74
785.716	192.51
785.897	243.71
786.079	231.42
786.26	225.28
786.441	219.13
786.623	161.79
786.804	202.75
786.985	190.46
787.167	182.27
787.348	176.13
787.529	243.71
787.71	223.23
787.891	233.47
788.073	208.89
788.254	178.17
788.435	145.41
788.616	118.78
788.797	182.27
788.978	165.89
789.159	126.97
789.34	223.23
789.522	147.45
789.703	217.08
789.884	167.93
790.065	114.69
790.246	180.22
790.427	143.36
790.607	135.17
790.788	133.12
790.969	239.61
791.15	172.03
791.331	190.46
791.512	212.99
791.693	106.49
791.874	198.65
792.054	239.61
792.235	235.52
792.416	137.21
792.597	155.65
792.778	184.32
792.958	153.6
793.139	165.89
793.32	157.69
793.5	129.02
793.681	174.08
793.862	133.12
794.042	155.65
794.223	141.31
794.404	153.6
794.584	137.21
794.765	239.61
794.945	116.73
795.126	217.08
795.306	116.73
795.487	102.4
795.667	139.26
795.848	106.49
796.028	225.28
796.209	122.88
796.389	116.73
796.57	147.45
796.75	112.64
796.93	139.26
797.111	149.5
797.291	141.31
797.471	122.88
797.652	155.65
797.832	61.44
798.012	98.3
798.192	167.93
798.373	114.69
798.553	143.36
798.733	223.23
798.913	147.45
799.093	94.21
799.274	88.06
799.454	147.45
799.634	141.31
799.814	151.55
799.994	161.79
800.174	131.07
800.354	53.25
800.534	122.88
800.714	161.79
800.894	65.54
801.074	159.74
801.254	65.54
801.434	73.73
801.614	145.41
801.794	102.4
801.974	337.91
802.154	153.6
802.334	102.4
802.514	90.11
802.693	172.03
802.873	110.59
803.053	190.46
803.233	137.21
803.413	102.4
803.592	102.4
803.772	110.59
803.952	126.97
804.131	135.17
804.311	75.77
804.491	88.06
804.67	133.12
804.85	151.55
805.03	65.54
805.209	126.97
805.389	59.39
805.568	143.36
805.748	139.26
805.928	178.17
806.107	65.54
806.287	112.64
806.466	53.25
806.646	172.03
806.825	106.49
807.004	67.58
807.184	53.25
807.363	32.77
807.543	149.5
807.722	155.65
807.901	186.37
808.081	118.78
808.26	83.97
808.439	83.97
808.619	135.17
808.798	79.87
808.977	114.69
809.156	67.58
809.336	63.49
809.515	51.2
809.694	61.44
809.873	126.97
810.052	65.54
810.231	108.54
810.411	90.11
810.59	110.59
810.769	98.3
810.948	98.3
811.127	14.34
811.306	104.45
811.485	104.45
811.664	135.17
811.843	149.5
812.022	94.21
812.201	77.82
812.38	53.25
812.559	114.69
812.737	112.64
812.916	133.12
813.095	139.26
813.274	110.59
813.453	116.73
813.632	61.44
813.811	77.82
813.989	169.98
814.168	51.2
814.347	102.4
814.526	47.1
814.704	47.1
814.883	77.82
815.062	102.4
815.24	73.73
815.419	61.44
815.598	24.58
815.776	65.54
815.955	104.45
816.133	112.64
816.312	118.78
816.49	71.68
816.669	141.31
816.847	98.3
817.026	69.63
817.204	71.68
817.383	83.97
817.561	49.15
817.74	57.34
817.918	77.82
818.097	81.92
818.275	10.24
818.453	73.73
818.632	8.19
818.81	79.87
818.988	28.67
819.167	94.21
819.345	86.01
819.523	38.91
819.701	104.45
819.879	114.69
820.058	96.25
820.236	163.84
820.414	83.97
820.592	86.01
820.77	49.15
820.948	40.96
821.127	108.54
821.305	81.92
821.483	36.86
821.661	88.06
821.839	83.97
822.017	51.2
822.195	-10.24
822.373	88.06
822.551	12.29
822.729	90.11
822.907	22.53
823.085	73.73
823.262	32.77
823.44	65.54
823.618	0
823.796	38.91
823.974	145.41
824.152	77.82
824.329	81.92
824.507	120.83
824.685	94.21
824.863	104.45
825.04	67.58
825.218	110.59
825.396	67.58
825.574	30.72
825.751	124.93
825.929	24.58
826.107	18.43
826.284	71.68
826.462	34.82
826.639	22.53
826.817	73.73
826.994	47.1
827.172	63.49
827.349	67.58
827.527	40.96
827.704	98.3
827.882	75.77
828.059	40.96
828.237	26.62
828.414	83.97
828.591	61.44
828.769	88.06
828.946	34.82
829.124	71.68
829.301	106.49
829.478	145.41
829.655	110.59
829.833	92.16
830.01	45.06
830.187	51.2
830.364	108.54
830.542	47.1
830.719	110.59
830.896	43.01
831.073	40.96
831.25	22.53
831.427	133.12
831.604	63.49
831.782	53.25
831.959	88.06
832.136	16.38
832.313	43.01
832.49	47.1
832.667	63.49
832.844	63.49
833.021	114.69
833.198	114.69
833.374	-26.62
833.551	88.06
833.728	65.54
833.905	61.44
834.082	90.11
834.259	102.4
834.436	34.82
834.612	57.34
834.789	174.08
834.966	20.48
835.143	92.16
835.319	77.82
835.496	49.15
835.673	36.86
835.85	116.73
836.026	-6.14
836.203	26.62
836.38	26.62
836.556	126.97
836.733	20.48
836.909	43.01
837.086	-16.38
837.262	43.01
837.439	94.21
837.616	22.53
837.792	47.1
837.968	18.43
838.145	38.91
838.321	114.69
838.498	-4.1
838.674	53.25
838.851	88.06
839.027	24.58
839.203	43.01
839.38	83.97
839.556	8.19
839.732	32.77
839.909	131.07
840.085	71.68
840.261	-22.53
840.437	-12.29
840.614	55.3
840.79	122.88
840.966	86.01
841.142	8.19
841.318	8.19
841.494	90.11
841.671	110.59
841.847	102.4
842.023	40.96
842.199	61.44
842.375	-8.19
842.551	28.67
842.727	112.64
842.903	40.96
843.079	45.06
843.255	147.45
843.431	10.24
843.607	102.4
843.783	49.15
843.959	20.48
844.134	63.49
844.31	0
844.486	69.63
844.662	69.63
844.838	26.62
845.013	63.49
845.189	-10.24
845.365	-16.38
845.541	14.34
845.716	45.06
845.892	14.34
846.068	28.67
846.244	47.1
846.419	28.67
846.595	30.72
846.77	55.3
846.946	-12.29
847.122	-10.24
847.297	22.53
847.473	45.06
847.648	-28.67
847.824	96.25
847.999	61.44
848.175	75.77
848.35	12.29
848.526	98.3
848.701	104.45
848.876	51.2
849.052	73.73
849.227	28.67
849.403	0
849.578	69.63
849.753	61.44
849.929	2.05
850.104	-47.1
850.279	114.69
850.454	79.87
850.63	100.35
850.805	51.2
850.98	47.1
851.155	88.06
851.33	77.82
851.505	20.48
851.681	75.77
851.856	53.25
852.031	28.67
852.206	28.67
852.381	-6.14
852.556	77.82
852.731	53.25
852.906	30.72
853.081	24.58
853.256	12.29
853.431	40.96
853.606	-8.19
853.781	32.77
853.956	86.01
854.131	30.72
854.305	36.86
854.48	47.1
854.655	12.29
854.83	81.92
855.005	40.96
855.18	-4.1
855.354	-18.43
855.529	81.92
855.704	36.86
855.879	83.97
856.053	-20.48
856.228	36.86
856.403	-102.4
856.577	4.1
856.752	30.72
856.926	-18.43
857.101	73.73
857.276	-4.1
857.45	49.15
857.625	94.21
857.799	4.1
857.974	26.62
858.148	6.14
858.323	-6.14
858.497	32.77
858.672	4.1
858.846	26.62
859.02	88.06
859.195	-4.1
859.369	2.05
859.543	24.58
859.718	69.63
859.892	-36.86
860.066	32.77
860.241	22.53
860.415	43.01
860.589	59.39
860.763	47.1
860.938	6.14
861.112	28.67
861.286	28.67
861.46	22.53
861.634	-8.19
861.808	55.3
861.982	116.73
862.157	8.19
862.331	-18.43
862.505	69.63
862.679	81.92
862.853	45.06
863.027	38.91
863.201	81.92
863.375	88.06
863.549	16.38
863.722	63.49
863.896	57.34
864.07	49.15
864.244	67.58
864.418	43.01
864.592	47.1
864.766	-30.72
864.939	40.96
865.113	71.68
865.287	40.96
865.461	14.34
865.634	67.58
865.808	-4.1
865.982	28.67
866.156	6.14
866.329	90.11
866.503	43.01
866.676	45.06
866.85	86.01
867.024	45.06
867.197	30.72
867.371	40.96
867.544	-24.58
867.718	45.06
867.891	0
868.065	12.29
868.238	55.3
868.412	0
868.585	47.1
868.759	53.25
868.932	49.15
869.105	24.58
869.279	14.34
869.452	57.34
869.625	10.24
869.799	26.62
869.972	28.67
870.145	-4.1
870.319	16.38
870.492	24.58
870.665	53.25
870.838	24.58
871.011	14.34
871.185	-16.38
871.358	10.24
871.531	26.62
871.704	59.39
871.877	18.43
872.05	24.58
872.223	18.43
872.396	45.06
872.569	67.58
872.742	-45.06
872.915	20.48
873.088	40.96
873.261	28.67
873.434	18.43
873.607	57.34
873.78	28.67
873.953	32.77
874.126	-30.72
874.299	49.15
874.471	-26.62
874.644	-22.53
874.817	12.29
874.99	73.73
875.163	-36.86
875.335	-6.14
875.508	71.68
875.681	77.82
875.853	-16.38
876.026	4.1
876.199	-2.05
876.371	28.67
876.544	28.67
876.717	36.86
876.889	-73.73
877.062	20.48
877.234	28.67
877.407	8.19
877.579	43.01
877.752	94.21
877.924	88.06
878.097	71.68
878.269	-49.15
878.442	55.3
878.614	10.24
878.786	26.62
878.959	12.29
879.131	18.43
879.303	-2.05
879.476	67.58
879.648	-10.24
879.82	16.38
879.993	-26.62
880.165	6.14
880.337	20.48
880.509	0
880.681	2.05
880.854	-18.43
881.026	45.06
881.198	40.96
881.37	73.73
881.542	0
881.714	30.72
881.886	-18.43
882.058	36.86
882.23	-8.19
882.402	38.91
882.574	-2.05
882.746	-20.48
882.918	71.68
883.09	-32.77
883.262	4.1
883.434	36.86
883.606	-53.25
883.778	26.62
883.95	71.68
884.122	49.15
884.293	79.87
884.465	63.49
884.637	98.3
884.809	40.96
884.98	43.01
885.152	-2.05
885.324	-14.34
885.496	-36.86
885.667	73.73
885.839	10.24
886.011	-6.14
886.182	8.19
886.354	16.38
886.525	40.96
886.697	53.25
886.869	-16.38
887.04	57.34
887.212	28.67
887.383	69.63
887.555	18.43
887.726	32.77
887.897	10.24
888.069	118.78
888.24	30.72
888.412	-16.38
888.583	6.14
888.754	61.44
888.926	71.68
889.097	28.67
889.268	51.2
889.44	-20.48
889.611	-6.14
889.782	14.34
889.953	49.15
890.125	34.82
890.296	-8.19
890.467	59.39
890.638	4.1
890.809	55.3
890.98	20.48
891.151	-22.53
891.323	-4.1
891.494	83.97
891.665	2.05
891.836	59.39
892.007	40.96
892.178	8.19
892.349	77.82
892.52	32.77
892.691	92.16
892.862	4.1
893.032	2.05
893.203	-40.96
893.374	49.15
893.545	12.29
893.716	-26.62
893.887	28.67
894.057	-18.43
894.228	75.77
894.399	69.63
894.57	-18.43
894.74	-28.67
894.911	8.19
895.082	12.29
895.253	24.58
895.423	6.14
895.594	104.45
895.764	14.34
895.935	59.39
896.106	47.1
896.276	71.68
896.447	6.14
896.617	20.48
896.788	-8.19
896.958	63.49
897.129	69.63
897.299	-40.96
897.47	0
897.64	6.14
897.81	106.49
897.981	77.82
898.151	-10.24
898.322	28.67
898.492	79.87
898.662	26.62
898.832	40.96
899.003	-16.38
899.173	38.91
899.343	4.1
899.513	40.96
