Data from USB4F104151__108__13-54-50-828.txt Node

Date: Thu Mar 13 13:54:50 EDT 2025
User: louis
Spectrometer: USB4F10415
Trigger mode: 4
Integration Time (sec): 1.000000E-2
Scans to average: 1
Electric dark correction enabled: true
Nonlinearity correction enabled: false
Boxcar width: 0
XAxis mode: Wavelengths
Number of Pixels in Spectrum: 3648
>>>>>Begin Spectral Data<<<<<
178.204	23.21
178.424	23.21
178.644	23.21
178.864	-81.24
179.084	-52.56
179.304	-13.65
179.524	55.98
179.744	-99.67
179.964	-13.65
180.184	-40.28
180.404	39.59
180.624	8.87
180.844	49.83
181.064	12.97
181.283	-32.08
181.503	23.21
181.723	8.87
181.943	-13.65
182.163	-66.9
182.383	41.64
182.602	-5.46
182.822	-11.61
183.042	70.31
183.262	-3.41
183.482	21.16
183.701	-42.32
183.921	41.64
184.141	-30.04
184.361	39.59
184.58	82.6
184.8	-17.75
185.02	72.36
185.239	121.51
185.459	-7.51
185.679	6.83
185.898	35.5
186.118	-36.18
186.338	17.07
186.557	-1.37
186.777	-34.13
186.997	-11.61
187.216	10.92
187.436	6.83
187.655	41.64
187.875	0.68
188.095	53.93
188.314	72.36
188.534	8.87
188.753	47.79
188.973	-7.51
189.192	43.69
189.412	21.16
189.631	58.03
189.851	29.35
190.07	113.32
190.29	-52.56
190.509	45.74
190.729	-11.61
190.948	33.45
191.168	31.4
191.387	33.45
191.607	-7.51
191.826	-5.46
192.045	-32.08
192.265	-9.56
192.484	19.11
192.704	70.31
192.923	66.22
193.142	-23.89
193.362	72.36
193.581	47.79
193.8	29.35
194.02	15.02
194.239	31.4
194.458	12.97
194.678	23.21
194.897	64.17
195.116	49.83
195.335	-1.37
195.555	-3.41
195.774	101.03
195.993	-13.65
196.212	-5.46
196.432	2.73
196.651	15.02
196.87	62.12
197.089	131.75
197.308	55.98
197.528	84.65
197.747	4.78
197.966	39.59
198.185	25.26
198.404	-32.08
198.623	53.93
198.842	6.83
199.062	21.16
199.281	51.88
199.5	-17.75
199.719	31.4
199.938	33.45
200.157	19.11
200.376	19.11
200.595	-3.41
200.814	21.16
201.033	-38.23
201.252	2.73
201.471	-17.75
201.69	10.92
201.909	33.45
202.128	-1.37
202.347	12.97
202.566	-62.8
202.785	-93.52
203.004	53.93
203.223	15.02
203.442	94.89
203.661	-1.37
203.879	49.83
204.098	-21.85
204.317	-1.37
204.536	80.55
204.755	51.88
204.974	49.83
205.193	66.22
205.411	66.22
205.63	-50.52
205.849	4.78
206.068	58.03
206.287	15.02
206.505	68.27
206.724	-42.32
206.943	25.26
207.162	-50.52
207.381	27.31
207.599	68.27
207.818	27.31
208.037	23.21
208.255	-13.65
208.474	58.03
208.693	64.17
208.911	-13.65
209.13	90.79
209.349	74.41
209.567	-19.8
209.786	6.83
210.005	-27.99
210.223	-52.56
210.442	51.88
210.661	51.88
210.879	72.36
211.098	45.74
211.316	27.31
211.535	105.13
211.753	76.46
211.972	19.11
212.191	-7.51
212.409	86.7
212.628	6.83
212.846	41.64
213.065	0.68
213.283	68.27
213.502	19.11
213.72	68.27
213.938	43.69
214.157	-68.95
214.375	72.36
214.594	96.94
214.812	-19.8
215.031	-9.56
215.249	-32.08
215.467	86.7
215.686	-1.37
215.904	25.26
216.122	96.94
216.341	76.46
216.559	72.36
216.778	25.26
216.996	64.17
217.214	25.26
217.432	37.55
217.651	6.83
217.869	-25.94
218.087	-25.94
218.306	-83.28
218.524	60.07
218.742	53.93
218.96	64.17
219.179	15.02
219.397	39.59
219.615	45.74
219.833	35.5
220.051	2.73
220.27	33.45
220.488	15.02
220.706	31.4
220.924	51.88
221.142	49.83
221.36	31.4
221.578	-3.41
221.796	-11.61
222.015	0.68
222.233	-38.23
222.451	96.94
222.669	31.4
222.887	29.35
223.105	2.73
223.323	39.59
223.541	-1.37
223.759	-5.46
223.977	66.22
224.195	49.83
224.413	-36.18
224.631	-1.37
224.849	25.26
225.067	-32.08
225.285	84.65
225.503	37.55
225.721	29.35
225.939	-17.75
226.157	-42.32
226.375	47.79
226.592	-5.46
226.81	0.68
227.028	47.79
227.246	55.98
227.464	-23.89
227.682	-17.75
227.9	35.5
228.117	47.79
228.335	64.17
228.553	8.87
228.771	29.35
228.989	72.36
229.206	0.68
229.424	2.73
229.642	-42.32
229.86	47.79
230.077	-13.65
230.295	-19.8
230.513	-21.85
230.731	19.11
230.948	78.51
231.166	31.4
231.384	17.07
231.601	88.75
231.819	-23.89
232.037	25.26
232.254	-46.42
232.472	-42.32
232.689	-32.08
232.907	70.31
233.125	-40.28
233.342	58.03
233.56	8.87
233.777	10.92
233.995	39.59
234.213	76.46
234.43	6.83
234.648	47.79
234.865	58.03
235.083	-7.51
235.3	64.17
235.518	47.79
235.735	19.11
235.953	53.93
236.17	-23.89
236.388	29.35
236.605	47.79
236.822	78.51
237.04	27.31
237.257	10.92
237.475	-19.8
237.692	25.26
237.909	43.69
238.127	58.03
238.344	47.79
238.562	62.12
238.779	2.73
238.996	76.46
239.214	39.59
239.431	62.12
239.648	76.46
239.865	-46.42
240.083	15.02
240.3	-13.65
240.517	10.92
240.735	10.92
240.952	37.55
241.169	-36.18
241.386	-40.28
241.603	37.55
241.821	-21.85
242.038	37.55
242.255	-3.41
242.472	-44.37
242.689	-36.18
242.907	19.11
243.124	4.78
243.341	47.79
243.558	43.69
243.775	64.17
243.992	19.11
244.209	39.59
244.426	49.83
244.643	17.07
244.86	15.02
245.078	27.31
245.295	109.23
245.512	76.46
245.729	51.88
245.946	-34.13
246.163	10.92
246.38	43.69
246.597	2.73
246.814	31.4
247.031	-7.51
247.248	-44.37
247.464	27.31
247.681	27.31
247.898	17.07
248.115	49.83
248.332	2.73
248.549	-42.32
248.766	2.73
248.983	-25.94
249.2	-30.04
249.417	12.97
249.633	21.16
249.85	8.87
250.067	-42.32
250.284	58.03
250.501	-3.41
250.717	45.74
250.934	-23.89
251.151	51.88
251.368	15.02
251.585	27.31
251.801	47.79
252.018	19.11
252.235	70.31
252.451	33.45
252.668	29.35
252.885	78.51
253.102	-23.89
253.318	-9.56
253.535	-32.08
253.752	-15.7
253.968	101.03
254.185	8.87
254.401	37.55
254.618	-17.75
254.835	10.92
255.051	35.5
255.268	45.74
255.484	-42.32
255.701	29.35
255.917	4.78
256.134	-46.42
256.351	47.79
256.567	-30.04
256.784	2.73
257	-46.42
257.217	25.26
257.433	21.16
257.65	31.4
257.866	41.64
258.082	21.16
258.299	35.5
258.515	80.55
258.732	41.64
258.948	29.35
259.165	31.4
259.381	-1.37
259.597	6.83
259.814	19.11
260.03	8.87
260.246	-5.46
260.463	62.12
260.679	15.02
260.895	47.79
261.112	55.98
261.328	-1.37
261.544	-5.46
261.761	152.23
261.977	17.07
262.193	-7.51
262.409	35.5
262.626	2.73
262.842	35.5
263.058	-19.8
263.274	80.55
263.49	62.12
263.707	37.55
263.923	-15.7
264.139	12.97
264.355	37.55
264.571	17.07
264.787	37.55
265.004	64.17
265.22	15.02
265.436	43.69
265.652	2.73
265.868	62.12
266.084	45.74
266.3	21.16
266.516	6.83
266.732	-11.61
266.948	2.73
267.164	-5.46
267.38	23.21
267.596	43.69
267.812	-3.41
268.028	68.27
268.244	-32.08
268.46	78.51
268.676	43.69
268.892	84.65
269.108	-46.42
269.324	15.02
269.54	6.83
269.756	6.83
269.972	39.59
270.188	-40.28
270.403	25.26
270.619	31.4
270.835	72.36
271.051	55.98
271.267	12.97
271.483	25.26
271.698	12.97
271.914	41.64
272.13	6.83
272.346	-21.85
272.562	35.5
272.777	88.75
272.993	2.73
273.209	47.79
273.425	64.17
273.64	23.21
273.856	82.6
274.072	27.31
274.287	-11.61
274.503	21.16
274.719	-40.28
274.934	35.5
275.15	-40.28
275.366	-34.13
275.581	15.02
275.797	41.64
276.012	-44.37
276.228	25.26
276.444	25.26
276.659	80.55
276.875	31.4
277.09	-46.42
277.306	-11.61
277.521	27.31
277.737	64.17
277.952	51.88
278.168	-9.56
278.383	121.51
278.599	-1.37
278.814	19.11
279.03	29.35
279.245	35.5
279.461	6.83
279.676	115.37
279.892	-50.52
280.107	45.74
280.322	-7.51
280.538	-34.13
280.753	8.87
280.969	-3.41
281.184	-1.37
281.399	62.12
281.615	68.27
281.83	117.42
282.045	72.36
282.26	-5.46
282.476	39.59
282.691	25.26
282.906	64.17
283.122	64.17
283.337	101.03
283.552	10.92
283.767	17.07
283.983	6.83
284.198	23.21
284.413	-5.46
284.628	2.73
284.843	53.93
285.058	29.35
285.274	45.74
285.489	37.55
285.704	-19.8
285.919	19.11
286.134	58.03
286.349	31.4
286.564	78.51
286.779	23.21
286.995	-58.71
287.21	21.16
287.425	23.21
287.64	21.16
287.855	-11.61
288.07	17.07
288.285	31.4
288.5	96.94
288.715	64.17
288.93	47.79
289.145	62.12
289.36	72.36
289.575	-15.7
289.79	47.79
290.004	41.64
290.219	17.07
290.434	98.99
290.649	82.6
290.864	58.03
291.079	19.11
291.294	51.88
291.509	39.59
291.724	17.07
291.938	64.17
292.153	-19.8
292.368	-30.04
292.583	33.45
292.798	60.07
293.012	55.98
293.227	4.78
293.442	41.64
293.657	47.79
293.871	49.83
294.086	47.79
294.301	-32.08
294.516	27.31
294.73	58.03
294.945	-17.75
295.16	10.92
295.374	43.69
295.589	31.4
295.804	41.64
296.018	8.87
296.233	23.21
296.447	53.93
296.662	98.99
296.877	19.11
297.091	10.92
297.306	8.87
297.52	12.97
297.735	33.45
297.949	43.69
298.164	107.18
298.378	62.12
298.593	4.78
298.807	45.74
299.022	-68.95
299.236	-21.85
299.451	15.02
299.665	-30.04
299.88	21.16
300.094	47.79
300.309	47.79
300.523	27.31
300.737	-34.13
300.952	-7.51
301.166	58.03
301.381	8.87
301.595	29.35
301.809	2.73
302.024	25.26
302.238	10.92
302.452	0.68
302.667	51.88
302.881	19.11
303.095	8.87
303.309	12.97
303.524	-36.18
303.738	96.94
303.952	82.6
304.166	25.26
304.381	-1.37
304.595	17.07
304.809	51.88
305.023	4.78
305.237	41.64
305.452	41.64
305.666	-21.85
305.88	58.03
306.094	23.21
306.308	0.68
306.522	27.31
306.736	96.94
306.95	23.21
307.164	-23.89
307.379	58.03
307.593	39.59
307.807	21.16
308.021	-19.8
308.235	-25.94
308.449	47.79
308.663	37.55
308.877	90.79
309.091	12.97
309.305	49.83
309.519	-32.08
309.733	96.94
309.947	58.03
310.161	21.16
310.374	21.16
310.588	103.08
310.802	33.45
311.016	76.46
311.23	31.4
311.444	47.79
311.658	-7.51
311.872	96.94
312.085	80.55
312.299	39.59
312.513	66.22
312.727	72.36
312.941	43.69
313.154	-30.04
313.368	-42.32
313.582	82.6
313.796	66.22
314.009	8.87
314.223	15.02
314.437	23.21
314.651	0.68
314.864	53.93
315.078	15.02
315.292	12.97
315.505	53.93
315.719	10.92
315.933	29.35
316.146	74.41
316.36	6.83
316.573	80.55
316.787	-40.28
317.001	6.83
317.214	47.79
317.428	8.87
317.641	10.92
317.855	-23.89
318.068	53.93
318.282	-19.8
318.495	88.75
318.709	-36.18
318.922	58.03
319.136	-7.51
319.349	84.65
319.563	-7.51
319.776	17.07
319.99	55.98
320.203	35.5
320.417	-3.41
320.63	53.93
320.843	-9.56
321.057	74.41
321.27	15.02
321.483	-38.23
321.697	35.5
321.91	-32.08
322.124	15.02
322.337	70.31
322.55	53.93
322.763	8.87
322.977	23.21
323.19	43.69
323.403	17.07
323.617	-32.08
323.83	19.11
324.043	33.45
324.256	105.13
324.469	-19.8
324.683	6.83
324.896	-40.28
325.109	25.26
325.322	27.31
325.535	0.68
325.748	88.75
325.962	96.94
326.175	51.88
326.388	6.83
326.601	68.27
326.814	25.26
327.027	10.92
327.24	64.17
327.453	107.18
327.666	27.31
327.879	62.12
328.092	82.6
328.305	-13.65
328.518	10.92
328.731	72.36
328.944	-9.56
329.157	10.92
329.37	-19.8
329.583	86.7
329.796	53.93
330.009	58.03
330.222	15.02
330.435	21.16
330.648	-46.42
330.861	-17.75
331.073	31.4
331.286	82.6
331.499	70.31
331.712	10.92
331.925	12.97
332.138	-19.8
332.35	2.73
332.563	-44.37
332.776	49.83
332.989	0.68
333.202	58.03
333.414	10.92
333.627	39.59
333.84	23.21
334.053	82.6
334.265	25.26
334.478	84.65
334.691	41.64
334.903	41.64
335.116	-19.8
335.329	10.92
335.541	64.17
335.754	58.03
335.966	25.26
336.179	25.26
336.392	19.11
336.604	27.31
336.817	8.87
337.029	10.92
337.242	10.92
337.454	12.97
337.667	6.83
337.88	55.98
338.092	4.78
338.305	84.65
338.517	94.89
338.729	12.97
338.942	80.55
339.154	76.46
339.367	-38.23
339.579	62.12
339.792	-11.61
340.004	39.59
340.217	76.46
340.429	-3.41
340.641	-5.46
340.854	45.74
341.066	12.97
341.278	43.69
341.491	64.17
341.703	-1.37
341.915	-15.7
342.128	41.64
342.34	-11.61
342.552	47.79
342.764	-7.51
342.977	10.92
343.189	-17.75
343.401	88.75
343.613	35.5
343.826	92.84
344.038	-7.51
344.25	19.11
344.462	10.92
344.674	0.68
344.886	90.79
345.099	80.55
345.311	-11.61
345.523	35.5
345.735	37.55
345.947	101.03
346.159	37.55
346.371	-11.61
346.583	2.73
346.795	123.56
347.007	78.51
347.219	-1.37
347.431	6.83
347.643	80.55
347.855	39.59
348.067	47.79
348.279	86.7
348.491	119.46
348.703	-13.65
348.915	-17.75
349.127	55.98
349.339	96.94
349.551	31.4
349.763	78.51
349.975	19.11
350.187	47.79
350.399	90.79
350.61	8.87
350.822	47.79
351.034	55.98
351.246	25.26
351.458	45.74
351.669	31.4
351.881	15.02
352.093	2.73
352.305	45.74
352.517	-5.46
352.728	17.07
352.94	19.11
353.152	23.21
353.363	29.35
353.575	33.45
353.787	62.12
353.999	45.74
354.21	68.27
354.422	-56.66
354.633	35.5
354.845	0.68
355.057	125.61
355.268	62.12
355.48	-23.89
355.692	23.21
355.903	-52.56
356.115	47.79
356.326	58.03
356.538	17.07
356.749	35.5
356.961	21.16
357.172	-1.37
357.384	-25.94
357.595	29.35
357.807	37.55
358.018	-32.08
358.23	31.4
358.441	51.88
358.653	-19.8
358.864	23.21
359.075	62.12
359.287	70.31
359.498	6.83
359.709	35.5
359.921	17.07
360.132	49.83
360.344	41.64
360.555	23.21
360.766	6.83
360.977	12.97
361.189	-52.56
361.4	12.97
361.611	82.6
361.823	58.03
362.034	58.03
362.245	49.83
362.456	23.21
362.667	19.11
362.879	98.99
363.09	21.16
363.301	0.68
363.512	23.21
363.723	125.61
363.935	88.75
364.146	68.27
364.357	25.26
364.568	31.4
364.779	62.12
364.99	33.45
365.201	12.97
365.412	37.55
365.623	66.22
365.834	51.88
366.045	84.65
366.256	53.93
366.467	98.99
366.678	-27.99
366.889	62.12
367.1	31.4
367.311	23.21
367.522	10.92
367.733	-21.85
367.944	105.13
368.155	23.21
368.366	47.79
368.577	58.03
368.788	19.11
368.999	45.74
369.209	10.92
369.42	29.35
369.631	43.69
369.842	39.59
370.053	23.21
370.264	29.35
370.474	49.83
370.685	74.41
370.896	19.11
371.107	39.59
371.317	-9.56
371.528	-21.85
371.739	19.11
371.95	29.35
372.16	80.55
372.371	10.92
372.582	35.5
372.792	53.93
373.003	35.5
373.214	37.55
373.424	82.6
373.635	8.87
373.846	82.6
374.056	-13.65
374.267	25.26
374.477	39.59
374.688	33.45
374.898	66.22
375.109	8.87
375.319	37.55
375.53	41.64
375.74	10.92
375.951	31.4
376.161	41.64
376.372	72.36
376.582	64.17
376.793	39.59
377.003	15.02
377.214	29.35
377.424	15.02
377.635	88.75
377.845	53.93
378.055	15.02
378.266	6.83
378.476	47.79
378.686	-46.42
378.897	90.79
379.107	55.98
379.317	31.4
379.528	35.5
379.738	8.87
379.948	17.07
380.158	47.79
380.369	37.55
380.579	80.55
380.789	45.74
380.999	-1.37
381.21	2.73
381.42	21.16
381.63	21.16
381.84	64.17
382.05	-27.99
382.261	-21.85
382.471	68.27
382.681	39.59
382.891	111.27
383.101	49.83
383.311	78.51
383.521	25.26
383.731	39.59
383.941	103.08
384.151	41.64
384.361	17.07
384.571	51.88
384.781	39.59
384.991	31.4
385.201	107.18
385.411	80.55
385.621	35.5
385.831	68.27
386.041	70.31
386.251	33.45
386.461	94.89
386.671	-30.04
386.881	33.45
387.091	25.26
387.301	31.4
387.511	39.59
387.72	105.13
387.93	72.36
388.14	103.08
388.35	49.83
388.56	58.03
388.769	49.83
388.979	82.6
389.189	2.73
389.399	88.75
389.609	92.84
389.818	43.69
390.028	37.55
390.238	33.45
390.447	0.68
390.657	6.83
390.867	41.64
391.076	2.73
391.286	49.83
391.496	19.11
391.705	35.5
391.915	31.4
392.125	8.87
392.334	17.07
392.544	21.16
392.753	117.42
392.963	4.78
393.172	29.35
393.382	37.55
393.591	60.07
393.801	15.02
394.01	94.89
394.22	17.07
394.429	82.6
394.639	68.27
394.848	8.87
395.058	17.07
395.267	15.02
395.477	21.16
395.686	74.41
395.895	23.21
396.105	27.31
396.314	66.22
396.524	53.93
396.733	43.69
396.942	80.55
397.152	47.79
397.361	84.65
397.57	39.59
397.78	105.13
397.989	15.02
398.198	152.23
398.407	78.51
398.617	96.94
398.826	107.18
399.035	39.59
399.244	-11.61
399.453	53.93
399.663	37.55
399.872	72.36
400.081	84.65
400.29	72.36
400.499	86.7
400.708	82.6
400.917	37.55
401.127	47.79
401.336	29.35
401.545	111.27
401.754	49.83
401.963	113.32
402.172	31.4
402.381	88.75
402.59	45.74
402.799	76.46
403.008	60.07
403.217	98.99
403.426	156.33
403.635	94.89
403.844	152.23
404.053	53.93
404.262	-7.51
404.471	92.84
404.68	31.4
404.888	64.17
405.097	113.32
405.306	109.23
405.515	131.75
405.724	182.95
405.933	246.44
406.142	139.94
406.35	154.28
406.559	123.56
406.768	19.11
406.977	78.51
407.185	101.03
407.394	154.28
407.603	150.18
407.812	146.09
408.02	129.7
408.229	129.7
408.438	131.75
408.646	105.13
408.855	119.46
409.064	191.14
409.272	125.61
409.481	185
409.69	199.34
409.898	150.18
410.107	250.53
410.315	285.35
410.524	232.1
410.733	92.84
410.941	262.82
411.15	203.43
411.358	230.06
411.567	266.92
411.775	256.68
411.984	258.73
412.192	215.72
412.401	350.89
412.609	264.87
412.818	242.34
413.026	387.75
413.234	277.16
413.443	277.16
413.651	330.41
413.86	369.32
414.068	373.41
414.276	397.99
414.485	422.56
414.693	359.08
414.901	408.23
415.11	471.72
415.318	340.65
415.526	436.9
415.734	408.23
415.943	453.28
416.151	424.61
416.359	490.15
416.567	529.06
416.776	492.2
416.984	469.67
417.192	559.78
417.4	508.58
417.608	545.44
417.817	527.01
418.025	596.64
418.233	680.61
418.441	545.44
418.649	647.84
418.857	719.52
419.065	735.9
419.273	723.62
419.481	748.19
419.689	826.01
419.897	805.53
420.105	821.92
420.313	862.88
420.521	932.51
420.729	909.98
420.937	930.46
421.145	991.9
421.353	1043.1
421.561	985.76
421.769	1053.34
421.977	1200.79
422.185	1184.41
422.393	1135.26
422.601	1256.09
422.809	1391.25
423.017	1254.04
423.224	1358.49
423.432	1401.49
423.64	1397.4
423.848	1550.99
424.056	1596.05
424.263	1634.96
424.471	1546.9
424.679	1559.19
424.887	1692.3
425.094	1727.12
425.302	1761.94
425.51	1823.37
425.718	1776.27
425.925	1811.09
426.133	1927.82
426.341	2069.13
426.548	2146.95
426.756	2177.67
426.964	2210.44
427.171	2323.08
427.379	2282.12
427.586	2333.32
427.794	2517.64
428.001	2529.92
428.209	2622.08
428.417	2587.27
428.624	2837.12
428.832	2849.41
429.039	2914.94
429.247	2851.46
429.454	3119.74
429.662	3197.56
429.869	3056.25
430.076	3367.54
430.284	3195.51
430.491	3412.6
430.699	3555.96
430.906	3537.52
431.114	3607.16
431.321	3662.45
431.528	3738.23
431.736	4063.85
431.943	4184.68
432.15	3947.12
432.358	4229.74
432.565	4491.88
432.772	4381.29
432.979	4481.64
433.187	4520.55
433.394	4665.96
433.601	4889.18
433.808	5153.37
434.016	4926.05
434.223	5120.6
434.43	5579.35
434.637	5319.26
434.844	5886.54
435.052	5827.15
435.259	5802.58
435.466	5861.97
435.673	5694.04
435.88	6154.83
436.087	6584.9
436.294	6373.96
436.501	6365.77
436.708	6423.11
436.915	6693.44
437.122	7053.89
437.329	6992.45
437.537	7152.19
437.743	7393.85
437.95	7246.4
438.157	7699
438.364	7901.75
438.571	7961.14
438.778	7903.79
438.985	8626.73
439.192	8403.5
439.399	8509.99
439.606	8354.35
439.813	8884.77
440.02	9392.67
440.227	9265.69
440.433	9085.47
440.64	9402.91
440.847	9464.35
441.054	9804.31
441.261	10127.89
441.467	10027.54
441.674	10422.8
441.881	10660.36
442.088	10609.16
442.294	10686.98
442.501	10967.56
442.708	11272.7
442.914	11586.04
443.121	12046.83
443.328	11766.26
443.534	12599.79
443.741	12149.23
443.948	11946.48
444.154	12884.45
444.361	12675.56
444.568	12820.97
444.774	13097.44
444.981	13025.76
445.187	13289.95
445.394	13820.38
445.6	13773.27
445.807	15038.92
446.013	14442.96
446.22	14696.91
446.426	15313.34
446.633	15483.33
446.839	16005.56
447.046	15036.87
447.252	16116.15
447.459	16200.12
447.665	16279.99
447.871	16808.36
448.078	17545.63
448.284	16470.45
448.491	17228.2
448.697	17793.44
448.903	18147.73
449.11	18348.43
449.316	17643.93
449.522	17987.99
449.728	18780.56
449.935	18704.78
450.141	18780.56
450.347	19171.72
450.553	18571.66
450.76	18874.76
450.966	19642.75
451.172	19276.16
451.378	19818.88
451.584	19210.63
451.791	19822.97
451.997	19939.71
452.203	20162.93
452.409	20111.74
452.615	20068.73
452.821	19065.22
453.027	18997.64
453.233	19927.42
453.44	19218.82
453.646	19255.68
453.852	19466.63
454.058	19859.84
454.264	19272.07
454.47	19714.43
454.676	19239.3
454.882	19575.17
455.088	17914.27
455.294	18387.35
455.5	18444.69
455.705	18887.05
455.911	18246.04
456.117	17725.85
456.323	17435.04
456.529	16566.7
456.735	17000.87
456.941	16859.56
457.147	16677.29
457.352	15886.78
457.558	15956.41
457.764	15788.47
457.97	15512
458.176	15438.27
458.381	15147.46
458.587	14576.08
458.793	14500.3
458.999	13877.72
459.204	15053.25
459.41	14307.79
459.616	13328.86
459.821	13425.12
460.027	13277.66
460.233	13060.58
460.438	12425.71
460.644	12489.2
460.85	11960.82
461.055	11905.52
461.261	11919.86
461.466	10955.27
461.672	10568.2
461.878	11450.88
462.083	10609.16
462.289	10330.64
462.494	10568.2
462.7	9890.32
462.905	9599.51
463.111	10181.14
463.316	9951.76
463.522	9824.79
463.727	9808.4
463.932	9738.77
464.138	9648.66
464.343	9716.25
464.549	9351.71
464.754	9841.17
464.959	9646.62
465.165	9742.87
465.37	9251.36
465.575	8911.39
465.781	9400.86
465.986	9185.82
466.191	9130.53
466.397	8837.67
466.602	8602.15
466.807	8716.84
467.012	8794.66
467.218	8727.08
467.423	8665.64
467.628	8780.32
467.833	9054.75
468.038	8761.89
468.244	8325.68
468.449	8778.28
468.654	8536.62
468.859	8516.14
469.064	8167.98
469.269	8145.45
469.474	8051.25
469.679	8063.54
469.885	8231.47
470.09	8149.55
470.295	8174.13
470.5	7770.68
470.705	8051.25
470.91	7600.69
471.115	7719.48
471.32	7871.03
471.525	7834.16
471.73	7475.77
471.935	7518.78
472.139	7133.76
472.344	7500.34
472.549	7264.83
472.754	7096.89
472.959	7019.07
473.164	6918.72
473.369	6814.27
473.574	7017.02
473.778	7070.27
473.983	7055.93
474.188	6779.46
474.393	6666.82
474.598	6687.3
474.802	6574.66
475.007	6709.83
475.212	6464.07
475.417	6220.36
475.621	6347.34
475.826	6382.15
476.031	6273.61
476.235	6238.8
476.44	6222.41
476.645	5943.89
476.849	6210.12
477.054	5976.66
477.259	5857.87
477.463	5999.18
477.668	5685.84
477.872	5866.07
478.077	5782.1
478.282	5716.56
478.486	5497.43
478.691	5509.72
478.895	5585.49
479.1	5452.38
479.304	5313.11
479.509	5323.35
479.713	5397.08
479.918	5206.62
480.122	5251.67
480.326	5237.34
480.531	5284.44
480.735	5292.63
480.94	5210.72
481.144	5526.1
481.348	5114.46
481.553	5143.13
481.757	5001.82
481.961	5225.05
482.166	5337.69
482.37	5081.69
482.574	4989.53
482.778	5171.8
482.983	5233.24
483.187	5096.03
483.391	5251.67
483.595	5050.97
483.8	5139.04
484.004	5151.32
484.208	5223
484.412	5112.41
484.616	5163.61
484.821	5065.31
485.025	5141.08
485.229	5214.81
485.433	5079.65
485.637	5216.86
485.841	5110.36
486.045	5065.31
486.249	5151.32
486.453	4993.63
486.657	5223
486.861	5136.99
487.065	5073.5
487.269	5046.88
487.473	5022.3
487.677	5186.14
487.881	5096.03
488.085	5104.22
488.289	5218.91
488.493	5126.75
488.697	5333.59
488.901	5147.23
489.105	5227.1
489.309	5134.94
489.512	5153.37
489.716	5010.01
489.92	5180
490.124	5153.37
490.328	5188.19
490.531	5233.24
490.735	5331.55
490.939	5368.41
491.143	5311.07
491.346	5210.72
491.55	5413.46
491.754	5298.78
491.958	5306.97
492.161	5440.09
492.365	5532.25
492.569	5474.9
492.772	5442.14
492.976	5608.02
493.18	5616.21
493.383	5691.99
493.587	5624.4
493.79	5825.11
493.994	5749.33
494.197	5749.33
494.401	5849.68
494.605	5757.52
494.808	5804.63
495.012	5896.78
495.215	5816.91
495.419	5964.37
495.622	6081.1
495.825	5857.87
496.029	6011.47
496.232	6347.34
496.436	6165.07
496.639	6328.91
496.843	6294.09
497.046	6367.82
497.249	6638.15
497.453	6711.88
497.656	6646.34
497.859	6625.86
498.063	6869.57
498.266	6756.93
498.469	6947.39
498.673	6865.47
498.876	7074.37
499.079	7252.54
499.282	7215.68
499.485	7268.92
499.689	7240.25
499.892	7449.15
500.095	7504.44
500.298	7596.6
500.501	7602.74
500.705	7774.77
500.908	7944.75
501.111	7887.41
501.314	8069.68
501.517	8319.53
501.72	8372.78
501.923	8239.66
502.126	8520.23
502.329	8604.2
502.532	8667.69
502.735	8696.36
502.938	8950.31
503.141	8819.24
503.344	9171.49
503.547	9110.05
503.75	9493.02
503.953	9486.87
504.156	9685.53
504.359	9622.04
504.562	9591.32
504.765	9964.05
504.968	10025.49
505.17	10105.36
505.373	10058.26
505.576	10457.61
505.779	10572.3
505.982	10625.54
506.185	10961.41
506.387	10906.12
506.59	11033.09
506.793	11141.63
506.996	11205.12
507.198	11581.95
507.401	11536.89
507.604	11747.83
507.807	11835.89
508.009	12116.47
508.212	12261.87
508.415	12313.07
508.617	12446.19
508.82	12509.68
509.022	12491.24
509.225	12974.56
509.428	13156.83
509.63	13361.63
509.833	13449.69
510.035	13566.43
510.238	13763.03
510.44	14086.61
510.643	14320.08
510.845	14156.24
511.048	14041.56
511.25	14483.92
511.453	14516.69
511.655	15215.04
511.858	15116.74
512.06	15079.88
512.262	15415.74
512.465	15585.72
512.667	15628.73
512.87	15845.82
513.072	16165.3
513.274	16343.47
513.477	16701.87
513.679	16646.57
513.881	16652.72
514.084	17144.23
514.286	17181.09
514.488	17461.66
514.69	17858.97
514.893	17926.55
515.095	18135.45
515.297	18098.58
515.499	18649.49
515.701	18637.2
515.904	19050.89
516.106	19251.59
516.308	19460.48
516.51	19665.28
516.712	19679.61
516.914	19941.75
517.116	20230.52
517.318	20613.49
517.52	20416.88
517.722	20697.45
517.925	21033.32
518.127	21291.37
518.329	21389.67
518.531	21451.11
518.733	22063.45
518.935	22038.87
519.136	22133.08
519.338	22587.73
519.54	22403.41
519.742	22845.77
519.944	22915.4
520.146	23583.04
520.348	23697.73
520.55	23992.64
520.752	23832.9
520.954	24338.74
521.155	24260.92
521.357	24459.57
521.559	24832.3
521.761	25305.38
521.963	25469.22
522.164	25669.92
522.366	25516.33
522.568	26157.34
522.77	25846.05
522.971	26691.86
523.173	26300.7
523.375	26681.62
523.576	27341.07
523.778	26855.7
523.98	27312.39
524.181	27560.2
524.383	27724.04
524.584	28092.67
524.786	28289.27
524.988	27617.54
525.189	28246.27
525.391	28434.68
525.592	28772.6
525.794	28782.84
525.995	28909.81
526.197	29067.5
526.398	29182.19
526.6	29294.83
526.801	29532.39
527.003	29505.77
527.204	29561.06
527.406	30150.88
527.607	30087.39
527.808	30501.08
528.01	29905.12
528.211	30165.21
528.412	31013.07
528.614	30875.86
528.815	30476.51
529.016	31101.14
529.218	30685.4
529.419	31037.65
529.62	31135.95
529.822	31123.66
530.023	31320.27
530.224	31158.48
530.425	31189.2
530.626	30982.35
530.828	31152.34
531.029	31989.95
531.23	31410.38
531.431	31373.52
531.632	31606.98
531.833	31385.8
532.035	31826.12
532.236	32041.15
532.437	31979.71
532.638	31658.18
532.839	32178.37
533.04	31920.32
533.241	31842.5
533.442	32549.05
533.643	32094.4
533.844	31881.41
534.045	32204.99
534.246	32039.11
534.447	32366.78
534.648	32135.36
534.849	32524.47
535.05	32401.6
535.251	32127.17
535.451	32372.92
535.652	32684.22
535.853	32368.83
536.054	32321.73
536.255	32661.69
536.456	32039.11
536.657	32706.74
536.857	32612.54
537.058	32299.2
537.259	32770.23
537.46	32307.39
537.66	32346.3
537.861	32506.04
538.062	32796.85
538.263	32764.09
538.463	32329.92
538.664	32727.22
538.865	32452.8
539.065	32651.45
539.266	32258.24
539.466	32915.64
539.667	32012.48
539.868	32782.52
540.068	32542.91
540.269	32475.32
540.469	32499.9
540.67	32280.77
540.87	32307.39
541.071	32424.12
541.271	32503.99
541.472	32538.81
541.672	32360.64
541.873	32329.92
542.073	32116.93
542.274	32553.15
542.474	32354.49
542.675	32157.89
542.875	32692.41
543.075	32503.99
543.276	32090.3
543.476	32753.85
543.676	32178.37
543.877	32835.77
544.077	32659.64
544.277	32520.38
544.478	32295.1
544.678	32411.84
544.878	32563.39
545.078	32624.82
545.279	32272.57
545.479	32280.77
545.679	32782.52
545.879	32819.38
546.079	32503.99
546.28	32061.63
546.48	32317.63
546.68	32643.26
546.88	32534.71
547.08	32471.23
547.28	32356.54
547.48	32157.89
547.68	32587.96
547.88	32172.22
548.081	32614.58
548.281	32540.86
548.481	32485.56
548.681	33022.13
548.881	32460.99
549.081	32129.22
549.28	32063.68
549.48	32655.54
549.68	32487.61
549.88	32866.49
550.08	32338.11
550.28	32350.4
550.48	32291.01
550.68	32891.06
550.88	32217.28
551.08	32245.95
551.279	32270.53
551.479	32022.72
551.679	32227.52
551.879	32020.67
552.079	32202.94
552.278	32045.25
552.478	32190.66
552.678	32135.36
552.878	32614.58
553.077	32209.09
553.277	31881.41
553.477	32303.29
553.676	32350.4
553.876	32409.79
554.076	32043.2
554.275	32303.29
554.475	32008.39
554.674	32004.29
554.874	32123.07
555.074	32043.2
555.273	32082.11
555.473	32415.93
555.672	31678.66
555.872	32032.96
556.071	32200.9
556.271	32057.54
556.47	31690.95
556.67	31387.85
556.869	31582.41
557.068	31985.86
557.268	31379.66
557.467	31813.83
557.667	31496.39
557.866	31244.49
558.065	31490.25
558.265	30920.91
558.464	31590.6
558.663	31588.55
558.863	30755.03
559.062	31690.95
559.261	30918.87
559.461	31185.1
559.66	31045.84
559.859	31365.32
560.058	30804.18
560.258	31142.1
560.457	31121.62
560.656	31275.21
560.855	30775.51
561.054	30863.57
561.253	30712.02
561.453	30671.06
561.652	30646.49
561.851	30507.23
562.05	30640.34
562.249	30761.17
562.448	30470.36
562.647	30652.63
562.846	30335.2
563.045	30853.33
563.244	30367.96
563.443	30636.25
563.642	30062.82
563.841	29978.85
564.04	29796.58
564.239	30570.71
564.438	29982.95
564.637	30064.86
564.836	29677.8
565.035	29604.07
565.234	29950.18
565.432	29454.57
565.631	29239.53
565.83	30179.55
566.029	29460.71
566.228	29829.35
566.427	29135.09
566.625	29130.99
566.824	29065.46
567.023	29167.85
567.222	28707.06
567.42	29325.55
567.619	28973.3
567.818	29210.86
568.016	28856.56
568.215	29130.99
568.414	28721.4
568.612	28834.03
568.811	28625.14
569.01	28811.51
569.208	28254.46
569.407	28559.61
569.605	28080.38
569.804	28250.36
570.002	27920.64
570.201	28363
570.4	27920.64
570.598	27820.29
570.797	27568.39
570.995	27736.32
571.193	27517.19
571.392	27734.28
571.59	27392.26
571.789	27451.66
571.987	27408.65
572.186	27373.83
572.384	26624.28
572.582	27242.76
572.781	27169.04
572.979	26642.71
573.177	27058.45
573.376	27119.88
573.574	26755.35
573.772	26890.51
573.971	26452.25
574.169	26636.56
574.367	26466.58
574.565	26882.32
574.763	26378.52
574.962	26210.59
575.16	25973.02
575.358	25878.82
575.556	25712.93
575.754	26222.87
575.952	25395.5
576.151	25815.33
576.349	25551.14
576.547	25788.71
576.745	25403.69
576.943	25657.64
577.141	25317.67
577.339	25358.63
577.537	25370.92
577.735	24971.57
577.933	24760.62
578.131	25135.4
578.329	24731.95
578.527	24658.23
578.725	24817.97
578.923	24627.51
579.121	24590.64
579.319	24539.44
579.516	24283.45
579.714	24533.3
579.912	24361.27
580.11	24199.48
580.308	24013.12
580.506	23916.86
580.704	23533.89
580.901	24080.7
581.099	24131.9
581.297	23546.18
581.495	23454.02
581.692	23810.37
581.89	23544.13
582.088	23372.1
582.285	23511.36
582.483	23521.6
582.681	23253.32
582.878	23411.01
583.076	22829.39
583.274	23206.22
583.471	22802.77
583.669	23073.1
583.866	22868.3
584.064	22864.21
584.262	22372.69
584.459	22853.97
584.657	22745.42
584.854	22714.7
585.052	22311.25
585.249	22569.3
585.447	22241.62
585.644	22057.31
585.841	22301.01
586.039	22368.6
586.236	21760.35
586.434	21774.69
586.631	21756.25
586.828	21610.85
587.026	21795.17
587.223	21829.98
587.42	21887.32
587.618	21733.73
587.815	21148.01
588.012	21629.28
588.21	21281.13
588.407	21492.07
588.604	21197.16
588.801	21367.14
588.999	20963.69
589.196	20998.51
589.393	21442.92
589.59	20973.93
589.787	21049.71
589.984	20863.34
590.182	20787.57
590.379	20791.66
590.576	20760.94
590.773	20535.67
590.97	20488.56
591.167	20662.64
591.364	20289.91
591.561	20306.29
591.758	20109.69
591.955	20085.11
592.152	20207.99
592.349	20072.82
592.546	19958.14
592.743	20099.45
592.94	19995
593.137	19874.17
593.334	19859.84
593.531	19601.79
593.727	19812.73
593.924	19872.12
594.121	19394.95
594.318	19640.7
594.515	19349.89
594.712	19612.03
594.908	19143.05
595.105	19331.46
595.302	19280.26
595.499	19286.4
595.696	19186.05
595.892	19218.82
596.089	19005.83
596.286	18981.26
596.482	18792.84
596.679	18940.3
596.876	18723.21
597.072	18821.52
597.269	18688.4
597.466	18532.75
597.662	18418.07
597.859	18794.89
598.055	18350.48
598.252	18436.5
598.448	18311.57
598.645	18383.25
598.841	18162.07
599.038	18215.32
599.234	18092.44
599.431	17981.85
599.627	17856.92
599.824	18149.78
600.02	17652.13
600.217	17858.97
600.413	17852.83
600.609	17736.09
600.806	17447.33
601.002	17639.84
601.198	17654.17
601.395	17598.88
601.591	17422.75
601.787	17240.48
601.984	17197.48
602.18	17256.87
602.376	17185.19
602.572	17351.07
602.769	17017.25
602.965	16923.05
603.161	17101.22
603.357	16912.81
603.553	16753.07
603.75	17226.15
603.946	16730.54
604.142	16804.27
604.338	16839.08
604.534	16830.89
604.73	16525.74
604.926	16755.11
605.122	16480.69
605.318	16239.03
605.514	16032.18
605.71	16224.69
605.906	16204.21
606.102	15888.82
606.298	16099.76
606.494	16085.43
606.69	15997.37
606.886	16052.66
607.082	15811
607.278	15737.27
607.474	15516.09
607.67	15829.43
607.866	15595.96
608.062	15661.5
608.257	15444.42
608.453	15577.53
608.649	15661.5
608.845	15374.78
609.041	15104.45
609.236	15331.78
609.432	15221.19
609.628	15106.5
609.824	15196.61
610.019	15032.77
610.215	15014.34
610.411	15106.5
610.606	15108.55
610.802	14690.76
610.998	14973.38
611.193	14997.96
611.389	14744.01
611.584	14647.76
611.78	14504.4
611.976	14657.99
612.171	14635.47
612.367	14381.52
612.562	14563.79
612.758	14330.32
612.953	14186.96
613.149	14256.59
613.344	14301.65
613.539	14318.03
613.735	14381.52
613.93	14137.81
614.126	14217.68
614.321	14326.22
614.517	14025.17
614.712	14125.52
614.907	13951.45
615.103	14006.74
615.298	14094.8
615.493	14080.47
615.688	13922.77
615.884	13871.57
616.079	13638.11
616.274	13760.98
616.47	13490.65
616.665	13595.1
616.86	13767.13
617.055	13500.89
617.25	13580.76
617.445	13670.87
617.641	13378.01
617.836	13484.51
618.031	13408.73
618.226	13502.94
618.421	13109.73
618.616	13533.66
618.811	12952.04
619.006	13412.83
619.201	12878.31
619.396	12966.37
619.591	12939.75
619.786	13097.44
619.981	12618.22
620.176	12575.21
620.371	12573.16
620.566	12724.71
620.761	12548.59
620.956	12806.63
621.151	12356.08
621.346	12358.13
621.541	12218.86
621.735	12313.07
621.93	12132.85
622.125	12308.97
622.32	12081.65
622.515	12171.76
622.709	11928.05
622.904	11948.53
623.099	11817.46
623.294	11899.38
623.488	11694.58
623.683	11844.09
623.878	11569.66
624.072	11506.17
624.267	11409.92
624.462	11254.27
624.656	11057.67
624.851	11131.39
625.046	11115.01
625.24	11321.85
625.435	10859.01
625.629	11026.95
625.824	11190.78
626.018	10942.98
626.213	10564.11
626.407	10793.48
626.602	10715.66
626.796	10686.98
626.991	10676.74
627.185	10676.74
627.38	10533.39
627.574	10379.79
627.768	10433.04
627.963	10144.27
628.157	10297.87
628.352	10304.01
628.546	9935.38
628.74	10183.18
628.935	10050.07
629.129	10119.7
629.323	9861.65
629.517	9902.61
629.712	9738.77
629.906	9701.91
630.1	9609.75
630.294	9693.72
630.489	9574.94
630.683	9765.4
630.877	9466.39
631.071	9447.96
631.265	9521.69
631.459	9386.52
631.653	9409.05
631.848	9380.38
632.042	9288.22
632.236	9341.47
632.43	9069.09
632.624	9206.3
632.818	8972.83
633.012	9024.03
633.206	9067.04
633.4	9038.37
633.594	8823.33
633.788	8841.76
633.982	8903.2
634.176	8776.23
634.369	8639.01
634.563	8739.37
634.757	8749.61
634.951	8647.21
635.145	8583.72
635.339	8466.99
635.533	8395.31
635.726	8454.7
635.92	8436.27
636.114	8272.43
636.308	8206.89
636.501	8219.18
636.695	8092.21
636.889	8143.41
637.083	8018.48
637.276	8055.34
637.47	7975.47
637.664	8008.24
637.857	8055.34
638.051	7801.4
638.244	7901.75
638.438	7805.49
638.632	7809.59
638.825	7662.13
639.019	7639.61
639.212	7561.78
639.406	7535.16
639.599	7307.84
639.793	7631.41
639.986	7326.27
640.18	7445.05
640.373	7238.2
640.567	7191.1
640.76	7367.23
640.954	7121.47
641.147	7055.93
641.34	7162.43
641.534	7182.91
641.727	7178.81
641.92	7072.32
642.114	6986.3
642.307	7025.22
642.5	6890.05
642.694	6904.39
642.887	6791.75
643.08	6752.84
643.273	6806.08
643.467	6709.83
643.66	6537.8
643.853	6771.27
644.046	6589
644.239	6666.82
644.432	6445.64
644.626	6523.46
644.819	6347.34
645.012	6230.6
645.205	6189.64
645.398	6052.43
645.591	6363.72
645.784	6191.69
645.977	6238.8
646.17	6191.69
646.363	6154.83
646.556	5888.59
646.749	6085.2
646.942	6015.57
647.135	5960.27
647.328	5907.02
647.521	5884.5
647.714	5677.65
647.907	5874.26
648.099	5767.76
648.292	5839.44
648.485	5714.52
648.678	5657.17
648.871	5638.74
649.064	5597.78
649.256	5571.16
649.449	5532.25
649.642	5526.1
649.835	5290.59
650.027	5378.65
650.22	5360.22
650.413	5309.02
650.605	5399.13
650.798	5333.59
650.991	5272.15
651.183	5204.57
651.376	5180
651.568	5288.54
651.761	5069.41
651.954	5069.41
652.146	5163.61
652.339	5036.64
652.531	5136.99
652.724	4950.62
652.916	4909.66
653.109	4987.49
653.301	4835.94
653.494	4911.71
653.686	4754.02
653.879	4721.25
654.071	4856.42
654.263	4581.99
654.456	4661.86
654.648	4629.09
654.84	4530.79
655.033	4538.98
655.225	4700.77
655.417	4577.89
655.61	4588.13
655.802	4514.41
655.994	4438.63
656.186	4399.72
656.379	4387.43
656.571	4334.18
656.763	4325.99
656.955	4344.42
657.148	4196.97
657.34	4362.86
657.532	4317.8
657.724	4280.94
657.916	4113
658.108	4135.53
658.3	4074.09
658.492	4029.04
658.684	4096.62
658.876	4026.99
659.068	3986.03
659.26	4090.48
659.452	3981.93
659.644	4026.99
659.836	3926.64
660.028	3861.1
660.22	3697.27
660.412	3775.09
660.604	3715.7
660.796	3916.4
660.988	3723.89
661.18	3646.07
661.372	3646.07
661.563	3566.2
661.755	3607.16
661.947	3582.58
662.139	3758.71
662.331	3558
662.522	3463.8
662.714	3510.9
662.906	3461.75
663.097	3625.59
663.289	3471.99
663.481	3515
663.673	3562.1
663.864	3508.85
664.056	3238.52
664.247	3353.21
664.439	3263.1
664.631	3367.54
664.822	3170.94
665.014	3297.91
665.205	3349.11
665.397	3199.61
665.588	3121.79
665.78	3191.42
665.971	3185.27
666.163	3162.75
666.354	3154.55
666.546	3164.79
666.737	3078.78
666.929	3160.7
667.12	3119.74
667.311	3117.69
667.503	3048.06
667.694	2955.9
667.885	3043.96
668.077	3031.68
668.268	2867.84
668.459	3021.44
668.651	2888.32
668.842	2865.79
669.033	2986.62
669.224	2914.94
669.416	2873.98
669.607	2753.15
669.798	2843.26
669.989	2863.74
670.18	2857.6
670.371	2814.59
670.563	2910.85
670.754	2781.82
670.945	2785.92
671.136	2830.98
671.327	2706.05
671.518	2716.29
671.709	2679.43
671.9	2830.98
672.091	2603.65
672.282	2732.67
672.473	2646.66
672.664	2804.35
672.855	2591.36
673.046	2640.51
673.237	2763.39
673.428	2589.32
673.619	2687.62
673.809	2593.41
674	2595.46
674.191	2554.5
674.382	2683.52
674.573	2525.83
674.764	2501.25
674.954	2560.64
675.145	2499.2
675.336	2527.88
675.527	2542.21
675.717	2507.4
675.908	2491.01
676.099	2620.03
676.289	2476.68
676.48	2550.4
676.671	2390.66
676.861	2538.12
677.052	2443.91
677.243	2382.47
677.433	2372.23
677.624	2558.6
677.814	2484.87
678.005	2386.57
678.195	2388.61
678.386	2433.67
678.576	2456.2
678.767	2425.48
678.957	2290.31
679.148	2378.37
679.338	2411.14
679.529	2407.05
679.719	2339.46
679.909	2384.52
680.1	2335.37
680.29	2419.33
680.481	2343.56
680.671	2431.62
680.861	2345.61
681.052	2402.95
681.242	2435.72
681.432	2316.94
681.622	2259.59
681.813	2353.8
682.003	2402.95
682.193	2335.37
682.383	2304.65
682.573	2306.7
682.764	2263.69
682.954	2331.27
683.144	2269.83
683.334	2267.78
683.524	2302.6
683.714	2218.63
683.904	2198.15
684.094	2294.41
684.284	2409.09
684.474	2298.5
684.664	2292.36
684.854	2265.74
685.044	2378.37
685.234	2181.77
685.424	2243.21
685.614	2196.11
685.804	2187.91
685.994	2257.54
686.184	2218.63
686.374	2189.96
686.564	2230.92
686.753	2243.21
686.943	2271.88
687.133	2245.26
687.323	2294.41
687.513	2224.78
687.702	2187.91
687.892	2224.78
688.082	2144.91
688.272	2261.64
688.461	2259.59
688.651	2196.11
688.841	2165.39
689.03	2208.39
689.22	2255.5
689.41	2218.63
689.599	2142.86
689.789	2220.68
689.979	2237.06
690.168	2120.33
690.358	2183.82
690.547	2183.82
690.737	2251.4
690.926	2265.74
691.116	2175.63
691.305	2202.25
691.495	2081.42
691.684	2157.19
691.874	2185.87
692.063	2175.63
692.252	2200.2
692.442	2278.02
692.631	1976.97
692.82	2140.81
693.01	2142.86
693.199	2149
693.388	2210.44
693.578	2245.26
693.767	2175.63
693.956	2120.33
694.146	2153.1
694.335	2142.86
694.524	2122.38
694.713	2065.04
694.902	2259.59
695.092	2298.5
695.281	2110.09
695.47	2218.63
695.659	2175.63
695.848	2142.86
696.037	2204.3
696.226	2228.87
696.415	2200.2
696.604	2171.53
696.793	2241.16
696.982	2214.54
697.171	2181.77
697.36	2247.3
697.549	2146.95
697.738	2218.63
697.927	2204.3
698.116	2128.52
698.305	2108.04
698.494	2220.68
698.683	2130.57
698.872	2255.5
699.061	2218.63
699.25	2282.12
699.438	2269.83
699.627	2126.47
699.816	2144.91
700.005	2216.58
700.193	2142.86
700.382	2187.91
700.571	2142.86
700.76	2237.06
700.948	2206.34
701.137	2032.27
701.326	2120.33
701.514	2210.44
701.703	2237.06
701.892	2177.67
702.08	2144.91
702.269	2163.34
702.457	2114.19
702.646	2224.78
702.834	2099.85
703.023	2081.42
703.212	2081.42
703.4	2022.03
703.589	2030.22
703.777	2118.28
703.965	2124.43
704.154	2101.9
704.342	2144.91
704.531	2071.18
704.719	2036.36
704.907	2108.04
705.096	2044.56
705.284	2032.27
705.472	2040.46
705.661	2034.32
705.849	2114.19
706.037	2030.22
706.226	2110.09
706.414	2075.28
706.602	2060.94
706.79	2022.03
706.979	1946.25
707.167	1952.4
707.355	2003.6
707.543	2034.32
707.731	1893.01
707.919	1993.36
708.107	2112.14
708.296	2073.23
708.484	2044.56
708.672	1938.06
708.86	1989.26
709.048	2056.84
709.236	1989.26
709.424	1968.78
709.612	1933.97
709.8	1921.68
709.988	1915.53
710.176	1962.64
710.364	1903.25
710.551	1950.35
710.739	1895.05
710.927	1829.52
711.115	1913.49
711.303	1790.61
711.491	1817.23
711.679	1872.53
711.866	1735.31
712.054	1823.37
712.242	1833.61
712.43	1897.1
712.617	1792.66
712.805	1776.27
712.993	1913.49
713.181	1755.79
713.368	1809.04
713.556	1886.86
713.744	1862.29
713.931	1667.73
714.119	1716.88
714.306	1720.98
714.494	1745.55
714.682	1868.43
714.869	1798.8
715.057	1825.42
715.244	1727.12
715.432	1710.74
715.619	1761.94
715.807	1700.5
715.994	1716.88
716.182	1729.17
716.369	1790.61
716.556	1757.84
716.744	1749.65
716.931	1634.96
717.119	1700.5
717.306	1698.45
717.493	1700.5
717.681	1632.91
717.868	1630.87
718.055	1706.64
718.242	1655.44
718.43	1731.22
718.617	1608.34
718.804	1503.89
718.991	1673.87
719.179	1651.35
719.366	1591.95
719.553	1634.96
719.74	1643.15
719.927	1630.87
720.114	1581.71
720.301	1598.1
720.488	1557.14
720.676	1546.9
720.863	1600.15
721.05	1602.19
721.237	1413.78
721.424	1526.42
721.611	1532.56
721.798	1546.9
721.985	1596.05
722.172	1530.52
722.358	1561.23
722.545	1481.36
722.732	1483.41
722.919	1458.84
723.106	1571.47
723.293	1464.98
723.48	1481.36
723.667	1528.47
723.853	1397.4
724.04	1540.76
724.227	1458.84
724.414	1354.39
724.6	1432.21
724.787	1346.2
724.974	1421.97
725.161	1413.78
725.347	1419.93
725.534	1428.12
725.72	1411.73
725.907	1401.49
726.094	1387.16
726.28	1397.4
726.467	1309.33
726.653	1409.69
726.84	1378.97
727.027	1370.77
727.213	1321.62
727.4	1381.01
727.586	1417.88
727.773	1364.63
727.959	1411.73
728.145	1442.45
728.332	1264.28
728.518	1397.4
728.705	1407.64
728.891	1354.39
729.077	1346.2
729.264	1313.43
729.45	1346.2
729.636	1299.09
729.823	1297.05
730.009	1215.13
730.195	1374.87
730.382	1270.42
730.568	1301.14
730.754	1321.62
730.94	1233.56
731.126	1350.29
731.313	1335.96
731.499	1315.48
731.685	1241.75
731.871	1178.26
732.057	1235.61
732.243	1165.98
732.429	1297.05
732.615	1292.95
732.801	1245.85
732.987	1225.37
733.173	1102.49
733.359	1180.31
733.545	1227.42
733.731	1206.94
733.917	1186.46
734.103	1141.4
734.289	1237.66
734.475	1151.64
734.661	1264.28
734.847	1256.09
735.033	1219.22
735.219	1188.5
735.404	1213.08
735.59	1174.17
735.776	1206.94
735.962	1282.71
736.148	1143.45
736.333	1122.97
736.519	1211.03
736.705	1190.55
736.89	1170.07
737.076	1108.63
737.262	1155.74
737.447	1143.45
737.633	1135.26
737.819	1120.92
738.004	1065.63
738.19	1168.02
738.375	1149.59
738.561	1069.72
738.747	1096.35
738.932	1135.26
739.118	1098.39
739.303	1147.55
739.489	1108.63
739.674	1090.2
739.859	1110.68
740.045	1094.3
740.23	1049.24
740.416	1082.01
740.601	1155.74
740.786	1034.91
740.972	1049.24
741.157	1063.58
741.342	1108.63
741.528	1084.06
741.713	1006.24
741.898	1026.72
742.084	969.37
742.269	991.9
742.454	1026.72
742.639	1026.72
742.824	1036.95
743.01	936.6
743.195	1112.73
743.38	901.79
743.565	940.7
743.75	1036.95
743.935	905.88
744.12	942.75
744.305	889.5
744.49	922.27
744.675	987.8
744.86	957.08
745.045	989.85
745.23	1010.33
745.415	1034.91
745.6	957.08
745.785	985.76
745.97	916.12
746.155	998.04
746.34	918.17
746.525	930.46
746.71	907.93
746.895	821.92
747.079	903.84
747.264	846.49
747.449	877.21
747.634	899.74
747.819	823.97
748.003	864.93
748.188	842.4
748.373	936.6
748.557	871.07
748.742	826.01
748.927	844.45
749.111	791.2
749.296	864.93
749.481	950.94
749.665	803.49
749.85	842.4
750.034	838.3
750.219	866.97
750.404	780.96
750.588	844.45
750.773	758.43
750.957	746.14
751.141	752.29
751.326	785.05
751.51	823.97
751.695	735.9
751.879	774.81
752.064	813.73
752.248	653.98
752.432	856.73
752.617	733.86
752.801	821.92
752.985	770.72
753.17	694.94
753.354	744.1
753.538	768.67
753.722	733.86
753.907	729.76
754.091	684.7
754.275	729.76
754.459	613.03
754.643	733.86
754.828	647.84
755.012	680.61
755.196	680.61
755.38	731.81
755.564	670.37
755.748	699.04
755.932	686.75
756.116	727.71
756.3	641.7
756.484	617.12
756.668	610.98
756.852	649.89
757.036	645.79
757.22	600.74
757.404	688.8
757.588	645.79
757.772	608.93
757.956	623.27
758.14	617.12
758.323	582.31
758.507	565.92
758.691	608.93
758.875	594.59
759.059	662.18
759.242	680.61
759.426	637.6
759.61	539.3
759.794	574.11
759.977	574.11
760.161	572.07
760.345	584.35
760.528	578.21
760.712	596.64
760.895	625.31
761.079	582.31
761.263	574.11
761.446	578.21
761.63	518.82
761.813	613.03
761.997	565.92
762.18	447.14
762.364	533.15
762.547	549.54
762.731	531.11
762.914	574.11
763.098	504.48
763.281	592.55
763.464	510.63
763.648	535.2
763.831	535.2
764.015	518.82
764.198	498.34
764.381	500.39
764.564	447.14
764.748	477.86
764.931	494.24
765.114	498.34
765.297	610.98
765.481	488.1
765.664	447.14
765.847	418.47
766.03	481.96
766.213	486.05
766.397	475.81
766.58	451.24
766.763	529.06
766.946	465.57
767.129	467.62
767.312	496.29
767.495	553.63
767.678	424.61
767.861	457.38
768.044	496.29
768.227	481.96
768.41	443.04
768.593	502.43
768.776	457.38
768.959	457.38
769.142	445.09
769.324	471.72
769.507	430.76
769.69	397.99
769.873	447.14
770.056	488.1
770.239	445.09
770.421	477.86
770.604	500.39
770.787	461.48
770.97	461.48
771.152	459.43
771.335	481.96
771.518	457.38
771.7	414.37
771.883	553.63
772.066	385.7
772.248	447.14
772.431	469.67
772.613	449.19
772.796	389.8
772.978	434.85
773.161	443.04
773.343	387.75
773.526	412.32
773.708	371.37
773.891	381.6
774.073	404.13
774.256	354.98
774.438	389.8
774.621	438.95
774.803	420.52
774.985	277.16
775.168	371.37
775.35	332.45
775.532	381.6
775.715	379.56
775.897	428.71
776.079	311.97
776.261	348.84
776.444	414.37
776.626	334.5
776.808	348.84
776.99	391.84
777.173	338.6
777.355	295.59
777.537	352.93
777.719	342.69
777.901	354.98
778.083	342.69
778.265	367.27
778.447	391.84
778.629	281.25
778.811	342.69
778.993	371.37
779.175	291.49
779.357	344.74
779.539	359.08
779.721	406.18
779.903	307.88
780.085	301.73
780.267	332.45
780.449	346.79
780.631	207.53
780.812	275.11
780.994	346.79
781.176	361.13
781.358	324.26
781.54	277.16
781.721	213.67
781.903	363.17
782.085	334.5
782.267	299.69
782.448	271.01
782.63	336.55
782.812	295.59
782.993	275.11
783.175	287.4
783.357	266.92
783.538	324.26
783.72	322.21
783.901	234.15
784.083	244.39
784.264	244.39
784.446	268.97
784.627	230.06
784.809	221.86
784.99	271.01
785.172	240.3
785.353	277.16
785.535	246.44
785.716	162.47
785.897	225.96
786.079	168.62
786.26	234.15
786.441	254.63
786.623	164.52
786.804	250.53
786.985	238.25
787.167	289.45
787.348	178.86
787.529	205.48
787.71	189.1
787.891	238.25
788.073	242.34
788.254	221.86
788.435	225.96
788.616	242.34
788.797	201.38
788.978	180.9
789.159	209.58
789.34	277.16
789.522	242.34
789.703	185
789.884	148.14
790.065	268.97
790.246	191.14
790.427	174.76
790.607	205.48
790.788	242.34
790.969	201.38
791.15	221.86
791.331	178.86
791.512	252.58
791.693	189.1
791.874	162.47
792.054	207.53
792.235	152.23
792.416	185
792.597	207.53
792.778	154.28
792.958	318.12
793.139	164.52
793.32	211.62
793.5	174.76
793.681	205.48
793.862	98.99
794.042	168.62
794.223	207.53
794.404	146.09
794.584	131.75
794.765	185
794.945	141.99
795.126	141.99
795.306	197.29
795.487	129.7
795.667	111.27
795.848	117.42
796.028	223.91
796.209	172.71
796.389	187.05
796.57	168.62
796.75	191.14
796.93	178.86
797.111	111.27
797.291	172.71
797.471	133.8
797.652	109.23
797.832	129.7
798.012	131.75
798.192	197.29
798.373	156.33
798.553	125.61
798.733	240.3
798.913	76.46
799.093	197.29
799.274	117.42
799.454	152.23
799.634	232.1
799.814	121.51
799.994	113.32
800.174	154.28
800.354	158.38
800.534	182.95
800.714	141.99
800.894	80.55
801.074	76.46
801.254	121.51
801.434	156.33
801.614	191.14
801.794	125.61
801.974	369.32
802.154	150.18
802.334	94.89
802.514	139.94
802.693	72.36
802.873	111.27
803.053	58.03
803.233	129.7
803.413	185
803.592	109.23
803.772	158.38
803.952	133.8
804.131	41.64
804.311	109.23
804.491	156.33
804.67	84.65
804.85	119.46
805.03	88.75
805.209	109.23
805.389	121.51
805.568	123.56
805.748	139.94
805.928	193.19
806.107	168.62
806.287	88.75
806.466	96.94
806.646	94.89
806.825	135.85
807.004	119.46
807.184	162.47
807.363	107.18
807.543	66.22
807.722	51.88
807.901	86.7
808.081	74.41
808.26	21.16
808.439	121.51
808.619	107.18
808.798	96.94
808.977	119.46
809.156	68.27
809.336	51.88
809.515	203.43
809.694	139.94
809.873	164.52
810.052	72.36
810.231	141.99
810.411	146.09
810.59	66.22
810.769	133.8
810.948	193.19
811.127	60.07
811.306	103.08
811.485	88.75
811.664	107.18
811.843	58.03
812.022	76.46
812.201	152.23
812.38	51.88
812.559	98.99
812.737	117.42
812.916	-1.37
813.095	98.99
813.274	105.13
813.453	105.13
813.632	74.41
813.811	182.95
813.989	84.65
814.168	105.13
814.347	21.16
814.526	115.37
814.704	55.98
814.883	111.27
815.062	88.75
815.24	35.5
815.419	51.88
815.598	47.79
815.776	109.23
815.955	41.64
816.133	90.79
816.312	68.27
816.49	47.79
816.669	58.03
816.847	55.98
817.026	133.8
817.204	88.75
817.383	111.27
817.561	31.4
817.74	47.79
817.918	76.46
818.097	74.41
818.275	74.41
818.453	148.14
818.632	135.85
818.81	49.83
818.988	66.22
819.167	33.45
819.345	137.9
819.523	92.84
819.701	107.18
819.879	60.07
820.058	96.94
820.236	17.07
820.414	82.6
820.592	17.07
820.77	105.13
820.948	37.55
821.127	64.17
821.305	86.7
821.483	29.35
821.661	47.79
821.839	64.17
822.017	15.02
822.195	133.8
822.373	98.99
822.551	41.64
822.729	47.79
822.907	68.27
823.085	74.41
823.262	41.64
823.44	0.68
823.618	33.45
823.796	125.61
823.974	39.59
824.152	101.03
824.329	68.27
824.507	41.64
824.685	55.98
824.863	121.51
825.04	17.07
825.218	33.45
825.396	-9.56
825.574	15.02
825.751	17.07
825.929	115.37
826.107	55.98
826.284	66.22
826.462	55.98
826.639	12.97
826.817	47.79
826.994	80.55
827.172	37.55
827.349	80.55
827.527	66.22
827.704	88.75
827.882	58.03
828.059	-19.8
828.237	35.5
828.414	-5.46
828.591	53.93
828.769	105.13
828.946	49.83
829.124	96.94
829.301	-15.7
829.478	82.6
829.655	15.02
829.833	47.79
830.01	80.55
830.187	39.59
830.364	31.4
830.542	141.99
830.719	-34.13
830.896	41.64
831.073	41.64
831.25	90.79
831.427	62.12
831.604	62.12
831.782	76.46
831.959	47.79
832.136	-7.51
832.313	58.03
832.49	47.79
832.667	2.73
832.844	107.18
833.021	-25.94
833.198	-44.37
833.374	37.55
833.551	-13.65
833.728	41.64
833.905	4.78
834.082	-1.37
834.259	51.88
834.436	33.45
834.612	8.87
834.789	-42.32
834.966	125.61
835.143	53.93
835.319	60.07
835.496	82.6
835.673	21.16
835.85	51.88
836.026	51.88
836.203	113.32
836.38	4.78
836.556	35.5
836.733	66.22
836.909	103.08
837.086	31.4
837.262	94.89
837.439	31.4
837.616	-66.9
837.792	4.78
837.968	107.18
838.145	0.68
838.321	76.46
838.498	72.36
838.674	86.7
838.851	31.4
839.027	72.36
839.203	43.69
839.38	41.64
839.556	15.02
839.732	31.4
839.909	35.5
840.085	29.35
840.261	49.83
840.437	53.93
840.614	-27.99
840.79	68.27
840.966	39.59
841.142	37.55
841.318	-1.37
841.494	27.31
841.671	64.17
841.847	45.74
842.023	64.17
842.199	41.64
842.375	2.73
842.551	43.69
842.727	31.4
842.903	74.41
843.079	17.07
843.255	55.98
843.431	55.98
843.607	29.35
843.783	-30.04
843.959	76.46
844.134	60.07
844.31	45.74
844.486	2.73
844.662	58.03
844.838	76.46
845.013	66.22
845.189	37.55
845.365	0.68
845.541	58.03
845.716	27.31
845.892	45.74
846.068	51.88
846.244	6.83
846.419	68.27
846.595	10.92
846.77	49.83
846.946	55.98
847.122	-85.33
847.297	-1.37
847.473	33.45
847.648	4.78
847.824	6.83
847.999	76.46
848.175	-3.41
848.35	31.4
848.526	113.32
848.701	-7.51
848.876	2.73
849.052	-1.37
849.227	49.83
849.403	-1.37
849.578	84.65
849.753	23.21
849.929	86.7
850.104	51.88
850.279	19.11
850.454	101.03
850.63	47.79
850.805	4.78
850.98	17.07
851.155	39.59
851.33	64.17
851.505	-11.61
851.681	53.93
851.856	-52.56
852.031	2.73
852.206	51.88
852.381	-15.7
852.556	80.55
852.731	88.75
852.906	2.73
853.081	8.87
853.256	-32.08
853.431	88.75
853.606	51.88
853.781	82.6
853.956	-11.61
854.131	-13.65
854.305	37.55
854.48	-1.37
854.655	23.21
854.83	43.69
855.005	-1.37
855.18	37.55
855.354	-36.18
855.529	96.94
855.704	29.35
855.879	80.55
856.053	55.98
856.228	-1.37
856.403	45.74
856.577	82.6
856.752	12.97
856.926	121.51
857.101	10.92
857.276	68.27
857.45	-11.61
857.625	68.27
857.799	41.64
857.974	4.78
858.148	86.7
858.323	-34.13
858.497	49.83
858.672	33.45
858.846	8.87
859.02	21.16
859.195	-15.7
859.369	27.31
859.543	15.02
859.718	41.64
859.892	55.98
860.066	86.7
860.241	8.87
860.415	105.13
860.589	70.31
860.763	23.21
860.938	33.45
861.112	8.87
861.286	-15.7
861.46	-34.13
861.634	53.93
861.808	-17.75
861.982	37.55
862.157	58.03
862.331	-34.13
862.505	19.11
862.679	10.92
862.853	17.07
863.027	60.07
863.201	-1.37
863.375	-11.61
863.549	60.07
863.722	-5.46
863.896	-15.7
864.07	37.55
864.244	6.83
864.418	15.02
864.592	-17.75
864.766	8.87
864.939	-11.61
865.113	-23.89
865.287	31.4
865.461	66.22
865.634	23.21
865.808	27.31
865.982	29.35
866.156	-17.75
866.329	51.88
866.503	-40.28
866.676	8.87
866.85	70.31
867.024	-11.61
867.197	-7.51
867.371	19.11
867.544	4.78
867.718	8.87
867.891	12.97
868.065	39.59
868.238	58.03
868.412	37.55
868.585	76.46
868.759	23.21
868.932	37.55
869.105	15.02
869.279	62.12
869.452	27.31
869.625	10.92
869.799	-17.75
869.972	-52.56
870.145	39.59
870.319	-7.51
870.492	37.55
870.665	-5.46
870.838	6.83
871.011	45.74
871.185	12.97
871.358	49.83
871.531	88.75
871.704	70.31
871.877	23.21
872.05	60.07
872.223	2.73
872.396	68.27
872.569	0.68
872.742	21.16
872.915	23.21
873.088	17.07
873.261	33.45
873.434	33.45
873.607	6.83
873.78	39.59
873.953	51.88
874.126	47.79
874.299	15.02
874.471	51.88
874.644	-27.99
874.817	84.65
874.99	33.45
875.163	4.78
875.335	23.21
875.508	-11.61
875.681	43.69
875.853	17.07
876.026	49.83
876.199	31.4
876.371	82.6
876.544	21.16
876.717	-32.08
876.889	-21.85
877.062	2.73
877.234	-19.8
877.407	-5.46
877.579	-27.99
877.752	-11.61
877.924	-21.85
878.097	2.73
878.269	27.31
878.442	62.12
878.614	37.55
878.786	35.5
878.959	-15.7
879.131	-3.41
879.303	-27.99
879.476	31.4
879.648	19.11
879.82	-56.66
879.993	-62.8
880.165	15.02
880.337	-11.61
880.509	53.93
880.681	-68.95
880.854	41.64
881.026	-17.75
881.198	0.68
881.37	60.07
881.542	15.02
881.714	-19.8
881.886	-83.28
882.058	-46.42
882.23	-9.56
882.402	-1.37
882.574	-34.13
882.746	-42.32
882.918	17.07
883.09	47.79
883.262	4.78
883.434	-15.7
883.606	-50.52
883.778	31.4
883.95	76.46
884.122	64.17
884.293	8.87
884.465	29.35
884.637	39.59
884.809	-25.94
884.98	33.45
885.152	-42.32
885.324	15.02
885.496	90.79
885.667	41.64
885.839	-42.32
886.011	64.17
886.182	2.73
886.354	2.73
886.525	-13.65
886.697	33.45
886.869	58.03
887.04	74.41
887.212	12.97
887.383	23.21
887.555	47.79
887.726	8.87
887.897	8.87
888.069	0.68
888.24	55.98
888.412	-27.99
888.583	-25.94
888.754	-9.56
888.926	-15.7
889.097	-5.46
889.268	-1.37
889.44	88.75
889.611	8.87
889.782	15.02
889.953	70.31
890.125	-13.65
890.296	27.31
890.467	55.98
890.638	8.87
890.809	58.03
890.98	21.16
891.151	31.4
891.323	15.02
891.494	29.35
891.665	10.92
891.836	-46.42
892.007	96.94
892.178	-34.13
892.349	21.16
892.52	43.69
892.691	60.07
892.862	-7.51
893.032	27.31
893.203	-38.23
893.374	-11.61
893.545	-15.7
893.716	-23.89
893.887	15.02
894.057	-15.7
894.228	-9.56
894.399	-9.56
894.57	2.73
894.74	25.26
894.911	45.74
895.082	19.11
895.253	-21.85
895.423	29.35
895.594	15.02
895.764	-9.56
895.935	41.64
896.106	33.45
896.276	-9.56
896.447	0.68
896.617	-1.37
896.788	-11.61
896.958	-15.7
897.129	80.55
897.299	-38.23
897.47	17.07
897.64	49.83
897.81	12.97
897.981	10.92
898.151	-7.51
898.322	2.73
898.492	-1.37
898.662	17.07
898.832	27.31
899.003	31.4
899.173	-62.8
899.343	68.27
899.513	-17.75
