Data from USB4F104151__138__13-58-10-236.txt Node

Date: Thu Mar 13 13:58:10 EDT 2025
User: louis
Spectrometer: USB4F10415
Trigger mode: 4
Integration Time (sec): 1.000000E-2
Scans to average: 1
Electric dark correction enabled: true
Nonlinearity correction enabled: false
Boxcar width: 0
XAxis mode: Wavelengths
Number of Pixels in Spectrum: 3648
>>>>>Begin Spectral Data<<<<<
178.204	-74.41
178.424	-74.41
178.644	-74.41
178.864	-47.79
179.084	-31.4
179.304	1.37
179.524	-2.73
179.744	-27.31
179.964	-25.26
180.184	-39.59
180.404	48.47
180.624	23.89
180.844	-0.68
181.064	-35.5
181.283	7.51
181.503	-8.87
181.723	58.71
181.943	-35.5
182.163	73.04
182.383	3.41
182.602	5.46
182.822	-23.21
183.042	1.37
183.262	56.66
183.482	-4.78
183.701	-45.74
183.921	3.41
184.141	-39.59
184.361	27.99
184.58	-0.68
184.8	34.13
185.02	40.28
185.239	23.89
185.459	-45.74
185.679	15.7
185.898	44.37
186.118	-6.83
186.338	-51.88
186.557	-4.78
186.777	7.51
186.997	-33.45
187.216	-53.93
187.436	116.05
187.655	1.37
187.875	34.13
188.095	54.61
188.314	36.18
188.534	17.75
188.753	-17.07
188.973	-2.73
189.192	7.51
189.412	-10.92
189.631	34.13
189.851	9.56
190.07	54.61
190.29	89.43
190.509	-17.07
190.729	91.48
190.948	19.8
191.168	11.61
191.387	56.66
191.607	-45.74
191.826	46.42
192.045	-23.21
192.265	66.9
192.484	34.13
192.704	11.61
192.923	23.89
193.142	-0.68
193.362	-27.31
193.581	-17.07
193.8	-10.92
194.02	11.61
194.239	-64.17
194.458	11.61
194.678	-23.21
194.897	34.13
195.116	46.42
195.335	42.32
195.555	30.04
195.774	64.85
195.993	-12.97
196.212	1.37
196.432	91.48
196.651	-31.4
196.87	11.61
197.089	89.43
197.308	-19.11
197.528	11.61
197.747	-8.87
197.966	-27.31
198.185	38.23
198.404	42.32
198.623	32.08
198.842	11.61
199.062	5.46
199.281	56.66
199.5	40.28
199.719	40.28
199.938	11.61
200.157	46.42
200.376	13.65
200.595	15.7
200.814	52.56
201.033	-6.83
201.252	38.23
201.471	52.56
201.69	7.51
201.909	68.95
202.128	19.8
202.347	13.65
202.566	17.75
202.785	-15.02
203.004	34.13
203.223	15.7
203.442	-92.84
203.661	-21.16
203.879	-10.92
204.098	58.71
204.317	-21.16
204.536	40.28
204.755	36.18
204.974	7.51
205.193	64.85
205.411	23.89
205.63	15.7
205.849	-23.21
206.068	-6.83
206.287	48.47
206.505	-23.21
206.724	-33.45
206.943	-21.16
207.162	1.37
207.381	-19.11
207.599	11.61
207.818	23.89
208.037	44.37
208.255	-10.92
208.474	11.61
208.693	-23.21
208.911	23.89
209.13	23.89
209.349	56.66
209.567	3.41
209.786	36.18
210.005	73.04
210.223	13.65
210.442	3.41
210.661	-4.78
210.879	23.89
211.098	34.13
211.316	75.09
211.535	118.1
211.753	5.46
211.972	34.13
212.191	-10.92
212.409	-25.26
212.628	64.85
212.846	56.66
213.065	-2.73
213.283	-62.12
213.502	-4.78
213.72	54.61
213.938	-8.87
214.157	15.7
214.375	11.61
214.594	48.47
214.812	-17.07
215.031	7.51
215.249	9.56
215.467	23.89
215.686	11.61
215.904	11.61
216.122	15.7
216.341	-33.45
216.559	-37.55
216.778	19.8
216.996	44.37
217.214	7.51
217.432	17.75
217.651	-25.26
217.869	1.37
218.087	1.37
218.306	23.89
218.524	44.37
218.742	-29.35
218.96	107.86
219.179	-2.73
219.397	-45.74
219.615	50.52
219.833	44.37
220.051	-12.97
220.27	25.94
220.488	3.41
220.706	-33.45
220.924	-6.83
221.142	19.8
221.36	-25.26
221.578	66.9
221.796	-10.92
222.015	-25.26
222.233	9.56
222.451	19.8
222.669	-4.78
222.887	32.08
223.105	5.46
223.323	36.18
223.541	50.52
223.759	7.51
223.977	-45.74
224.195	25.94
224.413	77.14
224.631	-19.11
224.849	-2.73
225.067	-17.07
225.285	-6.83
225.503	50.52
225.721	7.51
225.939	3.41
226.157	3.41
226.375	66.9
226.592	91.48
226.81	36.18
227.028	7.51
227.246	79.19
227.464	7.51
227.682	25.94
227.9	-8.87
228.117	-21.16
228.335	-10.92
228.553	17.75
228.771	40.28
228.989	-27.31
229.206	91.48
229.424	40.28
229.642	11.61
229.86	11.61
230.077	3.41
230.295	73.04
230.513	44.37
230.731	-12.97
230.948	27.99
231.166	32.08
231.384	40.28
231.601	3.41
231.819	79.19
232.037	15.7
232.254	-0.68
232.472	73.04
232.689	36.18
232.907	-41.64
233.125	-45.74
233.342	-53.93
233.56	23.89
233.777	38.23
233.995	-66.22
234.213	-21.16
234.43	42.32
234.648	-58.03
234.865	23.89
235.083	48.47
235.3	-17.07
235.518	25.94
235.735	21.85
235.953	-21.16
236.17	38.23
236.388	11.61
236.605	1.37
236.822	23.89
237.04	68.95
237.257	30.04
237.475	40.28
237.692	34.13
237.909	-6.83
238.127	11.61
238.344	54.61
238.562	21.85
238.779	-17.07
238.996	38.23
239.214	-6.83
239.431	7.51
239.648	15.7
239.865	-15.02
240.083	25.94
240.3	15.7
240.517	1.37
240.735	15.7
240.952	56.66
241.169	-6.83
241.386	105.81
241.603	23.89
241.821	-23.21
242.038	38.23
242.255	-35.5
242.472	85.33
242.689	-4.78
242.907	19.8
243.124	44.37
243.341	40.28
243.558	-2.73
243.775	19.8
243.992	17.75
244.209	85.33
244.426	50.52
244.643	77.14
244.86	44.37
245.078	-29.35
245.295	91.48
245.512	73.04
245.729	-33.45
245.946	58.71
246.163	-8.87
246.38	7.51
246.597	23.89
246.814	19.8
247.031	-33.45
247.248	40.28
247.464	-47.79
247.681	9.56
247.898	9.56
248.115	36.18
248.332	44.37
248.549	19.8
248.766	62.8
248.983	111.96
249.2	-2.73
249.417	58.71
249.633	-10.92
249.85	-58.03
250.067	25.94
250.284	15.7
250.501	46.42
250.717	52.56
250.934	5.46
251.151	-19.11
251.368	-27.31
251.585	11.61
251.801	-39.59
252.018	-19.11
252.235	68.95
252.451	27.99
252.668	-33.45
252.885	32.08
253.102	3.41
253.318	50.52
253.535	-84.65
253.752	-33.45
253.968	25.94
254.185	15.7
254.401	11.61
254.618	3.41
254.835	23.89
255.051	44.37
255.268	40.28
255.484	44.37
255.701	13.65
255.917	38.23
256.134	-25.26
256.351	-23.21
256.567	-45.74
256.784	19.8
257	-33.45
257.217	32.08
257.433	27.99
257.65	-0.68
257.866	-29.35
258.082	19.8
258.299	-0.68
258.515	56.66
258.732	1.37
258.948	32.08
259.165	27.99
259.381	19.8
259.597	42.32
259.814	-31.4
260.03	68.95
260.246	1.37
260.463	21.85
260.679	73.04
260.895	-10.92
261.112	-31.4
261.328	60.76
261.544	23.89
261.761	42.32
261.977	27.99
262.193	-51.88
262.409	58.71
262.626	3.41
262.842	27.99
263.058	-25.26
263.274	25.94
263.49	-25.26
263.707	19.8
263.923	56.66
264.139	7.51
264.355	-39.59
264.571	-49.83
264.787	-15.02
265.004	-23.21
265.22	-6.83
265.436	52.56
265.652	-21.16
265.868	3.41
266.084	-39.59
266.3	42.32
266.516	-53.93
266.732	-33.45
266.948	-49.83
267.164	48.47
267.38	79.19
267.596	36.18
267.812	48.47
268.028	11.61
268.244	56.66
268.46	75.09
268.676	3.41
268.892	44.37
269.108	-15.02
269.324	-12.97
269.54	46.42
269.756	9.56
269.972	9.56
270.188	56.66
270.403	-35.5
270.619	68.95
270.835	46.42
271.051	11.61
271.267	44.37
271.483	-8.87
271.698	-33.45
271.914	-0.68
272.13	50.52
272.346	-45.74
272.562	77.14
272.777	-15.02
272.993	-10.92
273.209	44.37
273.425	-25.26
273.64	-6.83
273.856	40.28
274.072	44.37
274.287	66.9
274.503	-17.07
274.719	21.85
274.934	27.99
275.15	21.85
275.366	32.08
275.581	-25.26
275.797	36.18
276.012	25.94
276.228	17.75
276.444	-25.26
276.659	56.66
276.875	5.46
277.09	62.8
277.306	-0.68
277.521	13.65
277.737	-0.68
277.952	-37.55
278.168	-43.69
278.383	27.99
278.599	9.56
278.814	-10.92
279.03	60.76
279.245	38.23
279.461	62.8
279.676	56.66
279.892	-12.97
280.107	32.08
280.322	-17.07
280.538	34.13
280.753	3.41
280.969	23.89
281.184	23.89
281.399	32.08
281.615	62.8
281.83	-31.4
282.045	-25.26
282.26	1.37
282.476	-0.68
282.691	44.37
282.906	-8.87
283.122	60.76
283.337	-17.07
283.552	46.42
283.767	-88.75
283.983	-27.31
284.198	-43.69
284.413	5.46
284.628	-25.26
284.843	7.51
285.058	1.37
285.274	-23.21
285.489	-66.22
285.704	23.89
285.919	50.52
286.134	17.75
286.349	23.89
286.564	36.18
286.779	21.85
286.995	-0.68
287.21	66.9
287.425	42.32
287.64	-29.35
287.855	-2.73
288.07	-2.73
288.285	56.66
288.5	-15.02
288.715	17.75
288.93	-23.21
289.145	-25.26
289.36	34.13
289.575	-10.92
289.79	42.32
290.004	32.08
290.219	52.56
290.434	-25.26
290.649	-23.21
290.864	-0.68
291.079	-33.45
291.294	-12.97
291.509	83.28
291.724	34.13
291.938	3.41
292.153	48.47
292.368	25.94
292.583	42.32
292.798	77.14
293.012	23.89
293.227	-6.83
293.442	-62.12
293.657	19.8
293.871	46.42
294.086	-33.45
294.301	34.13
294.516	21.85
294.73	21.85
294.945	5.46
295.16	7.51
295.374	9.56
295.589	9.56
295.804	-74.41
296.018	77.14
296.233	25.94
296.447	11.61
296.662	7.51
296.877	21.85
297.091	-4.78
297.306	-0.68
297.52	56.66
297.735	36.18
297.949	48.47
298.164	15.7
298.378	64.85
298.593	-10.92
298.807	77.14
299.022	-4.78
299.236	-25.26
299.451	5.46
299.665	-47.79
299.88	44.37
300.094	60.76
300.309	7.51
300.523	36.18
300.737	75.09
300.952	40.28
301.166	-41.64
301.381	7.51
301.595	89.43
301.809	34.13
302.024	-19.11
302.238	-17.07
302.452	1.37
302.667	17.75
302.881	11.61
303.095	-45.74
303.309	32.08
303.524	60.76
303.738	-6.83
303.952	21.85
304.166	75.09
304.381	-29.35
304.595	-64.17
304.809	34.13
305.023	1.37
305.237	40.28
305.452	38.23
305.666	11.61
305.88	30.04
306.094	11.61
306.308	5.46
306.522	21.85
306.736	124.24
306.95	-0.68
307.164	71
307.379	-27.31
307.593	25.94
307.807	32.08
308.021	-33.45
308.235	-25.26
308.449	48.47
308.663	25.94
308.877	103.76
309.091	5.46
309.305	34.13
309.519	-25.26
309.733	11.61
309.947	7.51
310.161	40.28
310.374	-8.87
310.588	30.04
310.802	-35.5
311.016	-41.64
311.23	36.18
311.444	-8.87
311.658	34.13
311.872	11.61
312.085	71
312.299	32.08
312.513	38.23
312.727	-39.59
312.941	66.9
313.154	-17.07
313.368	75.09
313.582	32.08
313.796	1.37
314.009	-15.02
314.223	40.28
314.437	68.95
314.651	-12.97
314.864	23.89
315.078	50.52
315.292	13.65
315.505	-4.78
315.719	62.8
315.933	-0.68
316.146	-17.07
316.36	62.8
316.573	17.75
316.787	-17.07
317.001	-2.73
317.214	-43.69
317.428	1.37
317.641	-4.78
317.855	27.99
318.068	-8.87
318.282	-39.59
318.495	60.76
318.709	52.56
318.922	42.32
319.136	42.32
319.349	62.8
319.563	25.94
319.776	83.28
319.99	56.66
320.203	60.76
320.417	-31.4
320.63	32.08
320.843	1.37
321.057	34.13
321.27	30.04
321.483	23.89
321.697	60.76
321.91	79.19
322.124	32.08
322.337	30.04
322.55	48.47
322.763	54.61
322.977	32.08
323.19	19.8
323.403	11.61
323.617	19.8
323.83	19.8
324.043	25.94
324.256	34.13
324.469	11.61
324.683	13.65
324.896	9.56
325.109	27.99
325.322	36.18
325.535	23.89
325.748	-19.11
325.962	42.32
326.175	89.43
326.388	30.04
326.601	-0.68
326.814	66.9
327.027	-4.78
327.24	54.61
327.453	1.37
327.666	56.66
327.879	15.7
328.092	75.09
328.305	30.04
328.518	36.18
328.731	-10.92
328.944	62.8
329.157	-15.02
329.37	-0.68
329.583	-15.02
329.796	73.04
330.009	-12.97
330.222	95.57
330.435	62.8
330.648	17.75
330.861	-2.73
331.073	-15.02
331.286	77.14
331.499	36.18
331.712	62.8
331.925	15.7
332.138	83.28
332.35	97.62
332.563	30.04
332.776	-0.68
332.989	13.65
333.202	32.08
333.414	-33.45
333.627	9.56
333.84	-49.83
334.053	50.52
334.265	-0.68
334.478	79.19
334.691	40.28
334.903	15.7
335.116	36.18
335.329	56.66
335.541	-17.07
335.754	9.56
335.966	68.95
336.179	66.9
336.392	-29.35
336.604	1.37
336.817	68.95
337.029	36.18
337.242	11.61
337.454	9.56
337.667	-60.07
337.88	11.61
338.092	40.28
338.305	79.19
338.517	-45.74
338.729	40.28
338.942	19.8
339.154	118.1
339.367	-25.26
339.579	-0.68
339.792	-10.92
340.004	77.14
340.217	-37.55
340.429	66.9
340.641	-51.88
340.854	25.94
341.066	7.51
341.278	23.89
341.491	48.47
341.703	1.37
341.915	-12.97
342.128	-37.55
342.34	9.56
342.552	9.56
342.764	-41.64
342.977	48.47
343.189	9.56
343.401	21.85
343.613	-37.55
343.826	-4.78
344.038	54.61
344.25	40.28
344.462	-29.35
344.674	-19.11
344.886	11.61
345.099	15.7
345.311	13.65
345.523	-74.41
345.735	27.99
345.947	-43.69
346.159	46.42
346.371	58.71
346.583	-37.55
346.795	-8.87
347.007	-58.03
347.219	58.71
347.431	1.37
347.643	46.42
347.855	97.62
348.067	48.47
348.279	-84.65
348.491	13.65
348.703	-31.4
348.915	48.47
349.127	-0.68
349.339	-6.83
349.551	58.71
349.763	-0.68
349.975	17.75
350.187	77.14
350.399	36.18
350.61	60.76
350.822	-17.07
351.034	27.99
351.246	46.42
351.458	58.71
351.669	40.28
351.881	-0.68
352.093	68.95
352.305	44.37
352.517	71
352.728	-8.87
352.94	7.51
353.152	66.9
353.363	-4.78
353.575	7.51
353.787	48.47
353.999	66.9
354.21	-6.83
354.422	130.39
354.633	-21.16
354.845	19.8
355.057	-88.75
355.268	25.94
355.48	19.8
355.692	-23.21
355.903	34.13
356.115	-2.73
356.326	3.41
356.538	-8.87
356.749	9.56
356.961	32.08
357.172	79.19
357.384	-4.78
357.595	44.37
357.807	11.61
358.018	-2.73
358.23	-0.68
358.441	42.32
358.653	107.86
358.864	-4.78
359.075	15.7
359.287	71
359.498	-17.07
359.709	-4.78
359.921	-33.45
360.132	17.75
360.344	3.41
360.555	38.23
360.766	68.95
360.977	21.85
361.189	-31.4
361.4	15.7
361.611	3.41
361.823	42.32
362.034	40.28
362.245	23.89
362.456	32.08
362.667	40.28
362.879	-39.59
363.09	-51.88
363.301	1.37
363.512	52.56
363.723	-6.83
363.935	27.99
364.146	93.52
364.357	17.75
364.568	64.85
364.779	-0.68
364.99	15.7
365.201	25.94
365.412	-21.16
365.623	-29.35
365.834	81.24
366.045	11.61
366.256	50.52
366.467	27.99
366.678	25.94
366.889	-0.68
367.1	-6.83
367.311	-25.26
367.522	-23.21
367.733	42.32
367.944	50.52
368.155	27.99
368.366	-66.22
368.577	-15.02
368.788	15.7
368.999	11.61
369.209	58.71
369.42	9.56
369.631	9.56
369.842	58.71
370.053	-37.55
370.264	27.99
370.474	-21.16
370.685	-8.87
370.896	-8.87
371.107	9.56
371.317	-12.97
371.528	9.56
371.739	50.52
371.95	-6.83
372.16	140.63
372.371	23.89
372.582	30.04
372.792	38.23
373.003	3.41
373.214	-8.87
373.424	73.04
373.635	64.85
373.846	13.65
374.056	-25.26
374.267	91.48
374.477	-27.31
374.688	85.33
374.898	19.8
375.109	40.28
375.319	56.66
375.53	-60.07
375.74	52.56
375.951	-37.55
376.161	64.85
376.372	64.85
376.582	-15.02
376.793	15.7
377.003	23.89
377.214	15.7
377.424	-8.87
377.635	36.18
377.845	52.56
378.055	-27.31
378.266	77.14
378.476	-33.45
378.686	23.89
378.897	81.24
379.107	44.37
379.317	19.8
379.528	-0.68
379.738	58.71
379.948	23.89
380.158	-12.97
380.369	-45.74
380.579	48.47
380.789	60.76
380.999	-12.97
381.21	56.66
381.42	11.61
381.63	13.65
381.84	32.08
382.05	-41.64
382.261	75.09
382.471	19.8
382.681	73.04
382.891	46.42
383.101	79.19
383.311	-12.97
383.521	11.61
383.731	15.7
383.941	68.95
384.151	-15.02
384.361	9.56
384.571	-45.74
384.781	81.24
384.991	17.75
385.201	68.95
385.411	36.18
385.621	9.56
385.831	-2.73
386.041	13.65
386.251	-35.5
386.461	21.85
386.671	9.56
386.881	-15.02
387.091	-15.02
387.301	-0.68
387.511	-2.73
387.72	64.85
387.93	87.38
388.14	15.7
388.35	-21.16
388.56	50.52
388.769	42.32
388.979	62.8
389.189	-68.27
389.399	-23.21
389.609	3.41
389.818	50.52
390.028	52.56
390.238	9.56
390.447	17.75
390.657	-15.02
390.867	11.61
391.076	-6.83
391.286	7.51
391.496	-25.26
391.705	13.65
391.915	60.76
392.125	38.23
392.334	40.28
392.544	30.04
392.753	89.43
392.963	81.24
393.172	71
393.382	60.76
393.591	-8.87
393.801	23.89
394.01	36.18
394.22	64.85
394.429	36.18
394.639	-0.68
394.848	5.46
395.058	62.8
395.267	79.19
395.477	-39.59
395.686	34.13
395.895	79.19
396.105	34.13
396.314	81.24
396.524	9.56
396.733	-0.68
396.942	48.47
397.152	62.8
397.361	77.14
397.57	15.7
397.78	62.8
397.989	9.56
398.198	38.23
398.407	-23.21
398.617	56.66
398.826	-29.35
399.035	23.89
399.244	9.56
399.453	42.32
399.663	-0.68
399.872	5.46
400.081	21.85
400.29	73.04
400.499	5.46
400.708	138.58
400.917	91.48
401.127	99.67
401.336	23.89
401.545	75.09
401.754	15.7
401.963	25.94
402.172	23.89
402.381	13.65
402.59	-15.02
402.799	40.28
403.008	64.85
403.217	75.09
403.426	30.04
403.635	50.52
403.844	83.28
404.053	73.04
404.262	44.37
404.471	95.57
404.68	13.65
404.888	52.56
405.097	7.51
405.306	77.14
405.515	21.85
405.724	68.95
405.933	9.56
406.142	48.47
406.35	148.82
406.559	124.24
406.768	93.52
406.977	97.62
407.185	103.76
407.394	93.52
407.603	40.28
407.812	107.86
408.02	89.43
408.229	27.99
408.438	85.33
408.646	81.24
408.855	87.38
409.064	83.28
409.272	81.24
409.481	122.2
409.69	105.81
409.898	111.96
410.107	64.85
410.315	122.2
410.524	134.48
410.733	79.19
410.941	93.52
411.15	212.31
411.358	189.78
411.567	138.58
411.775	138.58
411.984	91.48
412.192	150.87
412.401	214.35
412.609	167.25
412.818	140.63
413.026	103.76
413.234	214.35
413.443	214.35
413.651	220.5
413.86	200.02
414.068	267.6
414.276	279.89
414.485	296.27
414.693	320.85
414.901	273.75
415.11	294.22
415.318	202.07
415.526	261.46
415.734	238.93
415.943	345.42
416.151	292.18
416.359	310.61
416.567	269.65
416.776	341.33
416.984	302.42
417.192	326.99
417.4	394.58
417.608	365.9
417.817	378.19
418.025	400.72
418.233	453.97
418.441	427.34
418.649	480.59
418.857	355.66
419.065	382.29
419.273	458.06
419.481	468.3
419.689	515.41
419.897	527.69
420.105	496.97
420.313	576.84
420.521	580.94
420.729	615.76
420.937	623.95
421.145	558.41
421.353	687.43
421.561	703.82
421.769	675.15
421.977	769.35
422.185	734.54
422.393	726.35
422.601	789.83
422.809	853.32
423.017	828.74
423.224	861.51
423.432	933.19
423.64	886.09
423.848	990.53
424.056	910.66
424.263	1011.01
424.471	1011.01
424.679	900.42
424.887	1082.69
425.094	1076.55
425.302	1121.6
425.51	1092.93
425.718	1174.85
425.925	1219.91
426.133	1318.21
426.341	1273.15
426.548	1375.55
426.756	1445.18
426.964	1420.61
427.171	1473.85
427.379	1539.39
427.586	1529.15
427.794	1561.92
428.001	1654.08
428.209	1670.46
428.417	1744.19
428.624	1862.97
428.832	1844.54
429.039	1844.54
429.247	1889.59
429.454	1908.02
429.662	1996.09
429.869	1901.88
430.076	2106.68
430.284	2112.82
430.491	2186.55
430.699	2299.19
430.906	2272.56
431.114	2256.18
431.321	2442.54
431.528	2338.1
431.736	2532.65
431.943	2819.37
432.15	2618.67
432.358	2733.36
432.565	2784.55
432.772	2848.04
432.979	2866.47
433.187	2950.44
433.394	3018.02
433.601	3210.53
433.808	3308.83
434.016	3188
434.223	3259.68
434.43	3538.21
434.637	3331.36
434.844	3697.95
435.052	3751.2
435.259	3656.99
435.466	3714.33
435.673	3636.51
435.88	3847.45
436.087	4068.63
436.294	4218.13
436.501	3958.04
436.708	4185.37
436.915	4314.39
437.122	4463.89
437.329	4408.59
437.537	4609.3
437.743	4738.32
437.95	4775.18
438.157	4824.33
438.364	5061.9
438.571	4967.69
438.778	5068.04
438.985	5543.17
439.192	5149.96
439.399	5465.35
439.606	5195.01
439.813	5633.28
440.02	6089.98
440.227	5848.32
440.433	5958.91
440.64	6083.83
440.847	6040.83
441.054	5973.24
441.261	6601.97
441.467	6427.89
441.674	6612.21
441.881	6745.33
442.088	6657.26
442.294	6759.66
442.501	6966.51
442.708	6939.88
442.914	7351.53
443.121	7603.43
443.328	7347.43
443.534	7855.33
443.741	7789.79
443.948	7603.43
444.154	8129.75
444.361	7990.49
444.568	8125.66
444.774	8094.94
444.981	8088.79
445.187	8473.81
445.394	8916.17
445.6	8561.87
445.807	9454.79
446.013	9090.25
446.22	9198.79
446.426	9825.47
446.633	9594.05
446.839	9964.73
447.046	9624.77
447.252	10450.1
447.459	10310.84
447.665	10169.53
447.871	10507.44
448.078	10945.71
448.284	10788.02
448.491	10759.35
448.697	11328.68
448.903	11488.42
449.11	11478.18
449.316	11146.41
449.522	11472.04
449.728	12117.15
449.935	11809.95
450.141	11883.68
450.347	12338.33
450.553	11787.43
450.76	11863.2
450.966	12436.63
451.172	12229.79
451.378	12616.85
451.584	12315.8
451.791	12715.16
451.997	12608.66
452.203	12936.34
452.409	12676.24
452.615	12862.61
452.821	12246.17
453.027	12164.25
453.233	12735.64
453.44	12436.63
453.646	12467.35
453.852	12616.85
454.058	12778.64
454.264	12465.3
454.47	12745.87
454.676	12303.51
454.882	12657.81
455.088	11685.03
455.294	12063.9
455.5	12160.16
455.705	12242.07
455.911	11484.33
456.117	11568.29
456.323	11158.7
456.529	10615.99
456.735	11132.08
456.941	10906.8
457.147	10538.16
457.352	10433.72
457.558	10183.87
457.764	10218.68
457.97	10101.95
458.176	9987.26
458.381	9731.26
458.587	9448.65
458.793	9450.69
458.999	9108.68
459.204	9528.52
459.41	9252.04
459.616	8961.23
459.821	8611.03
460.027	8768.72
460.233	8545.49
460.438	7961.82
460.644	8139.99
460.85	7687.39
461.055	7460.07
461.261	7644.38
461.466	7206.12
461.672	6956.27
461.878	7152.87
462.083	7101.67
462.289	6841.58
462.494	6620.4
462.7	6423.8
462.905	6407.41
463.111	6417.65
463.316	6462.71
463.522	6323.44
463.727	6399.22
463.932	6161.66
464.138	6219
464.343	6341.88
464.549	5909.76
464.754	6382.84
464.959	6499.57
465.165	6143.22
465.37	6096.12
465.575	5756.16
465.781	6028.54
465.986	6016.25
466.191	5741.82
466.397	5592.32
466.602	5625.09
466.807	5598.46
467.012	5635.33
467.218	5563.65
467.423	5459.2
467.628	5666.05
467.833	5807.36
468.038	5666.05
468.244	5385.48
468.449	5694.72
468.654	5620.99
468.859	5342.47
469.064	5444.87
469.269	5127.43
469.474	5229.83
469.679	5315.84
469.885	5137.67
470.09	5147.91
470.295	5139.72
470.5	4898.06
470.705	5303.56
470.91	5006.6
471.115	4865.29
471.32	5141.77
471.525	4967.69
471.73	4672.78
471.935	4695.31
472.139	4730.13
472.344	4689.17
472.549	4680.97
472.754	4625.68
472.959	4605.2
473.164	4521.23
473.369	4447.51
473.574	4680.97
473.778	4603.15
473.983	4394.26
474.188	4381.97
474.393	4437.27
474.598	4332.82
474.802	4226.32
475.007	4197.65
475.212	4447.51
475.417	4142.36
475.621	4101.4
475.826	4160.79
476.031	4013.34
476.235	3931.42
476.44	4058.39
476.645	4021.53
476.849	3773.72
477.054	3982.62
477.259	3884.31
477.463	3880.22
477.668	3818.78
477.872	3837.21
478.077	3710.24
478.282	3695.9
478.486	3773.72
478.691	3525.92
478.895	3489.06
479.1	3530.02
479.304	3663.13
479.509	3421.47
479.713	3538.21
479.918	3429.66
480.122	3292.45
480.326	3403.04
480.531	3501.34
480.735	3360.03
480.94	3362.08
481.144	3511.58
481.348	3317.03
481.553	3284.26
481.757	3331.36
481.961	3218.72
482.166	3263.78
482.37	3286.31
482.574	3239.2
482.778	3351.84
482.983	3386.66
483.187	3255.59
483.391	3409.19
483.595	3206.44
483.8	3183.91
484.004	3222.82
484.208	3339.55
484.412	3235.11
484.616	3280.16
484.821	3298.6
485.025	3302.69
485.229	3269.92
485.433	3228.96
485.637	3263.78
485.841	3302.69
486.045	3284.26
486.249	3231.01
486.453	3245.35
486.657	3271.97
486.861	3263.78
487.065	3243.3
487.269	3321.12
487.473	3116.33
487.677	3220.77
487.881	3302.69
488.085	3179.81
488.289	3288.36
488.493	3292.45
488.697	3296.55
488.901	3169.57
489.105	3321.12
489.309	3325.22
489.512	3403.04
489.716	3288.36
489.92	3427.62
490.124	3300.64
490.328	3411.23
490.531	3341.6
490.735	3331.36
490.939	3347.75
491.143	3245.35
491.346	3278.12
491.55	3302.69
491.754	3292.45
491.958	3439.9
492.161	3452.19
492.365	3480.86
492.569	3667.23
492.772	3501.34
492.976	3548.45
493.18	3558.69
493.383	3552.54
493.587	3656.99
493.79	3661.09
493.994	3573.02
494.197	3708.19
494.401	3679.52
494.605	3718.43
494.808	3712.28
495.012	3650.85
495.215	3728.67
495.419	3812.64
495.622	3763.48
495.825	3904.79
496.029	3908.89
496.232	4003.1
496.436	3777.82
496.639	4211.99
496.843	4050.2
497.046	4078.87
497.249	4082.97
497.453	4150.55
497.656	4111.64
497.859	4195.61
498.063	4332.82
498.266	4332.82
498.469	4435.22
498.673	4463.89
498.876	4427.03
499.079	4594.96
499.282	4525.33
499.485	4562.19
499.689	4742.41
499.892	4908.3
500.095	4889.87
500.298	4814.09
500.501	4775.18
500.705	4939.02
500.908	5115.14
501.111	5143.81
501.314	5270.79
501.517	5178.63
501.72	5207.3
501.923	5268.74
502.126	5418.24
502.329	5508.35
502.532	5565.7
502.735	5467.39
502.938	5666.05
503.141	5739.77
503.344	5922.04
503.547	5809.4
503.75	5903.61
503.953	6106.36
504.156	6110.46
504.359	6155.51
504.562	6237.43
504.765	6376.69
504.968	6573.3
505.17	6534.39
505.373	6647.02
505.576	6679.79
505.779	6581.49
505.982	6628.59
506.185	6946.03
506.387	7179.5
506.59	7107.82
506.793	7288.04
506.996	7445.73
507.198	7464.16
507.401	7558.37
507.604	7593.19
507.807	7918.81
508.009	7795.93
508.212	7838.94
508.415	8133.85
508.617	8068.31
508.82	8082.65
509.022	8137.95
509.225	8312.02
509.428	8602.83
509.63	8662.23
509.833	8654.03
510.035	8877.26
510.238	8727.76
510.44	9088.2
510.643	9260.23
510.845	9151.69
511.048	9432.26
511.25	9333.96
511.453	9600.19
511.655	9995.45
511.858	9788.61
512.06	9985.21
512.262	10132.67
512.465	10024.12
512.667	10314.94
512.87	10628.28
513.072	10425.53
513.274	10800.3
513.477	10996.91
513.679	10777.78
513.881	11148.46
514.084	11357.35
514.286	11420.84
514.488	11662.5
514.69	11900.06
514.893	12041.37
515.095	11879.58
515.297	12131.48
515.499	12276.89
515.701	12459.16
515.904	12721.3
516.106	12723.35
516.308	12657.81
516.51	13218.96
516.712	13288.59
516.914	13333.64
517.116	13343.88
517.318	13522.06
517.52	13608.07
517.722	13870.21
517.925	14275.71
518.127	14298.24
518.329	14361.72
518.531	14408.83
518.733	14820.47
518.935	14945.39
519.136	14906.48
519.338	15209.58
519.54	15328.36
519.742	15522.92
519.944	15469.67
520.146	15866.98
520.348	16129.12
520.55	16082.02
520.752	16200.8
520.954	16401.5
521.155	16596.06
521.357	16919.64
521.559	16751.7
521.761	17159.25
521.963	17368.14
522.164	17208.4
522.366	17398.86
522.568	17542.22
522.77	17988.67
522.971	18404.41
523.173	18273.34
523.375	18340.93
523.576	18541.63
523.778	18445.37
523.98	18988.08
524.181	19020.85
524.383	18801.72
524.584	19199.02
524.786	19463.21
524.988	19373.1
525.189	19541.04
525.391	19758.12
525.592	19702.82
525.794	19733.54
525.995	20132.9
526.197	20069.41
526.398	20380.7
526.6	20266.02
526.801	20554.78
527.003	20278.3
527.204	20714.52
527.406	20888.6
527.607	20737.05
527.808	21355.54
528.01	20814.87
528.211	21148.69
528.412	21402.64
528.614	21584.91
528.815	21740.55
529.016	21617.68
529.218	21423.12
529.419	21715.98
529.62	21750.79
529.822	22215.68
530.023	21818.38
530.224	22125.57
530.425	22035.46
530.626	21883.91
530.828	22162.44
531.029	22719.48
531.23	22248.45
531.431	22277.12
531.632	22227.97
531.833	22371.33
532.035	22400
532.236	22619.13
532.437	22471.68
532.638	22629.37
532.839	22649.85
533.04	22590.46
533.241	22742.01
533.442	23204.85
533.643	22821.88
533.844	22742.01
534.045	23047.16
534.246	22854.65
534.447	22932.47
534.648	22801.4
534.849	23059.45
535.05	23045.11
535.251	23122.93
535.451	23137.27
535.652	23270.39
535.853	22871.03
536.054	23114.74
536.255	23069.69
536.456	22993.91
536.657	23323.63
536.857	23264.24
537.058	23127.03
537.259	23473.14
537.46	23256.05
537.66	22909.94
537.861	23450.61
538.062	23301.11
538.263	23299.06
538.463	23211
538.664	23405.55
538.865	23395.31
539.065	23426.03
539.266	23280.63
539.466	23577.58
539.667	23219.19
539.868	23434.22
540.068	23245.81
540.269	23206.9
540.469	23172.08
540.67	23215.09
540.87	23434.22
541.071	23579.63
541.271	23329.78
541.472	23399.41
541.672	23548.91
541.873	23282.67
542.073	23065.59
542.274	23555.05
542.474	23346.16
542.675	23155.7
542.875	23479.28
543.075	23284.72
543.276	22934.52
543.476	23278.58
543.676	23225.33
543.877	23598.06
544.077	23360.5
544.277	23124.98
544.478	23141.36
544.678	23518.19
544.878	23305.2
545.078	23536.62
545.279	23151.6
545.479	23131.12
545.679	23630.83
545.879	23454.7
546.079	23129.08
546.28	23479.28
546.48	23143.41
546.68	23362.54
546.88	23401.46
547.08	23270.39
547.28	23286.77
547.48	23256.05
547.68	23264.24
547.88	23374.83
548.081	23145.46
548.281	23045.11
548.481	23147.51
548.681	23692.27
548.881	23505.9
549.081	23415.79
549.28	23315.44
549.48	23307.25
549.68	23340.02
549.88	23606.25
550.08	23208.95
550.28	23417.84
550.48	23131.12
550.68	23305.2
550.88	23579.63
551.08	23366.64
551.279	23528.43
551.479	23190.52
551.679	23389.17
551.879	23305.2
552.079	23317.49
552.278	23229.43
552.478	23475.18
552.678	23436.27
552.878	23436.27
553.077	23178.23
553.277	23155.7
553.477	23477.23
553.676	23237.62
553.876	23553.01
554.076	23075.83
554.275	23514.09
554.475	22907.9
554.674	22856.7
554.874	23071.73
555.074	22805.5
555.273	23086.07
555.473	23184.37
555.672	23079.93
555.872	23182.32
556.071	22744.06
556.271	22963.19
556.47	22885.37
556.67	22432.77
556.869	22850.55
557.068	23030.77
557.268	22594.56
557.467	22606.84
557.667	22664.19
557.866	22635.52
558.065	22676.48
558.265	22627.32
558.464	22625.28
558.663	22780.92
558.863	21959.69
559.062	22725.63
559.261	22301.7
559.461	22662.14
559.66	22113.28
559.859	22443.01
560.058	22082.56
560.258	22197.25
560.457	22350.85
560.656	22332.42
560.855	21951.49
561.054	22289.41
561.253	21873.67
561.453	22129.67
561.652	22316.03
561.851	21718.03
562.05	21914.63
562.249	21672.97
562.448	22055.94
562.647	22090.76
562.846	21902.34
563.045	21838.86
563.244	21652.49
563.443	22057.99
563.642	21576.72
563.841	21734.41
564.04	21414.93
564.239	21804.04
564.438	21275.66
564.637	21787.66
564.836	21371.92
565.035	21267.47
565.234	21486.61
565.432	21320.72
565.631	21158.93
565.83	21220.37
566.029	21107.73
566.228	20958.23
566.427	21068.82
566.625	21095.44
566.824	20700.19
567.023	21105.68
567.222	20657.18
567.42	20681.75
567.619	20810.78
567.818	20898.84
568.016	20675.61
568.215	20796.44
568.414	20571.16
568.612	20376.61
568.811	20388.89
569.01	20292.64
569.208	19889.19
569.407	20163.62
569.605	20243.49
569.804	20251.68
570.002	20007.97
570.201	20358.17
570.4	19981.35
570.598	19633.19
570.797	19643.43
570.995	19455.02
571.193	19495.98
571.392	19586.09
571.59	19221.55
571.789	19549.23
571.987	19311.66
572.186	19735.59
572.384	19104.82
572.582	19326
572.781	19184.69
572.979	19039.28
573.177	19311.66
573.376	19047.47
573.574	18789.43
573.772	19295.28
573.971	18922.55
574.169	18615.35
574.367	18773.05
574.565	18666.55
574.763	18609.21
574.962	18492.48
575.16	18328.64
575.358	18203.71
575.556	18256.96
575.754	18140.22
575.952	17767.49
576.151	18179.14
576.349	17988.67
576.547	18025.54
576.745	18000.96
576.943	18007.11
577.141	17888.32
577.339	17790.02
577.537	17648.71
577.735	17820.74
577.933	17546.31
578.131	17720.39
578.329	17482.83
578.527	17130.58
578.725	17370.19
578.923	17513.55
579.121	17005.65
579.319	17099.86
579.516	17142.86
579.714	16915.54
579.912	16976.98
580.11	16933.97
580.308	16893.01
580.506	16716.89
580.704	16432.22
580.901	16710.74
581.099	16995.41
581.297	16393.31
581.495	16505.95
581.692	16772.18
581.89	16385.12
582.088	16651.35
582.285	16495.71
582.483	16348.25
582.681	16301.15
582.878	16204.89
583.076	16145.5
583.274	16168.03
583.471	16106.59
583.669	16073.82
583.866	15883.36
584.064	16106.59
584.262	15752.29
584.459	16039.01
584.657	15778.92
584.854	15707.24
585.052	15531.11
585.249	15627.37
585.447	15684.71
585.644	15375.47
585.841	15557.74
586.039	15352.94
586.236	15182.96
586.434	14967.92
586.631	15297.64
586.828	15367.27
587.026	15010.93
587.223	15109.23
587.42	15047.79
587.618	15015.02
587.815	14697.59
588.012	14711.92
588.21	14695.54
588.407	14849.14
588.604	14742.64
588.801	14654.58
588.999	14693.49
589.196	14578.81
589.393	14523.51
589.59	14593.14
589.787	14615.67
589.984	14349.43
590.182	14201.98
590.379	14402.68
590.576	14040.19
590.773	14120.06
590.97	14038.14
591.167	14130.3
591.364	13927.55
591.561	14109.82
591.758	14120.06
591.955	13888.64
592.152	14113.92
592.349	13898.88
592.546	14007.42
592.743	13925.5
592.94	13696.13
593.137	13763.72
593.334	13835.39
593.531	13634.69
593.727	13671.56
593.924	13487.24
594.121	13243.53
594.318	13540.49
594.515	13522.06
594.712	13687.94
594.908	13364.36
595.105	13376.65
595.302	13151.37
595.499	13272.2
595.696	13253.77
595.892	13003.92
596.089	13214.86
596.286	13110.41
596.482	12942.48
596.679	12909.71
596.876	12942.48
597.072	12909.71
597.269	12862.61
597.466	12625.04
597.662	12872.85
597.859	12811.41
598.055	12870.8
598.252	12545.17
598.448	12661.91
598.645	12694.68
598.841	12586.13
599.038	12510.36
599.234	12500.12
599.431	12231.83
599.627	12299.42
599.824	12461.21
600.02	12422.3
600.217	12319.9
600.413	12248.22
600.609	12133.53
600.806	12270.75
601.002	12319.9
601.198	12174.49
601.395	11707.55
601.591	11977.89
601.787	11943.07
601.984	11848.86
602.18	11990.17
602.376	11994.27
602.572	11795.62
602.769	11758.75
602.965	11617.44
603.161	11723.94
603.357	11703.46
603.553	11605.16
603.75	11572.39
603.946	11510.95
604.142	11410.6
604.338	11484.33
604.534	11355.3
604.73	11287.72
604.926	11179.18
605.122	11252.91
605.318	11265.19
605.514	11068.59
605.71	11011.25
605.906	11066.54
606.102	11080.88
606.298	11062.44
606.494	11119.79
606.69	10894.51
606.886	10886.32
607.082	10759.35
607.278	10863.79
607.474	10595.51
607.67	10800.3
607.866	10683.57
608.062	10792.11
608.257	10542.26
608.453	10697.91
608.649	10650.8
608.845	10353.85
609.041	10572.98
609.236	10472.63
609.432	10394.81
609.628	10474.68
609.824	10456.25
610.019	10468.53
610.215	10319.03
610.411	10194.11
610.606	10124.47
610.802	10300.6
610.998	9960.64
611.193	10333.37
611.389	10032.32
611.584	9663.68
611.78	10044.6
611.976	9950.4
612.171	10052.8
612.367	10060.99
612.562	9667.78
612.758	9747.65
612.953	9790.66
613.149	9755.84
613.344	9743.55
613.539	9712.83
613.735	9512.13
613.93	9585.86
614.126	9602.24
614.321	9657.54
614.517	9839.81
614.712	9471.17
614.907	9567.43
615.103	9667.78
615.298	9553.09
615.493	9520.32
615.688	9198.79
615.884	9505.99
616.079	9411.78
616.274	9280.71
616.47	9182.41
616.665	9366.73
616.86	9299.14
617.055	9249.99
617.25	9274.57
617.445	9282.76
617.641	9088.2
617.836	9135.31
618.031	8926.41
618.226	9059.53
618.421	9010.38
618.616	9049.29
618.811	8860.88
619.006	9034.96
619.201	8711.38
619.396	8834.25
619.591	8662.23
619.786	8735.95
619.981	8559.83
620.176	8633.55
620.371	8426.71
620.566	8502.48
620.761	8465.62
620.956	8643.79
621.151	8465.62
621.346	8426.71
621.541	8217.82
621.735	8285.4
621.93	8240.34
622.125	8246.49
622.32	8346.84
622.515	8029.4
622.709	8064.22
622.904	7992.54
623.099	8088.79
623.294	7871.71
623.488	7877.85
623.683	7865.57
623.878	7732.45
624.072	7761.12
624.267	7810.27
624.462	7787.74
624.656	7587.04
624.851	7582.95
625.046	7525.6
625.24	7365.86
625.435	7396.58
625.629	7417.06
625.824	7318.76
626.018	7275.75
626.213	7167.21
626.407	7265.51
626.602	7191.78
626.796	7273.7
626.991	7122.15
627.185	7220.46
627.38	7118.06
627.574	7001.32
627.768	6948.08
627.963	7021.8
628.157	6927.6
628.352	6857.96
628.546	6655.22
628.74	6708.46
628.935	6896.88
629.129	6649.07
629.323	6798.57
629.517	6593.78
629.712	6749.42
629.906	6599.92
630.1	6581.49
630.294	6622.45
630.489	6429.94
630.683	6651.12
630.877	6315.25
631.071	6384.88
631.265	6350.07
631.459	6309.11
631.653	6321.4
631.848	6290.68
632.042	6229.24
632.236	6182.14
632.43	6302.97
632.624	6053.11
632.818	6081.78
633.012	6014.2
633.206	5963
633.4	5999.87
633.594	6010.11
633.788	5997.82
633.982	5989.63
634.176	5760.25
634.369	5799.16
634.563	5813.5
634.757	5807.36
634.951	5770.49
635.145	5807.36
635.339	5674.24
635.533	5758.21
635.726	5702.91
635.92	5586.18
636.114	5661.95
636.308	5504.26
636.501	5516.55
636.695	5512.45
636.889	5504.26
637.083	5221.64
637.276	5295.36
637.47	5371.14
637.664	5281.03
637.857	5342.47
638.051	5305.6
638.244	5219.59
638.438	5287.17
638.632	5137.67
638.825	5076.23
639.019	5160.2
639.212	5031.18
639.406	5035.27
639.599	4979.98
639.793	5041.42
639.986	5018.89
640.18	4998.41
640.373	4906.25
640.567	4984.07
640.76	4963.59
640.954	4832.52
641.147	4699.41
641.34	4834.57
641.534	4699.41
641.727	4771.08
641.92	4732.17
642.114	4656.4
642.307	4726.03
642.5	4666.64
642.694	4478.23
642.887	4560.14
643.08	4549.9
643.273	4601.1
643.467	4424.98
643.66	4384.02
643.853	4349.2
644.046	4195.61
644.239	4334.87
644.432	4216.09
644.626	4158.74
644.819	4085.02
645.012	4336.92
645.205	4113.69
645.398	4052.25
645.591	4050.2
645.784	4050.2
645.977	3996.95
646.17	4123.93
646.363	3994.9
646.556	4136.21
646.749	4037.91
646.942	3892.51
647.135	3933.47
647.328	3880.22
647.521	3906.84
647.714	3804.44
647.907	3786.01
648.099	3820.83
648.292	3656.99
648.485	3814.68
648.678	3714.33
648.871	3532.06
649.064	3554.59
649.256	3798.3
649.449	3540.26
649.642	3638.56
649.835	3722.52
650.027	3702.04
650.22	3575.07
650.413	3501.34
650.605	3523.87
650.798	3388.71
650.991	3470.62
651.183	3411.23
651.376	3394.85
651.568	3384.61
651.761	3308.83
651.954	3302.69
652.146	3294.5
652.339	3321.12
652.531	3269.92
652.724	3163.43
652.916	3161.38
653.109	3126.57
653.301	3235.11
653.494	3138.85
653.686	3085.61
653.879	3169.57
654.071	3001.64
654.263	3153.19
654.456	3108.13
654.648	2989.35
654.84	2989.35
655.033	2952.49
655.225	2936.1
655.417	3038.5
655.61	2903.34
655.802	2901.29
655.994	2821.42
656.186	2874.67
656.379	3077.41
656.571	2975.02
656.763	2714.92
656.955	2749.74
657.148	2874.67
657.34	2802.99
657.532	2843.95
657.724	2559.28
657.916	2778.41
658.108	2745.64
658.3	2739.5
658.492	2620.72
658.684	2596.14
658.876	2647.34
659.068	2757.93
659.26	2630.96
659.452	2645.29
659.644	2614.57
659.836	2530.61
660.028	2526.51
660.22	2442.54
660.412	2506.03
660.604	2450.74
660.796	2526.51
660.988	2377.01
661.18	2374.96
661.372	2356.53
661.563	2534.7
661.755	2426.16
661.947	2358.58
662.139	2393.39
662.331	2223.41
662.522	2215.22
662.714	2344.24
662.906	2358.58
663.097	2309.43
663.289	2221.36
663.481	2198.84
663.673	2243.89
663.864	2098.49
664.056	2121.01
664.247	2102.58
664.439	2071.86
664.631	2172.21
664.822	2145.59
665.014	2067.77
665.205	2121.01
665.397	2127.16
665.588	1961.27
665.78	2141.49
665.971	1965.37
666.163	2004.28
666.354	2000.18
666.546	2061.62
666.737	2094.39
666.929	1936.7
667.12	1991.99
667.311	1928.5
667.503	1998.13
667.694	1922.36
667.885	1852.73
668.077	1817.91
668.268	1901.88
668.459	1916.22
668.651	1899.83
668.842	1895.74
669.033	1877.3
669.224	1842.49
669.416	1905.98
669.607	1826.11
669.798	1766.71
669.989	1807.67
670.18	1826.11
670.371	1832.25
670.563	1779
670.754	1731.9
670.945	1752.38
671.136	1754.43
671.327	1772.86
671.518	1723.71
671.709	1754.43
671.9	1692.99
672.091	1840.44
672.282	1774.91
672.473	1701.18
672.664	1649.98
672.855	1846.59
673.046	1723.71
673.237	1785.15
673.428	1719.61
673.619	1660.22
673.809	1705.28
674	1637.69
674.191	1602.88
674.382	1672.51
674.573	1592.64
674.764	1586.49
674.954	1729.85
675.145	1643.84
675.336	1482.05
675.527	1574.21
675.717	1664.32
675.908	1629.5
676.099	1598.78
676.289	1568.06
676.48	1563.97
676.671	1563.97
676.861	1643.84
677.052	1566.01
677.243	1568.06
677.433	1553.73
677.624	1600.83
677.814	1643.84
678.005	1645.88
678.195	1559.87
678.386	1592.64
678.576	1586.49
678.767	1512.77
678.957	1611.07
679.148	1588.54
679.338	1410.37
679.529	1490.24
679.719	1549.63
679.909	1563.97
680.1	1588.54
680.29	1525.05
680.481	1539.39
680.671	1588.54
680.861	1592.64
681.052	1516.86
681.242	1453.38
681.432	1598.78
681.622	1480
681.813	1439.04
682.003	1590.59
682.193	1373.5
682.383	1500.48
682.573	1439.04
682.764	1512.77
682.954	1504.57
683.144	1477.95
683.334	1408.32
683.524	1652.03
683.714	1441.09
683.904	1514.81
684.094	1451.33
684.284	1504.57
684.474	1484.09
684.664	1477.95
684.854	1480
685.044	1459.52
685.234	1436.99
685.424	1574.21
685.614	1406.27
685.804	1484.09
685.994	1424.7
686.184	1436.99
686.374	1449.28
686.564	1340.74
686.753	1463.62
686.943	1346.88
687.133	1445.18
687.323	1508.67
687.513	1424.7
687.702	1486.14
687.892	1465.66
688.082	1436.99
688.272	1441.09
688.461	1402.18
688.651	1400.13
688.841	1451.33
689.03	1375.55
689.22	1426.75
689.41	1379.65
689.599	1430.85
689.789	1443.14
689.979	1303.87
690.168	1500.48
690.358	1365.31
690.547	1469.76
690.737	1412.42
690.926	1396.03
691.116	1445.18
691.305	1434.94
691.495	1408.32
691.684	1379.65
691.874	1492.29
692.063	1520.96
692.252	1502.53
692.442	1467.71
692.631	1383.74
692.82	1482.05
693.01	1514.81
693.199	1391.94
693.388	1441.09
693.578	1455.42
693.767	1523.01
693.956	1443.14
694.146	1400.13
694.335	1482.05
694.524	1516.86
694.713	1389.89
694.902	1428.8
695.092	1504.57
695.281	1461.57
695.47	1432.9
695.659	1584.45
695.848	1496.38
696.037	1592.64
696.226	1523.01
696.415	1434.94
696.604	1533.25
696.793	1510.72
696.982	1416.51
697.171	1543.49
697.36	1449.28
697.549	1549.63
697.738	1512.77
697.927	1531.2
698.116	1645.88
698.305	1541.44
698.494	1506.62
698.683	1408.32
698.872	1529.15
699.061	1459.52
699.25	1555.77
699.438	1551.68
699.627	1420.61
699.816	1525.05
700.005	1502.53
700.193	1570.11
700.382	1504.57
700.571	1518.91
700.76	1512.77
700.948	1629.5
701.137	1416.51
701.326	1533.25
701.514	1613.12
701.703	1598.78
701.892	1426.75
702.08	1578.3
702.269	1553.73
702.457	1555.77
702.646	1604.92
702.834	1416.51
703.023	1592.64
703.212	1549.63
703.4	1490.24
703.589	1547.58
703.777	1516.86
703.965	1410.37
704.154	1502.53
704.342	1453.38
704.531	1482.05
704.719	1398.08
704.907	1574.21
705.096	1510.72
705.284	1477.95
705.472	1453.38
705.661	1518.91
705.849	1514.81
706.037	1426.75
706.226	1549.63
706.414	1387.84
706.602	1500.48
706.79	1539.39
706.979	1412.42
707.167	1420.61
707.355	1494.33
707.543	1408.32
707.731	1568.06
707.919	1393.98
708.107	1459.52
708.296	1482.05
708.484	1426.75
708.672	1498.43
708.86	1432.9
709.048	1525.05
709.236	1520.96
709.424	1504.57
709.612	1422.66
709.8	1443.14
709.988	1459.52
710.176	1338.69
710.364	1498.43
710.551	1426.75
710.739	1387.84
710.927	1432.9
711.115	1445.18
711.303	1371.46
711.491	1324.35
711.679	1240.39
711.866	1410.37
712.054	1379.65
712.242	1385.79
712.43	1387.84
712.617	1328.45
712.805	1406.27
712.993	1379.65
713.181	1318.21
713.368	1439.04
713.556	1275.2
713.744	1297.73
713.931	1187.14
714.119	1371.46
714.306	1281.35
714.494	1418.56
714.682	1246.53
714.869	1230.15
715.057	1338.69
715.244	1295.68
715.432	1244.48
715.619	1250.63
715.807	1316.16
715.994	1320.26
716.182	1357.12
716.369	1230.15
716.556	1219.91
716.744	1310.02
716.931	1219.91
717.119	1287.49
717.306	1244.48
717.493	1312.07
717.681	1254.72
717.868	1346.88
718.055	1258.82
718.242	1211.71
718.43	1303.87
718.617	1260.87
718.804	1150.28
718.991	1236.29
719.179	1195.33
719.366	1142.08
719.553	1275.2
719.74	1166.66
719.927	1269.06
720.114	1183.04
720.301	1258.82
720.488	1207.62
720.676	1252.67
720.863	1252.67
721.05	1246.53
721.237	1199.43
721.424	1142.08
721.611	1127.75
721.798	1109.32
721.985	1152.32
722.172	1174.85
722.358	1115.46
722.545	1103.17
722.732	1103.17
722.919	1185.09
723.106	1170.76
723.293	1086.79
723.48	1187.14
723.667	1172.8
723.853	1029.45
724.04	1150.28
724.227	1019.21
724.414	1099.08
724.6	1209.67
724.787	1135.94
724.974	1131.84
725.161	1064.26
725.347	1027.4
725.534	1015.11
725.72	1137.99
725.907	998.73
726.094	1015.11
726.28	1068.36
726.467	1166.66
726.653	1031.49
726.84	1080.64
727.027	1064.26
727.213	1080.64
727.4	1051.97
727.586	1029.45
727.773	1080.64
727.959	1023.3
728.145	1066.31
728.332	1008.97
728.518	992.58
728.705	939.33
728.891	998.73
729.077	1017.16
729.264	963.91
729.45	1013.06
729.636	1029.45
729.823	1029.45
730.009	1013.06
730.195	1025.35
730.382	965.96
730.568	916.81
730.754	1002.82
730.94	896.33
731.126	1017.16
731.313	955.72
731.499	961.86
731.685	972.1
731.871	957.77
732.057	961.86
732.243	838.98
732.429	1002.82
732.615	920.9
732.801	963.91
732.987	939.33
733.173	972.1
733.359	935.24
733.545	918.86
733.731	908.62
733.917	957.77
734.103	879.94
734.289	937.29
734.475	953.67
734.661	965.96
734.847	976.2
735.033	978.25
735.219	918.86
735.404	859.46
735.59	820.55
735.776	916.81
735.962	912.71
736.148	933.19
736.333	886.09
736.519	828.74
736.705	857.42
736.89	861.51
737.076	951.62
737.262	859.46
737.447	859.46
737.633	851.27
737.819	922.95
738.004	890.18
738.19	875.85
738.375	822.6
738.561	875.85
738.747	761.16
738.932	773.45
739.118	892.23
739.303	861.51
739.489	793.93
739.674	795.98
739.859	881.99
740.045	853.32
740.23	822.6
740.416	748.87
740.601	857.42
740.786	816.46
740.972	834.89
741.157	748.87
741.342	818.5
741.528	748.87
741.713	820.55
741.898	757.07
742.084	818.5
742.269	816.46
742.454	980.29
742.639	755.02
742.824	791.88
743.01	834.89
743.195	738.63
743.38	820.55
743.565	781.64
743.75	767.31
743.935	800.07
744.12	763.21
744.305	752.97
744.49	787.79
744.675	789.83
744.86	697.67
745.045	791.88
745.23	789.83
745.415	734.54
745.6	759.11
745.785	748.87
745.97	761.16
746.155	755.02
746.34	732.49
746.525	660.81
746.71	707.91
746.895	757.07
747.079	640.33
747.264	681.29
747.449	703.82
747.634	677.19
747.819	693.58
748.003	699.72
748.188	658.76
748.373	587.08
748.557	679.24
748.742	613.71
748.927	664.91
749.111	685.39
749.296	597.32
749.481	654.67
749.665	660.81
749.85	697.67
750.034	701.77
750.219	638.28
750.404	576.84
750.588	546.12
750.773	646.48
750.957	574.8
751.141	550.22
751.326	628.04
751.51	548.17
751.695	582.99
751.879	572.75
752.064	636.24
752.248	580.94
752.432	482.64
752.617	605.52
752.801	572.75
752.985	513.36
753.17	511.31
753.354	517.45
753.538	621.9
753.722	550.22
753.907	490.83
754.091	525.65
754.275	539.98
754.459	580.94
754.643	521.55
754.828	517.45
755.012	552.27
755.196	456.01
755.38	544.08
755.564	556.36
755.748	597.32
755.932	554.32
756.116	521.55
756.3	478.54
756.484	525.65
756.668	433.49
756.852	492.88
757.036	478.54
757.22	429.39
757.404	511.31
757.588	474.45
757.772	419.15
757.956	443.73
758.14	453.97
758.323	445.77
758.507	507.21
758.691	523.6
758.875	492.88
759.059	435.53
759.242	423.25
759.426	398.67
759.61	429.39
759.794	533.84
759.977	415.06
760.161	472.4
760.345	484.69
760.528	458.06
760.712	367.95
760.895	404.82
761.079	427.34
761.263	447.82
761.446	415.06
761.63	402.77
761.813	433.49
761.997	447.82
762.18	458.06
762.364	423.25
762.547	341.33
762.731	363.86
762.914	456.01
763.098	447.82
763.281	384.34
763.464	437.58
763.648	388.43
763.831	402.77
764.015	378.19
764.198	396.62
764.381	353.62
764.564	392.53
764.748	425.29
764.931	357.71
765.114	331.09
765.297	310.61
765.481	339.28
765.664	456.01
765.847	410.96
766.03	353.62
766.213	361.81
766.397	410.96
766.58	306.51
766.763	298.32
766.946	343.38
767.129	331.09
767.312	302.42
767.495	392.53
767.678	329.04
767.861	255.31
768.044	314.7
768.227	370
768.41	263.51
768.593	370
768.776	378.19
768.959	326.99
769.142	363.86
769.324	347.47
769.507	281.94
769.69	331.09
769.873	349.52
770.056	392.53
770.239	324.94
770.421	365.9
770.604	359.76
770.787	314.7
770.97	343.38
771.152	326.99
771.335	286.03
771.518	343.38
771.7	281.94
771.883	337.23
772.066	230.74
772.248	343.38
772.431	331.09
772.613	298.32
772.796	298.32
772.978	374.1
773.161	245.07
773.343	378.19
773.526	339.28
773.708	222.55
773.891	263.51
774.073	273.75
774.256	300.37
774.438	337.23
774.621	294.22
774.803	281.94
774.985	345.42
775.168	343.38
775.35	349.52
775.532	281.94
775.715	218.45
775.897	329.04
776.079	243.03
776.261	249.17
776.444	300.37
776.626	275.79
776.808	236.88
776.99	208.21
777.173	341.33
777.355	306.51
777.537	261.46
777.719	271.7
777.901	312.66
778.083	290.13
778.265	236.88
778.447	234.83
778.629	314.7
778.811	288.08
778.993	200.02
779.175	341.33
779.357	240.98
779.539	193.87
779.721	238.93
779.903	228.69
780.085	191.83
780.267	175.44
780.449	218.45
780.631	273.75
780.812	245.07
780.994	316.75
781.176	195.92
781.358	148.82
781.54	208.21
781.721	234.83
781.903	257.36
782.085	326.99
782.267	234.83
782.448	204.11
782.63	148.82
782.812	228.69
782.993	185.68
783.175	290.13
783.357	243.03
783.538	214.35
783.72	210.26
783.901	218.45
784.083	210.26
784.264	187.73
784.446	159.06
784.627	230.74
784.809	208.21
784.99	171.35
785.172	183.63
785.353	185.68
785.535	230.74
785.716	202.07
785.897	124.24
786.079	165.2
786.26	163.15
786.441	224.59
786.623	163.15
786.804	159.06
786.985	238.93
787.167	202.07
787.348	169.3
787.529	150.87
787.71	175.44
787.891	189.78
788.073	111.96
788.254	124.24
788.435	150.87
788.616	148.82
788.797	152.91
788.978	187.73
789.159	93.52
789.34	163.15
789.522	159.06
789.703	204.11
789.884	107.86
790.065	97.62
790.246	146.77
790.427	132.44
790.607	163.15
790.788	187.73
790.969	163.15
791.15	212.31
791.331	138.58
791.512	124.24
791.693	159.06
791.874	144.72
792.054	130.39
792.235	157.01
792.416	124.24
792.597	136.53
792.778	138.58
792.958	109.91
793.139	134.48
793.32	150.87
793.5	208.21
793.681	165.2
793.862	99.67
794.042	181.59
794.223	128.34
794.404	89.43
794.584	81.24
794.765	189.78
794.945	134.48
795.126	175.44
795.306	224.59
795.487	122.2
795.667	103.76
795.848	130.39
796.028	157.01
796.209	204.11
796.389	161.11
796.57	134.48
796.75	54.61
796.93	79.19
797.111	116.05
797.291	85.33
797.471	111.96
797.652	136.53
797.832	99.67
798.012	146.77
798.192	75.09
798.373	89.43
798.553	144.72
798.733	132.44
798.913	140.63
799.093	161.11
799.274	64.85
799.454	101.72
799.634	79.19
799.814	161.11
799.994	68.95
800.174	138.58
800.354	111.96
800.534	142.68
800.714	120.15
800.894	99.67
801.074	136.53
801.254	132.44
801.434	105.81
801.614	132.44
801.794	116.05
801.974	333.14
802.154	99.67
802.334	68.95
802.514	111.96
802.693	23.89
802.873	163.15
803.053	48.47
803.233	52.56
803.413	93.52
803.592	132.44
803.772	66.9
803.952	-12.97
804.131	73.04
804.311	116.05
804.491	91.48
804.67	38.23
804.85	64.85
805.03	140.63
805.209	138.58
805.389	99.67
805.568	32.08
805.748	79.19
805.928	142.68
806.107	66.9
806.287	81.24
806.466	89.43
806.646	58.71
806.825	99.67
807.004	114
807.184	64.85
807.363	97.62
807.543	91.48
807.722	95.57
807.901	116.05
808.081	66.9
808.26	54.61
808.439	66.9
808.619	83.28
808.798	73.04
808.977	58.71
809.156	79.19
809.336	97.62
809.515	50.52
809.694	62.8
809.873	95.57
810.052	91.48
810.231	118.1
810.411	40.28
810.59	81.24
810.769	36.18
810.948	42.32
811.127	40.28
811.306	120.15
811.485	40.28
811.664	128.34
811.843	56.66
812.022	44.37
812.201	48.47
812.38	23.89
812.559	124.24
812.737	66.9
812.916	-12.97
813.095	48.47
813.274	3.41
813.453	101.72
813.632	48.47
813.811	19.8
813.989	25.94
814.168	50.52
814.347	52.56
814.526	36.18
814.704	66.9
814.883	66.9
815.062	101.72
815.24	64.85
815.419	46.42
815.598	105.81
815.776	60.76
815.955	54.61
816.133	34.13
816.312	23.89
816.49	159.06
816.669	42.32
816.847	52.56
817.026	15.7
817.204	9.56
817.383	91.48
817.561	75.09
817.74	56.66
817.918	-35.5
818.097	99.67
818.275	46.42
818.453	89.43
818.632	60.76
818.81	105.81
818.988	118.1
819.167	44.37
819.345	34.13
819.523	107.86
819.701	46.42
819.879	157.01
820.058	34.13
820.236	132.44
820.414	144.72
820.592	27.99
820.77	60.76
820.948	-0.68
821.127	-23.21
821.305	42.32
821.483	73.04
821.661	62.8
821.839	-17.07
822.017	42.32
822.195	-2.73
822.373	60.76
822.551	-12.97
822.729	73.04
822.907	34.13
823.085	58.71
823.262	1.37
823.44	64.85
823.618	54.61
823.796	32.08
823.974	62.8
824.152	42.32
824.329	44.37
824.507	52.56
824.685	-17.07
824.863	81.24
825.04	27.99
825.218	38.23
825.396	13.65
825.574	144.72
825.751	-29.35
825.929	79.19
826.107	36.18
826.284	23.89
826.462	-12.97
826.639	42.32
826.817	13.65
826.994	122.2
827.172	13.65
827.349	58.71
827.527	11.61
827.704	64.85
827.882	-0.68
828.059	52.56
828.237	48.47
828.414	15.7
828.591	27.99
828.769	58.71
828.946	-21.16
829.124	54.61
829.301	130.39
829.478	38.23
829.655	54.61
829.833	36.18
830.01	23.89
830.187	101.72
830.364	91.48
830.542	40.28
830.719	93.52
830.896	-0.68
831.073	75.09
831.25	134.48
831.427	62.8
831.604	17.75
831.782	36.18
831.959	25.94
832.136	103.76
832.313	93.52
832.49	1.37
832.667	32.08
832.844	56.66
833.021	91.48
833.198	91.48
833.374	126.29
833.551	27.99
833.728	-43.69
833.905	42.32
834.082	52.56
834.259	-2.73
834.436	34.13
834.612	-8.87
834.789	89.43
834.966	-19.11
835.143	23.89
835.319	11.61
835.496	68.95
835.673	5.46
835.85	60.76
836.026	38.23
836.203	58.71
836.38	-29.35
836.556	97.62
836.733	25.94
836.909	-29.35
837.086	25.94
837.262	85.33
837.439	21.85
837.616	52.56
837.792	-39.59
837.968	38.23
838.145	-2.73
838.321	40.28
838.498	17.75
838.674	68.95
838.851	36.18
839.027	62.8
839.203	-45.74
839.38	30.04
839.556	-10.92
839.732	-17.07
839.909	25.94
840.085	52.56
840.261	-47.79
840.437	-8.87
840.614	50.52
840.79	34.13
840.966	27.99
841.142	-23.21
841.318	34.13
841.494	54.61
841.671	19.8
841.847	79.19
842.023	46.42
842.199	50.52
842.375	-25.26
842.551	75.09
842.727	5.46
842.903	1.37
843.079	-23.21
843.255	44.37
843.431	23.89
843.607	81.24
843.783	-37.55
843.959	3.41
844.134	-33.45
844.31	79.19
844.486	3.41
844.662	25.94
844.838	66.9
845.013	15.7
845.189	27.99
845.365	62.8
845.541	-15.02
845.716	58.71
845.892	5.46
846.068	40.28
846.244	9.56
846.419	99.67
846.595	3.41
846.77	-33.45
846.946	58.71
847.122	95.57
847.297	-6.83
847.473	40.28
847.648	27.99
847.824	-17.07
847.999	62.8
848.175	13.65
848.35	44.37
848.526	48.47
848.701	-15.02
848.876	-2.73
849.052	19.8
849.227	-41.64
849.403	64.85
849.578	38.23
849.753	42.32
849.929	40.28
850.104	-21.16
850.279	13.65
850.454	9.56
850.63	11.61
850.805	9.56
850.98	17.75
851.155	58.71
851.33	-8.87
851.505	-19.11
851.681	46.42
851.856	-12.97
852.031	-17.07
852.206	-4.78
852.381	-47.79
852.556	-29.35
852.731	48.47
852.906	-51.88
853.081	32.08
853.256	-0.68
853.431	79.19
853.606	1.37
853.781	17.75
853.956	-4.78
854.131	81.24
854.305	-33.45
854.48	-21.16
854.655	34.13
854.83	-53.93
855.005	27.99
855.18	42.32
855.354	-31.4
855.529	3.41
855.704	27.99
855.879	-12.97
856.053	-49.83
856.228	7.51
856.403	-17.07
856.577	-17.07
856.752	19.8
856.926	23.89
857.101	-41.64
857.276	-17.07
857.45	9.56
857.625	50.52
857.799	15.7
857.974	-19.11
858.148	-12.97
858.323	1.37
858.497	-21.16
858.672	32.08
858.846	-23.21
859.02	56.66
859.195	5.46
859.369	9.56
859.543	25.94
859.718	75.09
859.892	-2.73
860.066	-0.68
860.241	-21.16
860.415	17.75
860.589	5.46
860.763	36.18
860.938	34.13
861.112	-15.02
861.286	15.7
861.46	42.32
861.634	9.56
861.808	15.7
861.982	83.28
862.157	64.85
862.331	-43.69
862.505	-37.55
862.679	17.75
862.853	19.8
863.027	-58.03
863.201	-4.78
863.375	7.51
863.549	13.65
863.722	11.61
863.896	64.85
864.07	-72.36
864.244	66.9
864.418	7.51
864.592	9.56
864.766	-23.21
864.939	58.71
865.113	-27.31
865.287	50.52
865.461	21.85
865.634	19.8
865.808	-55.98
865.982	32.08
866.156	56.66
866.329	-19.11
866.503	-6.83
866.676	-17.07
866.85	15.7
867.024	93.52
867.197	25.94
867.371	7.51
867.544	75.09
867.718	7.51
867.891	60.76
868.065	54.61
868.238	11.61
868.412	38.23
868.585	3.41
868.759	40.28
868.932	32.08
869.105	-0.68
869.279	44.37
869.452	54.61
869.625	9.56
869.799	-33.45
869.972	-39.59
870.145	46.42
870.319	91.48
870.492	32.08
870.665	7.51
870.838	48.47
871.011	-74.41
871.185	-74.41
871.358	-4.78
871.531	-43.69
871.704	-4.78
871.877	60.76
872.05	34.13
872.223	-35.5
872.396	58.71
872.569	-6.83
872.742	5.46
872.915	79.19
873.088	42.32
873.261	-58.03
873.434	11.61
873.607	-8.87
873.78	36.18
873.953	75.09
874.126	19.8
874.299	-17.07
874.471	-31.4
874.644	5.46
874.817	23.89
874.99	-6.83
875.163	48.47
875.335	-17.07
875.508	1.37
875.681	-72.36
875.853	44.37
876.026	-10.92
876.199	-6.83
876.371	36.18
876.544	46.42
876.717	-21.16
876.889	-62.12
877.062	-0.68
877.234	23.89
877.407	19.8
877.579	36.18
877.752	23.89
877.924	-8.87
878.097	3.41
878.269	40.28
878.442	11.61
878.614	42.32
878.786	27.99
878.959	15.7
879.131	46.42
879.303	56.66
879.476	1.37
879.648	5.46
879.82	7.51
879.993	36.18
880.165	-45.74
880.337	-17.07
880.509	7.51
880.681	-0.68
880.854	85.33
881.026	3.41
881.198	89.43
881.37	-31.4
881.542	32.08
881.714	-58.03
881.886	-10.92
882.058	-70.31
882.23	73.04
882.402	-39.59
882.574	15.7
882.746	-43.69
882.918	3.41
883.09	-21.16
883.262	42.32
883.434	-17.07
883.606	-23.21
883.778	-47.79
883.95	3.41
884.122	44.37
884.293	23.89
884.465	7.51
884.637	-39.59
884.809	52.56
884.98	-41.64
885.152	-47.79
885.324	21.85
885.496	-2.73
885.667	-2.73
885.839	-8.87
886.011	15.7
886.182	-37.55
886.354	19.8
886.525	1.37
886.697	23.89
886.869	-58.03
887.04	15.7
887.212	36.18
887.383	42.32
887.555	5.46
887.726	-15.02
887.897	5.46
888.069	9.56
888.24	-10.92
888.412	25.94
888.583	13.65
888.754	15.7
888.926	-15.02
889.097	30.04
889.268	25.94
889.44	-29.35
889.611	-55.98
889.782	-33.45
889.953	9.56
890.125	25.94
890.296	-19.11
890.467	13.65
890.638	-0.68
890.809	-2.73
890.98	-45.74
891.151	-25.26
891.323	48.47
891.494	-8.87
891.665	-4.78
891.836	93.52
892.007	-25.26
892.178	-66.22
892.349	-23.21
892.52	-33.45
892.691	-27.31
892.862	-10.92
893.032	-27.31
893.203	-51.88
893.374	-23.21
893.545	56.66
893.716	25.94
893.887	101.72
894.057	-35.5
894.228	-2.73
894.399	19.8
894.57	-8.87
894.74	32.08
894.911	9.56
895.082	68.95
895.253	-6.83
895.423	-8.87
895.594	40.28
895.764	27.99
895.935	-10.92
896.106	13.65
896.276	60.76
896.447	34.13
896.617	-25.26
896.788	-25.26
896.958	-27.31
897.129	9.56
897.299	-62.12
897.47	27.99
897.64	40.28
897.81	-39.59
897.981	7.51
898.151	-15.02
898.322	-55.98
898.492	54.61
898.662	32.08
898.832	-12.97
899.003	66.9
899.173	-2.73
899.343	-27.31
899.513	-31.4
