Data from USB4F104151__165__13-58-47-732.txt Node

Date: Thu Mar 13 13:58:47 EDT 2025
User: louis
Spectrometer: USB4F10415
Trigger mode: 4
Integration Time (sec): 1.000000E-2
Scans to average: 1
Electric dark correction enabled: true
Nonlinearity correction enabled: false
Boxcar width: 0
XAxis mode: Wavelengths
Number of Pixels in Spectrum: 3648
>>>>>Begin Spectral Data<<<<<
178.204	-28.33
178.424	-28.33
178.644	-28.33
178.864	-69.29
179.084	-22.19
179.304	37.2
179.524	-95.91
179.744	4.44
179.964	-28.33
180.184	-5.8
180.404	-13.99
180.624	-20.14
180.844	57.68
181.064	26.96
181.283	-22.19
181.503	26.96
181.723	33.11
181.943	65.88
182.163	-16.04
182.383	-20.14
182.602	0.34
182.822	-32.43
183.042	35.16
183.262	-18.09
183.482	-11.95
183.701	-1.71
183.921	-34.47
184.141	106.84
184.361	-42.67
184.58	-16.04
184.8	41.3
185.02	78.16
185.239	26.96
185.459	16.73
185.679	33.11
185.898	-20.14
186.118	57.68
186.338	0.34
186.557	-3.75
186.777	41.3
186.997	35.16
187.216	26.96
187.436	-11.95
187.655	57.68
187.875	29.01
188.095	-46.76
188.314	37.2
188.534	18.77
188.753	10.58
188.973	37.2
189.192	-24.23
189.412	-11.95
189.631	2.39
189.851	-52.91
190.07	43.35
190.29	22.87
190.509	39.25
190.729	4.44
190.948	49.49
191.168	76.12
191.387	16.73
191.607	-5.8
191.826	8.53
192.045	39.25
192.265	53.59
192.484	33.11
192.704	41.3
192.923	45.4
193.142	26.96
193.362	67.92
193.581	55.64
193.8	16.73
194.02	-5.8
194.239	26.96
194.458	-11.95
194.678	37.2
194.897	18.77
195.116	55.64
195.335	18.77
195.555	24.92
195.774	86.36
195.993	-93.87
196.212	76.12
196.432	-13.99
196.651	94.55
196.87	24.92
197.089	53.59
197.308	-30.38
197.528	82.26
197.747	8.53
197.966	-16.04
198.185	57.68
198.404	-28.33
198.623	-20.14
198.842	92.5
199.062	-5.8
199.281	35.16
199.5	-28.33
199.719	37.2
199.938	33.11
200.157	8.53
200.376	39.25
200.595	16.73
200.814	63.83
201.033	76.12
201.252	63.83
201.471	-11.95
201.69	8.53
201.909	20.82
202.128	-26.28
202.347	51.54
202.566	10.58
202.785	-7.85
203.004	-3.75
203.223	22.87
203.442	-52.91
203.661	2.39
203.879	24.92
204.098	39.25
204.317	-13.99
204.536	82.26
204.755	-40.62
204.974	0.34
205.193	16.73
205.411	45.4
205.63	2.39
205.849	35.16
206.068	-32.43
206.287	26.96
206.505	33.11
206.724	31.06
206.943	-16.04
207.162	4.44
207.381	-22.19
207.599	2.39
207.818	4.44
208.037	39.25
208.255	10.58
208.474	-1.71
208.693	22.87
208.911	49.49
209.13	24.92
209.349	76.12
209.567	26.96
209.786	51.54
210.005	67.92
210.223	-24.23
210.442	80.21
210.661	35.16
210.879	22.87
211.098	45.4
211.316	-26.28
211.535	-22.19
211.753	76.12
211.972	53.59
212.191	22.87
212.409	26.96
212.628	-5.8
212.846	57.68
213.065	-28.33
213.283	43.35
213.502	45.4
213.72	16.73
213.938	55.64
214.157	0.34
214.375	-9.9
214.594	-1.71
214.812	35.16
215.031	-32.43
215.249	10.58
215.467	18.77
215.686	-7.85
215.904	-20.14
216.122	16.73
216.341	-30.38
216.559	18.77
216.778	90.45
216.996	61.78
217.214	43.35
217.432	-13.99
217.651	14.68
217.869	16.73
218.087	76.12
218.306	-79.53
218.524	8.53
218.742	-24.23
218.96	98.64
219.179	80.21
219.397	41.3
219.615	-7.85
219.833	-11.95
220.051	-38.57
220.27	162.13
220.488	14.68
220.706	24.92
220.924	24.92
221.142	-16.04
221.36	-30.38
221.578	45.4
221.796	-3.75
222.015	-13.99
222.233	-3.75
222.451	96.6
222.669	16.73
222.887	-46.76
223.105	43.35
223.323	37.2
223.541	24.92
223.759	-20.14
223.977	10.58
224.195	-34.47
224.413	74.07
224.631	16.73
224.849	-1.71
225.067	2.39
225.285	-26.28
225.503	57.68
225.721	10.58
225.939	31.06
226.157	0.34
226.375	16.73
226.592	43.35
226.81	14.68
227.028	55.64
227.246	92.5
227.464	16.73
227.682	22.87
227.9	8.53
228.117	-5.8
228.335	59.73
228.553	2.39
228.771	37.2
228.989	-30.38
229.206	4.44
229.424	37.2
229.642	43.35
229.86	-5.8
230.077	74.07
230.295	10.58
230.513	49.49
230.731	14.68
230.948	-89.77
231.166	59.73
231.384	-5.8
231.601	39.25
231.819	12.63
232.037	-22.19
232.254	-54.95
232.472	49.49
232.689	22.87
232.907	47.44
233.125	8.53
233.342	16.73
233.56	8.53
233.777	26.96
233.995	37.2
234.213	69.97
234.43	39.25
234.648	2.39
234.865	35.16
235.083	33.11
235.3	26.96
235.518	24.92
235.735	0.34
235.953	24.92
236.17	-32.43
236.388	-22.19
236.605	24.92
236.822	-22.19
237.04	-77.48
237.257	-16.04
237.475	-22.19
237.692	45.4
237.909	4.44
238.127	0.34
238.344	43.35
238.562	119.12
238.779	2.39
238.996	4.44
239.214	33.11
239.431	49.49
239.648	33.11
239.865	6.49
240.083	65.88
240.3	4.44
240.517	47.44
240.735	78.16
240.952	37.2
241.169	10.58
241.386	20.82
241.603	29.01
241.821	16.73
242.038	-7.85
242.255	-7.85
242.472	57.68
242.689	20.82
242.907	90.45
243.124	33.11
243.341	-9.9
243.558	14.68
243.775	51.54
243.992	49.49
244.209	67.92
244.426	57.68
244.643	76.12
244.86	35.16
245.078	20.82
245.295	-7.85
245.512	-32.43
245.729	22.87
245.946	24.92
246.163	26.96
246.38	24.92
246.597	4.44
246.814	110.93
247.031	4.44
247.248	47.44
247.464	10.58
247.681	43.35
247.898	0.34
248.115	65.88
248.332	-7.85
248.549	24.92
248.766	22.87
248.983	47.44
249.2	-34.47
249.417	-1.71
249.633	-81.58
249.85	39.25
250.067	-22.19
250.284	-22.19
250.501	49.49
250.717	0.34
250.934	0.34
251.151	-34.47
251.368	4.44
251.585	33.11
251.801	-18.09
252.018	10.58
252.235	-1.71
252.451	24.92
252.668	78.16
252.885	67.92
253.102	31.06
253.318	37.2
253.535	16.73
253.752	-32.43
253.968	53.59
254.185	49.49
254.401	-93.87
254.618	29.01
254.835	61.78
255.051	45.4
255.268	53.59
255.484	33.11
255.701	-40.62
255.917	12.63
256.134	10.58
256.351	43.35
256.567	-26.28
256.784	-16.04
257	0.34
257.217	14.68
257.433	72.02
257.65	47.44
257.866	-26.28
258.082	22.87
258.299	-22.19
258.515	82.26
258.732	12.63
258.948	12.63
259.165	-5.8
259.381	29.01
259.597	67.92
259.814	-13.99
260.03	115.03
260.246	33.11
260.463	-26.28
260.679	18.77
260.895	94.55
261.112	24.92
261.328	37.2
261.544	-30.38
261.761	78.16
261.977	69.97
262.193	-36.52
262.409	84.31
262.626	90.45
262.842	-9.9
263.058	37.2
263.274	57.68
263.49	16.73
263.707	78.16
263.923	-9.9
264.139	-13.99
264.355	102.74
264.571	96.6
264.787	31.06
265.004	92.5
265.22	29.01
265.436	80.21
265.652	12.63
265.868	-13.99
266.084	22.87
266.3	4.44
266.516	18.77
266.732	72.02
266.948	61.78
267.164	22.87
267.38	35.16
267.596	-1.71
267.812	-5.8
268.028	-5.8
268.244	-36.52
268.46	-22.19
268.676	-13.99
268.892	-5.8
269.108	8.53
269.324	-40.62
269.54	55.64
269.756	82.26
269.972	43.35
270.188	-42.67
270.403	4.44
270.619	45.4
270.835	-22.19
271.051	41.3
271.267	51.54
271.483	39.25
271.698	20.82
271.914	10.58
272.13	-11.95
272.346	-18.09
272.562	12.63
272.777	37.2
272.993	10.58
273.209	39.25
273.425	39.25
273.64	37.2
273.856	10.58
274.072	0.34
274.287	86.36
274.503	92.5
274.719	41.3
274.934	-22.19
275.15	-30.38
275.366	-11.95
275.581	-11.95
275.797	39.25
276.012	-83.63
276.228	59.73
276.444	2.39
276.659	4.44
276.875	-7.85
277.09	8.53
277.306	18.77
277.521	0.34
277.737	-75.43
277.952	72.02
278.168	18.77
278.383	41.3
278.599	82.26
278.814	65.88
279.03	10.58
279.245	8.53
279.461	33.11
279.676	51.54
279.892	-114.34
280.107	47.44
280.322	45.4
280.538	10.58
280.753	43.35
280.969	-30.38
281.184	61.78
281.399	41.3
281.615	51.54
281.83	92.5
282.045	-32.43
282.26	74.07
282.476	4.44
282.691	112.98
282.906	-5.8
283.122	-9.9
283.337	67.92
283.552	102.74
283.767	53.59
283.983	43.35
284.198	67.92
284.413	98.64
284.628	-36.52
284.843	16.73
285.058	43.35
285.274	24.92
285.489	22.87
285.704	102.74
285.919	0.34
286.134	45.4
286.349	16.73
286.564	-28.33
286.779	6.49
286.995	20.82
287.21	-11.95
287.425	63.83
287.64	-20.14
287.855	-7.85
288.07	16.73
288.285	20.82
288.5	-7.85
288.715	26.96
288.93	-42.67
289.145	14.68
289.36	47.44
289.575	6.49
289.79	18.77
290.004	20.82
290.219	51.54
290.434	31.06
290.649	69.97
290.864	35.16
291.079	61.78
291.294	14.68
291.509	12.63
291.724	33.11
291.938	4.44
292.153	-13.99
292.368	4.44
292.583	43.35
292.798	-5.8
293.012	-13.99
293.227	49.49
293.442	74.07
293.657	67.92
293.871	76.12
294.086	33.11
294.301	67.92
294.516	63.83
294.73	16.73
294.945	-32.43
295.16	4.44
295.374	-3.75
295.589	35.16
295.804	16.73
296.018	-32.43
296.233	57.68
296.447	-48.81
296.662	33.11
296.877	14.68
297.091	16.73
297.306	67.92
297.52	51.54
297.735	0.34
297.949	-32.43
298.164	74.07
298.378	45.4
298.593	26.96
298.807	45.4
299.022	-1.71
299.236	16.73
299.451	53.59
299.665	20.82
299.88	55.64
300.094	63.83
300.309	33.11
300.523	59.73
300.737	57.68
300.952	20.82
301.166	35.16
301.381	10.58
301.595	74.07
301.809	-9.9
302.024	31.06
302.238	41.3
302.452	49.49
302.667	26.96
302.881	59.73
303.095	-5.8
303.309	22.87
303.524	12.63
303.738	-3.75
303.952	-1.71
304.166	35.16
304.381	-38.57
304.595	98.64
304.809	29.01
305.023	102.74
305.237	16.73
305.452	61.78
305.666	2.39
305.88	18.77
306.094	12.63
306.308	26.96
306.522	92.5
306.736	16.73
306.95	26.96
307.164	-11.95
307.379	67.92
307.593	162.13
307.807	55.64
308.021	24.92
308.235	41.3
308.449	82.26
308.663	53.59
308.877	61.78
309.091	33.11
309.305	41.3
309.519	-3.75
309.733	26.96
309.947	74.07
310.161	-28.33
310.374	29.01
310.588	49.49
310.802	-9.9
311.016	94.55
311.23	24.92
311.444	-32.43
311.658	90.45
311.872	55.64
312.085	-18.09
312.299	-9.9
312.513	76.12
312.727	0.34
312.941	4.44
313.154	-5.8
313.368	-71.34
313.582	49.49
313.796	6.49
314.009	37.2
314.223	67.92
314.437	96.6
314.651	-22.19
314.864	31.06
315.078	82.26
315.292	65.88
315.505	57.68
315.719	33.11
315.933	78.16
316.146	24.92
316.36	53.59
316.573	-11.95
316.787	78.16
317.001	31.06
317.214	4.44
317.428	14.68
317.641	8.53
317.855	41.3
318.068	-24.23
318.282	39.25
318.495	51.54
318.709	49.49
318.922	18.77
319.136	-52.91
319.349	41.3
319.563	59.73
319.776	65.88
319.99	35.16
320.203	74.07
320.417	37.2
320.63	37.2
320.843	117.08
321.057	55.64
321.27	14.68
321.483	-18.09
321.697	26.96
321.91	63.83
322.124	-16.04
322.337	45.4
322.55	33.11
322.763	-16.04
322.977	57.68
323.19	22.87
323.403	8.53
323.617	-20.14
323.83	69.97
324.043	-30.38
324.256	4.44
324.469	4.44
324.683	10.58
324.896	57.68
325.109	16.73
325.322	53.59
325.535	16.73
325.748	76.12
325.962	-11.95
326.175	47.44
326.388	65.88
326.601	51.54
326.814	35.16
327.027	-3.75
327.24	39.25
327.453	-59.05
327.666	-1.71
327.879	20.82
328.092	-1.71
328.305	76.12
328.518	39.25
328.731	22.87
328.944	53.59
329.157	41.3
329.37	127.32
329.583	-5.8
329.796	24.92
330.009	-28.33
330.222	-7.85
330.435	29.01
330.648	4.44
330.861	82.26
331.073	49.49
331.286	65.88
331.499	-30.38
331.712	-34.47
331.925	8.53
332.138	20.82
332.35	43.35
332.563	-13.99
332.776	-7.85
332.989	49.49
333.202	-16.04
333.414	-20.14
333.627	8.53
333.84	74.07
334.053	74.07
334.265	57.68
334.478	-24.23
334.691	24.92
334.903	4.44
335.116	-57
335.329	16.73
335.541	-22.19
335.754	26.96
335.966	-54.95
336.179	0.34
336.392	-18.09
336.604	16.73
336.817	67.92
337.029	53.59
337.242	-75.43
337.454	-5.8
337.667	10.58
337.88	80.21
338.092	-26.28
338.305	4.44
338.517	49.49
338.729	90.45
338.942	53.59
339.154	47.44
339.367	86.36
339.579	61.78
339.792	53.59
340.004	-3.75
340.217	35.16
340.429	72.02
340.641	37.2
340.854	-18.09
341.066	29.01
341.278	16.73
341.491	16.73
341.703	41.3
341.915	-36.52
342.128	-26.28
342.34	-63.15
342.552	67.92
342.764	41.3
342.977	74.07
343.189	-20.14
343.401	-11.95
343.613	76.12
343.826	59.73
344.038	-3.75
344.25	96.6
344.462	41.3
344.674	65.88
344.886	80.21
345.099	16.73
345.311	45.4
345.523	18.77
345.735	-24.23
345.947	33.11
346.159	33.11
346.371	29.01
346.583	-3.75
346.795	-7.85
347.007	-3.75
347.219	22.87
347.431	37.2
347.643	-13.99
347.855	14.68
348.067	59.73
348.279	20.82
348.491	49.49
348.703	47.44
348.915	-61.1
349.127	-46.76
349.339	94.55
349.551	26.96
349.763	53.59
349.975	-5.8
350.187	26.96
350.399	2.39
350.61	24.92
350.822	53.59
351.034	39.25
351.246	-54.95
351.458	59.73
351.669	45.4
351.881	67.92
352.093	43.35
352.305	43.35
352.517	43.35
352.728	82.26
352.94	20.82
353.152	63.83
353.363	51.54
353.575	57.68
353.787	-5.8
353.999	94.55
354.21	67.92
354.422	16.73
354.633	6.49
354.845	-18.09
355.057	-40.62
355.268	74.07
355.48	57.68
355.692	4.44
355.903	55.64
356.115	86.36
356.326	69.97
356.538	39.25
356.749	24.92
356.961	74.07
357.172	-38.57
357.384	10.58
357.595	6.49
357.807	0.34
358.018	37.2
358.23	2.39
358.441	22.87
358.653	-16.04
358.864	10.58
359.075	2.39
359.287	63.83
359.498	41.3
359.709	-22.19
359.921	18.77
360.132	41.3
360.344	72.02
360.555	51.54
360.766	-3.75
360.977	8.53
361.189	-32.43
361.4	20.82
361.611	29.01
361.823	0.34
362.034	4.44
362.245	14.68
362.456	-7.85
362.667	55.64
362.879	10.58
363.09	6.49
363.301	8.53
363.512	49.49
363.723	61.78
363.935	-18.09
364.146	98.64
364.357	12.63
364.568	80.21
364.779	-22.19
364.99	35.16
365.201	-28.33
365.412	61.78
365.623	51.54
365.834	29.01
366.045	0.34
366.256	45.4
366.467	37.2
366.678	90.45
366.889	104.79
367.1	-16.04
367.311	63.83
367.522	-16.04
367.733	82.26
367.944	47.44
368.155	2.39
368.366	41.3
368.577	31.06
368.788	8.53
368.999	-11.95
369.209	24.92
369.42	57.68
369.631	51.54
369.842	49.49
370.053	33.11
370.264	31.06
370.474	16.73
370.685	-16.04
370.896	72.02
371.107	47.44
371.317	-5.8
371.528	59.73
371.739	29.01
371.95	-3.75
372.16	4.44
372.371	-16.04
372.582	74.07
372.792	49.49
373.003	-26.28
373.214	0.34
373.424	-13.99
373.635	47.44
373.846	12.63
374.056	37.2
374.267	33.11
374.477	4.44
374.688	63.83
374.898	33.11
375.109	-20.14
375.319	-20.14
375.53	20.82
375.74	104.79
375.951	35.16
376.161	-36.52
376.372	0.34
376.582	37.2
376.793	12.63
377.003	8.53
377.214	12.63
377.424	35.16
377.635	18.77
377.845	-65.19
378.055	51.54
378.266	4.44
378.476	33.11
378.686	8.53
378.897	84.31
379.107	-11.95
379.317	33.11
379.528	-11.95
379.738	86.36
379.948	20.82
380.158	-36.52
380.369	14.68
380.579	55.64
380.789	26.96
380.999	59.73
381.21	12.63
381.42	100.69
381.63	12.63
381.84	35.16
382.05	-3.75
382.261	22.87
382.471	-30.38
382.681	84.31
382.891	-26.28
383.101	57.68
383.311	41.3
383.521	29.01
383.731	51.54
383.941	57.68
384.151	41.3
384.361	10.58
384.571	-1.71
384.781	57.68
384.991	59.73
385.201	39.25
385.411	41.3
385.621	55.64
385.831	33.11
386.041	67.92
386.251	63.83
386.461	37.2
386.671	-54.95
386.881	-18.09
387.091	6.49
387.301	90.45
387.511	0.34
387.72	37.2
387.93	-57
388.14	4.44
388.35	29.01
388.56	35.16
388.769	-13.99
388.979	29.01
389.189	-5.8
389.399	74.07
389.609	29.01
389.818	74.07
390.028	4.44
390.238	67.92
390.447	90.45
390.657	37.2
390.867	-59.05
391.076	57.68
391.286	59.73
391.496	24.92
391.705	41.3
391.915	16.73
392.125	14.68
392.334	49.49
392.544	24.92
392.753	82.26
392.963	24.92
393.172	0.34
393.382	26.96
393.591	55.64
393.801	8.53
394.01	59.73
394.22	-20.14
394.429	45.4
394.639	41.3
394.848	29.01
395.058	16.73
395.267	-3.75
395.477	100.69
395.686	43.35
395.895	61.78
396.105	29.01
396.314	72.02
396.524	-24.23
396.733	-20.14
396.942	84.31
397.152	80.21
397.361	-13.99
397.57	12.63
397.78	76.12
397.989	43.35
398.198	123.22
398.407	-38.57
398.617	55.64
398.826	35.16
399.035	35.16
399.244	117.08
399.453	-13.99
399.663	86.36
399.872	6.49
400.081	65.88
400.29	69.97
400.499	90.45
400.708	49.49
400.917	2.39
401.127	39.25
401.336	33.11
401.545	18.77
401.754	35.16
401.963	74.07
402.172	100.69
402.381	74.07
402.59	57.68
402.799	-5.8
403.008	141.65
403.217	45.4
403.426	102.74
403.635	69.97
403.844	55.64
404.053	43.35
404.262	53.59
404.471	24.92
404.68	31.06
404.888	65.88
405.097	94.55
405.306	6.49
405.515	92.5
405.724	86.36
405.933	55.64
406.142	98.64
406.35	18.77
406.559	26.96
406.768	57.68
406.977	88.4
407.185	8.53
407.394	35.16
407.603	90.45
407.812	147.8
408.02	98.64
408.229	76.12
408.438	-5.8
408.646	76.12
408.855	78.16
409.064	155.99
409.272	69.97
409.481	147.8
409.69	51.54
409.898	98.64
410.107	147.8
410.315	110.93
410.524	104.79
410.733	147.8
410.941	192.85
411.15	123.22
411.358	88.4
411.567	194.9
411.775	131.41
411.984	149.84
412.192	125.27
412.401	182.61
412.609	129.36
412.818	176.47
413.026	149.84
413.234	201.04
413.443	131.41
413.651	270.67
413.86	178.51
414.068	225.62
414.276	168.27
414.485	172.37
414.693	182.61
414.901	258.39
415.11	244.05
415.318	270.67
415.526	182.61
415.734	254.29
415.943	305.49
416.151	270.67
416.359	262.48
416.567	285.01
416.776	235.86
416.984	360.78
417.192	291.15
417.4	287.06
417.608	321.87
417.817	364.88
418.025	368.98
418.233	399.7
418.441	391.5
418.649	313.68
418.857	414.03
419.065	409.94
419.273	393.55
419.481	364.88
419.689	426.32
419.897	469.33
420.105	401.74
420.313	500.05
420.521	498
420.729	450.89
420.937	569.68
421.145	545.1
421.353	575.82
421.561	545.1
421.769	600.4
421.977	590.16
422.185	633.16
422.393	674.12
422.601	663.88
422.809	737.61
423.017	688.46
423.224	713.03
423.432	776.52
423.64	780.62
423.848	786.76
424.056	729.42
424.263	909.64
424.471	901.45
424.679	885.06
424.887	864.58
425.094	868.68
425.302	944.45
425.51	942.41
425.718	923.98
425.925	919.88
426.133	1048.9
426.341	1206.59
426.548	1165.64
426.756	1182.02
426.964	1294.66
427.171	1323.33
427.379	1294.66
427.586	1345.86
427.794	1372.48
428.001	1407.3
428.209	1356.1
428.417	1380.67
428.624	1517.89
428.832	1593.66
429.039	1577.28
429.247	1583.42
429.454	1614.14
429.662	1773.88
429.869	1569.09
430.076	1775.93
430.284	1665.34
430.491	1759.55
430.699	1892.66
430.906	2062.65
431.114	1952.06
431.321	2060.6
431.528	1982.78
431.736	2191.67
431.943	2339.12
432.15	2187.57
432.358	2193.72
432.565	2392.37
432.772	2322.74
432.979	2490.67
433.187	2502.96
433.394	2507.06
433.601	2728.24
433.808	2642.22
434.016	2629.93
434.223	2775.34
434.43	3014.95
434.637	2904.36
434.844	3066.15
435.052	3258.66
435.259	3105.06
435.466	3184.93
435.673	2971.94
435.88	3266.85
436.087	3473.7
436.294	3424.55
436.501	3295.52
436.708	3399.97
436.915	3510.56
437.122	3737.88
437.329	3741.98
437.537	3680.54
437.743	4016.41
437.95	3803.42
438.157	4159.77
438.364	4172.05
438.571	4204.82
438.778	4282.64
438.985	4581.65
439.192	4528.4
439.399	4641.04
439.606	4282.64
439.813	4671.76
440.02	5130.5
440.227	4872.46
440.433	4913.42
440.64	4985.1
440.847	4937.99
441.054	5110.02
441.261	5417.22
441.467	5499.14
441.674	5462.27
441.881	5697.79
442.088	5548.29
442.294	5531.9
442.501	5869.82
442.708	5918.97
442.914	5996.79
443.121	6367.48
443.328	6058.23
443.534	6596.85
443.741	6375.67
443.948	6416.63
444.154	6779.12
444.361	6916.33
444.568	6957.29
444.774	6883.56
444.981	6787.31
445.187	7256.29
445.394	7368.93
445.6	7454.95
445.807	8055
446.013	7751.9
446.22	7887.07
446.426	8184.02
446.633	8384.73
446.839	8573.14
447.046	8128.73
447.252	8712.4
447.459	8724.69
447.665	8636.63
447.871	8808.65
448.078	9382.09
448.284	8851.66
448.491	9027.79
448.697	9267.4
448.903	9951.42
449.11	9672.9
449.316	9492.68
449.522	9859.26
449.728	9955.52
449.935	10135.74
450.141	10272.95
450.347	10469.56
450.553	10174.65
450.76	10023.1
450.966	10459.32
451.172	10328.25
451.378	10715.31
451.584	10567.86
451.791	10854.58
451.997	10752.18
452.203	10952.88
452.409	10901.68
452.615	10993.84
452.821	10545.33
453.027	10383.54
453.233	10879.15
453.44	10393.78
453.646	10623.16
453.852	10531
454.058	10776.75
454.264	10588.34
454.47	11002.03
454.676	10496.18
454.882	10805.42
455.088	10115.26
455.294	10207.42
455.5	10389.69
455.705	10422.45
455.911	9908.41
456.117	9908.41
456.323	9488.58
456.529	8997.07
456.735	9767.1
456.941	9314.5
457.147	9195.72
457.352	8976.59
457.558	8757.46
457.764	8616.15
457.97	8755.41
458.176	8540.37
458.381	8519.89
458.587	8159.45
458.793	8227.03
458.999	7635.17
459.204	8251.61
459.41	7993.56
459.616	7536.87
459.821	7536.87
460.027	7483.62
460.233	7289.06
460.438	6940.91
460.644	7194.86
460.85	6633.71
461.055	6533.36
461.261	6686.96
461.466	6066.42
461.672	5931.26
461.878	6600.94
462.083	5964.03
462.289	5835
462.494	5859.58
462.7	5775.61
462.905	5429.51
463.111	5675.26
463.316	5632.26
463.522	5662.97
463.727	5497.09
463.932	5611.78
464.138	5419.27
464.343	5435.65
464.549	5257.48
464.754	5497.09
464.959	5431.55
465.165	5380.36
465.37	5198.09
465.575	5095.69
465.781	5263.62
465.986	5255.43
466.191	5153.03
466.397	4911.37
466.602	4753.68
466.807	4981
467.012	4849.93
467.218	4890.89
467.423	4831.5
467.628	4956.43
467.833	5058.82
468.038	4860.17
468.244	4675.85
468.449	4856.08
468.654	4735.25
468.859	4686.09
469.064	4749.58
469.269	4555.02
469.474	4591.89
469.679	4645.13
469.885	4577.55
470.09	4372.75
470.295	4401.43
470.5	4475.15
470.705	4419.86
470.91	4294.93
471.115	4401.43
471.32	4288.79
471.525	4473.11
471.73	4256.02
471.935	4206.87
472.139	4157.72
472.344	4268.31
472.549	4122.9
472.754	4067.61
472.959	3985.69
473.164	3916.06
473.369	3959.06
473.574	4043.03
473.778	3924.25
473.983	4014.36
474.188	3965.21
474.393	3725.6
474.598	3787.04
474.802	3789.08
475.007	3750.17
475.212	3780.89
475.417	3453.22
475.621	3682.59
475.826	3604.77
476.031	3533.09
476.235	3342.63
476.44	3531.04
476.645	3342.63
476.849	3561.76
477.054	3367.2
477.259	3250.47
477.463	3381.54
477.668	3344.67
477.872	3258.66
478.077	3350.82
478.282	3156.26
478.486	3078.44
478.691	3201.32
478.895	3176.74
479.1	3225.89
479.304	3125.54
479.509	2986.28
479.713	3029.29
479.918	3049.77
480.122	3033.38
480.326	3064.1
480.531	2988.33
480.735	2943.27
480.94	2967.85
481.144	3090.73
481.348	2781.48
481.553	2908.46
481.757	2818.35
481.961	2908.46
482.166	2869.55
482.37	2842.92
482.574	2904.36
482.778	2879.79
482.983	2959.66
483.187	3033.38
483.391	2799.91
483.595	2853.16
483.8	2865.45
484.004	2844.97
484.208	2883.88
484.412	2865.45
484.616	2797.87
484.821	2795.82
485.025	2859.31
485.229	2918.7
485.433	2935.08
485.637	2859.31
485.841	2859.31
486.045	2824.49
486.249	2922.79
486.453	2777.39
486.657	2754.86
486.861	2986.28
487.065	2844.97
487.269	2916.65
487.473	2804.01
487.677	2928.94
487.881	2869.55
488.085	2890.03
488.289	2959.66
488.493	2894.12
488.697	2978.09
488.901	2928.94
489.105	3012.9
489.309	2926.89
489.512	2949.42
489.716	2943.27
489.92	2902.31
490.124	3019.05
490.328	3148.07
490.531	2937.13
490.735	3062.05
490.939	3023.14
491.143	3047.72
491.346	2890.03
491.55	3012.9
491.754	2998.57
491.958	3100.97
492.161	3076.39
492.365	3051.81
492.569	3043.62
492.772	3121.45
492.976	3197.22
493.18	3137.83
493.383	3189.03
493.587	3227.94
493.79	3223.84
493.994	3141.93
494.197	3240.23
494.401	3201.32
494.605	3442.98
494.808	3422.5
495.012	3453.22
495.215	3363.11
495.419	3471.65
495.622	3483.94
495.825	3453.22
496.029	3459.36
496.232	3617.05
496.436	3490.08
496.639	3533.09
496.843	3547.42
497.046	3696.92
497.249	3625.25
497.453	3787.04
497.656	3809.56
497.859	3877.15
498.063	3817.76
498.266	3997.98
498.469	3973.4
498.673	3885.34
498.876	3989.78
499.079	4260.12
499.282	4059.42
499.485	4301.08
499.689	4253.97
499.892	4337.94
500.095	4323.6
500.298	4462.87
500.501	4448.53
500.705	4532.5
500.908	4704.53
501.111	4522.26
501.314	4778.25
501.517	4794.64
501.72	4796.68
501.923	4915.47
502.126	5103.88
502.329	5021.96
502.532	5210.37
502.735	5208.33
502.938	5341.44
503.141	5144.84
503.344	5325.06
503.547	5372.16
503.75	5521.67
503.953	5560.58
504.156	5628.16
504.359	5648.64
504.562	5910.78
504.765	5916.92
504.968	6041.85
505.17	6091
505.373	6185.21
505.576	6322.42
505.779	6359.28
505.982	6381.81
506.185	6590.7
506.387	6574.32
506.59	6551.79
506.793	6836.46
506.996	6906.09
507.198	7096.55
507.401	7123.18
507.604	7137.51
507.807	7311.59
508.009	7444.71
508.212	7594.21
508.415	7672.03
508.617	7782.62
508.82	7727.33
509.022	8005.85
509.225	8081.63
509.428	8020.19
509.63	8235.22
509.833	8343.77
510.035	8644.82
510.238	8517.84
510.44	8612.05
510.643	9035.98
510.845	9093.32
511.048	8999.12
511.25	9257.16
511.453	9330.89
511.655	9644.23
511.858	9617.6
512.06	9806.02
512.262	9834.69
512.465	9908.41
512.667	10119.35
512.87	10342.58
513.072	10348.73
513.274	10348.73
513.477	10686.64
513.679	10813.62
513.881	10940.59
514.084	11026.61
514.286	11247.79
514.488	11374.76
514.69	11499.69
514.893	11813.03
515.095	11913.38
515.297	11911.33
515.499	11870.37
515.701	12259.48
515.904	12322.97
516.106	12767.38
516.308	12935.31
516.51	12933.26
516.712	12927.12
516.914	13232.27
517.116	13527.17
517.318	13293.71
517.52	13656.2
517.722	13791.36
517.925	14100.61
518.127	14323.83
518.329	14520.44
518.531	14299.26
518.733	14639.22
518.935	14979.18
519.136	15181.93
519.338	15333.48
519.54	15489.13
519.742	15515.75
519.944	15886.43
520.146	15949.92
520.348	16042.08
520.55	16250.97
520.752	16429.15
520.954	16556.12
521.155	16631.9
521.357	16965.71
521.559	17119.31
521.761	17535.05
521.963	17430.6
522.164	17768.52
522.366	17836.1
522.568	17883.2
522.77	17832.01
522.971	18415.68
523.173	18589.75
523.375	18475.07
523.576	18583.61
523.778	18436.16
523.98	19052.59
524.181	19152.95
524.383	19292.21
524.584	19417.13
524.786	19589.16
524.988	19736.62
525.189	19554.35
525.391	20052
525.592	20023.33
525.794	20686.87
525.995	20215.84
526.197	20461.6
526.398	20430.88
526.6	20473.88
526.801	20881.43
527.003	21164.05
527.204	21209.11
527.406	21223.44
527.607	21252.11
527.808	21694.47
528.01	21573.64
528.211	21645.32
528.412	21915.65
528.614	21800.97
528.815	21878.79
529.016	22042.63
529.218	21882.89
529.419	21940.23
529.62	22114.31
529.822	22063.11
530.023	22577.15
530.224	22497.28
530.425	22523.9
530.626	22650.88
530.828	22145.03
531.029	22724.6
531.23	22142.98
531.431	22960.12
531.632	22407.17
531.833	22663.16
532.035	22509.57
532.236	22923.26
532.437	23060.47
532.638	22804.47
532.839	23142.39
533.04	23302.13
533.241	22706.17
533.442	23306.23
533.643	22833.14
533.844	22939.64
534.045	23185.4
534.246	23238.64
534.447	23408.62
534.648	23046.13
534.849	23230.45
535.05	23365.62
535.251	23379.95
535.451	23148.53
535.652	23449.58
535.853	23324.66
536.054	23418.86
536.255	23148.53
536.456	23246.83
536.657	23758.83
536.857	23490.54
537.058	23050.23
537.259	23781.35
537.46	23371.76
537.66	23492.59
537.861	23427.06
538.062	23662.57
538.263	23689.2
538.463	23228.4
538.664	23619.56
538.865	23607.28
539.065	23908.33
539.266	23572.46
539.466	23934.95
539.667	23183.35
539.868	23883.75
540.068	23676.91
540.269	23572.46
540.469	23900.14
540.67	23336.95
540.87	23586.8
541.071	23547.89
541.271	23468.02
541.472	23613.42
541.672	23726.06
541.873	23594.99
542.073	23539.69
542.274	23777.26
542.474	23687.15
542.675	23463.92
542.875	23789.55
543.075	23605.23
543.276	23304.18
543.476	23724.01
543.676	23425.01
543.877	23586.8
544.077	23656.43
544.277	23506.93
544.478	23554.03
544.678	23828.46
544.878	23701.48
545.078	23588.85
545.279	23355.38
545.479	23658.48
545.679	23594.99
545.879	23498.73
546.079	23488.49
546.28	23719.92
546.48	23214.07
546.68	23349.23
546.88	23484.4
547.08	23554.03
547.28	23441.39
547.48	23601.13
547.68	23640.04
547.88	23338.99
548.081	23633.9
548.281	23404.53
548.481	23363.57
548.681	23275.51
548.881	23676.91
549.081	23599.09
549.28	23607.28
549.48	23807.98
549.68	23594.99
549.88	23883.75
550.08	23601.13
550.28	23754.73
550.48	23588.85
550.68	23906.28
550.88	23549.93
551.08	23488.49
551.279	23758.83
551.479	23453.68
551.679	23627.76
551.879	23744.49
552.079	23447.54
552.278	23394.29
552.478	23468.02
552.678	23695.34
552.878	23746.54
553.077	23498.73
553.277	23408.62
553.477	23590.89
553.676	23396.34
553.876	23465.97
554.076	22984.69
554.275	23330.8
554.475	23164.92
554.674	23535.6
554.874	23435.25
555.074	23273.46
555.273	23474.16
555.473	23388.14
555.672	23134.2
555.872	23279.6
556.071	22976.5
556.271	23291.89
556.47	23232.5
556.67	22765.56
556.869	22956.02
557.068	23115.76
557.268	22718.46
557.467	22853.62
557.667	23056.37
557.866	22781.95
558.065	23023.61
558.265	22806.52
558.464	22906.87
558.663	22949.88
558.863	22546.43
559.062	22908.92
559.261	22298.63
559.461	22816.76
559.66	22296.58
559.859	22450.17
560.058	22284.29
560.258	22700.03
560.457	22274.05
560.656	22736.89
560.855	22198.27
561.054	22415.36
561.253	22429.7
561.453	22253.57
561.652	22319.1
561.851	22294.53
562.05	21985.29
562.249	22331.39
562.448	22140.93
562.647	22171.65
562.846	21958.66
563.045	22142.98
563.244	21809.16
563.443	22218.75
563.642	21643.28
563.841	21862.41
564.04	21458.96
564.239	21932.04
564.438	21526.54
564.637	21897.22
564.836	21454.86
565.035	21528.59
565.234	21463.05
565.432	21542.92
565.631	21403.66
565.83	21420.05
566.029	21303.31
566.228	21342.22
566.427	21233.68
566.625	21338.13
566.824	20916.25
567.023	21061.65
567.222	20762.65
567.42	21041.17
567.619	21004.31
567.818	21065.75
568.016	20848.66
568.215	20893.72
568.414	20924.44
568.612	20936.73
568.811	20643.87
569.01	20756.5
569.208	20351.01
569.407	20834.33
569.605	20422.69
569.804	20400.16
570.002	20572.19
570.201	20377.63
570.4	20271.14
570.598	20203.55
570.797	20090.91
570.995	20082.72
571.193	19800.1
571.392	20285.47
571.59	19873.83
571.789	19886.12
571.987	19685.42
572.186	19595.31
572.384	19783.72
572.582	19830.82
572.781	19732.52
572.979	19222.58
573.177	19529.77
573.376	19454
573.574	19220.53
573.772	19103.79
573.971	19038.26
574.169	19101.75
574.367	18784.31
574.565	19273.78
574.763	18886.71
574.962	18659.38
575.16	18724.92
575.358	18886.71
575.556	18315.33
575.754	18788.41
575.952	18327.61
576.151	18655.29
576.349	18106.43
576.547	18202.69
576.745	18276.41
576.943	18229.31
577.141	18442.3
577.339	18145.34
577.537	17846.34
577.735	17956.93
577.933	17752.13
578.131	17842.25
578.329	17555.53
578.527	17500.23
578.725	17612.87
578.923	17598.54
579.121	17514.57
579.319	17295.44
579.516	17297.49
579.714	17459.27
579.912	17209.42
580.11	17449.04
580.308	17150.03
580.506	17299.53
580.704	16724.05
580.901	16957.52
581.099	17262.67
581.297	16808.02
581.495	16930.9
581.692	16910.42
581.89	16758.87
582.088	16699.48
582.285	16726.1
582.483	16635.99
582.681	16439.39
582.878	16601.18
583.076	16398.43
583.274	16515.16
583.471	16304.22
583.669	16293.98
583.866	16115.81
584.064	16281.69
584.262	15966.31
584.459	16183.39
584.657	15931.49
584.854	16072.8
585.052	15548.52
585.249	15921.25
585.447	15992.93
585.644	15448.17
585.841	15818.85
586.039	15614.06
586.236	15405.16
586.434	15460.46
586.631	15265.9
586.828	15564.9
587.026	15626.34
587.223	15280.24
587.42	15069.3
587.618	15396.97
587.815	15075.44
588.012	15216.75
588.21	15071.34
588.407	15153.26
588.604	14936.18
588.801	15118.45
588.999	14803.06
589.196	14919.79
589.393	14917.75
589.59	15009.9
589.787	14844.02
589.984	14780.53
590.182	14506.1
590.379	14690.42
590.576	14499.96
590.773	14553.21
590.97	14409.85
591.167	14475.38
591.364	14104.7
591.561	14479.48
591.758	14266.49
591.955	14170.24
592.152	14217.34
592.349	14188.67
592.546	14039.17
592.743	14131.33
592.94	13904
593.137	14182.52
593.334	14051.45
593.531	13869.19
593.727	14172.29
593.924	13820.03
594.121	13777.03
594.318	13723.78
594.515	13529.22
594.712	13801.6
594.908	13750.4
595.105	13736.07
595.302	13389.96
595.499	13428.87
595.696	13297.8
595.892	13496.46
596.089	13191.31
596.286	13486.22
596.482	13093.01
596.679	13281.42
596.876	13176.97
597.072	13228.17
597.269	13174.92
597.466	13183.12
597.662	13037.71
597.859	12906.64
598.055	12970.13
598.252	12830.87
598.448	12853.39
598.645	12982.42
598.841	12796.05
599.038	12834.96
599.234	12683.41
599.431	12705.94
599.627	12617.88
599.824	12605.59
600.02	12443.8
600.217	12798.1
600.413	12593.3
600.609	12433.56
600.806	12267.67
601.002	12378.26
601.198	12355.74
601.395	12275.87
601.591	12253.34
601.787	12148.89
601.984	12128.41
602.18	12282.01
602.376	11991.2
602.572	11923.62
602.769	11931.81
602.965	11839.65
603.161	11983.01
603.357	11706.53
603.553	11694.24
603.75	11925.66
603.946	11692.19
604.142	11813.03
604.338	11727.01
604.534	11784.35
604.73	11468.97
604.926	11583.65
605.122	11341.99
605.318	11282.6
605.514	11210.92
605.71	11413.67
605.906	11215.02
606.102	11174.06
606.298	11432.1
606.494	11282.6
606.69	11069.61
606.886	11180.2
607.082	10746.03
607.278	10905.77
607.474	10825.9
607.67	11053.23
607.866	10754.23
608.062	10903.73
608.257	10682.55
608.453	10748.08
608.649	10596.53
608.845	10600.63
609.041	10674.35
609.236	10672.31
609.432	10807.47
609.628	10625.2
609.824	10567.86
610.019	10457.27
610.215	10393.78
610.411	10363.06
610.606	10309.82
610.802	10307.77
610.998	10332.34
611.193	10115.26
611.389	10275
611.584	10193.08
611.78	10242.23
611.976	10209.47
612.171	9902.27
612.367	9937.09
612.562	10111.16
612.758	9744.58
612.953	9685.19
613.149	9748.67
613.344	9746.62
613.539	10000.57
613.735	9674.95
613.93	9943.23
614.126	9507.01
614.321	9572.55
614.517	9728.19
614.712	9607.36
614.907	9642.18
615.103	9427.14
615.298	9603.27
615.493	9633.99
615.688	9373.89
615.884	9359.56
616.079	9234.63
616.274	9341.13
616.47	9224.39
616.665	9359.56
616.86	9158.86
617.055	9371.85
617.25	9396.42
617.445	9240.78
617.641	9001.16
617.836	9040.08
618.031	8751.31
618.226	8966.35
618.421	8745.17
618.616	9001.16
618.811	8777.94
619.006	8882.38
619.201	8405.21
619.396	8710.35
619.591	8685.78
619.786	8687.82
619.981	8696.02
620.176	8425.68
620.371	8374.49
620.566	8431.83
620.761	8380.63
620.956	8331.48
621.151	8229.08
621.346	8487.12
621.541	8292.57
621.735	8476.88
621.93	8038.62
622.125	8227.03
622.32	8147.16
622.515	8069.34
622.709	7964.89
622.904	7962.84
623.099	7868.64
623.294	7934.17
623.488	7774.43
623.683	7936.22
623.878	7653.6
624.072	7712.99
624.267	7680.22
624.462	7596.26
624.656	7569.63
624.851	7465.19
625.046	7469.28
625.24	7448.8
625.435	7540.96
625.629	7352.55
625.824	7334.12
626.018	7385.32
626.213	7067.88
626.407	7350.5
626.602	7022.83
626.796	7110.89
626.991	7080.17
627.185	7041.26
627.38	7166.18
627.574	6858.99
627.768	6697.2
627.963	6658.29
628.157	6658.29
628.352	6963.44
628.546	6646
628.74	6693.1
628.935	6502.64
629.129	6658.29
629.323	6506.74
629.517	6830.32
629.712	6521.07
629.906	6555.89
630.1	6500.59
630.294	6476.02
630.489	6326.52
630.683	6390
630.877	6385.91
631.071	6365.43
631.265	6260.98
631.459	6205.69
631.653	6351.09
631.848	6238.45
632.042	6271.22
632.236	6199.54
632.43	6205.69
632.624	6101.24
632.818	6029.56
633.012	5974.27
633.206	5980.41
633.4	6136.06
633.594	5943.55
633.788	5888.25
633.982	6017.27
634.176	5726.46
634.369	5955.83
634.563	5712.13
634.757	5781.76
634.951	5748.99
635.145	5705.98
635.339	5589.25
635.533	5785.85
635.726	5609.73
635.92	5433.6
636.114	5505.28
636.308	5556.48
636.501	5349.64
636.695	5521.67
636.889	5363.97
637.083	5409.03
637.276	5517.57
637.47	5413.12
637.664	5228.81
637.857	5218.57
638.051	5091.59
638.244	5394.69
638.438	5294.34
638.632	5138.69
638.825	5067.02
639.019	5198.09
639.212	5056.78
639.406	4960.52
639.599	5144.84
639.793	5054.73
639.986	4829.45
640.18	5091.59
640.373	5071.11
640.567	4884.75
640.76	4954.38
640.954	4907.27
641.147	4841.74
641.34	4653.33
641.534	4839.69
641.727	4725.01
641.92	4751.63
642.114	4745.48
642.307	4702.48
642.5	4538.64
642.694	4571.41
642.887	4366.61
643.08	4563.22
643.273	4417.81
643.467	4323.6
643.66	4374.8
643.853	4374.8
644.046	4319.51
644.239	4409.62
644.432	4313.36
644.626	4286.74
644.819	4151.57
645.012	4192.53
645.205	4178.2
645.398	4184.34
645.591	4188.44
645.784	4104.47
645.977	3995.93
646.17	4139.29
646.363	3989.78
646.556	3973.4
646.749	3989.78
646.942	3959.06
647.135	3815.71
647.328	3768.6
647.521	3911.96
647.714	3707.16
647.907	3864.86
648.099	3754.27
648.292	3750.17
648.485	3696.92
648.678	3621.15
648.871	3715.36
649.064	3604.77
649.256	3666.21
649.449	3625.25
649.642	3535.14
649.835	3727.64
650.027	3485.98
650.22	3426.59
650.413	3496.22
650.605	3500.32
650.798	3557.66
650.991	3395.87
651.183	3408.16
651.376	3453.22
651.568	3348.77
651.761	3293.48
651.954	3223.84
652.146	3197.22
652.339	3399.97
652.531	3252.52
652.724	3182.88
652.916	3215.65
653.109	3025.19
653.301	3098.92
653.494	3055.91
653.686	3074.34
653.879	3092.77
654.071	3014.95
654.263	3017
654.456	3045.67
654.648	2982.18
654.84	3002.66
655.033	3064.1
655.225	3008.81
655.417	2883.88
655.61	2918.7
655.802	2787.63
655.994	2724.14
656.186	2795.82
656.379	2730.28
656.571	2662.7
656.763	2779.43
656.955	2769.2
657.148	2689.32
657.34	2720.04
657.532	2574.64
657.724	2586.93
657.916	2611.5
658.108	2621.74
658.3	2621.74
658.492	2611.5
658.684	2517.29
658.876	2496.82
659.068	2599.21
659.26	2445.62
659.452	2437.42
659.644	2462
659.836	2345.27
660.028	2359.6
660.22	2335.03
660.412	2312.5
660.604	2246.96
660.796	2269.49
660.988	2244.92
661.18	2234.68
661.372	2234.68
661.563	2271.54
661.755	2124.08
661.947	2183.48
662.139	2115.89
662.331	2148.66
662.522	2199.86
662.714	1970.49
662.906	2066.74
663.097	2165.04
663.289	2074.93
663.481	2040.12
663.673	2003.25
663.864	1902.9
664.056	2001.21
664.247	2015.54
664.439	1911.1
664.631	1966.39
664.822	2003.25
665.014	2046.26
665.205	1900.86
665.397	1839.42
665.588	1898.81
665.78	1818.94
665.971	1859.9
666.163	1831.23
666.354	2013.49
666.546	1829.18
666.737	1796.41
666.929	1814.84
667.12	1823.03
667.311	1761.59
667.503	1698.11
667.694	1792.31
667.885	1757.5
668.077	1628.48
668.268	1691.96
668.459	1663.29
668.651	1646.91
668.842	1618.24
669.033	1632.57
669.224	1655.1
669.416	1800.51
669.607	1689.92
669.798	1550.65
669.989	1552.7
670.18	1583.42
670.371	1560.89
670.563	1511.74
670.754	1536.32
670.945	1591.61
671.136	1548.61
671.327	1630.52
671.518	1646.91
671.709	1503.55
671.9	1464.64
672.091	1622.33
672.282	1448.26
672.473	1466.69
672.664	1593.66
672.855	1491.26
673.046	1542.46
673.237	1659.2
673.428	1536.32
673.619	1503.55
673.809	1499.45
674	1526.08
674.191	1403.2
674.382	1483.07
674.573	1466.69
674.764	1433.92
674.954	1526.08
675.145	1495.36
675.336	1534.27
675.527	1476.93
675.717	1345.86
675.908	1448.26
676.099	1435.97
676.289	1489.21
676.48	1413.44
676.671	1435.97
676.861	1382.72
677.052	1456.45
677.243	1382.72
677.433	1433.92
677.624	1411.39
677.814	1433.92
678.005	1446.21
678.195	1458.5
678.386	1468.73
678.576	1499.45
678.767	1366.34
678.957	1454.4
679.148	1368.38
679.338	1362.24
679.529	1382.72
679.719	1446.21
679.909	1311.04
680.1	1380.67
680.29	1380.67
680.481	1409.34
680.671	1390.91
680.861	1339.71
681.052	1337.66
681.242	1388.86
681.432	1458.5
681.622	1358.14
681.813	1417.54
682.003	1288.51
682.193	1337.66
682.383	1407.3
682.573	1304.9
682.764	1384.77
682.954	1390.91
683.144	1333.57
683.334	1401.15
683.524	1460.54
683.714	1284.42
683.904	1403.2
684.094	1456.45
684.284	1372.48
684.474	1392.96
684.664	1339.71
684.854	1354.05
685.044	1380.67
685.234	1366.34
685.424	1368.38
685.614	1417.54
685.804	1360.19
685.994	1425.73
686.184	1403.2
686.374	1352
686.564	1343.81
686.753	1405.25
686.943	1423.68
687.133	1415.49
687.323	1376.58
687.513	1395.01
687.702	1362.24
687.892	1476.93
688.082	1388.86
688.272	1290.56
688.461	1407.3
688.651	1329.47
688.841	1440.06
689.03	1444.16
689.22	1415.49
689.41	1370.43
689.599	1429.82
689.789	1386.82
689.979	1370.43
690.168	1489.21
690.358	1405.25
690.547	1513.79
690.737	1442.11
690.926	1278.27
691.116	1481.02
691.305	1493.31
691.495	1493.31
691.684	1517.89
691.874	1435.97
692.063	1519.93
692.252	1454.4
692.442	1476.93
692.631	1468.73
692.82	1433.92
693.01	1468.73
693.199	1532.22
693.388	1569.09
693.578	1560.89
693.767	1546.56
693.956	1571.13
694.146	1499.45
694.335	1462.59
694.524	1534.27
694.713	1550.65
694.902	1628.48
695.092	1495.36
695.281	1489.21
695.47	1573.18
695.659	1534.27
695.848	1532.22
696.037	1442.11
696.226	1536.32
696.415	1593.66
696.604	1583.42
696.793	1638.72
696.982	1630.52
697.171	1556.8
697.36	1597.76
697.549	1526.08
697.738	1614.14
697.927	1546.56
698.116	1513.79
698.305	1622.33
698.494	1599.8
698.683	1532.22
698.872	1599.8
699.061	1550.65
699.25	1564.99
699.438	1665.34
699.627	1556.8
699.816	1526.08
700.005	1517.89
700.193	1636.67
700.382	1614.14
700.571	1622.33
700.76	1632.57
700.948	1671.48
701.137	1642.81
701.326	1622.33
701.514	1507.65
701.703	1599.8
701.892	1618.24
702.08	1597.76
702.269	1581.37
702.457	1589.57
702.646	1542.46
702.834	1542.46
703.023	1495.36
703.212	1651
703.4	1567.04
703.589	1524.03
703.777	1595.71
703.965	1589.57
704.154	1526.08
704.342	1569.09
704.531	1509.69
704.719	1491.26
704.907	1409.34
705.096	1450.3
705.284	1354.05
705.472	1524.03
705.661	1593.66
705.849	1501.5
706.037	1499.45
706.226	1503.55
706.414	1366.34
706.602	1464.64
706.79	1587.52
706.979	1466.69
707.167	1509.69
707.355	1427.78
707.543	1507.65
707.731	1483.07
707.919	1460.54
708.107	1409.34
708.296	1446.21
708.484	1440.06
708.672	1440.06
708.86	1384.77
709.048	1456.45
709.236	1392.96
709.424	1411.39
709.612	1468.73
709.8	1460.54
709.988	1423.68
710.176	1413.44
710.364	1352
710.551	1321.28
710.739	1421.63
710.927	1358.14
711.115	1288.51
711.303	1337.66
711.491	1362.24
711.679	1378.62
711.866	1274.18
712.054	1411.39
712.242	1341.76
712.43	1294.66
712.617	1304.9
712.805	1286.47
712.993	1438.02
713.181	1333.57
713.368	1317.19
713.556	1270.08
713.744	1296.71
713.931	1304.9
714.119	1315.14
714.306	1380.67
714.494	1311.04
714.682	1167.68
714.869	1255.75
715.057	1206.59
715.244	1188.16
715.432	1411.39
715.619	1329.47
715.807	1206.59
715.994	1153.35
716.182	1251.65
716.369	1229.12
716.556	1270.08
716.744	1163.59
716.931	1200.45
717.119	1210.69
717.306	1153.35
717.493	1249.6
717.681	1200.45
717.868	1200.45
718.055	1214.79
718.242	1243.46
718.43	1206.59
718.617	1206.59
718.804	1179.97
718.991	1147.2
719.179	1218.88
719.366	1227.07
719.553	1196.36
719.74	1112.39
719.927	1089.86
720.114	1153.35
720.301	1204.55
720.488	1182.02
720.676	1196.36
720.863	1077.57
721.05	1149.25
721.237	983.37
721.424	1057.09
721.611	1136.96
721.798	1096
721.985	950.6
722.172	1118.53
722.358	1128.77
722.545	1032.52
722.732	958.79
722.919	1114.44
723.106	1022.28
723.293	1016.13
723.48	1040.71
723.667	1065.29
723.853	1028.42
724.04	1096
724.227	1141.06
724.414	1079.62
724.6	1046.85
724.787	962.89
724.974	1087.81
725.161	948.55
725.347	1044.81
725.534	995.65
725.72	1005.89
725.907	956.74
726.094	975.17
726.28	987.46
726.467	985.41
726.653	962.89
726.84	973.13
727.027	987.46
727.213	938.31
727.4	944.45
727.586	942.41
727.773	917.83
727.959	942.41
728.145	964.93
728.332	977.22
728.518	997.7
728.705	983.37
728.891	923.98
729.077	940.36
729.264	870.73
729.45	901.45
729.636	985.41
729.823	911.69
730.009	921.93
730.195	885.06
730.382	885.06
730.568	987.46
730.754	966.98
730.94	848.2
731.126	942.41
731.313	942.41
731.499	878.92
731.685	856.39
731.871	819.53
732.057	893.26
732.243	983.37
732.429	821.58
732.615	928.07
732.801	893.26
732.987	870.73
733.173	856.39
733.359	762.19
733.545	854.34
733.731	850.25
733.917	794.95
734.103	860.49
734.289	926.02
734.475	764.23
734.661	903.5
734.847	848.2
735.033	825.67
735.219	854.34
735.404	893.26
735.59	801.1
735.776	889.16
735.962	805.19
736.148	852.3
736.333	731.47
736.519	946.5
736.705	751.95
736.89	866.63
737.076	823.62
737.262	723.27
737.447	809.29
737.633	825.67
737.819	764.23
738.004	846.15
738.19	741.71
738.375	745.8
738.561	766.28
738.747	758.09
738.932	633.16
739.118	737.61
739.303	731.47
739.489	819.53
739.674	731.47
739.859	776.52
740.045	739.66
740.23	727.37
740.416	780.62
740.601	831.82
740.786	700.75
740.972	702.79
741.157	704.84
741.342	723.27
741.528	729.42
741.713	788.81
741.898	674.12
742.084	737.61
742.269	624.97
742.454	776.52
742.639	678.22
742.824	725.32
743.01	747.85
743.195	772.43
743.38	694.6
743.565	678.22
743.75	627.02
743.935	631.12
744.12	633.16
744.305	647.5
744.49	649.55
744.675	653.64
744.86	608.59
745.045	694.6
745.23	637.26
745.415	715.08
745.6	596.3
745.785	672.08
745.97	608.59
746.155	592.2
746.34	659.79
746.525	594.25
746.71	633.16
746.895	616.78
747.079	536.91
747.264	649.55
747.449	581.96
747.634	594.25
747.819	581.96
748.003	600.4
748.188	624.97
748.373	563.53
748.557	610.64
748.742	606.54
748.927	543.05
749.111	543.05
749.296	586.06
749.481	594.25
749.665	543.05
749.85	541.01
750.034	491.85
750.219	561.48
750.404	551.24
750.588	598.35
750.773	502.09
750.957	559.44
751.141	498
751.326	600.4
751.51	516.43
751.695	549.2
751.879	473.42
752.064	543.05
752.248	512.33
752.432	508.24
752.617	520.53
752.801	579.92
752.985	565.58
753.17	444.75
753.354	448.85
753.538	559.44
753.722	426.32
753.907	377.17
754.091	401.74
754.275	508.24
754.459	500.05
754.643	362.83
754.828	448.85
755.012	397.65
755.196	485.71
755.38	467.28
755.564	407.89
755.748	493.9
755.932	495.95
756.116	483.66
756.3	401.74
756.484	459.09
756.668	430.41
756.852	387.41
757.036	430.41
757.22	426.32
757.404	397.65
757.588	457.04
757.772	446.8
757.956	411.98
758.14	491.85
758.323	379.22
758.507	444.75
758.691	366.93
758.875	422.22
759.059	364.88
759.242	444.75
759.426	377.17
759.61	405.84
759.794	411.98
759.977	323.92
760.161	362.83
760.345	397.65
760.528	424.27
760.712	344.4
760.895	303.44
761.079	385.36
761.263	385.36
761.446	459.09
761.63	368.98
761.813	424.27
761.997	373.07
762.18	379.22
762.364	305.49
762.547	334.16
762.731	334.16
762.914	358.74
763.098	377.17
763.281	395.6
763.464	301.39
763.648	364.88
763.831	387.41
764.015	307.54
764.198	389.46
764.381	354.64
764.564	334.16
764.748	393.55
764.931	420.17
765.114	305.49
765.297	450.89
765.481	391.5
765.664	377.17
765.847	385.36
766.03	393.55
766.213	311.63
766.397	383.31
766.58	328.02
766.763	330.06
766.946	268.63
767.129	366.93
767.312	348.5
767.495	321.87
767.678	268.63
767.861	235.86
768.044	268.63
768.227	268.63
768.41	319.82
768.593	260.43
768.776	297.3
768.959	338.26
769.142	289.1
769.324	338.26
769.507	303.44
769.69	350.54
769.873	334.16
770.056	319.82
770.239	270.67
770.421	342.35
770.604	260.43
770.787	323.92
770.97	295.25
771.152	264.53
771.335	242
771.518	319.82
771.7	377.17
771.883	348.5
772.066	360.78
772.248	280.91
772.431	291.15
772.613	317.78
772.796	256.34
772.978	215.38
773.161	328.02
773.343	198.99
773.526	338.26
773.708	258.39
773.891	313.68
774.073	262.48
774.256	219.47
774.438	256.34
774.621	291.15
774.803	295.25
774.985	223.57
775.168	280.91
775.35	291.15
775.532	250.19
775.715	258.39
775.897	305.49
776.079	215.38
776.261	315.73
776.444	276.82
776.626	266.58
776.808	252.24
776.99	147.8
777.173	237.91
777.355	235.86
777.537	190.8
777.719	217.43
777.901	223.57
778.083	246.1
778.265	242
778.447	221.52
778.629	270.67
778.811	250.19
778.993	201.04
779.175	227.67
779.357	235.86
779.539	207.19
779.721	223.57
779.903	207.19
780.085	135.51
780.267	217.43
780.449	164.18
780.631	190.8
780.812	174.42
780.994	166.23
781.176	252.24
781.358	190.8
781.54	155.99
781.721	201.04
781.903	248.15
782.085	192.85
782.267	158.03
782.448	229.71
782.63	139.6
782.812	223.57
782.993	133.46
783.175	209.23
783.357	229.71
783.538	151.89
783.72	205.14
783.901	209.23
784.083	147.8
784.264	178.51
784.446	184.66
784.627	164.18
784.809	110.93
784.99	153.94
785.172	223.57
785.353	121.17
785.535	225.62
785.716	141.65
785.897	188.75
786.079	135.51
786.26	164.18
786.441	133.46
786.623	233.81
786.804	164.18
786.985	119.12
787.167	180.56
787.348	182.61
787.529	203.09
787.71	203.09
787.891	223.57
788.073	143.7
788.254	188.75
788.435	198.99
788.616	250.19
788.797	155.99
788.978	162.13
789.159	133.46
789.34	205.14
789.522	139.6
789.703	90.45
789.884	147.8
790.065	149.84
790.246	184.66
790.427	102.74
790.607	151.89
790.788	139.6
790.969	121.17
791.15	149.84
791.331	149.84
791.512	119.12
791.693	180.56
791.874	125.27
792.054	127.32
792.235	182.61
792.416	143.7
792.597	108.88
792.778	88.4
792.958	205.14
793.139	149.84
793.32	108.88
793.5	67.92
793.681	158.03
793.862	112.98
794.042	201.04
794.223	31.06
794.404	-5.8
794.584	123.22
794.765	172.37
794.945	115.03
795.126	94.55
795.306	151.89
795.487	112.98
795.667	117.08
795.848	69.97
796.028	160.08
796.209	102.74
796.389	37.2
796.57	57.68
796.75	115.03
796.93	110.93
797.111	35.16
797.291	35.16
797.471	121.17
797.652	176.47
797.832	26.96
798.012	153.94
798.192	133.46
798.373	196.95
798.553	63.83
798.733	119.12
798.913	115.03
799.093	102.74
799.274	74.07
799.454	84.31
799.634	104.79
799.814	92.5
799.994	37.2
800.174	94.55
800.354	65.88
800.534	80.21
800.714	63.83
800.894	117.08
801.074	76.12
801.254	86.36
801.434	33.11
801.614	141.65
801.794	82.26
801.974	348.5
802.154	-3.75
802.334	92.5
802.514	65.88
802.693	133.46
802.873	92.5
803.053	41.3
803.233	76.12
803.413	155.99
803.592	35.16
803.772	80.21
803.952	96.6
804.131	131.41
804.311	-1.71
804.491	100.69
804.67	74.07
804.85	141.65
805.03	22.87
805.209	155.99
805.389	14.68
805.568	92.5
805.748	88.4
805.928	57.68
806.107	80.21
806.287	104.79
806.466	90.45
806.646	119.12
806.825	59.73
807.004	53.59
807.184	178.51
807.363	98.64
807.543	98.64
807.722	57.68
807.901	100.69
808.081	45.4
808.26	88.4
808.439	74.07
808.619	10.58
808.798	82.26
808.977	26.96
809.156	127.32
809.336	4.44
809.515	74.07
809.694	100.69
809.873	35.16
810.052	96.6
810.231	2.39
810.411	72.02
810.59	63.83
810.769	98.64
810.948	98.64
811.127	45.4
811.306	33.11
811.485	39.25
811.664	78.16
811.843	8.53
812.022	67.92
812.201	80.21
812.38	-5.8
812.559	41.3
812.737	29.01
812.916	72.02
813.095	57.68
813.274	84.31
813.453	53.59
813.632	26.96
813.811	69.97
813.989	84.31
814.168	61.78
814.347	33.11
814.526	65.88
814.704	80.21
814.883	106.84
815.062	137.56
815.24	80.21
815.419	-1.71
815.598	82.26
815.776	63.83
815.955	-20.14
816.133	39.25
816.312	131.41
816.49	-3.75
816.669	84.31
816.847	8.53
817.026	74.07
817.204	-46.76
817.383	65.88
817.561	63.83
817.74	-7.85
817.918	18.77
818.097	88.4
818.275	20.82
818.453	63.83
818.632	78.16
818.81	102.74
818.988	55.64
819.167	26.96
819.345	47.44
819.523	33.11
819.701	90.45
819.879	41.3
820.058	2.39
820.236	98.64
820.414	63.83
820.592	26.96
820.77	-32.43
820.948	20.82
821.127	12.63
821.305	-28.33
821.483	24.92
821.661	59.73
821.839	26.96
822.017	22.87
822.195	24.92
822.373	92.5
822.551	0.34
822.729	61.78
822.907	14.68
823.085	-13.99
823.262	57.68
823.44	35.16
823.618	92.5
823.796	108.88
823.974	16.73
824.152	33.11
824.329	6.49
824.507	108.88
824.685	24.92
824.863	43.35
825.04	35.16
825.218	86.36
825.396	-16.04
825.574	49.49
825.751	127.32
825.929	59.73
826.107	16.73
826.284	20.82
826.462	47.44
826.639	131.41
826.817	82.26
826.994	84.31
827.172	35.16
827.349	65.88
827.527	45.4
827.704	104.79
827.882	65.88
828.059	26.96
828.237	59.73
828.414	72.02
828.591	31.06
828.769	39.25
828.946	26.96
829.124	16.73
829.301	88.4
829.478	117.08
829.655	135.51
829.833	20.82
830.01	37.2
830.187	51.54
830.364	35.16
830.542	12.63
830.719	24.92
830.896	59.73
831.073	65.88
831.25	98.64
831.427	6.49
831.604	49.49
831.782	-61.1
831.959	43.35
832.136	37.2
832.313	12.63
832.49	29.01
832.667	14.68
832.844	57.68
833.021	33.11
833.198	22.87
833.374	84.31
833.551	47.44
833.728	45.4
833.905	14.68
834.082	43.35
834.259	12.63
834.436	37.2
834.612	84.31
834.789	39.25
834.966	-7.85
835.143	26.96
835.319	33.11
835.496	59.73
835.673	47.44
835.85	35.16
836.026	78.16
836.203	35.16
836.38	-22.19
836.556	74.07
836.733	63.83
836.909	53.59
837.086	8.53
837.262	59.73
837.439	-7.85
837.616	29.01
837.792	35.16
837.968	35.16
838.145	-3.75
838.321	110.93
838.498	-26.28
838.674	47.44
838.851	16.73
839.027	90.45
839.203	8.53
839.38	59.73
839.556	96.6
839.732	33.11
839.909	18.77
840.085	10.58
840.261	6.49
840.437	45.4
840.614	-28.33
840.79	2.39
840.966	65.88
841.142	53.59
841.318	20.82
841.494	22.87
841.671	86.36
841.847	94.55
842.023	96.6
842.199	4.44
842.375	45.4
842.551	31.06
842.727	35.16
842.903	8.53
843.079	-26.28
843.255	-1.71
843.431	0.34
843.607	104.79
843.783	74.07
843.959	61.78
844.134	20.82
844.31	-20.14
844.486	12.63
844.662	26.96
844.838	37.2
845.013	82.26
845.189	12.63
845.365	65.88
845.541	-48.81
845.716	-7.85
845.892	57.68
846.068	-7.85
846.244	-38.57
846.419	-5.8
846.595	-22.19
846.77	53.59
846.946	57.68
847.122	41.3
847.297	33.11
847.473	37.2
847.648	14.68
847.824	24.92
847.999	-20.14
848.175	76.12
848.35	61.78
848.526	20.82
848.701	35.16
848.876	12.63
849.052	33.11
849.227	49.49
849.403	-30.38
849.578	20.82
849.753	-32.43
849.929	94.55
850.104	31.06
850.279	-24.23
850.454	-26.28
850.63	49.49
850.805	2.39
850.98	76.12
851.155	24.92
851.33	29.01
851.505	-42.67
851.681	57.68
851.856	104.79
852.031	6.49
852.206	49.49
852.381	51.54
852.556	57.68
852.731	-44.71
852.906	129.36
853.081	18.77
853.256	69.97
853.431	24.92
853.606	-63.15
853.781	63.83
853.956	-5.8
854.131	-13.99
854.305	41.3
854.48	4.44
854.655	20.82
854.83	51.54
855.005	-52.91
855.18	-20.14
855.354	26.96
855.529	51.54
855.704	-13.99
855.879	92.5
856.053	-11.95
856.228	31.06
856.403	43.35
856.577	16.73
856.752	26.96
856.926	37.2
857.101	49.49
857.276	16.73
857.45	-13.99
857.625	16.73
857.799	-40.62
857.974	86.36
858.148	-5.8
858.323	37.2
858.497	-87.72
858.672	33.11
858.846	12.63
859.02	49.49
859.195	-3.75
859.369	37.2
859.543	45.4
859.718	31.06
859.892	-36.52
860.066	16.73
860.241	-26.28
860.415	33.11
860.589	-22.19
860.763	67.92
860.938	10.58
861.112	49.49
861.286	-79.53
861.46	69.97
861.634	22.87
861.808	67.92
861.982	41.3
862.157	4.44
862.331	-30.38
862.505	59.73
862.679	-3.75
862.853	-30.38
863.027	37.2
863.201	51.54
863.375	29.01
863.549	6.49
863.722	18.77
863.896	-36.52
864.07	-40.62
864.244	-24.23
864.418	-30.38
864.592	-44.71
864.766	-1.71
864.939	14.68
865.113	-1.71
865.287	10.58
865.461	-42.67
865.634	-20.14
865.808	-38.57
865.982	59.73
866.156	90.45
866.329	31.06
866.503	20.82
866.676	26.96
866.85	26.96
867.024	-5.8
867.197	-20.14
867.371	2.39
867.544	16.73
867.718	-1.71
867.891	53.59
868.065	-11.95
868.238	14.68
868.412	35.16
868.585	0.34
868.759	80.21
868.932	-5.8
869.105	18.77
869.279	-40.62
869.452	33.11
869.625	18.77
869.799	0.34
869.972	-5.8
870.145	33.11
870.319	35.16
870.492	67.92
870.665	29.01
870.838	4.44
871.011	63.83
871.185	33.11
871.358	-36.52
871.531	37.2
871.704	35.16
871.877	6.49
872.05	-3.75
872.223	14.68
872.396	55.64
872.569	-18.09
872.742	-32.43
872.915	37.2
873.088	-73.39
873.261	-46.76
873.434	12.63
873.607	41.3
873.78	53.59
873.953	53.59
874.126	6.49
874.299	96.6
874.471	8.53
874.644	16.73
874.817	69.97
874.99	43.35
875.163	14.68
875.335	2.39
875.508	-32.43
875.681	6.49
875.853	57.68
876.026	-44.71
876.199	49.49
876.371	-9.9
876.544	69.97
876.717	55.64
876.889	18.77
877.062	29.01
877.234	-40.62
877.407	-50.86
877.579	2.39
877.752	-20.14
877.924	-7.85
878.097	39.25
878.269	-9.9
878.442	20.82
878.614	-22.19
878.786	-50.86
878.959	29.01
879.131	39.25
879.303	82.26
879.476	-50.86
879.648	-38.57
879.82	12.63
879.993	-50.86
880.165	-13.99
880.337	0.34
880.509	2.39
880.681	-59.05
880.854	16.73
881.026	24.92
881.198	78.16
881.37	12.63
881.542	20.82
881.714	-9.9
881.886	49.49
882.058	8.53
882.23	-26.28
882.402	-44.71
882.574	78.16
882.746	4.44
882.918	57.68
883.09	-28.33
883.262	-16.04
883.434	18.77
883.606	29.01
883.778	6.49
883.95	33.11
884.122	20.82
884.293	-13.99
884.465	-1.71
884.637	-63.15
884.809	-18.09
884.98	43.35
885.152	4.44
885.324	-7.85
885.496	-24.23
885.667	39.25
885.839	14.68
886.011	43.35
886.182	16.73
886.354	51.54
886.525	8.53
886.697	43.35
886.869	-48.81
887.04	-16.04
887.212	0.34
887.383	74.07
887.555	55.64
887.726	43.35
887.897	26.96
888.069	65.88
888.24	-18.09
888.412	-22.19
888.583	16.73
888.754	20.82
888.926	-61.1
889.097	10.58
889.268	-36.52
889.44	57.68
889.611	-3.75
889.782	16.73
889.953	-1.71
890.125	0.34
890.296	-44.71
890.467	-5.8
890.638	47.44
890.809	37.2
890.98	-36.52
891.151	0.34
891.323	-30.38
891.494	10.58
891.665	88.4
891.836	8.53
892.007	2.39
892.178	-7.85
892.349	14.68
892.52	-40.62
892.691	-3.75
892.862	-13.99
893.032	10.58
893.203	8.53
893.374	26.96
893.545	82.26
893.716	24.92
893.887	10.58
894.057	65.88
894.228	26.96
894.399	8.53
894.57	0.34
894.74	18.77
894.911	4.44
895.082	-54.95
895.253	-5.8
895.423	43.35
895.594	41.3
895.764	-30.38
895.935	-24.23
896.106	49.49
896.276	16.73
896.447	2.39
896.617	51.54
896.788	51.54
896.958	8.53
897.129	-40.62
897.299	-18.09
897.47	92.5
897.64	26.96
897.81	69.97
897.981	45.4
898.151	-24.23
898.322	0.34
898.492	-89.77
898.662	-20.14
898.832	8.53
899.003	39.25
899.173	22.87
899.343	-20.14
899.513	-22.19
