Data from USB4F104151__60__13-53-37-097.txt Node

Date: Thu Mar 13 13:53:37 EDT 2025
User: louis
Spectrometer: USB4F10415
Trigger mode: 4
Integration Time (sec): 1.000000E-2
Scans to average: 1
Electric dark correction enabled: true
Nonlinearity correction enabled: false
Boxcar width: 0
XAxis mode: Wavelengths
Number of Pixels in Spectrum: 3648
>>>>>Begin Spectral Data<<<<<
178.204	-109.23
178.424	-109.23
178.644	-109.23
178.864	-37.55
179.084	-25.26
179.304	-62.12
179.524	1.37
179.744	-33.45
179.964	52.56
180.184	-2.73
180.404	17.75
180.624	-0.68
180.844	79.19
181.064	-74.41
181.283	-29.35
181.503	25.94
181.723	25.94
181.943	38.23
182.163	44.37
182.383	13.65
182.602	9.56
182.822	58.71
183.042	81.24
183.262	-62.12
183.482	-6.83
183.701	1.37
183.921	21.84
184.141	-74.41
184.361	-15.02
184.58	17.75
184.8	-4.78
185.02	-4.78
185.239	62.8
185.459	-12.97
185.679	5.46
185.898	13.65
186.118	27.99
186.338	36.18
186.557	62.8
186.777	21.84
186.997	1.37
187.216	23.89
187.436	-6.83
187.655	89.43
187.875	7.51
188.095	30.04
188.314	66.9
188.534	25.94
188.753	-17.07
188.973	15.7
189.192	36.18
189.412	42.32
189.631	56.66
189.851	56.66
190.07	-31.4
190.29	-64.17
190.509	36.18
190.729	56.66
190.948	56.66
191.168	107.86
191.387	38.23
191.607	-58.03
191.826	1.37
192.045	-6.83
192.265	50.52
192.484	30.04
192.704	66.9
192.923	3.41
193.142	73.04
193.362	52.56
193.581	97.62
193.8	5.46
194.02	58.71
194.239	11.61
194.458	21.84
194.678	-8.87
194.897	-25.26
195.116	-2.73
195.335	60.76
195.555	-0.68
195.774	19.8
195.993	46.42
196.212	34.13
196.432	50.52
196.651	7.51
196.87	5.46
197.089	91.48
197.308	38.23
197.528	44.37
197.747	21.84
197.966	-27.31
198.185	7.51
198.404	-27.31
198.623	30.04
198.842	52.56
199.062	25.94
199.281	-55.98
199.5	-23.21
199.719	32.08
199.938	42.32
200.157	116.05
200.376	-39.59
200.595	27.99
200.814	-33.45
201.033	25.94
201.252	58.71
201.471	3.41
201.69	64.85
201.909	17.75
202.128	52.56
202.347	38.23
202.566	44.37
202.785	-8.87
203.004	11.61
203.223	91.48
203.442	-29.35
203.661	-8.87
203.879	36.18
204.098	79.19
204.317	-19.11
204.536	56.66
204.755	66.9
204.974	-10.92
205.193	-8.87
205.411	-2.73
205.63	-25.26
205.849	40.28
206.068	-12.97
206.287	-12.97
206.505	42.32
206.724	-8.87
206.943	13.65
207.162	-8.87
207.381	11.61
207.599	-21.16
207.818	25.94
208.037	66.9
208.255	-12.97
208.474	5.46
208.693	58.71
208.911	11.61
209.13	25.94
209.349	85.33
209.567	68.95
209.786	34.13
210.005	11.61
210.223	34.13
210.442	21.84
210.661	-35.5
210.879	73.04
211.098	-19.11
211.316	-6.83
211.535	3.41
211.753	75.09
211.972	38.23
212.191	3.41
212.409	32.08
212.628	54.61
212.846	15.7
213.065	25.94
213.283	75.09
213.502	-2.73
213.72	25.94
213.938	13.65
214.157	30.04
214.375	1.37
214.594	21.84
214.812	44.37
215.031	85.33
215.249	34.13
215.467	-55.98
215.686	107.86
215.904	-17.07
216.122	36.18
216.341	23.89
216.559	71
216.778	-0.68
216.996	71
217.214	1.37
217.432	19.8
217.651	40.28
217.869	-37.55
218.087	13.65
218.306	58.71
218.524	42.32
218.742	21.84
218.96	-0.68
219.179	77.14
219.397	13.65
219.615	44.37
219.833	7.51
220.051	11.61
220.27	-29.35
220.488	23.89
220.706	36.18
220.924	30.04
221.142	25.94
221.36	-23.21
221.578	-2.73
221.796	-31.4
222.015	64.85
222.233	36.18
222.451	40.28
222.669	60.76
222.887	105.81
223.105	-68.27
223.323	56.66
223.541	-41.64
223.759	-4.78
223.977	21.84
224.195	9.56
224.413	103.76
224.631	25.94
224.849	-15.02
225.067	7.51
225.285	46.42
225.503	25.94
225.721	-21.16
225.939	9.56
226.157	19.8
226.375	3.41
226.592	-80.55
226.81	75.09
227.028	48.47
227.246	42.32
227.464	17.75
227.682	30.04
227.9	-23.21
228.117	11.61
228.335	68.95
228.553	-12.97
228.771	27.99
228.989	54.61
229.206	9.56
229.424	50.52
229.642	52.56
229.86	32.08
230.077	79.19
230.295	19.8
230.513	17.75
230.731	23.89
230.948	42.32
231.166	68.95
231.384	-2.73
231.601	-4.78
231.819	103.76
232.037	21.84
232.254	42.32
232.472	54.61
232.689	40.28
232.907	-8.87
233.125	-23.21
233.342	105.81
233.56	3.41
233.777	46.42
233.995	36.18
234.213	-6.83
234.43	50.52
234.648	48.47
234.865	1.37
235.083	60.76
235.3	11.61
235.518	21.84
235.735	71
235.953	32.08
236.17	83.28
236.388	30.04
236.605	36.18
236.822	9.56
237.04	-4.78
237.257	-72.36
237.475	-0.68
237.692	27.99
237.909	25.94
238.127	3.41
238.344	46.42
238.562	44.37
238.779	99.67
238.996	9.56
239.214	23.89
239.431	66.9
239.648	-29.35
239.865	-33.45
240.083	25.94
240.3	25.94
240.517	-41.64
240.735	-8.87
240.952	-12.97
241.169	11.61
241.386	34.13
241.603	66.9
241.821	52.56
242.038	7.51
242.255	50.52
242.472	38.23
242.689	-19.11
242.907	66.9
243.124	9.56
243.341	58.71
243.558	17.75
243.775	42.32
243.992	91.48
244.209	27.99
244.426	64.85
244.643	77.14
244.86	34.13
245.078	-29.35
245.295	-23.21
245.512	-23.21
245.729	30.04
245.946	42.32
246.163	-17.07
246.38	17.75
246.597	73.04
246.814	138.58
247.031	-45.74
247.248	-8.87
247.464	-12.97
247.681	-17.07
247.898	-33.45
248.115	40.28
248.332	-0.68
248.549	-47.79
248.766	25.94
248.983	11.61
249.2	-17.07
249.417	9.56
249.633	30.04
249.85	21.84
250.067	52.56
250.284	1.37
250.501	85.33
250.717	9.56
250.934	-23.21
251.151	15.7
251.368	-31.4
251.585	21.84
251.801	44.37
252.018	32.08
252.235	27.99
252.451	36.18
252.668	-33.45
252.885	56.66
253.102	-27.31
253.318	38.23
253.535	48.47
253.752	75.09
253.968	27.99
254.185	46.42
254.401	34.13
254.618	46.42
254.835	40.28
255.051	34.13
255.268	9.56
255.484	36.18
255.701	30.04
255.917	11.61
256.134	27.99
256.351	-6.83
256.567	-29.35
256.784	9.56
257	19.8
257.217	60.76
257.433	-4.78
257.65	9.56
257.866	85.33
258.082	81.24
258.299	-27.31
258.515	68.95
258.732	32.08
258.948	1.37
259.165	25.94
259.381	-8.87
259.597	5.46
259.814	75.09
260.03	56.66
260.246	73.04
260.463	93.52
260.679	48.47
260.895	-17.07
261.112	30.04
261.328	5.46
261.544	58.71
261.761	54.61
261.977	-15.02
262.193	-6.83
262.409	9.56
262.626	-58.03
262.842	-23.21
263.058	38.23
263.274	64.85
263.49	44.37
263.707	3.41
263.923	3.41
264.139	-19.11
264.355	-27.31
264.571	87.38
264.787	87.38
265.004	23.89
265.22	23.89
265.436	48.47
265.652	21.84
265.868	44.37
266.084	138.58
266.3	-17.07
266.516	44.37
266.732	27.99
266.948	46.42
267.164	-39.59
267.38	-37.55
267.596	-8.87
267.812	15.7
268.028	40.28
268.244	9.56
268.46	11.61
268.676	60.76
268.892	64.85
269.108	25.94
269.324	9.56
269.54	54.61
269.756	44.37
269.972	-33.45
270.188	25.94
270.403	38.23
270.619	-0.68
270.835	5.46
271.051	97.62
271.267	15.7
271.483	17.75
271.698	105.81
271.914	32.08
272.13	-31.4
272.346	50.52
272.562	9.56
272.777	-31.4
272.993	34.13
273.209	-10.92
273.425	5.46
273.64	-31.4
273.856	42.32
274.072	40.28
274.287	48.47
274.503	30.04
274.719	38.23
274.934	50.52
275.15	-41.64
275.366	27.99
275.581	-21.16
275.797	-25.26
276.012	-19.11
276.228	-12.97
276.444	68.95
276.659	40.28
276.875	-29.35
277.09	1.37
277.306	3.41
277.521	27.99
277.737	-45.74
277.952	-2.73
278.168	-23.21
278.383	-2.73
278.599	11.61
278.814	44.37
279.03	-21.16
279.245	50.52
279.461	25.94
279.676	77.14
279.892	-6.83
280.107	48.47
280.322	19.8
280.538	-31.4
280.753	34.13
280.969	-15.02
281.184	-6.83
281.399	-37.55
281.615	-27.31
281.83	-15.02
282.045	40.28
282.26	-64.17
282.476	-55.98
282.691	118.1
282.906	-6.83
283.122	42.32
283.337	-35.5
283.552	60.76
283.767	46.42
283.983	44.37
284.198	-33.45
284.413	30.04
284.628	62.8
284.843	-2.73
285.058	34.13
285.274	32.08
285.489	23.89
285.704	66.9
285.919	27.99
286.134	60.76
286.349	32.08
286.564	-17.07
286.779	1.37
286.995	77.14
287.21	46.42
287.425	36.18
287.64	-2.73
287.855	25.94
288.07	71
288.285	-21.16
288.5	-2.73
288.715	91.48
288.93	-6.83
289.145	93.52
289.36	56.66
289.575	40.28
289.79	11.61
290.004	-19.11
290.219	-6.83
290.434	32.08
290.649	-2.73
290.864	71
291.079	97.62
291.294	23.89
291.509	52.56
291.724	9.56
291.938	-21.16
292.153	42.32
292.368	77.14
292.583	62.8
292.798	42.32
293.012	71
293.227	58.71
293.442	-0.68
293.657	-4.78
293.871	23.89
294.086	93.52
294.301	89.43
294.516	64.85
294.73	44.37
294.945	3.41
295.16	58.71
295.374	1.37
295.589	-10.92
295.804	58.71
296.018	58.71
296.233	-0.68
296.447	17.75
296.662	-21.16
296.877	52.56
297.091	25.94
297.306	-0.68
297.52	30.04
297.735	42.32
297.949	-60.07
298.164	-39.59
298.378	34.13
298.593	25.94
298.807	-29.35
299.022	73.04
299.236	-19.11
299.451	-23.21
299.665	15.7
299.88	52.56
300.094	-2.73
300.309	42.32
300.523	19.8
300.737	48.47
300.952	97.62
301.166	91.48
301.381	-19.11
301.595	-15.02
301.809	83.28
302.024	-8.87
302.238	7.51
302.452	71
302.667	-47.79
302.881	105.81
303.095	42.32
303.309	79.19
303.524	15.7
303.738	83.28
303.952	-35.5
304.166	89.43
304.381	-25.26
304.595	64.85
304.809	-15.02
305.023	46.42
305.237	15.7
305.452	30.04
305.666	-0.68
305.88	42.32
306.094	-39.59
306.308	-0.68
306.522	77.14
306.736	-0.68
306.95	3.41
307.164	32.08
307.379	-33.45
307.593	46.42
307.807	17.75
308.021	52.56
308.235	30.04
308.449	-0.68
308.663	21.84
308.877	62.8
309.091	7.51
309.305	103.76
309.519	73.04
309.733	60.76
309.947	44.37
310.161	62.8
310.374	9.56
310.588	60.76
310.802	-19.11
311.016	9.56
311.23	56.66
311.444	15.7
311.658	-0.68
311.872	40.28
312.085	64.85
312.299	52.56
312.513	1.37
312.727	95.57
312.941	42.32
313.154	64.85
313.368	-45.74
313.582	-12.97
313.796	11.61
314.009	142.68
314.223	38.23
314.437	27.99
314.651	38.23
314.864	50.52
315.078	75.09
315.292	-4.78
315.505	34.13
315.719	58.71
315.933	54.61
316.146	-29.35
316.36	30.04
316.573	30.04
316.787	-21.16
317.001	21.84
317.214	-0.68
317.428	79.19
317.641	27.99
317.855	13.65
318.068	44.37
318.282	19.8
318.495	62.8
318.709	107.86
318.922	32.08
319.136	-33.45
319.349	56.66
319.563	-4.78
319.776	3.41
319.99	7.51
320.203	21.84
320.417	19.8
320.63	85.33
320.843	15.7
321.057	62.8
321.27	68.95
321.483	36.18
321.697	58.71
321.91	71
322.124	89.43
322.337	36.18
322.55	-33.45
322.763	-25.26
322.977	54.61
323.19	42.32
323.403	75.09
323.617	1.37
323.83	38.23
324.043	32.08
324.256	-82.6
324.469	-21.16
324.683	38.23
324.896	5.46
325.109	-10.92
325.322	-2.73
325.535	23.89
325.748	58.71
325.962	101.72
326.175	36.18
326.388	-51.88
326.601	5.46
326.814	9.56
327.027	17.75
327.24	62.8
327.453	-17.07
327.666	-8.87
327.879	7.51
328.092	13.65
328.305	9.56
328.518	21.84
328.731	19.8
328.944	101.72
329.157	42.32
329.37	-21.16
329.583	122.2
329.796	21.84
330.009	-31.4
330.222	23.89
330.435	32.08
330.648	7.51
330.861	25.94
331.073	19.8
331.286	75.09
331.499	17.75
331.712	38.23
331.925	107.86
332.138	11.61
332.35	5.46
332.563	27.99
332.776	17.75
332.989	-68.27
333.202	60.76
333.414	27.99
333.627	75.09
333.84	19.8
334.053	34.13
334.265	21.84
334.478	27.99
334.691	44.37
334.903	-15.02
335.116	-27.31
335.329	99.67
335.541	42.32
335.754	13.65
335.966	71
336.179	5.46
336.392	13.65
336.604	93.52
336.817	1.37
337.029	25.94
337.242	-21.16
337.454	13.65
337.667	1.37
337.88	48.47
338.092	48.47
338.305	-10.92
338.517	-4.78
338.729	17.75
338.942	-23.21
339.154	-15.02
339.367	-4.78
339.579	52.56
339.792	48.47
340.004	36.18
340.217	13.65
340.429	77.14
340.641	-29.35
340.854	27.99
341.066	-15.02
341.278	32.08
341.491	91.48
341.703	19.8
341.915	38.23
342.128	7.51
342.34	13.65
342.552	62.8
342.764	36.18
342.977	-25.26
343.189	85.33
343.401	30.04
343.613	15.7
343.826	50.52
344.038	36.18
344.25	34.13
344.462	-27.31
344.674	64.85
344.886	48.47
345.099	1.37
345.311	66.9
345.523	107.86
345.735	7.51
345.947	21.84
346.159	1.37
346.371	34.13
346.583	75.09
346.795	-12.97
347.007	79.19
347.219	83.28
347.431	-21.16
347.643	30.04
347.855	-4.78
348.067	68.95
348.279	73.04
348.491	44.37
348.703	42.32
348.915	-33.45
349.127	40.28
349.339	-4.78
349.551	-21.16
349.763	34.13
349.975	19.8
350.187	36.18
350.399	48.47
350.61	48.47
350.822	15.7
351.034	11.61
351.246	46.42
351.458	19.8
351.669	52.56
351.881	91.48
352.093	42.32
352.305	56.66
352.517	21.84
352.728	68.95
352.94	48.47
353.152	46.42
353.363	50.52
353.575	46.42
353.787	-2.73
353.999	-19.11
354.21	-12.97
354.422	32.08
354.633	38.23
354.845	30.04
355.057	9.56
355.268	-19.11
355.48	38.23
355.692	40.28
355.903	9.56
356.115	99.67
356.326	21.84
356.538	-15.02
356.749	-8.87
356.961	81.24
357.172	9.56
357.384	11.61
357.595	44.37
357.807	5.46
358.018	-45.74
358.23	42.32
358.441	75.09
358.653	-10.92
358.864	-2.73
359.075	64.85
359.287	-15.02
359.498	79.19
359.709	50.52
359.921	11.61
360.132	27.99
360.344	48.47
360.555	54.61
360.766	52.56
360.977	7.51
361.189	81.24
361.4	25.94
361.611	56.66
361.823	120.15
362.034	30.04
362.245	-47.79
362.456	68.95
362.667	56.66
362.879	7.51
363.09	9.56
363.301	15.7
363.512	66.9
363.723	130.39
363.935	19.8
364.146	60.76
364.357	44.37
364.568	64.85
364.779	7.51
364.99	60.76
365.201	30.04
365.412	1.37
365.623	-12.97
365.834	52.56
366.045	17.75
366.256	40.28
366.467	-39.59
366.678	21.84
366.889	17.75
367.1	34.13
367.311	103.76
367.522	52.56
367.733	38.23
367.944	25.94
368.155	56.66
368.366	25.94
368.577	103.76
368.788	-12.97
368.999	13.65
369.209	-15.02
369.42	11.61
369.631	54.61
369.842	85.33
370.053	38.23
370.264	23.89
370.474	42.32
370.685	89.43
370.896	73.04
371.107	99.67
371.317	58.71
371.528	103.76
371.739	42.32
371.95	46.42
372.16	30.04
372.371	40.28
372.582	13.65
372.792	30.04
373.003	19.8
373.214	46.42
373.424	97.62
373.635	-6.83
373.846	5.46
374.056	48.47
374.267	-2.73
374.477	-2.73
374.688	89.43
374.898	73.04
375.109	91.48
375.319	46.42
375.53	1.37
375.74	50.52
375.951	40.28
376.161	44.37
376.372	44.37
376.582	21.84
376.793	75.09
377.003	5.46
377.214	52.56
377.424	54.61
377.635	73.04
377.845	-25.26
378.055	95.57
378.266	25.94
378.476	36.18
378.686	52.56
378.897	71
379.107	42.32
379.317	-15.02
379.528	15.7
379.738	93.52
379.948	-35.5
380.158	62.8
380.369	32.08
380.579	64.85
380.789	52.56
380.999	23.89
381.21	109.91
381.42	36.18
381.63	-0.68
381.84	118.1
382.05	23.89
382.261	34.13
382.471	32.08
382.681	66.9
382.891	19.8
383.101	38.23
383.311	5.46
383.521	32.08
383.731	89.43
383.941	114
384.151	34.13
384.361	60.76
384.571	66.9
384.781	48.47
384.991	71
385.201	56.66
385.411	48.47
385.621	-8.87
385.831	30.04
386.041	32.08
386.251	46.42
386.461	46.42
386.671	15.7
386.881	15.7
387.091	44.37
387.301	87.38
387.511	30.04
387.72	107.86
387.93	9.56
388.14	11.61
388.35	40.28
388.56	54.61
388.769	60.76
388.979	64.85
389.189	44.37
389.399	64.85
389.609	13.65
389.818	64.85
390.028	7.51
390.238	81.24
390.447	-19.11
390.657	107.86
390.867	54.61
391.076	38.23
391.286	34.13
391.496	54.61
391.705	-4.78
391.915	25.94
392.125	87.38
392.334	44.37
392.544	89.43
392.753	17.75
392.963	-12.97
393.172	97.62
393.382	-31.4
393.591	32.08
393.801	54.61
394.01	54.61
394.22	64.85
394.429	93.52
394.639	5.46
394.848	38.23
395.058	30.04
395.267	136.53
395.477	77.14
395.686	62.8
395.895	91.48
396.105	118.1
396.314	114
396.524	50.52
396.733	25.94
396.942	17.75
397.152	71
397.361	1.37
397.57	50.52
397.78	77.14
397.989	79.19
398.198	62.8
398.407	124.24
398.617	81.24
398.826	25.94
399.035	79.19
399.244	50.52
399.453	46.42
399.663	17.75
399.872	64.85
400.081	62.8
400.29	52.56
400.499	89.43
400.708	109.91
400.917	-29.35
401.127	52.56
401.336	77.14
401.545	75.09
401.754	101.72
401.963	87.38
402.172	77.14
402.381	83.28
402.59	134.48
402.799	81.24
403.008	101.72
403.217	152.91
403.426	118.1
403.635	66.9
403.844	109.91
404.053	91.48
404.262	140.63
404.471	122.2
404.68	95.57
404.888	118.1
405.097	107.86
405.306	81.24
405.515	109.91
405.724	103.76
405.933	91.48
406.142	128.34
406.35	118.1
406.559	122.2
406.768	140.63
406.977	93.52
407.185	73.04
407.394	120.15
407.603	183.63
407.812	181.59
408.02	132.44
408.229	210.26
408.438	181.59
408.646	111.96
408.855	122.2
409.064	189.78
409.272	214.35
409.481	214.35
409.69	200.02
409.898	218.45
410.107	255.31
410.315	255.31
410.524	247.12
410.733	290.13
410.941	316.75
411.15	304.46
411.358	210.26
411.567	290.13
411.775	222.55
411.984	320.85
412.192	359.76
412.401	267.6
412.609	320.85
412.818	277.84
413.026	333.14
413.234	318.8
413.443	415.05
413.651	333.14
413.86	402.77
414.068	361.81
414.276	429.39
414.485	437.58
414.693	425.29
414.901	494.93
415.11	435.53
415.318	445.77
415.526	458.06
415.734	533.84
415.943	615.76
416.151	505.17
416.359	503.12
416.567	566.6
416.776	494.93
416.984	621.9
417.192	621.9
417.4	611.66
417.608	589.13
417.817	761.16
418.025	671.05
418.233	720.2
418.441	671.05
418.649	767.31
418.857	820.55
419.065	816.46
419.273	929.1
419.481	902.47
419.689	925
419.897	970.05
420.105	953.67
420.313	886.09
420.521	953.67
420.729	1006.92
420.937	1105.22
421.145	1170.76
421.353	1197.38
421.561	1228.1
421.769	1199.43
421.977	1293.63
422.185	1291.59
422.393	1252.67
422.601	1383.74
422.809	1445.18
423.017	1393.98
423.224	1471.81
423.432	1525.05
423.64	1668.41
423.848	1735.99
424.056	1594.68
424.263	1803.58
424.471	1727.8
424.679	1819.96
424.887	2004.28
425.094	1914.17
425.302	1961.27
425.51	2008.37
425.718	2155.83
425.925	2184.5
426.133	2174.26
426.341	2442.54
426.548	2495.79
426.756	2489.65
426.964	2542.89
427.171	2655.53
427.379	2733.36
427.586	2723.12
427.794	2911.53
428.001	2946.34
428.209	3081.51
428.417	3099.94
428.624	3202.34
428.832	3265.83
429.039	3126.57
429.247	3181.86
429.454	3622.17
429.662	3861.79
429.869	3611.93
430.076	3824.92
430.284	3808.54
430.491	3775.77
430.699	4121.88
430.906	4097.3
431.114	4085.01
431.321	4322.58
431.528	4328.72
431.736	4592.91
431.943	4777.23
432.15	4646.16
432.358	4758.8
432.565	4885.77
432.772	4908.3
432.979	5289.22
433.187	5385.48
433.394	5373.19
433.601	5709.05
433.808	5610.75
434.016	5735.68
434.223	5938.43
434.43	6288.63
434.637	6247.67
434.844	6561.01
435.052	6618.35
435.259	6751.47
435.466	6589.68
435.673	6761.71
435.88	7087.34
436.087	7455.97
436.294	7353.57
436.501	7251.17
436.708	7636.19
436.915	7652.58
437.122	8033.5
437.329	7986.4
437.537	8439
437.743	8318.17
437.95	8129.75
438.157	8854.73
438.364	9100.49
438.571	8977.61
438.778	9233.61
438.985	9974.97
439.192	9549
439.399	9913.53
439.606	9583.81
439.813	10093.76
440.02	10642.61
440.227	10519.73
440.433	10489.01
440.64	10751.15
440.847	10661.04
441.054	11087.02
441.261	11668.64
441.467	11543.72
441.674	11844.77
441.881	12149.92
442.088	12063.9
442.294	12207.26
442.501	12536.98
442.708	12639.38
442.914	13137.04
443.121	13542.53
443.328	13474.95
443.534	14300.28
443.741	13892.74
443.948	13601.93
444.154	14746.74
444.361	14697.59
444.568	14763.12
444.774	14898.29
444.981	14873.71
445.187	15348.84
445.394	15975.52
445.6	15680.61
445.807	17466.44
446.013	16524.38
446.22	17232.97
446.426	17480.78
446.633	17493.07
446.839	18523.19
447.046	17448.01
447.252	18631.74
447.459	18500.67
447.665	18523.19
447.871	19352.62
448.078	20157.47
448.284	19063.86
448.491	19848.23
448.697	20323.36
448.903	20536.35
449.11	20950.04
449.316	20616.22
449.522	20681.75
449.728	21242.9
449.935	21507.09
450.141	21404.69
450.347	22072.32
450.553	21380.11
450.76	21447.69
450.966	21941.25
451.172	21767.18
451.378	22238.21
451.584	21916.68
451.791	22678.52
451.997	22416.38
452.203	22858.74
452.409	22723.58
452.615	22705.15
452.821	21869.58
453.027	21711.88
453.233	22772.73
453.44	21541.9
453.646	22057.99
453.852	21974.02
454.058	22580.22
454.264	21564.43
454.47	22307.84
454.676	21593.1
454.882	22457.34
455.088	20374.56
455.294	20806.68
455.5	20923.41
455.705	21296.14
455.911	20143.14
456.117	19913.77
456.323	19506.22
456.529	18805.81
456.735	19303.47
456.941	18926.64
457.147	18517.05
457.352	17704.01
457.558	17679.43
457.764	18072.64
457.97	17405
458.176	17075.28
458.381	17269.84
458.587	16432.22
458.793	16307.29
458.999	15318.12
459.204	16401.5
459.41	15932.51
459.616	15068.27
459.821	14988.4
460.027	15000.69
460.233	14599.29
460.438	14097.53
460.644	14064.77
460.85	13341.83
461.055	13018.25
461.261	13216.91
461.466	12111
461.672	11881.63
461.878	12590.23
462.083	11861.15
462.289	11707.55
462.494	11513
462.7	10966.19
462.905	10806.45
463.111	11281.58
463.316	11123.88
463.522	10935.47
463.727	10996.91
463.932	10771.63
464.138	10898.61
464.343	11068.59
464.549	10441.91
464.754	10814.64
464.959	10804.4
465.165	10611.89
465.37	10198.2
465.575	9993.4
465.781	10378.42
465.986	10548.4
466.191	9819.33
466.397	10024.12
466.602	9354.44
466.807	9741.5
467.012	10003.64
467.218	9721.02
467.423	9665.73
467.628	9776.32
467.833	9977.02
468.038	9632.96
468.244	9544.9
468.449	9981.12
468.654	9549
468.859	9407.69
469.064	9473.22
469.269	9127.11
469.474	8979.66
469.679	9358.53
469.885	8924.37
470.09	9108.68
470.295	9000.14
470.5	9006.28
470.705	9032.91
470.91	8848.59
471.115	8568.02
471.32	8740.05
471.525	8606.93
471.73	8467.67
471.935	8498.39
472.139	8361.17
472.344	8187.1
472.549	8322.26
472.754	7951.58
472.959	7847.13
473.164	7761.12
473.369	7828.7
473.574	7988.44
473.778	7830.75
473.983	7720.16
474.188	7728.35
474.393	7322.85
474.598	7425.25
474.802	7292.13
475.007	7228.65
475.212	7429.35
475.417	7013.61
475.621	6989.03
475.826	7021.8
476.031	6970.6
476.235	6599.92
476.44	6993.13
476.645	6845.68
476.849	6909.16
477.054	6591.73
477.259	6450.42
477.463	6520.05
477.668	6409.46
477.872	6491.38
478.077	6352.12
478.282	6210.81
478.486	6288.63
478.691	6210.81
478.895	6081.78
479.1	6057.21
479.304	6124.79
479.509	5799.16
479.713	5967.1
479.918	5760.25
480.122	5821.69
480.326	5848.32
480.531	5870.84
480.735	5803.26
480.94	5864.7
481.144	5979.39
481.348	5768.45
481.553	5811.45
481.757	5514.5
481.961	5922.04
482.166	5778.69
482.37	5745.92
482.574	5645.57
482.778	5508.35
482.983	5928.19
483.187	5643.52
483.391	5858.56
483.595	5602.56
483.8	5606.66
484.004	5846.27
484.208	5770.49
484.412	5752.06
484.616	5788.93
484.821	5872.89
485.025	5465.35
485.229	5747.97
485.433	5684.48
485.637	5766.4
485.841	5737.73
486.045	5551.36
486.249	5702.91
486.453	5522.69
486.657	5694.72
486.861	5641.47
487.065	5436.67
487.269	5680.38
487.473	5623.04
487.677	5731.58
487.881	5586.18
488.085	5758.21
488.289	5752.06
488.493	5721.34
488.697	5758.21
488.901	5743.87
489.105	5737.73
489.309	5870.84
489.512	5774.59
489.716	5709.05
489.92	5760.25
490.124	5661.95
490.328	5836.03
490.531	5854.46
490.735	5797.12
490.939	5864.7
491.143	5848.32
491.346	5903.61
491.55	6081.78
491.754	5776.64
491.958	6089.98
492.161	5958.91
492.365	6018.3
492.569	6098.17
492.772	5885.18
492.976	6198.52
493.18	6051.06
493.383	6231.29
493.587	6350.07
493.79	6257.91
493.994	6348.02
494.197	6300.92
494.401	6397.17
494.605	6438.13
494.808	6450.42
495.012	6391.03
495.215	6581.49
495.419	6669.55
495.622	6626.54
495.825	6763.76
496.029	6802.67
496.232	6855.92
496.436	6796.53
496.639	7013.61
496.843	6880.49
497.046	7097.58
497.249	7376.1
497.453	7480.55
497.656	7298.28
497.859	7402.72
498.063	7415.01
498.266	7593.19
498.469	7687.39
498.673	7687.39
498.876	7757.02
499.079	7904.48
499.282	7957.72
499.485	8164.57
499.689	8221.91
499.892	8258.78
500.095	8117.47
500.298	8443.09
500.501	8441.04
500.705	8570.07
500.908	8725.71
501.111	8813.77
501.314	9016.52
501.517	8985.8
501.72	9211.08
501.923	9209.03
502.126	9256.14
502.329	9444.55
502.532	9514.18
502.735	9667.78
502.938	9821.38
503.141	9882.81
503.344	9950.4
503.547	9968.83
503.75	10085.56
503.953	10284.22
504.156	10534.07
504.359	10560.69
504.562	10615.99
504.765	10892.46
504.968	10878.13
505.17	11273.39
505.373	11277.48
505.576	11601.06
505.779	11443.37
505.982	11701.41
506.185	11949.22
506.387	11906.21
506.59	11977.89
506.793	12328.09
506.996	12188.83
507.198	12694.68
507.401	12397.72
507.604	12502.17
507.807	13028.49
508.009	13112.46
508.212	13149.32
508.415	13315.21
508.617	13606.02
508.82	13642.89
509.022	13800.58
509.225	14003.33
509.428	14083.2
509.63	14040.19
509.833	14255.23
510.035	14736.5
510.238	14578.81
510.44	14943.35
510.643	15117.42
510.845	15381.61
511.048	15225.97
511.25	15735.91
511.453	15797.35
511.655	16170.08
511.858	16086.11
512.06	16135.26
512.262	16098.4
512.465	16714.84
512.667	16761.94
512.87	17065.04
513.072	17108.05
513.274	17636.42
513.477	17695.82
513.679	17683.53
513.881	17714.25
514.084	18238.53
514.286	18041.92
514.488	18510.91
514.69	18924.6
514.893	19274.8
515.095	19102.77
515.297	19289.13
515.499	19422.25
515.701	19844.13
515.904	19870.76
516.106	20298.78
516.308	20483.1
516.51	20573.21
516.712	20876.31
516.914	20933.65
517.116	21580.81
517.318	21308.43
517.52	21740.55
517.722	21722.12
517.925	22170.63
518.127	22453.25
518.329	22604.8
518.531	22555.65
518.733	22797.31
518.935	23239.67
519.136	23301.11
519.338	24083.43
519.54	24067.05
519.742	24243.17
519.944	24183.78
520.146	24394.72
520.348	24779.74
520.55	24794.07
520.752	25131.99
520.954	25410.51
521.155	25213.91
521.357	26082.25
521.559	26221.51
521.761	26452.93
521.963	26285
522.164	26696.64
522.366	26774.46
522.568	27311.03
522.77	27298.74
522.971	27788.21
523.173	27503.54
523.375	27601.84
523.576	27685.81
523.778	28113.83
523.98	28574.63
524.181	28658.59
524.383	28910.49
524.584	28875.68
524.786	29215.64
524.988	29076.38
525.189	29485.97
525.391	29506.45
525.592	29604.75
525.794	29737.87
525.995	30043.02
526.197	30231.43
526.398	30309.25
526.6	30307.21
526.801	30612.35
527.003	30929.79
527.204	30890.88
527.406	31126.39
527.607	30925.69
527.808	31058.81
528.01	31179.64
528.211	31157.11
528.412	31708.02
528.614	31826.8
528.815	31497.08
529.016	32088.94
529.218	31755.12
529.419	31918.96
529.62	32418.66
529.822	31900.53
530.023	32240.49
530.224	31998.83
530.425	32017.26
530.626	31955.82
530.828	32258.92
531.029	32615.27
531.23	32230.25
531.431	32207.72
531.632	32758.63
531.833	32375.66
532.035	32684.9
532.236	32611.17
532.437	32854.88
532.638	32772.96
532.839	32906.08
533.04	33071.96
533.241	32600.93
533.442	33260.38
533.643	33438.55
533.844	33229.66
534.045	33067.87
534.246	32840.54
534.447	33332.06
534.648	32779.11
534.849	33487.7
535.05	33063.77
535.251	33231.71
535.451	33147.74
535.652	33594.2
535.853	33086.3
536.054	33301.34
536.255	33207.13
536.456	33325.91
536.657	33712.98
536.857	33090.4
537.058	33127.26
537.259	33747.79
537.46	33401.69
537.66	33391.45
537.861	33624.92
538.062	33264.47
538.263	33524.57
538.463	33299.29
538.664	33434.46
538.865	33377.11
539.065	33508.18
539.266	33020.77
539.466	33422.17
539.667	33020.77
539.868	33864.53
540.068	33305.43
540.269	33270.62
540.469	33567.57
540.67	33102.68
540.87	33772.37
541.071	33387.35
541.271	33930.06
541.472	33301.34
541.672	33274.71
541.873	33518.42
542.073	32791.39
542.274	33413.98
542.474	33102.68
542.675	33000.29
542.875	33901.39
543.075	33295.19
543.276	33162.08
543.476	33495.89
543.676	33008.48
543.877	33473.37
544.077	33178.46
544.277	33280.86
544.478	33112.92
544.678	33733.46
544.878	33481.56
545.078	33309.53
545.279	33252.19
545.479	33016.67
545.679	33745.75
545.879	33459.03
546.079	33301.34
546.28	33416.02
546.48	33061.72
546.68	33710.93
546.88	33289.05
547.08	33502.04
547.28	33229.66
547.48	33186.65
547.68	33381.21
547.88	32961.37
548.081	33407.83
548.281	33037.15
548.481	32691.04
548.681	33413.98
548.881	33297.24
549.081	33170.27
549.28	33084.25
549.48	33489.75
549.68	33342.3
549.88	33784.66
550.08	32955.23
550.28	32922.46
550.48	33014.62
550.68	33631.06
550.88	33291.1
551.08	33350.49
551.279	33180.51
551.479	33102.68
551.679	33047.39
551.879	33157.98
552.079	33227.61
552.278	33074.01
552.478	33203.03
552.678	33254.23
552.878	33211.23
553.077	33143.64
553.277	32463.72
553.477	33594.2
553.676	33114.97
553.876	32848.74
554.076	33026.91
554.275	32633.7
554.475	32578.4
554.674	32834.4
554.874	33284.95
555.074	32656.23
555.273	33119.07
555.473	33260.38
555.672	32701.28
555.872	32680.8
556.071	32809.82
556.271	32727.91
556.47	32732
556.67	32775.01
556.869	32220.01
557.068	32883.55
557.268	32514.92
557.467	32299.88
557.667	32367.46
557.866	32418.66
558.065	32082.8
558.265	32107.37
558.464	32009.07
558.663	32361.32
558.863	32230.25
559.062	32121.71
559.261	31699.83
559.461	32242.54
559.66	31660.91
559.859	31720.31
560.058	31841.14
560.258	31753.07
560.457	31492.98
560.656	31902.57
560.855	31753.07
561.054	31693.68
561.253	31296.38
561.453	31734.64
561.652	31699.83
561.851	31589.24
562.05	31249.27
562.249	31300.47
562.448	31382.39
562.647	31142.78
562.846	31288.18
563.045	31409.01
563.244	31087.48
563.443	31236.98
563.642	30655.36
563.841	30825.34
564.04	30829.44
564.239	31042.43
564.438	30757.76
564.637	30864.25
564.836	30589.83
565.035	30659.46
565.234	30698.37
565.432	30344.07
565.631	30210.95
565.83	30579.59
566.029	30385.03
566.228	30219.14
566.427	30063.5
566.625	29658
566.824	29873.04
567.023	30249.86
567.222	29522.83
567.42	29973.39
567.619	29909.9
567.818	29713.3
568.016	29354.9
568.215	30120.84
568.414	29385.62
568.612	29672.34
568.811	29342.61
569.01	29174.68
569.208	28504.99
569.407	29244.31
569.605	28900.25
569.804	29240.22
570.002	28603.3
570.201	29162.39
570.4	28433.32
570.598	28943.26
570.797	28326.82
570.995	28457.89
571.193	27978.67
571.392	28535.71
571.59	28279.72
571.789	28150.7
571.987	28101.54
572.186	28013.48
572.384	27894.7
572.582	28040.11
572.781	27945.9
572.979	27282.36
573.177	27876.27
573.376	27857.84
573.574	27247.54
573.772	27743.15
573.971	27108.28
574.169	27319.22
574.367	27028.41
574.565	27044.79
574.763	26946.49
574.962	26913.72
575.16	26350.53
575.358	26803.13
575.556	26514.37
575.754	26809.28
575.952	26565.57
576.151	26872.76
576.349	26203.08
576.547	26256.32
576.745	25990.09
576.943	26233.8
577.141	25852.87
577.339	25975.75
577.537	25953.23
577.735	25584.59
577.933	25693.13
578.131	25826.25
578.329	25476.05
578.527	25222.1
578.725	25183.19
578.923	25445.33
579.121	25177.05
579.319	25199.57
579.516	25306.07
579.714	25603.02
579.912	25064.41
580.11	25013.21
580.308	24947.67
580.506	24798.17
580.704	24370.15
580.901	24701.92
581.099	24919
581.297	24597.47
581.495	24558.56
581.692	24331.23
581.89	24384.48
582.088	24423.39
582.285	24288.23
582.483	24378.34
582.681	24044.52
582.878	24132.58
583.076	23565.29
583.274	23868.39
583.471	23712.75
583.669	23634.92
583.866	23522.29
584.064	23655.4
584.262	23325.68
584.459	23755.75
584.657	23258.1
584.854	23534.57
585.052	22760.44
585.249	23016.44
585.447	23100.4
585.644	23028.73
585.841	22952.95
586.039	23067.64
586.236	22619.13
586.434	22447.1
586.631	22531.07
586.828	22705.15
587.026	22371.33
587.223	22463.49
587.42	22412.29
587.618	22203.39
587.815	22416.38
588.012	22215.68
588.21	22000.65
588.407	22350.85
588.604	21892.1
588.801	21718.03
588.999	21890.06
589.196	21824.52
589.393	21812.23
589.59	21699.59
589.787	21662.73
589.984	21396.49
590.182	21433.36
590.379	21621.77
590.576	21388.3
590.773	21539.85
590.97	21179.41
591.167	21320.72
591.364	20917.27
591.561	21058.58
591.758	20935.7
591.955	20816.92
592.152	20857.88
592.349	20597.79
592.546	20728.86
592.743	20575.26
592.94	20501.53
593.137	21103.64
593.334	20640.79
593.531	20266.02
593.727	20517.92
593.924	20392.99
594.121	20153.38
594.318	20124.71
594.515	19731.5
594.712	20059.17
594.908	19778.6
595.105	20116.51
595.302	19633.19
595.499	19788.84
595.696	19606.57
595.892	19731.5
596.089	19680.3
596.286	19801.13
596.482	19629.1
596.679	19606.57
596.876	19479.6
597.072	19274.8
597.269	19532.84
597.466	19102.77
597.662	19168.3
597.859	19108.91
598.055	19256.37
598.252	18949.17
598.448	19061.81
598.645	18928.69
598.841	18865.21
599.038	18869.3
599.234	18762.81
599.431	18562.11
599.627	18611.26
599.824	18652.22
600.02	18486.33
600.217	18469.95
600.413	18433.08
600.609	18244.67
600.806	18357.31
601.002	18109.5
601.198	18103.36
601.395	18250.81
601.591	18099.27
601.787	18039.87
601.984	18072.64
602.18	18123.84
602.376	17714.25
602.572	17751.11
602.769	17919.04
602.965	17798.21
603.161	17720.39
603.357	17501.26
603.553	17800.26
603.75	17364.04
603.946	17103.95
604.142	17370.19
604.338	17294.41
604.534	17275.98
604.73	16886.87
604.926	16890.96
605.122	17239.12
605.318	16983.12
605.514	17089.62
605.71	16782.42
605.906	16952.4
606.102	16788.57
606.298	16878.68
606.494	16700.5
606.69	16772.18
606.886	16772.18
607.082	16591.96
607.278	16802.9
607.474	16413.79
607.67	16567.38
607.866	16125.02
608.062	16493.66
608.257	16426.07
608.453	16172.13
608.649	16174.17
608.845	15895.65
609.041	15981.67
609.236	16108.64
609.432	16000.1
609.628	16069.73
609.824	15895.65
610.019	15881.31
610.215	15883.36
610.411	15719.53
610.606	15842.4
610.802	15658.09
610.998	15885.41
611.193	15713.38
611.389	15606.89
611.584	15510.63
611.78	15727.72
611.976	15801.44
612.171	15455.34
612.367	15352.94
612.562	15328.36
612.758	15250.54
612.953	14898.29
613.149	15332.46
613.344	14982.26
613.539	15318.12
613.735	15051.89
613.93	15117.42
614.126	15221.87
614.321	15096.94
614.517	14875.76
614.712	15019.12
614.907	14883.95
615.103	14877.81
615.298	14771.32
615.493	15019.12
615.688	14576.76
615.884	14783.6
616.079	14603.38
616.274	14531.7
616.47	14541.94
616.665	14466.17
616.86	14546.04
617.055	14603.38
617.25	14433.4
617.445	14572.66
617.641	13974.66
617.836	14234.75
618.031	14206.08
618.226	14511.22
618.421	14101.63
618.616	14077.05
618.811	13974.66
619.006	14249.08
619.201	13710.47
619.396	13864.07
619.591	13628.55
619.786	14027.9
619.981	13771.91
620.176	13558.92
620.371	13425.8
620.566	13589.64
620.761	13360.27
620.956	13444.23
621.151	13327.5
621.346	13223.05
621.541	12991.63
621.735	13282.44
621.93	13005.97
622.125	13018.25
622.32	12936.34
622.515	12821.65
622.709	12729.49
622.904	12717.2
623.099	12680.34
623.294	12661.91
623.488	12520.6
623.683	12510.36
623.878	12471.45
624.072	12332.19
624.267	12350.62
624.462	12106.91
624.656	12141.72
624.851	12260.51
625.046	11961.5
625.24	12074.14
625.435	11859.1
625.629	11680.93
625.824	11678.88
626.018	11666.6
626.213	11533.48
626.407	11650.21
626.602	11408.55
626.796	11492.52
626.991	11556
627.185	11324.58
627.38	11203.75
627.574	11203.75
627.768	10847.41
627.963	11097.26
628.157	10835.12
628.352	11328.68
628.546	10697.91
628.74	10919.09
628.935	10695.86
629.129	10804.4
629.323	10454.2
629.517	10585.27
629.712	10351.8
629.906	10572.98
630.1	10390.71
630.294	10263.74
630.489	10282.17
630.683	10396.85
630.877	9907.39
631.071	10050.75
631.265	10173.63
631.459	9934.01
631.653	9993.4
631.848	9852.09
632.042	10005.69
632.236	10048.7
632.43	9954.49
632.624	9882.81
632.818	9835.71
633.012	9487.56
633.206	9561.28
633.4	9747.65
633.594	9307.34
633.788	9438.41
633.982	9403.59
634.176	9336.01
634.369	9145.55
634.563	9192.65
634.757	9180.36
634.951	9239.75
635.145	9217.22
635.339	9045.2
635.533	8942.8
635.726	9082.06
635.92	8852.69
636.114	8973.52
636.308	8897.74
636.501	8910.03
636.695	8666.32
636.889	8416.47
637.083	8793.3
637.276	8537.3
637.47	8387.8
637.664	8506.58
637.857	8414.42
638.051	8504.53
638.244	8326.36
638.438	8213.72
638.632	8056.03
638.825	8189.14
639.019	8271.06
639.212	8131.8
639.406	8082.65
639.599	8025.31
639.793	7924.96
639.986	7843.04
640.18	7953.63
640.373	7767.26
640.567	7783.65
640.76	7775.45
640.954	7707.87
641.147	7548.13
641.34	7603.43
641.534	7529.7
641.727	7576.8
641.92	7462.12
642.114	7431.4
642.307	7378.15
642.5	7245.03
642.694	7320.81
642.887	7273.7
643.08	7384.29
643.273	6935.79
643.467	7068.91
643.66	6943.98
643.853	7097.58
644.046	6896.88
644.239	6958.32
644.432	6864.11
644.626	6819.05
644.819	6982.89
645.012	6839.53
645.205	6804.72
645.398	6755.57
645.591	6819.05
645.784	6733.04
645.977	6595.82
646.17	6534.39
646.363	6393.08
646.556	6610.16
646.749	6610.16
646.942	6520.05
647.135	6497.52
647.328	6331.64
647.521	6259.96
647.714	6395.12
647.907	6169.85
648.099	6112.5
648.292	6081.78
648.485	6196.47
648.678	6012.15
648.871	6055.16
649.064	5967.1
649.256	5901.56
649.449	5915.9
649.642	5879.04
649.835	5580.03
650.027	5784.83
650.22	5686.53
650.413	5543.17
650.605	5797.12
650.798	5543.17
650.991	5590.27
651.183	5772.54
651.376	5590.27
651.568	5602.56
651.761	5498.11
651.954	5375.24
652.146	5410.05
652.339	5389.57
652.531	5375.24
652.724	5365
652.916	5311.75
653.109	5360.9
653.301	5395.72
653.494	5238.02
653.686	5176.58
653.879	5125.38
654.071	5330.18
654.263	5065.99
654.456	5166.34
654.648	5055.75
654.84	4971.79
655.033	4926.73
655.225	4871.43
655.417	4893.96
655.61	4934.92
655.802	5022.98
655.994	4875.53
656.186	4922.63
656.379	4760.84
656.571	4777.23
656.763	4853
656.955	4703.5
657.148	4719.89
657.34	4586.77
657.532	4377.87
657.724	4568.34
657.916	4588.82
658.108	4566.29
658.3	4502.8
658.492	4515.09
658.684	4510.99
658.876	4490.51
659.068	4463.89
659.26	4310.29
659.452	4328.72
659.644	4361.49
659.836	4224.28
660.028	4220.18
660.22	4207.89
660.412	4259.09
660.604	4095.25
660.796	4144.41
660.988	4211.99
661.18	4152.6
661.372	4011.29
661.563	4224.28
661.755	4113.69
661.947	3964.18
662.139	3955.99
662.331	3992.86
662.522	3976.47
662.714	3861.79
662.906	3843.35
663.097	3837.21
663.289	3779.87
663.481	3767.58
663.673	3675.42
663.864	3804.44
664.056	3720.48
664.247	3767.58
664.439	3753.24
664.631	3654.94
664.822	3820.83
665.014	3601.69
665.205	3628.32
665.397	3476.77
665.588	3679.52
665.78	3665.18
665.971	3525.92
666.163	3566.88
666.354	3558.69
666.546	3439.9
666.737	3380.51
666.929	3368.23
667.12	3487.01
667.311	3413.28
667.503	3581.21
667.694	3423.52
667.885	3245.35
668.077	3253.54
668.268	3360.03
668.459	3357.99
668.651	3349.79
668.842	3321.12
669.033	3210.53
669.224	3286.31
669.416	3280.16
669.607	3269.92
669.798	3226.92
669.989	3237.16
670.18	3063.08
670.371	3198.24
670.563	3161.38
670.754	3294.5
670.945	3108.13
671.136	3032.36
671.327	2960.68
671.518	3099.94
671.709	3044.65
671.9	3048.74
672.091	2913.58
672.282	3009.83
672.473	3044.65
672.664	2975.02
672.855	2964.78
673.046	2997.54
673.237	2936.1
673.428	3022.12
673.619	3015.98
673.809	2977.06
674	2856.23
674.191	2958.63
674.382	2886.95
674.573	2710.83
674.764	2868.52
674.954	2868.52
675.145	2708.78
675.336	2792.75
675.527	2833.71
675.717	2882.86
675.908	2770.22
676.099	2696.49
676.289	2817.32
676.48	2870.57
676.671	2741.55
676.861	2696.49
677.052	2682.16
677.243	2678.06
677.433	2743.6
677.624	2755.88
677.814	2616.62
678.005	2735.4
678.195	2600.24
678.386	2645.29
678.576	2651.44
678.767	2645.29
678.957	2647.34
679.148	2749.74
679.338	2741.55
679.529	2602.29
679.719	2651.44
679.909	2749.74
680.1	2546.99
680.29	2651.44
680.481	2647.34
680.671	2522.41
680.861	2563.37
681.052	2575.66
681.242	2546.99
681.432	2477.36
681.622	2551.09
681.813	2538.8
682.003	2651.44
682.193	2602.29
682.383	2592.05
682.573	2532.65
682.764	2493.74
682.954	2553.13
683.144	2590
683.334	2579.76
683.524	2512.17
683.714	2503.98
683.904	2434.35
684.094	2444.59
684.284	2399.54
684.474	2565.42
684.664	2354.48
684.854	2395.44
685.044	2506.03
685.234	2405.68
685.424	2356.53
685.614	2409.78
685.804	2385.2
685.994	2501.94
686.184	2442.54
686.374	2516.27
686.564	2295.09
686.753	2508.08
686.943	2471.22
687.133	2465.07
687.323	2391.34
687.513	2479.41
687.702	2407.73
687.892	2403.63
688.082	2280.75
688.272	2391.34
688.461	2301.23
688.651	2434.35
688.841	2383.15
689.03	2274.61
689.22	2428.21
689.41	2389.3
689.599	2239.8
689.789	2241.84
689.979	2362.67
690.168	2303.28
690.358	2245.94
690.547	2319.67
690.737	2401.58
690.926	2284.85
691.116	2247.99
691.305	2356.53
691.495	2295.09
691.684	2299.19
691.874	2327.86
692.063	2311.47
692.252	2377.01
692.442	2192.69
692.631	2354.48
692.82	2243.89
693.01	2338.1
693.199	2342.19
693.388	2280.75
693.578	2399.54
693.767	2336.05
693.956	2241.84
694.146	2235.7
694.335	2286.9
694.524	2338.1
694.713	2207.03
694.902	2317.62
695.092	2280.75
695.281	2325.81
695.47	2381.1
695.659	2305.33
695.848	2295.09
696.037	2272.56
696.226	2200.88
696.415	2260.27
696.604	2301.23
696.793	2262.32
696.982	2241.84
697.171	2338.1
697.36	2368.82
697.549	2186.55
697.738	2241.84
697.927	2346.29
698.116	2172.21
698.305	2323.76
698.494	2202.93
698.683	2305.33
698.872	2264.37
699.061	2270.51
699.25	2313.52
699.438	2268.47
699.627	2305.33
699.816	2221.36
700.005	2260.27
700.193	2243.89
700.382	2409.78
700.571	2227.51
700.76	2301.23
700.948	2219.32
701.137	2221.36
701.326	2391.34
701.514	2272.56
701.703	2182.45
701.892	2364.72
702.08	2245.94
702.269	2245.94
702.457	2327.86
702.646	2352.43
702.834	2241.84
703.023	2168.12
703.212	2143.54
703.4	2235.7
703.589	2235.7
703.777	2270.51
703.965	2086.2
704.154	2282.8
704.342	2192.69
704.531	2260.27
704.719	2139.44
704.907	2170.16
705.096	2172.21
705.284	2174.26
705.472	2290.99
705.661	2051.38
705.849	2151.73
706.037	2067.77
706.226	2092.34
706.414	2315.57
706.602	2104.63
706.79	2188.6
706.979	2170.16
707.167	2125.11
707.355	2094.39
707.543	2131.25
707.731	2170.16
707.919	2151.73
708.107	2172.21
708.296	1971.51
708.484	2102.58
708.672	2018.61
708.86	2063.67
709.048	2133.3
709.236	2153.78
709.424	2100.53
709.612	2030.9
709.8	2084.15
709.988	2008.37
710.176	2047.29
710.364	2047.29
710.551	2020.66
710.739	2049.33
710.927	2020.66
711.115	2041.14
711.303	2047.29
711.491	1996.09
711.679	2018.61
711.866	2008.37
712.054	2102.58
712.242	1957.18
712.43	2123.06
712.617	2032.95
712.805	1969.46
712.993	1975.61
713.181	2043.19
713.368	1920.31
713.556	1955.13
713.744	1873.21
713.931	1961.27
714.119	1893.69
714.306	1985.85
714.494	1944.89
714.682	1879.35
714.869	1918.26
715.057	1834.3
715.244	1895.74
715.432	1875.26
715.619	1895.74
715.807	1695.04
715.994	1889.59
716.182	1815.87
716.369	1942.84
716.556	1969.46
716.744	1803.58
716.931	1727.8
717.119	1865.02
717.306	1865.02
717.493	1842.49
717.681	1881.4
717.868	1828.15
718.055	1822.01
718.242	1789.24
718.43	1772.86
718.617	1787.19
718.804	1822.01
718.991	1631.55
719.179	1801.53
719.366	1733.95
719.553	1744.19
719.74	1709.37
719.927	1690.94
720.114	1762.62
720.301	1705.28
720.488	1701.18
720.676	1688.89
720.863	1705.28
721.05	1768.76
721.237	1670.46
721.424	1559.87
721.611	1643.84
721.798	1699.13
721.985	1692.99
722.172	1559.87
722.358	1580.35
722.545	1600.83
722.732	1615.16
722.919	1629.5
723.106	1676.6
723.293	1662.27
723.48	1654.08
723.667	1588.54
723.853	1715.52
724.04	1631.55
724.227	1543.49
724.414	1488.19
724.6	1492.29
724.787	1598.78
724.974	1633.6
725.161	1576.25
725.347	1512.77
725.534	1572.16
725.72	1537.34
725.907	1459.52
726.094	1580.35
726.28	1469.76
726.467	1590.59
726.653	1492.29
726.84	1559.87
727.027	1574.21
727.213	1555.77
727.4	1635.64
727.586	1506.62
727.773	1541.44
727.959	1439.04
728.145	1510.72
728.332	1496.38
728.518	1553.73
728.705	1492.29
728.891	1434.94
729.077	1422.66
729.264	1557.82
729.45	1451.33
729.636	1436.99
729.823	1404.22
730.009	1490.24
730.195	1539.39
730.382	1447.23
730.568	1506.62
730.754	1492.29
730.94	1469.76
731.126	1406.27
731.313	1412.42
731.499	1473.85
731.685	1502.53
731.871	1402.18
732.057	1371.46
732.243	1410.37
732.429	1363.26
732.615	1414.46
732.801	1398.08
732.987	1373.5
733.173	1400.13
733.359	1348.93
733.545	1353.02
733.731	1400.13
733.917	1387.84
734.103	1389.89
734.289	1336.64
734.475	1369.41
734.661	1418.56
734.847	1334.59
735.033	1371.46
735.219	1316.16
735.404	1312.07
735.59	1387.84
735.776	1330.5
735.962	1295.68
736.148	1332.54
736.333	1426.75
736.519	1385.79
736.705	1293.63
736.89	1312.07
737.076	1355.07
737.262	1314.11
737.447	1340.74
737.633	1254.72
737.819	1269.06
738.004	1316.16
738.19	1246.53
738.375	1244.48
738.561	1256.77
738.747	1305.92
738.932	1203.52
739.118	1287.49
739.303	1334.59
739.489	1301.83
739.674	1240.39
739.859	1170.76
740.045	1262.91
740.23	1240.39
740.416	1293.63
740.601	1224
740.786	1277.25
740.972	1060.17
741.157	1115.46
741.342	1226.05
741.528	1248.58
741.713	1137.99
741.898	1232.19
742.084	1176.9
742.269	1133.89
742.454	1094.98
742.639	1199.43
742.824	1109.32
743.01	1115.46
743.195	1174.85
743.38	1117.51
743.565	1197.38
743.75	1072.45
743.935	1158.47
744.12	1152.32
744.305	1181
744.49	1172.8
744.675	1150.28
744.86	1152.32
745.045	1092.93
745.23	1119.56
745.415	1094.98
745.6	1097.03
745.785	1088.84
745.97	1164.61
746.155	1037.64
746.34	1045.83
746.525	1146.18
746.71	1037.64
746.895	1043.78
747.079	963.91
747.264	1109.32
747.449	1049.93
747.634	959.81
747.819	1047.88
748.003	1051.97
748.188	1031.49
748.373	920.9
748.557	974.15
748.742	1029.45
748.927	929.1
749.111	900.42
749.296	1011.01
749.481	867.66
749.665	951.62
749.85	949.57
750.034	1004.87
750.219	922.95
750.404	902.47
750.588	861.51
750.773	992.58
750.957	914.76
751.141	881.99
751.326	916.81
751.51	822.6
751.695	857.42
751.879	933.19
752.064	820.55
752.248	974.15
752.432	908.62
752.617	814.41
752.801	804.17
752.985	810.31
753.17	812.36
753.354	881.99
753.538	830.79
753.722	888.14
753.907	845.13
754.091	914.76
754.275	906.57
754.459	824.65
754.643	746.83
754.828	722.25
755.012	769.35
755.196	812.36
755.38	871.75
755.564	734.54
755.748	746.83
755.932	773.45
756.116	759.11
756.3	804.17
756.484	712.01
756.668	779.59
756.852	720.2
757.036	767.31
757.22	740.68
757.404	724.3
757.588	738.63
757.772	609.61
757.956	669
758.14	662.86
758.323	730.44
758.507	675.15
758.691	658.76
758.875	750.92
759.059	687.43
759.242	705.87
759.426	652.62
759.61	628.04
759.794	603.47
759.977	681.29
760.161	720.2
760.345	712.01
760.528	664.91
760.712	697.67
760.895	632.14
761.079	617.8
761.263	677.19
761.446	570.7
761.63	660.81
761.813	654.67
761.997	626
762.18	654.67
762.364	574.8
762.547	673.1
762.731	656.72
762.914	562.51
763.098	681.29
763.281	582.99
763.464	654.67
763.648	654.67
763.831	623.95
764.015	562.51
764.198	654.67
764.381	585.04
764.564	585.04
764.748	669
764.931	617.8
765.114	585.04
765.297	562.51
765.481	556.36
765.664	531.79
765.847	572.75
766.03	587.08
766.213	572.75
766.397	554.32
766.58	478.54
766.763	623.95
766.946	494.93
767.129	566.6
767.312	519.5
767.495	521.55
767.678	503.12
767.861	574.8
768.044	548.17
768.227	462.16
768.41	611.66
768.593	560.46
768.776	496.97
768.959	533.84
769.142	574.8
769.324	544.08
769.507	476.49
769.69	515.41
769.873	449.87
770.056	521.55
770.239	478.54
770.421	552.27
770.604	529.74
770.787	515.41
770.97	478.54
771.152	523.6
771.335	486.73
771.518	496.97
771.7	472.4
771.883	576.84
772.066	570.7
772.248	509.26
772.431	476.49
772.613	548.17
772.796	476.49
772.978	478.54
773.161	585.04
773.343	521.55
773.526	486.73
773.708	472.4
773.891	531.79
774.073	400.72
774.256	494.93
774.438	556.36
774.621	413.01
774.803	490.83
774.985	425.29
775.168	486.73
775.35	349.52
775.532	451.92
775.715	386.38
775.897	490.83
776.079	421.2
776.261	410.96
776.444	419.15
776.626	470.35
776.808	417.1
776.99	427.34
777.173	402.77
777.355	433.49
777.537	441.68
777.719	441.68
777.901	402.77
778.083	374.1
778.265	359.76
778.447	421.2
778.629	392.53
778.811	347.47
778.993	425.29
779.175	419.15
779.357	439.63
779.539	404.82
779.721	322.9
779.903	341.33
780.085	380.24
780.267	437.58
780.449	417.1
780.631	353.62
780.812	392.53
780.994	372.05
781.176	357.71
781.358	310.61
781.54	402.77
781.721	394.58
781.903	333.14
782.085	345.42
782.267	384.34
782.448	341.33
782.63	347.47
782.812	294.22
782.993	337.23
783.175	320.85
783.357	370
783.538	300.37
783.72	341.33
783.901	245.07
784.083	316.75
784.264	286.03
784.446	275.79
784.627	300.37
784.809	324.94
784.99	308.56
785.172	290.13
785.353	267.6
785.535	322.9
785.716	226.64
785.897	267.6
786.079	357.71
786.26	294.22
786.441	326.99
786.623	267.6
786.804	286.03
786.985	267.6
787.167	378.19
787.348	185.68
787.529	343.38
787.71	269.65
787.891	238.93
788.073	267.6
788.254	263.51
788.435	253.27
788.616	255.31
788.797	304.46
788.978	177.49
789.159	226.64
789.34	245.07
789.522	161.11
789.703	255.31
789.884	222.55
790.065	247.12
790.246	288.08
790.427	267.6
790.607	251.22
790.788	286.03
790.969	187.73
791.15	189.78
791.331	228.69
791.512	247.12
791.693	191.83
791.874	238.93
792.054	238.93
792.235	230.74
792.416	214.35
792.597	159.06
792.778	290.13
792.958	144.72
793.139	222.55
793.32	148.82
793.5	140.63
793.681	257.36
793.862	300.37
794.042	249.17
794.223	234.83
794.404	179.54
794.584	236.88
794.765	134.48
794.945	171.35
795.126	212.31
795.306	243.03
795.487	216.4
795.667	154.96
795.848	144.72
796.028	208.21
796.209	157.01
796.389	202.07
796.57	163.15
796.75	134.48
796.93	179.54
797.111	195.92
797.291	157.01
797.471	165.2
797.652	150.87
797.832	200.02
798.012	144.72
798.192	183.63
798.373	134.48
798.553	212.31
798.733	138.58
798.913	177.49
799.093	161.11
799.274	181.59
799.454	191.83
799.634	195.92
799.814	120.15
799.994	144.72
800.174	169.3
800.354	173.39
800.534	189.78
800.714	152.91
800.894	171.35
801.074	157.01
801.254	116.05
801.434	218.45
801.614	163.15
801.794	134.48
801.974	341.33
802.154	101.72
802.334	132.44
802.514	142.68
802.693	144.72
802.873	169.3
803.053	118.1
803.233	144.72
803.413	150.87
803.592	116.05
803.772	130.39
803.952	230.74
804.131	191.83
804.311	175.44
804.491	159.06
804.67	157.01
804.85	138.58
805.03	77.14
805.209	148.82
805.389	77.14
805.568	183.63
805.748	124.24
805.928	181.59
806.107	146.77
806.287	169.3
806.466	163.15
806.646	95.57
806.825	85.33
807.004	130.39
807.184	146.77
807.363	83.28
807.543	128.34
807.722	161.11
807.901	105.81
808.081	118.1
808.26	118.1
808.439	107.86
808.619	81.24
808.798	128.34
808.977	169.3
809.156	208.21
809.336	99.67
809.515	132.44
809.694	99.67
809.873	23.89
810.052	105.81
810.231	163.15
810.411	124.24
810.59	132.44
810.769	111.96
810.948	159.06
811.127	62.8
811.306	167.25
811.485	87.38
811.664	161.11
811.843	134.48
812.022	46.42
812.201	105.81
812.38	134.48
812.559	13.65
812.737	81.24
812.916	7.51
813.095	75.09
813.274	111.96
813.453	124.24
813.632	161.11
813.811	134.48
813.989	83.28
814.168	62.8
814.347	152.91
814.526	73.04
814.704	116.05
814.883	91.48
815.062	81.24
815.24	44.37
815.419	83.28
815.598	159.06
815.776	138.58
815.955	91.48
816.133	111.96
816.312	58.71
816.49	75.09
816.669	107.86
816.847	52.56
817.026	128.34
817.204	124.24
817.383	150.87
817.561	75.09
817.74	101.72
817.918	144.72
818.097	107.86
818.275	58.71
818.453	13.65
818.632	81.24
818.81	83.28
818.988	66.9
819.167	50.52
819.345	126.29
819.523	52.56
819.701	107.86
819.879	161.11
820.058	54.61
820.236	75.09
820.414	44.37
820.592	107.86
820.77	89.43
820.948	79.19
821.127	56.66
821.305	38.23
821.483	44.37
821.661	75.09
821.839	56.66
822.017	83.28
822.195	15.7
822.373	75.09
822.551	114
822.729	56.66
822.907	68.95
823.085	118.1
823.262	118.1
823.44	99.67
823.618	30.04
823.796	107.86
823.974	-8.87
824.152	103.76
824.329	95.57
824.507	46.42
824.685	87.38
824.863	34.13
825.04	60.76
825.218	91.48
825.396	66.9
825.574	21.84
825.751	81.24
825.929	150.87
826.107	83.28
826.284	1.37
826.462	109.91
826.639	105.81
826.817	128.34
826.994	118.1
827.172	17.75
827.349	107.86
827.527	13.65
827.704	-31.4
827.882	154.96
828.059	75.09
828.237	54.61
828.414	122.2
828.591	15.7
828.769	40.28
828.946	11.61
829.124	75.09
829.301	56.66
829.478	42.32
829.655	52.56
829.833	126.29
830.01	91.48
830.187	91.48
830.364	50.52
830.542	44.37
830.719	62.8
830.896	77.14
831.073	71
831.25	101.72
831.427	58.71
831.604	38.23
831.782	68.95
831.959	13.65
832.136	-8.87
832.313	109.91
832.49	32.08
832.667	93.52
832.844	60.76
833.021	75.09
833.198	-45.74
833.374	89.43
833.551	66.9
833.728	73.04
833.905	36.18
834.082	50.52
834.259	85.33
834.436	68.95
834.612	99.67
834.789	40.28
834.966	34.13
835.143	19.8
835.319	73.04
835.496	-15.02
835.673	21.84
835.85	38.23
836.026	79.19
836.203	30.04
836.38	-19.11
836.556	52.56
836.733	1.37
836.909	120.15
837.086	21.84
837.262	50.52
837.439	103.76
837.616	95.57
837.792	5.46
837.968	136.53
838.145	15.7
838.321	54.61
838.498	-6.83
838.674	-2.73
838.851	25.94
839.027	136.53
839.203	68.95
839.38	23.89
839.556	50.52
839.732	107.86
839.909	17.75
840.085	58.71
840.261	44.37
840.437	38.23
840.614	-2.73
840.79	91.48
840.966	-25.26
841.142	-0.68
841.318	-8.87
841.494	50.52
841.671	25.94
841.847	38.23
842.023	17.75
842.199	38.23
842.375	40.28
842.551	124.24
842.727	-58.03
842.903	75.09
843.079	11.61
843.255	34.13
843.431	13.65
843.607	95.57
843.783	13.65
843.959	71
844.134	109.91
844.31	30.04
844.486	-35.5
844.662	85.33
844.838	13.65
845.013	36.18
845.189	15.7
845.365	58.71
845.541	-33.45
845.716	19.8
845.892	71
846.068	34.13
846.244	44.37
846.419	-27.31
846.595	89.43
846.77	77.14
846.946	13.65
847.122	25.94
847.297	-2.73
847.473	73.04
847.648	5.46
847.824	5.46
847.999	3.41
848.175	89.43
848.35	50.52
848.526	97.62
848.701	126.29
848.876	36.18
849.052	40.28
849.227	50.52
849.403	25.94
849.578	44.37
849.753	-2.73
849.929	68.95
850.104	15.7
850.279	50.52
850.454	9.56
850.63	46.42
850.805	50.52
850.98	71
851.155	27.99
851.33	17.75
851.505	9.56
851.681	36.18
851.856	5.46
852.031	62.8
852.206	83.28
852.381	17.75
852.556	25.94
852.731	19.8
852.906	3.41
853.081	64.85
853.256	15.7
853.431	19.8
853.606	-41.64
853.781	52.56
853.956	50.52
854.131	19.8
854.305	68.95
854.48	46.42
854.655	-25.26
854.83	-35.5
855.005	56.66
855.18	23.89
855.354	40.28
855.529	19.8
855.704	54.61
855.879	5.46
856.053	-84.65
856.228	56.66
856.403	-4.78
856.577	-8.87
856.752	-25.26
856.926	91.48
857.101	-10.92
857.276	21.84
857.45	83.28
857.625	32.08
857.799	58.71
857.974	19.8
858.148	64.85
858.323	-8.87
858.497	-121.51
858.672	27.99
858.846	60.76
859.02	-12.97
859.195	-0.68
859.369	9.56
859.543	-0.68
859.718	85.33
859.892	9.56
860.066	66.9
860.241	9.56
860.415	73.04
860.589	-43.69
860.763	58.71
860.938	5.46
861.112	30.04
861.286	23.89
861.46	40.28
861.634	-2.73
861.808	81.24
861.982	9.56
862.157	71
862.331	-47.79
862.505	11.61
862.679	66.9
862.853	50.52
863.027	-21.16
863.201	-19.11
863.375	32.08
863.549	-0.68
863.722	-10.92
863.896	42.32
864.07	-45.74
864.244	27.99
864.418	-29.35
864.592	-10.92
864.766	73.04
864.939	5.46
865.113	-29.35
865.287	-10.92
865.461	7.51
865.634	-12.97
865.808	-10.92
865.982	-37.55
866.156	3.41
866.329	11.61
866.503	11.61
866.676	118.1
866.85	-4.78
867.024	48.47
867.197	-0.68
867.371	126.29
867.544	19.8
867.718	52.56
867.891	9.56
868.065	36.18
868.238	15.7
868.412	-6.83
868.585	23.89
868.759	17.75
868.932	38.23
869.105	36.18
869.279	-8.87
869.452	9.56
869.625	-12.97
869.799	11.61
869.972	-53.93
870.145	-25.26
870.319	38.23
870.492	34.13
870.665	23.89
870.838	-6.83
871.011	-78.51
871.185	-12.97
871.358	11.61
871.531	48.47
871.704	25.94
871.877	30.04
872.05	9.56
872.223	3.41
872.396	34.13
872.569	7.51
872.742	32.08
872.915	5.46
873.088	42.32
873.261	52.56
873.434	-76.46
873.607	21.84
873.78	23.89
873.953	83.28
874.126	-37.55
874.299	64.85
874.471	-12.97
874.644	36.18
874.817	27.99
874.99	38.23
875.163	-41.64
875.335	34.13
875.508	5.46
875.681	27.99
875.853	34.13
876.026	19.8
876.199	32.08
876.371	-45.74
876.544	101.72
876.717	58.71
876.889	13.65
877.062	38.23
877.234	42.32
877.407	-12.97
877.579	36.18
877.752	36.18
877.924	5.46
878.097	42.32
878.269	60.76
878.442	-12.97
878.614	-12.97
878.786	30.04
878.959	7.51
879.131	75.09
879.303	83.28
879.476	-15.02
879.648	-17.07
879.82	48.47
879.993	68.95
880.165	30.04
880.337	-78.51
880.509	-15.02
880.681	-2.73
880.854	-6.83
881.026	83.28
881.198	30.04
881.37	40.28
881.542	40.28
881.714	23.89
881.886	-27.31
882.058	5.46
882.23	44.37
882.402	-39.59
882.574	-43.69
882.746	38.23
882.918	15.7
883.09	-8.87
883.262	32.08
883.434	-55.98
883.606	-49.83
883.778	3.41
883.95	-0.68
884.122	46.42
884.293	-70.31
884.465	-23.21
884.637	56.66
884.809	30.04
884.98	46.42
885.152	42.32
885.324	46.42
885.496	3.41
885.667	40.28
885.839	9.56
886.011	25.94
886.182	-0.68
886.354	-17.07
886.525	5.46
886.697	38.23
886.869	52.56
887.04	50.52
887.212	38.23
887.383	-10.92
887.555	25.94
887.726	7.51
887.897	23.89
888.069	40.28
888.24	52.56
888.412	19.8
888.583	-6.83
888.754	17.75
888.926	-29.35
889.097	-29.35
889.268	5.46
889.44	3.41
889.611	34.13
889.782	44.37
889.953	-0.68
890.125	42.32
890.296	-70.31
890.467	38.23
890.638	5.46
890.809	36.18
890.98	15.7
891.151	1.37
891.323	-27.31
891.494	116.05
891.665	-15.02
891.836	13.65
892.007	-25.26
892.178	42.32
892.349	-29.35
892.52	-15.02
892.691	3.41
892.862	42.32
893.032	-2.73
893.203	48.47
893.374	-0.68
893.545	9.56
893.716	58.71
893.887	56.66
894.057	-2.73
894.228	13.65
894.399	-53.93
894.57	17.75
894.74	-55.98
894.911	1.37
895.082	-4.78
895.253	36.18
895.423	-0.68
895.594	7.51
895.764	1.37
895.935	-43.69
896.106	-41.64
896.276	40.28
896.447	5.46
896.617	17.75
896.788	15.7
896.958	32.08
897.129	54.61
897.299	1.37
897.47	79.19
897.64	21.84
897.81	-37.55
897.981	7.51
898.151	-105.13
898.322	13.65
898.492	21.84
898.662	-78.51
898.832	46.42
899.003	34.13
899.173	40.28
899.343	5.46
899.513	1.37
