Data from USB4F104151__112__13-54-56-347.txt Node

Date: Thu Mar 13 13:54:56 EDT 2025
User: louis
Spectrometer: USB4F10415
Trigger mode: 4
Integration Time (sec): 1.000000E-2
Scans to average: 1
Electric dark correction enabled: true
Nonlinearity correction enabled: false
Boxcar width: 0
XAxis mode: Wavelengths
Number of Pixels in Spectrum: 3648
>>>>>Begin Spectral Data<<<<<
178.204	-46.59
178.424	-46.59
178.644	-46.59
178.864	-34.3
179.084	-67.07
179.304	-26.11
179.524	-52.74
179.744	-67.07
179.964	98.81
180.184	64
180.404	45.57
180.624	-56.83
180.844	25.09
181.064	33.28
181.283	-89.6
181.503	23.04
181.723	2.56
181.943	29.18
182.163	-28.16
182.383	-5.63
182.602	23.04
182.822	-5.63
183.042	12.8
183.262	-38.4
183.482	61.95
183.701	12.8
183.921	6.66
184.141	0.51
184.361	20.99
184.58	-50.69
184.8	29.18
185.02	-11.78
185.239	-50.69
185.459	-28.16
185.679	53.76
185.898	-26.11
186.118	33.28
186.338	-50.69
186.557	59.9
186.777	-52.74
186.997	-24.06
187.216	-1.54
187.436	76.29
187.655	-26.11
187.875	0.51
188.095	18.94
188.314	10.75
188.534	-5.63
188.753	72.19
188.973	-5.63
189.192	10.75
189.412	-11.78
189.631	39.42
189.851	-3.58
190.07	-40.45
190.29	57.86
190.509	35.33
190.729	-40.45
190.948	-28.16
191.168	33.28
191.387	88.57
191.607	10.75
191.826	86.53
192.045	51.71
192.265	14.85
192.484	49.66
192.704	6.66
192.923	-28.16
193.142	57.86
193.362	10.75
193.581	66.05
193.8	88.57
194.02	-26.11
194.239	10.75
194.458	47.62
194.678	-7.68
194.897	-13.82
195.116	-22.02
195.335	20.99
195.555	51.71
195.774	66.05
195.993	-38.4
196.212	100.86
196.432	12.8
196.651	-11.78
196.87	18.94
197.089	4.61
197.308	27.14
197.528	68.09
197.747	43.52
197.966	16.9
198.185	70.14
198.404	20.99
198.623	-42.5
198.842	-19.97
199.062	8.7
199.281	86.53
199.5	6.66
199.719	57.86
199.938	66.05
200.157	-32.26
200.376	-28.16
200.595	25.09
200.814	-26.11
201.033	2.56
201.252	-15.87
201.471	-38.4
201.69	25.09
201.909	8.7
202.128	27.14
202.347	27.14
202.566	-5.63
202.785	-11.78
203.004	0.51
203.223	111.1
203.442	-54.78
203.661	18.94
203.879	14.85
204.098	49.66
204.317	-28.16
204.536	78.33
204.755	-22.02
204.974	-11.78
205.193	35.33
205.411	61.95
205.63	18.94
205.849	47.62
206.068	-15.87
206.287	39.42
206.505	-32.26
206.724	-11.78
206.943	-9.73
207.162	-13.82
207.381	-15.87
207.599	8.7
207.818	55.81
208.037	-3.58
208.255	2.56
208.474	-15.87
208.693	-32.26
208.911	20.99
209.13	47.62
209.349	20.99
209.567	25.09
209.786	37.38
210.005	33.28
210.223	2.56
210.442	12.8
210.661	-5.63
210.879	23.04
211.098	-5.63
211.316	31.23
211.535	12.8
211.753	64
211.972	4.61
212.191	-54.78
212.409	-13.82
212.628	45.57
212.846	10.75
213.065	-58.88
213.283	35.33
213.502	45.57
213.72	72.19
213.938	-50.69
214.157	47.62
214.375	-67.07
214.594	-17.92
214.812	-71.17
215.031	33.28
215.249	12.8
215.467	35.33
215.686	-7.68
215.904	35.33
216.122	20.99
216.341	31.23
216.559	-17.92
216.778	82.43
216.996	2.56
217.214	53.76
217.432	6.66
217.651	25.09
217.869	39.42
218.087	8.7
218.306	-19.97
218.524	-32.26
218.742	20.99
218.96	59.9
219.179	39.42
219.397	-9.73
219.615	23.04
219.833	33.28
220.051	-9.73
220.27	8.7
220.488	-1.54
220.706	41.47
220.924	-5.63
221.142	41.47
221.36	29.18
221.578	90.62
221.796	0.51
222.015	-73.21
222.233	4.61
222.451	76.29
222.669	-34.3
222.887	0.51
223.105	8.7
223.323	43.52
223.541	-19.97
223.759	35.33
223.977	51.71
224.195	29.18
224.413	0.51
224.631	43.52
224.849	12.8
225.067	23.04
225.285	4.61
225.503	37.38
225.721	0.51
225.939	59.9
226.157	-36.35
226.375	20.99
226.592	29.18
226.81	47.62
227.028	-38.4
227.246	-34.3
227.464	-26.11
227.682	72.19
227.9	0.51
228.117	66.05
228.335	-15.87
228.553	27.14
228.771	6.66
228.989	8.7
229.206	-5.63
229.424	16.9
229.642	51.71
229.86	-15.87
230.077	-34.3
230.295	12.8
230.513	37.38
230.731	-9.73
230.948	-19.97
231.166	72.19
231.384	-30.21
231.601	31.23
231.819	80.38
232.037	-5.63
232.254	33.28
232.472	16.9
232.689	74.24
232.907	-5.63
233.125	31.23
233.342	-22.02
233.56	20.99
233.777	12.8
233.995	-5.63
234.213	45.57
234.43	-34.3
234.648	-5.63
234.865	47.62
235.083	57.86
235.3	-40.45
235.518	41.47
235.735	39.42
235.953	-19.97
236.17	-65.02
236.388	6.66
236.605	41.47
236.822	29.18
237.04	37.38
237.257	47.62
237.475	12.8
237.692	35.33
237.909	47.62
238.127	23.04
238.344	0.51
238.562	-67.07
238.779	33.28
238.996	-30.21
239.214	-13.82
239.431	121.34
239.648	57.86
239.865	12.8
240.083	-5.63
240.3	-11.78
240.517	4.61
240.735	-17.92
240.952	45.57
241.169	31.23
241.386	-17.92
241.603	29.18
241.821	-26.11
242.038	47.62
242.255	55.81
242.472	37.38
242.689	4.61
242.907	72.19
243.124	10.75
243.341	78.33
243.558	-73.21
243.775	-56.83
243.992	10.75
244.209	-17.92
244.426	-19.97
244.643	8.7
244.86	29.18
245.078	53.76
245.295	-28.16
245.512	-5.63
245.729	41.47
245.946	47.62
246.163	0.51
246.38	4.61
246.597	8.7
246.814	-9.73
247.031	29.18
247.248	-26.11
247.464	45.57
247.681	-11.78
247.898	29.18
248.115	45.57
248.332	-42.5
248.549	0.51
248.766	0.51
248.983	61.95
249.2	-75.26
249.417	51.71
249.633	-46.59
249.85	27.14
250.067	4.61
250.284	-3.58
250.501	-36.35
250.717	35.33
250.934	-42.5
251.151	45.57
251.368	-3.58
251.585	23.04
251.801	53.76
252.018	23.04
252.235	20.99
252.451	16.9
252.668	6.66
252.885	-15.87
253.102	0.51
253.318	-15.87
253.535	-3.58
253.752	27.14
253.968	70.14
254.185	-87.55
254.401	2.56
254.618	23.04
254.835	-3.58
255.051	43.52
255.268	4.61
255.484	82.43
255.701	8.7
255.917	-46.59
256.134	-50.69
256.351	53.76
256.567	80.38
256.784	31.23
257	-26.11
257.217	18.94
257.433	64
257.65	10.75
257.866	12.8
258.082	41.47
258.299	-5.63
258.515	6.66
258.732	41.47
258.948	35.33
259.165	23.04
259.381	27.14
259.597	-17.92
259.814	14.85
260.03	-24.06
260.246	47.62
260.463	49.66
260.679	-46.59
260.895	39.42
261.112	27.14
261.328	39.42
261.544	35.33
261.761	47.62
261.977	25.09
262.193	47.62
262.409	47.62
262.626	2.56
262.842	2.56
263.058	-26.11
263.274	39.42
263.49	2.56
263.707	82.43
263.923	-22.02
264.139	-13.82
264.355	-42.5
264.571	84.48
264.787	6.66
265.004	49.66
265.22	-7.68
265.436	47.62
265.652	-24.06
265.868	90.62
266.084	-34.3
266.3	-54.78
266.516	-69.12
266.732	68.09
266.948	33.28
267.164	35.33
267.38	6.66
267.596	84.48
267.812	39.42
268.028	47.62
268.244	-58.88
268.46	72.19
268.676	23.04
268.892	45.57
269.108	45.57
269.324	10.75
269.54	-34.3
269.756	70.14
269.972	-13.82
270.188	90.62
270.403	-15.87
270.619	37.38
270.835	29.18
271.051	41.47
271.267	29.18
271.483	51.71
271.698	-62.98
271.914	-1.54
272.13	-5.63
272.346	-28.16
272.562	72.19
272.777	-1.54
272.993	4.61
273.209	25.09
273.425	16.9
273.64	18.94
273.856	12.8
274.072	12.8
274.287	2.56
274.503	27.14
274.719	80.38
274.934	37.38
275.15	68.09
275.366	14.85
275.581	14.85
275.797	96.77
276.012	35.33
276.228	18.94
276.444	41.47
276.659	31.23
276.875	4.61
277.09	20.99
277.306	33.28
277.521	-7.68
277.737	-3.58
277.952	37.38
278.168	4.61
278.383	55.81
278.599	41.47
278.814	92.67
279.03	-7.68
279.245	78.33
279.461	-42.5
279.676	43.52
279.892	18.94
280.107	61.95
280.322	45.57
280.538	55.81
280.753	12.8
280.969	-15.87
281.184	-67.07
281.399	57.86
281.615	8.7
281.83	8.7
282.045	4.61
282.26	33.28
282.476	-15.87
282.691	53.76
282.906	0.51
283.122	6.66
283.337	10.75
283.552	-60.93
283.767	-13.82
283.983	53.76
284.198	64
284.413	6.66
284.628	-24.06
284.843	16.9
285.058	41.47
285.274	-62.98
285.489	-42.5
285.704	-5.63
285.919	47.62
286.134	57.86
286.349	29.18
286.564	57.86
286.779	18.94
286.995	23.04
287.21	-19.97
287.425	31.23
287.64	-22.02
287.855	18.94
288.07	29.18
288.285	2.56
288.5	18.94
288.715	4.61
288.93	-9.73
289.145	14.85
289.36	2.56
289.575	25.09
289.79	100.86
290.004	45.57
290.219	37.38
290.434	82.43
290.649	-7.68
290.864	10.75
291.079	49.66
291.294	43.52
291.509	-7.68
291.724	41.47
291.938	25.09
292.153	37.38
292.368	-22.02
292.583	14.85
292.798	31.23
293.012	39.42
293.227	-11.78
293.442	-67.07
293.657	25.09
293.871	53.76
294.086	33.28
294.301	61.95
294.516	10.75
294.73	68.09
294.945	-1.54
295.16	12.8
295.374	12.8
295.589	27.14
295.804	55.81
296.018	0.51
296.233	25.09
296.447	-11.78
296.662	-65.02
296.877	-13.82
297.091	41.47
297.306	0.51
297.52	-44.54
297.735	61.95
297.949	41.47
298.164	29.18
298.378	72.19
298.593	-40.45
298.807	43.52
299.022	49.66
299.236	-15.87
299.451	27.14
299.665	100.86
299.88	-28.16
300.094	94.72
300.309	4.61
300.523	-1.54
300.737	-1.54
300.952	64
301.166	29.18
301.381	-3.58
301.595	35.33
301.809	27.14
302.024	-34.3
302.238	-52.74
302.452	10.75
302.667	-24.06
302.881	127.49
303.095	84.48
303.309	76.29
303.524	2.56
303.738	57.86
303.952	-28.16
304.166	18.94
304.381	-15.87
304.595	76.29
304.809	14.85
305.023	102.91
305.237	39.42
305.452	2.56
305.666	49.66
305.88	16.9
306.094	115.2
306.308	4.61
306.522	64
306.736	-5.63
306.95	2.56
307.164	-9.73
307.379	51.71
307.593	8.7
307.807	107.01
308.021	-58.88
308.235	-7.68
308.449	-3.58
308.663	37.38
308.877	139.77
309.091	10.75
309.305	-34.3
309.519	-54.78
309.733	57.86
309.947	8.7
310.161	-3.58
310.374	53.76
310.588	68.09
310.802	39.42
311.016	14.85
311.23	72.19
311.444	57.86
311.658	-62.98
311.872	57.86
312.085	41.47
312.299	-3.58
312.513	-34.3
312.727	33.28
312.941	25.09
313.154	4.61
313.368	49.66
313.582	-62.98
313.796	37.38
314.009	2.56
314.223	20.99
314.437	57.86
314.651	2.56
314.864	35.33
315.078	14.85
315.292	78.33
315.505	39.42
315.719	12.8
315.933	31.23
316.146	31.23
316.36	-24.06
316.573	-17.92
316.787	41.47
317.001	-15.87
317.214	74.24
317.428	6.66
317.641	33.28
317.855	59.9
318.068	10.75
318.282	45.57
318.495	51.71
318.709	4.61
318.922	53.76
319.136	23.04
319.349	0.51
319.563	-7.68
319.776	31.23
319.99	25.09
320.203	49.66
320.417	66.05
320.63	82.43
320.843	72.19
321.057	59.9
321.27	59.9
321.483	39.42
321.697	-15.87
321.91	57.86
322.124	68.09
322.337	6.66
322.55	41.47
322.763	4.61
322.977	49.66
323.19	20.99
323.403	-9.73
323.617	51.71
323.83	59.9
324.043	16.9
324.256	2.56
324.469	16.9
324.683	57.86
324.896	14.85
325.109	-34.3
325.322	-5.63
325.535	39.42
325.748	-67.07
325.962	37.38
326.175	18.94
326.388	37.38
326.601	-28.16
326.814	35.33
327.027	8.7
327.24	43.52
327.453	39.42
327.666	45.57
327.879	10.75
328.092	51.71
328.305	-9.73
328.518	12.8
328.731	-24.06
328.944	43.52
329.157	12.8
329.37	-28.16
329.583	0.51
329.796	88.57
330.009	31.23
330.222	6.66
330.435	39.42
330.648	45.57
330.861	82.43
331.073	109.05
331.286	111.1
331.499	33.28
331.712	-5.63
331.925	-19.97
332.138	68.09
332.35	33.28
332.563	0.51
332.776	16.9
332.989	8.7
333.202	59.9
333.414	-7.68
333.627	88.57
333.84	66.05
334.053	61.95
334.265	0.51
334.478	94.72
334.691	64
334.903	20.99
335.116	6.66
335.329	6.66
335.541	-26.11
335.754	14.85
335.966	4.61
336.179	68.09
336.392	35.33
336.604	51.71
336.817	33.28
337.029	33.28
337.242	51.71
337.454	94.72
337.667	27.14
337.88	33.28
338.092	125.44
338.305	-30.21
338.517	39.42
338.729	39.42
338.942	-1.54
339.154	4.61
339.367	-15.87
339.579	43.52
339.792	45.57
340.004	43.52
340.217	-17.92
340.429	45.57
340.641	-28.16
340.854	57.86
341.066	47.62
341.278	16.9
341.491	41.47
341.703	39.42
341.915	49.66
342.128	49.66
342.34	39.42
342.552	2.56
342.764	10.75
342.977	33.28
343.189	47.62
343.401	14.85
343.613	47.62
343.826	-1.54
344.038	-11.78
344.25	12.8
344.462	104.96
344.674	86.53
344.886	-24.06
345.099	0.51
345.311	59.9
345.523	-24.06
345.735	0.51
345.947	127.49
346.159	23.04
346.371	-52.74
346.583	39.42
346.795	29.18
347.007	-13.82
347.219	-11.78
347.431	-24.06
347.643	45.57
347.855	37.38
348.067	14.85
348.279	27.14
348.491	37.38
348.703	18.94
348.915	-42.5
349.127	-7.68
349.339	8.7
349.551	-58.88
349.763	74.24
349.975	-7.68
350.187	45.57
350.399	55.81
350.61	39.42
350.822	-19.97
351.034	70.14
351.246	-9.73
351.458	55.81
351.669	-1.54
351.881	47.62
352.093	66.05
352.305	-3.58
352.517	25.09
352.728	66.05
352.94	20.99
353.152	53.76
353.363	27.14
353.575	47.62
353.787	-7.68
353.999	41.47
354.21	94.72
354.422	-5.63
354.633	-65.02
354.845	90.62
355.057	74.24
355.268	-46.59
355.48	-11.78
355.692	-24.06
355.903	39.42
356.115	31.23
356.326	6.66
356.538	72.19
356.749	64
356.961	4.61
357.172	84.48
357.384	16.9
357.595	41.47
357.807	66.05
358.018	61.95
358.23	125.44
358.441	74.24
358.653	10.75
358.864	-40.45
359.075	35.33
359.287	86.53
359.498	-13.82
359.709	2.56
359.921	10.75
360.132	-34.3
360.344	4.61
360.555	92.67
360.766	45.57
360.977	-32.26
361.189	8.7
361.4	-3.58
361.611	-15.87
361.823	47.62
362.034	64
362.245	43.52
362.456	27.14
362.667	70.14
362.879	10.75
363.09	45.57
363.301	53.76
363.512	39.42
363.723	12.8
363.935	14.85
364.146	70.14
364.357	2.56
364.568	31.23
364.779	-5.63
364.99	-7.68
365.201	49.66
365.412	41.47
365.623	16.9
365.834	41.47
366.045	25.09
366.256	39.42
366.467	102.91
366.678	-24.06
366.889	35.33
367.1	18.94
367.311	80.38
367.522	-13.82
367.733	47.62
367.944	137.73
368.155	-36.35
368.366	49.66
368.577	16.9
368.788	35.33
368.999	96.77
369.209	98.81
369.42	68.09
369.631	18.94
369.842	76.29
370.053	61.95
370.264	70.14
370.474	18.94
370.685	37.38
370.896	23.04
371.107	-28.16
371.317	76.29
371.528	43.52
371.739	37.38
371.95	16.9
372.16	39.42
372.371	23.04
372.582	47.62
372.792	33.28
373.003	39.42
373.214	55.81
373.424	10.75
373.635	70.14
373.846	41.47
374.056	43.52
374.267	59.9
374.477	53.76
374.688	55.81
374.898	66.05
375.109	-17.92
375.319	109.05
375.53	61.95
375.74	39.42
375.951	49.66
376.161	66.05
376.372	8.7
376.582	33.28
376.793	-28.16
377.003	59.9
377.214	141.82
377.424	119.29
377.635	78.33
377.845	59.9
378.055	47.62
378.266	39.42
378.476	33.28
378.686	86.53
378.897	39.42
379.107	12.8
379.317	64
379.528	-3.58
379.738	45.57
379.948	-17.92
380.158	94.72
380.369	74.24
380.579	29.18
380.789	-54.78
380.999	8.7
381.21	29.18
381.42	66.05
381.63	35.33
381.84	-7.68
382.05	0.51
382.261	129.53
382.471	6.66
382.681	10.75
382.891	66.05
383.101	18.94
383.311	25.09
383.521	-44.54
383.731	-32.26
383.941	-22.02
384.151	127.49
384.361	10.75
384.571	35.33
384.781	-40.45
384.991	33.28
385.201	135.68
385.411	88.57
385.621	45.57
385.831	61.95
386.041	55.81
386.251	14.85
386.461	51.71
386.671	33.28
386.881	37.38
387.091	53.76
387.301	4.61
387.511	12.8
387.72	78.33
387.93	-5.63
388.14	55.81
388.35	25.09
388.56	53.76
388.769	-17.92
388.979	61.95
389.189	18.94
389.399	49.66
389.609	-24.06
389.818	68.09
390.028	72.19
390.238	18.94
390.447	-15.87
390.657	8.7
390.867	-40.45
391.076	61.95
391.286	23.04
391.496	70.14
391.705	70.14
391.915	43.52
392.125	23.04
392.334	57.86
392.544	-11.78
392.753	39.42
392.963	57.86
393.172	23.04
393.382	74.24
393.591	57.86
393.801	90.62
394.01	94.72
394.22	-3.58
394.429	59.9
394.639	45.57
394.848	33.28
395.058	98.81
395.267	115.2
395.477	53.76
395.686	96.77
395.895	61.95
396.105	104.96
396.314	55.81
396.524	90.62
396.733	119.29
396.942	78.33
397.152	74.24
397.361	100.86
397.57	143.87
397.78	82.43
397.989	55.81
398.198	35.33
398.407	51.71
398.617	78.33
398.826	82.43
399.035	37.38
399.244	82.43
399.453	55.81
399.663	45.57
399.872	139.77
400.081	119.29
400.29	74.24
400.499	76.29
400.708	121.34
400.917	37.38
401.127	57.86
401.336	57.86
401.545	107.01
401.754	100.86
401.963	162.3
402.172	51.71
402.381	92.67
402.59	51.71
402.799	102.91
403.008	68.09
403.217	125.44
403.426	68.09
403.635	61.95
403.844	125.44
404.053	145.92
404.262	123.39
404.471	113.15
404.68	98.81
404.888	145.92
405.097	94.72
405.306	135.68
405.515	113.15
405.724	166.4
405.933	156.16
406.142	100.86
406.35	119.29
406.559	113.15
406.768	133.63
406.977	143.87
407.185	195.07
407.394	197.12
407.603	133.63
407.812	111.1
408.02	217.6
408.229	162.3
408.438	176.64
408.646	80.38
408.855	197.12
409.064	201.21
409.272	158.21
409.481	129.53
409.69	168.45
409.898	195.07
410.107	203.26
410.315	262.65
410.524	287.23
410.733	305.66
410.941	174.59
411.15	254.46
411.358	283.13
411.567	266.75
411.775	279.04
411.984	299.52
412.192	326.14
412.401	305.66
412.609	385.53
412.818	328.19
413.026	379.39
413.234	356.86
413.443	430.59
413.651	393.72
413.86	276.99
414.068	373.24
414.276	465.4
414.485	410.11
414.693	442.87
414.901	498.17
415.11	438.78
415.318	506.36
415.526	555.51
415.734	510.46
415.943	543.22
416.151	555.51
416.359	578.04
416.567	563.7
416.776	641.53
416.984	702.97
417.192	760.31
417.4	711.16
417.608	709.11
417.817	758.26
418.025	770.55
418.233	918
418.441	874.99
418.649	870.9
418.857	905.71
419.065	879.09
419.273	907.76
419.481	1044.98
419.689	989.68
419.897	1163.76
420.105	1061.36
420.313	1178.09
420.521	1112.56
420.729	1243.63
420.937	1268.2
421.145	1219.05
421.353	1270.25
421.561	1405.42
421.769	1389.03
421.977	1446.38
422.185	1448.43
422.393	1436.14
422.601	1589.74
422.809	1597.93
423.017	1714.66
423.224	1667.56
423.432	1925.6
423.64	1858.02
423.848	1853.92
424.056	1882.6
424.263	2019.81
424.471	2071.01
424.679	2208.22
424.887	2118.11
425.094	2200.03
425.302	2290.14
425.51	2345.44
425.718	2347.48
425.925	2587.1
426.133	2494.94
426.341	2623.96
426.548	2824.66
426.756	2709.97
426.964	2709.97
427.171	2947.54
427.379	3033.55
427.586	3080.66
427.794	3150.29
428.001	3307.98
428.209	3508.68
428.417	3514.83
428.624	3619.27
428.832	3682.76
429.039	3664.33
429.247	3619.27
429.454	4004.29
429.662	4268.48
429.869	3951.04
430.076	4172.22
430.284	4061.63
430.491	4250.05
430.699	4487.61
430.906	4561.34
431.114	4592.06
431.321	4792.76
431.528	4893.11
431.736	5065.14
431.943	5405.1
432.15	5235.12
432.358	5294.51
432.565	5753.26
432.772	5593.51
432.979	5956.01
433.187	5962.15
433.394	6072.74
433.601	6371.74
433.808	6468
434.016	6484.38
434.223	6461.85
434.43	7000.47
434.637	6855.06
434.844	7301.52
435.052	7410.06
435.259	7295.38
435.466	7590.28
435.673	7444.88
435.88	7940.49
436.087	8266.11
436.294	8225.15
436.501	8118.66
436.708	8186.24
436.915	8659.32
437.122	9109.88
437.329	8956.28
437.537	9204.08
437.743	9269.62
437.95	9449.84
438.157	9759.08
438.364	10099.05
438.571	10103.14
438.778	10254.69
438.985	10998.1
439.192	10625.37
439.399	10899.8
439.606	10756.44
439.813	11411.79
440.02	11925.83
440.227	11833.68
440.433	11774.28
440.64	12136.77
440.847	12163.4
441.054	12360
441.261	13193.53
441.467	12841.28
441.674	13293.88
441.881	13603.12
442.088	13809.97
442.294	13508.91
442.501	14139.69
442.708	14258.47
442.914	14770.46
443.121	15194.39
443.328	14780.7
443.534	16052.49
443.741	15280.41
443.948	15438.1
444.154	16519.43
444.361	16457.99
444.568	16742.66
444.774	16490.76
444.981	17086.72
445.187	17299.7
445.394	18112.75
445.6	17461.49
445.807	19357.91
446.013	18475.24
446.22	18798.82
446.426	19386.58
446.633	19822.8
446.839	20439.24
447.046	19478.74
447.252	20617.41
447.459	20652.23
447.665	20730.05
447.871	21553.34
448.078	22821.03
448.284	21364.92
448.491	21823.67
448.697	22493.35
448.903	22952.1
449.11	23083.17
449.316	22761.64
449.522	23193.76
449.728	23810.2
449.935	24047.76
450.141	24252.56
450.347	24791.17
450.553	23857.3
450.76	24088.72
450.966	24944.77
451.172	24422.54
451.378	24948.87
451.584	24672.39
451.791	25251.97
451.997	25038.98
452.203	25563.26
452.409	25573.5
452.615	25366.65
452.821	24461.45
453.027	24084.62
453.233	25380.99
453.44	24101.01
453.646	24535.18
453.852	24985.73
454.058	25254.01
454.264	24375.44
454.47	24995.97
454.676	24361.1
454.882	24932.48
455.088	22943.91
455.294	23158.94
455.5	23574.68
455.705	23777.43
455.911	22939.81
456.117	22532.26
456.323	21893.3
456.529	21057.73
456.735	21614.77
456.941	21123.26
457.147	21008.58
457.352	20474.06
457.558	20160.72
457.764	20107.47
457.97	19654.87
458.176	19185.88
458.381	19185.88
458.587	18217.19
458.793	18319.59
458.999	17447.16
459.204	18594.02
459.41	18039.02
459.616	17074.43
459.821	17043.71
460.027	16931.07
460.233	16412.93
460.438	15552.79
460.644	15890.7
460.85	15061.27
461.055	15024.41
461.261	14836
461.466	13945.13
461.672	13373.75
461.878	14303.53
462.083	13443.38
462.289	13095.22
462.494	12949.82
462.7	12333.38
462.905	12122.44
463.111	12525.89
463.316	12415.3
463.522	12226.89
463.727	12415.3
463.932	12423.49
464.138	12204.36
464.343	12181.83
464.549	11888.97
464.754	12392.77
464.959	12261.7
465.165	11942.22
465.37	11417.94
465.575	11280.72
465.781	11845.96
465.986	11686.22
466.191	11419.99
466.397	11055.45
466.602	10664.29
466.807	11077.97
467.012	11008.34
467.218	11065.69
467.423	10881.37
467.628	10862.94
467.833	11172.18
468.038	10834.27
468.244	10711.39
468.449	11163.99
468.654	10735.96
468.859	10475.87
469.064	10406.24
469.269	10029.41
469.474	10379.62
469.679	10250.6
469.885	9904.49
470.09	10203.49
470.295	10221.92
470.5	10000.74
470.705	9980.26
470.91	9730.41
471.115	9720.17
471.32	9732.46
471.525	9699.69
471.73	9572.72
471.935	9380.21
472.139	9134.45
472.344	9361.78
472.549	8993.14
472.754	9113.97
472.959	8761.72
473.164	8661.37
473.369	8569.21
473.574	8907.13
473.778	8698.24
473.983	8651.13
474.188	8644.99
474.393	8262.02
474.598	8384.9
474.802	8294.79
475.007	8196.48
475.212	8092.04
475.417	7930.25
475.621	7872.9
475.826	8126.85
476.031	7799.18
476.235	7621
476.44	7623.05
476.645	7559.56
476.849	7754.12
477.054	7530.89
477.259	7555.47
477.463	7414.16
477.668	7178.64
477.872	7516.56
478.077	7184.79
478.282	7139.73
478.486	7041.43
478.691	6953.37
478.895	6979.99
479.1	6975.89
479.304	6932.89
479.509	6775.19
479.713	6732.19
479.918	6484.38
480.122	6451.61
480.326	6672.79
480.531	6726.04
480.735	6683.03
480.94	6402.46
481.144	6627.74
481.348	6556.06
481.553	6517.15
481.757	6236.58
481.961	6558.11
482.166	6535.58
482.37	6570.4
482.574	6392.22
482.778	6451.61
482.983	6537.63
483.187	6412.7
483.391	6525.34
483.595	6443.42
483.8	6291.87
484.004	6431.13
484.208	6541.72
484.412	6429.09
484.616	6390.17
484.821	6353.31
485.025	6484.38
485.229	6365.6
485.433	6594.97
485.637	6410.65
485.841	6326.69
486.045	6394.27
486.249	6457.76
486.453	6375.84
486.657	6523.29
486.861	6470.05
487.065	6183.33
487.269	6330.78
487.473	6433.18
487.677	6570.4
487.881	6289.82
488.085	6492.57
488.289	6316.45
488.493	6275.49
488.697	6457.76
488.901	6379.93
489.105	6377.89
489.309	6592.92
489.512	6437.28
489.716	6369.69
489.92	6381.98
490.124	6427.04
490.328	6523.29
490.531	6611.36
490.735	6502.81
490.939	6586.78
491.143	6543.77
491.346	6476.19
491.55	6689.18
491.754	6642.07
491.958	6687.13
492.161	6705.56
492.365	6584.73
492.569	6836.63
492.772	6754.71
492.976	6732.19
493.18	6846.87
493.383	7023
493.587	7014.8
493.79	6992.28
493.994	7049.62
494.197	7023
494.401	7047.57
494.605	7117.2
494.808	7408.01
495.012	7109.01
495.215	7395.73
495.419	7436.69
495.622	7403.92
495.825	7430.54
496.029	7543.18
496.232	7645.58
496.436	7571.85
496.639	7831.94
496.843	8034.69
497.046	7989.64
497.249	8057.22
497.453	7981.45
497.656	8208.77
497.859	8206.72
498.063	8212.87
498.266	8302.98
498.469	8663.42
498.673	8655.23
498.876	8395.14
499.079	8685.95
499.282	8774.01
499.485	8999.29
499.689	8728.95
499.892	9249.14
500.095	9204.08
500.298	9464.18
500.501	9210.23
500.705	9347.44
500.908	9687.4
501.111	9693.55
501.314	9845.1
501.517	10088.81
501.72	10312.03
501.923	9884.01
502.126	10430.82
502.329	10373.47
502.532	10678.62
502.735	10508.64
502.938	10826.07
503.141	10830.17
503.344	10948.95
503.547	10922.33
503.75	11272.53
503.953	11374.93
504.156	11622.73
504.359	11626.83
504.562	11540.82
504.765	11999.56
504.968	11997.51
505.17	12106.06
505.373	12398.91
505.576	12452.16
505.779	12632.38
505.982	12564.8
506.185	12958.01
506.387	13064.5
506.59	13295.93
506.793	13404.47
506.996	13523.25
507.198	13973.8
507.401	13726
507.604	13918.51
507.807	14215.46
508.009	14385.44
508.212	14504.23
508.415	14463.27
508.617	14864.67
508.82	14934.3
509.022	14795.04
509.225	15274.26
509.428	15300.89
509.63	15610.13
509.833	15921.42
510.035	16255.24
510.238	16036.11
510.44	16171.27
510.643	16691.46
510.845	16986.36
511.048	16607.49
511.25	17152.25
511.453	17336.57
511.655	17813.74
511.858	17631.47
512.06	17676.53
512.262	18086.12
512.465	18006.25
512.667	18233.58
512.87	18657.51
513.072	18774.24
513.274	18948.32
513.477	19304.67
513.679	19503.32
513.881	19675.35
514.084	19880.14
514.286	20046.03
514.488	20050.13
514.69	20457.67
514.893	20730.05
515.095	20814.02
515.297	21334.2
515.499	21405.88
515.701	21600.44
515.904	21557.43
516.106	22057.14
516.308	22249.64
516.51	22630.57
516.712	22665.38
516.914	22921.38
517.116	23122.08
517.318	23158.94
517.52	23279.77
517.722	23847.06
517.925	23869.59
518.127	24248.46
518.329	24572.04
518.531	24205.45
518.733	25147.52
518.935	25139.33
519.136	25426.04
519.338	25636.98
519.54	25915.51
519.742	25901.17
519.944	26292.33
520.146	26730.6
520.348	27037.8
520.55	27132
520.752	27650.14
520.954	27717.72
521.155	27543.64
521.357	28344.4
521.559	28282.96
521.761	28620.88
521.963	28555.34
522.164	28991.56
522.366	28880.97
522.568	29548.61
522.77	29071.43
522.971	29794.36
523.173	29626.43
523.375	30310.45
523.576	29954.1
523.778	30130.23
523.98	30773.29
524.181	30683.18
524.383	30928.94
524.584	31309.86
524.786	31473.7
524.988	31535.13
525.189	31619.1
525.391	31914.01
525.592	32184.34
525.794	32577.55
525.995	32342.03
526.197	32677.9
526.398	32411.67
526.6	32778.25
526.801	33187.85
527.003	33312.77
527.204	33363.97
527.406	33556.48
527.607	33615.87
527.808	33978.36
528.01	33425.41
528.211	33740.8
528.412	34420.72
528.614	34181.11
528.815	33990.65
529.016	34625.52
529.218	34457.59
529.419	34449.39
529.62	34713.58
529.822	34746.35
530.023	34750.45
530.224	35164.14
530.425	34893.8
530.626	35117.03
530.828	34793.45
531.029	35776.48
531.23	35201
531.431	34881.52
531.632	35616.74
531.833	35370.98
532.035	35287.01
532.236	35518.43
532.437	35872.73
532.638	35418.08
532.839	35971.04
533.04	36102.11
533.241	35594.21
533.442	36179.93
533.643	35745.76
533.844	36122.58
534.045	35846.11
534.246	35829.73
534.447	36014.04
534.648	35262.44
534.849	36184.02
535.05	35979.23
535.251	35999.71
535.451	35733.47
535.652	36116.44
535.853	36200.41
536.054	36167.64
536.255	35762.14
536.456	36016.09
536.657	36491.22
536.857	36126.68
537.058	35825.63
537.259	36196.31
537.46	36280.28
537.66	35989.47
537.861	36241.37
538.062	36124.63
538.263	36229.08
538.463	36081.63
538.664	35778.53
538.865	36227.03
539.065	36196.31
539.266	35915.74
539.466	36593.62
539.667	35778.53
539.868	36720.59
540.068	36181.98
540.269	36071.39
540.469	36446.16
540.67	35829.73
540.87	36134.87
541.071	36278.23
541.271	36368.34
541.472	36458.45
541.672	36212.7
541.873	35975.13
542.073	36022.23
542.274	36573.14
542.474	36147.16
542.675	35751.9
542.875	36233.18
543.075	36362.2
543.276	35887.07
543.476	36376.53
543.676	36196.31
543.877	36102.11
544.077	36102.11
544.277	36028.38
544.478	35876.83
544.678	36659.15
544.878	36315.09
545.078	35989.47
545.279	35889.12
545.479	35874.78
545.679	36270.04
545.879	36003.8
546.079	36163.54
546.28	35842.01
546.48	35807.2
546.68	36057.05
546.88	36282.33
547.08	35717.09
547.28	36009.95
547.48	36126.68
547.68	36050.91
547.88	35745.76
548.081	36118.49
548.281	36050.91
548.481	36091.87
548.681	36444.12
548.881	36050.91
549.081	36147.16
549.28	36313.05
549.48	36286.42
549.68	36032.47
549.88	36327.38
550.08	36089.82
550.28	36286.42
550.48	35925.98
550.68	36599.76
550.88	36188.12
551.08	35958.75
551.279	35901.4
551.479	35844.06
551.679	36022.23
551.879	35882.97
552.079	36141.02
552.278	35512.29
552.478	36214.74
552.678	35766.24
552.878	36245.46
553.077	35684.32
553.277	35489.76
553.477	35590.11
553.676	35538.91
553.876	36298.71
554.076	35866.59
554.275	35719.13
554.475	35239.91
554.674	35643.36
554.874	35528.67
555.074	35676.13
555.273	35495.91
555.473	35688.42
555.672	35459.04
555.872	35502.05
556.071	35538.91
556.271	35690.46
556.47	35360.74
556.67	34779.12
556.869	35364.84
557.068	35588.06
557.268	34988.01
557.467	35065.83
557.667	35330.02
557.866	35188.71
558.065	35151.85
558.265	35155.94
558.464	34822.12
558.663	35248.1
558.863	34631.66
559.062	35225.57
559.261	34443.25
559.461	34977.77
559.66	34217.97
559.859	34605.04
560.058	34627.57
560.258	34760.69
560.457	34193.4
560.656	34557.94
560.855	34480.11
561.054	34250.74
561.253	33824.76
561.453	34123.77
561.652	34211.83
561.851	33941.5
562.05	33923.07
562.249	33861.63
562.448	34265.08
562.647	34109.43
562.846	33839.1
563.045	34000.89
563.244	33574.91
563.443	34148.34
563.642	33601.54
563.841	33800.19
564.04	33619.97
564.239	34064.38
564.438	33470.47
564.637	33669.12
564.836	33429.51
565.035	33030.15
565.234	33105.93
565.432	33341.44
565.631	32841.74
565.83	33310.72
566.029	33069.06
566.228	33036.3
566.427	32911.37
566.625	32663.57
566.824	32860.17
567.023	32978.95
567.222	32016.41
567.42	32495.63
567.619	32575.5
567.818	32311.31
568.016	32444.43
568.215	32358.42
568.414	32227.35
568.612	32546.83
568.811	32151.57
569.01	31887.39
569.208	31836.19
569.407	31813.66
569.605	31535.13
569.804	31916.06
570.002	31174.69
570.201	31473.7
570.4	31453.22
570.598	31215.65
570.797	31277.09
570.995	31162.4
571.193	31137.83
571.392	31363.11
571.59	30797.87
571.789	31377.44
571.987	30619.69
572.186	30750.76
572.384	30636.08
572.582	30611.5
572.781	30625.84
572.979	29669.44
573.177	30451.76
573.376	30459.95
573.574	29970.49
573.772	30138.42
573.971	30003.25
574.169	29964.34
574.367	29509.69
574.565	29573.18
574.763	29694.01
574.962	29274.18
575.16	29155.4
575.358	29546.56
575.556	28971.08
575.754	29616.19
575.952	28889.16
576.151	29280.32
576.349	28684.36
576.547	28969.03
576.745	28840.01
576.943	28581.96
577.141	28794.95
577.339	28702.79
577.537	28641.35
577.735	28590.16
577.933	28166.23
578.131	28549.2
578.329	27967.57
578.527	27973.72
578.725	28016.72
578.923	28201.04
579.121	27723.86
579.319	27754.58
579.516	27811.93
579.714	27639.9
579.912	27418.72
580.11	27398.24
580.308	27699.29
580.506	27060.32
580.704	26955.88
580.901	27187.3
581.099	27209.82
581.297	26736.74
581.495	26861.67
581.692	27070.56
581.89	26646.63
582.088	26650.73
582.285	26503.28
582.483	26634.35
582.681	26378.35
582.878	26499.18
583.076	25915.51
583.274	26488.94
583.471	25888.88
583.669	26200.18
583.866	26042.48
584.064	26441.84
584.262	25471.1
584.459	26218.61
584.657	25616.51
584.854	25841.78
585.052	25260.16
585.249	25401.47
585.447	25532.54
585.644	25194.62
585.841	25241.73
586.039	25479.29
586.236	24838.28
586.434	25231.49
586.631	24916.1
586.828	24746.12
587.026	24871.04
587.223	24774.79
587.42	24823.94
587.618	24735.88
587.815	24424.59
588.012	24367.24
588.21	24182.93
588.407	24236.17
588.604	23957.65
588.801	23988.37
588.999	24156.3
589.196	24002.71
589.393	24121.49
589.59	24062.1
589.787	24017.04
589.984	23894.16
590.182	23558.3
590.379	23840.92
590.576	23419.03
590.773	23648.41
590.97	23216.29
591.167	23335.07
591.364	23083.17
591.561	23533.72
591.758	23214.24
591.955	23122.08
592.152	23222.43
592.349	23107.74
592.546	23152.8
592.743	23060.64
592.94	22636.71
593.137	22517.93
593.334	22673.57
593.531	22583.46
593.727	22378.67
593.924	22214.83
594.121	22266.03
594.318	22270.12
594.515	22270.12
594.712	22159.53
594.908	21893.3
595.105	22347.95
595.302	21868.72
595.499	21975.22
595.696	21784.76
595.892	21772.47
596.089	21627.06
596.286	21551.29
596.482	21682.36
596.679	21584.05
596.876	21745.84
597.072	21555.38
597.269	21475.51
597.466	21328.06
597.662	21397.69
597.859	21295.29
598.055	21330.11
598.252	20846.79
598.448	21104.83
598.645	21035.2
598.841	20506.82
599.038	20912.32
599.234	20592.84
599.431	20379.85
599.627	20615.37
599.824	20607.17
600.02	20504.78
600.217	20248.78
600.413	20154.57
600.609	20181.2
600.806	20293.83
601.002	20267.21
601.198	19990.73
601.395	20070.61
601.591	19927.25
601.787	20156.62
601.984	19841.23
602.18	19871.95
602.376	19376.34
602.572	19755.22
602.769	19558.61
602.965	19435.74
603.161	19773.65
603.357	19298.52
603.553	19312.86
603.75	19454.17
603.946	19157.21
604.142	19306.71
604.338	18696.42
604.534	19161.31
604.73	18979.04
604.926	18921.7
605.122	18999.52
605.318	18714.85
605.514	18809.06
605.71	18651.36
605.906	18520.29
606.102	18374.89
606.298	18161.9
606.494	18424.04
606.69	18426.09
606.886	18366.7
607.082	17918.19
607.278	18366.7
607.474	17930.48
607.67	18071.79
607.866	17746.16
608.062	18018.54
608.257	17635.57
608.453	17942.77
608.649	17953.01
608.845	17635.57
609.041	17854.7
609.236	17662.19
609.432	17457.4
609.628	17559.8
609.824	17438.97
610.019	17248.5
610.215	17570.04
610.411	17330.42
610.606	17258.74
610.802	17215.74
610.998	17168.63
611.193	17115.39
611.389	17264.89
611.584	16943.36
611.78	16800
611.976	16822.53
612.171	16990.46
612.367	16834.82
612.562	16556.29
612.758	16470.28
612.953	16580.87
613.149	16777.47
613.344	16679.17
613.539	16791.81
613.735	16550.15
613.93	16570.63
614.126	16185.61
614.321	16566.53
614.517	16265.48
614.712	16488.71
614.907	16036.11
615.103	16312.58
615.298	16396.55
615.493	16548.1
615.688	16113.93
615.884	16496.9
616.079	15843.6
616.274	16130.31
616.47	16222.47
616.665	15915.28
616.86	15857.93
617.055	15894.8
617.25	15685.9
617.445	15821.07
617.641	15681.81
617.836	15683.86
618.031	15442.2
618.226	15812.88
618.421	15577.36
618.616	15538.45
618.811	15386.9
619.006	15360.28
619.201	15190.3
619.396	15233.3
619.591	14938.4
619.786	15239.45
619.981	14594.34
620.176	15110.43
620.371	14643.49
620.566	14797.09
620.761	14569.76
620.956	14831.9
621.151	14387.49
621.346	14571.81
621.541	14340.39
621.735	14469.41
621.93	14160.17
622.125	14354.72
622.32	14287.14
622.515	14174.5
622.709	13893.93
622.904	13994.28
623.099	13775.15
623.294	14102.82
623.488	13556.02
623.683	13666.61
623.878	13517.11
624.072	13437.23
624.267	13631.79
624.462	13318.45
624.656	13486.39
624.851	13201.72
625.046	13168.95
625.24	13103.42
625.435	12933.43
625.629	12931.39
625.824	12814.65
626.018	12697.92
626.213	12415.3
626.407	12667.2
626.602	12433.73
626.796	12470.59
626.991	12228.93
627.185	12290.37
627.38	12263.75
627.574	12134.73
627.768	12136.77
627.963	12091.72
628.157	12015.94
628.352	12063.05
628.546	11882.83
628.74	12011.85
628.935	11727.18
629.129	11882.83
629.323	11735.37
629.517	11739.47
629.712	11575.63
629.906	11452.75
630.1	11440.47
630.294	11262.29
630.489	11467.09
630.683	11366.74
630.877	11239.76
631.071	11200.85
631.265	11295.06
631.459	10789.21
631.653	11020.63
631.848	10975.58
632.042	10744.16
632.236	10854.75
632.43	10729.82
632.624	10725.72
632.818	10660.19
633.012	10508.64
633.206	10561.89
633.4	10488.16
633.594	10432.86
633.788	10400.1
633.982	10402.15
634.176	10133.86
634.369	10297.7
634.563	10346.85
634.757	10135.91
634.951	10103.14
635.145	9832.81
635.339	10168.68
635.533	9914.73
635.726	9754.99
635.92	9671.02
636.114	9937.26
636.308	9724.27
636.501	9859.43
636.695	9613.68
636.889	9646.44
637.083	9585.01
637.276	9458.03
637.47	9382.26
637.664	9310.58
637.857	9249.14
638.051	9169.27
638.244	9054.58
638.438	9064.82
638.632	9095.54
638.825	8950.14
639.019	8864.12
639.212	8704.38
639.406	9019.77
639.599	8941.94
639.793	8796.54
639.986	8700.28
640.18	8839.55
640.373	8655.23
640.567	8657.28
640.76	8524.16
640.954	8415.62
641.147	8524.16
641.34	8393.09
641.534	8288.64
641.727	8300.93
641.92	8313.22
642.114	8227.2
642.307	8206.72
642.5	8104.32
642.694	7903.62
642.887	7913.86
643.08	8026.5
643.273	8071.56
643.467	7948.68
643.66	7848.33
643.853	7766.41
644.046	7797.13
644.239	7602.57
644.432	7653.77
644.626	7586.19
644.819	7549.32
645.012	7453.07
645.205	7670.15
645.398	7580.04
645.591	7485.84
645.784	7485.84
645.977	7188.88
646.17	7121.3
646.363	7197.07
646.556	7162.26
646.749	7080.34
646.942	7305.62
647.135	7219.6
647.328	6932.89
647.521	6992.28
647.714	6992.28
647.907	6853.02
648.099	6693.27
648.292	6879.64
648.485	6773.14
648.678	6666.65
648.871	6590.88
649.064	6566.3
649.256	6676.89
649.449	6576.54
649.642	6615.45
649.835	6396.32
650.027	6422.94
650.22	6357.41
650.413	6408.61
650.605	6525.34
650.798	6265.25
650.991	6179.23
651.183	6035.88
651.376	6203.81
651.568	6279.58
651.761	6130.08
651.954	5960.1
652.146	6082.98
652.339	6044.07
652.531	6007.2
652.724	5874.09
652.916	5839.27
653.109	5826.98
653.301	5728.68
653.494	5800.36
653.686	5777.83
653.879	5837.22
654.071	5820.84
654.263	5624.23
654.456	5743.02
654.648	5716.39
654.84	5497.26
655.033	5566.89
655.225	5401.01
655.417	5306.8
655.61	5527.98
655.802	5487.02
655.994	5364.14
656.186	5353.9
656.379	5245.36
656.571	5288.37
656.763	5202.35
656.955	5233.07
657.148	5198.26
657.34	5276.08
657.532	5116.34
657.724	5026.23
657.916	4991.41
658.108	5050.8
658.3	4993.46
658.492	4991.41
658.684	4983.22
658.876	4796.85
659.068	5011.89
659.26	4915.64
659.452	4796.85
659.644	4889.01
659.836	4698.55
660.028	4778.42
660.22	4678.07
660.412	4592.06
660.604	4635.07
660.796	4547
660.988	4583.87
661.18	4618.68
661.372	4493.76
661.563	4710.84
661.755	4479.42
661.947	4446.65
662.139	4532.67
662.331	4379.07
662.522	4391.36
662.714	4235.71
662.906	4288.96
663.097	4184.51
663.289	4231.62
663.481	4245.95
663.673	4211.14
663.864	4090.31
664.056	4082.11
664.247	4102.59
664.439	4133.31
664.631	4155.84
664.822	3918.28
665.014	4090.31
665.205	4020.67
665.397	4016.58
665.588	3957.19
665.78	3912.13
665.971	4024.77
666.163	3922.37
666.354	4020.67
666.546	3873.22
666.737	3725.77
666.929	3811.78
667.12	3760.58
667.311	3690.95
667.503	3717.58
667.694	3455.44
667.885	3629.51
668.077	3666.38
668.268	3613.13
668.459	3637.7
668.651	3760.58
668.842	3568.07
669.033	3731.91
669.224	3600.84
669.416	3541.45
669.607	3602.89
669.798	3539.4
669.989	3594.7
670.18	3467.72
670.371	3465.68
670.563	3408.33
670.754	3652.04
670.945	3361.23
671.136	3529.16
671.327	3305.93
671.518	3379.66
671.709	3391.95
671.9	3320.27
672.091	3373.52
672.282	3281.36
672.473	3340.75
672.664	3504.59
672.855	3156.43
673.046	3273.17
673.237	3228.11
673.428	3203.54
673.619	3178.96
673.809	3103.18
674	3140.05
674.191	3135.95
674.382	3117.52
674.573	3138
674.764	3051.99
674.954	3271.12
675.145	3172.82
675.336	3088.85
675.527	3125.71
675.717	3299.79
675.908	3148.24
676.099	3049.94
676.289	3133.9
676.48	3021.27
676.671	2949.59
676.861	3037.65
677.052	2914.77
677.243	2863.57
677.433	2879.96
677.624	3008.98
677.814	3049.94
678.005	3045.84
678.195	2951.63
678.386	2957.78
678.576	2888.15
678.767	2857.43
678.957	2939.35
679.148	2812.37
679.338	2863.57
679.529	2888.15
679.719	2935.25
679.909	2845.14
680.1	2781.65
680.29	2845.14
680.481	2853.33
680.671	2744.79
680.861	2925.01
681.052	2812.37
681.242	2871.76
681.432	2730.45
681.622	2855.38
681.813	2839
682.003	2720.21
682.193	2812.37
682.383	2781.65
682.573	2732.5
682.764	2675.16
682.954	2769.37
683.144	2734.55
683.334	2718.17
683.524	2730.45
683.714	2681.3
683.904	2738.65
684.094	2650.58
684.284	2636.25
684.474	2683.35
684.664	2750.93
684.854	2679.26
685.044	2660.82
685.234	2583
685.424	2607.58
685.614	2630.1
685.804	2593.24
685.994	2599.38
686.184	2578.9
686.374	2687.45
686.564	2605.53
686.753	2646.49
686.943	2644.44
687.133	2568.66
687.323	2603.48
687.513	2507.23
687.702	2470.36
687.892	2533.85
688.082	2560.47
688.272	2474.46
688.461	2554.33
688.651	2511.32
688.841	2525.66
689.03	2367.96
689.22	2488.79
689.41	2470.36
689.599	2388.44
689.789	2501.08
689.979	2507.23
690.168	2554.33
690.358	2363.87
690.547	2560.47
690.737	2372.06
690.926	2363.87
691.116	2433.5
691.305	2327
691.495	2374.11
691.684	2419.16
691.874	2445.79
692.063	2388.44
692.252	2404.83
692.442	2519.51
692.631	2525.66
692.82	2339.29
693.01	2408.92
693.199	2388.44
693.388	2451.93
693.578	2488.79
693.767	2388.44
693.956	2378.2
694.146	2476.51
694.335	2380.25
694.524	2423.26
694.713	2402.78
694.902	2402.78
695.092	2316.76
695.281	2337.24
695.47	2374.11
695.659	2378.2
695.848	2343.39
696.037	2419.16
696.226	2363.87
696.415	2302.43
696.604	2378.2
696.793	2417.12
696.982	2378.2
697.171	2423.26
697.36	2357.72
697.549	2238.94
697.738	2476.51
697.927	2314.72
698.116	2415.07
698.305	2376.16
698.494	2339.29
698.683	2292.19
698.872	2404.83
699.061	2431.45
699.25	2294.24
699.438	2394.59
699.627	2257.37
699.816	2318.81
700.005	2294.24
700.193	2427.35
700.382	2179.55
700.571	2279.9
700.76	2298.33
700.948	2372.06
701.137	2228.7
701.326	2300.38
701.514	2322.91
701.703	2351.58
701.892	2329.05
702.08	2353.63
702.269	2292.19
702.457	2316.76
702.646	2304.48
702.834	2343.39
703.023	2345.44
703.212	2322.91
703.4	2320.86
703.589	2300.38
703.777	2314.72
703.965	2257.37
704.154	2269.66
704.342	2286.05
704.531	2175.45
704.719	2232.8
704.907	2261.47
705.096	2269.66
705.284	2259.42
705.472	2226.65
705.661	2316.76
705.849	2122.21
706.037	2154.98
706.226	2314.72
706.414	2216.41
706.602	2234.85
706.79	2195.93
706.979	2230.75
707.167	2079.2
707.355	2085.34
707.543	2222.56
707.731	2154.98
707.919	2142.69
708.107	2181.6
708.296	2071.01
708.484	2183.65
708.672	2062.82
708.86	2107.87
709.048	2183.65
709.236	2079.2
709.424	2011.62
709.612	2068.96
709.8	2040.29
709.988	2111.97
710.176	2066.91
710.364	2068.96
710.551	2032.1
710.739	1987.04
710.927	2066.91
711.115	1923.55
711.303	2001.38
711.491	2085.34
711.679	1892.84
711.866	1997.28
712.054	1919.46
712.242	1980.9
712.43	1917.41
712.617	2017.76
712.805	1931.75
712.993	1970.66
713.181	1903.07
713.368	1984.99
713.556	1956.32
713.744	1872.36
713.931	1866.21
714.119	1913.31
714.306	1950.18
714.494	1878.5
714.682	1884.64
714.869	1905.12
715.057	1976.8
715.244	1890.79
715.432	1913.31
715.619	1776.1
715.807	1810.92
715.994	1765.86
716.182	1858.02
716.369	2003.43
716.556	1790.44
716.744	1866.21
716.931	1690.09
717.119	1739.24
717.306	1843.68
717.493	1874.4
717.681	1688.04
717.868	1847.78
718.055	1790.44
718.242	1755.62
718.43	1782.24
718.617	1802.72
718.804	1720.81
718.991	1704.42
719.179	1673.7
719.366	1698.28
719.553	1780.2
719.74	1661.41
719.927	1757.67
720.114	1620.46
720.301	1700.33
720.488	1630.7
720.676	1616.36
720.863	1763.81
721.05	1679.85
721.237	1563.11
721.424	1647.08
721.611	1700.33
721.798	1624.55
721.985	1679.85
722.172	1710.57
722.358	1593.83
722.545	1593.83
722.732	1663.46
722.919	1624.55
723.106	1563.11
723.293	1632.74
723.48	1483.24
723.667	1481.19
723.853	1663.46
724.04	1573.35
724.227	1518.06
724.414	1483.24
724.6	1530.34
724.787	1507.82
724.974	1489.39
725.161	1532.39
725.347	1495.53
725.534	1511.91
725.72	1534.44
725.907	1505.77
726.094	1432.04
726.28	1462.76
726.467	1458.67
726.653	1528.3
726.84	1550.82
727.027	1473
727.213	1450.47
727.4	1362.41
727.586	1473
727.773	1485.29
727.959	1432.04
728.145	1415.66
728.332	1337.84
728.518	1358.32
728.705	1425.9
728.891	1448.43
729.077	1305.07
729.264	1448.43
729.45	1389.03
729.636	1417.71
729.823	1417.71
730.009	1384.94
730.195	1352.17
730.382	1300.97
730.568	1292.78
730.754	1432.04
730.94	1368.56
731.126	1397.23
731.313	1378.79
731.499	1292.78
731.685	1397.23
731.871	1346.03
732.057	1397.23
732.243	1442.28
732.429	1255.92
732.615	1352.17
732.801	1346.03
732.987	1339.88
733.173	1186.29
733.359	1212.91
733.545	1202.67
733.731	1292.78
733.917	1350.12
734.103	1253.87
734.289	1239.53
734.475	1317.36
734.661	1352.17
734.847	1245.68
735.033	1204.72
735.219	1251.82
735.404	1249.77
735.59	1063.41
735.776	1165.81
735.962	1198.57
736.148	1307.12
736.333	1217.01
736.519	1214.96
736.705	1212.91
736.89	1188.33
737.076	1196.53
737.262	1225.2
737.447	1141.23
737.633	1194.48
737.819	1190.38
738.004	1075.7
738.19	1143.28
738.375	1239.53
738.561	1247.72
738.747	1206.77
738.932	1161.71
739.118	1126.89
739.303	1174
739.489	1190.38
739.674	1155.57
739.859	1204.72
740.045	1133.04
740.23	1227.25
740.416	1092.08
740.601	1167.85
740.786	1106.42
740.972	1149.42
741.157	1090.03
741.342	1071.6
741.528	1055.22
741.713	1047.02
741.898	1077.74
742.084	1057.26
742.269	1014.26
742.454	1157.61
742.639	1137.13
742.824	1085.94
743.01	993.78
743.195	1014.26
743.38	1032.69
743.565	967.15
743.75	1087.98
743.935	1026.54
744.12	1073.65
744.305	1051.12
744.49	934.39
744.675	965.11
744.86	950.77
745.045	1018.35
745.23	1092.08
745.415	1032.69
745.6	934.39
745.785	915.95
745.97	1057.26
746.155	961.01
746.34	946.67
746.525	952.82
746.71	981.49
746.895	995.82
747.079	909.81
747.264	934.39
747.449	885.23
747.634	971.25
747.819	899.57
748.003	915.95
748.188	958.96
748.373	932.34
748.557	893.43
748.742	807.41
748.927	911.86
749.111	872.95
749.296	799.22
749.481	881.14
749.665	834.04
749.85	889.33
750.034	889.33
750.219	821.75
750.404	819.7
750.588	856.56
750.773	768.5
750.957	844.28
751.141	854.51
751.326	895.47
751.51	762.36
751.695	825.84
751.879	750.07
752.064	825.84
752.248	864.75
752.432	719.35
752.617	727.54
752.801	764.4
752.985	797.17
753.17	776.69
753.354	782.84
753.538	731.64
753.722	725.49
753.907	768.5
754.091	719.35
754.275	725.49
754.459	719.35
754.643	737.78
754.828	686.58
755.012	743.92
755.196	639.48
755.38	758.26
755.564	721.4
755.748	766.45
755.932	668.15
756.116	750.07
756.3	700.92
756.484	686.58
756.668	674.29
756.852	662.01
757.036	709.11
757.22	668.15
757.404	647.67
757.588	651.77
757.772	774.64
757.956	688.63
758.14	571.9
758.323	592.37
758.507	627.19
758.691	721.4
758.875	629.24
759.059	676.34
759.242	664.05
759.426	639.48
759.61	682.49
759.794	670.2
759.977	592.37
760.161	709.11
760.345	571.9
760.528	614.9
760.712	633.33
760.895	545.27
761.079	547.32
761.263	631.29
761.446	549.37
761.63	569.85
761.813	496.12
761.997	578.04
762.18	569.85
762.364	496.12
762.547	506.36
762.731	561.66
762.914	578.04
763.098	563.7
763.281	510.46
763.464	535.03
763.648	571.9
763.831	557.56
764.015	532.98
764.198	535.03
764.381	569.85
764.564	481.78
764.748	565.75
764.931	604.66
765.114	559.61
765.297	506.36
765.481	535.03
765.664	543.22
765.847	580.09
766.03	530.94
766.213	528.89
766.397	496.12
766.58	506.36
766.763	573.94
766.946	498.17
767.129	451.07
767.312	412.15
767.495	528.89
767.678	481.78
767.861	545.27
768.044	492.02
768.227	467.45
768.41	492.02
768.593	424.44
768.776	500.22
768.959	518.65
769.142	492.02
769.324	475.64
769.507	455.16
769.69	487.93
769.873	494.07
770.056	508.41
770.239	496.12
770.421	485.88
770.604	545.27
770.787	406.01
770.97	455.16
771.152	485.88
771.335	487.93
771.518	451.07
771.7	512.5
771.883	424.44
772.066	498.17
772.248	395.77
772.431	426.49
772.613	444.92
772.796	358.91
772.978	422.39
773.161	434.68
773.343	473.59
773.526	340.47
773.708	395.77
773.891	387.58
774.073	487.93
774.256	373.24
774.438	395.77
774.621	440.83
774.803	496.12
774.985	401.91
775.168	336.38
775.35	344.57
775.532	471.54
775.715	317.95
775.897	381.43
776.079	418.3
776.261	408.06
776.444	391.67
776.626	346.62
776.808	373.24
776.99	399.87
777.173	365.05
777.355	381.43
777.537	348.67
777.719	354.81
777.901	371.19
778.083	389.63
778.265	320
778.447	379.39
778.629	399.87
778.811	320
778.993	328.19
779.175	340.47
779.357	201.21
779.539	344.57
779.721	320
779.903	346.62
780.085	334.33
780.267	410.11
780.449	297.47
780.631	336.38
780.812	311.8
780.994	340.47
781.176	354.81
781.358	227.84
781.54	303.61
781.721	283.13
781.903	254.46
782.085	303.61
782.267	283.13
782.448	293.37
782.63	365.05
782.812	309.76
782.993	276.99
783.175	244.22
783.357	246.27
783.538	315.9
783.72	248.32
783.901	315.9
784.083	197.12
784.264	279.04
784.446	242.17
784.627	199.16
784.809	203.26
784.99	256.51
785.172	305.66
785.353	233.98
785.535	248.32
785.716	244.22
785.897	260.6
786.079	330.23
786.26	287.23
786.441	223.74
786.623	219.64
786.804	254.46
786.985	303.61
787.167	272.89
787.348	266.75
787.529	213.5
787.71	213.5
787.891	322.04
788.073	231.93
788.254	223.74
788.435	266.75
788.616	207.36
788.797	211.45
788.978	231.93
789.159	209.4
789.34	193.02
789.522	145.92
789.703	225.79
789.884	211.45
790.065	238.08
790.246	131.58
790.427	180.73
790.607	313.85
790.788	205.31
790.969	231.93
791.15	199.16
791.331	227.84
791.512	113.15
791.693	283.13
791.874	193.02
792.054	147.97
792.235	209.4
792.416	162.3
792.597	164.35
792.778	264.7
792.958	215.55
793.139	147.97
793.32	281.08
793.5	143.87
793.681	166.4
793.862	113.15
794.042	213.5
794.223	123.39
794.404	184.83
794.584	154.11
794.765	107.01
794.945	152.06
795.126	109.05
795.306	178.69
795.487	160.25
795.667	133.63
795.848	158.21
796.028	119.29
796.209	240.12
796.389	107.01
796.57	123.39
796.75	162.3
796.93	209.4
797.111	143.87
797.291	135.68
797.471	145.92
797.652	207.36
797.832	162.3
798.012	190.97
798.192	72.19
798.373	147.97
798.553	213.5
798.733	80.38
798.913	156.16
799.093	174.59
799.274	119.29
799.454	174.59
799.634	135.68
799.814	150.01
799.994	143.87
800.174	219.64
800.354	100.86
800.534	162.3
800.714	59.9
800.894	147.97
801.074	162.3
801.254	78.33
801.434	174.59
801.614	193.02
801.794	111.1
801.974	274.94
802.154	147.97
802.334	137.73
802.514	176.64
802.693	80.38
802.873	176.64
803.053	150.01
803.233	70.14
803.413	147.97
803.592	125.44
803.772	156.16
803.952	160.25
804.131	133.63
804.311	127.49
804.491	188.93
804.67	133.63
804.85	195.07
805.03	31.23
805.209	119.29
805.389	66.05
805.568	113.15
805.748	59.9
805.928	119.29
806.107	117.25
806.287	121.34
806.466	111.1
806.646	115.2
806.825	164.35
807.004	39.42
807.184	129.53
807.363	59.9
807.543	100.86
807.722	107.01
807.901	121.34
808.081	121.34
808.26	100.86
808.439	129.53
808.619	133.63
808.798	84.48
808.977	100.86
809.156	76.29
809.336	55.81
809.515	80.38
809.694	76.29
809.873	129.53
810.052	49.66
810.231	100.86
810.411	76.29
810.59	131.58
810.769	76.29
810.948	160.25
811.127	109.05
811.306	109.05
811.485	88.57
811.664	49.66
811.843	88.57
812.022	74.24
812.201	150.01
812.38	113.15
812.559	145.92
812.737	74.24
812.916	78.33
813.095	59.9
813.274	121.34
813.453	16.9
813.632	61.95
813.811	129.53
813.989	162.3
814.168	70.14
814.347	102.91
814.526	102.91
814.704	43.52
814.883	113.15
815.062	66.05
815.24	66.05
815.419	64
815.598	61.95
815.776	57.86
815.955	94.72
816.133	133.63
816.312	88.57
816.49	88.57
816.669	-3.58
816.847	59.9
817.026	70.14
817.204	125.44
817.383	137.73
817.561	68.09
817.74	66.05
817.918	47.62
818.097	104.96
818.275	31.23
818.453	74.24
818.632	61.95
818.81	47.62
818.988	68.09
819.167	33.28
819.345	55.81
819.523	12.8
819.701	109.05
819.879	78.33
820.058	92.67
820.236	100.86
820.414	80.38
820.592	37.38
820.77	33.28
820.948	80.38
821.127	102.91
821.305	78.33
821.483	98.81
821.661	45.57
821.839	57.86
822.017	59.9
822.195	12.8
822.373	51.71
822.551	94.72
822.729	121.34
822.907	66.05
823.085	66.05
823.262	-11.78
823.44	53.76
823.618	-17.92
823.796	41.47
823.974	37.38
824.152	4.61
824.329	45.57
824.507	78.33
824.685	37.38
824.863	70.14
825.04	39.42
825.218	27.14
825.396	-5.63
825.574	84.48
825.751	8.7
825.929	86.53
826.107	27.14
826.284	-28.16
826.462	113.15
826.639	10.75
826.817	55.81
826.994	18.94
827.172	2.56
827.349	84.48
827.527	23.04
827.704	96.77
827.882	39.42
828.059	33.28
828.237	20.99
828.414	66.05
828.591	59.9
828.769	-5.63
828.946	72.19
829.124	84.48
829.301	55.81
829.478	88.57
829.655	86.53
829.833	55.81
830.01	2.56
830.187	115.2
830.364	55.81
830.542	104.96
830.719	-34.3
830.896	127.49
831.073	37.38
831.25	111.1
831.427	25.09
831.604	-7.68
831.782	92.67
831.959	51.71
832.136	55.81
832.313	18.94
832.49	23.04
832.667	59.9
832.844	84.48
833.021	61.95
833.198	61.95
833.374	12.8
833.551	41.47
833.728	104.96
833.905	96.77
834.082	74.24
834.259	10.75
834.436	-5.63
834.612	80.38
834.789	111.1
834.966	80.38
835.143	4.61
835.319	41.47
835.496	47.62
835.673	98.81
835.85	61.95
836.026	14.85
836.203	59.9
836.38	0.51
836.556	0.51
836.733	109.05
836.909	82.43
837.086	-32.26
837.262	43.52
837.439	94.72
837.616	64
837.792	-5.63
837.968	74.24
838.145	-5.63
838.321	64
838.498	-11.78
838.674	-15.87
838.851	14.85
839.027	31.23
839.203	100.86
839.38	-36.35
839.556	6.66
839.732	23.04
839.909	-7.68
840.085	-26.11
840.261	-13.82
840.437	80.38
840.614	-11.78
840.79	18.94
840.966	43.52
841.142	14.85
841.318	-17.92
841.494	-71.17
841.671	51.71
841.847	-44.54
842.023	92.67
842.199	129.53
842.375	29.18
842.551	51.71
842.727	35.33
842.903	29.18
843.079	20.99
843.255	45.57
843.431	90.62
843.607	12.8
843.783	0.51
843.959	12.8
844.134	39.42
844.31	107.01
844.486	39.42
844.662	12.8
844.838	39.42
845.013	14.85
845.189	-5.63
845.365	-1.54
845.541	61.95
845.716	31.23
845.892	-5.63
846.068	33.28
846.244	41.47
846.419	8.7
846.595	31.23
846.77	72.19
846.946	49.66
847.122	20.99
847.297	68.09
847.473	113.15
847.648	18.94
847.824	59.9
847.999	-30.21
848.175	74.24
848.35	61.95
848.526	88.57
848.701	-26.11
848.876	74.24
849.052	111.1
849.227	18.94
849.403	4.61
849.578	-5.63
849.753	-13.82
849.929	78.33
850.104	39.42
850.279	29.18
850.454	18.94
850.63	-34.3
850.805	70.14
850.98	90.62
851.155	39.42
851.33	20.99
851.505	45.57
851.681	16.9
851.856	29.18
852.031	-1.54
852.206	55.81
852.381	-1.54
852.556	27.14
852.731	51.71
852.906	4.61
853.081	-28.16
853.256	39.42
853.431	-15.87
853.606	55.81
853.781	66.05
853.956	90.62
854.131	2.56
854.305	-11.78
854.48	39.42
854.655	12.8
854.83	25.09
855.005	51.71
855.18	78.33
855.354	-15.87
855.529	-5.63
855.704	31.23
855.879	-22.02
856.053	70.14
856.228	12.8
856.403	20.99
856.577	0.51
856.752	27.14
856.926	-9.73
857.101	6.66
857.276	-32.26
857.45	57.86
857.625	64
857.799	33.28
857.974	92.67
858.148	-11.78
858.323	18.94
858.497	-1.54
858.672	51.71
858.846	55.81
859.02	-40.45
859.195	-3.58
859.369	82.43
859.543	0.51
859.718	-15.87
859.892	-11.78
860.066	12.8
860.241	6.66
860.415	8.7
860.589	4.61
860.763	6.66
860.938	66.05
861.112	49.66
861.286	-42.5
861.46	27.14
861.634	43.52
861.808	43.52
861.982	8.7
862.157	-22.02
862.331	-24.06
862.505	25.09
862.679	2.56
862.853	6.66
863.027	-17.92
863.201	-24.06
863.375	-15.87
863.549	2.56
863.722	8.7
863.896	88.57
864.07	-5.63
864.244	18.94
864.418	6.66
864.592	-1.54
864.766	64
864.939	10.75
865.113	-19.97
865.287	-9.73
865.461	-17.92
865.634	27.14
865.808	-38.4
865.982	23.04
866.156	-34.3
866.329	8.7
866.503	-69.12
866.676	57.86
866.85	31.23
867.024	-60.93
867.197	37.38
867.371	61.95
867.544	-13.82
867.718	-36.35
867.891	37.38
868.065	10.75
868.238	-3.58
868.412	16.9
868.585	33.28
868.759	39.42
868.932	-5.63
869.105	-1.54
869.279	33.28
869.452	61.95
869.625	25.09
869.799	61.95
869.972	-101.89
870.145	6.66
870.319	70.14
870.492	-36.35
870.665	121.34
870.838	-1.54
871.011	-1.54
871.185	20.99
871.358	39.42
871.531	33.28
871.704	20.99
871.877	12.8
872.05	-3.58
872.223	47.62
872.396	-42.5
872.569	23.04
872.742	-9.73
872.915	-28.16
873.088	0.51
873.261	-7.68
873.434	70.14
873.607	49.66
873.78	-15.87
873.953	78.33
874.126	-22.02
874.299	68.09
874.471	-3.58
874.644	39.42
874.817	57.86
874.99	47.62
875.163	-5.63
875.335	25.09
875.508	66.05
875.681	-32.26
875.853	-9.73
876.026	27.14
876.199	-30.21
876.371	39.42
876.544	-9.73
876.717	23.04
876.889	29.18
877.062	39.42
877.234	-30.21
877.407	-52.74
877.579	0.51
877.752	12.8
877.924	-81.41
878.097	64
878.269	-36.35
878.442	35.33
878.614	23.04
878.786	29.18
878.959	41.47
879.131	57.86
879.303	43.52
879.476	55.81
879.648	-34.3
879.82	-22.02
879.993	-3.58
880.165	43.52
880.337	20.99
880.509	-34.3
880.681	-22.02
880.854	0.51
881.026	41.47
881.198	78.33
881.37	37.38
881.542	61.95
881.714	-22.02
881.886	-38.4
882.058	-50.69
882.23	-75.26
882.402	-5.63
882.574	-38.4
882.746	35.33
882.918	-3.58
883.09	31.23
883.262	27.14
883.434	20.99
883.606	-24.06
883.778	-71.17
883.95	18.94
884.122	35.33
884.293	47.62
884.465	-11.78
884.637	8.7
884.809	6.66
884.98	12.8
885.152	2.56
885.324	-7.68
885.496	16.9
885.667	2.56
885.839	16.9
886.011	45.57
886.182	-15.87
886.354	-1.54
886.525	16.9
886.697	-54.78
886.869	-52.74
887.04	31.23
887.212	-24.06
887.383	0.51
887.555	-22.02
887.726	82.43
887.897	-110.08
888.069	-3.58
888.24	20.99
888.412	-38.4
888.583	-17.92
888.754	29.18
888.926	-44.54
889.097	31.23
889.268	-28.16
889.44	37.38
889.611	-40.45
889.782	10.75
889.953	-19.97
890.125	39.42
890.296	59.9
890.467	6.66
890.638	80.38
890.809	-15.87
890.98	53.76
891.151	80.38
891.323	43.52
891.494	-3.58
891.665	-28.16
891.836	-17.92
892.007	20.99
892.178	4.61
892.349	-5.63
892.52	6.66
892.691	8.7
892.862	-11.78
893.032	37.38
893.203	39.42
893.374	-34.3
893.545	6.66
893.716	2.56
893.887	33.28
894.057	-60.93
894.228	-22.02
894.399	-28.16
894.57	61.95
894.74	-34.3
894.911	-26.11
895.082	16.9
895.253	-11.78
895.423	-40.45
895.594	-11.78
895.764	-9.73
895.935	-24.06
896.106	4.61
896.276	-56.83
896.447	10.75
896.617	25.09
896.788	12.8
896.958	23.04
897.129	55.81
897.299	43.52
897.47	12.8
897.64	64
897.81	2.56
897.981	57.86
898.151	-3.58
898.322	18.94
898.492	-9.73
898.662	12.8
898.832	25.09
899.003	20.99
899.173	-34.3
899.343	-42.5
899.513	-36.35
