Data from USB4F104151__231__14-00-48-860.txt Node

Date: Thu Mar 13 14:00:48 EDT 2025
User: louis
Spectrometer: USB4F10415
Trigger mode: 4
Integration Time (sec): 1.000000E-2
Scans to average: 1
Electric dark correction enabled: true
Nonlinearity correction enabled: false
Boxcar width: 0
XAxis mode: Wavelengths
Number of Pixels in Spectrum: 3648
>>>>>Begin Spectral Data<<<<<
178.204	-70.65
178.424	-70.65
178.644	-70.65
178.864	-11.26
179.084	-41.98
179.304	-15.36
179.524	17.41
179.744	-58.37
179.964	33.79
180.184	44.03
180.404	13.31
180.624	9.22
180.844	15.36
181.064	-11.26
181.283	-1.02
181.503	-56.32
181.723	9.22
181.943	72.7
182.163	-25.6
182.383	39.94
182.602	27.65
182.822	17.41
183.042	9.22
183.262	39.94
183.482	7.17
183.701	17.41
183.921	19.46
184.141	15.36
184.361	-23.55
184.58	33.79
184.8	-7.17
185.02	-46.08
185.239	37.89
185.459	33.79
185.679	27.65
185.898	17.41
186.118	107.52
186.338	25.6
186.557	80.89
186.777	44.03
186.997	-9.22
187.216	13.31
187.436	-11.26
187.655	-46.08
187.875	89.09
188.095	-31.74
188.314	-17.41
188.534	56.32
188.753	-9.22
188.973	52.22
189.192	74.75
189.412	-13.31
189.631	37.89
189.851	-3.07
190.07	17.41
190.29	-33.79
190.509	5.12
190.729	72.7
190.948	-13.31
191.168	7.17
191.387	74.75
191.607	41.98
191.826	-19.46
192.045	15.36
192.265	11.26
192.484	-17.41
192.704	80.89
192.923	27.65
193.142	1.02
193.362	23.55
193.581	25.6
193.8	27.65
194.02	9.22
194.239	29.7
194.458	25.6
194.678	46.08
194.897	31.74
195.116	64.51
195.335	84.99
195.555	-50.18
195.774	-13.31
195.993	25.6
196.212	-3.07
196.432	48.13
196.651	-41.98
196.87	46.08
197.089	-15.36
197.308	74.75
197.528	5.12
197.747	39.94
197.966	35.84
198.185	-3.07
198.404	-41.98
198.623	-23.55
198.842	25.6
199.062	27.65
199.281	82.94
199.5	31.74
199.719	23.55
199.938	-33.79
200.157	52.22
200.376	-35.84
200.595	15.36
200.814	7.17
201.033	50.18
201.252	-9.22
201.471	-1.02
201.69	62.46
201.909	-15.36
202.128	60.42
202.347	25.6
202.566	-7.17
202.785	-31.74
203.004	-13.31
203.223	-23.55
203.442	80.89
203.661	56.32
203.879	39.94
204.098	-9.22
204.317	58.37
204.536	21.5
204.755	33.79
204.974	31.74
205.193	68.61
205.411	48.13
205.63	-64.51
205.849	31.74
206.068	52.22
206.287	15.36
206.505	-1.02
206.724	-17.41
206.943	78.85
207.162	13.31
207.381	41.98
207.599	19.46
207.818	3.07
208.037	27.65
208.255	15.36
208.474	87.04
208.693	3.07
208.911	80.89
209.13	76.8
209.349	52.22
209.567	60.42
209.786	3.07
210.005	-7.17
210.223	-3.07
210.442	19.46
210.661	3.07
210.879	27.65
211.098	70.65
211.316	64.51
211.535	68.61
211.753	23.55
211.972	52.22
212.191	7.17
212.409	23.55
212.628	-21.5
212.846	35.84
213.065	99.33
213.283	33.79
213.502	15.36
213.72	25.6
213.938	17.41
214.157	113.66
214.375	60.42
214.594	-13.31
214.812	44.03
215.031	31.74
215.249	-19.46
215.467	1.02
215.686	9.22
215.904	44.03
216.122	5.12
216.341	74.75
216.559	-37.89
216.778	68.61
216.996	46.08
217.214	13.31
217.432	-13.31
217.651	-37.89
217.869	-5.12
218.087	-13.31
218.306	60.42
218.524	27.65
218.742	56.32
218.96	109.57
219.179	31.74
219.397	25.6
219.615	64.51
219.833	35.84
220.051	50.18
220.27	70.65
220.488	25.6
220.706	64.51
220.924	60.42
221.142	-39.94
221.36	-5.12
221.578	-21.5
221.796	15.36
222.015	87.04
222.233	17.41
222.451	54.27
222.669	15.36
222.887	-11.26
223.105	58.37
223.323	82.94
223.541	60.42
223.759	44.03
223.977	66.56
224.195	74.75
224.413	11.26
224.631	1.02
224.849	19.46
225.067	56.32
225.285	-37.89
225.503	48.13
225.721	31.74
225.939	58.37
226.157	93.18
226.375	87.04
226.592	48.13
226.81	21.5
227.028	11.26
227.246	23.55
227.464	23.55
227.682	-1.02
227.9	17.41
228.117	-5.12
228.335	21.5
228.553	89.09
228.771	-17.41
228.989	35.84
229.206	37.89
229.424	-48.13
229.642	-3.07
229.86	41.98
230.077	-5.12
230.295	11.26
230.513	-70.65
230.731	48.13
230.948	-11.26
231.166	78.85
231.384	41.98
231.601	27.65
231.819	21.5
232.037	27.65
232.254	-17.41
232.472	113.66
232.689	9.22
232.907	-7.17
233.125	17.41
233.342	5.12
233.56	31.74
233.777	117.76
233.995	-72.7
234.213	39.94
234.43	19.46
234.648	50.18
234.865	-13.31
235.083	76.8
235.3	-19.46
235.518	29.7
235.735	97.28
235.953	17.41
236.17	-7.17
236.388	-29.7
236.605	-27.65
236.822	7.17
237.04	48.13
237.257	41.98
237.475	-7.17
237.692	19.46
237.909	99.33
238.127	23.55
238.344	-29.7
238.562	130.05
238.779	7.17
238.996	-56.32
239.214	64.51
239.431	-33.79
239.648	93.18
239.865	-9.22
240.083	80.89
240.3	-7.17
240.517	19.46
240.735	25.6
240.952	31.74
241.169	3.07
241.386	-41.98
241.603	13.31
241.821	11.26
242.038	-31.74
242.255	39.94
242.472	17.41
242.689	23.55
242.907	39.94
243.124	23.55
243.341	23.55
243.558	-72.7
243.775	-7.17
243.992	7.17
244.209	5.12
244.426	58.37
244.643	-29.7
244.86	60.42
245.078	-7.17
245.295	29.7
245.512	41.98
245.729	1.02
245.946	31.74
246.163	62.46
246.38	44.03
246.597	11.26
246.814	11.26
247.031	-31.74
247.248	29.7
247.464	21.5
247.681	78.85
247.898	48.13
248.115	-17.41
248.332	-52.22
248.549	54.27
248.766	33.79
248.983	91.13
249.2	19.46
249.417	48.13
249.633	-19.46
249.85	5.12
250.067	91.13
250.284	105.47
250.501	-44.03
250.717	48.13
250.934	9.22
251.151	27.65
251.368	37.89
251.585	21.5
251.801	56.32
252.018	11.26
252.235	29.7
252.451	56.32
252.668	46.08
252.885	33.79
253.102	54.27
253.318	48.13
253.535	21.5
253.752	-21.5
253.968	-7.17
254.185	7.17
254.401	-25.6
254.618	25.6
254.835	-1.02
255.051	72.7
255.268	15.36
255.484	66.56
255.701	52.22
255.917	66.56
256.134	82.94
256.351	44.03
256.567	25.6
256.784	35.84
257	27.65
257.217	56.32
257.433	97.28
257.65	3.07
257.866	-70.65
258.082	11.26
258.299	-15.36
258.515	-7.17
258.732	-23.55
258.948	130.05
259.165	-11.26
259.381	39.94
259.597	-56.32
259.814	50.18
260.03	21.5
260.246	-17.41
260.463	50.18
260.679	64.51
260.895	-7.17
261.112	31.74
261.328	-1.02
261.544	37.89
261.761	21.5
261.977	35.84
262.193	48.13
262.409	41.98
262.626	-58.37
262.842	56.32
263.058	27.65
263.274	80.89
263.49	52.22
263.707	-5.12
263.923	68.61
264.139	31.74
264.355	11.26
264.571	31.74
264.787	50.18
265.004	37.89
265.22	11.26
265.436	-1.02
265.652	46.08
265.868	72.7
266.084	25.6
266.3	29.7
266.516	31.74
266.732	17.41
266.948	68.61
267.164	23.55
267.38	29.7
267.596	74.75
267.812	23.55
268.028	7.17
268.244	93.18
268.46	50.18
268.676	37.89
268.892	13.31
269.108	-21.5
269.324	25.6
269.54	74.75
269.756	117.76
269.972	-41.98
270.188	21.5
270.403	-15.36
270.619	31.74
270.835	-17.41
271.051	-25.6
271.267	46.08
271.483	44.03
271.698	19.46
271.914	-1.02
272.13	31.74
272.346	56.32
272.562	72.7
272.777	64.51
272.993	21.5
273.209	7.17
273.425	-9.22
273.64	5.12
273.856	48.13
274.072	95.23
274.287	11.26
274.503	31.74
274.719	80.89
274.934	1.02
275.15	39.94
275.366	50.18
275.581	3.07
275.797	-13.31
276.012	-15.36
276.228	3.07
276.444	3.07
276.659	44.03
276.875	64.51
277.09	82.94
277.306	-1.02
277.521	25.6
277.737	-7.17
277.952	48.13
278.168	56.32
278.383	97.28
278.599	9.22
278.814	-58.37
279.03	-52.22
279.245	66.56
279.461	-19.46
279.676	5.12
279.892	50.18
280.107	58.37
280.322	50.18
280.538	-19.46
280.753	58.37
280.969	17.41
281.184	-3.07
281.399	9.22
281.615	31.74
281.83	56.32
282.045	-9.22
282.26	-1.02
282.476	-3.07
282.691	-33.79
282.906	48.13
283.122	64.51
283.337	25.6
283.552	54.27
283.767	27.65
283.983	-29.7
284.198	84.99
284.413	9.22
284.628	23.55
284.843	105.47
285.058	-5.12
285.274	29.7
285.489	-33.79
285.704	72.7
285.919	17.41
286.134	72.7
286.349	-1.02
286.564	-1.02
286.779	17.41
286.995	39.94
287.21	58.37
287.425	39.94
287.64	33.79
287.855	15.36
288.07	17.41
288.285	76.8
288.5	29.7
288.715	74.75
288.93	31.74
289.145	9.22
289.36	41.98
289.575	39.94
289.79	58.37
290.004	105.47
290.219	11.26
290.434	58.37
290.649	46.08
290.864	72.7
291.079	-15.36
291.294	80.89
291.509	-70.65
291.724	64.51
291.938	13.31
292.153	15.36
292.368	-17.41
292.583	117.76
292.798	7.17
293.012	56.32
293.227	68.61
293.442	44.03
293.657	54.27
293.871	35.84
294.086	-15.36
294.301	39.94
294.516	35.84
294.73	44.03
294.945	97.28
295.16	39.94
295.374	11.26
295.589	-33.79
295.804	21.5
296.018	52.22
296.233	-78.85
296.447	-1.02
296.662	121.85
296.877	11.26
297.091	33.79
297.306	-3.07
297.52	82.94
297.735	17.41
297.949	39.94
298.164	48.13
298.378	46.08
298.593	23.55
298.807	29.7
299.022	-23.55
299.236	-5.12
299.451	107.52
299.665	35.84
299.88	87.04
300.094	15.36
300.309	41.98
300.523	66.56
300.737	60.42
300.952	48.13
301.166	29.7
301.381	15.36
301.595	-13.31
301.809	46.08
302.024	48.13
302.238	-11.26
302.452	64.51
302.667	91.13
302.881	105.47
303.095	-5.12
303.309	31.74
303.524	-54.27
303.738	21.5
303.952	-13.31
304.166	25.6
304.381	-7.17
304.595	87.04
304.809	23.55
305.023	113.66
305.237	72.7
305.452	-107.52
305.666	29.7
305.88	41.98
306.094	44.03
306.308	121.85
306.522	7.17
306.736	-7.17
306.95	91.13
307.164	17.41
307.379	-27.65
307.593	-7.17
307.807	23.55
308.021	99.33
308.235	15.36
308.449	9.22
308.663	97.28
308.877	123.9
309.091	56.32
309.305	70.65
309.519	68.61
309.733	-33.79
309.947	31.74
310.161	-1.02
310.374	68.61
310.588	25.6
310.802	-60.42
311.016	50.18
311.23	-15.36
311.444	39.94
311.658	82.94
311.872	56.32
312.085	48.13
312.299	-23.55
312.513	52.22
312.727	-21.5
312.941	39.94
313.154	56.32
313.368	17.41
313.582	-7.17
313.796	31.74
314.009	99.33
314.223	23.55
314.437	72.7
314.651	-74.75
314.864	109.57
315.078	46.08
315.292	31.74
315.505	-17.41
315.719	44.03
315.933	-48.13
316.146	72.7
316.36	-15.36
316.573	27.65
316.787	23.55
317.001	84.99
317.214	37.89
317.428	70.65
317.641	-11.26
317.855	29.7
318.068	91.13
318.282	25.6
318.495	25.6
318.709	107.52
318.922	39.94
319.136	23.55
319.349	9.22
319.563	89.09
319.776	31.74
319.99	15.36
320.203	19.46
320.417	68.61
320.63	-9.22
320.843	50.18
321.057	27.65
321.27	33.79
321.483	-17.41
321.697	23.55
321.91	-37.89
322.124	37.89
322.337	97.28
322.55	37.89
322.763	72.7
322.977	19.46
323.19	-33.79
323.403	58.37
323.617	39.94
323.83	68.61
324.043	72.7
324.256	21.5
324.469	-1.02
324.683	91.13
324.896	3.07
325.109	52.22
325.322	37.89
325.535	66.56
325.748	44.03
325.962	-11.26
326.175	56.32
326.388	31.74
326.601	3.07
326.814	17.41
327.027	25.6
327.24	82.94
327.453	-1.02
327.666	31.74
327.879	56.32
328.092	35.84
328.305	72.7
328.518	-7.17
328.731	9.22
328.944	31.74
329.157	33.79
329.37	99.33
329.583	52.22
329.796	-17.41
330.009	41.98
330.222	54.27
330.435	68.61
330.648	39.94
330.861	33.79
331.073	46.08
331.286	66.56
331.499	21.5
331.712	52.22
331.925	15.36
332.138	9.22
332.35	13.31
332.563	37.89
332.776	66.56
332.989	31.74
333.202	19.46
333.414	1.02
333.627	3.07
333.84	80.89
334.053	78.85
334.265	3.07
334.478	48.13
334.691	-21.5
334.903	23.55
335.116	44.03
335.329	31.74
335.541	15.36
335.754	9.22
335.966	66.56
336.179	23.55
336.392	23.55
336.604	25.6
336.817	74.75
337.029	109.57
337.242	15.36
337.454	48.13
337.667	-7.17
337.88	52.22
338.092	48.13
338.305	13.31
338.517	58.37
338.729	50.18
338.942	17.41
339.154	109.57
339.367	-48.13
339.579	74.75
339.792	52.22
340.004	64.51
340.217	46.08
340.429	31.74
340.641	52.22
340.854	39.94
341.066	58.37
341.278	62.46
341.491	21.5
341.703	74.75
341.915	9.22
342.128	44.03
342.34	19.46
342.552	37.89
342.764	41.98
342.977	23.55
343.189	-7.17
343.401	50.18
343.613	-5.12
343.826	64.51
344.038	-27.65
344.25	39.94
344.462	-7.17
344.674	60.42
344.886	-48.13
345.099	25.6
345.311	23.55
345.523	3.07
345.735	7.17
345.947	25.6
346.159	-21.5
346.371	99.33
346.583	-39.94
346.795	35.84
347.007	31.74
347.219	46.08
347.431	-21.5
347.643	23.55
347.855	37.89
348.067	39.94
348.279	58.37
348.491	41.98
348.703	101.37
348.915	60.42
349.127	21.5
349.339	74.75
349.551	-17.41
349.763	35.84
349.975	70.65
350.187	23.55
350.399	60.42
350.61	21.5
350.822	56.32
351.034	31.74
351.246	132.09
351.458	82.94
351.669	68.61
351.881	31.74
352.093	78.85
352.305	25.6
352.517	132.09
352.728	80.89
352.94	41.98
353.152	84.99
353.363	52.22
353.575	58.37
353.787	41.98
353.999	-11.26
354.21	117.76
354.422	70.65
354.633	9.22
354.845	76.8
355.057	7.17
355.268	80.89
355.48	31.74
355.692	37.89
355.903	-37.89
356.115	50.18
356.326	99.33
356.538	23.55
356.749	70.65
356.961	17.41
357.172	58.37
357.384	-46.08
357.595	72.7
357.807	87.04
358.018	25.6
358.23	39.94
358.441	72.7
358.653	64.51
358.864	9.22
359.075	39.94
359.287	-9.22
359.498	9.22
359.709	-27.65
359.921	15.36
360.132	72.7
360.344	76.8
360.555	-3.07
360.766	-37.89
360.977	7.17
361.189	23.55
361.4	9.22
361.611	23.55
361.823	7.17
362.034	74.75
362.245	37.89
362.456	52.22
362.667	25.6
362.879	29.7
363.09	15.36
363.301	119.81
363.512	-25.6
363.723	35.84
363.935	-7.17
364.146	72.7
364.357	19.46
364.568	80.89
364.779	68.61
364.99	27.65
365.201	11.26
365.412	101.37
365.623	17.41
365.834	46.08
366.045	-15.36
366.256	107.52
366.467	56.32
366.678	27.65
366.889	23.55
367.1	-1.02
367.311	44.03
367.522	48.13
367.733	-25.6
367.944	17.41
368.155	1.02
368.366	29.7
368.577	48.13
368.788	-13.31
368.999	23.55
369.209	41.98
369.42	84.99
369.631	-37.89
369.842	23.55
370.053	58.37
370.264	76.8
370.474	87.04
370.685	66.56
370.896	64.51
371.107	1.02
371.317	64.51
371.528	11.26
371.739	128
371.95	66.56
372.16	13.31
372.371	23.55
372.582	21.5
372.792	76.8
373.003	119.81
373.214	39.94
373.424	-25.6
373.635	54.27
373.846	17.41
374.056	91.13
374.267	25.6
374.477	27.65
374.688	-7.17
374.898	56.32
375.109	64.51
375.319	-27.65
375.53	89.09
375.74	15.36
375.951	48.13
376.161	-37.89
376.372	82.94
376.582	-3.07
376.793	74.75
377.003	13.31
377.214	89.09
377.424	15.36
377.635	46.08
377.845	-5.12
378.055	25.6
378.266	37.89
378.476	44.03
378.686	-5.12
378.897	27.65
379.107	5.12
379.317	48.13
379.528	37.89
379.738	80.89
379.948	29.7
380.158	52.22
380.369	-13.31
380.579	64.51
380.789	13.31
380.999	91.13
381.21	84.99
381.42	64.51
381.63	15.36
381.84	23.55
382.05	11.26
382.261	21.5
382.471	64.51
382.681	21.5
382.891	48.13
383.101	23.55
383.311	-17.41
383.521	89.09
383.731	72.7
383.941	52.22
384.151	109.57
384.361	72.7
384.571	19.46
384.781	46.08
384.991	60.42
385.201	39.94
385.411	89.09
385.621	48.13
385.831	64.51
386.041	95.23
386.251	1.02
386.461	-11.26
386.671	27.65
386.881	17.41
387.091	56.32
387.301	80.89
387.511	-41.98
387.72	80.89
387.93	52.22
388.14	82.94
388.35	33.79
388.56	50.18
388.769	89.09
388.979	105.47
389.189	35.84
389.399	23.55
389.609	13.31
389.818	19.46
390.028	41.98
390.238	31.74
390.447	31.74
390.657	103.42
390.867	21.5
391.076	31.74
391.286	56.32
391.496	-27.65
391.705	74.75
391.915	58.37
392.125	117.76
392.334	46.08
392.544	21.5
392.753	56.32
392.963	56.32
393.172	66.56
393.382	39.94
393.591	82.94
393.801	89.09
394.01	50.18
394.22	46.08
394.429	56.32
394.639	58.37
394.848	15.36
395.058	1.02
395.267	80.89
395.477	97.28
395.686	109.57
395.895	31.74
396.105	115.71
396.314	72.7
396.524	146.43
396.733	76.8
396.942	50.18
397.152	19.46
397.361	97.28
397.57	46.08
397.78	72.7
397.989	72.7
398.198	93.18
398.407	-37.89
398.617	21.5
398.826	31.74
399.035	113.66
399.244	76.8
399.453	158.72
399.663	121.85
399.872	52.22
400.081	44.03
400.29	173.05
400.499	76.8
400.708	74.75
400.917	-5.12
401.127	54.27
401.336	39.94
401.545	54.27
401.754	31.74
401.963	23.55
402.172	48.13
402.381	89.09
402.59	23.55
402.799	101.37
403.008	89.09
403.217	97.28
403.426	101.37
403.635	76.8
403.844	115.71
404.053	66.56
404.262	97.28
404.471	162.81
404.68	168.96
404.888	50.18
405.097	91.13
405.306	123.9
405.515	119.81
405.724	84.99
405.933	148.48
406.142	97.28
406.35	152.57
406.559	146.43
406.768	89.09
406.977	25.6
407.185	134.14
407.394	113.66
407.603	68.61
407.812	177.15
408.02	105.47
408.229	121.85
408.438	171.01
408.646	154.62
408.855	142.33
409.064	166.91
409.272	130.05
409.481	132.09
409.69	134.14
409.898	156.67
410.107	193.53
410.315	226.3
410.524	214.01
410.733	181.25
410.941	203.77
411.15	211.96
411.358	222.2
411.567	244.73
411.775	156.67
411.984	271.36
412.192	181.25
412.401	224.25
412.609	289.79
412.818	320.51
413.026	314.36
413.234	287.74
413.443	244.73
413.651	332.79
413.86	340.99
414.068	416.76
414.276	359.42
414.485	361.47
414.693	422.91
414.901	396.28
415.11	355.32
415.318	398.33
415.526	402.43
415.734	424.95
415.943	451.58
416.151	482.3
416.359	474.1
416.567	533.5
416.776	506.87
416.984	537.59
417.192	531.45
417.4	594.93
417.608	566.26
417.817	719.86
418.025	617.46
418.233	660.47
418.441	693.24
418.649	676.85
418.857	779.25
419.065	742.39
419.273	654.33
419.481	750.58
419.689	756.72
419.897	850.93
420.105	938.99
420.313	883.7
420.521	914.42
420.729	922.61
420.937	959.47
421.145	967.67
421.353	1037.3
421.561	1121.26
421.769	1111.02
421.977	1227.76
422.185	1084.4
422.393	1233.9
422.601	1342.44
422.809	1330.16
423.017	1371.12
423.224	1283.05
423.432	1395.69
423.64	1399.79
423.848	1692.65
424.056	1504.23
424.263	1635.3
424.471	1602.54
424.679	1709.03
424.887	1774.56
425.094	1870.82
425.302	1795.04
425.51	1811.43
425.718	1944.55
425.925	1979.36
426.133	2063.33
426.341	2104.29
426.548	2296.8
426.756	2153.44
426.964	2261.98
427.171	2337.76
427.379	2464.73
427.586	2563.03
427.794	2567.13
428.001	2618.33
428.209	2825.17
428.417	2659.29
428.624	2841.56
428.832	2853.84
429.039	2843.6
429.247	2886.61
429.454	3242.96
429.662	3300.3
429.869	3097.55
430.076	3298.25
430.284	3294.16
430.491	3490.76
430.699	3558.35
430.906	3605.45
431.114	3582.92
431.321	3746.76
431.528	3965.89
431.736	4078.53
431.943	4295.61
432.15	4195.26
432.358	4139.97
432.565	4455.36
432.772	4406.2
432.979	4776.89
433.187	4709.3
433.394	4869.05
433.601	5225.39
433.808	5028.79
434.016	5082.03
434.223	5368.75
434.43	5612.46
434.637	5540.78
434.844	5860.26
435.052	6028.2
435.259	5940.13
435.466	5968.8
435.673	5866.41
435.88	6196.13
436.087	6753.18
436.294	6730.65
436.501	6497.18
436.708	6572.96
436.915	6638.49
437.122	7072.66
437.329	6962.07
437.537	7361.42
437.743	7625.61
437.95	7392.14
438.157	7760.78
438.364	8084.36
438.571	8018.82
438.778	7961.48
438.985	8770.43
439.192	8530.81
439.399	8795
439.606	8504.19
439.813	9143.16
440.02	9436.02
440.227	9274.23
440.433	9116.53
440.64	9491.31
440.847	9487.22
441.054	9706.35
441.261	10316.64
441.467	10281.83
441.674	10357.6
441.881	10943.32
442.088	10697.56
442.294	10605.41
442.501	11006.81
442.708	11246.42
442.914	11559.76
443.121	12225.35
443.328	11807.56
443.534	12542.78
443.741	12237.64
443.948	12075.85
444.154	12913.47
444.361	12706.62
444.568	12995.39
444.774	12935.99
444.981	13028.15
445.187	13450.03
445.394	14097.19
445.6	13951.79
445.807	15194.9
446.013	14394.15
446.22	14781.21
446.426	15379.22
446.633	15751.95
446.839	16059.15
447.046	15164.18
447.252	16405.25
447.459	16311.05
447.665	16352.01
447.871	17085.18
448.078	17525.49
448.284	16571.14
448.491	17193.72
448.697	17939.18
448.903	18012.91
449.11	18205.42
449.316	18068.2
449.522	18375.4
449.728	18795.23
449.935	18637.54
450.141	18914.02
450.347	19497.69
450.553	18658.02
450.76	18954.97
450.966	19473.11
451.172	19335.9
451.378	19976.91
451.584	19133.15
451.791	19950.29
451.997	19798.74
452.203	20382.41
452.409	20069.07
452.615	20247.24
452.821	19233.5
453.027	19223.26
453.233	20171.47
453.44	19360.47
453.646	19557.08
453.852	19567.32
454.058	19892.94
454.264	19116.76
454.47	19708.63
454.676	19165.92
454.882	20013.77
455.088	18293.48
455.294	18502.37
455.5	18696.93
455.705	18891.49
455.911	18328.3
456.117	17699.57
456.323	17709.81
456.529	16345.86
456.735	17318.65
456.941	16849.66
457.147	16755.46
457.352	16022.28
457.558	15829.77
457.764	15854.35
457.97	15600.4
458.176	15149.85
458.381	15389.46
458.587	14795.55
458.793	14584.61
458.999	13845.29
459.204	14947.1
459.41	14523.17
459.616	13464.37
459.821	13579.06
460.027	13536.05
460.233	13079.35
460.438	12540.74
460.644	12737.34
460.85	12024.65
461.055	12084.04
461.261	11993.93
461.466	10863.45
461.672	10740.57
461.878	11361.11
462.083	10752.86
462.289	10552.16
462.494	10412.9
462.7	9997.16
462.905	9585.52
463.111	10224.48
463.316	9997.16
463.522	9751.4
463.727	9911.14
463.932	9773.93
464.138	9767.79
464.343	9679.72
464.549	9558.89
464.754	9765.74
464.959	9585.52
465.165	9698.16
465.37	9186.16
465.575	9190.26
465.781	9581.42
465.986	9403.25
466.191	9087.86
466.397	8866.68
466.602	8598.4
466.807	8842.11
467.012	9042.81
467.218	8575.87
467.423	8575.87
467.628	8874.87
467.833	8977.27
468.038	8715.13
468.244	8586.11
468.449	8838.01
468.654	8381.31
468.859	8455.04
469.064	8311.68
469.269	8037.25
469.474	8209.28
469.679	8350.59
469.885	8041.35
470.09	8184.71
470.295	8309.63
470.5	8012.68
470.705	7916.42
470.91	7990.15
471.115	7904.14
471.32	7947.14
471.525	7709.58
471.73	7787.4
471.935	7732.11
472.139	7433.1
472.344	7340.94
472.549	7445.39
472.754	7273.36
472.959	7213.97
473.164	6871.96
473.369	6888.34
473.574	7064.47
473.778	6910.87
473.983	7132.05
474.188	6908.82
474.393	6607.77
474.598	6757.27
474.802	6712.22
475.007	6540.19
475.212	6587.29
475.417	6456.22
475.621	6392.73
475.826	6478.75
476.031	6302.62
476.235	6167.46
476.44	6351.78
476.645	6108.07
476.849	6083.49
477.054	6079.4
477.259	5835.69
477.463	6075.3
477.668	5823.4
477.872	5774.25
478.077	5831.59
478.282	5696.43
478.486	5503.92
478.691	5704.62
478.895	5575.59
479.1	5626.79
479.304	5356.46
479.509	5544.88
479.713	5372.85
479.918	5299.12
480.122	5321.65
480.326	5321.65
480.531	5389.23
480.735	5471.15
480.94	5323.69
481.144	5456.81
481.348	5290.93
481.553	5252.02
481.757	5131.19
481.961	5256.11
482.166	5284.78
482.37	5186.48
482.574	5262.26
482.778	5106.61
482.983	5221.3
483.187	5186.48
483.391	5354.41
483.595	5215.15
483.8	5034.93
484.004	5221.3
484.208	5200.82
484.412	5309.36
484.616	5176.24
484.821	5153.71
485.025	5106.61
485.229	5120.95
485.433	4967.35
485.637	5217.2
485.841	5227.44
486.045	5139.38
486.249	5133.23
486.453	5161.91
486.657	5276.59
486.861	5098.42
487.065	5016.5
487.269	5114.8
487.473	5192.62
487.677	5176.24
487.881	5184.43
488.085	5055.41
488.289	5141.43
488.493	5102.51
488.697	5161.91
488.901	5084.08
489.105	5219.25
489.309	5290.93
489.512	5139.38
489.716	5254.06
489.92	5389.23
490.124	5178.29
490.328	5348.27
490.531	5151.67
490.735	5295.02
490.939	5315.5
491.143	5329.84
491.346	5393.33
491.55	5241.78
491.754	5479.34
491.958	5360.56
492.161	5413.81
492.365	5395.37
492.569	5505.96
492.772	5434.29
492.976	5508.01
493.18	5581.74
493.383	5714.86
493.587	5647.27
493.79	5731.24
493.994	5620.65
494.197	5620.65
494.401	5764.01
494.605	5747.62
494.808	6060.96
495.012	5893.03
495.215	5780.39
495.419	6130.59
495.622	5927.85
495.825	6095.78
496.029	6142.88
496.232	6192.03
496.436	6212.51
496.639	6366.11
496.843	6243.23
497.046	6300.58
497.249	6402.97
497.453	6495.13
497.656	6425.5
497.859	6601.63
498.063	6722.46
498.266	6771.61
498.469	6732.7
498.673	6931.35
498.876	7003.03
499.079	7134.1
499.282	7064.47
499.485	7095.19
499.689	7355.28
499.892	7496.59
500.095	7365.52
500.298	7527.31
500.501	7496.59
500.705	7580.56
500.908	7760.78
501.111	7873.42
501.314	7975.81
501.517	8029.06
501.72	8139.65
501.923	8088.45
502.126	8340.35
502.329	8455.04
502.532	8463.23
502.735	8369.02
502.938	8594.3
503.141	8766.33
503.344	8874.87
503.547	8971.13
503.75	9309.04
503.953	9141.11
504.156	9177.97
504.359	9358.19
504.562	9462.64
504.765	9694.06
504.968	9589.61
505.17	9829.23
505.373	9790.31
505.576	9982.82
505.779	10130.28
505.982	10287.97
506.185	10359.65
506.387	10541.92
506.59	10433.38
506.793	10656.61
506.996	10705.76
507.198	11062.1
507.401	11012.95
507.604	11213.65
507.807	11344.72
508.009	11490.13
508.212	11471.7
508.415	11713.36
508.617	11930.44
508.82	12157.77
509.022	11723.6
509.225	12342.08
509.428	12671.81
509.63	12610.37
509.833	12481.35
510.035	12966.71
510.238	12753.73
510.44	13169.46
510.643	13474.61
510.845	13450.03
511.048	13394.74
511.25	13677.36
511.453	13710.13
511.655	14148.39
511.858	13957.93
512.06	14125.86
512.262	14357.28
512.465	14304.04
512.667	14562.08
512.87	14793.5
513.072	14832.41
513.274	15108.89
513.477	15328.02
513.679	15493.91
513.881	15551.25
514.084	15977.23
514.286	15682.32
514.488	15676.18
514.69	16409.35
514.893	16370.44
515.095	16741.12
515.297	16816.9
515.499	16790.27
515.701	17238.78
515.904	17359.61
516.106	17459.96
516.308	17588.98
516.51	18113.26
516.712	17971.95
516.914	18184.94
517.116	18559.72
517.318	18498.28
517.52	18754.27
517.722	18928.35
517.925	18967.26
518.127	19501.78
518.329	19606.23
518.531	19401.43
518.733	20046.54
518.935	19999.44
519.136	19858.13
519.338	20527.81
519.54	20792
519.742	20662.98
519.944	20808.39
520.146	21099.2
520.348	21211.84
520.55	21410.49
520.752	21619.38
520.954	21904.05
521.155	21586.61
521.357	22457
521.559	22264.49
521.761	22756
521.963	22803.11
522.164	22784.68
522.366	23112.35
522.568	23450.27
522.77	23480.99
522.971	23792.28
523.173	23476.89
523.375	23872.15
523.576	24130.19
523.778	23882.39
523.98	24375.95
524.181	24396.43
524.383	24533.64
524.584	24556.17
524.786	24824.45
524.988	24662.66
525.189	25412.22
525.391	25506.43
525.592	25643.64
525.794	25682.55
525.995	25535.1
526.197	25787
526.398	25508.47
526.6	26020.47
526.801	26264.18
527.003	26251.89
527.204	26471.02
527.406	26464.88
527.607	26538.6
527.808	26950.24
528.01	26532.46
528.211	26589.8
528.412	27019.88
528.614	27486.81
528.815	27118.18
529.016	27388.51
529.218	26964.58
529.419	27073.12
529.62	27363.93
529.822	27116.13
530.023	27499.1
530.224	27531.87
530.425	27449.95
530.626	27148.9
530.828	27433.57
531.029	28105.3
531.23	27372.13
531.431	27861.59
531.632	27699.8
531.833	27902.55
532.035	27771.48
532.236	28072.53
532.437	28471.89
532.638	28211.79
532.839	28484.17
533.04	27925.08
533.241	28148.31
533.442	28605
533.643	28424.78
533.844	27998.8
534.045	28516.94
534.246	27906.65
534.447	28389.97
534.648	28183.12
534.849	28693.07
535.05	28230.23
535.251	28156.5
535.451	28537.42
535.652	28686.92
535.853	28602.96
536.054	28262.99
536.255	28617.29
536.456	28359.25
536.657	28824.14
536.857	28633.68
537.058	28422.73
537.259	28547.66
537.46	28064.34
537.66	28543.56
537.861	28697.16
538.062	28195.41
538.263	28869.19
538.463	28492.37
538.664	28060.24
538.865	28490.32
539.065	28686.92
539.266	28383.82
539.466	28916.29
539.667	28189.27
539.868	28787.27
540.068	28441.17
540.269	28682.83
540.469	28617.29
540.67	28496.46
540.87	28138.07
541.071	28383.82
541.271	28623.44
541.472	28656.2
541.672	28303.95
541.873	28455.5
542.073	28154.45
542.274	28426.83
542.474	28475.98
542.675	27939.41
542.875	28400.21
543.075	28351.06
543.276	28017.24
543.476	28738.12
543.676	28193.36
543.877	28488.27
544.077	28494.41
544.277	28355.15
544.478	28516.94
544.678	28596.81
544.878	28383.82
545.078	28070.48
545.279	28275.28
545.479	28295.76
545.679	28131.92
545.879	28181.07
546.079	28363.34
546.28	28334.67
546.48	28078.68
546.68	28516.94
546.88	28568.14
547.08	28320.34
547.28	28019.28
547.48	27828.82
547.68	28654.15
547.88	28568.14
548.081	28523.08
548.281	28424.78
548.481	27751
548.681	28334.67
548.881	28426.83
549.081	28207.7
549.28	28254.8
549.48	28449.36
549.68	28258.9
549.88	28506.7
550.08	28494.41
550.28	28660.3
550.48	28447.31
550.68	28461.65
550.88	28340.82
551.08	28043.86
551.279	28336.72
551.479	28250.7
551.679	28193.36
551.879	28127.83
552.079	28482.13
552.278	28021.33
552.478	28242.51
552.678	28473.93
552.878	28168.79
553.077	27978.33
553.277	27941.46
553.477	28170.83
553.676	27677.27
553.876	28127.83
554.076	27900.5
554.275	27925.08
554.475	27853.4
554.674	28197.46
554.874	28154.45
555.074	28000.85
555.273	27753.05
555.473	28160.59
555.672	27615.83
555.872	27466.33
556.071	27877.97
556.271	27900.5
556.47	27550.3
556.67	27533.92
556.869	28037.72
557.068	27753.05
557.268	27605.59
557.467	27292.26
557.667	27411.04
557.866	27595.35
558.065	27470.43
558.265	27363.93
558.464	27212.38
558.663	27699.8
558.863	26815.08
559.062	27361.89
559.261	27398.75
559.461	27759.19
559.66	27066.98
559.859	26946.15
560.058	27101.79
560.258	27097.7
560.457	26604.14
560.656	26970.72
560.855	26907.24
561.054	26843.75
561.253	26796.65
561.453	26937.96
561.652	26927.72
561.851	26735.21
562.05	26499.69
562.249	26659.43
562.448	26577.51
562.647	26491.5
562.846	26331.76
563.045	26563.18
563.244	26352.24
563.443	26481.26
563.642	26323.57
563.841	26448.49
564.04	26542.7
564.239	26466.92
564.438	26235.5
564.637	26411.63
564.836	26548.84
565.035	26280.56
565.234	25993.84
565.432	25950.84
565.631	25844.34
565.83	25948.79
566.029	25961.08
566.228	25676.41
566.427	25686.65
566.625	25793.14
566.824	25514.62
567.023	25805.43
567.222	25305.73
567.42	25553.53
567.619	25315.97
567.818	25295.49
568.016	25725.56
568.215	25350.78
568.414	25055.87
568.612	25035.39
568.811	25315.97
569.01	25158.27
569.208	24828.55
569.407	25158.27
569.605	24709.77
569.804	24984.19
570.002	24638.09
570.201	24793.73
570.4	24464.01
570.598	24472.2
570.797	24300.17
570.995	24414.86
571.193	24046.23
571.392	24275.6
571.59	24474.25
571.789	24214.16
571.987	24251.02
572.186	23747.22
572.384	23999.12
572.582	23751.32
572.781	24095.38
572.979	23511.71
573.177	23753.37
573.376	23634.58
573.574	23634.58
573.772	23605.91
573.971	23239.33
574.169	23325.34
574.367	23165.6
574.565	23280.28
574.763	23435.93
574.962	23067.3
575.16	22985.38
575.358	23085.73
575.556	22811.3
575.754	23040.67
575.952	22821.54
576.151	22911.65
576.349	22481.58
576.547	22389.42
576.745	22643.37
576.943	22387.37
577.141	22479.53
577.339	22403.75
577.537	22135.47
577.735	22250.16
577.933	21918.39
578.131	22061.74
578.329	22022.83
578.527	21977.78
578.725	22047.41
578.923	22002.35
579.121	21631.67
579.319	21807.8
579.516	21611.19
579.714	21654.2
579.912	21625.53
580.11	21424.83
580.308	21611.19
580.506	21721.78
580.704	21062.33
580.901	21111.49
581.099	21506.74
581.297	21054.14
581.495	20810.43
581.692	21168.83
581.89	20771.52
582.088	20900.55
582.285	20595.4
582.483	20736.71
582.681	20589.25
582.878	20548.29
583.076	20331.21
583.274	20720.32
583.471	20476.62
583.669	20820.67
583.866	20486.86
584.064	20476.62
584.262	20318.92
584.459	20402.89
584.657	20052.69
584.854	20409.03
585.052	20003.53
585.249	20138.7
585.447	19913.42
585.644	19860.18
585.841	19761.87
586.039	19974.86
586.236	19796.69
586.434	19954.38
586.631	19563.22
586.828	19419.86
587.026	19800.79
587.223	19426.01
587.42	19026.65
587.618	19313.37
587.815	19190.49
588.012	19135.2
588.21	19063.52
588.407	19247.83
588.604	19014.37
588.801	18985.69
588.999	18914.02
589.196	18864.86
589.393	18891.49
589.59	18561.76
589.787	18596.58
589.984	18422.5
590.182	18369.26
590.379	18637.54
590.576	18442.98
590.773	18565.86
590.97	18299.62
591.167	18420.45
591.364	18000.62
591.561	18072.3
591.758	18143.98
591.955	17998.57
592.152	17957.61
592.349	17851.12
592.546	18019.05
592.743	17904.37
592.94	17718
593.137	17898.22
593.334	17980.14
593.531	17455.86
593.727	17597.17
593.924	17713.91
594.121	17550.07
594.318	17535.73
594.515	17300.22
594.712	17371.89
594.908	17445.62
595.105	17332.98
595.302	16933.63
595.499	17201.91
595.696	17103.61
595.892	17042.17
596.089	16835.33
596.286	16927.49
596.482	16775.94
596.679	16683.78
596.876	16917.25
597.072	16868.09
597.269	16773.89
597.466	16616.19
597.662	16425.73
597.859	16816.9
598.055	16896.77
598.252	16212.74
598.448	16581.38
598.645	16364.29
598.841	16261.9
599.038	16311.05
599.234	16259.85
599.431	16079.63
599.627	16007.95
599.824	16268.04
600.02	16141.07
600.217	16075.53
600.413	16083.72
600.609	15880.97
600.806	15885.07
601.002	15928.08
601.198	15407.89
601.395	15647.51
601.591	15827.73
601.787	15676.18
601.984	15491.86
602.18	15563.54
602.376	15604.5
602.572	15360.79
602.769	15264.54
602.965	15285.01
603.161	15399.7
603.357	15012.63
603.553	15170.33
603.75	15174.42
603.946	15035.16
604.142	15104.79
604.338	14715.68
604.534	14965.53
604.73	14945.05
604.926	14805.79
605.122	14924.57
605.318	14637.86
605.514	14770.97
605.71	14385.96
605.906	14586.66
606.102	14623.52
606.298	14594.85
606.494	14435.11
606.69	14580.51
606.886	14351.14
607.082	14326.57
607.278	14404.39
607.474	14363.43
607.67	14263.08
607.866	14017.32
608.062	13978.41
608.257	14193.45
608.453	14285.61
608.649	13939.5
608.845	13906.73
609.041	13744.94
609.236	13988.65
609.432	13863.72
609.628	13667.12
609.824	13833
610.019	13724.46
610.215	13761.33
610.411	13757.23
610.606	13409.08
610.802	13628.21
610.998	13339.44
611.193	13644.59
611.389	13513.52
611.584	13407.03
611.78	13226.81
611.976	13407.03
612.171	13509.43
612.367	13366.07
612.562	13151.03
612.758	13036.35
612.953	12899.13
613.149	13083.45
613.344	13005.63
613.539	13134.65
613.735	13112.12
613.93	12921.66
614.126	12876.6
614.321	13130.55
614.517	12942.14
614.712	12987.19
614.907	12991.29
615.103	12852.03
615.298	12610.37
615.493	13028.15
615.688	12649.28
615.884	12870.46
616.079	12809.02
616.274	12577.6
616.47	12761.92
616.665	12501.83
616.86	12520.26
617.055	12723.01
617.25	12305.22
617.445	12665.66
617.641	12280.64
617.836	12520.26
618.031	12045.13
618.226	12329.8
618.421	12473.15
618.616	12372.8
618.811	12221.25
619.006	12360.52
619.201	11946.83
619.396	12335.94
619.591	12043.08
619.786	12147.53
619.981	11914.06
620.176	11819.85
620.371	11750.22
620.566	11772.75
620.761	11692.88
620.956	11780.94
621.151	11326.29
621.346	11635.53
621.541	11367.25
621.735	11514.7
621.93	11322.2
622.125	11477.84
622.32	11113.3
622.515	11117.4
622.709	11260.76
622.904	11010.9
623.099	10978.14
623.294	10965.85
623.488	10644.32
623.683	11123.54
623.878	10675.04
624.072	10675.04
624.267	10914.65
624.462	10898.27
624.656	10576.73
624.851	10550.11
625.046	10453.86
625.24	10226.53
625.435	10353.51
625.629	10394.47
625.824	10146.66
626.018	10124.13
626.213	10115.94
626.407	10068.84
626.602	9894.76
626.796	9870.19
626.991	9929.58
627.185	9812.84
627.38	9769.83
627.574	9780.07
627.768	10007.4
627.963	9538.41
628.157	9640.81
628.352	9646.96
628.546	9235.32
628.74	9413.49
628.935	9171.83
629.129	9337.71
629.323	9292.66
629.517	9190.26
629.712	9155.44
629.906	9112.44
630.1	9130.87
630.294	9165.68
630.489	8887.16
630.683	9100.15
630.877	8782.71
631.071	8958.84
631.265	9063.29
631.459	8723.32
631.653	8934.26
631.848	8723.32
632.042	8663.93
632.236	8622.97
632.43	8442.75
632.624	8504.19
632.818	8422.27
633.012	8287.11
633.206	8307.59
633.4	8184.71
633.594	8174.47
633.788	8254.34
633.982	8174.47
634.176	8201.09
634.369	8090.5
634.563	8323.97
634.757	7902.09
634.951	8104.84
635.145	7994.25
635.339	7949.19
635.533	7846.79
635.726	7775.11
635.92	7664.52
636.114	7816.07
636.308	7822.22
636.501	7748.49
636.695	7787.4
636.889	7596.94
637.083	7521.17
637.276	7398.29
637.47	7517.07
637.664	7324.56
637.857	7342.99
638.051	7527.31
638.244	7437.2
638.438	7226.26
638.632	7191.44
638.825	7211.92
639.019	7132.05
639.212	7142.29
639.406	7019.41
639.599	7189.39
639.793	7179.15
639.986	6798.23
640.18	6851.48
640.373	6927.25
640.567	6939.54
640.76	6785.94
640.954	6804.38
641.147	6532
641.34	6744.99
641.534	6564.76
641.727	6450.08
641.92	6517.66
642.114	6536.09
642.307	6552.48
642.5	6730.65
642.694	6470.56
642.887	6579.1
643.08	6466.46
643.273	6245.28
643.467	6323.1
643.66	6212.51
643.853	6251.42
644.046	6151.07
644.239	6093.73
644.432	6030.24
644.626	6140.83
644.819	6087.59
645.012	6083.49
645.205	6015.91
645.398	5878.69
645.591	5944.23
645.784	5966.76
645.977	5813.16
646.17	5938.09
646.363	5655.47
646.556	5579.69
646.749	5841.83
646.942	5716.9
647.135	5694.38
647.328	5671.85
647.521	5516.2
647.714	5413.81
647.907	5430.19
648.099	5434.29
648.292	5483.44
648.485	5475.24
648.678	5422
648.871	5325.74
649.064	5155.76
649.256	5270.45
649.449	5266.35
649.642	5186.48
649.835	5209.01
650.027	5112.75
650.22	4967.35
650.413	5131.19
650.605	5196.72
650.798	4981.68
650.991	5098.42
651.183	5127.09
651.376	5020.6
651.568	4916.15
651.761	4811.7
651.954	5032.88
652.146	4873.14
652.339	4819.89
652.531	4815.8
652.724	4879.29
652.916	4617.15
653.109	4793.27
653.301	4709.3
653.494	4731.83
653.686	4484.03
653.879	4557.75
654.071	4510.65
654.263	4436.92
654.456	4604.86
654.648	4455.36
654.84	4549.56
655.033	4471.74
655.225	4465.6
655.417	4453.31
655.61	4406.2
655.802	4410.3
655.994	4318.14
656.186	4449.21
656.379	4422.59
656.571	4293.57
656.763	4209.6
656.955	4328.38
657.148	4252.61
657.34	4180.93
657.532	4062.15
657.724	4135.87
657.916	4078.53
658.108	4033.47
658.3	4039.62
658.492	3914.69
658.684	3935.17
658.876	3906.5
659.068	3918.79
659.26	3867.59
659.452	3916.74
659.644	3986.37
659.836	3857.35
660.028	3865.54
660.22	3785.67
660.412	3924.93
660.604	3650.5
660.796	3660.74
660.988	3652.55
661.18	3730.38
661.372	3638.22
661.563	3732.42
661.755	3660.74
661.947	3611.59
662.139	3597.26
662.331	3480.52
662.522	3568.59
662.714	3498.95
662.906	3470.28
663.097	3394.51
663.289	3470.28
663.481	3402.7
663.673	3488.71
663.864	3185.62
664.056	3449.8
664.247	3365.84
664.439	3253.2
664.631	3437.52
664.822	3341.26
665.014	3324.88
665.205	3308.49
665.397	3320.78
665.588	3335.12
665.78	3218.38
665.971	3210.19
666.163	3253.2
666.354	3177.42
666.546	3152.85
666.737	3066.83
666.929	3126.22
667.12	3046.35
667.311	3275.73
667.503	3122.13
667.694	3079.12
667.885	2948.05
668.077	2972.63
668.268	3034.07
668.459	2950.1
668.651	3007.44
668.842	3027.92
669.033	2958.29
669.224	2952.15
669.416	3068.88
669.607	2800.6
669.798	2972.63
669.989	2874.32
670.18	2782.17
670.371	2816.98
670.563	2675.67
670.754	2819.03
670.945	2769.88
671.136	2733.01
671.327	2882.52
671.518	2851.8
671.709	2726.87
671.9	2823.12
672.091	2884.56
672.282	2685.91
672.473	2706.39
672.664	2724.82
672.855	2655.19
673.046	2653.14
673.237	2757.59
673.428	2735.06
673.619	2757.59
673.809	2644.95
674	2638.81
674.191	2761.69
674.382	2591.7
674.573	2595.8
674.764	2579.42
674.954	2563.03
675.145	2520.03
675.336	2692.05
675.527	2587.61
675.717	2507.74
675.908	2517.98
676.099	2544.6
676.289	2554.84
676.48	2530.27
676.671	2556.89
676.861	2509.79
677.052	2517.98
677.243	2505.69
677.433	2384.86
677.624	2450.39
677.814	2460.63
678.005	2513.88
678.195	2399.2
678.386	2442.2
678.576	2448.35
678.767	2431.96
678.957	2423.77
679.148	2487.26
679.338	2395.1
679.529	2366.43
679.719	2380.76
679.909	2391
680.1	2327.52
680.29	2411.48
680.481	2345.95
680.671	2261.98
680.861	2384.86
681.052	2307.04
681.242	2388.96
681.432	2319.32
681.622	2337.76
681.813	2366.43
682.003	2323.42
682.193	2276.32
682.383	2112.48
682.573	2237.41
682.764	2259.93
682.954	2270.17
683.144	2313.18
683.334	2237.41
683.524	2221.02
683.714	2345.95
683.904	2227.17
684.094	2294.75
684.284	2253.79
684.474	2268.13
684.664	2186.21
684.854	2259.93
685.044	2171.87
685.234	2180.06
685.424	2317.28
685.614	2108.38
685.804	2135.01
685.994	2104.29
686.184	2171.87
686.374	2165.73
686.564	2155.49
686.753	2231.26
686.943	2188.25
687.133	2104.29
687.323	2161.63
687.513	2202.59
687.702	2139.1
687.892	2126.82
688.082	2079.71
688.272	2114.53
688.461	2106.34
688.651	2128.86
688.841	2092
689.03	2192.35
689.22	2016.23
689.41	2147.3
689.599	2063.33
689.789	2118.62
689.979	2014.18
690.168	2071.52
690.358	2079.71
690.547	2137.06
690.737	2057.18
690.926	2073.57
691.116	2022.37
691.305	2128.86
691.495	2005.99
691.684	2051.04
691.874	1977.31
692.063	2040.8
692.252	2057.18
692.442	1952.74
692.631	2087.9
692.82	1907.68
693.01	1831.91
693.199	1946.59
693.388	1917.92
693.578	1944.55
693.767	2079.71
693.956	1971.17
694.146	2010.08
694.335	2059.23
694.524	1969.12
694.713	1997.79
694.902	1899.49
695.092	1983.46
695.281	1905.63
695.47	1958.88
695.659	1995.75
695.848	1975.27
696.037	1928.16
696.226	1989.6
696.415	1983.46
696.604	1903.59
696.793	1995.75
696.982	1911.78
697.171	2008.03
697.36	1934.31
697.549	1881.06
697.738	1946.59
697.927	1911.78
698.116	2053.09
698.305	1917.92
698.494	1928.16
698.683	1950.69
698.872	2042.85
699.061	1999.84
699.25	2040.8
699.438	1956.83
699.627	1948.64
699.816	1940.45
700.005	1936.35
700.193	1989.6
700.382	1903.59
700.571	2016.23
700.76	1946.59
700.948	1956.83
701.137	1817.57
701.326	1950.69
701.514	1926.11
701.703	1860.58
701.892	1969.12
702.08	1960.93
702.269	1977.31
702.457	1842.15
702.646	1897.44
702.834	1981.41
703.023	1793
703.212	1911.78
703.4	1872.87
703.589	1860.58
703.777	1825.76
703.965	1860.58
704.154	1879.01
704.342	1858.53
704.531	1766.37
704.719	1803.24
704.907	1817.57
705.096	1704.93
705.284	1774.56
705.472	1739.75
705.661	1778.66
705.849	1737.7
706.037	1788.9
706.226	1797.09
706.414	1784.8
706.602	1842.15
706.79	1833.96
706.979	1817.57
707.167	1770.47
707.355	1893.35
707.543	1793
707.731	1893.35
707.919	1860.58
708.107	1778.66
708.296	1743.85
708.484	1721.32
708.672	1709.03
708.86	1692.65
709.048	1704.93
709.236	1733.61
709.424	1702.89
709.612	1747.94
709.8	1713.13
709.988	1700.84
710.176	1752.04
710.364	1711.08
710.551	1731.56
710.739	1604.58
710.927	1774.56
711.115	1670.12
711.303	1666.02
711.491	1557.48
711.679	1674.21
711.866	1706.98
712.054	1670.12
712.242	1696.74
712.43	1635.3
712.617	1686.5
712.805	1612.78
712.993	1700.84
713.181	1596.39
713.368	1580.01
713.556	1608.68
713.744	1653.73
713.931	1612.78
714.119	1612.78
714.306	1539.05
714.494	1684.45
714.682	1598.44
714.869	1559.53
715.057	1620.97
715.244	1563.62
715.432	1596.39
715.619	1598.44
715.807	1549.29
715.994	1541.1
716.182	1594.34
716.369	1489.9
716.556	1614.82
716.744	1461.23
716.931	1549.29
717.119	1559.53
717.306	1641.45
717.493	1530.86
717.681	1526.76
717.868	1491.95
718.055	1459.18
718.242	1457.13
718.43	1426.41
718.617	1485.8
718.804	1504.23
718.991	1432.55
719.179	1514.47
719.366	1369.07
719.553	1393.64
719.74	1453.03
719.927	1496.04
720.114	1485.8
720.301	1426.41
720.488	1502.19
720.676	1379.31
720.863	1362.92
721.05	1338.35
721.237	1342.44
721.424	1354.73
721.611	1360.88
721.798	1303.53
721.985	1438.7
722.172	1412.07
722.358	1369.07
722.545	1360.88
722.732	1285.1
722.919	1371.12
723.106	1274.86
723.293	1399.79
723.48	1399.79
723.667	1319.92
723.853	1285.1
724.04	1287.15
724.227	1293.29
724.414	1326.06
724.6	1336.3
724.787	1367.02
724.974	1362.92
725.161	1319.92
725.347	1258.48
725.534	1350.64
725.72	1248.24
725.907	1244.14
726.094	1330.16
726.28	1254.38
726.467	1328.11
726.653	1297.39
726.84	1227.76
727.027	1233.9
727.213	1158.13
727.4	1260.52
727.586	1309.68
727.773	1287.15
727.959	1178.61
728.145	1180.65
728.332	1203.18
728.518	1285.1
728.705	1287.15
728.891	1227.76
729.077	1158.13
729.264	1289.2
729.45	1311.72
729.636	1328.11
729.823	1238
730.009	1244.14
730.195	1231.85
730.382	1229.81
730.568	1186.8
730.754	1197.04
730.94	1240.05
731.126	1238
731.313	1131.5
731.499	1102.83
731.685	1178.61
731.871	1160.17
732.057	1203.18
732.243	1121.26
732.429	1147.89
732.615	1229.81
732.801	1074.16
732.987	1139.69
733.173	1129.45
733.359	1164.27
733.545	1061.87
733.731	1137.65
733.917	1051.63
734.103	1108.98
734.289	1082.35
734.475	1078.26
734.661	1057.78
734.847	1141.74
735.033	1049.58
735.219	1139.69
735.404	1119.21
735.59	1051.63
735.776	1133.55
735.962	1084.4
736.148	1072.11
736.333	1090.54
736.519	1041.39
736.705	1068.02
736.89	1053.68
737.076	1033.2
737.262	1059.82
737.447	1127.41
737.633	1039.34
737.819	1000.43
738.004	988.14
738.19	1098.74
738.375	969.71
738.561	967.67
738.747	1018.86
738.932	953.33
739.118	977.91
739.303	986.1
739.489	902.13
739.674	992.24
739.859	1029.1
740.045	998.38
740.23	1072.11
740.416	1057.78
740.601	986.1
740.786	1047.54
740.972	869.36
741.157	916.47
741.342	875.51
741.528	982
741.713	910.32
741.898	1027.06
742.084	1016.82
742.269	988.14
742.454	990.19
742.639	977.91
742.824	1000.43
743.01	924.66
743.195	975.86
743.38	848.88
743.565	947.19
743.75	951.28
743.935	908.27
744.12	830.45
744.305	869.36
744.49	949.23
744.675	992.24
744.86	873.46
745.045	926.71
745.23	895.99
745.415	900.08
745.6	820.21
745.785	842.74
745.97	920.56
746.155	922.61
746.34	844.79
746.525	766.96
746.71	836.6
746.895	869.36
747.079	793.59
747.264	918.51
747.449	865.27
747.634	836.6
747.819	846.84
748.003	816.12
748.188	814.07
748.373	762.87
748.557	760.82
748.742	830.45
748.927	797.68
749.111	777.2
749.296	693.24
749.481	650.23
749.665	801.78
749.85	795.64
750.034	762.87
750.219	719.86
750.404	697.33
750.588	707.57
750.773	728.05
750.957	777.2
751.141	801.78
751.326	721.91
751.51	803.83
751.695	633.85
751.879	699.38
752.064	670.71
752.248	670.71
752.432	701.43
752.617	670.71
752.801	736.24
752.985	715.77
753.17	723.96
753.354	779.25
753.538	689.14
753.722	666.61
753.907	646.13
754.091	637.94
754.275	678.9
754.459	699.38
754.643	556.02
754.828	680.95
755.012	615.41
755.196	680.95
755.38	613.37
755.564	613.37
755.748	613.37
755.932	605.17
756.116	629.75
756.3	633.85
756.484	642.04
756.668	578.55
756.852	594.93
757.036	560.12
757.22	588.79
757.404	596.98
757.588	533.5
757.772	633.85
757.956	617.46
758.14	572.41
758.323	529.4
758.507	617.46
758.691	568.31
758.875	515.06
759.059	527.35
759.242	543.74
759.426	533.5
759.61	556.02
759.794	590.84
759.977	447.48
760.161	527.35
760.345	510.97
760.528	531.45
760.712	525.3
760.895	599.03
761.079	562.17
761.263	416.76
761.446	525.3
761.63	566.26
761.813	467.96
761.997	527.35
762.18	508.92
762.364	586.74
762.547	537.59
762.731	572.41
762.914	418.81
763.098	521.21
763.281	486.39
763.464	504.82
763.648	465.91
763.831	441.34
764.015	449.53
764.198	424.95
764.381	496.63
764.564	441.34
764.748	437.24
764.931	439.29
765.114	506.87
765.297	558.07
765.481	406.52
765.664	510.97
765.847	418.81
766.03	506.87
766.213	474.1
766.397	472.06
766.58	402.43
766.763	496.63
766.946	453.63
767.129	404.47
767.312	398.33
767.495	400.38
767.678	451.58
767.861	535.54
768.044	480.25
768.227	431.1
768.41	381.95
768.593	386.04
768.776	441.34
768.959	377.85
769.142	424.95
769.324	435.19
769.507	295.93
769.69	476.15
769.873	392.19
770.056	467.96
770.239	482.3
770.421	439.29
770.604	433.15
770.787	383.99
770.97	386.04
771.152	449.53
771.335	418.81
771.518	351.23
771.7	353.27
771.883	392.19
772.066	422.91
772.248	437.24
772.431	437.24
772.613	328.7
772.796	394.23
772.978	424.95
773.161	416.76
773.343	312.32
773.526	398.33
773.708	312.32
773.891	367.61
774.073	367.61
774.256	349.18
774.438	398.33
774.621	388.09
774.803	427
774.985	326.65
775.168	369.66
775.35	361.47
775.532	418.81
775.715	381.95
775.897	371.71
776.079	375.8
776.261	310.27
776.444	347.13
776.626	287.74
776.808	340.99
776.99	363.51
777.173	388.09
777.355	394.23
777.537	402.43
777.719	412.67
777.901	390.14
778.083	248.83
778.265	371.71
778.447	357.37
778.629	312.32
778.811	355.32
778.993	312.32
779.175	308.22
779.357	322.56
779.539	304.12
779.721	359.42
779.903	328.7
780.085	351.23
780.267	320.51
780.449	332.79
780.631	326.65
780.812	398.33
780.994	310.27
781.176	289.79
781.358	254.97
781.54	285.69
781.721	271.36
781.903	218.11
782.085	173.05
782.267	285.69
782.448	353.27
782.63	279.55
782.812	242.68
782.993	207.87
783.175	224.25
783.357	177.15
783.538	285.69
783.72	238.59
783.901	281.6
784.083	220.16
784.264	279.55
784.446	220.16
784.627	244.73
784.809	224.25
784.99	240.64
785.172	179.2
785.353	216.06
785.535	316.41
785.716	214.01
785.897	271.36
786.079	222.2
786.26	195.58
786.441	154.62
786.623	205.82
786.804	197.63
786.985	187.39
787.167	244.73
787.348	166.91
787.529	158.72
787.71	211.96
787.891	257.02
788.073	214.01
788.254	222.2
788.435	240.64
788.616	244.73
788.797	238.59
788.978	193.53
789.159	201.72
789.34	195.58
789.522	205.82
789.703	99.33
789.884	95.23
790.065	252.92
790.246	232.44
790.427	168.96
790.607	185.34
790.788	211.96
790.969	84.99
791.15	211.96
791.331	158.72
791.512	240.64
791.693	187.39
791.874	146.43
792.054	195.58
792.235	140.29
792.416	113.66
792.597	162.81
792.778	89.09
792.958	173.05
793.139	226.3
793.32	171.01
793.5	113.66
793.681	234.49
793.862	125.95
794.042	160.77
794.223	193.53
794.404	214.01
794.584	140.29
794.765	195.58
794.945	175.1
795.126	195.58
795.306	115.71
795.487	105.47
795.667	195.58
795.848	173.05
796.028	154.62
796.209	160.77
796.389	175.1
796.57	179.2
796.75	117.76
796.93	146.43
797.111	150.53
797.291	113.66
797.471	168.96
797.652	146.43
797.832	50.18
798.012	87.04
798.192	211.96
798.373	123.9
798.553	177.15
798.733	93.18
798.913	39.94
799.093	123.9
799.274	218.11
799.454	130.05
799.634	152.57
799.814	166.91
799.994	99.33
800.174	138.24
800.354	128
800.534	228.35
800.714	193.53
800.894	160.77
801.074	150.53
801.254	173.05
801.434	33.79
801.614	187.39
801.794	68.61
801.974	388.09
802.154	105.47
802.334	140.29
802.514	152.57
802.693	119.81
802.873	107.52
803.053	175.1
803.233	109.57
803.413	80.89
803.592	80.89
803.772	52.22
803.952	72.7
804.131	130.05
804.311	197.63
804.491	164.86
804.67	109.57
804.85	97.28
805.03	115.71
805.209	119.81
805.389	162.81
805.568	111.61
805.748	58.37
805.928	87.04
806.107	113.66
806.287	113.66
806.466	58.37
806.646	134.14
806.825	130.05
807.004	111.61
807.184	115.71
807.363	171.01
807.543	76.8
807.722	125.95
807.901	132.09
808.081	84.99
808.26	89.09
808.439	101.37
808.619	154.62
808.798	58.37
808.977	164.86
809.156	201.72
809.336	50.18
809.515	56.32
809.694	123.9
809.873	130.05
810.052	84.99
810.231	72.7
810.411	99.33
810.59	89.09
810.769	48.13
810.948	107.52
811.127	68.61
811.306	146.43
811.485	117.76
811.664	66.56
811.843	48.13
812.022	138.24
812.201	87.04
812.38	82.94
812.559	60.42
812.737	74.75
812.916	-9.22
813.095	56.32
813.274	56.32
813.453	84.99
813.632	121.85
813.811	95.23
813.989	56.32
814.168	62.46
814.347	103.42
814.526	148.48
814.704	125.95
814.883	54.27
815.062	74.75
815.24	119.81
815.419	105.47
815.598	144.38
815.776	39.94
815.955	5.12
816.133	46.08
816.312	62.46
816.49	82.94
816.669	70.65
816.847	15.36
817.026	27.65
817.204	56.32
817.383	144.38
817.561	21.5
817.74	140.29
817.918	56.32
818.097	136.19
818.275	156.67
818.453	27.65
818.632	68.61
818.81	101.37
818.988	68.61
819.167	29.7
819.345	107.52
819.523	-17.41
819.701	52.22
819.879	80.89
820.058	25.6
820.236	80.89
820.414	62.46
820.592	21.5
820.77	7.17
820.948	107.52
821.127	33.79
821.305	78.85
821.483	64.51
821.661	134.14
821.839	60.42
822.017	93.18
822.195	76.8
822.373	132.09
822.551	68.61
822.729	74.75
822.907	130.05
823.085	56.32
823.262	93.18
823.44	115.71
823.618	-1.02
823.796	64.51
823.974	46.08
824.152	89.09
824.329	-7.17
824.507	60.42
824.685	-3.07
824.863	91.13
825.04	19.46
825.218	35.84
825.396	76.8
825.574	41.98
825.751	95.23
825.929	95.23
826.107	82.94
826.284	25.6
826.462	72.7
826.639	91.13
826.817	7.17
826.994	52.22
827.172	39.94
827.349	68.61
827.527	17.41
827.704	56.32
827.882	41.98
828.059	56.32
828.237	78.85
828.414	97.28
828.591	7.17
828.769	84.99
828.946	21.5
829.124	41.98
829.301	48.13
829.478	82.94
829.655	48.13
829.833	23.55
830.01	44.03
830.187	-19.46
830.364	60.42
830.542	76.8
830.719	19.46
830.896	78.85
831.073	56.32
831.25	50.18
831.427	123.9
831.604	-11.26
831.782	19.46
831.959	66.56
832.136	89.09
832.313	78.85
832.49	72.7
832.667	17.41
832.844	17.41
833.021	76.8
833.198	13.31
833.374	44.03
833.551	35.84
833.728	52.22
833.905	-41.98
834.082	64.51
834.259	54.27
834.436	128
834.612	-9.22
834.789	13.31
834.966	44.03
835.143	95.23
835.319	91.13
835.496	54.27
835.673	17.41
835.85	46.08
836.026	52.22
836.203	64.51
836.38	66.56
836.556	48.13
836.733	15.36
836.909	37.89
837.086	66.56
837.262	25.6
837.439	-5.12
837.616	76.8
837.792	58.37
837.968	62.46
838.145	-1.02
838.321	27.65
838.498	-1.02
838.674	91.13
838.851	48.13
839.027	-9.22
839.203	41.98
839.38	27.65
839.556	33.79
839.732	70.65
839.909	39.94
840.085	-7.17
840.261	64.51
840.437	68.61
840.614	121.85
840.79	27.65
840.966	-31.74
841.142	7.17
841.318	74.75
841.494	76.8
841.671	62.46
841.847	25.6
842.023	31.74
842.199	31.74
842.375	87.04
842.551	56.32
842.727	-15.36
842.903	128
843.079	35.84
843.255	11.26
843.431	41.98
843.607	115.71
843.783	33.79
843.959	52.22
844.134	-39.94
844.31	54.27
844.486	58.37
844.662	37.89
844.838	82.94
845.013	27.65
845.189	37.89
845.365	70.65
845.541	-41.98
845.716	5.12
845.892	37.89
846.068	52.22
846.244	17.41
846.419	54.27
846.595	19.46
846.77	7.17
846.946	52.22
847.122	-13.31
847.297	48.13
847.473	89.09
847.648	31.74
847.824	41.98
847.999	23.55
848.175	44.03
848.35	25.6
848.526	39.94
848.701	58.37
848.876	17.41
849.052	27.65
849.227	35.84
849.403	-37.89
849.578	89.09
849.753	11.26
849.929	68.61
850.104	48.13
850.279	9.22
850.454	7.17
850.63	33.79
850.805	25.6
850.98	1.02
851.155	48.13
851.33	-50.18
851.505	27.65
851.681	31.74
851.856	35.84
852.031	21.5
852.206	74.75
852.381	1.02
852.556	17.41
852.731	121.85
852.906	17.41
853.081	54.27
853.256	-15.36
853.431	39.94
853.606	-5.12
853.781	52.22
853.956	23.55
854.131	48.13
854.305	-9.22
854.48	-1.02
854.655	19.46
854.83	-48.13
855.005	60.42
855.18	78.85
855.354	17.41
855.529	31.74
855.704	11.26
855.879	46.08
856.053	80.89
856.228	44.03
856.403	46.08
856.577	93.18
856.752	62.46
856.926	84.99
857.101	64.51
857.276	-70.65
857.45	-9.22
857.625	76.8
857.799	74.75
857.974	33.79
858.148	-31.74
858.323	25.6
858.497	-23.55
858.672	15.36
858.846	19.46
859.02	23.55
859.195	25.6
859.369	58.37
859.543	23.55
859.718	-9.22
859.892	1.02
860.066	25.6
860.241	48.13
860.415	1.02
860.589	-1.02
860.763	-23.55
860.938	-5.12
861.112	39.94
861.286	60.42
861.46	-23.55
861.634	46.08
861.808	64.51
861.982	27.65
862.157	-27.65
862.331	25.6
862.505	7.17
862.679	39.94
862.853	7.17
863.027	56.32
863.201	41.98
863.375	19.46
863.549	21.5
863.722	17.41
863.896	91.13
864.07	39.94
864.244	1.02
864.418	-33.79
864.592	93.18
864.766	23.55
864.939	35.84
865.113	5.12
865.287	-50.18
865.461	60.42
865.634	35.84
865.808	-17.41
865.982	-27.65
866.156	48.13
866.329	39.94
866.503	13.31
866.676	23.55
866.85	31.74
867.024	5.12
867.197	82.94
867.371	33.79
867.544	3.07
867.718	78.85
867.891	-64.51
868.065	33.79
868.238	37.89
868.412	-13.31
868.585	-66.56
868.759	3.07
868.932	1.02
869.105	41.98
869.279	35.84
869.452	-17.41
869.625	-76.8
869.799	-7.17
869.972	50.18
870.145	25.6
870.319	35.84
870.492	25.6
870.665	-9.22
870.838	31.74
871.011	21.5
871.185	-1.02
871.358	23.55
871.531	66.56
871.704	50.18
871.877	-19.46
872.05	44.03
872.223	25.6
872.396	11.26
872.569	13.31
872.742	-33.79
872.915	93.18
873.088	72.7
873.261	35.84
873.434	-25.6
873.607	31.74
873.78	-76.8
873.953	11.26
874.126	87.04
874.299	1.02
874.471	56.32
874.644	25.6
874.817	-9.22
874.99	107.52
875.163	-7.17
875.335	39.94
875.508	9.22
875.681	11.26
875.853	66.56
876.026	-7.17
876.199	-5.12
876.371	52.22
876.544	72.7
876.717	52.22
876.889	31.74
877.062	19.46
877.234	50.18
877.407	66.56
877.579	-17.41
877.752	-46.08
877.924	23.55
878.097	1.02
878.269	-5.12
878.442	7.17
878.614	25.6
878.786	15.36
878.959	62.46
879.131	-25.6
879.303	-23.55
879.476	89.09
879.648	11.26
879.82	23.55
879.993	82.94
880.165	80.89
880.337	1.02
880.509	-21.5
880.681	-7.17
880.854	27.65
881.026	-39.94
881.198	31.74
881.37	-9.22
881.542	-5.12
881.714	-25.6
881.886	48.13
882.058	15.36
882.23	58.37
882.402	62.46
882.574	-11.26
882.746	48.13
882.918	-29.7
883.09	60.42
883.262	50.18
883.434	-25.6
883.606	-1.02
883.778	41.98
883.95	1.02
884.122	76.8
884.293	95.23
884.465	-39.94
884.637	39.94
884.809	-17.41
884.98	46.08
885.152	48.13
885.324	13.31
885.496	-19.46
885.667	27.65
885.839	37.89
886.011	95.23
886.182	52.22
886.354	44.03
886.525	17.41
886.697	-37.89
886.869	-44.03
887.04	7.17
887.212	-3.07
887.383	27.65
887.555	-25.6
887.726	41.98
887.897	-3.07
888.069	-44.03
888.24	17.41
888.412	-19.46
888.583	19.46
888.754	21.5
888.926	-27.65
889.097	64.51
889.268	64.51
889.44	35.84
889.611	15.36
889.782	9.22
889.953	-27.65
890.125	15.36
890.296	35.84
890.467	50.18
890.638	56.32
890.809	-31.74
890.98	-11.26
891.151	11.26
891.323	37.89
891.494	29.7
891.665	-11.26
891.836	11.26
892.007	23.55
892.178	1.02
892.349	74.75
892.52	72.7
892.691	11.26
892.862	-44.03
893.032	-50.18
893.203	23.55
893.374	5.12
893.545	64.51
893.716	-37.89
893.887	37.89
894.057	-76.8
894.228	78.85
894.399	-25.6
894.57	99.33
894.74	5.12
894.911	-19.46
895.082	-1.02
895.253	11.26
895.423	-41.98
895.594	39.94
895.764	68.61
895.935	19.46
896.106	64.51
896.276	29.7
896.447	72.7
896.617	19.46
896.788	39.94
896.958	-11.26
897.129	-7.17
897.299	11.26
897.47	72.7
897.64	48.13
897.81	31.74
897.981	48.13
898.151	-35.84
898.322	5.12
898.492	-15.36
898.662	-17.41
898.832	-5.12
899.003	7.17
899.173	7.17
899.343	15.36
899.513	-15.36
