Data from USB4F104151__76__13-54-17-651.txt Node

Date: Thu Mar 13 13:54:17 EDT 2025
User: louis
Spectrometer: USB4F10415
Trigger mode: 4
Integration Time (sec): 1.000000E-2
Scans to average: 1
Electric dark correction enabled: true
Nonlinearity correction enabled: false
Boxcar width: 0
XAxis mode: Wavelengths
Number of Pixels in Spectrum: 3648
>>>>>Begin Spectral Data<<<<<
178.204	18.43
178.424	18.43
178.644	18.43
178.864	-86.01
179.084	-32.77
179.304	-6.14
179.524	8.19
179.744	63.49
179.964	28.67
180.184	-63.49
180.404	-28.67
180.624	36.86
180.844	-10.24
181.064	-61.44
181.283	-10.24
181.503	-22.53
181.723	65.54
181.943	0
182.163	-20.48
182.383	8.19
182.602	57.34
182.822	22.53
183.042	96.25
183.262	-8.19
183.482	-10.24
183.701	40.96
183.921	32.77
184.141	-20.48
184.361	94.21
184.58	51.2
184.8	38.91
185.02	38.91
185.239	38.91
185.459	20.48
185.679	57.34
185.898	-40.96
186.118	20.48
186.338	-47.1
186.557	79.87
186.777	49.15
186.997	81.92
187.216	53.25
187.436	106.49
187.655	55.3
187.875	22.53
188.095	90.11
188.314	36.86
188.534	24.58
188.753	14.34
188.973	32.77
189.192	-6.14
189.412	24.58
189.631	45.06
189.851	77.82
190.07	16.38
190.29	-22.53
190.509	112.64
190.729	14.34
190.948	24.58
191.168	43.01
191.387	69.63
191.607	-2.05
191.826	63.49
192.045	34.82
192.265	-8.19
192.484	30.72
192.704	71.68
192.923	-18.43
193.142	26.62
193.362	-47.1
193.581	24.58
193.8	18.43
194.02	71.68
194.239	-14.34
194.458	34.82
194.678	10.24
194.897	-40.96
195.116	-28.67
195.335	2.05
195.555	22.53
195.774	61.44
195.993	92.16
196.212	26.62
196.432	22.53
196.651	47.1
196.87	-8.19
197.089	77.82
197.308	-8.19
197.528	116.73
197.747	47.1
197.966	-12.29
198.185	-2.05
198.404	-8.19
198.623	36.86
198.842	8.19
199.062	14.34
199.281	-14.34
199.5	20.48
199.719	14.34
199.938	-14.34
200.157	34.82
200.376	69.63
200.595	22.53
200.814	61.44
201.033	-32.77
201.252	18.43
201.471	6.14
201.69	32.77
201.909	67.58
202.128	61.44
202.347	10.24
202.566	-12.29
202.785	12.29
203.004	-18.43
203.223	53.25
203.442	38.91
203.661	67.58
203.879	79.87
204.098	-4.1
204.317	-10.24
204.536	18.43
204.755	43.01
204.974	-55.3
205.193	20.48
205.411	106.49
205.63	4.1
205.849	34.82
206.068	10.24
206.287	-49.15
206.505	55.3
206.724	55.3
206.943	22.53
207.162	-6.14
207.381	36.86
207.599	69.63
207.818	-20.48
208.037	51.2
208.255	-28.67
208.474	65.54
208.693	32.77
208.911	16.38
209.13	-26.62
209.349	65.54
209.567	14.34
209.786	57.34
210.005	102.4
210.223	20.48
210.442	-26.62
210.661	47.1
210.879	-24.58
211.098	8.19
211.316	51.2
211.535	0
211.753	-2.05
211.972	18.43
212.191	16.38
212.409	34.82
212.628	2.05
212.846	-26.62
213.065	-12.29
213.283	43.01
213.502	6.14
213.72	40.96
213.938	-2.05
214.157	57.34
214.375	34.82
214.594	4.1
214.812	51.2
215.031	22.53
215.249	28.67
215.467	14.34
215.686	8.19
215.904	20.48
216.122	59.39
216.341	26.62
216.559	10.24
216.778	40.96
216.996	69.63
217.214	57.34
217.432	-4.1
217.651	2.05
217.869	0
218.087	-18.43
218.306	34.82
218.524	43.01
218.742	-12.29
218.96	88.06
219.179	-32.77
219.397	77.82
219.615	22.53
219.833	-12.29
220.051	69.63
220.27	14.34
220.488	55.3
220.706	28.67
220.924	2.05
221.142	43.01
221.36	69.63
221.578	63.49
221.796	24.58
222.015	-6.14
222.233	34.82
222.451	61.44
222.669	53.25
222.887	106.49
223.105	32.77
223.323	-24.58
223.541	16.38
223.759	10.24
223.977	2.05
224.195	90.11
224.413	36.86
224.631	53.25
224.849	45.06
225.067	59.39
225.285	-20.48
225.503	24.58
225.721	0
225.939	28.67
226.157	131.07
226.375	116.73
226.592	65.54
226.81	43.01
227.028	6.14
227.246	-2.05
227.464	-18.43
227.682	88.06
227.9	77.82
228.117	28.67
228.335	61.44
228.553	-12.29
228.771	10.24
228.989	-16.38
229.206	10.24
229.424	28.67
229.642	65.54
229.86	81.92
230.077	16.38
230.295	83.97
230.513	73.73
230.731	26.62
230.948	59.39
231.166	61.44
231.384	45.06
231.601	-22.53
231.819	32.77
232.037	-12.29
232.254	-24.58
232.472	-38.91
232.689	38.91
232.907	100.35
233.125	-26.62
233.342	112.64
233.56	14.34
233.777	69.63
233.995	59.39
234.213	-2.05
234.43	104.45
234.648	38.91
234.865	26.62
235.083	28.67
235.3	73.73
235.518	59.39
235.735	20.48
235.953	65.54
236.17	2.05
236.388	28.67
236.605	-2.05
236.822	137.21
237.04	65.54
237.257	55.3
237.475	6.14
237.692	20.48
237.909	18.43
238.127	-28.67
238.344	104.45
238.562	2.05
238.779	20.48
238.996	16.38
239.214	22.53
239.431	59.39
239.648	22.53
239.865	36.86
240.083	49.15
240.3	-18.43
240.517	-2.05
240.735	40.96
240.952	-30.72
241.169	67.58
241.386	32.77
241.603	40.96
241.821	-24.58
242.038	79.87
242.255	4.1
242.472	-40.96
242.689	26.62
242.907	4.1
243.124	88.06
243.341	-43.01
243.558	28.67
243.775	49.15
243.992	30.72
244.209	65.54
244.426	43.01
244.643	57.34
244.86	45.06
245.078	16.38
245.295	67.58
245.512	43.01
245.729	6.14
245.946	-32.77
246.163	73.73
246.38	38.91
246.597	20.48
246.814	-2.05
247.031	151.55
247.248	59.39
247.464	8.19
247.681	2.05
247.898	22.53
248.115	43.01
248.332	71.68
248.549	47.1
248.766	22.53
248.983	43.01
249.2	94.21
249.417	57.34
249.633	-22.53
249.85	65.54
250.067	-18.43
250.284	12.29
250.501	-2.05
250.717	65.54
250.934	59.39
251.151	20.48
251.368	38.91
251.585	98.3
251.801	110.59
252.018	57.34
252.235	51.2
252.451	40.96
252.668	-12.29
252.885	63.49
253.102	20.48
253.318	36.86
253.535	16.38
253.752	86.01
253.968	-38.91
254.185	38.91
254.401	30.72
254.618	-32.77
254.835	32.77
255.051	30.72
255.268	20.48
255.484	30.72
255.701	49.15
255.917	12.29
256.134	20.48
256.351	90.11
256.567	2.05
256.784	6.14
257	26.62
257.217	106.49
257.433	108.54
257.65	83.97
257.866	71.68
258.082	40.96
258.299	63.49
258.515	63.49
258.732	22.53
258.948	10.24
259.165	49.15
259.381	-8.19
259.597	-8.19
259.814	16.38
260.03	38.91
260.246	59.39
260.463	8.19
260.679	-14.34
260.895	32.77
261.112	118.78
261.328	-20.48
261.544	-14.34
261.761	77.82
261.977	47.1
262.193	65.54
262.409	55.3
262.626	40.96
262.842	53.25
263.058	-4.1
263.274	118.78
263.49	6.14
263.707	-40.96
263.923	-12.29
264.139	30.72
264.355	57.34
264.571	77.82
264.787	32.77
265.004	59.39
265.22	36.86
265.436	6.14
265.652	-8.19
265.868	-6.14
266.084	28.67
266.3	32.77
266.516	73.73
266.732	45.06
266.948	-8.19
267.164	-10.24
267.38	55.3
267.596	53.25
267.812	61.44
268.028	14.34
268.244	83.97
268.46	18.43
268.676	47.1
268.892	20.48
269.108	-63.49
269.324	18.43
269.54	-30.72
269.756	65.54
269.972	40.96
270.188	-8.19
270.403	75.77
270.619	-16.38
270.835	38.91
271.051	88.06
271.267	10.24
271.483	18.43
271.698	36.86
271.914	2.05
272.13	-2.05
272.346	45.06
272.562	10.24
272.777	26.62
272.993	-16.38
273.209	108.54
273.425	57.34
273.64	43.01
273.856	12.29
274.072	102.4
274.287	-22.53
274.503	24.58
274.719	88.06
274.934	-22.53
275.15	32.77
275.366	20.48
275.581	-55.3
275.797	36.86
276.012	32.77
276.228	51.2
276.444	-4.1
276.659	63.49
276.875	-10.24
277.09	24.58
277.306	28.67
277.521	18.43
277.737	55.3
277.952	32.77
278.168	-22.53
278.383	49.15
278.599	-67.58
278.814	40.96
279.03	-8.19
279.245	96.25
279.461	-43.01
279.676	49.15
279.892	12.29
280.107	100.35
280.322	-59.39
280.538	47.1
280.753	-24.58
280.969	8.19
281.184	55.3
281.399	-10.24
281.615	-8.19
281.83	34.82
282.045	-12.29
282.26	40.96
282.476	40.96
282.691	49.15
282.906	49.15
283.122	43.01
283.337	14.34
283.552	75.77
283.767	18.43
283.983	49.15
284.198	-57.34
284.413	51.2
284.628	-10.24
284.843	57.34
285.058	51.2
285.274	83.97
285.489	38.91
285.704	38.91
285.919	18.43
286.134	59.39
286.349	32.77
286.564	38.91
286.779	-10.24
286.995	43.01
287.21	-28.67
287.425	43.01
287.64	40.96
287.855	32.77
288.07	108.54
288.285	83.97
288.5	16.38
288.715	61.44
288.93	-18.43
289.145	69.63
289.36	36.86
289.575	8.19
289.79	20.48
290.004	34.82
290.219	77.82
290.434	61.44
290.649	26.62
290.864	73.73
291.079	-30.72
291.294	18.43
291.509	51.2
291.724	-14.34
291.938	20.48
292.153	18.43
292.368	38.91
292.583	43.01
292.798	40.96
293.012	40.96
293.227	65.54
293.442	0
293.657	30.72
293.871	18.43
294.086	4.1
294.301	34.82
294.516	43.01
294.73	63.49
294.945	24.58
295.16	2.05
295.374	55.3
295.589	-20.48
295.804	26.62
296.018	57.34
296.233	26.62
296.447	86.01
296.662	69.63
296.877	65.54
297.091	71.68
297.306	28.67
297.52	-16.38
297.735	-10.24
297.949	-32.77
298.164	90.11
298.378	-59.39
298.593	141.31
298.807	30.72
299.022	30.72
299.236	96.25
299.451	26.62
299.665	40.96
299.88	49.15
300.094	-2.05
300.309	-10.24
300.523	65.54
300.737	28.67
300.952	0
301.166	57.34
301.381	10.24
301.595	45.06
301.809	-59.39
302.024	-24.58
302.238	40.96
302.452	67.58
302.667	36.86
302.881	49.15
303.095	-28.67
303.309	20.48
303.524	28.67
303.738	-16.38
303.952	8.19
304.166	32.77
304.381	-10.24
304.595	28.67
304.809	8.19
305.023	49.15
305.237	4.1
305.452	4.1
305.666	69.63
305.88	12.29
306.094	43.01
306.308	45.06
306.522	-22.53
306.736	47.1
306.95	8.19
307.164	45.06
307.379	24.58
307.593	34.82
307.807	49.15
308.021	49.15
308.235	81.92
308.449	16.38
308.663	-14.34
308.877	-16.38
309.091	71.68
309.305	63.49
309.519	6.14
309.733	-2.05
309.947	63.49
310.161	77.82
310.374	98.3
310.588	86.01
310.802	47.1
311.016	86.01
311.23	83.97
311.444	77.82
311.658	43.01
311.872	90.11
312.085	22.53
312.299	-18.43
312.513	71.68
312.727	75.77
312.941	-16.38
313.154	18.43
313.368	8.19
313.582	10.24
313.796	28.67
314.009	16.38
314.223	73.73
314.437	59.39
314.651	2.05
314.864	-6.14
315.078	16.38
315.292	67.58
315.505	12.29
315.719	-4.1
315.933	81.92
316.146	81.92
316.36	2.05
316.573	51.2
316.787	-53.25
317.001	75.77
317.214	18.43
317.428	73.73
317.641	10.24
317.855	57.34
318.068	30.72
318.282	2.05
318.495	30.72
318.709	81.92
318.922	14.34
319.136	32.77
319.349	61.44
319.563	8.19
319.776	22.53
319.99	47.1
320.203	12.29
320.417	-10.24
320.63	55.3
320.843	81.92
321.057	63.49
321.27	32.77
321.483	34.82
321.697	34.82
321.91	53.25
322.124	43.01
322.337	34.82
322.55	45.06
322.763	83.97
322.977	36.86
323.19	86.01
323.403	83.97
323.617	-38.91
323.83	90.11
324.043	90.11
324.256	-30.72
324.469	73.73
324.683	100.35
324.896	98.3
325.109	32.77
325.322	-2.05
325.535	65.54
325.748	90.11
325.962	30.72
326.175	53.25
326.388	88.06
326.601	0
326.814	20.48
327.027	61.44
327.24	8.19
327.453	30.72
327.666	59.39
327.879	69.63
328.092	61.44
328.305	86.01
328.518	8.19
328.731	26.62
328.944	2.05
329.157	75.77
329.37	104.45
329.583	32.77
329.796	51.2
330.009	4.1
330.222	24.58
330.435	2.05
330.648	131.07
330.861	-65.53
331.073	0
331.286	30.72
331.499	133.12
331.712	-20.48
331.925	59.39
332.138	-24.58
332.35	53.25
332.563	53.25
332.776	-6.14
332.989	12.29
333.202	26.62
333.414	59.39
333.627	26.62
333.84	38.91
334.053	-18.43
334.265	-51.2
334.478	12.29
334.691	14.34
334.903	47.1
335.116	38.91
335.329	-24.58
335.541	20.48
335.754	100.35
335.966	65.54
336.179	75.77
336.392	22.53
336.604	55.3
336.817	16.38
337.029	86.01
337.242	24.58
337.454	18.43
337.667	-22.53
337.88	77.82
338.092	16.38
338.305	38.91
338.517	65.54
338.729	118.78
338.942	24.58
339.154	86.01
339.367	-28.67
339.579	51.2
339.792	63.49
340.004	92.16
340.217	49.15
340.429	32.77
340.641	51.2
340.854	55.3
341.066	77.82
341.278	20.48
341.491	34.82
341.703	67.58
341.915	-51.2
342.128	12.29
342.34	-12.29
342.552	45.06
342.764	36.86
342.977	18.43
343.189	55.3
343.401	49.15
343.613	30.72
343.826	30.72
344.038	24.58
344.25	22.53
344.462	24.58
344.674	83.97
344.886	22.53
345.099	67.58
345.311	65.54
345.523	18.43
345.735	6.14
345.947	110.59
346.159	-8.19
346.371	47.1
346.583	86.01
346.795	49.15
347.007	-59.39
347.219	65.54
347.431	55.3
347.643	40.96
347.855	63.49
348.067	24.58
348.279	-36.86
348.491	4.1
348.703	57.34
348.915	24.58
349.127	-30.72
349.339	92.16
349.551	77.82
349.763	49.15
349.975	-63.49
350.187	77.82
350.399	61.44
350.61	90.11
350.822	-26.62
351.034	98.3
351.246	79.87
351.458	10.24
351.669	-26.62
351.881	65.54
352.093	28.67
352.305	71.68
352.517	92.16
352.728	51.2
352.94	-53.25
353.152	122.88
353.363	65.54
353.575	-14.34
353.787	100.35
353.999	18.43
354.21	26.62
354.422	55.3
354.633	8.19
354.845	92.16
355.057	49.15
355.268	20.48
355.48	-12.29
355.692	67.58
355.903	43.01
356.115	49.15
356.326	-59.39
356.538	98.3
356.749	-10.24
356.961	53.25
357.172	57.34
357.384	49.15
357.595	63.49
357.807	98.3
358.018	53.25
358.23	24.58
358.441	75.77
358.653	63.49
358.864	51.2
359.075	-20.48
359.287	-20.48
359.498	90.11
359.709	26.62
359.921	18.43
360.132	69.63
360.344	53.25
360.555	20.48
360.766	120.83
360.977	-4.1
361.189	96.25
361.4	86.01
361.611	98.3
361.823	83.97
362.034	59.39
362.245	18.43
362.456	16.38
362.667	38.91
362.879	22.53
363.09	8.19
363.301	-43.01
363.512	12.29
363.723	47.1
363.935	36.86
364.146	71.68
364.357	61.44
364.568	8.19
364.779	40.96
364.99	51.2
365.201	24.58
365.412	63.49
365.623	14.34
365.834	-16.38
366.045	88.06
366.256	36.86
366.467	43.01
366.678	10.24
366.889	24.58
367.1	16.38
367.311	102.4
367.522	16.38
367.733	0
367.944	16.38
368.155	43.01
368.366	73.73
368.577	61.44
368.788	40.96
368.999	43.01
369.209	0
369.42	36.86
369.631	71.68
369.842	108.54
370.053	12.29
370.264	75.77
370.474	40.96
370.685	71.68
370.896	47.1
371.107	6.14
371.317	12.29
371.528	2.05
371.739	34.82
371.95	22.53
372.16	38.91
372.371	75.77
372.582	51.2
372.792	-2.05
373.003	-20.48
373.214	36.86
373.424	-47.1
373.635	28.67
373.846	28.67
374.056	28.67
374.267	141.31
374.477	10.24
374.688	79.87
374.898	32.77
375.109	55.3
375.319	18.43
375.53	-4.1
375.74	32.77
375.951	8.19
376.161	40.96
376.372	71.68
376.582	8.19
376.793	65.54
377.003	45.06
377.214	57.34
377.424	69.63
377.635	57.34
377.845	24.58
378.055	73.73
378.266	45.06
378.476	-40.96
378.686	55.3
378.897	40.96
379.107	67.58
379.317	36.86
379.528	16.38
379.738	30.72
379.948	8.19
380.158	0
380.369	92.16
380.579	40.96
380.789	36.86
380.999	77.82
381.21	51.2
381.42	57.34
381.63	86.01
381.84	0
382.05	22.53
382.261	49.15
382.471	32.77
382.681	65.54
382.891	69.63
383.101	20.48
383.311	79.87
383.521	51.2
383.731	65.54
383.941	40.96
384.151	71.68
384.361	43.01
384.571	49.15
384.781	26.62
384.991	36.86
385.201	16.38
385.411	-20.48
385.621	57.34
385.831	98.3
386.041	-2.05
386.251	8.19
386.461	6.14
386.671	65.54
386.881	0
387.091	36.86
387.301	16.38
387.511	108.54
387.72	100.35
387.93	61.44
388.14	88.06
388.35	79.87
388.56	38.91
388.769	-4.1
388.979	104.45
389.189	2.05
389.399	106.49
389.609	83.97
389.818	26.62
390.028	49.15
390.238	63.49
390.447	8.19
390.657	59.39
390.867	49.15
391.076	-30.72
391.286	-16.38
391.496	96.25
391.705	63.49
391.915	110.59
392.125	12.29
392.334	34.82
392.544	112.64
392.753	77.82
392.963	30.72
393.172	26.62
393.382	34.82
393.591	92.16
393.801	32.77
394.01	106.49
394.22	32.77
394.429	116.73
394.639	2.05
394.848	71.68
395.058	71.68
395.267	57.34
395.477	88.06
395.686	61.44
395.895	110.59
396.105	118.78
396.314	-26.62
396.524	67.58
396.733	38.91
396.942	67.58
397.152	-6.14
397.361	61.44
397.57	94.21
397.78	100.35
397.989	49.15
398.198	-18.43
398.407	67.58
398.617	104.45
398.826	96.25
399.035	120.83
399.244	10.24
399.453	96.25
399.663	108.54
399.872	122.88
400.081	-28.67
400.29	94.21
400.499	83.97
400.708	124.93
400.917	71.68
401.127	110.59
401.336	79.87
401.545	104.45
401.754	71.68
401.963	81.92
402.172	167.93
402.381	53.25
402.59	-10.24
402.799	86.01
403.008	98.3
403.217	145.41
403.426	38.91
403.635	90.11
403.844	28.67
404.053	69.63
404.262	47.1
404.471	167.93
404.68	104.45
404.888	196.61
405.097	139.26
405.306	163.84
405.515	112.64
405.724	133.12
405.933	153.6
406.142	227.32
406.35	92.16
406.559	139.26
406.768	143.36
406.977	143.36
407.185	141.31
407.394	190.46
407.603	61.44
407.812	204.8
408.02	176.13
408.229	65.54
408.438	104.45
408.646	225.28
408.855	155.65
409.064	212.99
409.272	217.08
409.481	184.32
409.69	118.78
409.898	83.97
410.107	167.93
410.315	241.66
410.524	186.37
410.733	221.18
410.941	196.61
411.15	151.55
411.358	212.99
411.567	278.52
411.775	282.62
411.984	233.47
412.192	262.14
412.401	299
412.609	325.63
412.818	337.91
413.026	321.53
413.234	315.39
413.443	317.44
413.651	387.07
413.86	344.06
414.068	403.45
414.276	364.54
414.485	352.25
414.693	333.82
414.901	468.98
415.11	415.74
415.318	421.88
415.526	485.37
415.734	532.47
415.943	440.31
416.151	497.66
416.359	460.79
416.567	561.14
416.776	524.28
416.984	595.96
417.192	636.92
417.4	591.86
417.608	591.86
417.817	636.92
418.025	655.35
418.233	659.45
418.441	743.41
418.649	714.74
418.857	763.89
419.065	849.91
419.273	735.22
419.481	804.85
419.689	884.72
419.897	950.26
420.105	948.21
420.313	950.26
420.521	1030.13
420.729	1073.14
420.937	1013.74
421.145	1081.33
421.353	1087.47
421.561	1206.25
421.769	1304.56
421.977	1318.89
422.185	1212.4
422.393	1316.84
422.601	1339.37
422.809	1363.95
423.017	1380.33
423.224	1521.64
423.432	1472.49
423.64	1476.59
423.848	1654.76
424.056	1548.26
424.263	1644.52
424.471	1787.88
424.679	1617.9
424.887	1769.45
425.094	1970.15
425.302	1832.93
425.51	2033.63
425.718	2140.13
425.925	2103.26
426.133	2109.41
426.341	2277.34
426.548	2402.27
426.756	2344.92
426.964	2467.8
427.171	2578.39
427.379	2531.29
427.586	2688.98
427.794	2607.06
428.001	2863.06
428.209	3016.66
428.417	2725.85
428.624	2973.65
428.832	3112.91
429.039	3231.69
429.247	3121.1
429.454	3332.05
429.662	3706.82
429.869	3299.28
430.076	3631.05
430.284	3547.08
430.491	3696.58
430.699	3921.86
430.906	3860.42
431.114	4030.4
431.321	4024.26
431.528	4104.13
431.736	4478.91
431.943	4526.01
432.15	4530.11
432.358	4638.65
432.565	4806.58
432.772	4763.58
432.979	4941.75
433.187	4980.66
433.394	5038
433.601	5556.14
433.808	5437.36
434.016	5564.33
434.223	5713.83
434.43	5793.7
434.637	5840.81
434.844	6350.75
435.052	6375.33
435.259	6422.43
435.466	6578.08
435.673	6238.11
435.88	6815.64
436.087	7112.6
436.294	7106.45
436.501	6918.04
436.708	7042.96
436.915	7219.09
437.122	7628.68
437.329	7643.02
437.537	7882.63
437.743	8071.04
437.95	7919.5
438.157	8269.7
438.364	8562.56
438.571	8671.1
438.778	8638.33
438.985	9406.32
439.192	8953.72
439.399	9383.79
439.606	9174.9
439.813	9584.49
440.02	10301.28
440.227	9848.68
440.433	9846.63
440.64	10428.26
440.847	10069.86
441.054	10567.52
441.261	11173.72
441.467	10987.35
441.674	11186.01
441.881	11614.03
442.088	11644.75
442.294	11376.47
442.501	11968.33
442.708	12083.02
442.914	12556.1
443.121	13123.38
443.328	12668.73
443.534	13569.84
443.741	13094.71
443.948	13029.18
444.154	14042.92
444.361	13793.07
444.568	14130.98
444.774	14065.45
444.981	14034.73
445.187	14810.91
445.394	15480.6
445.6	15200.02
445.807	16271.11
446.013	15859.47
446.22	15998.73
446.426	16549.64
446.633	16611.07
446.839	17301.24
447.046	16754.43
447.252	17643.25
447.459	17653.49
447.665	17524.47
447.871	18163.43
448.078	18857.7
448.284	18145
448.491	18700
448.697	19324.63
448.903	19676.88
449.11	19777.23
449.316	19287.77
449.522	19588.82
449.728	20403.91
449.935	20330.19
450.141	20334.28
450.347	20664
450.553	20313.8
450.76	20352.71
450.966	20879.04
451.172	20907.71
451.378	21067.45
451.584	21223.1
451.791	21202.62
451.997	21139.13
452.203	21556.92
452.409	21796.53
452.615	21532.34
452.821	20686.53
453.027	20428.49
453.233	21368.51
453.44	20621
453.646	20586.18
453.852	20973.25
454.058	21161.66
454.264	20508.36
454.47	20829.89
454.676	20231.88
454.882	21366.46
455.088	19044.06
455.294	19570.39
455.5	19625.68
455.705	19746.51
455.911	19279.58
456.117	18816.74
456.323	18593.51
456.529	17575.67
456.735	18224.87
456.941	17696.5
457.147	17542.9
457.352	16834.3
457.558	16711.42
457.764	16910.08
457.97	16273.16
458.176	16137.99
458.381	16119.56
458.587	15161.11
458.793	15335.19
458.999	14548.77
459.204	15480.6
459.41	15136.54
459.616	14092.07
459.821	14153.51
460.027	14217
460.233	13872.94
460.438	13170.49
460.644	13188.92
460.85	12508.99
461.055	12373.83
461.261	12699.45
461.466	11714.38
461.672	11044.7
461.878	12148.55
462.083	11122.52
462.289	11104.09
462.494	10977.11
462.7	10448.74
462.905	10047.33
463.111	10413.92
463.316	10551.13
463.522	10209.12
463.727	10284.9
463.932	10444.64
464.138	10248.04
464.343	10452.83
464.549	9971.56
464.754	10405.73
464.959	10166.12
465.165	9989.99
465.37	9664.36
465.575	9596.78
465.781	9826.15
465.986	9992.04
466.191	9705.32
466.397	9277.3
466.602	9127.8
466.807	9174.9
467.012	9238.39
467.218	9107.32
467.423	8769.4
467.628	9240.44
467.833	9373.55
468.038	9168.76
468.244	9054.07
468.449	9592.69
468.654	8914.81
468.859	8972.15
469.064	9072.5
469.269	8685.44
469.474	8613.76
469.679	8710.01
469.885	8636.28
470.09	8527.74
470.295	8660.86
470.5	8345.47
470.705	8411.01
470.91	8144.77
471.115	8015.75
471.32	8077.19
471.525	8107.91
471.73	8007.56
471.935	8036.23
472.139	7595.92
472.344	7919.5
472.549	7583.63
472.754	7651.21
472.959	7507.85
473.164	7217.04
473.369	7290.77
473.574	7368.59
473.778	7348.11
473.983	7153.55
474.188	7251.86
474.393	6883.22
474.598	6959
474.802	6813.59
475.007	6891.41
475.212	6848.41
475.417	6676.38
475.621	6686.62
475.826	6598.56
476.031	6594.46
476.235	6397.85
476.44	6408.09
476.645	6502.3
476.849	6508.44
477.054	6256.54
477.259	6279.07
477.463	6272.93
477.668	6174.63
477.872	6111.14
478.077	6119.33
478.282	5861.29
478.486	5828.52
478.691	5758.89
478.895	5963.68
479.1	5881.77
479.304	5842.85
479.509	5672.87
479.713	5760.94
479.918	5730.22
480.122	5562.28
480.326	5609.39
480.531	5433.26
480.735	5619.63
480.94	5552.04
481.144	5683.11
481.348	5449.64
481.553	5392.3
481.757	5316.53
481.961	5468.08
482.166	5599.15
482.37	5453.74
482.574	5148.59
482.778	5289.9
482.983	5470.12
483.187	5539.76
483.391	5425.07
483.595	5466.03
483.8	5431.21
484.004	5447.6
484.208	5468.08
484.412	5470.12
484.616	5281.71
484.821	5504.94
485.025	5296.05
485.229	5332.91
485.433	5255.09
485.637	5339.05
485.841	5398.45
486.045	5283.76
486.249	5380.01
486.453	5308.34
486.657	5386.16
486.861	5369.77
487.065	5146.55
487.269	5519.28
487.473	5414.83
487.677	5304.24
487.881	5486.51
488.085	5337.01
488.289	5445.55
488.493	5359.53
488.697	5545.9
488.901	5394.35
489.105	5418.93
489.309	5437.36
489.512	5441.45
489.716	5410.73
489.92	5558.19
490.124	5521.32
490.328	5607.34
490.531	5494.7
490.735	5584.81
490.939	5662.63
491.143	5625.77
491.346	5494.7
491.55	5689.26
491.754	5636.01
491.958	5595.05
492.161	5636.01
492.365	5726.12
492.569	5681.07
492.772	5816.23
492.976	5754.79
493.18	5818.28
493.383	5879.72
493.587	5801.9
493.79	5855.14
493.994	5818.28
494.197	5900.2
494.401	6078.37
494.605	5914.53
494.808	6148
495.012	6012.84
495.215	6324.13
495.419	6240.16
495.622	6227.87
495.825	6401.95
496.029	6410.14
496.232	6584.22
496.436	6512.54
496.639	6623.13
496.843	6592.41
497.046	6723.48
497.249	6719.39
497.453	6776.73
497.656	7026.58
497.859	7157.65
498.063	6852.5
498.266	7075.73
498.469	7139.22
498.673	7194.51
498.876	7192.47
499.079	7307.15
499.282	7301.01
499.485	7454.61
499.689	7669.64
499.892	7829.38
500.095	7614.35
500.298	7892.87
500.501	7878.54
500.705	7995.27
500.908	8083.33
501.111	8265.6
501.314	8327.04
501.517	8226.69
501.72	8359.81
501.923	8378.24
502.126	8888.18
502.329	9086.84
502.532	8777.59
502.735	8943.48
502.938	9164.66
503.141	9125.75
503.344	9322.35
503.547	9434.99
503.75	9471.86
503.953	9707.37
504.156	9873.26
504.359	9643.88
504.562	9914.22
504.765	10143.59
504.968	10250.08
505.17	10458.98
505.373	10317.67
505.576	10622.81
505.779	10444.64
505.982	10846.04
506.185	11032.41
506.387	10782.56
506.59	11056.98
506.793	11298.64
506.996	11296.6
507.198	11552.59
507.401	11439.95
507.604	11753.29
507.807	11902.79
508.009	11951.95
508.212	12222.28
508.415	12332.87
508.617	12425.03
508.82	12398.4
509.022	12617.54
509.225	12910.4
509.428	13063.99
509.63	13215.54
509.833	13029.18
510.035	13633.33
510.238	13575.98
510.44	13662
510.643	14042.92
510.845	14075.69
511.048	14104.36
511.25	14329.64
511.453	14501.67
511.655	14905.12
511.858	14792.48
512.06	14759.71
512.262	15109.91
512.465	15109.91
512.667	15378.2
512.87	15808.27
513.072	15791.89
513.274	15992.59
513.477	15857.42
513.679	16238.34
513.881	16193.29
514.084	16496.39
514.286	16578.31
514.488	16840.45
514.69	17286.9
514.893	17239.8
515.095	17323.77
515.297	17755.89
515.499	17759.98
515.701	17919.73
515.904	18245.35
516.106	18474.73
516.308	18525.93
516.51	18763.49
516.712	18708.19
516.914	19416.79
517.116	19402.46
517.318	19652.31
517.52	19472.09
517.722	19470.04
517.925	19828.43
518.127	20035.28
518.329	20303.56
518.531	20352.71
518.733	20883.14
518.935	20934.34
519.136	21214.91
519.338	21550.78
519.54	21296.83
519.742	21774
519.944	21741.24
520.146	22326.96
520.348	22367.91
520.55	22529.7
520.752	22660.77
520.954	22955.68
521.155	22875.81
521.357	23316.12
521.559	23301.79
521.761	23852.69
521.963	23738.01
522.164	23985.81
522.366	24143.5
522.568	24391.31
522.77	24891.01
522.971	25030.27
523.173	24659.59
523.375	24950.4
523.576	25300.61
523.778	24972.93
523.98	25329.28
524.181	25566.84
524.383	25798.26
524.584	26140.27
524.786	25824.89
524.988	26031.73
525.189	26490.48
525.391	26422.89
525.592	26791.53
525.794	27002.47
525.995	26949.22
526.197	27305.57
526.398	27448.93
526.6	27506.27
526.801	27326.05
527.003	27489.88
527.204	27397.73
527.406	28167.76
527.607	27770.46
527.808	28266.06
528.01	27698.78
528.211	27858.52
528.412	28851.78
528.614	28315.22
528.815	28481.1
529.016	28528.2
529.218	28083.8
529.419	28393.04
529.62	28810.82
529.822	28620.36
530.023	28548.68
530.224	28913.22
530.425	28831.3
530.626	28739.15
530.828	28892.74
531.029	29570.62
531.23	28900.93
531.431	29017.67
531.632	29296.19
531.833	29257.28
532.035	29257.28
532.236	29308.48
532.437	29431.36
532.638	29263.43
532.839	29392.45
533.04	29675.07
533.241	29333.06
533.442	29828.66
533.643	29810.23
533.844	29474.37
534.045	29830.71
534.246	29449.79
534.447	29826.62
534.648	29621.82
534.849	30068.28
535.05	29615.68
535.251	29496.89
535.451	29888.06
535.652	29785.66
535.853	29765.18
536.054	30131.76
536.255	30031.41
536.456	29605.44
536.657	30103.09
536.857	29529.66
537.058	29525.57
537.259	29851.19
537.46	29963.83
537.66	29806.14
537.861	30006.84
538.062	29406.78
538.263	29709.88
538.463	29847.1
538.664	29814.33
538.865	29679.16
539.065	29828.66
539.266	29496.89
539.466	30228.02
539.667	29353.54
539.868	30285.36
540.068	29922.87
540.269	29920.82
540.469	30205.49
540.67	29892.15
540.87	29675.07
541.071	29881.91
541.271	30088.76
541.472	29863.48
541.672	29617.72
541.873	29623.87
542.073	29673.02
542.274	29976.12
542.474	29929.02
542.675	29666.88
542.875	30025.27
543.075	29793.85
543.276	29871.67
543.476	30578.22
543.676	29967.93
543.877	30025.27
544.077	29662.78
544.277	29611.58
544.478	29568.57
544.678	30029.37
544.878	29879.86
545.078	29783.61
545.279	29808.19
545.479	29724.22
545.679	29836.86
545.879	29849.14
546.079	29953.59
546.28	29576.76
546.48	29509.18
546.68	29799.99
546.88	29697.59
547.08	29869.62
547.28	29929.02
547.48	29644.35
547.68	29730.36
547.88	29478.46
548.081	29849.14
548.281	29634.11
548.481	29527.61
548.681	30109.24
548.881	29791.8
549.081	29675.07
549.28	29632.06
549.48	30072.37
549.68	29619.77
549.88	30078.52
550.08	29765.18
550.28	29820.47
550.48	29646.4
550.68	29853.24
550.88	29466.17
551.08	29630.01
551.279	29738.55
551.479	29357.63
551.679	29693.5
551.879	29437.5
552.079	29634.11
552.278	29595.2
552.478	29736.51
552.678	29546.05
552.878	29953.59
553.077	29470.27
553.277	29333.06
553.477	29771.32
553.676	29546.05
553.876	29722.17
554.076	29122.12
554.275	29445.69
554.475	29222.47
554.674	29605.44
554.874	29806.14
555.074	29341.25
555.273	29410.88
555.473	29554.24
555.672	29412.93
555.872	29597.24
556.071	29140.55
556.271	29302.34
556.47	29251.14
556.67	28991.05
556.869	29226.56
557.068	28968.52
557.268	29142.6
557.467	29253.19
557.667	28952.13
557.866	29089.35
558.065	28792.39
558.265	28743.24
558.464	28581.45
558.663	29029.96
558.863	28737.1
559.062	28771.91
559.261	28581.45
559.461	29079.11
559.66	28368.46
559.859	28714.57
560.058	28397.13
560.258	28741.19
560.457	28325.46
560.656	28593.74
560.855	28499.53
561.054	28712.52
561.253	28102.23
561.453	28581.45
561.652	28110.42
561.851	28661.32
562.05	28014.16
562.249	27651.67
562.448	28259.92
562.647	28126.8
562.846	27623
563.045	28370.51
563.244	27835.99
563.443	28235.35
563.642	27774.55
563.841	27680.35
564.04	27610.71
564.239	27821.66
564.438	27704.92
564.637	27489.88
564.836	27588.19
565.035	27264.61
565.234	27819.61
565.432	27414.11
565.631	27496.03
565.83	27440.73
566.029	27184.74
566.228	27590.23
566.427	27268.7
566.625	27055.72
566.824	26857.06
567.023	27000.42
567.222	26410.6
567.42	26842.73
567.619	26924.65
567.818	26984.04
568.016	26576.49
568.215	26791.53
568.414	26357.36
568.612	26824.29
568.811	26470
569.01	26549.87
569.208	26283.63
569.407	26146.42
569.605	26189.42
569.804	26449.52
570.002	25968.24
570.201	26224.24
570.4	25937.52
570.598	25585.27
570.797	26005.11
570.995	25919.09
571.193	25204.35
571.392	25984.63
571.59	25478.78
571.789	25390.72
571.987	25452.16
572.186	25429.63
572.384	25128.58
572.582	25343.61
572.781	25517.69
572.979	24921.73
573.177	25353.85
573.376	24972.93
573.574	24866.44
573.772	24856.2
573.971	24821.38
574.169	24555.15
574.367	24622.73
574.565	24741.51
574.763	24512.14
574.962	24172.18
575.16	24344.2
575.358	24454.79
575.556	24198.8
575.754	24538.76
575.952	23994
576.151	24053.39
576.349	23684.76
576.547	23838.36
576.745	23821.97
576.943	23885.46
577.141	23586.46
577.339	24043.15
577.537	23819.92
577.735	23459.48
577.933	23187.1
578.131	23459.48
578.329	23463.58
578.527	22982.31
578.725	23334.56
578.923	23314.08
579.121	23367.32
579.319	22867.62
579.516	22906.53
579.714	23211.68
579.912	22685.35
580.11	22699.69
580.308	22757.03
580.506	22691.49
580.704	22185.65
580.901	22709.93
581.099	22630.05
581.297	22482.6
581.495	22341.29
581.692	22439.59
581.89	22134.45
582.088	22396.59
582.285	22130.35
582.483	22369.96
582.681	21968.56
582.878	21898.93
583.076	21708.47
583.274	21769.91
583.471	21548.73
583.669	21800.63
583.866	21550.78
584.064	21583.54
584.262	21257.92
584.459	21333.69
584.657	21499.58
584.854	21511.86
585.052	21100.22
585.249	21356.22
585.447	21089.98
585.644	20799.17
585.841	21354.17
586.039	20905.66
586.236	20735.68
586.434	20793.03
586.631	20653.76
586.828	20922.05
587.026	20606.66
587.223	20393.67
587.42	20526.79
587.618	20577.99
587.815	20334.28
588.012	20195.02
588.21	20500.17
588.407	20518.6
588.604	20068.05
588.801	20145.87
588.999	20045.52
589.196	20055.76
589.393	20287.18
589.59	19836.63
589.787	19584.73
589.984	19810
590.182	19746.51
590.379	19777.23
590.576	19613.4
590.773	19648.21
590.97	19400.41
591.167	19625.68
591.364	19302.11
591.561	19525.33
591.758	19017.44
591.955	19109.6
592.152	18968.29
592.349	19025.63
592.546	19117.79
592.743	19216.09
592.94	18632.42
593.137	18917.09
593.334	19156.7
593.531	18804.45
593.727	18833.12
593.924	18577.12
594.121	18568.93
594.318	18706.15
594.515	18484.97
594.712	18558.69
594.908	18317.03
595.105	18519.78
595.302	18251.5
595.499	18480.87
595.696	18136.81
595.892	17946.35
596.089	18200.3
596.286	18013.93
596.482	18001.65
596.679	17856.24
596.876	17897.2
597.072	17897.2
597.269	17907.44
597.466	17706.74
597.662	17698.55
597.859	17555.19
598.055	17714.93
598.252	17446.65
598.448	17682.16
598.645	17581.81
598.841	17268.47
599.038	17467.13
599.234	17508.08
599.431	17184.51
599.627	17063.68
599.824	17092.35
600.02	16934.65
600.217	16875.26
600.413	16854.78
600.609	16672.51
600.806	16664.32
601.002	16910.08
601.198	16731.9
601.395	16899.84
601.591	16727.81
601.787	16690.95
601.984	16623.36
602.18	16635.65
602.376	16402.18
602.572	16318.22
602.769	16361.22
602.965	16031.5
603.161	16191.24
603.357	15943.44
603.553	16234.25
603.75	15980.3
603.946	15980.3
604.142	15963.92
604.338	15968.01
604.534	16080.65
604.73	15562.51
604.926	15884.05
605.122	15679.25
605.318	15630.1
605.514	15638.29
605.71	15537.94
605.906	15552.27
606.102	15435.54
606.298	15343.38
606.494	15519.51
606.69	15492.88
606.886	15353.62
607.082	15083.29
607.278	15234.84
607.474	14837.53
607.67	15249.18
607.866	14989.08
608.062	15193.88
608.257	15015.71
608.453	15027.99
608.649	15191.83
608.845	14892.83
609.041	14880.54
609.236	14663.46
609.432	14692.13
609.628	14991.13
609.824	14610.21
610.019	14501.67
610.215	14733.09
610.411	14470.95
610.606	14622.5
610.802	14303.01
610.998	14393.12
611.193	14186.28
611.389	14337.83
611.584	14231.33
611.78	14151.46
611.976	14294.82
612.171	14237.48
612.367	14241.57
612.562	14341.93
612.758	13842.22
612.953	14092.07
613.149	14212.9
613.344	13938.48
613.539	14051.11
613.735	14028.59
613.93	13973.29
614.126	13756.21
614.321	13717.29
614.517	13598.51
614.712	13719.34
614.907	13838.12
615.103	13586.22
615.298	13721.39
615.493	13807.41
615.688	13383.48
615.884	13791.02
616.079	13381.43
616.274	13580.08
616.47	13586.22
616.665	13492.02
616.86	13469.49
617.055	13305.65
617.25	13252.41
617.445	13406
617.641	13031.23
617.836	13072.18
618.031	13313.84
618.226	13070.14
618.421	12916.54
618.616	13182.77
618.811	13025.08
619.006	12883.77
619.201	12685.12
619.396	12902.2
619.591	12525.38
619.786	12508.99
619.981	12554.05
620.176	12543.81
620.371	12498.75
620.566	12476.23
620.761	12474.18
620.956	12539.71
621.151	12267.33
621.346	12447.55
621.541	12095.3
621.735	12171.08
621.93	12068.68
622.125	12025.67
622.32	11933.51
622.515	11988.81
622.709	11970.38
622.904	11626.32
623.099	11710.29
623.294	11730.76
623.488	11583.31
623.683	11794.25
623.878	11196.25
624.072	11542.35
624.267	11278.16
624.462	11169.62
624.656	11108.18
624.851	11106.13
625.046	11030.36
625.24	10960.73
625.435	10889.05
625.629	10882.91
625.824	10921.82
626.018	10776.41
626.213	10680.16
626.407	10688.35
626.602	10481.5
626.796	10731.36
626.991	10516.32
627.185	10575.71
627.38	10293.09
627.574	10303.33
627.768	10254.18
627.963	10256.23
628.157	9967.46
628.352	10137.45
628.546	9971.56
628.74	9920.36
628.935	9989.99
629.129	9893.74
629.323	10000.23
629.517	9867.11
629.712	9865.07
629.906	9451.38
630.1	9504.62
630.294	9777
630.489	9598.83
630.683	9629.55
630.877	9561.97
631.071	9375.6
631.265	9453.42
631.459	9293.68
631.653	9197.43
631.848	9340.79
632.042	9226.1
632.236	9095.03
632.43	9009.01
632.624	9127.8
632.818	8822.65
633.012	8744.83
633.206	8671.1
633.4	8935.29
633.594	8636.28
633.788	8820.6
633.982	8824.7
634.176	8605.56
634.369	8574.85
634.563	8750.97
634.757	8398.72
634.951	8372.1
635.145	8552.32
635.339	8656.76
635.533	8124.29
635.726	8296.32
635.92	8198.02
636.114	8361.86
636.308	8167.3
636.501	8312.71
636.695	8011.65
636.889	8025.99
637.083	7884.68
637.276	7849.86
637.47	7798.66
637.664	7837.58
637.857	7765.9
638.051	8042.37
638.244	7788.43
638.438	7690.12
638.632	7616.4
638.825	7536.53
639.019	7591.82
639.212	7686.03
639.406	7622.54
639.599	7399.31
639.793	7397.26
639.986	7282.58
640.18	7683.98
640.373	7354.26
640.567	7253.91
640.76	7327.63
640.954	7149.46
641.147	7143.31
641.34	7190.42
641.534	7274.38
641.727	7073.68
641.92	7014.29
642.114	6829.98
642.307	6823.83
642.5	6782.87
642.694	6727.58
642.887	6676.38
643.08	6778.78
643.273	6776.73
643.467	6637.47
643.66	6440.86
643.853	6573.98
644.046	6479.77
644.239	6533.02
644.432	6508.44
644.626	6397.85
644.819	6510.49
645.012	6180.77
645.205	6358.94
645.398	6346.66
645.591	6289.31
645.784	6287.26
645.977	6221.73
646.17	6045.6
646.363	5928.87
646.556	5920.68
646.749	6119.33
646.942	6160.29
647.135	5887.91
647.328	5935.01
647.521	5898.15
647.714	5887.91
647.907	5805.99
648.099	5810.09
648.292	5857.19
648.485	5654.44
648.678	5676.97
648.871	5660.59
649.064	5595.05
649.256	5689.26
649.449	5558.19
649.642	5412.78
649.835	5521.32
650.027	5324.72
650.22	5498.8
650.413	5427.12
650.605	5304.24
650.798	5443.5
650.991	5269.42
651.183	5349.29
651.376	5185.46
651.568	5289.9
651.761	5173.17
651.954	5193.65
652.146	5093.3
652.339	5103.54
652.531	5078.96
652.724	5038
652.916	4798.39
653.109	5001.14
653.301	5003.19
653.494	4904.89
653.686	4706.23
653.879	4970.42
654.071	4857.78
654.263	4874.17
654.456	4868.02
654.648	4761.53
654.84	4724.66
655.033	4607.93
655.225	4607.93
655.417	4642.75
655.61	4652.98
655.802	4634.55
655.994	4458.43
656.186	4609.98
656.379	4648.89
656.571	4620.22
656.763	4446.14
656.955	4255.68
657.148	4511.68
657.34	4413.37
657.532	4263.87
657.724	4241.34
657.916	4290.49
658.108	4327.36
658.3	4204.48
658.492	4245.44
658.684	4222.91
658.876	4112.32
659.068	4063.17
659.26	4140.99
659.452	3991.49
659.644	4077.51
659.836	4005.83
660.028	4050.88
660.22	3928
660.412	4091.84
660.604	3977.16
660.796	4003.78
660.988	3903.43
661.18	3841.99
661.372	3825.61
661.563	3807.17
661.755	3762.12
661.947	3794.89
662.139	3823.56
662.331	3710.92
662.522	3704.78
662.714	3680.2
662.906	3616.71
663.097	3694.54
663.289	3622.86
663.481	3616.71
663.673	3471.31
663.864	3663.82
664.056	3446.73
664.247	3524.55
664.439	3504.07
664.631	3426.25
664.822	3512.27
665.014	3350.48
665.205	3516.36
665.397	3403.72
665.588	3428.3
665.78	3375.05
665.971	3330
666.163	3366.86
666.354	3389.39
666.546	3278.8
666.737	3241.93
666.929	3280.85
667.12	3301.33
667.311	3100.62
667.503	3237.84
667.694	3100.62
667.885	3168.21
668.077	3172.3
668.268	3162.06
668.459	3121.1
668.651	3065.81
668.842	3100.62
669.033	2979.79
669.224	3078.1
669.416	3041.23
669.607	3088.34
669.798	3010.51
669.989	3057.62
670.18	3012.56
670.371	3043.28
670.563	2977.75
670.754	3006.42
670.945	2990.03
671.136	3057.62
671.327	2824.15
671.518	2883.54
671.709	2764.76
671.9	2916.31
672.091	2987.99
672.282	2924.5
672.473	2723.8
672.664	2838.48
672.855	2801.62
673.046	2709.46
673.237	2713.56
673.428	2803.67
673.619	2793.43
673.809	2772.95
674	2803.67
674.191	2766.81
674.382	2645.98
674.573	2691.03
674.764	2709.46
674.954	2635.74
675.145	2699.22
675.336	2656.22
675.527	2623.45
675.717	2574.3
675.908	2723.8
676.099	2596.82
676.289	2619.35
676.48	2654.17
676.671	2557.91
676.861	2596.82
677.052	2424.8
677.243	2641.88
677.433	2557.91
677.624	2529.24
677.814	2555.86
678.005	2471.9
678.195	2385.88
678.386	2484.19
678.576	2562.01
678.767	2504.67
678.957	2566.1
679.148	2475.99
679.338	2492.38
679.529	2424.8
679.719	2490.33
679.909	2566.1
680.1	2437.08
680.29	2410.46
680.481	2430.94
680.671	2392.03
680.861	2351.07
681.052	2379.74
681.242	2408.41
681.432	2387.93
681.622	2344.92
681.813	2269.15
682.003	2430.94
682.193	2328.54
682.383	2418.65
682.573	2346.97
682.764	2246.62
682.954	2379.74
683.144	2287.58
683.334	2277.34
683.524	2308.06
683.714	2357.21
683.904	2164.7
684.094	2334.68
684.284	2265.05
684.474	2330.59
684.664	2314.2
684.854	2222.05
685.044	2248.67
685.234	2252.77
685.424	2310.11
685.614	2080.74
685.804	2207.71
685.994	2232.29
686.184	2291.68
686.374	2199.52
686.564	2150.37
686.753	2197.47
686.943	2047.97
687.133	2217.95
687.323	2193.37
687.513	2205.66
687.702	2156.51
687.892	2131.94
688.082	2160.61
688.272	2043.87
688.461	2027.49
688.651	2095.07
688.841	2127.84
689.03	2127.84
689.22	2093.02
689.41	2084.83
689.599	2093.02
689.789	2166.75
689.979	2117.6
690.168	2076.64
690.358	2101.22
690.547	2076.64
690.737	2074.59
690.926	1994.72
691.116	1980.39
691.305	2086.88
691.495	2054.11
691.684	2090.98
691.874	2041.82
692.063	2015.2
692.252	1972.19
692.442	2052.06
692.631	1992.67
692.82	2133.98
693.01	1957.86
693.199	2007.01
693.388	2099.17
693.578	2045.92
693.767	2047.97
693.956	2086.88
694.146	1994.72
694.335	1978.34
694.524	2070.5
694.713	1931.23
694.902	1966.05
695.092	2105.31
695.281	1900.51
695.47	1964
695.659	1935.33
695.848	1949.67
696.037	2019.3
696.226	1970.15
696.415	2072.54
696.604	1966.05
696.793	1980.39
696.982	1923.04
697.171	1931.23
697.36	2054.11
697.549	1923.04
697.738	1927.14
697.927	1910.75
698.116	1998.82
698.305	2076.64
698.494	1949.67
698.683	1918.95
698.872	2004.96
699.061	1955.81
699.25	1937.38
699.438	1925.09
699.627	1957.86
699.816	1939.43
700.005	1916.9
700.193	2123.74
700.382	1925.09
700.571	1945.57
700.76	1976.29
700.948	2072.54
701.137	1959.91
701.326	1941.47
701.514	1828.84
701.703	1978.34
701.892	1847.27
702.08	1920.99
702.269	1984.48
702.457	1945.57
702.646	1847.27
702.834	1806.31
703.023	1880.04
703.212	1892.32
703.4	1875.94
703.589	1865.7
703.777	1861.6
703.965	1812.45
704.154	1900.51
704.342	1867.75
704.531	1890.28
704.719	1853.41
704.907	1892.32
705.096	1757.16
705.284	1957.86
705.472	1841.12
705.661	1826.79
705.849	1904.61
706.037	1779.68
706.226	1714.15
706.414	1841.12
706.602	1783.78
706.79	1794.02
706.979	1820.64
707.167	1701.86
707.355	1720.29
707.543	1761.25
707.731	1816.55
707.919	1777.64
708.107	1761.25
708.296	1800.16
708.484	1662.95
708.672	1796.07
708.86	1742.82
709.048	1759.21
709.236	1708.01
709.424	1710.05
709.612	1673.19
709.8	1660.9
709.988	1693.67
710.176	1652.71
710.364	1814.5
710.551	1738.73
710.739	1769.45
710.927	1724.39
711.115	1613.8
711.303	1624.04
711.491	1753.06
711.679	1685.48
711.866	1671.14
712.054	1660.9
712.242	1595.37
712.43	1687.53
712.617	1695.72
712.805	1589.22
712.993	1578.98
713.181	1505.26
713.368	1617.9
713.556	1642.47
713.744	1632.23
713.931	1671.14
714.119	1568.74
714.306	1589.22
714.494	1544.17
714.682	1511.4
714.869	1527.78
715.057	1562.6
715.244	1564.65
715.432	1615.85
715.619	1521.64
715.807	1599.46
715.994	1394.67
716.182	1546.22
716.369	1593.32
716.556	1529.83
716.744	1529.83
716.931	1462.25
717.119	1517.54
717.306	1497.07
717.493	1507.3
717.681	1443.82
717.868	1513.45
718.055	1429.48
718.242	1490.92
718.43	1472.49
718.617	1443.82
718.804	1435.63
718.991	1503.21
719.179	1411.05
719.366	1341.42
719.553	1419.24
719.74	1560.55
719.927	1482.73
720.114	1320.94
720.301	1409
720.488	1363.95
720.676	1384.43
720.863	1374.19
721.05	1366
721.237	1322.99
721.424	1402.86
721.611	1388.52
721.798	1425.39
721.985	1370.09
722.172	1298.41
722.358	1259.5
722.545	1300.46
722.732	1304.56
722.919	1374.19
723.106	1318.89
723.293	1224.69
723.48	1279.98
723.667	1239.02
723.853	1296.36
724.04	1282.03
724.227	1265.64
724.414	1234.93
724.6	1265.64
724.787	1279.98
724.974	1288.17
725.161	1296.36
725.347	1267.69
725.534	1263.6
725.72	1212.4
725.907	1155.05
726.094	1202.16
726.28	1163.25
726.467	1165.29
726.653	1261.55
726.84	1198.06
727.027	1218.54
727.213	1232.88
727.4	1204.21
727.586	1204.21
727.773	1167.34
727.959	1107.95
728.145	1245.16
728.332	1114.1
728.518	1148.91
728.705	1271.79
728.891	1126.38
729.077	1202.16
729.264	1138.67
729.45	1169.39
729.636	1144.81
729.823	1132.53
730.009	1105.9
730.195	1163.25
730.382	1212.4
730.568	1224.69
730.754	1157.1
730.94	1079.28
731.126	1220.59
731.313	1126.38
731.499	995.31
731.685	1046.51
731.871	1112.05
732.057	1134.57
732.243	1103.86
732.429	1204.21
732.615	1001.46
732.801	993.26
732.987	1087.47
733.173	1079.28
733.359	1103.86
733.545	1066.99
733.731	1077.23
733.917	1069.04
734.103	1001.46
734.289	1050.61
734.475	1052.66
734.661	1150.96
734.847	1042.42
735.033	1112.05
735.219	1050.61
735.404	1005.55
735.59	1073.14
735.776	1009.65
735.962	1026.03
736.148	1001.46
736.333	1009.65
736.519	1030.13
736.705	1005.55
736.89	1011.7
737.076	970.74
737.262	978.93
737.447	1032.18
737.633	983.03
737.819	1007.6
738.004	999.41
738.19	976.88
738.375	933.87
738.561	954.35
738.747	888.82
738.932	976.88
739.118	948.21
739.303	839.67
739.489	976.88
739.674	915.44
739.859	931.83
740.045	944.11
740.23	925.68
740.416	972.79
740.601	931.83
740.786	1021.94
740.972	997.36
741.157	946.16
741.342	829.43
741.528	833.52
741.713	905.2
741.898	784.37
742.084	913.39
742.269	860.15
742.454	868.34
742.639	897.01
742.824	835.57
743.01	890.87
743.195	858.1
743.38	847.86
743.565	837.62
743.75	909.3
743.935	860.15
744.12	823.28
744.305	833.52
744.49	776.18
744.675	837.62
744.86	790.52
745.045	784.37
745.23	786.42
745.415	827.38
745.6	835.57
745.785	827.38
745.97	876.53
746.155	802.8
746.34	755.7
746.525	784.37
746.71	808.95
746.895	770.04
747.079	679.93
747.264	796.66
747.449	733.17
747.634	780.28
747.819	837.62
748.003	763.89
748.188	710.65
748.373	741.36
748.557	614.39
748.742	669.69
748.927	808.95
749.111	745.46
749.296	772.08
749.481	733.17
749.665	645.11
749.85	681.97
750.034	710.65
750.219	702.45
750.404	700.41
750.588	675.83
750.773	630.77
750.957	647.16
751.141	692.21
751.326	665.59
751.51	651.25
751.695	667.64
751.879	720.89
752.064	686.07
752.248	632.82
752.432	575.48
752.617	724.98
752.801	673.78
752.985	686.07
753.17	663.54
753.354	655.35
753.538	618.49
753.722	638.97
753.907	616.44
754.091	606.2
754.275	696.31
754.459	634.87
754.643	665.59
754.828	643.06
755.012	688.12
755.196	542.71
755.38	530.42
755.564	561.14
755.748	636.92
755.932	616.44
756.116	559.1
756.3	542.71
756.484	579.58
756.668	591.86
756.852	577.53
757.036	557.05
757.22	548.86
757.404	593.91
757.588	516.09
757.772	505.85
757.956	598.01
758.14	544.76
758.323	485.37
758.507	604.15
758.691	524.28
758.875	585.72
759.059	530.42
759.242	487.42
759.426	530.42
759.61	495.61
759.794	495.61
759.977	434.17
760.161	468.98
760.345	505.85
760.528	561.14
760.712	446.46
760.895	397.31
761.079	473.08
761.263	493.56
761.446	518.14
761.63	444.41
761.813	448.51
761.997	493.56
762.18	446.46
762.364	468.98
762.547	456.7
762.731	475.13
762.914	391.16
763.098	462.84
763.281	415.74
763.464	358.39
763.648	413.69
763.831	514.04
764.015	430.07
764.198	452.6
764.381	464.89
764.564	432.12
764.748	397.31
764.931	450.55
765.114	464.89
765.297	505.85
765.481	454.65
765.664	452.6
765.847	385.02
766.03	397.31
766.213	434.17
766.397	393.21
766.58	434.17
766.763	368.63
766.946	425.98
767.129	337.91
767.312	485.37
767.495	428.03
767.678	466.94
767.861	436.22
768.044	387.07
768.227	407.55
768.41	421.88
768.593	370.68
768.776	415.74
768.959	499.7
769.142	407.55
769.324	430.07
769.507	376.83
769.69	311.29
769.873	438.27
770.056	415.74
770.239	442.36
770.421	317.44
770.604	409.59
770.787	452.6
770.97	376.83
771.152	385.02
771.335	399.35
771.518	466.94
771.7	382.97
771.883	364.54
772.066	376.83
772.248	413.69
772.431	446.46
772.613	299
772.796	413.69
772.978	393.21
773.161	491.51
773.343	380.92
773.526	344.06
773.708	333.82
773.891	286.72
774.073	411.64
774.256	321.53
774.438	428.03
774.621	409.59
774.803	329.72
774.985	395.26
775.168	276.48
775.35	305.15
775.532	362.49
775.715	382.97
775.897	311.29
776.079	323.58
776.261	280.57
776.444	344.06
776.626	278.52
776.808	382.97
776.99	331.77
777.173	237.56
777.355	323.58
777.537	294.91
777.719	352.25
777.901	258.04
778.083	317.44
778.265	245.76
778.447	315.39
778.629	354.3
778.811	313.34
778.993	366.59
779.175	303.1
779.357	327.68
779.539	270.33
779.721	352.25
779.903	339.96
780.085	311.29
780.267	264.19
780.449	290.81
780.631	231.42
780.812	315.39
780.994	229.37
781.176	264.19
781.358	249.85
781.54	309.24
781.721	313.34
781.903	311.29
782.085	212.99
782.267	274.43
782.448	276.48
782.63	196.61
782.812	290.81
782.993	210.94
783.175	299
783.357	208.89
783.538	215.04
783.72	245.76
783.901	264.19
784.083	264.19
784.264	186.37
784.446	192.51
784.627	163.84
784.809	233.47
784.99	212.99
785.172	284.67
785.353	272.38
785.535	282.62
785.716	268.28
785.897	223.23
786.079	245.76
786.26	215.04
786.441	198.65
786.623	178.17
786.804	243.71
786.985	245.76
787.167	292.86
787.348	231.42
787.529	190.46
787.71	241.66
787.891	212.99
788.073	176.13
788.254	239.61
788.435	212.99
788.616	327.68
788.797	276.48
788.978	141.31
789.159	145.41
789.34	204.8
789.522	155.65
789.703	237.56
789.884	206.84
790.065	284.67
790.246	141.31
790.427	229.37
790.607	221.18
790.788	184.32
790.969	223.23
791.15	245.76
791.331	126.97
791.512	176.13
791.693	112.64
791.874	251.9
792.054	192.51
792.235	266.24
792.416	131.07
792.597	184.32
792.778	221.18
792.958	165.89
793.139	194.56
793.32	114.69
793.5	118.78
793.681	153.6
793.862	100.35
794.042	141.31
794.223	137.21
794.404	145.41
794.584	212.99
794.765	227.32
794.945	83.97
795.126	217.08
795.306	258.04
795.487	178.17
795.667	94.21
795.848	174.08
796.028	135.17
796.209	122.88
796.389	180.22
796.57	188.41
796.75	112.64
796.93	92.16
797.111	165.89
797.291	124.93
797.471	149.5
797.652	67.58
797.832	145.41
798.012	192.51
798.192	169.98
798.373	190.46
798.553	139.26
798.733	135.17
798.913	114.69
799.093	102.4
799.274	174.08
799.454	200.7
799.634	206.84
799.814	194.56
799.994	141.31
800.174	210.94
800.354	100.35
800.534	112.64
800.714	212.99
800.894	129.02
801.074	157.69
801.254	114.69
801.434	71.68
801.614	83.97
801.794	147.45
801.974	292.86
802.154	116.73
802.334	106.49
802.514	161.79
802.693	151.55
802.873	186.37
803.053	161.79
803.233	104.45
803.413	163.84
803.592	145.41
803.772	88.06
803.952	96.25
804.131	59.39
804.311	96.25
804.491	116.73
804.67	65.54
804.85	110.59
805.03	129.02
805.209	139.26
805.389	151.55
805.568	73.73
805.748	165.89
805.928	122.88
806.107	188.41
806.287	192.51
806.466	126.97
806.646	86.01
806.825	104.45
807.004	118.78
807.184	38.91
807.363	116.73
807.543	98.3
807.722	4.1
807.901	81.92
808.081	167.93
808.26	102.4
808.439	178.17
808.619	124.93
808.798	94.21
808.977	81.92
809.156	108.54
809.336	61.44
809.515	83.97
809.694	88.06
809.873	71.68
810.052	102.4
810.231	86.01
810.411	118.78
810.59	65.54
810.769	98.3
810.948	77.82
811.127	61.44
811.306	112.64
811.485	57.34
811.664	71.68
811.843	102.4
812.022	65.54
812.201	129.02
812.38	75.77
812.559	28.67
812.737	102.4
812.916	88.06
813.095	133.12
813.274	118.78
813.453	96.25
813.632	131.07
813.811	63.49
813.989	32.77
814.168	112.64
814.347	94.21
814.526	67.58
814.704	88.06
814.883	98.3
815.062	122.88
815.24	126.97
815.419	131.07
815.598	67.58
815.776	10.24
815.955	96.25
816.133	96.25
816.312	61.44
816.49	110.59
816.669	90.11
816.847	88.06
817.026	65.54
817.204	106.49
817.383	55.3
817.561	83.97
817.74	88.06
817.918	55.3
818.097	75.77
818.275	45.06
818.453	96.25
818.632	79.87
818.81	18.43
818.988	139.26
819.167	90.11
819.345	61.44
819.523	26.62
819.701	96.25
819.879	116.73
820.058	86.01
820.236	53.25
820.414	79.87
820.592	79.87
820.77	90.11
820.948	4.1
821.127	122.88
821.305	40.96
821.483	32.77
821.661	116.73
821.839	47.1
822.017	-24.58
822.195	102.4
822.373	83.97
822.551	102.4
822.729	36.86
822.907	26.62
823.085	57.34
823.262	59.39
823.44	16.38
823.618	26.62
823.796	75.77
823.974	-10.24
824.152	104.45
824.329	49.15
824.507	96.25
824.685	106.49
824.863	102.4
825.04	104.45
825.218	4.1
825.396	69.63
825.574	63.49
825.751	116.73
825.929	49.15
826.107	40.96
826.284	71.68
826.462	51.2
826.639	47.1
826.817	28.67
826.994	49.15
827.172	65.54
827.349	143.36
827.527	38.91
827.704	36.86
827.882	106.49
828.059	100.35
828.237	-8.19
828.414	75.77
828.591	53.25
828.769	73.73
828.946	43.01
829.124	102.4
829.301	12.29
829.478	77.82
829.655	38.91
829.833	53.25
830.01	59.39
830.187	47.1
830.364	96.25
830.542	36.86
830.719	34.82
830.896	122.88
831.073	51.2
831.25	59.39
831.427	36.86
831.604	8.19
831.782	16.38
831.959	45.06
832.136	83.97
832.313	10.24
832.49	65.54
832.667	90.11
832.844	77.82
833.021	59.39
833.198	47.1
833.374	38.91
833.551	14.34
833.728	24.58
833.905	28.67
834.082	6.14
834.259	32.77
834.436	129.02
834.612	34.82
834.789	63.49
834.966	30.72
835.143	38.91
835.319	53.25
835.496	-6.14
835.673	-12.29
835.85	-2.05
836.026	18.43
836.203	65.54
836.38	34.82
836.556	81.92
836.733	12.29
836.909	30.72
837.086	57.34
837.262	-12.29
837.439	92.16
837.616	77.82
837.792	12.29
837.968	-4.1
838.145	81.92
838.321	47.1
838.498	8.19
838.674	49.15
838.851	43.01
839.027	34.82
839.203	16.38
839.38	73.73
839.556	4.1
839.732	10.24
839.909	69.63
840.085	71.68
840.261	63.49
840.437	75.77
840.614	34.82
840.79	38.91
840.966	116.73
841.142	8.19
841.318	40.96
841.494	126.97
841.671	55.3
841.847	38.91
842.023	65.54
842.199	32.77
842.375	-49.15
842.551	36.86
842.727	2.05
842.903	-6.14
843.079	61.44
843.255	40.96
843.431	77.82
843.607	28.67
843.783	69.63
843.959	49.15
844.134	28.67
844.31	57.34
844.486	6.14
844.662	16.38
844.838	-26.62
845.013	34.82
845.189	20.48
845.365	94.21
845.541	16.38
845.716	75.77
845.892	69.63
846.068	40.96
846.244	14.34
846.419	32.77
846.595	34.82
846.77	-65.53
846.946	-22.53
847.122	-24.58
847.297	61.44
847.473	67.58
847.648	20.48
847.824	36.86
847.999	38.91
848.175	-4.1
848.35	20.48
848.526	28.67
848.701	110.59
848.876	53.25
849.052	14.34
849.227	-22.53
849.403	40.96
849.578	16.38
849.753	18.43
849.929	110.59
850.104	69.63
850.279	10.24
850.454	81.92
850.63	67.58
850.805	59.39
850.98	22.53
851.155	71.68
851.33	16.38
851.505	38.91
851.681	36.86
851.856	4.1
852.031	43.01
852.206	53.25
852.381	-26.62
852.556	88.06
852.731	88.06
852.906	73.73
853.081	-18.43
853.256	-36.86
853.431	86.01
853.606	14.34
853.781	-24.58
853.956	10.24
854.131	75.77
854.305	12.29
854.48	16.38
854.655	92.16
854.83	73.73
855.005	24.58
855.18	2.05
855.354	30.72
855.529	59.39
855.704	67.58
855.879	47.1
856.053	-14.34
856.228	88.06
856.403	-2.05
856.577	90.11
856.752	30.72
856.926	30.72
857.101	69.63
857.276	-34.82
857.45	55.3
857.625	40.96
857.799	38.91
857.974	24.58
858.148	-6.14
858.323	12.29
858.497	67.58
858.672	79.87
858.846	45.06
859.02	4.1
859.195	-22.53
859.369	16.38
859.543	10.24
859.718	96.25
859.892	40.96
860.066	49.15
860.241	100.35
860.415	26.62
860.589	49.15
860.763	38.91
860.938	-4.1
861.112	67.58
861.286	86.01
861.46	67.58
861.634	-4.1
861.808	36.86
861.982	40.96
862.157	30.72
862.331	34.82
862.505	65.54
862.679	-28.67
862.853	0
863.027	65.54
863.201	34.82
863.375	59.39
863.549	73.73
863.722	-32.77
863.896	53.25
864.07	-49.15
864.244	14.34
864.418	-10.24
864.592	24.58
864.766	-6.14
864.939	49.15
865.113	28.67
865.287	34.82
865.461	10.24
865.634	38.91
865.808	18.43
865.982	6.14
866.156	-81.92
866.329	43.01
866.503	67.58
866.676	0
866.85	28.67
867.024	45.06
867.197	75.77
867.371	38.91
867.544	-43.01
867.718	28.67
867.891	92.16
868.065	6.14
868.238	14.34
868.412	28.67
868.585	59.39
868.759	2.05
868.932	43.01
869.105	40.96
869.279	36.86
869.452	8.19
869.625	129.02
869.799	10.24
869.972	-22.53
870.145	12.29
870.319	-36.86
870.492	-20.48
870.665	22.53
870.838	-16.38
871.011	24.58
871.185	-18.43
871.358	4.1
871.531	38.91
871.704	55.3
871.877	102.4
872.05	26.62
872.223	20.48
872.396	14.34
872.569	38.91
872.742	30.72
872.915	104.45
873.088	16.38
873.261	-2.05
873.434	4.1
873.607	-28.67
873.78	14.34
873.953	2.05
874.126	75.77
874.299	20.48
874.471	83.97
874.644	65.54
874.817	51.2
874.99	77.82
875.163	4.1
875.335	-20.48
875.508	47.1
875.681	22.53
875.853	-10.24
876.026	10.24
876.199	26.62
876.371	49.15
876.544	38.91
876.717	51.2
876.889	24.58
877.062	55.3
877.234	59.39
877.407	83.97
877.579	26.62
877.752	14.34
877.924	2.05
878.097	32.77
878.269	73.73
878.442	-20.48
878.614	92.16
878.786	43.01
878.959	-10.24
879.131	67.58
879.303	75.77
879.476	30.72
879.648	-38.91
879.82	-79.87
879.993	-10.24
880.165	-10.24
880.337	8.19
880.509	55.3
880.681	-55.3
880.854	26.62
881.026	57.34
881.198	-8.19
881.37	28.67
881.542	-16.38
881.714	51.2
881.886	47.1
882.058	43.01
882.23	32.77
882.402	-28.67
882.574	16.38
882.746	10.24
882.918	-16.38
883.09	75.77
883.262	43.01
883.434	32.77
883.606	16.38
883.778	10.24
883.95	-22.53
884.122	49.15
884.293	-2.05
884.465	4.1
884.637	45.06
884.809	53.25
884.98	-2.05
885.152	-8.19
885.324	59.39
885.496	69.63
885.667	20.48
885.839	28.67
886.011	10.24
886.182	-4.1
886.354	-67.58
886.525	-10.24
886.697	61.44
886.869	100.35
887.04	30.72
887.212	100.35
887.383	-8.19
887.555	38.91
887.726	30.72
887.897	-10.24
888.069	34.82
888.24	45.06
888.412	10.24
888.583	4.1
888.754	20.48
888.926	-20.48
889.097	26.62
889.268	0
889.44	0
889.611	34.82
889.782	8.19
889.953	-38.91
890.125	-36.86
890.296	-43.01
890.467	-10.24
890.638	30.72
890.809	2.05
890.98	-10.24
891.151	53.25
891.323	45.06
891.494	18.43
891.665	0
891.836	59.39
892.007	14.34
892.178	22.53
892.349	0
892.52	-22.53
892.691	-26.62
892.862	-4.1
893.032	-8.19
893.203	100.35
893.374	79.87
893.545	8.19
893.716	77.82
893.887	12.29
894.057	18.43
894.228	32.77
894.399	51.2
894.57	79.87
894.74	10.24
894.911	34.82
895.082	4.1
895.253	49.15
895.423	-22.53
895.594	98.3
895.764	77.82
895.935	-12.29
896.106	32.77
896.276	-16.38
896.447	2.05
896.617	30.72
896.788	-28.67
896.958	0
897.129	-16.38
897.299	57.34
897.47	57.34
897.64	79.87
897.81	-57.34
897.981	-12.29
898.151	-40.96
898.322	53.25
898.492	108.54
898.662	12.29
898.832	-24.58
899.003	-73.73
899.173	-10.24
899.343	22.53
899.513	32.77
