Data from USB4F104151__100__13-54-39-069.txt Node

Date: Thu Mar 13 13:54:39 EDT 2025
User: louis
Spectrometer: USB4F10415
Trigger mode: 4
Integration Time (sec): 1.000000E-2
Scans to average: 1
Electric dark correction enabled: true
Nonlinearity correction enabled: false
Boxcar width: 0
XAxis mode: Wavelengths
Number of Pixels in Spectrum: 3648
>>>>>Begin Spectral Data<<<<<
178.204	-22.87
178.424	-22.87
178.644	-22.87
178.864	-69.97
179.084	-18.77
179.304	-29.01
179.524	36.52
179.744	-14.68
179.964	-55.64
180.184	-29.01
180.404	-6.49
180.624	40.62
180.844	38.57
181.064	-39.25
181.283	9.9
181.503	-39.25
181.723	87.72
181.943	-41.3
182.163	13.99
182.383	1.71
182.602	100.01
182.822	-49.49
183.042	61.1
183.262	-47.44
183.482	13.99
183.701	61.1
183.921	-0.34
184.141	-12.63
184.361	44.71
184.58	-2.39
184.8	42.67
185.02	-20.82
185.239	-0.34
185.459	-12.63
185.679	22.19
185.898	42.67
186.118	1.71
186.338	11.95
186.557	-4.44
186.777	-14.68
186.997	38.57
187.216	-69.97
187.436	69.29
187.655	48.81
187.875	-22.87
188.095	24.23
188.314	20.14
188.534	-80.21
188.753	16.04
188.973	-18.77
189.192	52.91
189.412	-12.63
189.631	-2.39
189.851	-31.06
190.07	91.82
190.29	65.19
190.509	102.06
190.729	-24.92
190.948	-26.96
191.168	93.87
191.387	28.33
191.607	-74.07
191.826	16.04
192.045	-0.34
192.265	26.28
192.484	-18.77
192.704	-22.87
192.923	-2.39
193.142	65.19
193.362	61.1
193.581	44.71
193.8	13.99
194.02	11.95
194.239	22.19
194.458	65.19
194.678	-8.53
194.897	9.9
195.116	32.43
195.335	-8.53
195.555	-8.53
195.774	32.43
195.993	11.95
196.212	13.99
196.432	-72.02
196.651	9.9
196.87	54.95
197.089	30.38
197.308	-12.63
197.528	5.8
197.747	-24.92
197.966	16.04
198.185	81.58
198.404	36.52
198.623	1.71
198.842	-0.34
199.062	77.48
199.281	22.19
199.5	-14.68
199.719	61.1
199.938	63.15
200.157	-8.53
200.376	3.75
200.595	20.14
200.814	24.23
201.033	18.09
201.252	54.95
201.471	9.9
201.69	9.9
201.909	9.9
202.128	42.67
202.347	26.28
202.566	32.43
202.785	-47.44
203.004	11.95
203.223	34.47
203.442	-37.2
203.661	50.86
203.879	-53.59
204.098	65.19
204.317	-10.58
204.536	30.38
204.755	7.85
204.974	32.43
205.193	13.99
205.411	61.1
205.63	-4.44
205.849	-14.68
206.068	-20.82
206.287	46.76
206.505	18.09
206.724	-37.2
206.943	26.28
207.162	36.52
207.381	-24.92
207.599	30.38
207.818	-12.63
208.037	28.33
208.255	-33.11
208.474	-16.73
208.693	-14.68
208.911	48.81
209.13	42.67
209.349	44.71
209.567	9.9
209.786	-16.73
210.005	36.52
210.223	-8.53
210.442	-0.34
210.661	3.75
210.879	-43.35
211.098	44.71
211.316	9.9
211.535	77.48
211.753	-49.49
211.972	-6.49
212.191	65.19
212.409	-2.39
212.628	11.95
212.846	-6.49
213.065	7.85
213.283	42.67
213.502	100.01
213.72	34.47
213.938	36.52
214.157	-47.44
214.375	97.96
214.594	36.52
214.812	3.75
215.031	-57.68
215.249	5.8
215.467	54.95
215.686	20.14
215.904	13.99
216.122	63.15
216.341	-57.68
216.559	-6.49
216.778	52.91
216.996	-6.49
217.214	30.38
217.432	-41.3
217.651	5.8
217.869	-24.92
218.087	30.38
218.306	-76.12
218.524	18.09
218.742	-0.34
218.96	-22.87
219.179	38.57
219.397	28.33
219.615	28.33
219.833	-0.34
220.051	36.52
220.27	38.57
220.488	5.8
220.706	40.62
220.924	9.9
221.142	63.15
221.36	11.95
221.578	40.62
221.796	1.71
222.015	-8.53
222.233	7.85
222.451	75.43
222.669	-22.87
222.887	28.33
223.105	85.67
223.323	-20.82
223.541	18.09
223.759	57
223.977	36.52
224.195	81.58
224.413	5.8
224.631	16.04
224.849	24.23
225.067	67.24
225.285	-12.63
225.503	-8.53
225.721	-10.58
225.939	59.05
226.157	-4.44
226.375	91.82
226.592	5.8
226.81	89.77
227.028	-26.96
227.246	42.67
227.464	3.75
227.682	95.91
227.9	83.63
228.117	-51.54
228.335	9.9
228.553	-22.87
228.771	30.38
228.989	-8.53
229.206	40.62
229.424	28.33
229.642	32.43
229.86	52.91
230.077	44.71
230.295	83.63
230.513	50.86
230.731	48.81
230.948	-6.49
231.166	69.29
231.384	24.23
231.601	59.05
231.819	3.75
232.037	38.57
232.254	-20.82
232.472	28.33
232.689	-22.87
232.907	52.91
233.125	42.67
233.342	-33.11
233.56	-51.54
233.777	36.52
233.995	-33.11
234.213	61.1
234.43	59.05
234.648	-8.53
234.865	46.76
235.083	38.57
235.3	24.23
235.518	28.33
235.735	1.71
235.953	26.28
236.17	7.85
236.388	13.99
236.605	-26.96
236.822	-47.44
237.04	32.43
237.257	42.67
237.475	-6.49
237.692	-4.44
237.909	13.99
238.127	36.52
238.344	-4.44
238.562	13.99
238.779	-6.49
238.996	-45.4
239.214	-10.58
239.431	61.1
239.648	7.85
239.865	-2.39
240.083	52.91
240.3	-45.4
240.517	11.95
240.735	-24.92
240.952	28.33
241.169	26.28
241.386	-14.68
241.603	11.95
241.821	9.9
242.038	54.95
242.255	118.44
242.472	5.8
242.689	63.15
242.907	20.14
243.124	-29.01
243.341	26.28
243.558	-6.49
243.775	18.09
243.992	-33.11
244.209	24.23
244.426	-0.34
244.643	18.09
244.86	36.52
245.078	-4.44
245.295	-0.34
245.512	11.95
245.729	-49.49
245.946	59.05
246.163	-10.58
246.38	-18.77
246.597	-10.58
246.814	44.71
247.031	-4.44
247.248	11.95
247.464	-10.58
247.681	126.63
247.898	54.95
248.115	40.62
248.332	-29.01
248.549	9.9
248.766	46.76
248.983	69.29
249.2	32.43
249.417	52.91
249.633	40.62
249.85	89.77
250.067	30.38
250.284	69.29
250.501	-43.35
250.717	-53.59
250.934	26.28
251.151	18.09
251.368	46.76
251.585	-12.63
251.801	9.9
252.018	-8.53
252.235	44.71
252.451	5.8
252.668	9.9
252.885	63.15
253.102	-0.34
253.318	30.38
253.535	63.15
253.752	91.82
253.968	-47.44
254.185	5.8
254.401	65.19
254.618	-6.49
254.835	65.19
255.051	11.95
255.268	34.47
255.484	116.39
255.701	5.8
255.917	-59.73
256.134	38.57
256.351	-29.01
256.567	48.81
256.784	-51.54
257	32.43
257.217	57
257.433	-14.68
257.65	46.76
257.866	-35.16
258.082	42.67
258.299	71.34
258.515	42.67
258.732	9.9
258.948	48.81
259.165	5.8
259.381	-20.82
259.597	-4.44
259.814	81.58
260.03	63.15
260.246	30.38
260.463	13.99
260.679	38.57
260.895	-45.4
261.112	-47.44
261.328	-20.82
261.544	-12.63
261.761	91.82
261.977	42.67
262.193	9.9
262.409	-41.3
262.626	-43.35
262.842	48.81
263.058	48.81
263.274	-22.87
263.49	-0.34
263.707	1.71
263.923	38.57
264.139	42.67
264.355	16.04
264.571	1.71
264.787	-2.39
265.004	-22.87
265.22	61.1
265.436	-2.39
265.652	-72.02
265.868	-10.58
266.084	32.43
266.3	46.76
266.516	13.99
266.732	61.1
266.948	44.71
267.164	-18.77
267.38	-12.63
267.596	18.09
267.812	59.05
268.028	16.04
268.244	7.85
268.46	-24.92
268.676	-45.4
268.892	83.63
269.108	44.71
269.324	30.38
269.54	42.67
269.756	38.57
269.972	-8.53
270.188	32.43
270.403	22.19
270.619	46.76
270.835	11.95
271.051	26.28
271.267	-29.01
271.483	5.8
271.698	-2.39
271.914	85.67
272.13	13.99
272.346	42.67
272.562	-10.58
272.777	65.19
272.993	73.39
273.209	-29.01
273.425	57
273.64	65.19
273.856	-0.34
274.072	18.09
274.287	42.67
274.503	13.99
274.719	20.14
274.934	-31.06
275.15	24.23
275.366	44.71
275.581	28.33
275.797	13.99
276.012	9.9
276.228	-47.44
276.444	-39.25
276.659	79.53
276.875	52.91
277.09	20.14
277.306	57
277.521	30.38
277.737	-16.73
277.952	-20.82
278.168	9.9
278.383	7.85
278.599	-51.54
278.814	120.49
279.03	65.19
279.245	52.91
279.461	3.75
279.676	1.71
279.892	9.9
280.107	61.1
280.322	79.53
280.538	-20.82
280.753	18.09
280.969	63.15
281.184	24.23
281.399	11.95
281.615	-51.54
281.83	34.47
282.045	34.47
282.26	32.43
282.476	36.52
282.691	77.48
282.906	1.71
283.122	26.28
283.337	-4.44
283.552	106.15
283.767	-18.77
283.983	124.58
284.198	13.99
284.413	-24.92
284.628	46.76
284.843	34.47
285.058	5.8
285.274	13.99
285.489	28.33
285.704	79.53
285.919	57
286.134	75.43
286.349	-0.34
286.564	7.85
286.779	42.67
286.995	-26.96
287.21	-2.39
287.425	9.9
287.64	16.04
287.855	57
288.07	16.04
288.285	3.75
288.5	-12.63
288.715	40.62
288.93	-31.06
289.145	112.3
289.36	57
289.575	30.38
289.79	-51.54
290.004	-18.77
290.219	-18.77
290.434	79.53
290.649	-8.53
290.864	20.14
291.079	-41.3
291.294	59.05
291.509	61.1
291.724	30.38
291.938	46.76
292.153	42.67
292.368	16.04
292.583	-18.77
292.798	63.15
293.012	30.38
293.227	18.09
293.442	61.1
293.657	36.52
293.871	-16.73
294.086	46.76
294.301	-2.39
294.516	63.15
294.73	1.71
294.945	65.19
295.16	52.91
295.374	34.47
295.589	-39.25
295.804	13.99
296.018	46.76
296.233	73.39
296.447	-2.39
296.662	-10.58
296.877	81.58
297.091	16.04
297.306	-24.92
297.52	30.38
297.735	-12.63
297.949	13.99
298.164	59.05
298.378	42.67
298.593	54.95
298.807	-4.44
299.022	9.9
299.236	42.67
299.451	13.99
299.665	-78.16
299.88	69.29
300.094	-43.35
300.309	42.67
300.523	83.63
300.737	40.62
300.952	57
301.166	69.29
301.381	77.48
301.595	32.43
301.809	-72.02
302.024	54.95
302.238	-18.77
302.452	11.95
302.667	-26.96
302.881	91.82
303.095	52.91
303.309	91.82
303.524	3.75
303.738	87.72
303.952	-14.68
304.166	40.62
304.381	61.1
304.595	42.67
304.809	-39.25
305.023	30.38
305.237	-108.88
305.452	32.43
305.666	40.62
305.88	16.04
306.094	-37.2
306.308	3.75
306.522	42.67
306.736	40.62
306.95	-0.34
307.164	1.71
307.379	20.14
307.593	122.54
307.807	20.14
308.021	28.33
308.235	22.19
308.449	71.34
308.663	28.33
308.877	93.87
309.091	3.75
309.305	110.25
309.519	-14.68
309.733	-12.63
309.947	16.04
310.161	7.85
310.374	122.54
310.588	9.9
310.802	34.47
311.016	13.99
311.23	1.71
311.444	79.53
311.658	52.91
311.872	13.99
312.085	16.04
312.299	-43.35
312.513	-6.49
312.727	-49.49
312.941	1.71
313.154	-37.2
313.368	-10.58
313.582	65.19
313.796	83.63
314.009	48.81
314.223	69.29
314.437	7.85
314.651	-22.87
314.864	59.05
315.078	-8.53
315.292	34.47
315.505	34.47
315.719	124.58
315.933	57
316.146	-47.44
316.36	13.99
316.573	50.86
316.787	106.15
317.001	-14.68
317.214	-4.44
317.428	52.91
317.641	-18.77
317.855	34.47
318.068	9.9
318.282	-22.87
318.495	28.33
318.709	24.23
318.922	34.47
319.136	11.95
319.349	-2.39
319.563	11.95
319.776	67.24
319.99	24.23
320.203	-4.44
320.417	36.52
320.63	46.76
320.843	50.86
321.057	-18.77
321.27	40.62
321.483	-47.44
321.697	26.28
321.91	32.43
322.124	87.72
322.337	-33.11
322.55	-24.92
322.763	1.71
322.977	32.43
323.19	44.71
323.403	-0.34
323.617	-10.58
323.83	38.57
324.043	65.19
324.256	26.28
324.469	50.86
324.683	69.29
324.896	36.52
325.109	-0.34
325.322	79.53
325.535	-0.34
325.748	38.57
325.962	118.44
326.175	52.91
326.388	38.57
326.601	57
326.814	13.99
327.027	16.04
327.24	20.14
327.453	1.71
327.666	65.19
327.879	7.85
328.092	36.52
328.305	40.62
328.518	16.04
328.731	-43.35
328.944	75.43
329.157	11.95
329.37	79.53
329.583	42.67
329.796	59.05
330.009	50.86
330.222	26.28
330.435	-33.11
330.648	9.9
330.861	32.43
331.073	79.53
331.286	77.48
331.499	65.19
331.712	79.53
331.925	85.67
332.138	65.19
332.35	54.95
332.563	50.86
332.776	-2.39
332.989	16.04
333.202	-16.73
333.414	50.86
333.627	67.24
333.84	-22.87
334.053	85.67
334.265	-10.58
334.478	1.71
334.691	34.47
334.903	13.99
335.116	85.67
335.329	1.71
335.541	20.14
335.754	91.82
335.966	-18.77
336.179	13.99
336.392	69.29
336.604	79.53
336.817	7.85
337.029	61.1
337.242	18.09
337.454	-18.77
337.667	57
337.88	75.43
338.092	-43.35
338.305	52.91
338.517	7.85
338.729	13.99
338.942	52.91
339.154	32.43
339.367	24.23
339.579	42.67
339.792	30.38
340.004	18.09
340.217	52.91
340.429	190.12
340.641	-51.54
340.854	69.29
341.066	9.9
341.278	-18.77
341.491	91.82
341.703	30.38
341.915	-0.34
342.128	50.86
342.34	50.86
342.552	-0.34
342.764	18.09
342.977	42.67
343.189	81.58
343.401	-4.44
343.613	36.52
343.826	40.62
344.038	-51.54
344.25	-4.44
344.462	50.86
344.674	57
344.886	32.43
345.099	54.95
345.311	-8.53
345.523	22.19
345.735	-10.58
345.947	91.82
346.159	44.71
346.371	85.67
346.583	-35.16
346.795	1.71
347.007	-74.07
347.219	-8.53
347.431	7.85
347.643	36.52
347.855	28.33
348.067	81.58
348.279	36.52
348.491	-41.3
348.703	-16.73
348.915	-14.68
349.127	-78.16
349.339	32.43
349.551	-37.2
349.763	32.43
349.975	34.47
350.187	73.39
350.399	-0.34
350.61	40.62
350.822	3.75
351.034	48.81
351.246	42.67
351.458	38.57
351.669	-10.58
351.881	48.81
352.093	46.76
352.305	124.58
352.517	42.67
352.728	59.05
352.94	-14.68
353.152	100.01
353.363	-57.68
353.575	20.14
353.787	48.81
353.999	87.72
354.21	34.47
354.422	95.91
354.633	11.95
354.845	28.33
355.057	73.39
355.268	20.14
355.48	11.95
355.692	3.75
355.903	-24.92
356.115	-39.25
356.326	-35.16
356.538	95.91
356.749	18.09
356.961	93.87
357.172	69.29
357.384	48.81
357.595	20.14
357.807	-39.25
358.018	24.23
358.23	11.95
358.441	50.86
358.653	36.52
358.864	-6.49
359.075	-45.4
359.287	71.34
359.498	50.86
359.709	20.14
359.921	30.38
360.132	36.52
360.344	57
360.555	79.53
360.766	11.95
360.977	42.67
361.189	61.1
361.4	3.75
361.611	-12.63
361.823	54.95
362.034	30.38
362.245	-41.3
362.456	7.85
362.667	34.47
362.879	108.2
363.09	-12.63
363.301	118.44
363.512	16.04
363.723	48.81
363.935	-22.87
364.146	44.71
364.357	30.38
364.568	61.1
364.779	42.67
364.99	46.76
365.201	-6.49
365.412	32.43
365.623	16.04
365.834	16.04
366.045	28.33
366.256	65.19
366.467	73.39
366.678	20.14
366.889	59.05
367.1	20.14
367.311	73.39
367.522	7.85
367.733	40.62
367.944	42.67
368.155	-20.82
368.366	20.14
368.577	59.05
368.788	57
368.999	28.33
369.209	85.67
369.42	7.85
369.631	54.95
369.842	63.15
370.053	-24.92
370.264	48.81
370.474	36.52
370.685	13.99
370.896	50.86
371.107	-14.68
371.317	40.62
371.528	18.09
371.739	-0.34
371.95	36.52
372.16	22.19
372.371	-8.53
372.582	38.57
372.792	9.9
373.003	65.19
373.214	54.95
373.424	48.81
373.635	36.52
373.846	16.04
374.056	44.71
374.267	30.38
374.477	48.81
374.688	-26.96
374.898	42.67
375.109	16.04
375.319	38.57
375.53	63.15
375.74	-20.82
375.951	32.43
376.161	46.76
376.372	-10.58
376.582	-22.87
376.793	59.05
377.003	42.67
377.214	-26.96
377.424	79.53
377.635	81.58
377.845	-41.3
378.055	83.63
378.266	9.9
378.476	61.1
378.686	100.01
378.897	59.05
379.107	69.29
379.317	83.63
379.528	77.48
379.738	48.81
379.948	87.72
380.158	71.34
380.369	50.86
380.579	83.63
380.789	9.9
380.999	-94.55
381.21	9.9
381.42	83.63
381.63	104.11
381.84	-4.44
382.05	46.76
382.261	-53.59
382.471	34.47
382.681	-6.49
382.891	63.15
383.101	59.05
383.311	26.28
383.521	57
383.731	5.8
383.941	7.85
384.151	42.67
384.361	20.14
384.571	-8.53
384.781	106.15
384.991	108.2
385.201	75.43
385.411	18.09
385.621	-0.34
385.831	-2.39
386.041	-37.2
386.251	79.53
386.461	97.96
386.671	40.62
386.881	40.62
387.091	42.67
387.301	28.33
387.511	57
387.72	5.8
387.93	104.11
388.14	32.43
388.35	95.91
388.56	34.47
388.769	24.23
388.979	65.19
389.189	-4.44
389.399	118.44
389.609	44.71
389.818	50.86
390.028	75.43
390.238	97.96
390.447	13.99
390.657	63.15
390.867	73.39
391.076	42.67
391.286	32.43
391.496	52.91
391.705	-0.34
391.915	-6.49
392.125	95.91
392.334	40.62
392.544	28.33
392.753	11.95
392.963	44.71
393.172	73.39
393.382	75.43
393.591	9.9
393.801	61.1
394.01	61.1
394.22	69.29
394.429	7.85
394.639	30.38
394.848	93.87
395.058	61.1
395.267	48.81
395.477	83.63
395.686	81.58
395.895	81.58
396.105	54.95
396.314	95.91
396.524	48.81
396.733	93.87
396.942	83.63
397.152	36.52
397.361	40.62
397.57	50.86
397.78	20.14
397.989	11.95
398.198	67.24
398.407	20.14
398.617	69.29
398.826	114.34
399.035	83.63
399.244	9.9
399.453	132.78
399.663	118.44
399.872	79.53
400.081	77.48
400.29	46.76
400.499	9.9
400.708	83.63
400.917	50.86
401.127	83.63
401.336	1.71
401.545	42.67
401.754	132.78
401.963	112.3
402.172	18.09
402.381	30.38
402.59	11.95
402.799	67.24
403.008	40.62
403.217	128.68
403.426	140.97
403.635	120.49
403.844	149.16
404.053	104.11
404.262	1.71
404.471	196.26
404.68	163.5
404.888	52.91
405.097	77.48
405.306	118.44
405.515	116.39
405.724	42.67
405.933	114.34
406.142	65.19
406.35	134.82
406.559	91.82
406.768	120.49
406.977	102.06
407.185	120.49
407.394	196.26
407.603	157.35
407.812	181.93
408.02	81.58
408.229	169.64
408.438	220.84
408.646	231.08
408.855	208.55
409.064	143.02
409.272	210.6
409.481	161.45
409.69	149.16
409.898	202.41
410.107	239.27
410.315	290.47
410.524	163.5
410.733	241.32
410.941	276.13
411.15	245.41
411.358	255.65
411.567	253.61
411.775	399.01
411.984	345.77
412.192	251.56
412.401	370.34
412.609	372.39
412.818	362.15
413.026	374.44
413.234	362.15
413.443	380.58
413.651	399.01
413.86	335.53
414.068	450.21
414.276	452.26
414.485	437.92
414.693	532.13
414.901	521.89
415.11	493.22
415.318	517.79
415.526	548.51
415.734	462.5
415.943	487.08
416.151	530.08
416.359	558.75
416.567	581.28
416.776	560.8
416.984	755.36
417.192	724.64
417.4	665.25
417.608	714.4
417.817	747.17
418.025	802.46
418.233	878.24
418.441	829.09
418.649	802.46
418.857	898.72
419.065	949.92
419.273	923.29
419.481	933.53
419.689	1078.94
419.897	1109.66
420.105	1033.88
420.313	1115.8
420.521	1121.95
420.729	1128.09
420.937	1218.2
421.145	1332.89
421.353	1363.61
421.561	1404.57
421.769	1373.85
421.977	1429.14
422.185	1592.98
422.393	1527.44
422.601	1666.71
422.809	1652.37
423.017	1607.31
423.224	1781.39
423.432	1765.01
423.64	1810.06
423.848	1949.32
424.056	1816.21
424.263	2088.59
424.471	2176.65
424.679	2076.3
424.887	2227.85
425.094	2240.14
425.302	2330.25
425.51	2369.16
425.718	2514.56
425.925	2539.14
426.133	2627.2
426.341	2674.31
426.548	2821.76
426.756	2883.2
426.964	2838.14
427.171	2985.6
427.379	3122.81
427.586	3069.56
427.794	3157.63
428.001	3409.53
428.209	3499.64
428.417	3575.41
428.624	3759.73
428.832	3851.89
429.039	3739.25
429.247	3692.15
429.454	4136.56
429.662	4361.83
429.869	3978.86
430.076	4386.41
430.284	4169.32
430.491	4447.85
430.699	4662.88
430.906	4597.35
431.114	4767.33
431.321	4816.48
431.528	5072.48
431.736	5305.95
431.943	5607
432.15	5537.37
432.358	5367.38
432.565	5805.65
432.772	5744.21
432.979	5971.54
433.187	6121.04
433.394	6215.24
433.601	6723.14
433.808	6538.82
434.016	6620.74
434.223	6745.67
434.43	7245.37
434.637	7155.26
434.844	7499.32
435.052	7902.77
435.259	7507.51
435.466	7765.56
435.673	7511.61
435.88	8220.21
436.087	8599.08
436.294	8508.97
436.501	8347.18
436.708	8488.49
436.915	8818.21
437.122	9176.61
437.329	9111.07
437.537	9514.52
437.743	9784.85
437.95	9578.01
438.157	10075.66
438.364	10450.44
438.571	10341.9
438.778	10696.2
438.985	11257.34
439.192	11105.79
439.399	11519.48
439.606	10970.63
439.813	11865.59
440.02	12357.1
440.227	12361.2
440.433	12037.62
440.64	12520.94
440.847	12453.36
441.054	12525.04
441.261	13540.83
441.467	13301.22
441.674	13559.26
441.881	14083.54
442.088	14218.71
442.294	14230.99
442.501	14405.07
442.708	14497.23
442.914	15134.15
443.121	15939
443.328	15631.8
443.534	16375.22
443.741	15787.45
443.948	15904.18
444.154	17063.33
444.361	16668.08
444.568	16975.27
444.774	16962.98
444.981	17212.84
445.187	17669.53
445.394	18369.94
445.6	18154.9
445.807	19875.2
446.013	18879.88
446.22	19373.44
446.426	20120.95
446.633	20395.38
446.839	21183.85
447.046	20157.82
447.252	21441.89
447.459	21443.94
447.665	21075.31
447.871	22205.78
448.078	23256.39
448.284	21898.59
448.491	22250.84
448.697	23213.38
448.903	24038.72
449.11	23981.37
449.316	23500.1
449.522	23979.32
449.728	24536.37
449.935	24806.7
450.141	24628.53
450.347	25322.79
450.553	24571.19
450.76	25072.94
450.966	25795.87
451.172	25267.5
451.378	26107.16
451.584	25353.51
451.791	26223.9
451.997	26297.63
452.203	26645.78
452.409	26051.87
452.615	26125.6
452.821	25021.74
453.027	24986.93
453.233	26227.99
453.44	25204.01
453.646	25359.66
453.852	25716
454.058	26121.5
454.264	25158.95
454.47	25709.86
454.676	24948.01
454.882	26006.81
455.088	23868.73
455.294	24440.12
455.5	24171.83
455.705	24726.83
455.911	23745.86
456.117	23248.2
456.323	22728.02
456.529	21638.5
456.735	22662.48
456.941	21824.86
457.147	21898.59
457.352	20942.19
457.558	21058.92
457.764	20888.94
457.97	20518.26
458.176	20057.46
458.381	19817.85
458.587	19064.2
458.793	18840.97
458.999	18183.57
459.204	19074.44
459.41	18621.84
459.616	17280.42
459.821	17278.37
460.027	17184.16
460.233	17030.57
460.438	16162.23
460.644	16375.22
460.85	15615.42
461.055	15250.88
461.261	15402.43
461.466	14185.94
461.672	13886.93
461.878	14800.33
462.083	14155.22
462.289	13962.71
462.494	13620.7
462.7	12942.82
462.905	12561.9
463.111	13055.46
463.316	13020.64
463.522	12740.07
463.727	12484.08
463.932	12633.58
464.138	12473.84
464.343	12543.47
464.549	12320.24
464.754	12934.63
464.959	12500.46
465.165	12400.11
465.37	12199.41
465.575	11740.66
465.781	12013.04
465.986	12209.65
466.191	11711.99
466.397	11437.56
466.602	10974.72
466.807	11480.57
467.012	11333.12
467.218	11378.17
467.423	11159.04
467.628	11197.95
467.833	11767.29
468.038	11222.53
468.244	11058.69
468.449	11443.71
468.654	11179.52
468.859	10898.95
469.064	10874.37
469.269	10407.44
469.474	10665.48
469.679	10735.11
469.885	10597.9
470.09	10718.73
470.295	10372.62
470.5	10028.56
470.705	10231.31
470.91	10040.85
471.115	9799.19
471.32	10305.04
471.525	10116.62
471.73	9799.19
471.935	9764.37
472.139	9580.06
472.344	9618.97
472.549	9561.62
472.754	9520.67
472.959	9217.57
473.164	9139.74
473.369	8881.7
473.574	9176.61
473.778	9131.55
473.983	9055.78
474.188	8920.61
474.393	8683.05
474.598	8646.18
474.802	8533.54
475.007	8556.07
475.212	8506.92
475.417	8207.92
475.621	8341.04
475.826	8314.41
476.031	8033.84
476.235	8054.32
476.44	8070.7
476.645	8001.07
476.849	7933.49
477.054	7804.47
477.259	7783.99
477.463	7665.21
477.668	7530.04
477.872	7609.91
478.077	7468.6
478.282	7214.65
478.486	7138.88
478.691	7149.12
478.895	7269.95
479.1	7132.73
479.304	7280.19
479.509	6897.22
479.713	6886.98
479.918	6966.85
480.122	6751.81
480.326	6897.22
480.531	6913.6
480.735	6923.84
480.94	6839.87
481.144	7032.38
481.348	6639.17
481.553	6841.92
481.757	6483.53
481.961	6698.56
482.166	6782.53
482.37	6803.01
482.574	6544.97
482.778	6850.11
482.983	6762.05
483.187	6604.36
483.391	6633.03
483.595	6555.21
483.8	6528.58
484.004	6635.08
484.208	6569.54
484.412	6497.86
484.616	6762.05
484.821	6772.29
485.025	6575.69
485.229	6747.72
485.433	6549.06
485.637	6706.76
485.841	6534.73
486.045	6428.23
486.249	6614.6
486.453	6448.71
486.657	6704.71
486.861	6717
487.065	6430.28
487.269	6622.79
487.473	6372.94
487.677	6571.59
487.881	6729.28
488.085	6706.76
488.289	6809.15
488.493	6749.76
488.697	6647.37
488.901	6725.19
489.105	6655.56
489.309	6774.34
489.512	6747.72
489.716	6798.91
489.92	6760
490.124	6655.56
490.328	6907.46
490.531	6772.29
490.735	6770.24
490.939	7052.86
491.143	6833.73
491.346	6858.31
491.55	6936.13
491.754	6835.78
491.958	7020.1
492.161	7081.53
492.365	7013.95
492.569	6927.94
492.772	6981.18
492.976	7192.12
493.18	7224.89
493.383	7247.42
493.587	7431.74
493.79	7263.8
493.994	7372.35
494.197	7489.08
494.401	7454.26
494.605	7441.98
494.808	7585.33
495.012	7616.05
495.215	7663.16
495.419	7730.74
495.622	7583.29
495.825	7884.34
496.029	7777.84
496.232	7978.54
496.436	7876.15
496.639	8222.25
496.843	8234.54
497.046	8302.12
497.249	8328.75
497.453	8498.73
497.656	8429.1
497.859	8525.35
498.063	8644.13
498.266	8607.27
498.469	8676.9
498.673	9068.06
498.876	8914.47
499.079	9104.93
499.282	9164.32
499.485	9264.67
499.689	9401.88
499.892	9520.67
500.095	9530.91
500.298	9768.47
500.501	9797.14
500.705	9913.88
500.908	10171.92
501.111	10200.59
501.314	10417.68
501.517	10313.23
501.72	10681.86
501.923	10774.02
502.126	10866.18
502.329	10888.71
502.532	11093.51
502.735	11040.26
502.938	11206.14
503.141	11478.52
503.344	11525.63
503.547	11683.32
503.75	11869.69
503.953	11886.07
504.156	12123.63
504.359	12236.27
504.562	12232.18
504.765	12572.14
504.968	12697.06
505.17	12865
505.373	12811.75
505.576	12987.88
505.779	13217.25
505.982	13391.33
506.185	13614.55
506.387	13807.06
506.59	13700.57
506.793	13948.37
506.996	14192.08
507.198	14656.97
507.401	14376.4
507.604	14360.02
507.807	15076.8
508.009	14949.83
508.212	15074.76
508.415	15263.17
508.617	15529.41
508.82	15828.41
509.022	15685.05
509.225	16061.88
509.428	16330.16
509.63	16338.35
509.833	16463.28
510.035	17042.85
510.238	16919.98
510.44	17180.07
510.643	17280.42
510.845	17628.57
511.048	17431.97
511.25	17927.58
511.453	17747.36
511.655	18464.14
511.858	18238.87
512.06	18376.08
512.262	18906.51
512.465	18851.21
512.667	19424.64
512.87	19705.21
513.072	19574.14
513.274	20098.42
513.477	19881.34
513.679	20325.75
513.881	20780.4
514.084	20739.44
514.286	20749.68
514.488	21095.78
514.69	21769.57
514.893	21822.81
515.095	21701.98
515.297	22203.74
515.499	22166.87
515.701	22588.75
515.904	22730.06
516.106	22963.53
516.308	23252.3
516.51	23577.92
516.712	23358.79
516.914	23776.58
517.116	24276.28
517.318	24337.72
517.52	24749.36
517.722	24509.75
517.925	24831.28
518.127	25199.91
518.329	25421.09
518.531	25498.92
518.733	26031.39
518.935	26426.65
519.136	26459.41
519.338	26926.35
519.54	26819.86
519.742	27233.55
519.944	27415.82
520.146	27774.21
520.348	27938.05
520.55	28007.68
520.752	28636.41
520.954	28689.65
521.155	28540.15
521.357	29078.77
521.559	29189.36
521.761	29797.6
521.963	29740.26
522.164	29803.75
522.366	29951.2
522.568	30262.49
522.77	30643.42
522.971	30987.47
523.173	30915.79
523.375	31251.66
523.576	31485.13
523.778	31382.73
523.98	31835.33
524.181	31698.12
524.383	32081.09
524.584	32509.11
524.786	32404.67
524.988	32695.48
525.189	33227.95
525.391	33234.1
525.592	33039.54
525.794	33453.23
525.995	33494.19
526.197	33551.53
526.398	33631.4
526.6	33965.22
526.801	34190.5
527.003	34100.39
527.204	34161.83
527.406	34409.63
527.607	34552.99
527.808	35288.21
528.01	34462.88
528.211	34718.87
528.412	35662.99
528.614	34876.57
528.815	35265.68
529.016	35605.64
529.218	35314.83
529.419	35622.03
529.62	35765.38
529.822	35630.22
530.023	35654.79
530.224	35681.42
530.425	35722.38
530.626	36031.62
530.828	35640.46
531.029	36791.42
531.23	36236.42
531.431	36230.27
531.632	36568.19
531.833	36420.73
532.035	36023.43
532.236	36471.93
532.437	36445.31
532.638	36592.76
532.839	36842.62
533.04	36691.07
533.241	36392.06
533.442	37301.36
533.643	36990.07
533.844	36955.25
534.045	37063.8
534.246	36859
534.447	37516.4
534.648	36482.17
534.849	37244.02
535.05	37098.61
535.251	37258.35
535.451	36727.93
535.652	37276.79
535.853	37078.13
536.054	37424.24
536.255	37033.08
536.456	36795.51
536.657	37438.58
536.857	36881.53
537.058	36988.02
537.259	37686.38
537.46	37276.79
537.66	36906.1
537.861	36990.07
538.062	37407.86
538.263	37321.84
538.463	36996.21
538.664	37115
538.865	37426.29
539.065	37583.98
539.266	36955.25
539.466	37428.34
539.667	36600.96
539.868	37344.37
540.068	37092.47
540.269	36822.14
540.469	37276.79
540.67	37012.6
540.87	36811.9
541.071	36775.03
541.271	36957.3
541.472	37282.93
541.672	36955.25
541.873	36836.47
542.073	36664.44
542.274	37586.03
542.474	36967.54
542.675	36772.99
542.875	37192.82
543.075	37137.52
543.276	36936.82
543.476	37565.55
543.676	37043.32
543.877	37119.09
544.077	37201.01
544.277	37321.84
544.478	37268.59
544.678	37213.3
544.878	36947.06
545.078	37381.23
545.279	36926.58
545.479	36932.73
545.679	37031.03
545.879	36854.9
546.079	37409.9
546.28	36969.59
546.48	36648.06
546.68	37069.94
546.88	37424.24
547.08	36983.93
547.28	36990.07
547.48	36824.18
547.68	37102.71
547.88	36924.54
548.081	37282.93
548.281	37356.66
548.481	37031.03
548.681	37332.08
548.881	37289.07
549.081	36914.3
549.28	36883.58
549.48	37223.54
549.68	37192.82
549.88	37551.21
550.08	37100.66
550.28	36875.38
550.48	36815.99
550.68	37211.25
550.88	37031.03
551.08	36973.69
551.279	37203.06
551.479	36834.42
551.679	37067.89
551.879	36498.56
552.079	37065.85
552.278	36807.8
552.478	36936.82
552.678	36779.13
552.878	37162.1
553.077	36967.54
553.277	36570.24
553.477	36975.73
553.676	36562.04
553.876	36693.11
554.076	36764.79
554.275	36473.98
554.475	36179.07
554.674	36732.03
554.874	36541.57
555.074	36596.86
555.273	36689.02
555.473	36693.11
555.672	36424.83
555.872	36570.24
556.071	36471.93
556.271	36369.54
556.47	36156.55
556.67	35900.55
556.869	36064.39
557.068	36013.19
557.268	35800.2
557.467	36045.96
557.667	36072.58
557.866	35837.06
558.065	36148.36
558.265	36236.42
558.464	35622.03
558.663	36295.81
558.863	35900.55
559.062	36174.98
559.261	35259.54
559.461	36027.52
559.66	35398.8
559.859	35359.89
560.058	35470.48
560.258	35648.65
560.457	35210.39
560.656	35654.79
560.855	35431.57
561.054	35529.87
561.253	35253.39
561.453	35277.97
561.652	35437.71
561.851	35474.57
562.05	35216.53
562.249	34780.31
562.448	35126.42
562.647	35083.41
562.846	35169.43
563.045	35124.37
563.244	34710.68
563.443	35269.78
563.642	34555.04
563.841	34374.81
564.04	34813.08
564.239	34540.7
564.438	34536.6
564.637	34512.03
564.836	34794.65
565.035	34395.29
565.234	34874.52
565.432	34469.02
565.631	34327.71
565.83	34440.35
566.029	34159.78
566.228	34063.52
566.427	34034.85
566.625	33893.54
566.824	33520.81
567.023	34260.13
567.222	33404.08
567.42	34296.99
567.619	33569.96
567.818	33602.73
568.016	33404.08
568.215	33666.22
568.414	33227.95
568.612	34014.37
568.811	33545.39
569.01	33432.75
569.208	32646.33
569.407	33201.33
569.605	32621.75
569.804	33436.84
570.002	32963.76
570.201	32785.59
570.4	32908.47
570.598	32892.08
570.797	32631.99
570.995	32629.94
571.193	32466.11
571.392	32351.42
571.59	32369.85
571.789	32224.45
571.987	32013.51
572.186	32113.86
572.384	31831.24
572.582	32058.56
572.781	31945.92
572.979	31495.37
573.177	31849.67
573.376	32072.9
573.574	31669.45
573.772	31608.01
573.971	31417.55
574.169	31315.15
574.367	31071.44
574.565	31274.19
574.763	30989.52
574.962	30934.23
575.16	30792.92
575.358	30606.55
575.556	30567.64
575.754	30987.47
575.952	30221.53
576.151	30704.85
576.349	30223.58
576.547	30029.02
576.745	30436.57
576.943	30391.51
577.141	30168.29
577.339	29889.76
577.537	29734.12
577.735	29779.17
577.933	29562.09
578.131	29906.15
578.329	29545.7
578.527	29336.81
578.725	29320.43
578.923	29650.15
579.121	29191.41
579.319	29302
579.516	29127.92
579.714	28980.46
579.912	28747
580.11	28869.87
580.308	28767.48
580.506	28867.83
580.704	28628.21
580.901	28689.65
581.099	29080.81
581.297	28275.96
581.495	28486.9
581.692	28710.13
581.89	27981.06
582.088	28499.19
582.285	28046.59
582.483	28003.58
582.681	28013.82
582.878	27823.36
583.076	27473.16
583.274	27784.45
583.471	27481.35
583.669	27475.21
583.866	27553.03
584.064	27444.49
584.262	27188.49
584.459	27194.64
584.657	26955.02
584.854	27264.27
585.052	26316.06
585.249	27317.51
585.447	26914.06
585.644	26721.55
585.841	26674.45
586.039	26805.52
586.236	26195.23
586.434	26490.13
586.631	26082.59
586.828	26129.69
587.026	26715.41
587.223	26172.7
587.42	26002.72
587.618	26539.29
587.815	25740.58
588.012	25840.93
588.21	25634.08
588.407	26010.91
588.604	25537.83
588.801	25519.4
588.999	25486.63
589.196	25417
589.393	25193.77
589.59	25478.44
589.787	25060.65
589.984	25328.94
590.182	24978.73
590.379	24835.38
590.576	24792.37
590.773	24935.73
590.97	24859.95
591.167	24780.08
591.364	24659.25
591.561	24606
591.758	24466.74
591.955	24157.5
592.152	24728.88
592.349	24069.44
592.546	24372.53
592.743	24216.89
592.94	24051
593.137	24118.59
593.334	24083.77
593.531	23776.58
593.727	24120.63
593.924	23686.47
594.121	23598.4
594.318	23602.5
594.515	23356.74
594.712	23786.82
594.908	23352.65
595.105	23467.33
595.302	23217.48
595.499	23252.3
595.696	22981.96
595.892	23090.51
596.089	23027.02
596.286	23031.12
596.482	22914.38
596.679	22922.57
596.876	22959.44
597.072	22783.31
597.269	22594.9
597.466	22363.48
597.662	22451.54
597.859	22508.88
598.055	22408.53
598.252	22146.39
598.448	22508.88
598.645	22144.34
598.841	22140.25
599.038	22209.88
599.234	22009.18
599.431	21726.56
599.627	21777.76
599.824	22025.56
600.02	21628.26
600.217	21507.43
600.413	21601.63
600.609	21566.82
600.806	21462.37
601.002	21622.11
601.198	21251.43
601.395	21198.18
601.591	21323.11
601.787	21146.98
601.984	20868.46
602.18	21181.8
602.376	20981.1
602.572	20553.07
602.769	20768.11
602.965	20807.02
603.161	20532.59
603.357	20772.21
603.553	20534.64
603.75	20465.01
603.946	20522.35
604.142	20063.61
604.338	19934.59
604.534	20202.87
604.73	20129.14
604.926	20010.36
605.122	19989.88
605.318	19783.04
605.514	19709.31
605.71	20079.99
605.906	19584.38
606.102	19731.84
606.298	19824
606.494	19838.33
606.69	19344.77
606.886	19303.81
607.082	19205.51
607.278	19387.78
607.474	19277.19
607.67	19301.76
607.866	19121.54
608.062	19281.28
608.257	19180.93
608.453	18939.27
608.649	18926.99
608.845	18793.87
609.041	18820.49
609.236	18881.93
609.432	18699.66
609.628	18621.84
609.824	18564.5
610.019	18648.46
610.215	18597.26
610.411	18523.54
610.606	18224.53
610.802	18533.78
610.998	18554.26
611.193	18343.31
611.389	18124.18
611.584	18091.41
611.78	18097.56
611.976	18097.56
612.171	18097.56
612.367	17970.58
612.562	17823.13
612.758	17659.29
612.953	17884.57
613.149	17694.11
613.344	17849.75
613.539	17866.14
613.735	17563.04
613.93	17577.37
614.126	17552.8
614.321	17466.78
614.517	17499.55
614.712	17374.63
614.907	17302.95
615.103	17597.85
615.298	17151.4
615.493	17311.14
615.688	17104.29
615.884	17497.5
616.079	16960.94
616.274	17204.64
616.47	17051.05
616.665	17100.2
616.86	16981.42
617.055	16991.66
617.25	17151.4
617.445	16993.7
617.641	16629.16
617.836	16672.17
618.031	16672.17
618.226	16659.88
618.421	16721.32
618.616	16838.06
618.811	16369.07
619.006	16676.27
619.201	16215.48
619.396	16328.11
619.591	16088.5
619.786	16049.59
619.981	15836.6
620.176	16242.1
620.371	15805.88
620.566	15762.87
620.761	15801.79
620.956	15830.46
621.151	15549.89
621.346	15642.04
621.541	15404.48
621.735	15439.3
621.93	15398.34
622.125	15402.43
622.32	14986.69
622.515	15109.57
622.709	14923.21
622.904	15070.66
623.099	14648.78
623.294	14822.86
623.488	14605.77
623.683	14648.78
623.878	14351.82
624.072	14425.55
624.267	14437.84
624.462	14300.62
624.656	14230.99
624.851	14196.18
625.046	14044.63
625.24	14001.62
625.435	13903.32
625.629	13917.65
625.824	13860.31
626.018	13610.46
626.213	13268.45
626.407	13577.69
626.602	13342.18
626.796	13454.81
626.991	13463.01
627.185	13422.05
627.38	13315.55
627.574	13147.62
627.768	13106.66
627.963	12928.49
628.157	12821.99
628.352	12885.48
628.546	12428.78
628.74	12793.32
628.935	12469.74
629.129	12600.81
629.323	12391.92
629.517	12504.56
629.712	12357.1
629.906	12199.41
630.1	12297.71
630.294	12049.91
630.489	12258.8
630.683	12228.08
630.877	11957.75
631.071	11896.31
631.265	11871.73
631.459	11957.75
631.653	11789.81
631.848	11744.76
632.042	11709.94
632.236	11695.61
632.43	11711.99
632.624	11472.38
632.818	11390.46
633.012	11439.61
633.206	11275.77
633.4	11298.3
633.594	11255.29
633.788	11159.04
633.982	11281.92
634.176	11134.46
634.369	10917.38
634.563	10896.9
634.757	10903.04
634.951	10812.93
635.145	10890.76
635.339	10614.28
635.533	10700.3
635.726	10587.66
635.92	10454.54
636.114	10477.07
636.308	10268.17
636.501	10184.21
636.695	10374.67
636.889	10239.5
637.083	10096.14
637.276	10184.21
637.47	9905.68
637.664	9920.02
637.857	10106.38
638.051	9758.23
638.244	9788.95
638.438	9750.04
638.632	9664.02
638.825	9657.88
639.019	9578.01
639.212	9461.27
639.406	9692.69
639.599	9621.02
639.793	9471.51
639.986	9362.97
640.18	9457.18
640.373	9238.05
640.567	9215.52
640.76	9147.94
640.954	9147.94
641.147	9182.75
641.34	8826.4
641.534	8932.9
641.727	8957.47
641.92	8853.03
642.114	8889.89
642.307	8828.45
642.5	8762.92
642.694	8547.88
642.887	8502.82
643.08	8674.85
643.273	8482.35
643.467	8619.56
643.66	8373.8
643.853	8420.91
644.046	8287.79
644.239	8410.67
644.432	8021.55
644.626	8171.05
644.819	8197.68
645.012	8121.9
645.205	8044.08
645.398	8062.51
645.591	7810.61
645.784	7931.44
645.977	7833.14
646.17	7595.57
646.363	7697.97
646.556	7636.53
646.749	7642.68
646.942	7640.63
647.135	7450.17
647.328	7288.38
647.521	7423.55
647.714	7302.72
647.907	7302.72
648.099	7521.85
648.292	7403.07
648.485	7310.91
648.678	7155.26
648.871	6929.98
649.064	7102.01
649.256	6993.47
649.449	6993.47
649.642	6981.18
649.835	6714.95
650.027	6823.49
650.22	6876.74
650.413	6798.91
650.605	6825.54
650.798	6895.17
650.991	6784.58
651.183	6571.59
651.376	6618.69
651.568	6661.7
651.761	6649.41
651.954	6559.3
652.146	6553.16
652.339	6506.06
652.531	6262.35
652.724	6417.99
652.916	6137.42
653.109	6022.73
653.301	6274.63
653.494	6325.83
653.686	6170.19
653.879	6022.73
654.071	6168.14
654.263	6000.21
654.456	6137.42
654.648	6135.37
654.84	5981.78
655.033	6084.17
655.225	6006.35
655.417	5787.22
655.61	5895.76
655.802	5635.67
655.994	5754.45
656.186	5711.44
656.379	5756.5
656.571	5686.87
656.763	5437.02
656.955	5387.86
657.148	5580.37
657.34	5510.74
657.532	5420.63
657.724	5303.9
657.916	5283.42
658.108	5342.81
658.3	5322.33
658.492	5305.95
658.684	5242.46
658.876	5193.31
659.068	5185.12
659.26	5086.81
659.452	5056.09
659.644	5264.99
659.836	4994.65
660.028	5015.13
660.22	4906.59
660.412	4867.68
660.604	4998.75
660.796	4804.19
660.988	4832.86
661.18	5021.28
661.372	4927.07
661.563	4843.1
661.755	4804.19
661.947	4742.75
662.139	4603.49
662.331	4789.86
662.522	4617.83
662.714	4562.53
662.906	4554.34
663.097	4601.44
663.289	4505.19
663.481	4613.73
663.673	4396.65
663.864	4349.54
664.056	4404.84
664.247	4376.17
664.439	4312.68
664.631	4376.17
664.822	4292.2
665.014	4324.97
665.205	4279.91
665.397	4408.94
665.588	4097.64
665.78	4331.11
665.971	4202.09
666.163	4085.36
666.354	4091.5
666.546	3966.57
666.737	4021.87
666.929	4040.3
667.12	4017.77
667.311	3876.46
667.503	3923.57
667.694	3901.04
667.885	3925.61
668.077	3872.37
668.268	3870.32
668.459	3767.92
668.651	3776.11
668.842	3808.88
669.033	3712.63
669.224	3677.81
669.416	3769.97
669.607	3798.64
669.798	3686
669.989	3686
670.18	3659.38
670.371	3647.09
670.563	3655.28
670.754	3591.8
670.945	3589.75
671.136	3509.88
671.327	3737.2
671.518	3446.39
671.709	3649.14
671.9	3473.01
672.091	3481.21
672.282	3493.49
672.473	3348.09
672.664	3522.16
672.855	3415.67
673.046	3403.38
673.237	3452.53
673.428	3362.42
673.619	3409.53
673.809	3282.55
674	3358.33
674.191	3198.59
674.382	3350.14
674.573	3352.18
674.764	3296.89
674.954	3268.22
675.145	3237.5
675.336	3245.69
675.527	3128.95
675.717	3225.21
675.908	3212.92
676.099	3212.92
676.289	3096.19
676.48	3155.58
676.671	3112.57
676.861	3147.39
677.052	3110.52
677.243	3161.72
677.433	3141.24
677.624	3110.52
677.814	3083.9
678.005	3034.75
678.195	3096.19
678.386	3049.08
678.576	2958.97
678.767	2883.2
678.957	3018.36
679.148	3016.32
679.338	2885.25
679.529	2909.82
679.719	3085.95
679.909	3044.99
680.1	2963.07
680.29	2911.87
680.481	2834.05
680.671	2911.87
680.861	2788.99
681.052	2891.39
681.242	2965.12
681.432	2961.02
681.622	2868.86
681.813	2928.25
682.003	2924.16
682.193	2860.67
682.383	2893.44
682.573	2903.68
682.764	2907.77
682.954	2811.52
683.144	2682.5
683.334	2850.43
683.524	2893.44
683.714	2922.11
683.904	2727.55
684.094	2817.66
684.284	2793.09
684.474	2729.6
684.664	2705.03
684.854	2709.12
685.044	2819.71
685.234	2649.73
685.424	2745.98
685.614	2772.61
685.804	2678.4
685.994	2715.27
686.184	2668.16
686.374	2799.23
686.564	2690.69
686.753	2764.42
686.943	2680.45
687.133	2702.98
687.323	2641.54
687.513	2610.82
687.702	2604.67
687.892	2584.2
688.082	2649.73
688.272	2670.21
688.461	2500.23
688.651	2586.24
688.841	2680.45
689.03	2580.1
689.22	2616.96
689.41	2688.64
689.599	2520.71
689.789	2610.82
689.979	2524.8
690.168	2696.83
690.358	2657.92
690.547	2596.48
690.737	2563.72
690.926	2702.98
691.116	2590.34
691.305	2588.29
691.495	2512.52
691.684	2432.65
691.874	2557.57
692.063	2606.72
692.252	2524.8
692.442	2533
692.631	2549.38
692.82	2467.46
693.01	2619.01
693.199	2569.86
693.388	2459.27
693.578	2455.17
693.767	2608.77
693.956	2547.33
694.146	2555.52
694.335	2379.4
694.524	2479.75
694.713	2528.9
694.902	2512.52
695.092	2481.8
695.281	2492.04
695.47	2510.47
695.659	2518.66
695.848	2401.93
696.037	2524.8
696.226	2555.52
696.415	2428.55
696.604	2369.16
696.793	2479.75
696.982	2432.65
697.171	2387.59
697.36	2477.7
697.549	2371.21
697.738	2344.58
697.927	2379.4
698.116	2322.06
698.305	2414.21
698.494	2500.23
698.683	2475.65
698.872	2418.31
699.061	2520.71
699.25	2315.91
699.438	2449.03
699.627	2483.84
699.816	2420.36
700.005	2285.19
700.193	2430.6
700.382	2391.69
700.571	2436.74
700.76	2385.54
700.948	2436.74
701.137	2414.21
701.326	2360.97
701.514	2389.64
701.703	2467.46
701.892	2381.45
702.08	2385.54
702.269	2289.29
702.457	2303.62
702.646	2277
702.834	2305.67
703.023	2360.97
703.212	2322.06
703.4	2291.34
703.589	2346.63
703.777	2272.9
703.965	2248.33
704.154	2242.18
704.342	2297.48
704.531	2377.35
704.719	2322.06
704.907	2199.18
705.096	2248.33
705.284	2145.93
705.472	2260.62
705.661	2244.23
705.849	2225.8
706.037	2168.46
706.226	2285.19
706.414	2238.09
706.602	2203.27
706.79	2160.27
706.979	2330.25
707.167	2244.23
707.355	2098.83
707.543	2131.59
707.731	2143.88
707.919	2178.7
708.107	2139.79
708.296	2252.42
708.484	2207.37
708.672	2098.83
708.86	2172.55
709.048	2086.54
709.236	2137.74
709.424	2119.31
709.612	2121.35
709.8	2119.31
709.988	1992.33
710.176	2139.79
710.364	2023.05
710.551	2070.16
710.739	2072.2
710.927	1924.75
711.115	1937.04
711.303	2012.81
711.491	2082.44
711.679	1988.24
711.866	1969.8
712.054	2016.91
712.242	2014.86
712.43	1926.8
712.617	1945.23
712.805	1980.04
712.993	1967.76
713.181	1932.94
713.368	1926.8
713.556	1934.99
713.744	1943.18
713.931	1881.74
714.119	1916.56
714.306	1910.41
714.494	1840.78
714.682	1820.3
714.869	1824.4
715.057	1971.85
715.244	1930.89
715.432	1838.73
715.619	1777.3
715.807	1855.12
715.994	1822.35
716.182	1740.43
716.369	1805.97
716.556	1793.68
716.744	1744.53
716.931	1777.3
717.119	1750.67
717.306	1799.82
717.493	1685.14
717.681	1740.43
717.868	1762.96
718.055	1683.09
718.242	1719.95
718.43	1795.73
718.617	1746.58
718.804	1701.52
718.991	1801.87
719.179	1635.99
719.366	1793.68
719.553	1722
719.74	1715.86
719.927	1674.9
720.114	1623.7
720.301	1683.09
720.488	1603.22
720.676	1646.23
720.863	1599.12
721.05	1711.76
721.237	1683.09
721.424	1709.71
721.611	1576.59
721.798	1543.83
721.985	1554.07
722.172	1437.33
722.358	1521.3
722.545	1556.11
722.732	1652.37
722.919	1572.5
723.106	1556.11
723.293	1556.11
723.48	1595.03
723.667	1457.81
723.853	1590.93
724.04	1617.55
724.227	1617.55
724.414	1457.81
724.6	1537.68
724.787	1533.59
724.974	1578.64
725.161	1570.45
725.347	1480.34
725.534	1447.57
725.72	1459.86
725.907	1453.72
726.094	1490.58
726.28	1418.9
726.467	1470.1
726.653	1459.86
726.84	1367.7
727.027	1431.19
727.213	1390.23
727.4	1386.13
727.586	1455.76
727.773	1318.55
727.959	1324.69
728.145	1443.48
728.332	1410.71
728.518	1453.72
728.705	1336.98
728.891	1283.74
729.077	1357.46
729.264	1275.54
729.45	1423
729.636	1324.69
729.823	1400.47
730.009	1361.56
730.195	1287.83
730.382	1353.37
730.568	1298.07
730.754	1298.07
730.94	1232.54
731.126	1355.41
731.313	1353.37
731.499	1296.02
731.685	1402.52
731.871	1285.78
732.057	1314.45
732.243	1386.13
732.429	1336.98
732.615	1289.88
732.801	1302.17
732.987	1244.82
733.173	1363.61
733.359	1183.38
733.545	1197.72
733.731	1283.74
733.917	1287.83
734.103	1185.43
734.289	1234.58
734.475	1203.86
734.661	1230.49
734.847	1212.06
735.033	1244.82
735.219	1183.38
735.404	1150.62
735.59	1179.29
735.776	1236.63
735.962	1212.06
736.148	1207.96
736.333	1085.08
736.519	1164.95
736.705	1083.03
736.89	1267.35
737.076	1271.45
737.262	1212.06
737.447	1128.09
737.633	1048.22
737.819	1087.13
738.004	1117.85
738.19	1130.14
738.375	1113.75
738.561	1070.75
738.747	1109.66
738.932	1083.03
739.118	1136.28
739.303	1167
739.489	1068.7
739.674	1007.26
739.859	1046.17
740.045	1085.08
740.23	1146.52
740.416	1058.46
740.601	1173.14
740.786	1113.75
740.972	1060.51
741.157	1062.55
741.342	1040.03
741.528	1021.6
741.713	1017.5
741.898	1023.64
742.084	1060.51
742.269	1048.22
742.454	1066.65
742.639	1095.32
742.824	1013.4
743.01	970.4
743.195	964.25
743.38	882.33
743.565	915.1
743.75	943.77
743.935	935.58
744.12	878.24
744.305	992.92
744.49	970.4
744.675	1015.45
744.86	972.44
745.045	945.82
745.23	999.07
745.415	1027.74
745.6	880.29
745.785	886.43
745.97	892.57
746.155	868
746.34	956.06
746.525	863.9
746.71	976.54
746.895	972.44
747.079	837.28
747.264	927.39
747.449	800.41
747.634	841.37
747.819	937.63
748.003	810.65
748.188	818.85
748.373	915.1
748.557	886.43
748.742	816.8
748.927	839.33
749.111	802.46
749.296	814.75
749.481	849.57
749.665	777.89
749.85	716.45
750.034	775.84
750.219	722.59
750.404	792.22
750.588	741.02
750.773	646.82
750.957	718.5
751.141	747.17
751.326	757.41
751.51	757.41
751.695	726.69
751.879	734.88
752.064	822.94
752.248	779.93
752.432	786.08
752.617	796.32
752.801	743.07
752.985	751.26
753.17	792.22
753.354	763.55
753.538	706.21
753.722	695.97
753.907	712.35
754.091	679.58
754.275	687.78
754.459	741.02
754.643	695.97
754.828	728.74
755.012	736.93
755.196	714.4
755.38	704.16
755.564	667.3
755.748	673.44
755.932	640.67
756.116	595.62
756.3	663.2
756.484	663.2
756.668	626.34
756.852	632.48
757.036	624.29
757.22	595.62
757.404	534.18
757.588	587.43
757.772	626.34
757.956	612
758.14	507.55
758.323	519.84
758.507	624.29
758.691	587.43
758.875	587.43
759.059	609.95
759.242	585.38
759.426	616.1
759.61	575.14
759.794	601.76
759.977	609.95
760.161	548.51
760.345	536.23
760.528	558.75
760.712	568.99
760.895	517.79
761.079	534.18
761.263	616.1
761.446	505.51
761.63	550.56
761.813	464.55
761.997	536.23
762.18	425.64
762.364	552.61
762.547	513.7
762.731	462.5
762.914	542.37
763.098	558.75
763.281	546.47
763.464	501.41
763.648	495.27
763.831	556.71
764.015	519.84
764.198	482.98
764.381	497.32
764.564	462.5
764.748	511.65
764.931	548.51
765.114	546.47
765.297	544.42
765.481	472.74
765.664	478.88
765.847	509.6
766.03	491.17
766.213	536.23
766.397	448.16
766.58	491.17
766.763	560.8
766.946	497.32
767.129	478.88
767.312	450.21
767.495	452.26
767.678	460.45
767.861	489.12
768.044	478.88
768.227	499.36
768.41	370.34
768.593	489.12
768.776	421.54
768.959	417.44
769.142	476.84
769.324	485.03
769.507	501.41
769.69	446.12
769.873	411.3
770.056	501.41
770.239	351.91
770.421	370.34
770.604	396.96
770.787	472.74
770.97	460.45
771.152	439.97
771.335	478.88
771.518	423.59
771.7	384.68
771.883	396.96
772.066	450.21
772.248	450.21
772.431	403.11
772.613	415.4
772.796	388.77
772.978	423.59
773.161	482.98
773.343	401.06
773.526	349.86
773.708	327.33
773.891	386.72
774.073	362.15
774.256	411.3
774.438	382.63
774.621	329.38
774.803	376.48
774.985	356.01
775.168	374.44
775.35	388.77
775.532	417.44
775.715	437.92
775.897	437.92
776.079	364.2
776.261	335.53
776.444	403.11
776.626	313
776.808	403.11
776.99	384.68
777.173	388.77
777.355	255.65
777.537	364.2
777.719	331.43
777.901	280.23
778.083	376.48
778.265	304.81
778.447	380.58
778.629	335.53
778.811	341.67
778.993	362.15
779.175	378.53
779.357	288.42
779.539	360.1
779.721	286.37
779.903	341.67
780.085	300.71
780.267	368.29
780.449	345.77
780.631	388.77
780.812	269.99
780.994	292.52
781.176	220.84
781.358	394.92
781.54	368.29
781.721	345.77
781.903	298.66
782.085	265.89
782.267	282.28
782.448	327.33
782.63	249.51
782.812	345.77
782.993	261.8
783.175	255.65
783.357	302.76
783.538	243.37
783.72	306.85
783.901	239.27
784.083	278.18
784.264	239.27
784.446	286.37
784.627	200.36
784.809	263.85
784.99	173.74
785.172	229.03
785.353	261.8
785.535	222.89
785.716	247.46
785.897	243.37
786.079	259.75
786.26	186.02
786.441	265.89
786.623	186.02
786.804	210.6
786.985	249.51
787.167	175.78
787.348	218.79
787.529	202.41
787.71	251.56
787.891	192.17
788.073	206.5
788.254	216.74
788.435	229.03
788.616	265.89
788.797	114.34
788.978	210.6
789.159	132.78
789.34	206.5
789.522	235.18
789.703	214.7
789.884	173.74
790.065	267.94
790.246	173.74
790.427	237.22
790.607	210.6
790.788	274.09
790.969	218.79
791.15	169.64
791.331	198.31
791.512	218.79
791.693	134.82
791.874	153.26
792.054	190.12
792.235	165.54
792.416	210.6
792.597	190.12
792.778	251.56
792.958	183.98
793.139	149.16
793.32	239.27
793.5	93.87
793.681	222.89
793.862	212.65
794.042	237.22
794.223	186.02
794.404	128.68
794.584	134.82
794.765	95.91
794.945	145.06
795.126	108.2
795.306	198.31
795.487	181.93
795.667	159.4
795.848	188.07
796.028	106.15
796.209	100.01
796.389	161.45
796.57	192.17
796.75	95.91
796.93	149.16
797.111	151.21
797.291	165.54
797.471	153.26
797.652	132.78
797.832	122.54
798.012	204.46
798.192	112.3
798.373	108.2
798.553	130.73
798.733	138.92
798.913	163.5
799.093	204.46
799.274	138.92
799.454	140.97
799.634	165.54
799.814	85.67
799.994	65.19
800.174	151.21
800.354	106.15
800.534	122.54
800.714	169.64
800.894	143.02
801.074	126.63
801.254	136.87
801.434	212.65
801.614	102.06
801.794	89.77
801.974	278.18
802.154	118.44
802.334	241.32
802.514	159.4
802.693	126.63
802.873	136.87
803.053	151.21
803.233	112.3
803.413	122.54
803.592	44.71
803.772	71.34
803.952	132.78
804.131	167.59
804.311	145.06
804.491	120.49
804.67	116.39
804.85	77.48
805.03	190.12
805.209	126.63
805.389	100.01
805.568	128.68
805.748	63.15
805.928	87.72
806.107	116.39
806.287	114.34
806.466	52.91
806.646	81.58
806.825	85.67
807.004	100.01
807.184	120.49
807.363	181.93
807.543	81.58
807.722	108.2
807.901	91.82
808.081	1.71
808.26	-0.34
808.439	81.58
808.619	100.01
808.798	61.1
808.977	57
809.156	81.58
809.336	89.77
809.515	81.58
809.694	71.34
809.873	73.39
810.052	22.19
810.231	52.91
810.411	138.92
810.59	155.3
810.769	63.15
810.948	122.54
811.127	85.67
811.306	40.62
811.485	100.01
811.664	59.05
811.843	118.44
812.022	122.54
812.201	-47.44
812.38	73.39
812.559	124.58
812.737	44.71
812.916	126.63
813.095	65.19
813.274	100.01
813.453	114.34
813.632	26.28
813.811	83.63
813.989	93.87
814.168	100.01
814.347	1.71
814.526	100.01
814.704	116.39
814.883	124.58
815.062	59.05
815.24	108.2
815.419	85.67
815.598	122.54
815.776	81.58
815.955	140.97
816.133	57
816.312	63.15
816.49	34.47
816.669	75.43
816.847	67.24
817.026	106.15
817.204	30.38
817.383	79.53
817.561	143.02
817.74	46.76
817.918	116.39
818.097	-6.49
818.275	132.78
818.453	65.19
818.632	73.39
818.81	48.81
818.988	57
819.167	93.87
819.345	44.71
819.523	67.24
819.701	22.19
819.879	87.72
820.058	122.54
820.236	77.48
820.414	106.15
820.592	79.53
820.77	85.67
820.948	85.67
821.127	71.34
821.305	30.38
821.483	85.67
821.661	85.67
821.839	63.15
822.017	143.02
822.195	130.73
822.373	-0.34
822.551	102.06
822.729	79.53
822.907	18.09
823.085	48.81
823.262	57
823.44	34.47
823.618	13.99
823.796	83.63
823.974	54.95
824.152	-6.49
824.329	40.62
824.507	52.91
824.685	20.14
824.863	34.47
825.04	77.48
825.218	75.43
825.396	75.43
825.574	20.14
825.751	118.44
825.929	30.38
826.107	40.62
826.284	81.58
826.462	106.15
826.639	83.63
826.817	114.34
826.994	177.83
827.172	36.52
827.349	3.75
827.527	52.91
827.704	83.63
827.882	52.91
828.059	77.48
828.237	50.86
828.414	52.91
828.591	-2.39
828.769	42.67
828.946	67.24
829.124	91.82
829.301	85.67
829.478	91.82
829.655	32.43
829.833	24.23
830.01	20.14
830.187	79.53
830.364	79.53
830.542	32.43
830.719	91.82
830.896	34.47
831.073	28.33
831.25	46.76
831.427	30.38
831.604	91.82
831.782	65.19
831.959	110.25
832.136	26.28
832.313	65.19
832.49	34.47
832.667	136.87
832.844	-0.34
833.021	48.81
833.198	54.95
833.374	38.57
833.551	63.15
833.728	11.95
833.905	16.04
834.082	38.57
834.259	13.99
834.436	147.11
834.612	140.97
834.789	69.29
834.966	89.77
835.143	73.39
835.319	81.58
835.496	91.82
835.673	16.04
835.85	-2.39
836.026	24.23
836.203	48.81
836.38	5.8
836.556	30.38
836.733	91.82
836.909	48.81
837.086	5.8
837.262	67.24
837.439	63.15
837.616	52.91
837.792	3.75
837.968	-16.73
838.145	-14.68
838.321	34.47
838.498	38.57
838.674	7.85
838.851	-12.63
839.027	-2.39
839.203	-8.53
839.38	-4.44
839.556	57
839.732	59.05
839.909	30.38
840.085	87.72
840.261	38.57
840.437	26.28
840.614	-16.73
840.79	42.67
840.966	97.96
841.142	102.06
841.318	-12.63
841.494	28.33
841.671	-6.49
841.847	-12.63
842.023	-0.34
842.199	77.48
842.375	-18.77
842.551	18.09
842.727	-10.58
842.903	-14.68
843.079	-22.87
843.255	59.05
843.431	9.9
843.607	-29.01
843.783	-12.63
843.959	30.38
844.134	77.48
844.31	-8.53
844.486	-18.77
844.662	30.38
844.838	28.33
845.013	50.86
845.189	34.47
845.365	50.86
845.541	3.75
845.716	-12.63
845.892	108.2
846.068	20.14
846.244	11.95
846.419	7.85
846.595	22.19
846.77	-22.87
846.946	-8.53
847.122	42.67
847.297	-10.58
847.473	73.39
847.648	26.28
847.824	54.95
847.999	-29.01
848.175	44.71
848.35	22.19
848.526	34.47
848.701	59.05
848.876	-18.77
849.052	28.33
849.227	5.8
849.403	7.85
849.578	9.9
849.753	18.09
849.929	48.81
850.104	54.95
850.279	46.76
850.454	13.99
850.63	61.1
850.805	36.52
850.98	93.87
851.155	71.34
851.33	-14.68
851.505	42.67
851.681	95.91
851.856	-43.35
852.031	-16.73
852.206	52.91
852.381	34.47
852.556	40.62
852.731	20.14
852.906	18.09
853.081	52.91
853.256	28.33
853.431	18.09
853.606	1.71
853.781	-2.39
853.956	22.19
854.131	61.1
854.305	-49.49
854.48	-22.87
854.655	-29.01
854.83	57
855.005	-45.4
855.18	77.48
855.354	-26.96
855.529	9.9
855.704	52.91
855.879	42.67
856.053	-39.25
856.228	61.1
856.403	54.95
856.577	87.72
856.752	7.85
856.926	-2.39
857.101	-8.53
857.276	1.71
857.45	46.76
857.625	40.62
857.799	36.52
857.974	34.47
858.148	13.99
858.323	-16.73
858.497	7.85
858.672	73.39
858.846	34.47
859.02	71.34
859.195	-33.11
859.369	40.62
859.543	-16.73
859.718	30.38
859.892	44.71
860.066	-4.44
860.241	50.86
860.415	38.57
860.589	36.52
860.763	36.52
860.938	-41.3
861.112	126.63
861.286	3.75
861.46	-26.96
861.634	9.9
861.808	-2.39
861.982	-39.25
862.157	11.95
862.331	38.57
862.505	16.04
862.679	46.76
862.853	-20.82
863.027	-63.83
863.201	46.76
863.375	-76.12
863.549	-0.34
863.722	34.47
863.896	-4.44
864.07	24.23
864.244	54.95
864.418	79.53
864.592	9.9
864.766	7.85
864.939	34.47
865.113	-0.34
865.287	16.04
865.461	11.95
865.634	57
865.808	44.71
865.982	-20.82
866.156	-12.63
866.329	67.24
866.503	-18.77
866.676	20.14
866.85	16.04
867.024	54.95
867.197	42.67
867.371	13.99
867.544	-14.68
867.718	36.52
867.891	5.8
868.065	75.43
868.238	20.14
868.412	20.14
868.585	77.48
868.759	18.09
868.932	-24.92
869.105	46.76
869.279	-0.34
869.452	-14.68
869.625	28.33
869.799	1.71
869.972	-10.58
870.145	52.91
870.319	-14.68
870.492	61.1
870.665	-6.49
870.838	-2.39
871.011	-14.68
871.185	18.09
871.358	-24.92
871.531	-16.73
871.704	-29.01
871.877	-6.49
872.05	-4.44
872.223	-6.49
872.396	-29.01
872.569	-22.87
872.742	-22.87
872.915	9.9
873.088	16.04
873.261	40.62
873.434	30.38
873.607	11.95
873.78	7.85
873.953	-16.73
874.126	18.09
874.299	3.75
874.471	1.71
874.644	-12.63
874.817	50.86
874.99	20.14
875.163	-22.87
875.335	93.87
875.508	-12.63
875.681	44.71
875.853	61.1
876.026	24.23
876.199	-0.34
876.371	22.19
876.544	-4.44
876.717	22.19
876.889	34.47
877.062	-67.92
877.234	13.99
877.407	-61.78
877.579	1.71
877.752	-8.53
877.924	65.19
878.097	85.67
878.269	-0.34
878.442	20.14
878.614	36.52
878.786	9.9
878.959	18.09
879.131	16.04
879.303	-6.49
879.476	-20.82
879.648	61.1
879.82	26.28
879.993	65.19
880.165	-41.3
880.337	7.85
880.509	-6.49
880.681	-61.78
880.854	36.52
881.026	-10.58
881.198	7.85
881.37	-16.73
881.542	-20.82
881.714	40.62
881.886	26.28
882.058	3.75
882.23	-24.92
882.402	-47.44
882.574	26.28
882.746	-10.58
882.918	7.85
883.09	28.33
883.262	7.85
883.434	-37.2
883.606	34.47
883.778	1.71
883.95	32.43
884.122	-16.73
884.293	-26.96
884.465	-4.44
884.637	-14.68
884.809	46.76
884.98	32.43
885.152	-20.82
885.324	42.67
885.496	-4.44
885.667	34.47
885.839	16.04
886.011	-33.11
886.182	26.28
886.354	-65.88
886.525	-0.34
886.697	48.81
886.869	-0.34
887.04	-74.07
887.212	-61.78
887.383	-10.58
887.555	-41.3
887.726	-29.01
887.897	9.9
888.069	50.86
888.24	32.43
888.412	-45.4
888.583	75.43
888.754	26.28
888.926	-22.87
889.097	-22.87
889.268	-61.78
889.44	30.38
889.611	24.23
889.782	-0.34
889.953	20.14
890.125	-18.77
890.296	-61.78
890.467	34.47
890.638	24.23
890.809	44.71
890.98	-82.26
891.151	30.38
891.323	38.57
891.494	61.1
891.665	18.09
891.836	-35.16
892.007	42.67
892.178	-10.58
892.349	11.95
892.52	-29.01
892.691	65.19
892.862	-43.35
893.032	-45.4
893.203	34.47
893.374	3.75
893.545	-22.87
893.716	69.29
893.887	75.43
894.057	-20.82
894.228	48.81
894.399	42.67
894.57	-55.64
894.74	-26.96
894.911	48.81
895.082	-16.73
895.253	-6.49
895.423	40.62
895.594	36.52
895.764	-31.06
895.935	32.43
896.106	16.04
896.276	46.76
896.447	-12.63
896.617	34.47
896.788	-12.63
896.958	-16.73
897.129	-14.68
897.299	3.75
897.47	30.38
897.64	44.71
897.81	24.23
897.981	-0.34
898.151	-14.68
898.322	-10.58
898.492	-22.87
898.662	7.85
898.832	18.09
899.003	20.14
899.173	3.75
899.343	18.09
899.513	-4.44
