Data from USB4F104151__194__13-59-26-468.txt Node

Date: Thu Mar 13 13:59:26 EDT 2025
User: louis
Spectrometer: USB4F10415
Trigger mode: 4
Integration Time (sec): 1.000000E-2
Scans to average: 1
Electric dark correction enabled: true
Nonlinearity correction enabled: false
Boxcar width: 0
XAxis mode: Wavelengths
Number of Pixels in Spectrum: 3648
>>>>>Begin Spectral Data<<<<<
178.204	21.5
178.424	21.5
178.644	21.5
178.864	-70.65
179.084	-44.03
179.304	33.79
179.524	-25.6
179.744	41.98
179.964	52.22
180.184	-27.65
180.404	-19.46
180.624	13.31
180.844	58.37
181.064	-23.55
181.283	-56.32
181.503	-60.42
181.723	13.31
181.943	-41.98
182.163	21.5
182.383	52.22
182.602	87.04
182.822	-13.31
183.042	54.27
183.262	46.08
183.482	13.31
183.701	13.31
183.921	23.55
184.141	89.09
184.361	-27.65
184.58	-46.08
184.8	33.79
185.02	-33.79
185.239	11.26
185.459	-5.12
185.679	-17.41
185.898	35.84
186.118	31.74
186.338	31.74
186.557	80.89
186.777	58.37
186.997	-50.18
187.216	-11.26
187.436	-15.36
187.655	-37.89
187.875	87.04
188.095	25.6
188.314	44.03
188.534	39.94
188.753	54.27
188.973	64.51
189.192	3.07
189.412	-1.02
189.631	37.89
189.851	29.7
190.07	5.12
190.29	17.41
190.509	78.85
190.729	54.27
190.948	-5.12
191.168	101.37
191.387	5.12
191.607	23.55
191.826	31.74
192.045	41.98
192.265	15.36
192.484	121.85
192.704	-1.02
192.923	21.5
193.142	91.13
193.362	-13.31
193.581	48.13
193.8	31.74
194.02	54.27
194.239	44.03
194.458	-9.22
194.678	7.17
194.897	21.5
195.116	-17.41
195.335	46.08
195.555	3.07
195.774	99.33
195.993	-41.98
196.212	52.22
196.432	-5.12
196.651	29.7
196.87	-9.22
197.089	17.41
197.308	35.84
197.528	54.27
197.747	1.02
197.966	37.89
198.185	19.46
198.404	1.02
198.623	13.31
198.842	7.17
199.062	19.46
199.281	-9.22
199.5	-41.98
199.719	-3.07
199.938	15.36
200.157	-21.5
200.376	68.61
200.595	3.07
200.814	21.5
201.033	-33.79
201.252	113.66
201.471	-15.36
201.69	7.17
201.909	-29.7
202.128	17.41
202.347	11.26
202.566	-3.07
202.785	60.42
203.004	-1.02
203.223	84.99
203.442	23.55
203.661	-5.12
203.879	-23.55
204.098	29.7
204.317	13.31
204.536	-66.56
204.755	21.5
204.974	46.08
205.193	11.26
205.411	29.7
205.63	-15.36
205.849	31.74
206.068	72.7
206.287	-3.07
206.505	-15.36
206.724	-27.65
206.943	27.65
207.162	56.32
207.381	15.36
207.599	35.84
207.818	119.81
208.037	-44.03
208.255	17.41
208.474	-19.46
208.693	7.17
208.911	23.55
209.13	-5.12
209.349	21.5
209.567	64.51
209.786	44.03
210.005	48.13
210.223	11.26
210.442	5.12
210.661	95.23
210.879	87.04
211.098	-5.12
211.316	9.22
211.535	64.51
211.753	-68.61
211.972	41.98
212.191	-25.6
212.409	58.37
212.628	-3.07
212.846	64.51
213.065	-15.36
213.283	80.89
213.502	29.7
213.72	21.5
213.938	5.12
214.157	31.74
214.375	-15.36
214.594	29.7
214.812	44.03
215.031	23.55
215.249	9.22
215.467	29.7
215.686	15.36
215.904	35.84
216.122	74.75
216.341	29.7
216.559	23.55
216.778	54.27
216.996	62.46
217.214	46.08
217.432	54.27
217.651	25.6
217.869	21.5
218.087	23.55
218.306	-7.17
218.524	15.36
218.742	58.37
218.96	-7.17
219.179	1.02
219.397	1.02
219.615	64.51
219.833	39.94
220.051	-7.17
220.27	64.51
220.488	-23.55
220.706	87.04
220.924	-5.12
221.142	33.79
221.36	25.6
221.578	-19.46
221.796	-68.61
222.015	11.26
222.233	-15.36
222.451	68.61
222.669	-25.6
222.887	56.32
223.105	-5.12
223.323	-52.22
223.541	-11.26
223.759	-5.12
223.977	-7.17
224.195	-11.26
224.413	17.41
224.631	23.55
224.849	23.55
225.067	39.94
225.285	15.36
225.503	50.18
225.721	-17.41
225.939	52.22
226.157	25.6
226.375	37.89
226.592	-60.42
226.81	27.65
227.028	21.5
227.246	5.12
227.464	54.27
227.682	-54.27
227.9	-25.6
228.117	56.32
228.335	78.85
228.553	-33.79
228.771	-41.98
228.989	89.09
229.206	54.27
229.424	21.5
229.642	17.41
229.86	56.32
230.077	25.6
230.295	-9.22
230.513	56.32
230.731	68.61
230.948	58.37
231.166	78.85
231.384	31.74
231.601	-1.02
231.819	72.7
232.037	35.84
232.254	5.12
232.472	23.55
232.689	17.41
232.907	27.65
233.125	70.65
233.342	21.5
233.56	-23.55
233.777	-11.26
233.995	-15.36
234.213	-27.65
234.43	37.89
234.648	13.31
234.865	37.89
235.083	70.65
235.3	50.18
235.518	60.42
235.735	99.33
235.953	37.89
236.17	-64.51
236.388	-5.12
236.605	37.89
236.822	17.41
237.04	-50.18
237.257	70.65
237.475	-29.7
237.692	46.08
237.909	-5.12
238.127	64.51
238.344	1.02
238.562	37.89
238.779	29.7
238.996	138.24
239.214	46.08
239.431	62.46
239.648	23.55
239.865	48.13
240.083	11.26
240.3	5.12
240.517	1.02
240.735	13.31
240.952	68.61
241.169	1.02
241.386	-11.26
241.603	5.12
241.821	37.89
242.038	-19.46
242.255	17.41
242.472	74.75
242.689	66.56
242.907	3.07
243.124	1.02
243.341	29.7
243.558	7.17
243.775	5.12
243.992	-44.03
244.209	78.85
244.426	21.5
244.643	46.08
244.86	1.02
245.078	82.94
245.295	-13.31
245.512	68.61
245.729	-29.7
245.946	62.46
246.163	27.65
246.38	72.7
246.597	58.37
246.814	5.12
247.031	-35.84
247.248	21.5
247.464	-48.13
247.681	27.65
247.898	29.7
248.115	107.52
248.332	13.31
248.549	-9.22
248.766	39.94
248.983	52.22
249.2	13.31
249.417	41.98
249.633	13.31
249.85	29.7
250.067	5.12
250.284	70.65
250.501	58.37
250.717	-7.17
250.934	13.31
251.151	-23.55
251.368	56.32
251.585	-7.17
251.801	48.13
252.018	70.65
252.235	5.12
252.451	46.08
252.668	64.51
252.885	46.08
253.102	27.65
253.318	-60.42
253.535	-35.84
253.752	37.89
253.968	39.94
254.185	50.18
254.401	-25.6
254.618	1.02
254.835	17.41
255.051	19.46
255.268	46.08
255.484	41.98
255.701	56.32
255.917	11.26
256.134	-23.55
256.351	-11.26
256.567	33.79
256.784	15.36
257	41.98
257.217	-35.84
257.433	44.03
257.65	25.6
257.866	-31.74
258.082	29.7
258.299	-13.31
258.515	-31.74
258.732	54.27
258.948	29.7
259.165	21.5
259.381	87.04
259.597	39.94
259.814	58.37
260.03	-9.22
260.246	33.79
260.463	33.79
260.679	99.33
260.895	80.89
261.112	-25.6
261.328	7.17
261.544	-9.22
261.761	17.41
261.977	41.98
262.193	7.17
262.409	91.13
262.626	-7.17
262.842	-11.26
263.058	37.89
263.274	23.55
263.49	87.04
263.707	78.85
263.923	15.36
264.139	-7.17
264.355	41.98
264.571	62.46
264.787	-3.07
265.004	54.27
265.22	13.31
265.436	5.12
265.652	39.94
265.868	78.85
266.084	35.84
266.3	23.55
266.516	11.26
266.732	-41.98
266.948	-7.17
267.164	41.98
267.38	72.7
267.596	72.7
267.812	-15.36
268.028	76.8
268.244	-35.84
268.46	37.89
268.676	46.08
268.892	87.04
269.108	46.08
269.324	23.55
269.54	-7.17
269.756	54.27
269.972	-17.41
270.188	56.32
270.403	7.17
270.619	-44.03
270.835	7.17
271.051	-9.22
271.267	119.81
271.483	46.08
271.698	13.31
271.914	1.02
272.13	37.89
272.346	82.94
272.562	46.08
272.777	-3.07
272.993	17.41
273.209	50.18
273.425	54.27
273.64	7.17
273.856	89.09
274.072	72.7
274.287	31.74
274.503	5.12
274.719	23.55
274.934	54.27
275.15	48.13
275.366	29.7
275.581	37.89
275.797	39.94
276.012	-33.79
276.228	33.79
276.444	29.7
276.659	50.18
276.875	44.03
277.09	78.85
277.306	76.8
277.521	54.27
277.737	-9.22
277.952	-9.22
278.168	11.26
278.383	101.37
278.599	-11.26
278.814	56.32
279.03	25.6
279.245	48.13
279.461	-58.37
279.676	-9.22
279.892	-19.46
280.107	-9.22
280.322	15.36
280.538	50.18
280.753	-29.7
280.969	62.46
281.184	97.28
281.399	115.71
281.615	23.55
281.83	15.36
282.045	56.32
282.26	50.18
282.476	-11.26
282.691	64.51
282.906	-13.31
283.122	74.75
283.337	-11.26
283.552	-11.26
283.767	13.31
283.983	15.36
284.198	31.74
284.413	35.84
284.628	50.18
284.843	13.31
285.058	31.74
285.274	91.13
285.489	-3.07
285.704	-1.02
285.919	-11.26
286.134	93.18
286.349	37.89
286.564	76.8
286.779	17.41
286.995	37.89
287.21	19.46
287.425	13.31
287.64	-3.07
287.855	29.7
288.07	15.36
288.285	125.95
288.5	58.37
288.715	23.55
288.93	29.7
289.145	54.27
289.36	19.46
289.575	-9.22
289.79	23.55
290.004	-13.31
290.219	33.79
290.434	-11.26
290.649	-3.07
290.864	-33.79
291.079	52.22
291.294	44.03
291.509	-7.17
291.724	31.74
291.938	-1.02
292.153	48.13
292.368	7.17
292.583	41.98
292.798	17.41
293.012	78.85
293.227	-13.31
293.442	56.32
293.657	-25.6
293.871	62.46
294.086	99.33
294.301	50.18
294.516	9.22
294.73	-15.36
294.945	54.27
295.16	46.08
295.374	70.65
295.589	48.13
295.804	82.94
296.018	29.7
296.233	82.94
296.447	117.76
296.662	31.74
296.877	44.03
297.091	-3.07
297.306	33.79
297.52	78.85
297.735	50.18
297.949	37.89
298.164	31.74
298.378	21.5
298.593	-39.94
298.807	19.46
299.022	15.36
299.236	119.81
299.451	78.85
299.665	23.55
299.88	27.65
300.094	19.46
300.309	-3.07
300.523	11.26
300.737	50.18
300.952	-48.13
301.166	44.03
301.381	13.31
301.595	-29.7
301.809	17.41
302.024	54.27
302.238	37.89
302.452	41.98
302.667	37.89
302.881	-15.36
303.095	66.56
303.309	152.57
303.524	50.18
303.738	50.18
303.952	-35.84
304.166	58.37
304.381	-21.5
304.595	58.37
304.809	-7.17
305.023	82.94
305.237	11.26
305.452	50.18
305.666	54.27
305.88	9.22
306.094	87.04
306.308	76.8
306.522	-7.17
306.736	15.36
306.95	44.03
307.164	23.55
307.379	-27.65
307.593	37.89
307.807	-19.46
308.021	41.98
308.235	82.94
308.449	54.27
308.663	-15.36
308.877	17.41
309.091	66.56
309.305	56.32
309.519	-11.26
309.733	35.84
309.947	21.5
310.161	78.85
310.374	-17.41
310.588	48.13
310.802	-19.46
311.016	70.65
311.23	78.85
311.444	-82.94
311.658	9.22
311.872	39.94
312.085	44.03
312.299	95.23
312.513	93.18
312.727	21.5
312.941	23.55
313.154	13.31
313.368	46.08
313.582	54.27
313.796	21.5
314.009	58.37
314.223	62.46
314.437	50.18
314.651	95.23
314.864	70.65
315.078	56.32
315.292	78.85
315.505	97.28
315.719	11.26
315.933	80.89
316.146	62.46
316.36	64.51
316.573	5.12
316.787	70.65
317.001	-1.02
317.214	50.18
317.428	52.22
317.641	9.22
317.855	48.13
318.068	41.98
318.282	15.36
318.495	50.18
318.709	13.31
318.922	23.55
319.136	95.23
319.349	-39.94
319.563	-17.41
319.776	44.03
319.99	-7.17
320.203	39.94
320.417	111.61
320.63	74.75
320.843	58.37
321.057	9.22
321.27	82.94
321.483	50.18
321.697	-37.89
321.91	62.46
322.124	-1.02
322.337	95.23
322.55	64.51
322.763	66.56
322.977	50.18
323.19	-64.51
323.403	58.37
323.617	15.36
323.83	13.31
324.043	-33.79
324.256	89.09
324.469	62.46
324.683	58.37
324.896	70.65
325.109	103.42
325.322	44.03
325.535	74.75
325.748	52.22
325.962	-50.18
326.175	50.18
326.388	9.22
326.601	44.03
326.814	48.13
327.027	-7.17
327.24	37.89
327.453	-9.22
327.666	37.89
327.879	66.56
328.092	27.65
328.305	5.12
328.518	62.46
328.731	-21.5
328.944	-44.03
329.157	33.79
329.37	52.22
329.583	-11.26
329.796	87.04
330.009	-19.46
330.222	31.74
330.435	82.94
330.648	15.36
330.861	87.04
331.073	9.22
331.286	35.84
331.499	29.7
331.712	23.55
331.925	31.74
332.138	-11.26
332.35	121.85
332.563	-9.22
332.776	72.7
332.989	29.7
333.202	62.46
333.414	9.22
333.627	35.84
333.84	-19.46
334.053	80.89
334.265	13.31
334.478	19.46
334.691	23.55
334.903	50.18
335.116	23.55
335.329	64.51
335.541	15.36
335.754	82.94
335.966	39.94
336.179	-13.31
336.392	-50.18
336.604	105.47
336.817	21.5
337.029	74.75
337.242	56.32
337.454	109.57
337.667	68.61
337.88	33.79
338.092	41.98
338.305	46.08
338.517	70.65
338.729	115.71
338.942	121.85
339.154	74.75
339.367	-31.74
339.579	27.65
339.792	52.22
340.004	21.5
340.217	46.08
340.429	56.32
340.641	1.02
340.854	35.84
341.066	-1.02
341.278	33.79
341.491	25.6
341.703	7.17
341.915	46.08
342.128	105.47
342.34	25.6
342.552	-27.65
342.764	-3.07
342.977	27.65
343.189	72.7
343.401	37.89
343.613	-31.74
343.826	48.13
344.038	50.18
344.25	-19.46
344.462	1.02
344.674	52.22
344.886	19.46
345.099	11.26
345.311	46.08
345.523	31.74
345.735	52.22
345.947	78.85
346.159	50.18
346.371	74.75
346.583	84.99
346.795	60.42
347.007	46.08
347.219	9.22
347.431	52.22
347.643	37.89
347.855	128
348.067	39.94
348.279	5.12
348.491	93.18
348.703	-29.7
348.915	39.94
349.127	-50.18
349.339	46.08
349.551	23.55
349.763	78.85
349.975	89.09
350.187	54.27
350.399	52.22
350.61	54.27
350.822	76.8
351.034	56.32
351.246	35.84
351.458	7.17
351.669	29.7
351.881	39.94
352.093	48.13
352.305	58.37
352.517	105.47
352.728	91.13
352.94	-9.22
353.152	82.94
353.363	33.79
353.575	72.7
353.787	91.13
353.999	17.41
354.21	60.42
354.422	37.89
354.633	27.65
354.845	68.61
355.057	-19.46
355.268	15.36
355.48	37.89
355.692	17.41
355.903	35.84
356.115	31.74
356.326	99.33
356.538	33.79
356.749	23.55
356.961	-11.26
357.172	70.65
357.384	-17.41
357.595	107.52
357.807	33.79
358.018	5.12
358.23	-1.02
358.441	3.07
358.653	80.89
358.864	54.27
359.075	21.5
359.287	60.42
359.498	93.18
359.709	1.02
359.921	111.61
360.132	27.65
360.344	3.07
360.555	48.13
360.766	23.55
360.977	15.36
361.189	-11.26
361.4	76.8
361.611	48.13
361.823	13.31
362.034	76.8
362.245	29.7
362.456	54.27
362.667	-25.6
362.879	-19.46
363.09	19.46
363.301	62.46
363.512	60.42
363.723	29.7
363.935	17.41
364.146	29.7
364.357	17.41
364.568	103.42
364.779	46.08
364.99	121.85
365.201	23.55
365.412	56.32
365.623	7.17
365.834	109.57
366.045	78.85
366.256	39.94
366.467	-17.41
366.678	64.51
366.889	37.89
367.1	29.7
367.311	5.12
367.522	70.65
367.733	60.42
367.944	78.85
368.155	58.37
368.366	76.8
368.577	-3.07
368.788	70.65
368.999	39.94
369.209	70.65
369.42	89.09
369.631	54.27
369.842	-31.74
370.053	91.13
370.264	56.32
370.474	-1.02
370.685	-27.65
370.896	-50.18
371.107	50.18
371.317	39.94
371.528	17.41
371.739	62.46
371.95	15.36
372.16	-15.36
372.371	31.74
372.582	1.02
372.792	35.84
373.003	21.5
373.214	48.13
373.424	31.74
373.635	15.36
373.846	29.7
374.056	1.02
374.267	13.31
374.477	35.84
374.688	103.42
374.898	17.41
375.109	78.85
375.319	35.84
375.53	52.22
375.74	46.08
375.951	78.85
376.161	95.23
376.372	33.79
376.582	62.46
376.793	72.7
377.003	54.27
377.214	72.7
377.424	19.46
377.635	138.24
377.845	23.55
378.055	84.99
378.266	-19.46
378.476	29.7
378.686	31.74
378.897	29.7
379.107	13.31
379.317	50.18
379.528	91.13
379.738	117.76
379.948	54.27
380.158	46.08
380.369	48.13
380.579	99.33
380.789	29.7
380.999	23.55
381.21	66.56
381.42	39.94
381.63	17.41
381.84	27.65
382.05	76.8
382.261	58.37
382.471	87.04
382.681	-33.79
382.891	101.37
383.101	-9.22
383.311	48.13
383.521	11.26
383.731	117.76
383.941	37.89
384.151	74.75
384.361	68.61
384.571	7.17
384.781	72.7
384.991	3.07
385.201	72.7
385.411	31.74
385.621	41.98
385.831	66.56
386.041	33.79
386.251	19.46
386.461	46.08
386.671	13.31
386.881	70.65
387.091	-44.03
387.301	130.05
387.511	56.32
387.72	101.37
387.93	-23.55
388.14	37.89
388.35	-1.02
388.56	91.13
388.769	115.71
388.979	15.36
389.189	62.46
389.399	74.75
389.609	23.55
389.818	76.8
390.028	74.75
390.238	72.7
390.447	-5.12
390.657	91.13
390.867	62.46
391.076	54.27
391.286	68.61
391.496	46.08
391.705	99.33
391.915	82.94
392.125	37.89
392.334	27.65
392.544	70.65
392.753	23.55
392.963	107.52
393.172	142.33
393.382	9.22
393.591	130.05
393.801	64.51
394.01	60.42
394.22	91.13
394.429	21.5
394.639	70.65
394.848	80.89
395.058	72.7
395.267	52.22
395.477	78.85
395.686	89.09
395.895	35.84
396.105	74.75
396.314	48.13
396.524	9.22
396.733	82.94
396.942	105.47
397.152	72.7
397.361	93.18
397.57	109.57
397.78	119.81
397.989	138.24
398.198	80.89
398.407	76.8
398.617	95.23
398.826	121.85
399.035	37.89
399.244	113.66
399.453	166.91
399.663	105.47
399.872	152.57
400.081	60.42
400.29	41.98
400.499	95.23
400.708	123.9
400.917	146.43
401.127	177.15
401.336	50.18
401.545	168.96
401.754	82.94
401.963	136.19
402.172	95.23
402.381	128
402.59	152.57
402.799	191.49
403.008	115.71
403.217	154.62
403.426	156.67
403.635	132.09
403.844	187.39
404.053	187.39
404.262	80.89
404.471	113.66
404.68	150.53
404.888	160.77
405.097	134.14
405.306	136.19
405.515	111.61
405.724	144.38
405.933	99.33
406.142	209.92
406.35	144.38
406.559	214.01
406.768	201.72
406.977	287.74
407.185	205.82
407.394	158.72
407.603	218.11
407.812	297.98
408.02	216.06
408.229	257.02
408.438	209.92
408.646	234.49
408.855	308.22
409.064	275.45
409.272	310.27
409.481	316.41
409.69	269.31
409.898	361.47
410.107	308.22
410.315	343.03
410.524	265.21
410.733	381.95
410.941	336.89
411.15	392.19
411.358	347.13
411.567	408.57
411.775	416.76
411.984	486.39
412.192	498.68
412.401	443.39
412.609	388.09
412.818	484.34
413.026	451.58
413.234	451.58
413.443	541.69
413.651	545.78
413.86	566.26
414.068	582.65
414.276	660.47
414.485	652.28
414.693	639.99
414.901	619.51
415.11	721.91
415.318	832.5
415.526	732.15
415.734	775.16
415.943	797.68
416.151	885.75
416.359	857.07
416.567	898.03
416.776	930.8
416.984	955.38
417.192	963.57
417.4	1078.26
417.608	1020.91
417.817	1141.74
418.025	1111.02
418.233	1131.5
418.441	1260.52
418.649	1291.24
418.857	1285.1
419.065	1319.92
419.273	1377.26
419.481	1360.88
419.689	1463.27
419.897	1565.67
420.105	1631.21
420.313	1674.21
420.521	1670.12
420.729	1604.58
420.937	1749.99
421.145	1809.38
421.353	1866.72
421.561	1989.6
421.769	1926.11
421.977	2057.18
422.185	2085.86
422.393	2208.73
422.601	2323.42
422.809	2284.51
423.017	2388.96
423.224	2436.06
423.432	2565.08
423.64	2593.75
423.848	2683.86
424.056	2712.53
424.263	2880.47
424.471	2937.81
424.679	2948.05
424.887	3197.9
425.094	3216.33
425.302	3214.29
425.51	3369.93
425.718	3484.62
425.925	3638.22
426.133	3611.59
426.341	3752.9
426.548	3969.99
426.756	3974.08
426.964	3980.23
427.171	4361.15
427.379	4273.09
427.586	4379.58
427.794	4617.15
428.001	4768.7
428.209	5100.47
428.417	4731.83
428.624	5309.36
428.832	5153.71
429.039	5278.64
429.247	5358.51
429.454	5884.84
429.662	6054.82
429.869	5761.96
430.076	6269.86
430.284	5999.52
430.491	6278.05
430.699	6658.97
430.906	6665.11
431.114	6912.92
431.321	7087
431.528	7173.01
431.736	7463.82
431.943	7760.78
432.15	7553.93
432.358	7736.2
432.565	8047.49
432.772	8297.35
432.979	8549.25
433.187	8813.43
433.394	8801.15
433.601	9360.24
433.808	9323.38
434.016	9196.4
434.223	9544.56
434.43	10249.06
434.637	9960.3
434.844	10599.26
435.052	10802.01
435.259	10711.9
435.466	10943.32
435.673	10718.04
435.88	11326.29
436.087	11993.93
436.294	11924.3
436.501	11791.18
436.708	12077.9
436.915	12448.58
437.122	13069.11
437.329	13194.04
437.537	13370.16
437.743	13521.71
437.95	13339.44
438.157	14312.23
438.364	14791.45
438.571	14684.96
438.778	14748.45
438.985	16010
439.192	15215.38
439.399	16284.42
439.606	15618.83
439.813	16454.4
440.02	17636.08
440.227	17011.45
440.433	17136.38
440.64	17593.08
440.847	17480.44
441.054	17812.21
441.261	19038.94
441.467	18670.31
441.674	18930.4
441.881	19950.29
442.088	19962.58
442.294	19610.32
442.501	20071.12
442.708	20622.02
442.914	21482.17
443.121	22381.23
443.328	21842.61
443.534	23040.67
443.741	22917.79
443.948	22573.74
444.154	23986.83
444.361	23884.44
444.568	23769.75
444.774	23818.9
444.981	23964.31
445.187	24670.86
445.394	25885.3
445.6	25510.52
445.807	27984.47
446.013	26786.41
446.22	27470.43
446.426	28518.99
446.633	28770.89
446.839	29547.07
447.046	28562
447.252	30016.05
447.459	30032.44
447.665	30044.73
447.871	31242.79
448.078	32258.58
448.284	31019.56
448.491	31705.63
448.697	33200.65
448.903	33577.47
449.11	33722.88
449.316	33382.91
449.522	33851.9
449.728	34630.13
449.935	34804.2
450.141	34839.02
450.347	35619.3
450.553	34781.68
450.76	35129.83
450.966	36106.71
451.172	35615.2
451.378	36661.71
451.584	35719.65
451.791	36858.32
451.997	36291.03
452.203	37452.23
452.409	37200.33
452.615	37009.87
452.821	35643.87
453.027	35238.37
453.233	37368.26
453.44	35525.09
453.646	36155.86
453.852	36383.19
454.058	36893.13
454.264	35625.44
454.47	36528.59
454.676	35770.85
454.882	36465.11
455.088	33753.6
455.294	34128.38
455.5	34294.26
455.705	34845.16
455.911	33329.67
456.117	32451.09
456.323	32074.26
456.529	30892.58
456.735	32133.65
456.941	31363.62
457.147	30587.44
457.352	29741.63
457.558	29293.12
457.764	29585.98
457.97	28734.03
458.176	28064.34
458.381	28308.05
458.587	27296.35
458.793	26966.63
458.999	25287.29
459.204	27548.25
459.41	26608.23
459.616	24926.85
459.821	24930.95
460.027	24795.78
460.233	23863.96
460.438	23091.87
460.644	23761.56
460.85	22164.14
461.055	22063.79
461.261	22041.26
461.466	20480.71
461.672	19725.01
461.878	21394.11
462.083	19784.4
462.289	19710.68
462.494	19419.86
462.7	18727.65
462.905	18186.99
463.111	18707.17
463.316	18645.73
463.522	18213.61
463.727	18285.29
463.932	18367.21
464.138	18266.86
464.343	18201.32
464.549	17433.33
464.754	18041.58
464.959	18084.59
465.165	17924.85
465.37	17232.63
465.575	16642.82
465.781	17625.84
465.986	17720.05
466.191	16913.15
466.397	16636.67
466.602	15780.62
466.807	16321.29
467.012	16706.31
467.218	16347.91
467.423	16016.14
467.628	16374.53
467.833	16919.29
468.038	16151.31
468.244	15866.64
468.449	16251.66
468.654	15790.86
468.859	15829.77
469.064	15749.9
469.269	15057.69
469.474	15213.34
469.679	15395.61
469.885	14992.16
470.09	15416.08
470.295	15051.55
470.5	14766.88
470.705	15057.69
470.91	14496.55
471.115	14510.88
471.32	14441.25
471.525	14410.53
471.73	14050.09
471.935	14144.3
472.139	13751.09
472.344	14005.03
472.549	13683.5
472.754	13708.08
472.959	13204.28
473.164	13120.31
473.369	12743.49
473.574	13366.07
473.778	13237.05
473.983	13171.51
474.188	13048.63
474.393	12483.39
474.598	12460.87
474.802	12184.39
475.007	12190.53
475.212	12239.69
475.417	11979.59
475.621	11846.48
475.826	11981.64
476.031	11555.66
476.235	11473.74
476.44	11696.97
476.645	11465.55
476.849	11322.2
477.054	11121.49
477.259	11137.88
477.463	11248.47
477.668	10689.37
477.872	10859.35
478.077	10701.66
478.282	10494.82
478.486	10470.24
478.691	10449.76
478.895	10396.51
479.1	10384.23
479.304	10638.17
479.509	10195.81
479.713	10195.81
479.918	10093.41
480.122	9755.5
480.326	9773.93
480.531	9835.37
480.735	9843.56
480.94	9706.35
481.144	10197.86
481.348	9683.82
481.553	9886.57
481.757	9599.85
481.961	9485.17
482.166	9565.04
482.37	9755.5
482.574	9325.43
482.778	9409.39
482.983	9681.77
483.187	9515.89
483.391	9741.16
483.595	9528.17
483.8	9438.06
484.004	9601.9
484.208	9755.5
484.412	9579.37
484.616	9503.6
484.821	9722.73
485.025	9388.91
485.229	9708.4
485.433	9509.74
485.637	9583.47
485.841	9519.98
486.045	9534.32
486.249	9589.61
486.453	9456.5
486.657	9444.21
486.861	9702.25
487.065	9261.94
487.269	9405.3
487.473	9272.18
487.677	9565.04
487.881	9665.39
488.085	9403.25
488.289	9505.65
488.493	9585.52
488.697	9456.5
488.901	9730.92
489.105	9649
489.309	9843.56
489.512	9737.07
489.716	9745.26
489.92	9610.09
490.124	9665.39
490.328	9847.66
490.531	9823.08
490.735	9874.28
490.939	9954.15
491.143	9800.55
491.346	9954.15
491.55	9988.97
491.754	10011.5
491.958	10105.7
492.161	10265.44
492.365	10140.52
492.569	10181.48
492.772	10091.37
492.976	10296.16
493.18	10189.67
493.383	10433.38
493.587	10392.42
493.79	10611.55
493.994	10431.33
494.197	10552.16
494.401	10789.72
494.605	10548.06
494.808	11002.71
495.012	10926.94
495.215	10941.27
495.419	11148.12
495.622	11023.19
495.825	11203.41
496.029	11254.61
496.232	11539.28
496.436	11490.13
496.639	11887.43
496.843	11637.58
497.046	11914.06
497.249	12102.47
497.453	12170.05
497.656	12180.29
497.859	12346.18
498.063	12350.28
498.266	12714.81
498.469	12833.6
498.673	12862.27
498.876	13267.77
499.079	13235
499.282	13069.11
499.485	13538.1
499.689	13667.12
499.892	13644.59
500.095	14070.57
500.298	14177.06
500.501	14125.86
500.705	14527.27
500.908	14594.85
501.111	14893.85
501.314	15260.44
501.517	15153.94
501.72	15436.56
501.923	15643.41
502.126	15979.28
502.329	16032.52
502.532	16298.76
502.735	15952.65
502.938	16528.13
503.141	16792.32
503.344	16990.97
503.547	17062.65
503.75	17398.52
503.953	17758.96
504.156	17877.74
504.359	17959.66
504.562	18176.75
504.765	18510.57
504.968	18631.4
505.17	18850.53
505.373	19053.28
505.576	19491.54
505.779	19645.14
505.982	19720.92
506.185	19915.47
506.387	20058.83
506.59	20579.01
506.793	20751.04
506.996	21082.81
507.198	21324.47
507.401	21568.18
507.604	21889.71
507.807	22323.88
508.009	22221.48
508.212	22516.39
508.415	22975.14
508.617	23026.34
508.82	23130.78
509.022	23362.2
509.225	23794.32
509.428	24189.58
509.63	24646.28
509.833	24556.17
510.035	25121.41
510.238	25229.95
510.44	25946.74
510.643	26012.28
510.845	26360.43
511.048	25854.58
511.25	26612.33
511.453	26829.41
511.655	27779.67
511.858	27472.48
512.06	27880.02
512.262	28355.15
512.465	28133.97
512.667	28779.08
512.87	29190.72
513.072	29563.45
513.274	30034.49
513.477	30124.6
513.679	30712.36
513.881	30988.84
514.084	30994.98
514.286	31136.29
514.488	31169.06
514.69	32305.68
514.893	32883.21
515.095	32651.79
515.297	33260.04
515.499	33311.24
515.701	33876.48
515.904	34204.15
516.106	34691.57
516.308	35189.22
516.51	35334.63
516.712	35428.84
516.914	35832.29
517.116	36702.67
517.318	36315.61
517.52	36501.97
517.722	36870.61
517.925	37751.23
518.127	38177.21
518.329	38285.75
518.531	38261.18
518.733	39104.94
518.935	39201.19
519.136	39586.21
519.338	40505.75
519.54	40569.24
519.742	40964.49
519.944	40939.92
520.146	41888.13
520.348	42193.28
520.55	42332.54
520.752	42576.25
520.954	43184.49
521.155	43018.61
521.357	43579.75
521.559	44138.85
521.761	44443.99
521.963	44974.42
522.164	44454.23
522.366	45285.71
522.568	45740.36
522.77	45576.52
522.971	46545.21
523.173	46088.51
523.375	46881.08
523.576	46328.13
523.778	47073.59
523.98	47450.41
524.181	47626.54
524.383	48077.09
524.584	48468.25
524.786	48451.87
524.988	48384.29
525.189	48953.62
525.391	49355.02
525.592	49697.03
525.794	49959.17
525.995	49996.04
526.197	50327.81
526.398	50139.39
526.6	50405.63
526.801	50905.34
527.003	50895.1
527.204	51036.41
527.406	51513.58
527.607	51325.17
527.808	51871.98
528.01	51194.1
528.211	51501.29
528.412	52900.06
528.614	52199.65
528.815	52224.23
529.016	53100.76
529.218	52394.21
529.419	52955.35
529.62	52877.53
529.822	52512.99
530.023	53059.8
530.224	53061.85
530.425	53242.07
530.626	53047.51
530.828	52842.71
531.029	53690.57
531.23	53268.69
531.431	53463.25
531.632	53844.17
531.833	54223.04
532.035	53860.55
532.236	54024.39
532.437	54110.41
532.638	54210.76
532.839	54452.42
533.04	54112.45
533.241	54012.1
533.442	54571.2
533.643	54223.04
533.844	54225.09
534.045	54501.57
534.246	54370.5
534.447	54872.25
534.648	54505.66
534.849	54544.58
535.05	54073.54
535.251	54550.72
535.451	54632.64
535.652	54952.12
535.853	54223.04
536.054	54898.87
536.255	55077.05
536.456	54218.95
536.657	55285.94
536.857	54364.35
537.058	54102.21
537.259	54902.97
537.46	54933.69
537.66	54812.86
537.861	55050.42
538.062	54530.24
538.263	55005.37
538.463	54552.77
538.664	54710.46
538.865	54698.17
539.065	55593.14
539.266	54261.96
539.466	54884.54
539.667	54184.13
539.868	54952.12
540.068	54886.59
540.269	54558.91
540.469	54993.08
540.67	54636.73
540.87	54595.77
541.071	54585.54
541.271	55224.5
541.472	54732.99
541.672	54255.81
541.873	54538.43
542.073	54380.74
542.274	55097.53
542.474	54763.71
542.675	54579.39
542.875	55255.22
543.075	54464.7
543.276	54208.71
543.476	54612.16
543.676	54177.99
543.877	55091.38
544.077	54827.2
544.277	54724.8
544.478	54679.74
544.678	54837.44
544.878	54782.14
545.078	54644.93
545.279	54761.66
545.479	54632.64
545.679	54708.41
545.879	54876.35
546.079	54669.5
546.28	54638.78
546.48	53948.62
546.68	54540.48
546.88	54638.78
547.08	54659.26
547.28	54247.62
547.48	54087.88
547.68	54630.59
547.88	54182.09
548.081	54558.91
548.281	54593.73
548.481	54565.06
548.681	54970.55
548.881	54345.92
549.081	54595.77
549.28	54329.54
549.48	54755.52
549.68	54274.24
549.88	54943.93
550.08	54388.93
550.28	54329.54
550.48	54153.41
550.68	54982.84
550.88	54661.31
551.08	54247.62
551.279	54577.34
551.479	54003.91
551.679	54341.83
551.879	54071.49
552.079	54560.96
552.278	53921.99
552.478	54198.47
552.678	54327.49
552.878	54466.75
553.077	53979.34
553.277	53612.75
553.477	54853.82
553.676	53872.84
553.876	54356.16
554.076	54116.55
554.275	53723.34
554.475	53453.01
554.674	54227.14
554.874	53921.99
555.074	53661.9
555.273	54081.73
555.473	54165.7
555.672	53633.23
555.872	53870.79
556.071	53571.79
556.271	53637.33
556.47	53407.95
556.67	53334.23
556.869	53399.76
557.068	53557.45
557.268	53027.03
557.467	53213.4
557.667	53221.59
557.866	53385.43
558.065	53119.19
558.265	52961.5
558.464	52437.22
558.663	53366.99
558.863	52472.03
559.062	53471.44
559.261	52568.29
559.461	53129.43
559.66	52359.39
559.859	52752.6
560.058	52060.39
560.258	52541.66
560.457	52420.83
560.656	52429.02
560.855	52453.6
561.054	52619.49
561.253	51759.34
561.453	51968.23
561.652	51937.51
561.851	52617.44
562.05	52156.64
562.249	51865.83
562.448	52580.57
562.647	51990.76
562.846	51972.33
563.045	52199.65
563.244	51697.9
563.443	52127.97
563.642	51462.38
563.841	51826.92
564.04	51405.04
564.239	51904.74
564.438	51130.61
564.637	52005.09
564.836	51472.62
565.035	51073.27
565.234	51282.16
565.432	51056.88
565.631	50796.79
565.83	51110.13
566.029	50948.34
566.228	50444.54
566.427	50733.31
566.625	50235.65
566.824	50211.07
567.023	51273.97
567.222	50307.33
567.42	50983.16
567.619	50276.61
567.818	50284.8
568.016	50231.55
568.215	50583.8
568.414	49826.06
568.612	50135.3
568.811	49713.42
569.01	49555.72
569.208	49213.71
569.407	49912.07
569.605	49047.83
569.804	49525
570.002	49047.83
570.201	49502.48
570.4	48937.24
570.598	48785.69
570.797	48326.94
570.995	49355.02
571.193	48283.94
571.392	48724.25
571.59	48378.14
571.789	48101.67
571.987	48310.56
572.186	48185.63
572.384	47810.85
572.582	47773.99
572.781	48075.04
572.979	47382.83
573.177	47534.38
573.376	47683.88
573.574	47212.85
573.772	47139.12
573.971	47016.24
574.169	46948.66
574.367	46784.82
574.565	47237.42
574.763	46600.5
574.962	46442.81
575.16	46018.88
575.358	46668.09
575.556	45492.55
575.754	46530.87
575.952	45853
576.151	46027.07
576.349	45650.25
576.547	45529.42
576.745	45820.23
576.943	45820.23
577.141	45367.63
577.339	45197.65
577.537	45142.35
577.735	44904.79
577.933	44853.59
578.131	44896.59
578.329	44390.75
578.527	44511.58
578.725	44536.15
578.923	44452.19
579.121	43993.44
579.319	43925.86
579.516	44382.55
579.714	43835.75
579.912	43708.77
580.11	43790.69
580.308	43864.42
580.506	43497.83
580.704	42979.7
580.901	43188.59
581.099	43438.44
581.297	42996.08
581.495	42733.94
581.692	43049.33
581.89	42557.81
582.088	43006.32
582.285	42086.78
582.483	43188.59
582.681	42410.36
582.878	42041.73
583.076	41892.22
583.274	42410.36
583.471	41728.39
583.669	41718.15
583.866	41613.7
584.064	41675.14
584.262	41400.71
584.459	41576.84
584.657	40847.76
584.854	41795.97
585.052	40931.73
585.249	41095.56
585.447	40927.63
585.644	40255.9
585.841	40370.58
586.039	40714.64
586.236	40034.72
586.434	40239.51
586.631	40173.98
586.828	40411.54
587.026	40133.02
587.223	39817.63
587.42	39535.01
587.618	39991.71
587.815	39479.72
588.012	39092.65
588.21	39113.13
588.407	39704.99
588.604	38752.69
588.801	38887.85
588.999	38990.25
589.196	38857.14
589.393	38599.09
589.59	38502.84
589.787	38390.2
589.984	38455.73
590.182	38144.44
590.379	38265.27
590.576	38209.98
590.773	38066.62
590.97	38033.85
591.167	37839.29
591.364	37468.61
591.561	37659.07
591.758	37503.43
591.955	37175.75
592.152	37601.73
592.349	36995.53
592.546	37272.01
592.743	37181.9
592.94	36551.12
593.137	36837.84
593.334	37034.44
593.531	36411.86
593.727	36858.32
593.924	36413.91
594.121	36123.1
594.318	36362.71
594.515	36020.7
594.712	35971.55
594.908	36092.38
595.105	35957.21
595.302	35500.51
595.499	35656.16
595.696	35549.67
595.892	35426.79
596.089	35469.79
596.286	35422.69
596.482	35275.24
596.679	34793.97
596.876	35295.72
597.072	35152.36
597.269	35070.44
597.466	34697.71
597.662	34472.43
597.859	34714.09
598.055	34095.61
598.252	33995.26
598.448	34265.59
598.645	33890.81
598.841	34093.56
599.038	34238.97
599.234	33911.29
599.431	33497.6
599.627	33546.75
599.824	33585.66
600.02	33387.01
600.217	33415.68
600.413	33143.3
600.609	33143.3
600.806	32553.49
601.002	32762.38
601.198	32578.06
601.395	32320.02
601.591	32436.75
601.787	32555.54
601.984	32360.98
602.18	32666.13
602.376	31980.06
602.572	31658.52
602.769	32043.54
602.965	31535.65
603.161	31894.04
603.357	31685.15
603.553	31355.43
603.75	31689.24
603.946	30970.41
604.142	31035.94
604.338	31117.86
604.534	31535.65
604.73	30900.78
604.926	30841.39
605.122	31035.94
605.318	30407.22
605.514	30368.3
605.71	30671.4
605.906	30511.66
606.102	30315.06
606.298	30226.99
606.494	30063.16
606.69	29962.81
606.886	30038.58
607.082	29540.93
607.278	30020.15
607.474	29622.84
607.67	29549.12
607.866	29121.09
608.062	29860.41
608.257	29338.18
608.453	28877.38
608.649	29323.84
608.845	29137.48
609.041	29073.99
609.236	29006.41
609.432	28889.67
609.628	28576.33
609.824	28783.18
610.019	28518.99
610.215	28600.91
610.411	28443.21
610.606	28025.43
610.802	27877.97
610.998	28185.17
611.193	28052.05
611.389	28158.55
611.584	27947.61
611.78	27916.89
611.976	27632.22
612.171	27650.65
612.367	27607.64
612.562	27327.07
612.758	26921.57
612.953	27560.54
613.149	27767.38
613.344	27155.04
613.539	27316.83
613.735	27026.02
613.93	27341.41
614.126	27128.42
614.321	27296.35
614.517	26946.15
614.712	26907.24
614.907	26675.82
615.103	26727.02
615.298	26468.97
615.493	26888.81
615.688	26325.61
615.884	26710.63
616.079	25981.56
616.274	26255.98
616.47	26284.65
616.665	26327.66
616.86	26102.39
617.055	26262.13
617.25	25956.98
617.445	26251.89
617.641	25313.92
617.836	25870.97
618.031	25516.67
618.226	25576.06
618.421	25623.16
618.616	25545.34
618.811	24980.1
619.006	25717.37
619.201	24414.86
619.396	24988.29
619.591	24523.4
619.786	24777.35
619.981	24353.42
620.176	24873.6
620.371	24138.38
620.566	24550.03
620.761	24081.04
620.956	24400.52
621.151	23921.3
621.346	24122
621.541	23194.27
621.735	23786.13
621.93	23196.32
622.125	23515.8
622.32	22964.9
622.515	23245.47
622.709	23126.69
622.904	22915.75
623.099	22905.51
623.294	22504.1
623.488	22270.64
623.683	22639.27
623.878	21916.34
624.072	22579.88
624.267	22229.68
624.462	21949.11
624.656	21824.18
624.851	21658.29
625.046	21535.42
625.24	21549.75
625.435	21172.92
625.629	21412.54
625.824	21566.13
626.018	20994.75
626.213	20384.46
626.407	20830.91
626.602	20536.01
626.796	20402.89
626.991	20398.79
627.185	20388.55
627.38	20300.49
627.574	20009.68
627.768	19993.29
627.963	19876.56
628.157	19536.6
628.352	19956.43
628.546	19469.01
628.74	19675.86
628.935	19352.28
629.129	19317.47
629.323	19055.33
629.517	19202.78
629.712	19165.92
629.906	18911.97
630.1	18737.89
630.294	18674.4
630.489	18602.72
630.683	18735.84
630.877	18432.74
631.071	18148.08
631.265	18322.15
631.459	18242.28
631.653	18062.06
631.848	18121.45
632.042	17804.02
632.236	18111.21
632.43	17869.55
632.624	17761.01
632.818	17609.46
633.012	17392.37
633.206	17505.01
633.4	17214.2
633.594	16976.64
633.788	17201.91
633.982	17122.04
634.176	17089.28
634.369	16825.09
634.563	16808.7
634.757	16532.23
634.951	16820.99
635.145	16716.54
635.339	16698.11
635.533	16421.64
635.726	16321.29
635.92	16116.49
636.114	16300.81
636.308	15928.08
636.501	16126.73
636.695	15837.97
636.889	15788.82
637.083	15897.36
637.276	15700.75
637.47	15321.88
637.664	15532.82
637.857	15514.39
638.051	15538.96
638.244	15364.89
638.438	15258.39
638.632	14914.33
638.825	15026.97
639.019	14934.81
639.212	14869.28
639.406	14717.73
639.599	14742.3
639.793	14955.29
639.986	14414.63
640.18	14678.82
640.373	14383.91
640.567	14297.89
640.76	14388
640.954	14134.06
641.147	14234.41
641.34	14086.95
641.534	14117.67
641.727	13796.14
641.92	13982.51
642.114	13873.96
642.307	13660.98
642.5	13538.1
642.694	13400.88
642.887	13509.43
643.08	13488.95
643.273	13316.92
643.467	13177.65
643.66	13165.37
643.853	13095.74
644.046	13017.91
644.239	13265.72
644.432	12802.88
644.626	12878.65
644.819	12768.06
645.012	12747.58
645.205	12548.93
645.398	12524.35
645.591	12460.87
645.784	12346.18
645.977	12254.02
646.17	12286.79
646.363	12137.29
646.556	11893.58
646.749	12024.65
646.942	12008.26
647.135	11649.87
647.328	11866.95
647.521	11864.91
647.714	11660.11
647.907	11754.32
648.099	11551.57
648.292	11518.8
648.485	11449.17
648.678	11361.11
648.871	11154.26
649.064	11250.52
649.256	11279.19
649.449	10783.58
649.642	10875.74
649.835	10845.02
650.027	10722.14
650.22	10677.09
650.413	10666.85
650.605	10597.21
650.798	10687.32
650.991	10292.07
651.183	10523.49
651.376	10449.76
651.568	10523.49
651.761	10271.59
651.954	10036.07
652.146	10253.16
652.339	10107.75
652.531	10150.76
652.724	9935.72
652.916	9794.41
653.109	9872.23
653.301	9841.51
653.494	9757.55
653.686	9554.8
653.879	9751.4
654.071	9401.2
654.263	9407.34
654.456	9436.02
654.648	9175.92
654.84	9110.39
655.033	9284.47
655.225	8985.46
655.417	8975.22
655.61	9053.05
655.802	8938.36
655.994	8766.33
656.186	8819.58
656.379	8813.43
656.571	8803.19
656.763	8452.99
656.955	8729.47
657.148	8616.83
657.34	8510.33
657.532	8479.61
657.724	8393.6
657.916	8348.54
658.108	8215.43
658.3	8256.39
658.492	8196.99
658.684	8067.97
658.876	8012.68
659.068	7846.79
659.26	7936.9
659.452	7840.65
659.644	7859.08
659.836	7715.72
660.028	7713.67
660.22	7429.01
660.412	7500.69
660.604	7379.86
660.796	7637.9
660.988	7371.66
661.18	7299.98
661.372	7097.24
661.563	7228.31
661.755	7105.43
661.947	7269.27
662.139	7244.69
662.331	6960.02
662.522	6806.42
662.714	6978.45
662.906	6851.48
663.097	6769.56
663.289	6798.23
663.481	6718.36
663.673	6704.03
663.864	6726.55
664.056	6593.44
664.247	6513.56
664.439	6374.3
664.631	6562.72
664.822	6353.82
665.014	6464.41
665.205	6235.04
665.397	6374.3
665.588	6278.05
665.78	6155.17
665.971	6134.69
666.163	6157.22
666.354	6167.46
666.546	6005.67
666.737	5893.03
666.929	6020
667.12	5895.08
667.311	5917.61
667.503	5813.16
667.694	5786.54
667.885	5700.52
668.077	5667.75
668.268	5708.71
668.459	5800.87
668.651	5596.07
668.842	5807.02
669.033	5608.36
669.224	5673.9
669.416	5589.93
669.607	5495.72
669.798	5342.13
669.989	5542.83
670.18	5366.7
670.371	5540.78
670.563	5260.21
670.754	5217.2
670.945	5465
671.136	5403.57
671.327	5235.63
671.518	5245.87
671.709	5108.66
671.9	5149.62
672.091	5137.33
672.282	5129.14
672.473	4953.01
672.664	5051.31
672.855	5053.36
673.046	4993.97
673.237	4965.3
673.428	4985.78
673.619	4961.2
673.809	4998.07
674	4932.53
674.191	4867
674.382	4795.32
674.573	4840.37
674.764	4633.53
674.954	4678.58
675.145	4699.06
675.336	4623.29
675.527	4637.63
675.717	4731.83
675.908	4602.81
676.099	4619.19
676.289	4467.64
676.48	4574.14
676.671	4467.64
676.861	4449.21
677.052	4445.12
677.243	4484.03
677.433	4518.84
677.624	4443.07
677.814	4332.48
678.005	4422.59
678.195	4346.81
678.386	4424.64
678.576	4260.8
678.767	4391.87
678.957	4291.52
679.148	4338.62
679.338	4293.57
679.529	4236.22
679.719	4299.71
679.909	4391.87
680.1	4338.62
680.29	4297.66
680.481	4273.09
680.671	4326.33
680.861	4211.65
681.052	4250.56
681.242	4125.63
681.432	4242.37
681.622	4103.11
681.813	4058.05
682.003	4000.71
682.193	3931.08
682.383	4078.53
682.573	4211.65
682.764	4191.17
682.954	3945.41
683.144	4068.29
683.334	4029.38
683.524	4004.8
683.714	4154.3
683.904	4090.82
684.094	4010.95
684.284	3982.28
684.474	4015.04
684.664	3963.84
684.854	4035.52
685.044	4084.67
685.234	3810.25
685.424	3947.46
685.614	3949.51
685.804	3834.82
685.994	4010.95
686.184	4092.87
686.374	3818.44
686.564	3769.29
686.753	4000.71
686.943	3867.59
687.133	3783.62
687.323	3904.45
687.513	3902.4
687.702	3769.29
687.892	3890.12
688.082	3789.77
688.272	3863.49
688.461	3804.1
688.651	3865.54
688.841	3744.71
689.03	3800.01
689.22	3810.25
689.41	3697.61
689.599	3791.81
689.789	3816.39
689.979	3711.94
690.168	3668.94
690.358	3595.21
690.547	3685.32
690.737	3863.49
690.926	3865.54
691.116	3685.32
691.305	3683.27
691.495	3666.89
691.684	3675.08
691.874	3765.19
692.063	3621.83
692.252	3689.42
692.442	3775.43
692.631	3773.38
692.82	3591.11
693.01	3703.75
693.199	3656.65
693.388	3603.4
693.578	3609.54
693.767	3791.81
693.956	3789.77
694.146	3683.27
694.335	3806.15
694.524	3564.49
694.713	3804.1
694.902	3636.17
695.092	3650.5
695.281	3511.24
695.47	3728.33
695.659	3556.3
695.848	3449.8
696.037	3642.31
696.226	3582.92
696.415	3554.25
696.604	3560.39
696.793	3593.16
696.982	3584.97
697.171	3619.78
697.36	3580.87
697.549	3627.98
697.738	3582.92
697.927	3621.83
698.116	3615.69
698.305	3660.74
698.494	3611.59
698.683	3521.48
698.872	3539.91
699.061	3496.91
699.25	3611.59
699.438	3597.26
699.627	3482.57
699.816	3400.65
700.005	3609.54
700.193	3513.29
700.382	3431.37
700.571	3548.11
700.76	3341.26
700.948	3517.39
701.137	3515.34
701.326	3480.52
701.514	3388.36
701.703	3447.76
701.892	3285.97
702.08	3333.07
702.269	3308.49
702.457	3283.92
702.646	3406.8
702.834	3310.54
703.023	3269.58
703.212	3351.5
703.4	3382.22
703.589	3267.53
703.777	3320.78
703.965	3232.72
704.154	3185.62
704.342	3185.62
704.531	3232.72
704.719	3158.99
704.907	3161.04
705.096	3197.9
705.284	3234.77
705.472	3202
705.661	3191.76
705.849	3144.66
706.037	3158.99
706.226	3103.7
706.414	3019.73
706.602	3085.26
706.79	3034.07
706.979	3105.74
707.167	3003.35
707.355	3077.07
707.543	2997.2
707.731	2997.2
707.919	2966.48
708.107	2859.99
708.296	2943.96
708.484	2909.14
708.672	3021.78
708.86	3036.11
709.048	3038.16
709.236	3015.63
709.424	2909.14
709.612	2849.75
709.8	2972.63
709.988	2792.41
710.176	2780.12
710.364	2849.75
710.551	2835.41
710.739	2915.28
710.927	2773.97
711.115	2864.08
711.303	2726.87
711.491	2677.72
711.679	2718.68
711.866	2657.24
712.054	2755.54
712.242	2724.82
712.43	2677.72
712.617	2669.53
712.805	2606.04
712.993	2589.66
713.181	2628.57
713.368	2556.89
713.556	2696.15
713.744	2536.41
713.931	2601.94
714.119	2657.24
714.306	2464.73
714.494	2472.92
714.682	2470.87
714.869	2606.04
715.057	2563.03
715.244	2468.83
715.432	2567.13
715.619	2513.88
715.807	2470.87
715.994	2487.26
716.182	2470.87
716.369	2546.65
716.556	2485.21
716.744	2462.68
716.931	2472.92
717.119	2350.04
717.306	2413.53
717.493	2411.48
717.681	2401.24
717.868	2311.13
718.055	2358.24
718.242	2345.95
718.43	2348
718.617	2239.45
718.804	2245.6
718.991	2243.55
719.179	2261.98
719.366	2214.88
719.553	2282.46
719.74	2171.87
719.927	2227.17
720.114	2145.25
720.301	2118.62
720.488	2212.83
720.676	2182.11
720.863	2204.64
721.05	2184.16
721.237	2083.81
721.424	2085.86
721.611	2141.15
721.798	1946.59
721.985	1958.88
722.172	2102.24
722.358	2067.42
722.545	2118.62
722.732	2038.75
722.919	2016.23
723.106	2038.75
723.293	1905.63
723.48	1950.69
723.667	1893.35
723.853	2042.85
724.04	1909.73
724.227	1995.75
724.414	1948.64
724.6	2008.03
724.787	1938.4
724.974	1872.87
725.161	1932.26
725.347	1883.11
725.534	1881.06
725.72	1876.96
725.907	1797.09
726.094	1776.61
726.28	1874.92
726.467	1772.52
726.653	1872.87
726.84	1836
727.027	1948.64
727.213	1760.23
727.4	1819.62
727.586	1838.05
727.773	1723.37
727.959	1780.71
728.145	1829.86
728.332	1731.56
728.518	1682.41
728.705	1770.47
728.891	1676.26
729.077	1725.41
729.264	1639.4
729.45	1651.69
729.636	1725.41
729.823	1637.35
730.009	1645.54
730.195	1596.39
730.382	1674.21
730.568	1612.78
730.754	1678.31
730.94	1563.62
731.126	1686.5
731.313	1563.62
731.499	1518.57
731.685	1629.16
731.871	1643.49
732.057	1706.98
732.243	1461.23
732.429	1504.23
732.615	1612.78
732.801	1610.73
732.987	1530.86
733.173	1629.16
733.359	1596.39
733.545	1522.66
733.731	1489.9
733.917	1426.41
734.103	1446.89
734.289	1442.79
734.475	1504.23
734.661	1506.28
734.847	1483.75
735.033	1459.18
735.219	1506.28
735.404	1393.64
735.59	1381.35
735.776	1475.56
735.962	1381.35
736.148	1422.31
736.333	1444.84
736.519	1283.05
736.705	1364.97
736.89	1352.68
737.076	1389.55
737.262	1377.26
737.447	1317.87
737.633	1340.4
737.819	1543.14
738.004	1346.54
738.19	1326.06
738.375	1348.59
738.561	1326.06
738.747	1358.83
738.932	1315.82
739.118	1383.4
739.303	1197.04
739.489	1297.39
739.674	1268.72
739.859	1309.68
740.045	1264.62
740.23	1276.91
740.416	1229.81
740.601	1276.91
740.786	1217.52
740.972	1324.01
741.157	1176.56
741.342	1332.2
741.528	1162.22
741.713	1285.1
741.898	1192.94
742.084	1256.43
742.269	1176.56
742.454	1219.57
742.639	1233.9
742.824	1068.02
743.01	1145.84
743.195	1151.98
743.38	1094.64
743.565	1201.13
743.75	1217.52
743.935	1209.33
744.12	1262.57
744.305	1072.11
744.49	1113.07
744.675	1063.92
744.86	1065.97
745.045	1129.45
745.23	1033.2
745.415	1018.86
745.6	1092.59
745.785	1033.2
745.97	1092.59
746.155	1074.16
746.34	1018.86
746.525	1061.87
746.71	1020.91
746.895	1025.01
747.079	1051.63
747.264	941.04
747.449	1020.91
747.634	998.38
747.819	1006.58
748.003	988.14
748.188	955.38
748.373	992.24
748.557	945.14
748.742	941.04
748.927	963.57
749.111	990.19
749.296	969.71
749.481	932.85
749.665	982
749.85	967.67
750.034	955.38
750.219	922.61
750.404	912.37
750.588	832.5
750.773	895.99
750.957	975.86
751.141	906.23
751.326	850.93
751.51	924.66
751.695	857.07
751.879	906.23
752.064	938.99
752.248	766.96
752.432	803.83
752.617	807.92
752.801	857.07
752.985	814.07
753.17	885.75
753.354	809.97
753.538	785.4
753.722	766.96
753.907	807.92
754.091	713.72
754.275	826.36
754.459	771.06
754.643	777.2
754.828	732.15
755.012	801.78
755.196	748.53
755.38	799.73
755.564	646.13
755.748	799.73
755.932	756.72
756.116	697.33
756.3	701.43
756.484	762.87
756.668	726
756.852	715.77
757.036	711.67
757.22	683
757.404	683
757.588	734.2
757.772	728.05
757.956	721.91
758.14	736.24
758.323	590.84
758.507	728.05
758.691	543.74
758.875	697.33
759.059	760.82
759.242	666.61
759.426	609.27
759.61	709.62
759.794	703.48
759.977	662.52
760.161	728.05
760.345	619.51
760.528	611.32
760.712	654.33
760.895	652.28
761.079	732.15
761.263	676.85
761.446	580.6
761.63	601.08
761.813	543.74
761.997	646.13
762.18	605.17
762.364	621.56
762.547	631.8
762.731	605.17
762.914	605.17
763.098	529.4
763.281	619.51
763.464	576.5
763.648	523.26
763.831	613.37
764.015	594.93
764.198	562.17
764.381	662.52
764.564	646.13
764.748	621.56
764.931	594.93
765.114	623.61
765.297	547.83
765.481	562.17
765.664	594.93
765.847	592.89
766.03	586.74
766.213	447.48
766.397	510.97
766.58	574.46
766.763	568.31
766.946	498.68
767.129	611.32
767.312	549.88
767.495	584.7
767.678	525.3
767.861	529.4
768.044	510.97
768.227	605.17
768.41	580.6
768.593	572.41
768.776	594.93
768.959	506.87
769.142	596.98
769.324	529.4
769.507	431.1
769.69	517.11
769.873	515.06
770.056	556.02
770.239	551.93
770.421	513.02
770.604	467.96
770.787	504.82
770.97	531.45
771.152	439.29
771.335	556.02
771.518	504.82
771.7	521.21
771.883	527.35
772.066	508.92
772.248	486.39
772.431	480.25
772.613	500.73
772.796	506.87
772.978	484.34
773.161	498.68
773.343	472.06
773.526	517.11
773.708	445.43
773.891	427
774.073	486.39
774.256	515.06
774.438	504.82
774.621	467.96
774.803	480.25
774.985	476.15
775.168	416.76
775.35	447.48
775.532	486.39
775.715	488.44
775.897	441.34
776.079	359.42
776.261	523.26
776.444	418.81
776.626	457.72
776.808	443.39
776.99	345.08
777.173	435.19
777.355	433.15
777.537	490.49
777.719	416.76
777.901	363.51
778.083	433.15
778.265	345.08
778.447	422.91
778.629	336.89
778.811	439.29
778.993	435.19
779.175	396.28
779.357	345.08
779.539	410.62
779.721	357.37
779.903	398.33
780.085	431.1
780.267	398.33
780.449	443.39
780.631	363.51
780.812	388.09
780.994	357.37
781.176	320.51
781.358	377.85
781.54	326.65
781.721	322.56
781.903	416.76
782.085	402.43
782.267	326.65
782.448	334.84
782.63	336.89
782.812	300.03
782.993	314.36
783.175	322.56
783.357	330.75
783.538	295.93
783.72	279.55
783.901	289.79
784.083	338.94
784.264	383.99
784.446	248.83
784.627	265.21
784.809	326.65
784.99	300.03
785.172	343.03
785.353	347.13
785.535	340.99
785.716	285.69
785.897	289.79
786.079	302.08
786.26	293.88
786.441	308.22
786.623	287.74
786.804	283.64
786.985	291.84
787.167	314.36
787.348	343.03
787.529	187.39
787.71	248.83
787.891	263.16
788.073	234.49
788.254	220.16
788.435	250.88
788.616	293.88
788.797	322.56
788.978	236.54
789.159	291.84
789.34	240.64
789.522	257.02
789.703	250.88
789.884	181.25
790.065	230.4
790.246	261.12
790.427	214.01
790.607	310.27
790.788	226.3
790.969	181.25
791.15	189.44
791.331	216.06
791.512	244.73
791.693	183.29
791.874	187.39
792.054	214.01
792.235	257.02
792.416	224.25
792.597	263.16
792.778	193.53
792.958	240.64
793.139	207.87
793.32	287.74
793.5	199.68
793.681	250.88
793.862	177.15
794.042	226.3
794.223	209.92
794.404	187.39
794.584	250.88
794.765	171.01
794.945	209.92
795.126	193.53
795.306	201.72
795.487	228.35
795.667	193.53
795.848	201.72
796.028	171.01
796.209	236.54
796.389	218.11
796.57	146.43
796.75	201.72
796.93	185.34
797.111	156.67
797.291	185.34
797.471	144.38
797.652	154.62
797.832	218.11
798.012	132.09
798.192	179.2
798.373	218.11
798.553	132.09
798.733	187.39
798.913	177.15
799.093	171.01
799.274	205.82
799.454	216.06
799.634	193.53
799.814	193.53
799.994	115.71
800.174	150.53
800.354	121.85
800.534	185.34
800.714	115.71
800.894	144.38
801.074	140.29
801.254	191.49
801.434	158.72
801.614	171.01
801.794	197.63
801.974	369.66
802.154	181.25
802.334	144.38
802.514	99.33
802.693	181.25
802.873	84.99
803.053	177.15
803.233	68.61
803.413	72.7
803.592	138.24
803.772	44.03
803.952	123.9
804.131	66.56
804.311	140.29
804.491	171.01
804.67	130.05
804.85	177.15
805.03	146.43
805.209	119.81
805.389	142.33
805.568	99.33
805.748	91.13
805.928	144.38
806.107	41.98
806.287	95.23
806.466	138.24
806.646	119.81
806.825	87.04
807.004	125.95
807.184	68.61
807.363	152.57
807.543	113.66
807.722	152.57
807.901	111.61
808.081	136.19
808.26	74.75
808.439	101.37
808.619	117.76
808.798	156.67
808.977	56.32
809.156	130.05
809.336	160.77
809.515	177.15
809.694	82.94
809.873	156.67
810.052	146.43
810.231	142.33
810.411	97.28
810.59	148.48
810.769	128
810.948	140.29
811.127	46.08
811.306	142.33
811.485	87.04
811.664	70.65
811.843	52.22
812.022	119.81
812.201	68.61
812.38	140.29
812.559	121.85
812.737	154.62
812.916	95.23
813.095	87.04
813.274	82.94
813.453	136.19
813.632	150.53
813.811	97.28
813.989	68.61
814.168	115.71
814.347	33.79
814.526	113.66
814.704	107.52
814.883	156.67
815.062	78.85
815.24	91.13
815.419	50.18
815.598	27.65
815.776	29.7
815.955	37.89
816.133	93.18
816.312	130.05
816.49	48.13
816.669	64.51
816.847	78.85
817.026	68.61
817.204	87.04
817.383	78.85
817.561	58.37
817.74	68.61
817.918	50.18
818.097	58.37
818.275	48.13
818.453	121.85
818.632	103.42
818.81	123.9
818.988	78.85
819.167	138.24
819.345	111.61
819.523	54.27
819.701	89.09
819.879	48.13
820.058	60.42
820.236	54.27
820.414	-17.41
820.592	103.42
820.77	46.08
820.948	91.13
821.127	66.56
821.305	64.51
821.483	62.46
821.661	66.56
821.839	76.8
822.017	111.61
822.195	46.08
822.373	78.85
822.551	95.23
822.729	62.46
822.907	70.65
823.085	109.57
823.262	-13.31
823.44	146.43
823.618	103.42
823.796	-39.94
823.974	31.74
824.152	91.13
824.329	21.5
824.507	78.85
824.685	117.76
824.863	87.04
825.04	29.7
825.218	29.7
825.396	27.65
825.574	130.05
825.751	56.32
825.929	128
826.107	58.37
826.284	7.17
826.462	78.85
826.639	62.46
826.817	-5.12
826.994	103.42
827.172	54.27
827.349	29.7
827.527	82.94
827.704	54.27
827.882	66.56
828.059	60.42
828.237	50.18
828.414	46.08
828.591	105.47
828.769	56.32
828.946	60.42
829.124	33.79
829.301	31.74
829.478	52.22
829.655	76.8
829.833	64.51
830.01	54.27
830.187	56.32
830.364	89.09
830.542	68.61
830.719	80.89
830.896	31.74
831.073	62.46
831.25	39.94
831.427	68.61
831.604	39.94
831.782	35.84
831.959	1.02
832.136	15.36
832.313	31.74
832.49	46.08
832.667	21.5
832.844	80.89
833.021	62.46
833.198	11.26
833.374	60.42
833.551	105.47
833.728	84.99
833.905	33.79
834.082	46.08
834.259	15.36
834.436	99.33
834.612	-21.5
834.789	17.41
834.966	50.18
835.143	29.7
835.319	128
835.496	80.89
835.673	-35.84
835.85	21.5
836.026	29.7
836.203	80.89
836.38	64.51
836.556	58.37
836.733	15.36
836.909	44.03
837.086	50.18
837.262	23.55
837.439	41.98
837.616	21.5
837.792	31.74
837.968	37.89
838.145	23.55
838.321	25.6
838.498	46.08
838.674	21.5
838.851	1.02
839.027	-13.31
839.203	52.22
839.38	78.85
839.556	-7.17
839.732	9.22
839.909	-15.36
840.085	-60.42
840.261	54.27
840.437	-1.02
840.614	70.65
840.79	33.79
840.966	50.18
841.142	76.8
841.318	19.46
841.494	46.08
841.671	70.65
841.847	66.56
842.023	1.02
842.199	97.28
842.375	9.22
842.551	56.32
842.727	29.7
842.903	25.6
843.079	17.41
843.255	119.81
843.431	27.65
843.607	66.56
843.783	-25.6
843.959	29.7
844.134	84.99
844.31	56.32
844.486	54.27
844.662	21.5
844.838	-41.98
845.013	48.13
845.189	125.95
845.365	29.7
845.541	50.18
845.716	-3.07
845.892	21.5
846.068	54.27
846.244	52.22
846.419	29.7
846.595	58.37
846.77	50.18
846.946	68.61
847.122	-3.07
847.297	56.32
847.473	50.18
847.648	15.36
847.824	50.18
847.999	46.08
848.175	-13.31
848.35	13.31
848.526	111.61
848.701	23.55
848.876	37.89
849.052	-87.04
849.227	37.89
849.403	-41.98
849.578	-5.12
849.753	15.36
849.929	15.36
850.104	23.55
850.279	-33.79
850.454	78.85
850.63	41.98
850.805	50.18
850.98	31.74
851.155	-7.17
851.33	9.22
851.505	-19.46
851.681	62.46
851.856	-76.8
852.031	33.79
852.206	23.55
852.381	46.08
852.556	1.02
852.731	62.46
852.906	58.37
853.081	-31.74
853.256	52.22
853.431	78.85
853.606	-7.17
853.781	1.02
853.956	70.65
854.131	41.98
854.305	70.65
854.48	-78.85
854.655	78.85
854.83	29.7
855.005	109.57
855.18	41.98
855.354	23.55
855.529	-9.22
855.704	52.22
855.879	29.7
856.053	-37.89
856.228	21.5
856.403	-3.07
856.577	-37.89
856.752	44.03
856.926	-5.12
857.101	-89.09
857.276	7.17
857.45	15.36
857.625	29.7
857.799	-56.32
857.974	29.7
858.148	17.41
858.323	64.51
858.497	58.37
858.672	23.55
858.846	60.42
859.02	41.98
859.195	-9.22
859.369	-33.79
859.543	35.84
859.718	-7.17
859.892	21.5
860.066	-15.36
860.241	-5.12
860.415	-3.07
860.589	-25.6
860.763	-19.46
860.938	-25.6
861.112	-31.74
861.286	5.12
861.46	-31.74
861.634	-64.51
861.808	48.13
861.982	-25.6
862.157	56.32
862.331	44.03
862.505	-3.07
862.679	-15.36
862.853	-11.26
863.027	48.13
863.201	19.46
863.375	-39.94
863.549	-93.18
863.722	46.08
863.896	17.41
864.07	29.7
864.244	-56.32
864.418	11.26
864.592	13.31
864.766	-11.26
864.939	72.7
865.113	89.09
865.287	21.5
865.461	37.89
865.634	41.98
865.808	66.56
865.982	21.5
866.156	-29.7
866.329	27.65
866.503	54.27
866.676	60.42
866.85	17.41
867.024	-3.07
867.197	54.27
867.371	35.84
867.544	-39.94
867.718	-13.31
867.891	-19.46
868.065	21.5
868.238	-25.6
868.412	7.17
868.585	39.94
868.759	9.22
868.932	-17.41
869.105	-3.07
869.279	-25.6
869.452	29.7
869.625	-70.65
869.799	-15.36
869.972	-56.32
870.145	41.98
870.319	-64.51
870.492	48.13
870.665	-84.99
870.838	-31.74
871.011	-17.41
871.185	72.7
871.358	23.55
871.531	35.84
871.704	-41.98
871.877	21.5
872.05	-5.12
872.223	-11.26
872.396	3.07
872.569	48.13
872.742	-17.41
872.915	-1.02
873.088	29.7
873.261	-29.7
873.434	-29.7
873.607	37.89
873.78	46.08
873.953	11.26
874.126	-7.17
874.299	-27.65
874.471	-27.65
874.644	29.7
874.817	-3.07
874.99	39.94
875.163	-66.56
875.335	9.22
875.508	-1.02
875.681	19.46
875.853	58.37
876.026	-74.75
876.199	-25.6
876.371	-3.07
876.544	7.17
876.717	17.41
876.889	-27.65
877.062	21.5
877.234	-29.7
877.407	-35.84
877.579	-25.6
877.752	29.7
877.924	-11.26
878.097	29.7
878.269	-29.7
878.442	-19.46
878.614	80.89
878.786	13.31
878.959	15.36
879.131	46.08
879.303	-5.12
879.476	13.31
879.648	-23.55
879.82	21.5
879.993	35.84
880.165	37.89
880.337	5.12
880.509	13.31
880.681	11.26
880.854	27.65
881.026	15.36
881.198	-31.74
881.37	-13.31
881.542	35.84
881.714	-52.22
881.886	7.17
882.058	-17.41
882.23	29.7
882.402	17.41
882.574	144.38
882.746	9.22
882.918	52.22
883.09	29.7
883.262	-21.5
883.434	-39.94
883.606	-25.6
883.778	-21.5
883.95	23.55
884.122	54.27
884.293	-39.94
884.465	7.17
884.637	-9.22
884.809	-3.07
884.98	7.17
885.152	-15.36
885.324	-37.89
885.496	-15.36
885.667	29.7
885.839	-17.41
886.011	1.02
886.182	44.03
886.354	23.55
886.525	17.41
886.697	5.12
886.869	9.22
887.04	64.51
887.212	-17.41
887.383	7.17
887.555	-11.26
887.726	19.46
887.897	-46.08
888.069	23.55
888.24	7.17
888.412	5.12
888.583	-31.74
888.754	-66.56
888.926	-97.28
889.097	7.17
889.268	-46.08
889.44	-19.46
889.611	-23.55
889.782	76.8
889.953	-23.55
890.125	78.85
890.296	-15.36
890.467	46.08
890.638	-31.74
890.809	-3.07
890.98	25.6
891.151	11.26
891.323	-11.26
891.494	33.79
891.665	-23.55
891.836	35.84
892.007	-11.26
892.178	11.26
892.349	-44.03
892.52	-44.03
892.691	21.5
892.862	5.12
893.032	-91.13
893.203	58.37
893.374	-76.8
893.545	19.46
893.716	-23.55
893.887	60.42
894.057	21.5
894.228	-27.65
894.399	-33.79
894.57	-33.79
894.74	54.27
894.911	23.55
895.082	48.13
895.253	-3.07
895.423	15.36
895.594	37.89
895.764	-3.07
895.935	7.17
896.106	-1.02
896.276	-27.65
896.447	-3.07
896.617	-44.03
896.788	50.18
896.958	17.41
897.129	-27.65
897.299	-68.61
897.47	5.12
897.64	-46.08
897.81	-5.12
897.981	-35.84
898.151	5.12
898.322	-35.84
898.492	-35.84
898.662	56.32
898.832	1.02
899.003	48.13
899.173	-56.32
899.343	-27.65
899.513	-23.55
