Data from USB4F104151__83__13-54-23-751.txt Node

Date: Thu Mar 13 13:54:23 EDT 2025
User: louis
Spectrometer: USB4F10415
Trigger mode: 4
Integration Time (sec): 1.000000E-2
Scans to average: 1
Electric dark correction enabled: true
Nonlinearity correction enabled: false
Boxcar width: 0
XAxis mode: Wavelengths
Number of Pixels in Spectrum: 3648
>>>>>Begin Spectral Data<<<<<
178.204	-9.39
178.424	-9.39
178.644	-9.39
178.864	-13.48
179.084	-27.82
179.304	23.38
179.524	-33.96
179.744	15.19
179.964	82.77
180.184	-48.3
180.404	4.95
180.624	-17.58
180.844	39.76
181.064	-76.97
181.283	-38.06
181.503	23.38
181.723	25.43
181.943	-7.34
182.163	-17.58
182.383	13.14
182.602	72.53
182.822	74.58
183.042	72.53
183.262	13.14
183.482	76.63
183.701	-40.11
183.921	-3.24
184.141	2.9
184.361	45.91
184.58	54.1
184.8	-7.34
185.02	45.91
185.239	66.39
185.459	-1.19
185.679	33.62
185.898	58.2
186.118	27.48
186.338	-62.63
186.557	7
186.777	-9.39
186.997	19.29
187.216	-13.48
187.436	21.33
187.655	39.76
187.875	-9.39
188.095	-5.29
188.314	-15.53
188.534	58.2
188.753	47.96
188.973	21.33
189.192	93.01
189.412	76.63
189.631	56.15
189.851	23.38
190.07	23.38
190.29	29.52
190.509	60.24
190.729	-25.77
190.948	35.67
191.168	-19.63
191.387	60.24
191.607	64.34
191.826	21.33
192.045	-15.53
192.265	27.48
192.484	-25.77
192.704	39.76
192.923	25.43
193.142	88.92
193.362	4.95
193.581	27.48
193.8	72.53
194.02	50
194.239	-3.24
194.458	19.29
194.678	33.62
194.897	-42.15
195.116	0.85
195.335	23.38
195.555	33.62
195.774	43.86
195.993	66.39
196.212	13.14
196.432	15.19
196.651	-54.44
196.87	0.85
197.089	-31.91
197.308	-9.39
197.528	-11.43
197.747	-56.49
197.966	17.24
198.185	66.39
198.404	29.52
198.623	50
198.842	29.52
199.062	0.85
199.281	-11.43
199.5	45.91
199.719	-31.91
199.938	9.05
200.157	25.43
200.376	-17.58
200.595	19.29
200.814	62.29
201.033	2.9
201.252	90.96
201.471	47.96
201.69	11.09
201.909	66.39
202.128	19.29
202.347	97.11
202.566	-13.48
202.785	-15.53
203.004	11.09
203.223	58.2
203.442	-15.53
203.661	-40.11
203.879	86.87
204.098	64.34
204.317	15.19
204.536	-11.43
204.755	-21.67
204.974	19.29
205.193	-23.72
205.411	27.48
205.63	-5.29
205.849	45.91
206.068	11.09
206.287	39.76
206.505	50
206.724	7
206.943	33.62
207.162	62.29
207.381	31.57
207.599	-74.92
207.818	99.16
208.037	-15.53
208.255	9.05
208.474	54.1
208.693	-3.24
208.911	80.72
209.13	41.81
209.349	9.05
209.567	21.33
209.786	74.58
210.005	62.29
210.223	54.1
210.442	37.72
210.661	35.67
210.879	-46.25
211.098	68.44
211.316	29.52
211.535	15.19
211.753	9.05
211.972	90.96
212.191	4.95
212.409	35.67
212.628	-13.48
212.846	7
213.065	-15.53
213.283	41.81
213.502	17.24
213.72	86.87
213.938	58.2
214.157	-33.96
214.375	45.91
214.594	4.95
214.812	11.09
215.031	25.43
215.249	-56.49
215.467	47.96
215.686	29.52
215.904	115.54
216.122	43.86
216.341	21.33
216.559	17.24
216.778	54.1
216.996	35.67
217.214	35.67
217.432	25.43
217.651	80.72
217.869	15.19
218.087	13.14
218.306	9.05
218.524	-11.43
218.742	-1.19
218.96	37.72
219.179	37.72
219.397	23.38
219.615	39.76
219.833	50
220.051	50
220.27	76.63
220.488	60.24
220.706	-9.39
220.924	35.67
221.142	11.09
221.36	37.72
221.578	80.72
221.796	0.85
222.015	97.11
222.233	95.06
222.451	7
222.669	35.67
222.887	-5.29
223.105	-13.48
223.323	29.52
223.541	-13.48
223.759	35.67
223.977	54.1
224.195	0.85
224.413	23.38
224.631	35.67
224.849	-81.07
225.067	66.39
225.285	19.29
225.503	41.81
225.721	4.95
225.939	4.95
226.157	41.81
226.375	52.05
226.592	11.09
226.81	58.2
227.028	60.24
227.246	74.58
227.464	-15.53
227.682	31.57
227.9	-13.48
228.117	43.86
228.335	82.77
228.553	33.62
228.771	23.38
228.989	17.24
229.206	-7.34
229.424	7
229.642	17.24
229.86	21.33
230.077	4.95
230.295	-5.29
230.513	39.76
230.731	23.38
230.948	2.9
231.166	33.62
231.384	-3.24
231.601	31.57
231.819	33.62
232.037	47.96
232.254	11.09
232.472	29.52
232.689	-66.73
232.907	-19.63
233.125	-11.43
233.342	107.35
233.56	39.76
233.777	31.57
233.995	-50.35
234.213	13.14
234.43	54.1
234.648	97.11
234.865	7
235.083	31.57
235.3	62.29
235.518	43.86
235.735	-9.39
235.953	-27.82
236.17	21.33
236.388	56.15
236.605	-19.63
236.822	119.64
237.04	29.52
237.257	47.96
237.475	-7.34
237.692	41.81
237.909	39.76
238.127	47.96
238.344	86.87
238.562	72.53
238.779	-29.87
238.996	15.19
239.214	2.9
239.431	-19.63
239.648	-72.87
239.865	-50.35
240.083	-11.43
240.3	-40.11
240.517	-1.19
240.735	97.11
240.952	-25.77
241.169	15.19
241.386	70.48
241.603	58.2
241.821	27.48
242.038	25.43
242.255	4.95
242.472	35.67
242.689	0.85
242.907	56.15
243.124	72.53
243.341	-56.49
243.558	21.33
243.775	-23.72
243.992	7
244.209	-1.19
244.426	7
244.643	74.58
244.86	41.81
245.078	-13.48
245.295	119.64
245.512	13.14
245.729	60.24
245.946	13.14
246.163	35.67
246.38	45.91
246.597	50
246.814	50
247.031	29.52
247.248	52.05
247.464	27.48
247.681	13.14
247.898	-44.2
248.115	52.05
248.332	0.85
248.549	-31.91
248.766	15.19
248.983	27.48
249.2	52.05
249.417	-56.49
249.633	43.86
249.85	-3.24
250.067	39.76
250.284	-83.11
250.501	11.09
250.717	-15.53
250.934	11.09
251.151	-3.24
251.368	64.34
251.585	-19.63
251.801	-40.11
252.018	93.01
252.235	-21.67
252.451	4.95
252.668	23.38
252.885	35.67
253.102	11.09
253.318	9.05
253.535	76.63
253.752	17.24
253.968	64.34
254.185	13.14
254.401	41.81
254.618	-9.39
254.835	56.15
255.051	9.05
255.268	-46.25
255.484	68.44
255.701	15.19
255.917	-36.01
256.134	64.34
256.351	19.29
256.567	0.85
256.784	-38.06
257	-66.73
257.217	-1.19
257.433	-1.19
257.65	-44.2
257.866	9.05
258.082	56.15
258.299	21.33
258.515	35.67
258.732	45.91
258.948	-1.19
259.165	-21.67
259.381	50
259.597	-72.87
259.814	148.31
260.03	4.95
260.246	21.33
260.463	-19.63
260.679	68.44
260.895	4.95
261.112	21.33
261.328	4.95
261.544	-13.48
261.761	50
261.977	-1.19
262.193	4.95
262.409	47.96
262.626	72.53
262.842	39.76
263.058	33.62
263.274	54.1
263.49	60.24
263.707	52.05
263.923	25.43
264.139	27.48
264.355	25.43
264.571	25.43
264.787	-15.53
265.004	66.39
265.22	-5.29
265.436	27.48
265.652	21.33
265.868	33.62
266.084	-21.67
266.3	-68.78
266.516	41.81
266.732	19.29
266.948	37.72
267.164	52.05
267.38	-11.43
267.596	95.06
267.812	90.96
268.028	54.1
268.244	-9.39
268.46	-9.39
268.676	29.52
268.892	84.82
269.108	15.19
269.324	129.88
269.54	-27.82
269.756	25.43
269.972	11.09
270.188	4.95
270.403	-17.58
270.619	-17.58
270.835	-27.82
271.051	19.29
271.267	66.39
271.483	4.95
271.698	27.48
271.914	-3.24
272.13	52.05
272.346	90.96
272.562	-52.39
272.777	64.34
272.993	-7.34
273.209	-29.87
273.425	7
273.64	-46.25
273.856	56.15
274.072	23.38
274.287	13.14
274.503	43.86
274.719	-25.77
274.934	7
275.15	-38.06
275.366	-36.01
275.581	17.24
275.797	78.68
276.012	-3.24
276.228	17.24
276.444	23.38
276.659	56.15
276.875	15.19
277.09	29.52
277.306	-23.72
277.521	82.77
277.737	41.81
277.952	15.19
278.168	78.68
278.383	64.34
278.599	21.33
278.814	-5.29
279.03	62.29
279.245	17.24
279.461	-38.06
279.676	74.58
279.892	7
280.107	86.87
280.322	58.2
280.538	56.15
280.753	-7.34
280.969	29.52
281.184	66.39
281.399	56.15
281.615	101.2
281.83	45.91
282.045	-19.63
282.26	54.1
282.476	7
282.691	-5.29
282.906	11.09
283.122	7
283.337	39.76
283.552	11.09
283.767	52.05
283.983	11.09
284.198	39.76
284.413	0.85
284.628	-25.77
284.843	19.29
285.058	-29.87
285.274	39.76
285.489	-38.06
285.704	-1.19
285.919	2.9
286.134	11.09
286.349	37.72
286.564	25.43
286.779	80.72
286.995	39.76
287.21	50
287.425	52.05
287.64	129.88
287.855	-3.24
288.07	27.48
288.285	56.15
288.5	35.67
288.715	41.81
288.93	13.14
289.145	35.67
289.36	66.39
289.575	-1.19
289.79	95.06
290.004	7
290.219	-3.24
290.434	78.68
290.649	-36.01
290.864	27.48
291.079	74.58
291.294	-25.77
291.509	-15.53
291.724	-9.39
291.938	13.14
292.153	4.95
292.368	-17.58
292.583	62.29
292.798	60.24
293.012	80.72
293.227	13.14
293.442	25.43
293.657	99.16
293.871	7
294.086	80.72
294.301	-3.24
294.516	4.95
294.73	17.24
294.945	52.05
295.16	66.39
295.374	0.85
295.589	78.68
295.804	13.14
296.018	47.96
296.233	2.9
296.447	17.24
296.662	37.72
296.877	52.05
297.091	-33.96
297.306	21.33
297.52	11.09
297.735	-19.63
297.949	-17.58
298.164	25.43
298.378	56.15
298.593	54.1
298.807	31.57
299.022	-7.34
299.236	80.72
299.451	-46.25
299.665	17.24
299.88	-60.59
300.094	17.24
300.309	-29.87
300.523	37.72
300.737	52.05
300.952	-29.87
301.166	58.2
301.381	-56.49
301.595	107.35
301.809	33.62
302.024	7
302.238	56.15
302.452	19.29
302.667	-9.39
302.881	21.33
303.095	4.95
303.309	15.19
303.524	4.95
303.738	-25.77
303.952	-5.29
304.166	-17.58
304.381	-66.73
304.595	82.77
304.809	60.24
305.023	50
305.237	-36.01
305.452	27.48
305.666	17.24
305.88	56.15
306.094	11.09
306.308	2.9
306.522	35.67
306.736	23.38
306.95	2.9
307.164	52.05
307.379	39.76
307.593	37.72
307.807	-17.58
308.021	80.72
308.235	25.43
308.449	-3.24
308.663	47.96
308.877	33.62
309.091	31.57
309.305	-9.39
309.519	-48.3
309.733	27.48
309.947	13.14
310.161	29.52
310.374	15.19
310.588	56.15
310.802	-19.63
311.016	-9.39
311.23	-25.77
311.444	-19.63
311.658	13.14
311.872	29.52
312.085	31.57
312.299	0.85
312.513	31.57
312.727	78.68
312.941	27.48
313.154	13.14
313.368	43.86
313.582	31.57
313.796	47.96
314.009	9.05
314.223	-1.19
314.437	70.48
314.651	-31.91
314.864	4.95
315.078	41.81
315.292	19.29
315.505	0.85
315.719	86.87
315.933	52.05
316.146	0.85
316.36	66.39
316.573	-7.34
316.787	4.95
317.001	66.39
317.214	35.67
317.428	39.76
317.641	-29.87
317.855	105.3
318.068	56.15
318.282	39.76
318.495	-21.67
318.709	95.06
318.922	17.24
319.136	45.91
319.349	37.72
319.563	33.62
319.776	70.48
319.99	-9.39
320.203	-21.67
320.417	35.67
320.63	37.72
320.843	35.67
321.057	-3.24
321.27	17.24
321.483	23.38
321.697	21.33
321.91	33.62
322.124	35.67
322.337	-54.44
322.55	41.81
322.763	27.48
322.977	-17.58
323.19	23.38
323.403	-15.53
323.617	60.24
323.83	-3.24
324.043	13.14
324.256	-9.39
324.469	33.62
324.683	56.15
324.896	-27.82
325.109	-52.39
325.322	-13.48
325.535	17.24
325.748	93.01
325.962	-58.54
326.175	50
326.388	19.29
326.601	-13.48
326.814	50
327.027	15.19
327.24	-17.58
327.453	2.9
327.666	41.81
327.879	-9.39
328.092	41.81
328.305	13.14
328.518	37.72
328.731	33.62
328.944	45.91
329.157	45.91
329.37	9.05
329.583	21.33
329.796	-9.39
330.009	-44.2
330.222	33.62
330.435	25.43
330.648	29.52
330.861	0.85
331.073	33.62
331.286	-50.35
331.499	19.29
331.712	19.29
331.925	-1.19
332.138	95.06
332.35	80.72
332.563	60.24
332.776	101.2
332.989	43.86
333.202	21.33
333.414	76.63
333.627	68.44
333.84	-13.48
334.053	21.33
334.265	54.1
334.478	50
334.691	29.52
334.903	-15.53
335.116	56.15
335.329	-15.53
335.541	45.91
335.754	90.96
335.966	54.1
336.179	62.29
336.392	86.87
336.604	29.52
336.817	35.67
337.029	-50.35
337.242	-50.35
337.454	13.14
337.667	43.86
337.88	70.48
338.092	11.09
338.305	43.86
338.517	-23.72
338.729	68.44
338.942	9.05
339.154	62.29
339.367	41.81
339.579	13.14
339.792	-15.53
340.004	-23.72
340.217	27.48
340.429	29.52
340.641	17.24
340.854	-1.19
341.066	64.34
341.278	2.9
341.491	23.38
341.703	31.57
341.915	17.24
342.128	45.91
342.34	107.35
342.552	160.59
342.764	41.81
342.977	4.95
343.189	2.9
343.401	56.15
343.613	103.25
343.826	-1.19
344.038	-13.48
344.25	21.33
344.462	11.09
344.674	99.16
344.886	-23.72
345.099	11.09
345.311	-9.39
345.523	62.29
345.735	72.53
345.947	105.3
346.159	17.24
346.371	-31.91
346.583	58.2
346.795	64.34
347.007	-15.53
347.219	21.33
347.431	25.43
347.643	62.29
347.855	31.57
348.067	-11.43
348.279	29.52
348.491	19.29
348.703	39.76
348.915	35.67
349.127	43.86
349.339	62.29
349.551	41.81
349.763	74.58
349.975	-58.54
350.187	-5.29
350.399	50
350.61	95.06
350.822	25.43
351.034	11.09
351.246	19.29
351.458	52.05
351.669	29.52
351.881	13.14
352.093	-19.63
352.305	41.81
352.517	54.1
352.728	23.38
352.94	15.19
353.152	39.76
353.363	25.43
353.575	-25.77
353.787	62.29
353.999	60.24
354.21	-11.43
354.422	97.11
354.633	78.68
354.845	90.96
355.057	15.19
355.268	-17.58
355.48	-29.87
355.692	25.43
355.903	54.1
356.115	13.14
356.326	-46.25
356.538	93.01
356.749	27.48
356.961	68.44
357.172	-91.31
357.384	-7.34
357.595	58.2
357.807	-9.39
358.018	-54.44
358.23	90.96
358.441	70.48
358.653	-19.63
358.864	15.19
359.075	43.86
359.287	35.67
359.498	11.09
359.709	80.72
359.921	45.91
360.132	13.14
360.344	7
360.555	43.86
360.766	52.05
360.977	15.19
361.189	64.34
361.4	-3.24
361.611	47.96
361.823	64.34
362.034	50
362.245	50
362.456	17.24
362.667	54.1
362.879	56.15
363.09	43.86
363.301	64.34
363.512	-36.01
363.723	11.09
363.935	152.4
364.146	41.81
364.357	-40.11
364.568	13.14
364.779	41.81
364.99	39.76
365.201	33.62
365.412	82.77
365.623	-33.96
365.834	25.43
366.045	4.95
366.256	72.53
366.467	56.15
366.678	33.62
366.889	-11.43
367.1	19.29
367.311	-31.91
367.522	21.33
367.733	2.9
367.944	56.15
368.155	0.85
368.366	11.09
368.577	-40.11
368.788	76.63
368.999	33.62
369.209	13.14
369.42	25.43
369.631	47.96
369.842	35.67
370.053	-21.67
370.264	52.05
370.474	-19.63
370.685	-13.48
370.896	21.33
371.107	-1.19
371.317	35.67
371.528	39.76
371.739	76.63
371.95	11.09
372.16	23.38
372.371	74.58
372.582	90.96
372.792	47.96
373.003	50
373.214	-11.43
373.424	50
373.635	-25.77
373.846	-21.67
374.056	-27.82
374.267	41.81
374.477	97.11
374.688	-29.87
374.898	39.76
375.109	-19.63
375.319	78.68
375.53	-21.67
375.74	72.53
375.951	41.81
376.161	17.24
376.372	-1.19
376.582	39.76
376.793	37.72
377.003	64.34
377.214	19.29
377.424	2.9
377.635	97.11
377.845	-27.82
378.055	33.62
378.266	27.48
378.476	15.19
378.686	62.29
378.897	84.82
379.107	25.43
379.317	21.33
379.528	-17.58
379.738	56.15
379.948	66.39
380.158	66.39
380.369	2.9
380.579	88.92
380.789	68.44
380.999	-23.72
381.21	60.24
381.42	68.44
381.63	-1.19
381.84	15.19
382.05	17.24
382.261	70.48
382.471	31.57
382.681	35.67
382.891	50
383.101	80.72
383.311	-46.25
383.521	47.96
383.731	23.38
383.941	66.39
384.151	9.05
384.361	17.24
384.571	97.11
384.781	27.48
384.991	15.19
385.201	74.58
385.411	7
385.621	50
385.831	76.63
386.041	60.24
386.251	56.15
386.461	88.92
386.671	37.72
386.881	78.68
387.091	-33.96
387.301	70.48
387.511	15.19
387.72	-5.29
387.93	95.06
388.14	-7.34
388.35	107.35
388.56	113.49
388.769	-7.34
388.979	54.1
389.189	64.34
389.399	21.33
389.609	78.68
389.818	64.34
390.028	4.95
390.238	-13.48
390.447	-17.58
390.657	95.06
390.867	17.24
391.076	31.57
391.286	50
391.496	56.15
391.705	-64.68
391.915	115.54
392.125	9.05
392.334	39.76
392.544	97.11
392.753	0.85
392.963	-11.43
393.172	88.92
393.382	64.34
393.591	15.19
393.801	70.48
394.01	68.44
394.22	13.14
394.429	17.24
394.639	47.96
394.848	29.52
395.058	23.38
395.267	50
395.477	64.34
395.686	15.19
395.895	13.14
396.105	64.34
396.314	-1.19
396.524	103.25
396.733	43.86
396.942	56.15
397.152	80.72
397.361	70.48
397.57	39.76
397.78	90.96
397.989	29.52
398.198	82.77
398.407	105.3
398.617	11.09
398.826	39.76
399.035	66.39
399.244	74.58
399.453	76.63
399.663	4.95
399.872	84.82
400.081	-13.48
400.29	17.24
400.499	19.29
400.708	125.78
400.917	52.05
401.127	76.63
401.336	41.81
401.545	45.91
401.754	45.91
401.963	99.16
402.172	68.44
402.381	60.24
402.59	9.05
402.799	31.57
403.008	29.52
403.217	105.3
403.426	54.1
403.635	86.87
403.844	64.34
404.053	68.44
404.262	21.33
404.471	70.48
404.68	7
404.888	105.3
405.097	82.77
405.306	52.05
405.515	90.96
405.724	99.16
405.933	23.38
406.142	-9.39
406.35	162.64
406.559	70.48
406.768	107.35
406.977	97.11
407.185	86.87
407.394	113.49
407.603	68.44
407.812	82.77
408.02	58.2
408.229	82.77
408.438	78.68
408.646	138.07
408.855	86.87
409.064	172.88
409.272	142.16
409.481	152.4
409.69	168.79
409.898	33.62
410.107	160.59
410.315	176.98
410.524	121.68
410.733	131.92
410.941	142.16
411.15	172.88
411.358	199.51
411.567	162.64
411.775	162.64
411.984	187.22
412.192	191.31
412.401	195.41
412.609	181.07
412.818	176.98
413.026	226.13
413.234	183.12
413.443	205.65
413.651	166.74
413.86	228.18
414.068	301.9
414.276	273.23
414.485	283.47
414.693	258.9
414.901	293.71
415.11	291.66
415.318	275.28
415.526	271.19
415.734	291.66
415.943	365.39
416.151	398.16
416.359	293.71
416.567	369.49
416.776	336.72
416.984	424.78
417.192	432.97
417.4	398.16
417.608	414.54
417.817	406.35
418.025	414.54
418.233	467.79
418.441	451.41
418.649	443.21
418.857	498.51
419.065	451.41
419.273	500.56
419.481	557.9
419.689	521.04
419.897	615.24
420.105	600.91
420.313	596.81
420.521	740.17
420.729	783.18
420.937	695.11
421.145	695.11
421.353	777.03
421.561	805.71
421.769	822.09
421.977	842.57
422.185	754.51
422.393	910.15
422.601	922.44
422.809	944.97
423.017	873.29
423.224	930.63
423.432	1028.93
423.64	992.07
423.848	1020.74
424.056	1080.13
424.263	1213.25
424.471	1135.43
424.679	1110.85
424.887	1196.87
425.094	1270.59
425.302	1209.15
425.51	1344.32
425.718	1297.22
425.925	1350.46
426.133	1403.71
426.341	1483.58
426.548	1575.74
426.756	1553.21
426.964	1536.83
427.171	1667.9
427.379	1788.73
427.586	1817.4
427.794	1786.68
428.001	1762.11
428.209	1932.09
428.417	1895.22
428.624	1985.34
428.832	2087.73
429.039	2110.26
429.247	2014.01
429.454	2224.95
429.662	2253.62
429.869	2253.62
430.076	2388.78
430.284	2292.53
430.491	2427.7
430.699	2464.56
430.906	2562.86
431.114	2544.43
431.321	2677.55
431.528	2626.35
431.736	2837.29
431.943	3003.18
432.15	3025.7
432.358	2931.5
432.565	3058.47
432.772	3054.37
432.979	3158.82
433.187	3300.13
433.394	3363.62
433.601	3437.34
433.808	3502.88
434.016	3496.74
434.223	3713.82
434.43	4023.06
434.637	3922.71
434.844	4100.89
435.052	4072.22
435.259	4162.33
435.466	4168.47
435.673	4098.84
435.88	4471.57
436.087	4610.83
436.294	4637.45
436.501	4522.77
436.708	4563.73
436.915	4694.8
437.122	4907.79
437.329	4854.54
437.537	5102.34
437.743	5413.63
437.95	5337.86
438.157	5649.15
438.364	5565.18
438.571	5630.72
438.778	5651.2
438.985	6173.43
439.192	5827.32
439.399	6169.34
439.606	5923.58
439.813	6470.39
440.02	6634.22
440.227	6566.64
440.433	6554.35
440.64	6728.43
440.847	6726.38
441.054	6673.14
441.261	7355.11
441.467	6992.62
441.674	7172.84
441.881	7592.67
442.088	7516.9
442.294	7471.84
442.501	7598.82
442.708	7836.38
442.914	8065.75
443.121	8506.07
443.328	8409.81
443.534	8803.02
443.741	8616.66
443.948	8524.5
444.154	9149.13
444.361	8919.76
444.568	8930
444.774	9272.01
444.981	9257.67
445.187	9454.28
445.394	9921.21
445.6	9730.75
445.807	10758.83
446.013	10355.38
446.22	10326.71
446.426	10850.99
446.633	10799.79
446.839	11279.02
447.046	10865.33
447.252	11395.75
447.459	11412.14
447.665	11405.99
447.871	11594.4
448.078	12544.66
448.284	11770.53
448.491	12171.93
448.697	12733.08
448.903	12794.51
449.11	12831.38
449.316	12634.77
449.522	13023.89
449.728	13220.49
449.935	13214.35
450.141	13439.62
450.347	13757.06
450.553	13175.44
450.76	13277.83
450.966	14002.82
451.172	13677.19
451.378	14097.02
451.584	13619.85
451.791	13937.28
451.997	13812.35
452.203	14101.12
452.409	14174.85
452.615	14412.41
452.821	13490.82
453.027	13286.03
453.233	14002.82
453.44	13431.43
453.646	13683.33
453.852	13701.76
454.058	13900.42
454.264	13453.96
454.47	13826.69
454.676	13365.9
454.882	13750.92
455.088	12694.16
455.294	12851.86
455.5	12984.98
455.705	13255.31
455.911	12696.21
456.117	12341.91
456.323	12339.87
456.529	11762.34
456.735	11997.85
456.941	11621.03
457.147	11696.8
457.352	11281.07
457.558	11096.75
457.764	11080.36
457.97	10840.75
458.176	10705.59
458.381	10656.43
458.587	10123.96
458.793	10146.49
458.999	9743.04
459.204	10183.35
459.41	10031.8
459.616	9235.14
459.821	9257.67
460.027	9401.03
460.233	9237.19
460.438	8704.72
460.644	8819.41
460.85	8639.19
461.055	8309.46
461.261	8205.02
461.466	7539.43
461.672	7445.22
461.878	7953.12
462.083	7416.55
462.289	7338.73
462.494	7176.94
462.7	6939.37
462.905	6740.72
463.111	6974.19
463.316	7062.25
463.522	6898.41
463.727	6767.34
463.932	6896.36
464.138	6937.32
464.343	6750.96
464.549	6675.18
464.754	7023.34
464.959	6675.18
465.165	6605.55
465.37	6406.9
465.575	6365.94
465.781	6626.03
465.986	6572.79
466.191	6402.8
466.397	6099.7
466.602	5890.81
466.807	6109.94
467.012	6150.9
467.218	6177.53
467.423	6103.8
467.628	6195.96
467.833	6320.88
468.038	6079.22
468.244	6142.71
468.449	6193.91
468.654	5989.11
468.859	5868.28
469.064	5915.39
469.269	5624.58
469.474	5774.08
469.679	5909.24
469.885	5643.01
470.09	5718.78
470.295	5563.14
470.5	5538.56
470.705	5671.68
470.91	5458.69
471.115	5415.68
471.32	5380.87
471.525	5438.21
471.73	5356.29
471.935	5313.28
472.139	5077.77
472.344	5194.5
472.549	5151.49
472.754	5045
472.959	4803.34
473.164	4877.07
473.369	4727.57
473.574	4975.37
473.778	5020.42
473.983	4834.06
474.188	4862.73
474.393	4719.37
474.598	4651.79
474.802	4666.13
475.007	4567.82
475.212	4465.43
475.417	4393.75
475.621	4440.85
475.826	4379.41
476.031	4365.07
476.235	4307.73
476.44	4291.35
476.645	4342.55
476.849	4313.88
477.054	4156.18
477.259	4115.22
477.463	4244.24
477.668	3947.29
477.872	3937.05
478.077	3939.1
478.282	3930.91
478.486	3978.01
478.691	3945.24
478.895	3863.32
479.1	3812.12
479.304	4068.12
479.509	3701.53
479.713	3877.66
479.918	3773.21
480.122	3707.68
480.326	3785.5
480.531	3808.03
480.735	3726.11
480.94	3633.95
481.144	3898.14
481.348	3613.47
481.553	3644.19
481.757	3627.81
481.961	3631.9
482.166	3767.07
482.37	3578.65
482.574	3650.33
482.778	3580.7
482.983	3734.3
483.187	3717.92
483.391	3633.95
483.595	3648.29
483.8	3670.81
484.004	3662.62
484.208	3607.33
484.412	3625.76
484.616	3541.79
484.821	3666.72
485.025	3449.63
485.229	3719.96
485.433	3719.96
485.637	3748.64
485.841	3709.72
486.045	3670.81
486.249	3543.84
486.453	3535.65
486.657	3695.39
486.861	3795.74
487.065	3656.48
487.269	3558.18
487.473	3646.24
487.677	3648.29
487.881	3722.01
488.085	3633.95
488.289	3627.81
488.493	3527.46
488.697	3656.48
488.901	3668.77
489.105	3775.26
489.309	3603.23
489.512	3636
489.716	3545.89
489.92	3697.44
490.124	3636
490.328	3889.95
490.531	3543.84
490.735	3775.26
490.939	3781.4
491.143	3777.31
491.346	3699.48
491.55	3846.94
491.754	3793.69
491.958	3881.75
492.161	3801.88
492.365	3824.41
492.569	3916.57
492.772	3894.04
492.976	3871.51
493.18	3988.25
493.383	4059.93
493.587	4213.53
493.79	4104.98
493.994	4176.66
494.197	4121.37
494.401	4207.38
494.605	4150.04
494.808	4213.53
495.012	4268.82
495.215	4160.28
495.419	4305.68
495.622	4178.71
495.825	4393.75
496.029	4207.38
496.232	4502.29
496.436	4371.22
496.639	4551.44
496.843	4551.44
497.046	4717.33
497.249	4719.37
497.453	4670.22
497.656	4848.4
497.859	4756.24
498.063	4899.59
498.266	5067.53
498.469	4899.59
498.673	5128.97
498.876	5057.29
499.079	5063.43
499.282	5159.69
499.485	5298.95
499.689	5313.28
499.892	5489.41
500.095	5356.29
500.298	5536.51
500.501	5540.61
500.705	5696.25
500.908	5663.49
501.111	5923.58
501.314	6030.07
501.517	6114.04
501.72	6103.8
501.923	6218.49
502.126	6118.14
502.329	6245.11
502.532	6296.31
502.735	6318.84
502.938	6578.93
503.141	6562.55
503.344	6576.88
503.547	6636.27
503.75	6718.19
503.953	6972.14
504.156	6972.14
504.359	7049.96
504.562	7146.22
504.765	7224.04
504.968	7377.64
505.17	7289.57
505.373	7715.55
505.576	7602.91
505.779	7695.07
505.982	7609.06
506.185	8170.2
506.387	8039.13
506.59	8192.73
506.793	8209.11
506.996	8329.94
507.198	8518.36
507.401	8721.1
507.604	8616.66
507.807	8862.41
508.009	8829.65
508.212	9024.2
508.415	9169.61
508.617	9282.25
508.82	9345.73
509.022	9425.61
509.225	9667.27
509.428	9652.93
509.63	9902.78
509.833	10001.08
510.035	10252.98
510.238	10463.93
510.44	10404.53
510.643	10541.75
510.845	10562.23
511.048	10939.05
511.25	10918.57
511.453	10967.73
511.655	11375.27
511.858	11221.67
512.06	11473.57
512.262	11586.21
512.465	11745.95
512.667	11862.69
512.87	12171.93
513.072	12216.99
513.274	12270.23
513.477	12550.81
513.679	12814.99
513.881	12880.53
514.084	12929.68
514.286	13085.33
514.488	13345.42
514.69	13628.04
514.893	13582.98
515.095	13611.65
515.297	14000.77
515.499	14019.2
515.701	14224
515.904	14353.02
516.106	14502.52
516.308	14688.89
516.51	15110.77
516.712	15073.9
516.914	15557.22
517.116	15614.57
517.318	15700.58
517.52	15721.06
517.722	15989.35
517.925	16216.67
518.127	16165.47
518.329	16509.53
518.531	16683.61
518.733	16974.42
518.935	17187.41
519.136	17191.5
519.338	17459.79
519.54	17799.75
519.742	17652.3
519.944	17816.13
520.146	18242.11
520.348	18463.29
520.55	18573.88
520.752	18844.21
520.954	18979.38
521.155	19034.67
521.357	19286.58
521.559	19264.05
521.761	19712.55
521.963	20034.08
522.164	19995.17
522.366	20093.47
522.568	20498.97
522.77	20390.43
522.971	20951.57
523.173	20830.74
523.375	21312.02
523.576	21068.31
523.778	21557.77
523.98	21699.08
524.181	21776.91
524.383	21692.94
524.584	22057.48
524.786	22110.72
524.988	21996.04
525.189	22815.23
525.391	22680.06
525.592	23028.21
525.794	23087.61
525.995	23044.6
526.197	23058.93
526.398	23091.7
526.6	23577.07
526.801	23433.71
527.003	23845.35
527.204	23667.18
527.406	24005.1
527.607	24254.95
527.808	24347.11
528.01	23742.96
528.211	24250.85
528.412	24625.63
528.614	25035.22
528.815	24621.53
529.016	24725.98
529.218	24750.56
529.419	24953.3
529.62	24574.43
529.822	24986.07
530.023	25188.82
530.224	25108.95
530.425	25401.81
530.626	25059.8
530.828	24943.06
531.029	25600.46
531.23	25450.96
531.431	25752.01
531.632	25524.69
531.833	25819.6
532.035	25747.92
532.236	25584.08
532.437	25899.47
532.638	25586.13
532.839	26034.63
533.04	25799.12
533.241	25516.5
533.442	26433.99
533.643	25967.05
533.844	26122.69
534.045	26370.5
534.246	25680.33
534.447	26298.82
534.648	25973.19
534.849	26507.71
535.05	26128.84
535.251	26225.09
535.451	26221
535.652	26016.2
535.853	26061.26
536.054	26284.48
536.255	26544.58
536.456	26270.15
536.657	26530.24
536.857	26474.95
537.058	26448.32
537.259	26495.43
537.46	26542.53
537.66	26358.21
537.861	26479.04
538.062	26436.03
538.263	26624.45
538.463	26565.06
538.664	26696.13
538.865	26747.33
539.065	26984.89
539.266	26405.31
539.466	26909.11
539.667	26089.93
539.868	26847.68
540.068	26395.07
540.269	26530.24
540.469	26796.48
540.67	26479.04
540.87	26759.61
541.071	26726.85
541.271	26769.85
541.472	26798.52
541.672	26632.64
541.873	26687.93
542.073	26173.89
542.274	26765.76
542.474	26855.87
542.675	26687.93
542.875	26753.47
543.075	26692.03
543.276	26421.7
543.476	26894.78
543.676	26481.09
543.877	26728.89
544.077	26550.72
544.277	26401.22
544.478	26763.71
544.678	26642.88
544.878	26829.24
545.078	26712.51
545.279	26741.18
545.479	26427.84
545.679	26849.72
545.879	26892.73
546.079	26591.68
546.28	26673.6
546.48	26694.08
546.68	26870.2
546.88	26798.52
547.08	27001.27
547.28	26425.79
547.48	26640.83
547.68	26681.79
547.88	26628.54
548.081	26859.96
548.281	26743.23
548.481	26638.78
548.681	26741.18
548.881	26855.87
549.081	26845.63
549.28	26618.3
549.48	26771.9
549.68	26958.27
549.88	27083.19
550.08	26714.56
550.28	26575.3
550.48	26280.39
550.68	27013.56
550.88	26726.85
551.08	26407.36
551.279	26974.65
551.479	26589.63
551.679	26407.36
551.879	26692.03
552.079	26530.24
552.278	26587.58
552.478	26556.86
552.678	26212.81
552.878	26589.63
553.077	26540.48
553.277	26616.26
553.477	27066.81
553.676	26413.51
553.876	26446.27
554.076	26755.52
554.275	26171.85
554.475	25881.03
554.674	26583.49
554.874	26567.1
555.074	26309.06
555.273	26302.92
555.473	26268.1
555.672	26065.35
555.872	25926.09
556.071	26321.35
556.271	26630.59
556.47	26071.5
556.67	25610.7
556.869	25721.29
557.068	26010.06
557.268	25993.67
557.467	25741.77
557.667	25428.43
557.866	25756.11
558.065	25704.91
558.265	25520.59
558.464	25483.73
558.663	25876.94
558.863	25362.9
559.062	26001.86
559.261	25293.27
559.461	25534.93
559.66	25160.15
559.859	25506.26
560.058	25170.39
560.258	25467.34
560.457	25051.61
560.656	25639.37
560.855	24926.68
561.054	25123.29
561.253	24889.82
561.453	25049.56
561.652	25260.5
561.851	25231.83
562.05	25254.36
562.249	24801.75
562.448	24973.78
562.647	25006.55
562.846	25078.23
563.045	24658.4
563.244	24525.28
563.443	25090.52
563.642	24496.61
563.841	24603.1
564.04	24566.24
564.239	24594.91
564.438	24406.5
564.637	24406.5
564.836	24564.19
565.035	23902.7
565.234	24140.26
565.432	24439.26
565.631	24160.74
565.83	24463.84
566.029	24267.24
566.228	23912.94
566.427	23751.15
566.625	23927.27
566.824	23646.7
567.023	24123.88
567.222	23235.06
567.42	23994.86
567.619	23769.58
567.818	23560.69
568.016	23583.21
568.215	23540.21
568.414	23294.45
568.612	23413.23
568.811	23532.01
569.01	23298.55
569.208	23099.89
569.407	23263.73
569.605	22788.6
569.804	23026.17
570.002	22692.35
570.201	22983.16
570.4	22360.58
570.598	22407.68
570.797	22491.65
570.995	22430.21
571.193	22026.76
571.392	22327.81
571.59	22389.25
571.789	22106.63
571.987	22014.47
572.186	22082.05
572.384	21832.2
572.582	21824.01
572.781	21826.06
572.979	21762.57
573.177	21611.02
573.376	21705.23
573.574	21416.46
573.772	21559.82
573.971	21475.85
574.169	21297.68
574.367	21150.23
574.565	21226
574.763	20834.84
574.962	20886.04
575.16	20757.02
575.358	21051.92
575.556	20505.12
575.754	20818.46
575.952	20546.08
576.151	20910.61
576.349	20341.28
576.547	20351.52
576.745	20761.11
576.943	20546.08
577.141	20400.67
577.339	20075.04
577.537	20029.99
577.735	20249.12
577.933	19900.97
578.131	20161.06
578.329	20011.56
578.527	19800.62
578.725	19604.01
578.923	20038.18
579.121	19550.76
579.319	19573.29
579.516	19599.91
579.714	19233.33
579.912	19505.71
580.11	19579.43
580.308	19458.6
580.506	19296.81
580.704	18768.44
580.901	18979.38
581.099	19216.94
581.297	18913.84
581.495	18635.32
581.692	19049.01
581.89	18481.72
582.088	18661.94
582.285	18457.15
582.483	18469.44
582.681	18526.78
582.878	18287.17
583.076	18272.83
583.274	18332.22
583.471	18029.12
583.669	18160.19
583.866	18190.91
584.064	18139.71
584.262	17879.62
584.459	18207.3
584.657	17805.89
584.854	18000.45
585.052	17785.41
585.249	18096.71
585.447	17715.78
585.644	17486.41
585.841	17510.99
586.039	17758.79
586.236	17453.64
586.434	17410.64
586.631	17341
586.828	17371.72
587.026	17074.77
587.223	17107.54
587.42	17105.49
587.618	17123.92
587.815	16992.85
588.012	16953.94
588.21	17128.02
588.407	17046.1
588.604	16865.88
588.801	16484.95
588.999	16570.97
589.196	16511.58
589.393	16810.58
589.59	16667.22
589.787	16540.25
589.984	16302.68
590.182	16208.48
590.379	16538.2
590.576	15991.39
590.773	16198.24
590.97	16212.57
591.167	16073.31
591.364	15972.96
591.561	15895.14
591.758	15815.27
591.955	15866.47
592.152	16290.4
592.349	15739.49
592.546	15764.07
592.743	15858.28
592.94	15465.07
593.137	15612.52
593.334	15708.77
593.531	15456.87
593.727	15522.41
593.924	15440.49
594.121	15270.51
594.318	15442.54
594.515	15184.49
594.712	15307.37
594.908	15381.1
595.105	15266.41
595.302	15198.83
595.499	15075.95
595.696	15196.78
595.892	14889.59
596.089	15053.42
596.286	14801.52
596.482	14983.79
596.679	14713.46
596.876	15061.62
597.072	14744.18
597.269	14740.08
597.466	14731.89
597.662	14633.59
597.859	14627.45
598.055	14512.76
598.252	14371.45
598.448	14549.62
598.645	14178.94
598.841	14144.13
599.038	14215.8
599.234	14322.3
599.431	14004.86
599.627	14142.08
599.824	13910.66
600.02	14158.46
600.217	14207.61
600.413	13746.82
600.609	13814.4
600.806	13812.35
601.002	13978.24
601.198	13802.11
601.395	13828.74
601.591	13732.48
601.787	13570.69
601.984	13709.96
602.18	13726.34
602.376	13527.69
602.572	13292.17
602.769	13341.32
602.965	13304.46
603.161	13326.99
603.357	13441.67
603.553	13357.71
603.75	13271.69
603.946	13189.77
604.142	13386.38
604.338	13202.06
604.534	12958.35
604.73	12788.37
604.926	12991.12
605.122	12827.28
605.318	12780.18
605.514	12810.9
605.71	12796.56
605.906	12683.92
606.102	12513.94
606.298	12585.62
606.494	12432.02
606.69	12628.63
606.886	12583.57
607.082	12276.38
607.278	12507.8
607.474	12298.91
607.67	12335.77
607.866	12253.85
608.062	12360.34
608.257	12049.05
608.453	12145.31
608.649	12151.45
608.845	12122.78
609.041	11967.13
609.236	11743.91
609.432	11870.88
609.628	11895.46
609.824	11917.98
610.019	11791.01
610.215	11645.6
610.411	11752.1
610.606	11711.14
610.802	11707.04
610.998	11707.04
611.193	11301.54
611.389	11637.41
611.584	11580.07
611.78	11418.28
611.976	11569.83
612.171	11459.24
612.367	11330.22
612.562	11162.28
612.758	11172.52
612.953	11018.93
613.149	11244.2
613.344	10965.68
613.539	11211.43
613.735	11283.11
613.93	11004.59
614.126	10752.69
614.321	10967.73
614.517	10959.53
614.712	11008.69
614.907	10953.39
615.103	10986.16
615.298	10975.92
615.493	10830.51
615.688	10789.55
615.884	10922.67
616.079	10549.94
616.274	10730.16
616.47	10685.11
616.665	10672.82
616.86	10472.12
617.055	10445.49
617.25	10363.58
617.445	10607.28
617.641	10207.93
617.836	10142.39
618.031	10058.43
618.226	10445.49
618.421	10314.42
618.616	10293.94
618.811	10070.72
619.006	10099.39
619.201	10001.08
619.396	10052.28
619.591	9888.45
619.786	9915.07
619.981	9824.96
620.176	9798.34
620.371	9697.99
620.566	9726.66
620.761	9736.9
620.956	9622.21
621.151	9325.26
621.346	9562.82
621.541	9396.93
621.735	9630.4
621.93	9380.55
622.125	9241.29
622.32	9429.7
622.515	9376.45
622.709	9188.04
622.904	9259.72
623.099	8993.48
623.294	9124.55
623.488	8895.18
623.683	8985.29
623.878	8866.51
624.072	8780.5
624.267	8897.23
624.462	8757.97
624.656	8577.75
624.851	8678.1
625.046	8669.91
625.24	8622.8
625.435	8458.96
625.629	8397.53
625.824	8407.77
626.018	8450.77
626.213	8127.19
626.407	8397.53
626.602	8354.52
626.796	8133.34
626.991	8233.69
627.185	8059.61
627.38	8172.25
627.574	8067.8
627.768	7873.25
627.963	7791.33
628.157	7801.57
628.352	7910.11
628.546	7609.06
628.74	7783.13
628.935	7768.8
629.129	7678.69
629.323	7461.6
629.517	7611.11
629.712	7568.1
629.906	7471.84
630.1	7434.98
630.294	7473.89
630.489	7412.45
630.683	7371.49
630.877	7297.77
631.071	7068.39
631.265	7396.07
631.459	7170.79
631.653	7138.02
631.848	7142.12
632.042	7148.26
632.236	7152.36
632.43	7101.16
632.624	6953.71
632.818	6976.23
633.012	6906.6
633.206	6908.65
633.4	6777.58
633.594	6716.14
633.788	6775.53
633.982	6920.94
634.176	6871.79
634.369	6712.05
634.563	6593.26
634.757	6632.18
634.951	6570.74
635.145	6554.35
635.339	6441.72
635.533	6271.73
635.726	6480.63
635.92	6306.55
636.114	6505.2
636.308	6433.52
636.501	6392.56
636.695	6392.56
636.889	5997.31
637.083	6030.07
637.276	6152.95
637.47	6138.62
637.664	6097.66
637.857	6015.74
638.051	6071.03
638.244	5976.83
638.438	5933.82
638.632	5899
638.825	5921.53
639.019	6075.13
639.212	5806.84
639.406	5753.6
639.599	5749.5
639.793	5712.64
639.986	5653.25
640.18	5786.37
640.373	5473.03
640.567	5421.83
640.76	5540.61
640.954	5497.6
641.147	5499.65
641.34	5460.74
641.534	5501.7
641.727	5366.53
641.92	5415.68
642.114	5421.83
642.307	5303.04
642.5	5301
642.694	5167.88
642.887	5217.03
643.08	5286.66
643.273	4926.22
643.467	4961.03
643.66	4971.27
643.853	4981.51
644.046	4827.92
644.239	4920.07
644.432	4776.72
644.626	4774.67
644.819	4711.18
645.012	4762.38
645.205	4702.99
645.398	4811.53
645.591	4750.09
645.784	4764.43
645.977	4576.02
646.17	4561.68
646.363	4473.62
646.556	4492.05
646.749	4518.67
646.942	4621.07
647.135	4424.47
647.328	4297.49
647.521	4373.27
647.714	4365.07
647.907	4365.07
648.099	4363.03
648.292	4293.4
648.485	4129.56
648.678	4266.77
648.871	4150.04
649.064	4166.42
649.256	4074.26
649.449	4068.12
649.642	4035.35
649.835	4143.89
650.027	4025.11
650.22	4152.09
650.413	3894.04
650.605	4082.46
650.798	3873.56
650.991	3904.28
651.183	3906.33
651.376	3973.91
651.568	3912.47
651.761	3781.4
651.954	3830.55
652.146	3801.88
652.339	3799.84
652.531	3762.97
652.724	3644.19
652.916	3681.05
653.109	3633.95
653.301	3629.85
653.494	3578.65
653.686	3527.46
653.879	3537.7
654.071	3693.34
654.263	3484.45
654.456	3541.79
654.648	3502.88
654.84	3425.06
655.033	3496.74
655.225	3367.71
655.417	3398.43
655.61	3367.71
655.802	3455.78
655.994	3449.63
656.186	3302.18
656.379	3248.93
656.571	3207.97
656.763	3183.4
656.955	3195.68
657.148	3248.93
657.34	3183.4
657.532	3173.16
657.724	3099.43
657.916	3064.61
658.108	3015.46
658.3	2972.46
658.492	3033.9
658.684	3042.09
658.876	2958.12
659.068	2829.1
659.26	2896.68
659.452	2956.07
659.644	2884.39
659.836	2843.43
660.028	2902.83
660.22	2798.38
660.412	2886.44
660.604	2698.03
660.796	2718.51
660.988	2687.79
661.18	2769.71
661.372	2689.84
661.563	2698.03
661.755	2532.14
661.947	2738.99
662.139	2571.05
662.331	2587.44
662.522	2603.82
662.714	2624.3
662.906	2515.76
663.097	2548.53
663.289	2579.25
663.481	2609.97
663.673	2493.23
663.864	2487.09
664.056	2523.95
664.247	2433.84
664.439	2411.31
664.631	2433.84
664.822	2456.37
665.014	2437.94
665.205	2435.89
665.397	2308.91
665.588	2444.08
665.78	2349.87
665.971	2376.5
666.163	2278.19
666.354	2267.95
666.546	2347.83
666.737	2347.83
666.929	2286.39
667.12	2245.43
667.311	2237.24
667.503	2138.93
667.694	2147.12
667.885	2153.27
668.077	2032.44
668.268	2157.36
668.459	2165.56
668.651	2118.45
668.842	2128.69
669.033	2138.93
669.224	1917.75
669.416	2163.51
669.607	2106.17
669.798	2097.97
669.989	2046.77
670.18	2038.58
670.371	2061.11
670.563	2030.39
670.754	2036.53
670.945	1971
671.136	2067.25
671.327	2020.15
671.518	2016.05
671.709	2157.36
671.9	1999.67
672.091	2028.34
672.282	1942.33
672.473	2026.29
672.664	1846.07
672.855	1925.94
673.046	1942.33
673.237	1952.57
673.428	1913.66
673.619	2030.39
673.809	1960.76
674	1927.99
674.191	1968.95
674.382	1930.04
674.573	1864.5
674.764	1862.46
674.954	1899.32
675.145	1964.86
675.336	1891.13
675.527	1891.13
675.717	1891.13
675.908	1841.98
676.099	1813.31
676.289	1784.63
676.48	1774.39
676.671	1880.89
676.861	1872.7
677.052	1852.22
677.243	1696.57
677.433	1868.6
677.624	1848.12
677.814	1887.03
678.005	1794.87
678.195	1815.35
678.386	1803.07
678.576	1803.07
678.767	1672
678.957	1780.54
679.148	1788.73
679.338	1796.92
679.529	1753.91
679.719	1760.06
679.909	1850.17
680.1	1864.5
680.29	1829.69
680.481	1708.86
680.671	1645.37
680.861	1844.03
681.052	1858.36
681.242	1809.21
681.432	1688.38
681.622	1672
681.813	1755.96
682.003	1792.83
682.193	1811.26
682.383	1755.96
682.573	1745.72
682.764	1669.95
682.954	1749.82
683.144	1798.97
683.334	1733.43
683.524	1655.61
683.714	1807.16
683.904	1672
684.094	1815.35
684.284	1708.86
684.474	1702.72
684.664	1672
684.854	1780.54
685.044	1766.2
685.234	1723.2
685.424	1694.52
685.614	1669.95
685.804	1649.47
685.994	1680.19
686.184	1708.86
686.374	1710.91
686.564	1721.15
686.753	1680.19
686.943	1758.01
687.133	1700.67
687.323	1698.62
687.513	1643.32
687.702	1811.26
687.892	1745.72
688.082	1678.14
688.272	1624.89
688.461	1635.13
688.651	1733.43
688.841	1692.48
689.03	1702.72
689.22	1715
689.41	1696.57
689.599	1678.14
689.789	1698.62
689.979	1606.46
690.168	1751.87
690.358	1663.8
690.547	1635.13
690.737	1719.1
690.926	1682.24
691.116	1682.24
691.305	1856.31
691.495	1651.52
691.684	1706.81
691.874	1717.05
692.063	1690.43
692.252	1729.34
692.442	1616.7
692.631	1667.9
692.82	1626.94
693.01	1807.16
693.199	1755.96
693.388	1731.39
693.578	1661.76
693.767	1715
693.956	1760.06
694.146	1727.29
694.335	1669.95
694.524	1784.63
694.713	1776.44
694.902	1715
695.092	1813.31
695.281	1792.83
695.47	1745.72
695.659	1710.91
695.848	1706.81
696.037	1764.15
696.226	1719.1
696.415	1829.69
696.604	1819.45
696.793	1776.44
696.982	1766.2
697.171	1719.1
697.36	1729.34
697.549	1708.86
697.738	1764.15
697.927	1739.58
698.116	1805.11
698.305	1794.87
698.494	1862.46
698.683	1729.34
698.872	1905.46
699.061	1839.93
699.25	1770.3
699.438	1839.93
699.627	1784.63
699.816	1758.01
700.005	1801.02
700.193	1831.74
700.382	1839.93
700.571	1876.79
700.76	1807.16
700.948	1782.59
701.137	1712.96
701.326	1751.87
701.514	1852.22
701.703	1844.03
701.892	1831.74
702.08	1893.18
702.269	1854.27
702.457	1850.17
702.646	1712.96
702.834	1727.29
703.023	1817.4
703.212	1768.25
703.4	1790.78
703.589	1835.83
703.777	1760.06
703.965	1794.87
704.154	1852.22
704.342	1692.48
704.531	1782.59
704.719	1680.19
704.907	1889.08
705.096	1727.29
705.284	1803.07
705.472	1846.07
705.661	1616.7
705.849	1823.55
706.037	1674.04
706.226	1811.26
706.414	1790.78
706.602	1655.61
706.79	1694.52
706.979	1692.48
707.167	1829.69
707.355	1674.04
707.543	1708.86
707.731	1760.06
707.919	1768.25
708.107	1727.29
708.296	1721.15
708.484	1680.19
708.672	1735.48
708.86	1708.86
709.048	1618.75
709.236	1692.48
709.424	1684.28
709.612	1706.81
709.8	1651.52
709.988	1579.84
710.176	1585.98
710.364	1612.6
710.551	1608.51
710.739	1710.91
710.927	1604.41
711.115	1581.89
711.303	1561.41
711.491	1641.28
711.679	1694.52
711.866	1555.26
712.054	1635.13
712.242	1651.52
712.43	1604.41
712.617	1569.6
712.805	1585.98
712.993	1540.93
713.181	1542.97
713.368	1542.97
713.556	1622.84
713.744	1563.45
713.931	1608.51
714.119	1577.79
714.306	1598.27
714.494	1512.25
714.682	1536.83
714.869	1682.24
715.057	1487.68
715.244	1561.41
715.432	1555.26
715.619	1512.25
715.807	1508.16
715.994	1491.77
716.182	1624.89
716.369	1567.55
716.556	1485.63
716.744	1573.69
716.931	1436.48
717.119	1504.06
717.306	1508.16
717.493	1454.91
717.681	1514.3
717.868	1481.53
718.055	1553.21
718.242	1381.18
718.43	1456.96
718.617	1475.39
718.804	1426.24
718.991	1516.35
719.179	1399.62
719.366	1393.47
719.553	1405.76
719.74	1413.95
719.927	1360.7
720.114	1426.24
720.301	1436.48
720.488	1375.04
720.676	1340.22
720.863	1483.58
721.05	1391.42
721.237	1459.01
721.424	1293.12
721.611	1284.93
721.798	1348.42
721.985	1375.04
722.172	1344.32
722.358	1475.39
722.545	1301.31
722.732	1309.51
722.919	1430.34
723.106	1198.92
723.293	1413.95
723.48	1375.04
723.667	1385.28
723.853	1364.8
724.04	1321.79
724.227	1229.63
724.414	1338.18
724.6	1198.92
724.787	1385.28
724.974	1383.23
725.161	1274.69
725.347	1211.2
725.534	1250.11
725.72	1362.75
725.907	1239.87
726.094	1289.03
726.28	1248.07
726.467	1286.98
726.653	1299.27
726.84	1219.39
727.027	1327.94
727.213	1207.11
727.4	1119.04
727.586	1237.83
727.773	1192.77
727.959	1207.11
728.145	1268.55
728.332	1293.12
728.518	1139.52
728.705	1106.76
728.891	1149.76
729.077	1180.48
729.264	1160
729.45	1209.15
729.636	1088.32
729.823	1141.57
730.009	1172.29
730.195	1194.82
730.382	1164.1
730.568	1151.81
730.754	1188.68
730.94	1231.68
731.126	1180.48
731.313	1155.91
731.499	1176.39
731.685	1061.7
731.871	1137.48
732.057	1243.97
732.243	1213.25
732.429	1198.92
732.615	1172.29
732.801	1221.44
732.987	1114.95
733.173	1076.04
733.359	1135.43
733.545	1135.43
733.731	1108.8
733.917	1100.61
734.103	1129.28
734.289	1076.04
734.475	1135.43
734.661	1149.76
734.847	1141.57
735.033	1200.96
735.219	1098.56
735.404	932.68
735.59	1127.24
735.776	1057.61
735.962	1047.37
736.148	1084.23
736.333	1039.17
736.519	1073.99
736.705	1037.13
736.89	1008.45
737.076	1051.46
737.262	1063.75
737.447	1065.8
737.633	1061.7
737.819	967.49
738.004	1006.41
738.19	1090.37
738.375	1076.04
738.561	1069.89
738.747	996.17
738.932	1026.89
739.118	1012.55
739.303	949.06
739.489	1049.41
739.674	1078.08
739.859	1033.03
740.045	1071.94
740.23	1049.41
740.416	1026.89
740.601	971.59
740.786	985.93
740.972	1037.13
741.157	912.2
741.342	987.97
741.528	977.73
741.713	883.53
741.898	1028.93
742.084	926.54
742.269	953.16
742.454	834.38
742.639	1047.37
742.824	940.87
743.01	963.4
743.195	934.73
743.38	904.01
743.565	830.28
743.75	916.3
743.935	916.3
744.12	883.53
744.305	924.49
744.49	856.9
744.675	908.1
744.86	764.75
745.045	895.82
745.23	869.19
745.415	852.81
745.6	783.18
745.785	885.58
745.97	949.06
746.155	895.82
746.34	906.06
746.525	848.71
746.71	799.56
746.895	842.57
747.079	838.47
747.264	762.7
747.449	871.24
747.634	852.81
747.819	883.53
748.003	822.09
748.188	756.55
748.373	680.78
748.557	811.85
748.742	822.09
748.927	772.94
749.111	852.81
749.296	693.07
749.481	768.84
749.665	820.04
749.85	713.55
750.034	846.66
750.219	758.6
750.404	774.99
750.588	742.22
750.773	707.4
750.957	850.76
751.141	709.45
751.326	756.55
751.51	621.39
751.695	641.87
751.879	682.83
752.064	645.96
752.248	656.2
752.432	709.45
752.617	719.69
752.801	670.54
752.985	760.65
753.17	719.69
753.354	641.87
753.538	742.22
753.722	680.78
753.907	645.96
754.091	570.19
754.275	648.01
754.459	605
754.643	629.58
754.828	631.63
755.012	629.58
755.196	639.82
755.38	615.24
755.564	553.8
755.748	721.74
755.932	555.85
756.116	553.8
756.3	521.04
756.484	564.04
756.668	623.44
756.852	512.85
757.036	514.89
757.22	564.04
757.404	510.8
757.588	590.67
757.772	525.13
757.956	551.76
758.14	588.62
758.323	488.27
758.507	568.14
758.691	607.05
758.875	539.47
759.059	592.72
759.242	555.85
759.426	543.57
759.61	506.7
759.794	521.04
759.977	467.79
760.161	568.14
760.345	500.56
760.528	525.13
760.712	537.42
760.895	535.37
761.079	521.04
761.263	533.33
761.446	504.65
761.63	504.65
761.813	463.69
761.997	541.52
762.18	432.97
762.364	494.41
762.547	416.59
762.731	564.04
762.914	394.06
763.098	537.42
763.281	523.09
763.464	430.93
763.648	471.89
763.831	480.08
764.015	469.84
764.198	443.21
764.381	473.93
764.564	566.09
764.748	428.88
764.931	435.02
765.114	500.56
765.297	510.8
765.481	422.73
765.664	469.84
765.847	422.73
766.03	488.27
766.213	435.02
766.397	480.08
766.58	414.54
766.763	420.69
766.946	488.27
767.129	422.73
767.312	400.21
767.495	508.75
767.678	355.15
767.861	488.27
768.044	412.5
768.227	471.89
768.41	500.56
768.593	502.61
768.776	301.9
768.959	406.35
769.142	424.78
769.324	394.06
769.507	416.59
769.69	441.17
769.873	432.97
770.056	426.83
770.239	486.22
770.421	435.02
770.604	467.79
770.787	355.15
770.97	480.08
771.152	342.86
771.335	346.96
771.518	377.68
771.7	424.78
771.883	377.68
772.066	310.1
772.248	404.3
772.431	406.35
772.613	306
772.796	396.11
772.978	375.63
773.161	371.54
773.343	353.1
773.526	369.49
773.708	424.78
773.891	336.72
774.073	359.25
774.256	363.34
774.438	267.09
774.621	373.58
774.803	361.3
774.985	359.25
775.168	420.69
775.35	400.21
775.532	379.73
775.715	373.58
775.897	428.88
776.079	361.3
776.261	351.06
776.444	385.87
776.626	316.24
776.808	308.05
776.99	328.53
777.173	369.49
777.355	379.73
777.537	336.72
777.719	355.15
777.901	334.67
778.083	289.62
778.265	301.9
778.447	342.86
778.629	340.82
778.811	303.95
778.993	357.2
779.175	328.53
779.357	256.85
779.539	385.87
779.721	308.05
779.903	285.52
780.085	346.96
780.267	260.95
780.449	244.56
780.631	277.33
780.812	340.82
780.994	262.99
781.176	308.05
781.358	273.23
781.54	262.99
781.721	342.86
781.903	289.62
782.085	277.33
782.267	252.75
782.448	222.03
782.63	351.06
782.812	254.8
782.993	238.42
783.175	232.27
783.357	303.95
783.538	334.67
783.72	232.27
783.901	269.14
784.083	238.42
784.264	287.57
784.446	205.65
784.627	277.33
784.809	211.79
784.99	172.88
785.172	226.13
785.353	230.23
785.535	244.56
785.716	234.32
785.897	283.47
786.079	230.23
786.26	170.83
786.441	269.14
786.623	103.25
786.804	295.76
786.985	193.36
787.167	183.12
787.348	193.36
787.529	203.6
787.71	236.37
787.891	213.84
788.073	213.84
788.254	136.02
788.435	201.55
788.616	154.45
788.797	189.27
788.978	215.89
789.159	201.55
789.34	197.46
789.522	248.66
789.703	174.93
789.884	183.12
790.065	199.51
790.246	244.56
790.427	228.18
790.607	127.83
790.788	219.99
790.969	197.46
791.15	154.45
791.331	207.7
791.512	197.46
791.693	142.16
791.874	232.27
792.054	209.75
792.235	158.55
792.416	150.36
792.597	156.5
792.778	174.93
792.958	166.74
793.139	146.26
793.32	172.88
793.5	152.4
793.681	144.21
793.862	158.55
794.042	152.4
794.223	138.07
794.404	146.26
794.584	95.06
794.765	99.16
794.945	179.03
795.126	150.36
795.306	146.26
795.487	215.89
795.667	160.59
795.848	164.69
796.028	133.97
796.209	236.37
796.389	187.22
796.57	160.59
796.75	136.02
796.93	107.35
797.111	170.83
797.291	156.5
797.471	64.34
797.652	150.36
797.832	111.44
798.012	64.34
798.192	150.36
798.373	158.55
798.553	119.64
798.733	144.21
798.913	107.35
799.093	127.83
799.274	234.32
799.454	166.74
799.634	76.63
799.814	113.49
799.994	72.53
800.174	197.46
800.354	133.97
800.534	129.88
800.714	170.83
800.894	133.97
801.074	144.21
801.254	136.02
801.434	121.68
801.614	105.3
801.794	68.44
801.974	359.25
802.154	56.15
802.334	142.16
802.514	158.55
802.693	158.55
802.873	133.97
803.053	174.93
803.233	95.06
803.413	103.25
803.592	117.59
803.772	115.54
803.952	152.4
804.131	136.02
804.311	107.35
804.491	150.36
804.67	138.07
804.85	138.07
805.03	84.82
805.209	97.11
805.389	107.35
805.568	115.54
805.748	119.64
805.928	119.64
806.107	60.24
806.287	97.11
806.466	119.64
806.646	111.44
806.825	97.11
807.004	111.44
807.184	140.12
807.363	170.83
807.543	76.63
807.722	68.44
807.901	93.01
808.081	90.96
808.26	62.29
808.439	39.76
808.619	101.2
808.798	103.25
808.977	72.53
809.156	52.05
809.336	95.06
809.515	84.82
809.694	82.77
809.873	146.26
810.052	164.69
810.231	37.72
810.411	127.83
810.59	66.39
810.769	224.08
810.948	189.27
811.127	78.68
811.306	105.3
811.485	205.65
811.664	93.01
811.843	50
812.022	99.16
812.201	82.77
812.38	54.1
812.559	72.53
812.737	168.79
812.916	29.52
813.095	84.82
813.274	82.77
813.453	66.39
813.632	115.54
813.811	76.63
813.989	111.44
814.168	76.63
814.347	86.87
814.526	97.11
814.704	64.34
814.883	58.2
815.062	76.63
815.24	17.24
815.419	15.19
815.598	99.16
815.776	115.54
815.955	41.81
816.133	29.52
816.312	62.29
816.49	62.29
816.669	64.34
816.847	50
817.026	72.53
817.204	76.63
817.383	45.91
817.561	19.29
817.74	109.4
817.918	39.76
818.097	56.15
818.275	39.76
818.453	56.15
818.632	21.33
818.81	58.2
818.988	-5.29
819.167	121.68
819.345	50
819.523	76.63
819.701	56.15
819.879	31.57
820.058	41.81
820.236	35.67
820.414	56.15
820.592	62.29
820.77	45.91
820.948	113.49
821.127	70.48
821.305	54.1
821.483	23.38
821.661	68.44
821.839	76.63
822.017	35.67
822.195	80.72
822.373	88.92
822.551	9.05
822.729	31.57
822.907	93.01
823.085	39.76
823.262	13.14
823.44	31.57
823.618	93.01
823.796	88.92
823.974	13.14
824.152	109.4
824.329	41.81
824.507	72.53
824.685	7
824.863	-54.44
825.04	60.24
825.218	54.1
825.396	31.57
825.574	11.09
825.751	45.91
825.929	11.09
826.107	-19.63
826.284	27.48
826.462	21.33
826.639	82.77
826.817	72.53
826.994	58.2
827.172	52.05
827.349	62.29
827.527	52.05
827.704	115.54
827.882	19.29
828.059	60.24
828.237	15.19
828.414	45.91
828.591	35.67
828.769	41.81
828.946	2.9
829.124	25.43
829.301	41.81
829.478	60.24
829.655	127.83
829.833	45.91
830.01	50
830.187	82.77
830.364	76.63
830.542	80.72
830.719	70.48
830.896	39.76
831.073	50
831.25	93.01
831.427	107.35
831.604	-19.63
831.782	13.14
831.959	70.48
832.136	52.05
832.313	17.24
832.49	72.53
832.667	113.49
832.844	2.9
833.021	66.39
833.198	66.39
833.374	64.34
833.551	4.95
833.728	68.44
833.905	37.72
834.082	11.09
834.259	111.44
834.436	21.33
834.612	84.82
834.789	54.1
834.966	52.05
835.143	76.63
835.319	31.57
835.496	27.48
835.673	45.91
835.85	45.91
836.026	70.48
836.203	43.86
836.38	-7.34
836.556	54.1
836.733	84.82
836.909	37.72
837.086	52.05
837.262	45.91
837.439	41.81
837.616	-17.58
837.792	27.48
837.968	74.58
838.145	9.05
838.321	19.29
838.498	41.81
838.674	80.72
838.851	66.39
839.027	62.29
839.203	54.1
839.38	66.39
839.556	-15.53
839.732	82.77
839.909	-17.58
840.085	17.24
840.261	29.52
840.437	23.38
840.614	37.72
840.79	39.76
840.966	50
841.142	54.1
841.318	11.09
841.494	11.09
841.671	86.87
841.847	-21.67
842.023	15.19
842.199	68.44
842.375	21.33
842.551	47.96
842.727	64.34
842.903	80.72
843.079	39.76
843.255	19.29
843.431	41.81
843.607	45.91
843.783	41.81
843.959	41.81
844.134	47.96
844.31	101.2
844.486	47.96
844.662	78.68
844.838	-31.91
845.013	7
845.189	74.58
845.365	11.09
845.541	64.34
845.716	72.53
845.892	43.86
846.068	41.81
846.244	19.29
846.419	47.96
846.595	-27.82
846.77	50
846.946	-1.19
847.122	4.95
847.297	-17.58
847.473	4.95
847.648	29.52
847.824	27.48
847.999	45.91
848.175	64.34
848.35	9.05
848.526	33.62
848.701	15.19
848.876	60.24
849.052	-50.35
849.227	54.1
849.403	60.24
849.578	-33.96
849.753	13.14
849.929	50
850.104	33.62
850.279	17.24
850.454	72.53
850.63	2.9
850.805	-17.58
850.98	88.92
851.155	-42.15
851.33	78.68
851.505	4.95
851.681	29.52
851.856	-27.82
852.031	2.9
852.206	25.43
852.381	23.38
852.556	41.81
852.731	52.05
852.906	-5.29
853.081	-27.82
853.256	45.91
853.431	25.43
853.606	23.38
853.781	39.76
853.956	-11.43
854.131	41.81
854.305	58.2
854.48	9.05
854.655	15.19
854.83	7
855.005	-3.24
855.18	29.52
855.354	60.24
855.529	68.44
855.704	50
855.879	33.62
856.053	60.24
856.228	58.2
856.403	13.14
856.577	-5.29
856.752	9.05
856.926	13.14
857.101	2.9
857.276	-70.83
857.45	68.44
857.625	103.25
857.799	39.76
857.974	99.16
858.148	17.24
858.323	29.52
858.497	-17.58
858.672	64.34
858.846	103.25
859.02	-19.63
859.195	43.86
859.369	66.39
859.543	0.85
859.718	88.92
859.892	17.24
860.066	58.2
860.241	15.19
860.415	33.62
860.589	50
860.763	-40.11
860.938	54.1
861.112	50
861.286	-33.96
861.46	-1.19
861.634	-9.39
861.808	33.62
861.982	25.43
862.157	2.9
862.331	74.58
862.505	-3.24
862.679	-9.39
862.853	-42.15
863.027	19.29
863.201	95.06
863.375	31.57
863.549	97.11
863.722	25.43
863.896	84.82
864.07	37.72
864.244	-36.01
864.418	9.05
864.592	66.39
864.766	-3.24
864.939	19.29
865.113	45.91
865.287	15.19
865.461	-7.34
865.634	-11.43
865.808	60.24
865.982	43.86
866.156	0.85
866.329	52.05
866.503	82.77
866.676	17.24
866.85	9.05
867.024	-38.06
867.197	2.9
867.371	13.14
867.544	13.14
867.718	31.57
867.891	-11.43
868.065	4.95
868.238	21.33
868.412	82.77
868.585	74.58
868.759	15.19
868.932	-33.96
869.105	21.33
869.279	66.39
869.452	31.57
869.625	-19.63
869.799	56.15
869.972	4.95
870.145	33.62
870.319	15.19
870.492	-25.77
870.665	-64.68
870.838	2.9
871.011	-27.82
871.185	43.86
871.358	11.09
871.531	13.14
871.704	-3.24
871.877	45.91
872.05	29.52
872.223	52.05
872.396	11.09
872.569	62.29
872.742	-15.53
872.915	-11.43
873.088	-27.82
873.261	4.95
873.434	60.24
873.607	21.33
873.78	15.19
873.953	33.62
874.126	0.85
874.299	11.09
874.471	-11.43
874.644	23.38
874.817	-85.16
874.99	56.15
875.163	23.38
875.335	-42.15
875.508	-29.87
875.681	4.95
875.853	15.19
876.026	62.29
876.199	-27.82
876.371	-1.19
876.544	11.09
876.717	50
876.889	29.52
877.062	68.44
877.234	37.72
877.407	21.33
877.579	21.33
877.752	17.24
877.924	-50.35
878.097	-13.48
878.269	-25.77
878.442	7
878.614	-1.19
878.786	-87.21
878.959	-7.34
879.131	64.34
879.303	0.85
879.476	37.72
879.648	60.24
879.82	-15.53
879.993	-68.78
880.165	23.38
880.337	19.29
880.509	-48.3
880.681	50
880.854	78.68
881.026	-13.48
881.198	25.43
881.37	-19.63
881.542	-1.19
881.714	39.76
881.886	9.05
882.058	-17.58
882.23	-17.58
882.402	9.05
882.574	60.24
882.746	15.19
882.918	29.52
883.09	50
883.262	23.38
883.434	39.76
883.606	-31.91
883.778	37.72
883.95	33.62
884.122	19.29
884.293	-9.39
884.465	-76.97
884.637	29.52
884.809	25.43
884.98	101.2
885.152	-1.19
885.324	47.96
885.496	-15.53
885.667	-1.19
885.839	-60.59
886.011	31.57
886.182	4.95
886.354	-33.96
886.525	-27.82
886.697	11.09
886.869	-11.43
887.04	31.57
887.212	-25.77
887.383	64.34
887.555	-38.06
887.726	68.44
887.897	-7.34
888.069	15.19
888.24	47.96
888.412	0.85
888.583	-17.58
888.754	19.29
888.926	-50.35
889.097	19.29
889.268	31.57
889.44	72.53
889.611	-36.01
889.782	66.39
889.953	13.14
890.125	2.9
890.296	4.95
890.467	45.91
890.638	62.29
890.809	27.48
890.98	19.29
891.151	-36.01
891.323	0.85
891.494	-5.29
891.665	70.48
891.836	0.85
892.007	-19.63
892.178	27.48
892.349	-29.87
892.52	23.38
892.691	-17.58
892.862	50
893.032	2.9
893.203	23.38
893.374	-21.67
893.545	115.54
893.716	21.33
893.887	2.9
894.057	-56.49
894.228	-38.06
894.399	17.24
894.57	-31.91
894.74	0.85
894.911	11.09
895.082	-81.07
895.253	70.48
895.423	-9.39
895.594	78.68
895.764	54.1
895.935	-9.39
896.106	13.14
896.276	27.48
896.447	-44.2
896.617	4.95
896.788	-3.24
896.958	64.34
897.129	41.81
897.299	7
897.47	-42.15
897.64	37.72
897.81	31.57
897.981	-7.34
898.151	33.62
898.322	19.29
898.492	-7.34
898.662	97.11
898.832	-25.77
899.003	11.09
899.173	-21.67
899.343	47.96
899.513	-64.68
