Data from USB4F104151__208__13-59-56-264.txt Node

Date: Thu Mar 13 13:59:56 EDT 2025
User: louis
Spectrometer: USB4F10415
Trigger mode: 4
Integration Time (sec): 1.000000E-2
Scans to average: 1
Electric dark correction enabled: true
Nonlinearity correction enabled: false
Boxcar width: 0
XAxis mode: Wavelengths
Number of Pixels in Spectrum: 3648
>>>>>Begin Spectral Data<<<<<
178.204	43.35
178.424	43.35
178.644	43.35
178.864	-57
179.084	14.68
179.304	22.87
179.524	35.16
179.744	-9.9
179.964	24.92
180.184	-11.95
180.404	8.53
180.624	29.01
180.844	-16.04
181.064	-67.24
181.283	35.16
181.503	8.53
181.723	-59.05
181.943	12.63
182.163	53.59
182.383	22.87
182.602	31.06
182.822	67.92
183.042	18.77
183.262	-7.85
183.482	76.12
183.701	33.11
183.921	63.83
184.141	29.01
184.361	55.64
184.58	18.77
184.8	16.73
185.02	35.16
185.239	61.78
185.459	16.73
185.679	-34.47
185.898	31.06
186.118	2.39
186.338	-1.71
186.557	61.78
186.777	10.58
186.997	59.73
187.216	98.64
187.436	29.01
187.655	4.44
187.875	-7.85
188.095	14.68
188.314	29.01
188.534	22.87
188.753	65.88
188.973	8.53
189.192	74.07
189.412	55.64
189.631	0.34
189.851	14.68
190.07	39.25
190.29	69.97
190.509	6.49
190.729	37.2
190.948	51.54
191.168	117.08
191.387	119.12
191.607	-5.8
191.826	33.11
192.045	57.68
192.265	45.4
192.484	-11.95
192.704	16.73
192.923	-7.85
193.142	61.78
193.362	39.25
193.581	59.73
193.8	33.11
194.02	20.82
194.239	14.68
194.458	61.78
194.678	51.54
194.897	14.68
195.116	-16.04
195.335	-40.62
195.555	119.12
195.774	-5.8
195.993	31.06
196.212	24.92
196.432	33.11
196.651	-1.71
196.87	33.11
197.089	-5.8
197.308	53.59
197.528	29.01
197.747	-5.8
197.966	47.44
198.185	80.21
198.404	22.87
198.623	2.39
198.842	-38.57
199.062	-20.14
199.281	43.35
199.5	-79.53
199.719	-24.23
199.938	65.88
200.157	39.25
200.376	39.25
200.595	35.16
200.814	-3.75
201.033	-50.86
201.252	35.16
201.471	90.45
201.69	41.3
201.909	33.11
202.128	57.68
202.347	65.88
202.566	43.35
202.785	33.11
203.004	-48.81
203.223	39.25
203.442	-18.09
203.661	72.02
203.879	-16.04
204.098	98.64
204.317	39.25
204.536	61.78
204.755	43.35
204.974	82.26
205.193	65.88
205.411	47.44
205.63	78.16
205.849	39.25
206.068	10.58
206.287	84.31
206.505	145.75
206.724	24.92
206.943	14.68
207.162	125.27
207.381	-48.81
207.599	22.87
207.818	51.54
208.037	88.4
208.255	-34.47
208.474	90.45
208.693	59.73
208.911	63.83
209.13	31.06
209.349	14.68
209.567	41.3
209.786	47.44
210.005	55.64
210.223	14.68
210.442	0.34
210.661	2.39
210.879	31.06
211.098	49.49
211.316	2.39
211.535	18.77
211.753	37.2
211.972	8.53
212.191	63.83
212.409	67.92
212.628	112.98
212.846	33.11
213.065	112.98
213.283	72.02
213.502	92.5
213.72	106.84
213.938	55.64
214.157	29.01
214.375	65.88
214.594	57.68
214.812	96.6
215.031	22.87
215.249	-50.86
215.467	55.64
215.686	55.64
215.904	29.01
216.122	115.03
216.341	104.79
216.559	100.69
216.778	43.35
216.996	53.59
217.214	22.87
217.432	22.87
217.651	57.68
217.869	59.73
218.087	57.68
218.306	6.49
218.524	18.77
218.742	104.79
218.96	76.12
219.179	90.45
219.397	41.3
219.615	49.49
219.833	55.64
220.051	33.11
220.27	18.77
220.488	4.44
220.706	-46.76
220.924	45.4
221.142	26.96
221.36	2.39
221.578	29.01
221.796	-81.58
222.015	-44.71
222.233	39.25
222.451	78.16
222.669	0.34
222.887	-9.9
223.105	31.06
223.323	10.58
223.541	6.49
223.759	24.92
223.977	4.44
224.195	0.34
224.413	39.25
224.631	133.46
224.849	47.44
225.067	22.87
225.285	18.77
225.503	31.06
225.721	-3.75
225.939	31.06
226.157	0.34
226.375	49.49
226.592	-11.95
226.81	26.96
227.028	39.25
227.246	39.25
227.464	-3.75
227.682	92.5
227.9	4.44
228.117	55.64
228.335	-16.04
228.553	61.78
228.771	0.34
228.989	49.49
229.206	24.92
229.424	-20.14
229.642	49.49
229.86	12.63
230.077	90.45
230.295	94.55
230.513	78.16
230.731	80.21
230.948	24.92
231.166	57.68
231.384	-38.57
231.601	-5.8
231.819	63.83
232.037	-26.28
232.254	106.84
232.472	121.17
232.689	16.73
232.907	104.79
233.125	41.3
233.342	67.92
233.56	10.58
233.777	53.59
233.995	18.77
234.213	49.49
234.43	78.16
234.648	69.97
234.865	65.88
235.083	14.68
235.3	-1.71
235.518	94.55
235.735	39.25
235.953	29.01
236.17	-26.28
236.388	90.45
236.605	43.35
236.822	14.68
237.04	74.07
237.257	69.97
237.475	80.21
237.692	18.77
237.909	59.73
238.127	-32.43
238.344	16.73
238.562	18.77
238.779	6.49
238.996	10.58
239.214	24.92
239.431	18.77
239.648	39.25
239.865	14.68
240.083	24.92
240.3	43.35
240.517	-42.67
240.735	59.73
240.952	-1.71
241.169	90.45
241.386	6.49
241.603	47.44
241.821	2.39
242.038	-9.9
242.255	57.68
242.472	45.4
242.689	16.73
242.907	35.16
243.124	-20.14
243.341	72.02
243.558	-20.14
243.775	22.87
243.992	29.01
244.209	72.02
244.426	26.96
244.643	74.07
244.86	4.44
245.078	20.82
245.295	-1.71
245.512	-48.81
245.729	49.49
245.946	37.2
246.163	98.64
246.38	-9.9
246.597	33.11
246.814	76.12
247.031	-7.85
247.248	55.64
247.464	90.45
247.681	74.07
247.898	0.34
248.115	35.16
248.332	82.26
248.549	2.39
248.766	49.49
248.983	22.87
249.2	16.73
249.417	41.3
249.633	6.49
249.85	31.06
250.067	72.02
250.284	43.35
250.501	37.2
250.717	4.44
250.934	-16.04
251.151	67.92
251.368	26.96
251.585	-9.9
251.801	47.44
252.018	59.73
252.235	59.73
252.451	45.4
252.668	72.02
252.885	45.4
253.102	-63.15
253.318	72.02
253.535	110.93
253.752	43.35
253.968	35.16
254.185	20.82
254.401	-5.8
254.618	98.64
254.835	16.73
255.051	112.98
255.268	26.96
255.484	8.53
255.701	117.08
255.917	31.06
256.134	20.82
256.351	65.88
256.567	98.64
256.784	78.16
257	43.35
257.217	37.2
257.433	41.3
257.65	39.25
257.866	61.78
258.082	33.11
258.299	2.39
258.515	72.02
258.732	-3.75
258.948	86.36
259.165	45.4
259.381	53.59
259.597	41.3
259.814	12.63
260.03	33.11
260.246	72.02
260.463	63.83
260.679	69.97
260.895	29.01
261.112	-34.47
261.328	55.64
261.544	74.07
261.761	100.69
261.977	49.49
262.193	39.25
262.409	96.6
262.626	39.25
262.842	88.4
263.058	39.25
263.274	4.44
263.49	41.3
263.707	2.39
263.923	72.02
264.139	51.54
264.355	41.3
264.571	55.64
264.787	-5.8
265.004	29.01
265.22	14.68
265.436	31.06
265.652	8.53
265.868	96.6
266.084	-24.23
266.3	55.64
266.516	92.5
266.732	69.97
266.948	22.87
267.164	12.63
267.38	72.02
267.596	53.59
267.812	74.07
268.028	72.02
268.244	12.63
268.46	8.53
268.676	125.27
268.892	59.73
269.108	4.44
269.324	6.49
269.54	74.07
269.756	92.5
269.972	41.3
270.188	57.68
270.403	22.87
270.619	-32.43
270.835	110.93
271.051	88.4
271.267	6.49
271.483	55.64
271.698	108.88
271.914	39.25
272.13	104.79
272.346	2.39
272.562	37.2
272.777	-3.75
272.993	67.92
273.209	88.4
273.425	43.35
273.64	80.21
273.856	8.53
274.072	106.84
274.287	39.25
274.503	49.49
274.719	112.98
274.934	31.06
275.15	22.87
275.366	108.88
275.581	20.82
275.797	26.96
276.012	31.06
276.228	57.68
276.444	57.68
276.659	18.77
276.875	72.02
277.09	-16.04
277.306	26.96
277.521	37.2
277.737	16.73
277.952	78.16
278.168	63.83
278.383	43.35
278.599	80.21
278.814	-22.19
279.03	2.39
279.245	24.92
279.461	67.92
279.676	63.83
279.892	26.96
280.107	22.87
280.322	24.92
280.538	14.68
280.753	24.92
280.969	63.83
281.184	6.49
281.399	33.11
281.615	0.34
281.83	14.68
282.045	31.06
282.26	-9.9
282.476	-32.43
282.691	35.16
282.906	41.3
283.122	33.11
283.337	33.11
283.552	24.92
283.767	-1.71
283.983	84.31
284.198	35.16
284.413	117.08
284.628	-9.9
284.843	63.83
285.058	35.16
285.274	20.82
285.489	51.54
285.704	29.01
285.919	47.44
286.134	69.97
286.349	37.2
286.564	2.39
286.779	8.53
286.995	63.83
287.21	31.06
287.425	78.16
287.64	35.16
287.855	0.34
288.07	76.12
288.285	74.07
288.5	37.2
288.715	0.34
288.93	31.06
289.145	35.16
289.36	53.59
289.575	-71.34
289.79	80.21
290.004	59.73
290.219	80.21
290.434	59.73
290.649	31.06
290.864	31.06
291.079	94.55
291.294	72.02
291.509	88.4
291.724	125.27
291.938	31.06
292.153	98.64
292.368	59.73
292.583	170.32
292.798	78.16
293.012	41.3
293.227	37.2
293.442	104.79
293.657	31.06
293.871	67.92
294.086	57.68
294.301	-1.71
294.516	51.54
294.73	16.73
294.945	26.96
295.16	63.83
295.374	55.64
295.589	59.73
295.804	18.77
296.018	76.12
296.233	125.27
296.447	22.87
296.662	67.92
296.877	117.08
297.091	0.34
297.306	22.87
297.52	74.07
297.735	108.88
297.949	18.77
298.164	78.16
298.378	4.44
298.593	16.73
298.807	41.3
299.022	72.02
299.236	43.35
299.451	100.69
299.665	59.73
299.88	39.25
300.094	67.92
300.309	37.2
300.523	-5.8
300.737	72.02
300.952	69.97
301.166	117.08
301.381	-22.19
301.595	53.59
301.809	69.97
302.024	72.02
302.238	16.73
302.452	55.64
302.667	45.4
302.881	0.34
303.095	47.44
303.309	-1.71
303.524	65.88
303.738	29.01
303.952	14.68
304.166	12.63
304.381	20.82
304.595	10.58
304.809	24.92
305.023	49.49
305.237	51.54
305.452	-44.71
305.666	59.73
305.88	57.68
306.094	67.92
306.308	57.68
306.522	69.97
306.736	39.25
306.95	63.83
307.164	26.96
307.379	80.21
307.593	29.01
307.807	57.68
308.021	16.73
308.235	49.49
308.449	76.12
308.663	35.16
308.877	57.68
309.091	61.78
309.305	22.87
309.519	2.39
309.733	-13.99
309.947	24.92
310.161	26.96
310.374	41.3
310.588	67.92
310.802	98.64
311.016	-1.71
311.23	-28.33
311.444	78.16
311.658	57.68
311.872	59.73
312.085	164.18
312.299	10.58
312.513	59.73
312.727	133.46
312.941	16.73
313.154	69.97
313.368	-22.19
313.582	-1.71
313.796	33.11
314.009	108.88
314.223	-34.47
314.437	82.26
314.651	53.59
314.864	2.39
315.078	88.4
315.292	88.4
315.505	94.55
315.719	49.49
315.933	65.88
316.146	55.64
316.36	80.21
316.573	137.56
316.787	59.73
317.001	65.88
317.214	29.01
317.428	41.3
317.641	59.73
317.855	-28.33
318.068	47.44
318.282	-3.75
318.495	33.11
318.709	80.21
318.922	10.58
319.136	72.02
319.349	94.55
319.563	33.11
319.776	31.06
319.99	69.97
320.203	108.88
320.417	-44.71
320.63	84.31
320.843	39.25
321.057	63.83
321.27	151.89
321.483	61.78
321.697	76.12
321.91	31.06
322.124	35.16
322.337	63.83
322.55	31.06
322.763	53.59
322.977	16.73
323.19	100.69
323.403	155.99
323.617	74.07
323.83	51.54
324.043	49.49
324.256	49.49
324.469	4.44
324.683	92.5
324.896	55.64
325.109	72.02
325.322	31.06
325.535	76.12
325.748	80.21
325.962	59.73
326.175	37.2
326.388	24.92
326.601	110.93
326.814	-9.9
327.027	45.4
327.24	141.65
327.453	47.44
327.666	145.75
327.879	131.41
328.092	145.75
328.305	20.82
328.518	16.73
328.731	33.11
328.944	84.31
329.157	31.06
329.37	49.49
329.583	57.68
329.796	133.46
330.009	31.06
330.222	67.92
330.435	80.21
330.648	53.59
330.861	2.39
331.073	88.4
331.286	37.2
331.499	69.97
331.712	43.35
331.925	47.44
332.138	59.73
332.35	14.68
332.563	94.55
332.776	106.84
332.989	61.78
333.202	72.02
333.414	63.83
333.627	16.73
333.84	8.53
334.053	98.64
334.265	59.73
334.478	67.92
334.691	86.36
334.903	57.68
335.116	10.58
335.329	51.54
335.541	80.21
335.754	51.54
335.966	12.63
336.179	22.87
336.392	37.2
336.604	10.58
336.817	82.26
337.029	61.78
337.242	18.77
337.454	106.84
337.667	33.11
337.88	65.88
338.092	35.16
338.305	133.46
338.517	45.4
338.729	51.54
338.942	104.79
339.154	16.73
339.367	67.92
339.579	55.64
339.792	49.49
340.004	102.74
340.217	65.88
340.429	127.32
340.641	4.44
340.854	31.06
341.066	88.4
341.278	43.35
341.491	65.88
341.703	92.5
341.915	-9.9
342.128	74.07
342.34	106.84
342.552	59.73
342.764	41.3
342.977	59.73
343.189	137.56
343.401	108.88
343.613	57.68
343.826	67.92
344.038	33.11
344.25	78.16
344.462	63.83
344.674	141.65
344.886	35.16
345.099	24.92
345.311	31.06
345.523	133.46
345.735	47.44
345.947	82.26
346.159	14.68
346.371	51.54
346.583	96.6
346.795	141.65
347.007	129.36
347.219	24.92
347.431	76.12
347.643	-1.71
347.855	2.39
348.067	43.35
348.279	84.31
348.491	59.73
348.703	-30.38
348.915	65.88
349.127	65.88
349.339	127.32
349.551	20.82
349.763	86.36
349.975	57.68
350.187	74.07
350.399	43.35
350.61	106.84
350.822	65.88
351.034	-11.95
351.246	69.97
351.458	90.45
351.669	-32.43
351.881	29.01
352.093	29.01
352.305	145.75
352.517	35.16
352.728	55.64
352.94	115.03
353.152	55.64
353.363	39.25
353.575	65.88
353.787	112.98
353.999	49.49
354.21	41.3
354.422	82.26
354.633	31.06
354.845	-24.23
355.057	10.58
355.268	90.45
355.48	0.34
355.692	88.4
355.903	96.6
356.115	6.49
356.326	55.64
356.538	115.03
356.749	39.25
356.961	90.45
357.172	37.2
357.384	24.92
357.595	76.12
357.807	22.87
358.018	49.49
358.23	29.01
358.441	96.6
358.653	78.16
358.864	-26.28
359.075	76.12
359.287	100.69
359.498	53.59
359.709	90.45
359.921	108.88
360.132	119.12
360.344	24.92
360.555	63.83
360.766	92.5
360.977	88.4
361.189	72.02
361.4	74.07
361.611	35.16
361.823	100.69
362.034	43.35
362.245	76.12
362.456	24.92
362.667	86.36
362.879	125.27
363.09	74.07
363.301	108.88
363.512	37.2
363.723	-26.28
363.935	39.25
364.146	82.26
364.357	37.2
364.568	88.4
364.779	14.68
364.99	82.26
365.201	41.3
365.412	10.58
365.623	29.01
365.834	141.65
366.045	106.84
366.256	67.92
366.467	80.21
366.678	104.79
366.889	67.92
367.1	94.55
367.311	55.64
367.522	35.16
367.733	63.83
367.944	139.6
368.155	51.54
368.366	51.54
368.577	98.64
368.788	55.64
368.999	53.59
369.209	-9.9
369.42	125.27
369.631	84.31
369.842	117.08
370.053	72.02
370.264	127.32
370.474	90.45
370.685	55.64
370.896	31.06
371.107	115.03
371.317	72.02
371.528	76.12
371.739	37.2
371.95	55.64
372.16	16.73
372.371	53.59
372.582	55.64
372.792	33.11
373.003	55.64
373.214	45.4
373.424	76.12
373.635	98.64
373.846	33.11
374.056	80.21
374.267	4.44
374.477	47.44
374.688	59.73
374.898	63.83
375.109	88.4
375.319	74.07
375.53	53.59
375.74	94.55
375.951	51.54
376.161	57.68
376.372	127.32
376.582	14.68
376.793	108.88
377.003	61.78
377.214	110.93
377.424	72.02
377.635	76.12
377.845	72.02
378.055	92.5
378.266	82.26
378.476	29.01
378.686	127.32
378.897	24.92
379.107	57.68
379.317	72.02
379.528	65.88
379.738	98.64
379.948	16.73
380.158	74.07
380.369	65.88
380.579	84.31
380.789	115.03
380.999	63.83
381.21	149.84
381.42	22.87
381.63	47.44
381.84	110.93
382.05	29.01
382.261	96.6
382.471	76.12
382.681	94.55
382.891	63.83
383.101	160.08
383.311	63.83
383.521	43.35
383.731	86.36
383.941	98.64
384.151	26.96
384.361	74.07
384.571	67.92
384.781	112.98
384.991	96.6
385.201	104.79
385.411	43.35
385.621	90.45
385.831	76.12
386.041	164.18
386.251	82.26
386.461	98.64
386.671	88.4
386.881	127.32
387.091	117.08
387.301	57.68
387.511	69.97
387.72	-36.52
387.93	88.4
388.14	82.26
388.35	100.69
388.56	59.73
388.769	63.83
388.979	55.64
389.189	112.98
389.399	104.79
389.609	104.79
389.818	65.88
390.028	69.97
390.238	104.79
390.447	69.97
390.657	104.79
390.867	55.64
391.076	55.64
391.286	164.18
391.496	168.27
391.705	59.73
391.915	98.64
392.125	67.92
392.334	119.12
392.544	117.08
392.753	55.64
392.963	55.64
393.172	106.84
393.382	115.03
393.591	162.13
393.801	139.6
394.01	110.93
394.22	153.94
394.429	18.77
394.639	96.6
394.848	184.66
395.058	115.03
395.267	96.6
395.477	82.26
395.686	55.64
395.895	158.03
396.105	92.5
396.314	106.84
396.524	100.69
396.733	129.36
396.942	41.3
397.152	106.84
397.361	141.65
397.57	155.99
397.78	96.6
397.989	133.46
398.198	180.56
398.407	74.07
398.617	145.75
398.826	166.23
399.035	131.41
399.244	186.71
399.453	127.32
399.663	168.27
399.872	174.42
400.081	125.27
400.29	139.6
400.499	178.51
400.708	164.18
400.917	102.74
401.127	133.46
401.336	121.17
401.545	98.64
401.754	155.99
401.963	229.71
402.172	209.23
402.381	145.75
402.59	57.68
402.799	129.36
403.008	252.24
403.217	141.65
403.426	166.23
403.635	133.46
403.844	227.67
404.053	235.86
404.262	172.37
404.471	237.91
404.68	205.14
404.888	244.05
405.097	174.42
405.306	198.99
405.515	231.76
405.724	293.2
405.933	235.86
406.142	231.76
406.35	201.04
406.559	223.57
406.768	176.47
406.977	239.95
407.185	299.34
407.394	289.1
407.603	282.96
407.812	248.15
408.02	295.25
408.229	272.72
408.438	311.63
408.646	282.96
408.855	319.82
409.064	289.1
409.272	356.69
409.481	315.73
409.69	340.3
409.898	424.27
410.107	467.28
410.315	325.97
410.524	471.37
410.733	420.17
410.941	411.98
411.15	432.46
411.358	477.52
411.567	571.72
411.775	448.85
411.984	485.71
412.192	530.77
412.401	524.62
412.609	655.69
412.818	645.45
413.026	563.53
413.234	655.69
413.443	678.22
413.651	702.79
413.86	704.84
414.068	782.67
414.276	866.63
414.485	850.25
414.693	801.1
414.901	880.97
415.11	852.3
415.318	899.4
415.526	950.6
415.734	999.75
415.943	985.41
416.151	1065.29
416.359	954.69
416.567	1014.09
416.776	1026.37
416.984	1112.39
417.192	1202.5
417.4	1214.79
417.608	1257.79
417.817	1220.93
418.025	1366.34
418.233	1423.68
418.441	1425.73
418.649	1460.54
418.857	1552.7
419.065	1581.37
419.273	1587.52
419.481	1702.2
419.689	1857.85
419.897	1849.66
420.105	1861.94
420.313	2015.54
420.521	1937.72
420.729	2042.17
420.937	2029.88
421.145	2113.85
421.353	2173.24
421.561	2400.56
421.769	2490.67
421.977	2545.97
422.185	2466.1
422.393	2619.69
422.601	2718
422.809	2842.92
423.017	2861.35
423.224	2949.42
423.432	3045.67
423.64	3127.59
423.848	3295.52
424.056	3211.56
424.263	3553.57
424.471	3508.51
424.679	3621.15
424.887	3698.97
425.094	3854.62
425.302	3782.94
425.51	4088.09
425.718	4157.72
425.925	4276.5
426.133	4313.36
426.341	4520.21
426.548	4839.69
426.756	4765.96
426.964	4931.85
427.171	4983.05
427.379	5267.72
427.586	5314.82
427.794	5533.95
428.001	5789.95
428.209	6076.66
428.417	5826.81
428.624	6412.53
428.832	6576.37
429.039	6299.89
429.247	6275.32
429.454	6940.91
429.662	7391.46
429.869	6881.52
430.076	7397.6
430.284	7254.25
430.491	7604.45
430.699	7829.73
430.906	7911.64
431.114	8143.07
431.321	8255.7
431.528	8237.27
431.736	9044.17
431.943	9238.73
432.15	9124.04
432.358	9314.5
432.565	9660.61
432.772	9785.54
432.979	10100.92
433.187	10252.47
433.394	10301.62
433.601	11047.08
433.808	11305.13
434.016	11102.38
434.223	11571.36
434.43	12310.68
434.637	11915.42
434.844	12818.58
435.052	12830.87
435.259	12763.28
435.466	12923.02
435.673	13101.2
435.88	13672.58
436.087	14332.03
436.294	14567.54
436.501	14209.15
436.708	14352.51
436.915	15054.96
437.122	15456.36
437.329	15427.69
437.537	15861.86
437.743	16349.28
437.95	16187.49
438.157	16904.28
438.364	17522.76
438.571	17526.86
438.778	17582.15
438.985	19245.1
439.192	18432.06
439.399	18978.87
439.606	18364.48
439.813	19759.14
440.02	20957.21
440.227	20447.26
440.433	20359.2
440.64	21022.74
440.847	20508.7
441.054	21551.12
441.261	22700.03
441.467	22509.57
441.674	22951.93
441.881	23734.25
442.088	23818.22
442.294	23529.45
442.501	23807.98
442.708	24520.67
442.914	25667.53
443.121	26793.92
443.328	25661.39
443.534	27721.65
443.741	26935.23
443.948	26408.9
444.154	28551.07
444.361	28080.04
444.568	28589.99
444.774	28417.96
444.981	28710.82
445.187	29407.12
445.394	30863.23
445.6	30703.49
445.807	33421.14
446.013	31772.53
446.22	32663.39
446.426	33752.91
446.633	33945.42
446.839	35591.99
447.046	33724.24
447.252	35374.91
447.459	35905.33
447.665	35391.29
447.871	36896.55
448.078	38551.31
448.284	36529.96
448.491	38037.26
448.697	39313.15
448.903	39917.3
449.11	40138.48
449.316	39585.53
449.522	40181.49
449.728	41127.65
449.935	41107.17
450.141	41359.07
450.347	42503.88
450.553	40548.07
450.76	41273.06
450.966	42841.8
451.172	42346.19
451.378	43458.24
451.584	42231.5
451.791	43093.7
451.997	43099.84
452.203	43890.36
452.409	43962.04
452.615	43785.91
452.821	42170.07
453.027	41858.77
453.233	44234.42
453.44	42231.5
453.646	42471.12
453.852	42923.72
454.058	43667.13
454.264	42614.48
454.47	42913.48
454.676	42020.56
454.882	43456.19
455.088	39552.76
455.294	40029.94
455.5	40914.66
455.705	41215.71
455.911	39919.35
456.117	39173.89
456.323	38766.34
456.529	36464.42
456.735	38027.03
456.941	36828.96
457.147	36527.91
457.352	35682.1
457.558	35184.44
457.764	35082.05
457.97	34594.63
458.176	33691.48
458.381	33711.95
458.587	32372.58
458.793	32096.11
458.999	30275.46
459.204	32765.79
459.41	31440.76
459.616	29675.41
459.821	29654.93
460.027	29800.33
460.233	29044.63
460.438	27547.57
460.644	27961.26
460.85	26691.52
461.055	26449.86
461.261	26204.1
461.466	24399.84
461.672	23474.16
461.878	25229.27
462.083	23283.7
462.289	22808.57
462.494	23039.99
462.7	21768.2
462.905	21200.91
463.111	21901.32
463.316	22063.11
463.522	21532.68
463.727	21882.89
463.932	21690.38
464.138	21241.87
464.343	21536.78
464.549	21092.37
464.754	21561.36
464.959	21620.75
465.165	21266.45
465.37	20506.65
465.575	19992.61
465.781	21092.37
465.986	20977.69
466.191	20004.9
466.397	19789.86
466.602	18778.17
466.807	19294.25
467.012	19396.65
467.218	19533.87
467.423	19122.23
467.628	19370.03
467.833	19986.47
468.038	19003.44
468.244	18847.8
468.449	19400.75
468.654	18860.09
468.859	18378.81
469.064	18389.05
469.269	17864.77
469.474	18065.47
469.679	18274.37
469.885	17707.08
470.09	18139.2
470.295	18057.28
470.5	17485.9
470.705	17533
470.91	17432.65
471.115	16844.88
471.32	17113.17
471.525	17213.52
471.73	16724.05
471.935	16447.58
472.139	16207.97
472.344	16113.76
472.549	16390.24
472.754	15982.69
472.959	15800.42
473.164	15231.08
473.369	15292.52
473.574	15675.49
473.778	15521.9
473.983	15480.94
474.188	15192.17
474.393	14719.09
474.598	14948.47
474.802	14651.51
475.007	14383.23
475.212	14336.12
475.417	14035.07
475.621	13922.43
475.826	14100.61
476.031	13756.55
476.235	13662.34
476.44	13883.52
476.645	13557.89
476.849	13693.06
477.054	13254.8
477.259	13136.01
477.463	13248.65
477.668	12705.94
477.872	12761.23
478.077	12781.71
478.282	12388.5
478.486	12517.53
478.691	12056.73
478.895	12171.42
479.1	12107.93
479.304	12228.76
479.509	11970.72
479.713	11884.7
479.918	11808.93
480.122	11503.78
480.326	11741.35
480.531	11825.31
480.735	11659.43
480.94	11622.56
481.144	11868.32
481.348	11333.8
481.553	11411.62
481.757	11272.36
481.961	11221.16
482.166	11485.35
482.37	11415.72
482.574	11069.61
482.778	11325.61
482.983	11331.75
483.187	11311.27
483.391	11243.69
483.595	11212.97
483.8	11352.23
484.004	11108.52
484.208	11288.75
484.412	11303.08
484.616	11272.36
484.821	11274.41
485.025	10969.26
485.229	11217.07
485.433	11303.08
485.637	11204.78
485.841	11270.31
486.045	11057.32
486.249	11200.68
486.453	11102.38
486.657	10938.54
486.861	11344.04
487.065	10891.44
487.269	11352.23
487.473	10979.5
487.677	11133.1
487.881	11303.08
488.085	11075.76
488.289	11208.87
488.493	11147.44
488.697	11415.72
488.901	11378.86
489.105	11174.06
489.309	11264.17
489.512	11110.57
489.716	11716.77
489.92	11346.09
490.124	11212.97
490.328	11378.86
490.531	11450.53
490.735	11761.83
490.939	11622.56
491.143	11450.53
491.346	11593.89
491.55	11692.19
491.754	11927.71
491.958	11765.92
492.161	11675.81
492.365	11950.24
492.569	11753.63
492.772	11790.5
492.976	11909.28
493.18	11976.86
493.383	12116.12
493.587	12521.62
493.79	12249.24
493.994	12196
494.197	12261.53
494.401	12331.16
494.605	12611.73
494.808	12734.61
495.012	12779.67
495.215	12763.28
495.419	12884.11
495.622	12916.88
495.825	13105.29
496.029	13265.03
496.232	13303.95
496.436	13377.67
496.639	13881.47
496.843	13535.37
497.046	13926.53
497.249	13992.06
497.453	14096.51
497.656	14577.78
497.859	14375.03
498.063	14471.29
498.266	14647.41
498.469	14774.39
498.673	14925.94
498.876	15173.74
499.079	15421.55
499.282	15235.18
499.485	15849.57
499.689	15904.87
499.892	15820.9
500.095	16134.24
500.298	16547.93
500.501	16566.36
500.705	16754.77
500.908	17008.72
501.111	17121.36
501.314	17256.53
501.517	17641.54
501.72	17698.89
501.923	17866.82
502.126	18163.78
502.329	18655.29
502.532	18655.29
502.735	18837.56
502.938	19290.16
503.141	19406.89
503.344	19781.67
503.547	19734.57
503.75	19963.94
503.953	20361.25
504.156	20412.45
504.359	20865.05
504.562	20731.93
504.765	21254.16
504.968	21426.19
505.17	21708.81
505.373	21553.16
505.576	22321.15
505.779	22384.64
505.982	22712.31
506.185	22919.16
506.387	23382
506.59	23525.36
506.793	23904.23
506.996	23986.15
507.198	24905.69
507.401	24879.07
507.604	24834.01
507.807	25401.3
508.009	25774.03
508.212	25802.7
508.415	26212.29
508.617	26789.82
508.82	26836.92
509.022	26793.92
509.225	27547.57
509.428	27791.28
509.63	27996.07
509.833	28020.65
510.035	28751.77
510.238	28764.06
510.44	29282.2
510.643	29736.85
510.845	29806.48
511.048	30054.28
511.25	30467.97
511.453	30674.82
511.655	31833.97
511.858	31385.46
512.06	31831.92
512.262	32274.28
512.465	32454.5
512.667	32860
512.87	33468.25
513.072	33208.15
513.274	34314.06
513.477	34139.98
513.679	34572.1
513.881	35282.75
514.084	35817.27
514.286	35465.02
514.488	36198.19
514.69	37201.69
514.893	37383.96
515.095	37302.04
515.297	37607.19
515.499	37771.03
515.701	38530.83
515.904	39057.15
516.106	39163.65
516.308	39474.94
516.51	39933.68
516.712	40240.88
516.914	40724.2
517.116	41326.3
517.318	41635.55
517.52	41617.11
517.722	42071.76
517.925	42626.76
518.127	43124.42
518.329	43411.13
518.531	43542.2
518.733	44388.02
518.935	44537.52
519.136	44734.12
519.338	45416.1
519.54	45553.31
519.742	45676.19
519.944	46354.07
520.146	46984.84
520.348	47113.86
520.55	47677.05
520.752	47990.39
520.954	48399.99
521.155	48354.93
521.357	49108.58
521.559	49579.62
521.761	50148.95
521.963	49751.65
522.164	50599.51
522.366	50347.61
522.568	51187.27
522.77	51195.46
522.971	52225.59
523.173	51660.35
523.375	52219.45
523.576	52876.85
523.778	52882.99
523.98	53360.17
524.181	53382.69
524.383	53474.85
524.584	54453.78
524.786	54275.61
524.988	53696.03
525.189	54742.55
525.391	55250.44
525.592	55461.38
525.794	54939.15
525.995	55774.72
526.197	55770.63
526.398	55842.31
526.6	56233.47
526.801	56374.78
527.003	56765.94
527.204	56909.3
527.406	57374.19
527.607	57069.04
527.808	57849.31
528.01	57120.24
528.211	57705.96
528.412	58672.6
528.614	57890.27
528.815	58480.09
529.016	58752.47
529.218	58320.35
529.419	58648.02
529.62	58760.66
529.822	58723.8
530.023	58947.03
530.224	58846.68
530.425	58969.55
530.626	59125.2
530.828	58510.81
531.029	59698.63
531.23	58756.56
531.431	59108.82
531.632	59588.04
531.833	59958.72
532.035	59878.85
532.236	59983.3
532.437	59983.3
532.638	59239.89
532.839	60046.79
533.04	60143.04
533.241	59502.03
533.442	60616.12
533.643	59809.22
533.844	60163.52
534.045	60155.33
534.246	59801.03
534.447	60411.32
534.648	59667.91
534.849	60505.53
535.05	60093.89
535.251	60618.17
535.451	59979.2
535.652	60431.8
535.853	60261.82
536.054	60366.27
536.255	60419.52
536.456	60173.76
536.657	61226.42
536.857	59901.38
537.058	59903.43
537.259	60538.3
537.46	60589.5
537.66	60480.95
537.861	60386.75
538.062	60323.26
538.263	60702.14
538.463	60065.22
538.664	60335.55
538.865	60528.06
539.065	60474.81
539.266	59962.82
539.466	61017.52
539.667	59825.6
539.868	61038
540.068	60136.9
540.269	60224.96
540.469	60636.6
540.67	60140.99
540.87	59936.19
541.071	60153.28
541.271	60460.47
541.472	59981.25
541.672	60394.94
541.873	59952.58
542.073	60036.55
542.274	60736.95
542.474	60282.3
542.675	59837.89
542.875	60720.57
543.075	60069.31
543.276	59733.45
543.476	60247.49
543.676	59983.3
543.877	60351.93
544.077	60208.57
544.277	60327.36
544.478	60122.56
544.678	60259.77
544.878	60218.81
545.078	60245.44
545.279	59735.49
545.479	60061.12
545.679	60284.35
545.879	59928
546.079	60257.73
546.28	60054.98
546.48	59547.08
546.68	60075.46
546.88	59950.53
547.08	60034.5
547.28	60204.48
547.48	59512.27
547.68	60534.2
547.88	59616.71
548.081	60366.27
548.281	60073.41
548.481	59690.44
548.681	60431.8
548.881	59876.8
549.081	60136.9
549.28	59612.62
549.48	59880.9
549.68	59553.22
549.88	60503.48
550.08	59911.62
550.28	60016.07
550.48	59592.14
550.68	60016.07
550.88	59665.86
551.08	59755.97
551.279	60014.02
551.479	59026.9
551.679	59551.18
551.879	59606.47
552.079	59487.69
552.278	59698.63
552.478	59409.87
552.678	59461.07
552.878	59710.92
553.077	59237.84
553.277	59114.96
553.477	59837.89
553.676	59117.01
553.876	59196.88
554.076	59219.41
554.275	59018.7
554.475	58912.21
554.674	59391.44
554.874	59217.36
555.074	58734.04
555.273	58930.64
555.473	59518.41
555.672	59082.19
555.872	59198.93
556.071	58772.95
556.271	59067.86
556.47	59002.32
556.67	58514.9
556.869	58576.34
557.068	59051.47
557.268	58250.72
557.467	58277.34
557.667	58447.32
557.866	58557.91
558.065	58488.28
558.265	58039.78
558.464	57800.16
558.663	59078.1
558.863	57662.95
559.062	58951.12
559.261	57411.05
559.461	58498.52
559.66	57497.06
559.859	57701.86
560.058	57775.59
560.258	58097.12
560.457	57417.19
560.656	57806.31
560.855	57648.61
561.054	57619.94
561.253	57081.33
561.453	57427.43
561.652	57320.94
561.851	57808.36
562.05	57134.57
562.249	57204.2
562.448	57476.58
562.647	57183.72
562.846	57093.61
563.045	56696.31
563.244	56602.1
563.443	57189.87
563.642	56280.57
563.841	56976.88
564.04	56536.57
564.239	56989.17
564.438	56229.37
564.637	56673.78
564.836	56585.72
565.035	55854.59
565.234	56460.79
565.432	55838.21
565.631	56106.49
565.83	56034.81
566.029	55950.85
566.228	55506.44
566.427	55799.3
566.625	55490.05
566.824	54906.38
567.023	55797.25
567.222	55135.76
567.42	55160.33
567.619	55485.96
567.818	55199.24
568.016	54885.9
568.215	55320.07
568.414	54486.55
568.612	55158.28
568.811	54580.76
569.01	54765.07
569.208	54140.44
569.407	54603.28
569.605	53931.55
569.804	54613.52
570.002	53825.06
570.201	54330.9
570.4	53616.16
570.598	53769.76
570.797	53431.85
570.995	54230.55
571.193	53372.45
571.392	53810.72
571.59	53046.83
571.789	53106.22
571.987	53022.25
572.186	52930.09
572.384	52727.34
572.582	52733.49
572.781	52911.66
572.979	52198.97
573.177	52196.92
573.376	52653.62
573.574	52071.99
573.772	52414.01
573.971	52127.29
574.169	51537.47
574.367	51562.05
574.565	52182.59
574.763	51600.96
574.962	51236.42
575.16	51301.96
575.358	51570.24
575.556	50359.89
575.754	51793.47
575.952	50992.72
576.151	51029.58
576.349	50509.39
576.547	50345.56
576.745	50417.24
576.943	50091.61
577.141	49835.61
577.339	49831.52
577.537	49960.54
577.735	50103.9
577.933	49647.2
578.131	49555.04
578.329	49151.59
578.527	49006.19
578.725	49133.16
578.923	48938.6
579.121	48899.69
579.319	48410.23
579.516	49147.5
579.714	49047.14
579.912	48412.27
580.11	48510.58
580.308	47910.52
580.506	48371.32
580.704	47914.62
580.901	47632
581.099	48373.36
581.297	47500.93
581.495	47199.88
581.692	47656.57
581.89	47316.61
582.088	47279.75
582.285	47271.56
582.483	47257.22
582.681	47009.42
582.878	46802.57
583.076	46089.88
583.274	46399.12
583.471	45641.37
583.669	46157.46
583.866	45952.66
584.064	46517.9
584.262	45434.53
584.459	45758.11
584.657	45688.48
584.854	45565.6
585.052	44803.75
585.249	45502.11
585.447	45303.46
585.644	45096.61
585.841	44844.71
586.039	45201.06
586.236	44353.2
586.434	44584.62
586.631	44504.75
586.828	44480.17
587.026	44361.39
587.223	44256.95
587.42	43572.92
587.618	43896.5
587.815	43355.84
588.012	43636.41
588.21	43335.36
588.407	43652.8
588.604	43173.57
588.801	42704.59
588.999	43155.14
589.196	42837.7
589.393	43247.3
589.59	42684.11
589.787	42198.74
589.984	42655.43
590.182	41684.7
590.379	42045.14
590.576	41981.65
590.773	42413.77
590.97	42239.7
591.167	42073.81
591.364	41676.51
591.561	42036.95
591.758	41305.82
591.955	41135.84
592.152	41184.99
592.349	41168.61
592.546	41021.16
592.743	41187.04
592.94	40722.15
593.137	41023.2
593.334	40828.65
593.531	40044.27
593.727	40744.68
593.924	40376.05
594.121	39962.36
594.318	40425.2
594.515	39872.24
594.712	40001.27
594.908	39677.69
595.105	39872.24
595.302	39098.11
595.499	39372.54
595.696	39206.66
595.892	39194.37
596.089	39390.97
596.286	38940.42
596.482	38940.42
596.679	38733.57
596.876	38993.67
597.072	38635.27
597.269	38432.52
597.466	38504.2
597.662	38160.14
597.859	37914.39
598.055	38004.5
598.252	37676.82
598.448	37926.67
598.645	37199.65
598.841	37717.78
599.038	37842.71
599.234	37318.43
599.431	37058.34
599.627	36986.66
599.824	37386.01
600.02	36697.89
600.217	36828.96
600.413	37031.71
600.609	36804.39
600.806	36175.66
601.002	36593.45
601.198	36233
601.395	36194.09
601.591	36022.06
601.787	35833.65
601.984	35919.67
602.18	36155.18
602.376	35616.57
602.572	35403.58
602.769	35452.73
602.965	35014.46
603.161	35092.29
603.357	34830.15
603.553	35225.4
603.75	35098.43
603.946	34426.7
604.142	34680.64
604.338	34099.02
604.534	34692.93
604.73	34260.81
604.926	33787.73
605.122	34035.53
605.318	33904.46
605.514	33896.27
605.71	33584.98
605.906	33646.42
606.102	33458.01
606.298	33476.44
606.494	33605.46
606.69	33523.54
606.886	33400.66
607.082	32966.49
607.278	33425.24
607.474	32391.02
607.67	33050.46
607.866	32067.44
608.062	33056.6
608.257	32431.97
608.453	32565.09
608.649	32626.53
608.845	32286.57
609.041	32114.54
609.236	32272.23
609.432	31893.36
609.628	31657.84
609.824	31932.27
610.019	31436.66
610.215	31537.01
610.411	31782.77
610.606	31526.77
610.802	31424.37
610.998	31223.67
611.193	31199.1
611.389	31080.32
611.584	30775.17
611.78	30293.9
611.976	30873.47
612.171	31072.12
612.367	30863.23
612.562	30566.27
612.758	30103.43
612.953	30467.97
613.149	30683.01
613.344	29712.27
613.539	30601.09
613.735	30257.03
613.93	30345.09
614.126	30185.35
614.321	30230.41
614.517	29867.92
614.712	29835.15
614.907	29364.12
615.103	29781.9
615.298	29263.77
615.493	29816.72
615.688	28927.9
615.884	29749.14
616.079	29083.55
616.274	29398.93
616.47	29206.42
616.665	29050.78
616.86	28788.64
617.055	28862.36
617.25	28815.26
617.445	28997.53
617.641	28290.98
617.836	28628.9
618.031	28348.32
618.226	28645.28
618.421	28274.6
618.616	28422.05
618.811	28030.89
619.006	28247.97
619.201	27725.74
619.396	27750.32
619.591	27430.83
619.786	27817.9
619.981	27197.37
620.176	27617.2
620.371	26705.85
620.566	27047.86
620.761	26902.46
620.956	26800.06
621.151	26372.03
621.346	26580.93
621.541	26351.56
621.735	26341.32
621.93	26103.75
622.125	25884.62
622.32	25573.33
622.515	25882.57
622.709	25552.85
622.904	25733.07
623.099	25341.91
623.294	25264.08
623.488	24973.27
623.683	25161.69
623.878	24944.6
624.072	24762.33
624.267	24768.48
624.462	24668.12
624.656	24109.03
624.851	24362.98
625.046	23900.14
625.24	23789.55
625.435	23830.51
625.629	23681
625.824	23418.86
626.018	23486.45
626.213	22915.06
626.407	23195.64
626.602	22992.89
626.796	22927.35
626.991	23054.33
627.185	22630.4
627.38	22384.64
627.574	22255.62
627.768	22177.79
627.963	22392.83
628.157	22116.36
628.352	22097.92
628.546	21741.58
628.74	21798.92
628.935	21432.33
629.129	21651.47
629.323	21387.28
629.517	21129.23
629.712	21143.57
629.906	21139.47
630.1	20903.96
630.294	20924.44
630.489	20697.11
630.683	20742.17
630.877	20523.04
631.071	20043.81
631.265	20260.9
631.459	20174.88
631.653	20090.91
631.848	20248.61
632.042	19871.78
632.236	20015.14
632.43	19894.31
632.624	19650.6
632.818	19572.78
633.012	19238.96
633.206	19023.92
633.4	19277.87
633.594	18948.15
633.788	19044.4
633.982	19161.14
634.176	18806.84
634.369	18880.57
634.563	18589.75
634.757	18540.6
634.951	18622.52
635.145	18384.96
635.339	18522.17
635.533	18311.23
635.726	18274.37
635.92	17852.48
636.114	17918.02
636.308	17864.77
636.501	17901.64
636.695	17719.37
636.889	17678.41
637.083	17410.12
637.276	17465.42
637.47	17498.19
637.664	17123.41
637.857	17391.69
638.051	17016.91
638.244	16992.34
638.438	16996.43
638.632	16885.84
638.825	16715.86
639.019	16580.7
639.212	16498.78
639.406	16654.42
639.599	16349.28
639.793	16627.8
639.986	16214.11
640.18	16187.49
640.373	16113.76
640.567	15722.6
640.76	15968.35
640.954	15794.28
641.147	15663.21
641.34	15456.36
641.534	15702.12
641.727	15677.54
641.92	15390.83
642.114	15253.61
642.307	15480.94
642.5	15030.38
642.694	14895.22
642.887	14667.89
643.08	14948.47
643.273	14729.33
643.467	14864.5
643.66	14719.09
643.853	14618.74
644.046	14389.37
644.239	14504.06
644.432	14381.18
644.626	14213.24
644.819	14141.57
645.012	14235.77
645.205	14192.76
645.398	13992.06
645.591	13664.39
645.784	13734.02
645.977	13617.29
646.17	13645.96
646.363	13402.25
646.556	13244.56
646.749	13256.84
646.942	13316.23
647.135	13189.26
647.328	13131.92
647.521	13146.25
647.714	12830.87
647.907	12837.01
648.099	12941.46
648.292	12925.07
648.485	12789.91
648.678	12462.23
648.871	12626.07
649.064	12554.39
649.256	12484.76
649.449	12112.03
649.642	12193.95
649.835	12193.95
650.027	12140.7
650.22	11976.86
650.413	11911.33
650.605	11790.5
650.798	11712.67
650.991	11622.56
651.183	11616.42
651.376	11448.49
651.568	11475.11
651.761	11454.63
651.954	11188.39
652.146	11069.61
652.339	11204.78
652.531	11143.34
652.724	11016.37
652.916	10832.05
653.109	10934.45
653.301	10823.86
653.494	10905.77
653.686	10672.31
653.879	10715.31
654.071	10549.43
654.263	10496.18
654.456	10477.75
654.648	10410.17
654.84	10301.62
655.033	10033.34
655.225	10199.23
655.417	10121.4
655.61	10244.28
655.802	9996.48
655.994	10098.88
656.186	9990.33
656.379	9877.69
656.571	9750.72
656.763	9695.43
656.955	9582.79
657.148	9674.95
657.34	9466.05
657.532	9435.33
657.724	9371.85
657.916	9345.22
658.108	9201.86
658.3	9134.28
658.492	9083.08
658.684	9083.08
658.876	8816.85
659.068	8812.75
659.26	8646.87
659.452	8646.87
659.644	8663.25
659.836	8579.28
660.028	8634.58
660.22	8399.06
660.412	8333.53
660.604	8354.01
660.796	8368.34
660.988	8397.01
661.18	8042.71
661.372	8263.9
661.563	8224.98
661.755	7911.64
661.947	8026.33
662.139	7856.35
662.331	7811.29
662.522	7860.45
662.714	7792.86
662.906	7651.55
663.097	7600.35
663.289	7790.81
663.481	7667.94
663.673	7317.73
663.864	7368.93
664.056	7370.98
664.247	7350.5
664.439	7237.86
664.631	7235.81
664.822	7155.94
665.014	7153.9
665.205	7162.09
665.397	6953.2
665.588	7076.07
665.78	6924.52
665.971	6983.91
666.163	6881.52
666.354	6828.27
666.546	6709.49
666.737	6805.74
666.929	6682.86
667.12	6820.08
667.311	6736.11
667.503	6684.91
667.694	6611.18
667.885	6615.28
668.077	6482.16
668.268	6338.8
668.459	6533.36
668.651	6326.52
668.842	6232.31
669.033	6287.61
669.224	6267.13
669.416	6322.42
669.607	6258.93
669.798	6064.38
669.989	6226.17
670.18	6064.38
670.371	5898.49
670.563	5972.22
670.754	6029.56
670.945	5771.52
671.136	5939.45
671.327	5828.86
671.518	5921.02
671.709	5720.32
671.9	5908.73
672.091	5912.83
672.282	5904.64
672.473	5814.52
672.664	5622.02
672.855	5486.85
673.046	5615.87
673.237	5671.17
673.428	5536
673.619	5560.58
673.809	5548.29
674	5529.86
674.191	5269.76
674.382	5306.63
674.573	5486.85
674.764	5507.33
674.954	5445.89
675.145	5312.77
675.336	5372.16
675.527	5341.44
675.717	5353.73
675.908	5165.32
676.099	5232.9
676.289	5155.08
676.48	5116.17
676.671	5026.06
676.861	5237
677.052	5091.59
677.243	5040.39
677.433	5042.44
677.624	5253.38
677.814	4958.47
678.005	4948.23
678.195	4866.32
678.386	5034.25
678.576	4923.66
678.767	4882.7
678.957	4876.55
679.148	4913.42
679.338	4839.69
679.529	4749.58
679.719	4833.55
679.909	4940.04
680.1	4813.07
680.29	4813.07
680.481	4858.12
680.671	4708.62
680.861	4655.37
681.052	4811.02
681.242	4630.8
681.432	4821.26
681.622	4616.46
681.813	4677.9
682.003	4733.2
682.193	4610.32
682.383	4733.2
682.573	4595.98
682.764	4636.94
682.954	4561.17
683.144	4524.3
683.334	4528.4
683.524	4589.84
683.714	4530.45
683.904	4540.69
684.094	4503.82
684.284	4446.48
684.474	4432.15
684.664	4469.01
684.854	4428.05
685.044	4481.3
685.234	4401.43
685.424	4546.83
685.614	4401.43
685.804	4499.73
685.994	4495.63
686.184	4397.33
686.374	4409.62
686.564	4339.99
686.753	4462.87
686.943	4393.23
687.133	4487.44
687.323	4487.44
687.513	4352.27
687.702	4290.84
687.892	4256.02
688.082	4366.61
688.272	4116.76
688.461	4342.04
688.651	4333.84
688.841	4153.62
689.03	4184.34
689.22	4268.31
689.41	4221.2
689.599	4260.12
689.789	4325.65
689.979	4133.14
690.168	4333.84
690.358	4270.36
690.547	4196.63
690.737	4143.38
690.926	4127
691.116	4161.81
691.305	4202.77
691.495	4253.97
691.684	4180.25
691.874	4227.35
692.063	4243.73
692.252	4163.86
692.442	4137.24
692.631	4167.96
692.82	4014.36
693.01	3995.93
693.199	4296.98
693.388	4086.04
693.578	4202.77
693.767	4153.62
693.956	4184.34
694.146	4135.19
694.335	4053.27
694.524	4022.55
694.713	4118.81
694.902	4141.33
695.092	3975.45
695.281	4053.27
695.47	4028.7
695.659	4038.94
695.848	4028.7
696.037	4120.85
696.226	4006.17
696.415	4012.31
696.604	3995.93
696.793	4000.02
696.982	3840.28
697.171	3934.49
697.36	4034.84
697.549	3926.3
697.738	3963.16
697.927	3862.81
698.116	3916.06
698.305	3944.73
698.494	3901.72
698.683	3926.3
698.872	3864.86
699.061	3889.43
699.25	3858.71
699.438	3825.95
699.627	3834.14
699.816	3670.3
700.005	3924.25
700.193	3709.21
700.382	3733.79
700.571	3795.23
700.76	3602.72
700.948	3801.37
701.137	3823.9
701.326	3750.17
701.514	3729.69
701.703	3670.3
701.892	3660.06
702.08	3684.64
702.269	3744.03
702.457	3727.64
702.646	3672.35
702.834	3588.38
703.023	3572
703.212	3588.38
703.4	3559.71
703.589	3479.84
703.777	3668.25
703.965	3455.26
704.154	3592.48
704.342	3436.83
704.531	3576.09
704.719	3293.48
704.907	3459.36
705.096	3422.5
705.284	3455.26
705.472	3430.69
705.661	3459.36
705.849	3475.74
706.037	3459.36
706.226	3397.92
706.414	3303.71
706.602	3369.25
706.79	3303.71
706.979	3326.24
707.167	3346.72
707.355	3203.36
707.543	3336.48
707.731	3162.41
707.919	3184.93
708.107	3234.08
708.296	3252.52
708.484	3291.43
708.672	3186.98
708.86	3176.74
709.048	3275.04
709.236	3211.56
709.424	3172.64
709.612	3139.88
709.8	3090.73
709.988	3109.16
710.176	3086.63
710.364	3053.86
710.551	3090.73
710.739	3117.35
710.927	3004.71
711.115	2953.51
711.303	3039.53
711.491	2951.46
711.679	3014.95
711.866	2959.66
712.054	2922.79
712.242	2853.16
712.43	2935.08
712.617	2832.68
712.805	2795.82
712.993	2808.11
713.181	2865.45
713.368	2908.46
713.556	2838.83
713.744	2685.23
713.931	2791.72
714.119	2824.49
714.306	2779.43
714.494	2611.5
714.682	2740.52
714.869	2631.98
715.057	2605.36
715.244	2720.04
715.432	2638.13
715.619	2677.04
715.807	2683.18
715.994	2662.7
716.182	2726.19
716.369	2677.04
716.556	2597.17
716.744	2586.93
716.931	2552.11
717.119	2621.74
717.306	2570.54
717.493	2451.76
717.681	2609.45
717.868	2502.96
718.055	2488.62
718.242	2462
718.43	2457.9
718.617	2517.29
718.804	2414.9
718.991	2408.75
719.179	2433.33
719.366	2343.22
719.553	2365.75
719.74	2414.9
719.927	2335.03
720.114	2257.2
720.301	2181.43
720.488	2324.79
720.676	2310.45
720.863	2341.17
721.05	2277.68
721.237	2230.58
721.424	2171.19
721.611	2234.68
721.798	2236.72
721.985	2218.29
722.172	2126.13
722.358	2197.81
722.545	2095.41
722.732	2093.37
722.919	2132.28
723.106	2163
723.293	2185.52
723.48	2089.27
723.667	2101.56
723.853	2175.28
724.04	2232.63
724.227	2017.59
724.414	2103.61
724.6	2064.69
724.787	2130.23
724.974	2054.45
725.161	2023.73
725.347	1958.2
725.534	2001.21
725.72	1874.23
725.907	2046.26
726.094	2001.21
726.28	1966.39
726.467	2050.36
726.653	1988.92
726.84	1857.85
727.027	1898.81
727.213	1952.06
727.4	1816.89
727.586	1851.71
727.773	1870.14
727.959	1804.6
728.145	1984.82
728.332	1956.15
728.518	1939.77
728.705	1868.09
728.891	1823.03
729.077	1863.99
729.264	1794.36
729.45	1784.12
729.636	1829.18
729.823	1780.03
730.009	1810.75
730.195	1759.55
730.382	1820.99
730.568	1798.46
730.754	1825.08
730.94	1730.87
731.126	1681.72
731.313	1706.3
731.499	1661.24
731.685	1759.55
731.871	1696.06
732.057	1702.2
732.243	1792.31
732.429	1771.83
732.615	1687.87
732.801	1648.96
732.987	1612.09
733.173	1689.92
733.359	1681.72
733.545	1608
733.731	1618.24
733.917	1589.57
734.103	1542.46
734.289	1603.9
734.475	1597.76
734.661	1681.72
734.847	1526.08
735.033	1562.94
735.219	1517.89
735.404	1544.51
735.59	1620.28
735.776	1505.6
735.962	1587.52
736.148	1521.98
736.333	1431.87
736.519	1515.84
736.705	1569.09
736.89	1526.08
737.076	1509.69
737.262	1493.31
737.447	1384.77
737.633	1390.91
737.819	1407.3
738.004	1368.38
738.19	1474.88
738.375	1407.3
738.561	1487.17
738.747	1538.37
738.932	1407.3
739.118	1368.38
739.303	1440.06
739.489	1403.2
739.674	1395.01
739.859	1372.48
740.045	1335.62
740.23	1421.63
740.416	1366.34
740.601	1397.06
740.786	1319.23
740.972	1296.71
741.157	1329.47
741.342	1456.45
741.528	1343.81
741.713	1263.94
741.898	1349.95
742.084	1278.27
742.269	1366.34
742.454	1341.76
742.639	1319.23
742.824	1308.99
743.01	1220.93
743.195	1245.51
743.38	1306.95
743.565	1216.83
743.75	1218.88
743.935	1218.88
744.12	1177.92
744.305	1237.31
744.49	1202.5
744.675	1194.31
744.86	1218.88
745.045	1198.4
745.23	1214.79
745.415	1204.55
745.6	1161.54
745.785	1147.2
745.97	1200.45
746.155	1096
746.34	1147.2
746.525	1096
746.71	1165.64
746.895	1145.16
747.079	1122.63
747.264	1098.05
747.449	1104.2
747.634	1114.44
747.819	1194.31
748.003	1147.2
748.188	1108.29
748.373	1034.57
748.557	1059.14
748.742	1120.58
748.927	1034.57
749.111	1057.09
749.296	1089.86
749.481	1034.57
749.665	934.22
749.85	1028.42
750.034	991.56
750.219	1016.13
750.404	1016.13
750.588	946.5
750.773	989.51
750.957	1028.42
751.141	993.61
751.326	969.03
751.51	805.19
751.695	923.98
751.879	962.89
752.064	993.61
752.248	991.56
752.432	866.63
752.617	956.74
752.801	897.35
752.985	932.17
753.17	923.98
753.354	930.12
753.538	887.11
753.722	835.91
753.907	891.21
754.091	954.69
754.275	905.54
754.459	819.53
754.643	837.96
754.828	858.44
755.012	891.21
755.196	891.21
755.38	880.97
755.564	760.14
755.748	858.44
755.932	862.54
756.116	743.75
756.3	753.99
756.484	794.95
756.668	727.37
756.852	778.57
757.036	741.71
757.22	827.72
757.404	792.91
757.588	694.6
757.772	749.9
757.956	776.52
758.14	797
758.323	653.64
758.507	721.23
758.691	805.19
758.875	733.51
759.059	713.03
759.242	772.43
759.426	837.96
759.61	702.79
759.794	688.46
759.977	667.98
760.161	731.47
760.345	694.6
760.528	737.61
760.712	633.16
760.895	678.22
761.079	653.64
761.263	678.22
761.446	702.79
761.63	573.77
761.813	678.22
761.997	688.46
762.18	708.94
762.364	688.46
762.547	674.12
762.731	627.02
762.914	690.51
763.098	534.86
763.281	618.83
763.464	645.45
763.648	657.74
763.831	596.3
764.015	655.69
764.198	645.45
764.381	604.49
764.564	555.34
764.748	604.49
764.931	620.88
765.114	557.39
765.297	577.87
765.481	571.72
765.664	612.68
765.847	581.96
766.03	647.5
766.213	596.3
766.397	629.07
766.58	553.29
766.763	604.49
766.946	641.36
767.129	719.18
767.312	588.11
767.495	600.4
767.678	565.58
767.861	637.26
768.044	610.64
768.227	590.16
768.41	627.02
768.593	538.96
768.776	600.4
768.959	579.92
769.142	524.62
769.324	676.17
769.507	569.68
769.69	590.16
769.873	522.57
770.056	538.96
770.239	561.48
770.421	555.34
770.604	565.58
770.787	520.53
770.97	530.77
771.152	618.83
771.335	596.3
771.518	545.1
771.7	524.62
771.883	510.29
772.066	514.38
772.248	522.57
772.431	522.57
772.613	561.48
772.796	557.39
772.978	536.91
773.161	549.2
773.343	440.65
773.526	524.62
773.708	471.37
773.891	536.91
774.073	498
774.256	485.71
774.438	463.18
774.621	434.51
774.803	479.57
774.985	473.42
775.168	528.72
775.35	516.43
775.532	538.96
775.715	493.9
775.897	448.85
776.079	469.33
776.261	459.09
776.444	444.75
776.626	508.24
776.808	536.91
776.99	440.65
777.173	526.67
777.355	389.46
777.537	428.37
777.719	475.47
777.901	452.94
778.083	495.95
778.265	516.43
778.447	475.47
778.629	426.32
778.811	385.36
778.993	422.22
779.175	514.38
779.357	452.94
779.539	340.3
779.721	457.04
779.903	416.08
780.085	438.61
780.267	371.02
780.449	385.36
780.631	411.98
780.812	471.37
780.994	436.56
781.176	424.27
781.358	385.36
781.54	418.13
781.721	465.23
781.903	420.17
782.085	399.7
782.267	350.54
782.448	409.94
782.63	358.74
782.812	395.6
782.993	379.22
783.175	389.46
783.357	319.82
783.538	424.27
783.72	319.82
783.901	342.35
784.083	295.25
784.264	416.08
784.446	270.67
784.627	321.87
784.809	264.53
784.99	336.21
785.172	293.2
785.353	317.78
785.535	366.93
785.716	387.41
785.897	375.12
786.079	323.92
786.26	276.82
786.441	311.63
786.623	373.07
786.804	252.24
786.985	325.97
787.167	227.67
787.348	338.26
787.529	340.3
787.71	285.01
787.891	307.54
788.073	342.35
788.254	371.02
788.435	350.54
788.616	260.43
788.797	356.69
788.978	235.86
789.159	276.82
789.34	260.43
789.522	219.47
789.703	303.44
789.884	317.78
790.065	244.05
790.246	235.86
790.427	307.54
790.607	276.82
790.788	244.05
790.969	289.1
791.15	285.01
791.331	334.16
791.512	237.91
791.693	311.63
791.874	293.2
792.054	293.2
792.235	227.67
792.416	258.39
792.597	295.25
792.778	227.67
792.958	233.81
793.139	268.63
793.32	244.05
793.5	139.6
793.681	301.39
793.862	252.24
794.042	203.09
794.223	176.47
794.404	272.72
794.584	248.15
794.765	219.47
794.945	235.86
795.126	235.86
795.306	246.1
795.487	272.72
795.667	231.76
795.848	213.33
796.028	162.13
796.209	227.67
796.389	270.67
796.57	207.19
796.75	194.9
796.93	287.06
797.111	186.71
797.291	164.18
797.471	196.95
797.652	180.56
797.832	205.14
798.012	256.34
798.192	250.19
798.373	158.03
798.553	160.08
798.733	203.09
798.913	143.7
799.093	215.38
799.274	172.37
799.454	233.81
799.634	164.18
799.814	219.47
799.994	129.36
800.174	160.08
800.354	186.71
800.534	164.18
800.714	270.67
800.894	192.85
801.074	123.22
801.254	186.71
801.434	178.51
801.614	207.19
801.794	229.71
801.974	426.32
802.154	192.85
802.334	143.7
802.514	162.13
802.693	162.13
802.873	90.45
803.053	209.23
803.233	178.51
803.413	178.51
803.592	158.03
803.772	164.18
803.952	192.85
804.131	174.42
804.311	106.84
804.491	196.95
804.67	194.9
804.85	145.75
805.03	188.75
805.209	186.71
805.389	229.71
805.568	180.56
805.748	110.93
805.928	131.41
806.107	147.8
806.287	168.27
806.466	198.99
806.646	196.95
806.825	155.99
807.004	166.23
807.184	192.85
807.363	123.22
807.543	166.23
807.722	98.64
807.901	153.94
808.081	121.17
808.26	100.69
808.439	123.22
808.619	115.03
808.798	131.41
808.977	176.47
809.156	221.52
809.336	145.75
809.515	143.7
809.694	205.14
809.873	119.12
810.052	149.84
810.231	194.9
810.411	139.6
810.59	127.32
810.769	125.27
810.948	104.79
811.127	102.74
811.306	131.41
811.485	90.45
811.664	133.46
811.843	121.17
812.022	96.6
812.201	67.92
812.38	170.32
812.559	139.6
812.737	186.71
812.916	164.18
813.095	196.95
813.274	178.51
813.453	133.46
813.632	137.56
813.811	155.99
813.989	141.65
814.168	112.98
814.347	106.84
814.526	80.21
814.704	139.6
814.883	121.17
815.062	98.64
815.24	145.75
815.419	158.03
815.598	147.8
815.776	96.6
815.955	102.74
816.133	129.36
816.312	127.32
816.49	110.93
816.669	90.45
816.847	88.4
817.026	149.84
817.204	63.83
817.383	37.2
817.561	102.74
817.74	102.74
817.918	112.98
818.097	153.94
818.275	76.12
818.453	102.74
818.632	80.21
818.81	110.93
818.988	98.64
819.167	76.12
819.345	117.08
819.523	123.22
819.701	76.12
819.879	106.84
820.058	158.03
820.236	61.78
820.414	53.59
820.592	57.68
820.77	88.4
820.948	110.93
821.127	69.97
821.305	45.4
821.483	100.69
821.661	63.83
821.839	76.12
822.017	49.49
822.195	129.36
822.373	125.27
822.551	72.02
822.729	121.17
822.907	104.79
823.085	47.44
823.262	158.03
823.44	92.5
823.618	145.75
823.796	155.99
823.974	35.16
824.152	84.31
824.329	131.41
824.507	149.84
824.685	55.64
824.863	82.26
825.04	84.31
825.218	131.41
825.396	115.03
825.574	80.21
825.751	131.41
825.929	78.16
826.107	35.16
826.284	104.79
826.462	90.45
826.639	22.87
826.817	98.64
826.994	121.17
827.172	88.4
827.349	143.7
827.527	78.16
827.704	55.64
827.882	57.68
828.059	117.08
828.237	31.06
828.414	82.26
828.591	39.25
828.769	49.49
828.946	131.41
829.124	121.17
829.301	80.21
829.478	121.17
829.655	100.69
829.833	55.64
830.01	63.83
830.187	39.25
830.364	143.7
830.542	6.49
830.719	117.08
830.896	76.12
831.073	61.78
831.25	49.49
831.427	115.03
831.604	125.27
831.782	39.25
831.959	104.79
832.136	43.35
832.313	16.73
832.49	65.88
832.667	94.55
832.844	102.74
833.021	65.88
833.198	117.08
833.374	164.18
833.551	67.92
833.728	96.6
833.905	33.11
834.082	69.97
834.259	10.58
834.436	149.84
834.612	129.36
834.789	86.36
834.966	55.64
835.143	69.97
835.319	-7.85
835.496	22.87
835.673	53.59
835.85	72.02
836.026	55.64
836.203	-30.38
836.38	45.4
836.556	63.83
836.733	102.74
836.909	96.6
837.086	22.87
837.262	33.11
837.439	37.2
837.616	131.41
837.792	63.83
837.968	72.02
838.145	98.64
838.321	76.12
838.498	39.25
838.674	112.98
838.851	37.2
839.027	84.31
839.203	90.45
839.38	94.55
839.556	47.44
839.732	92.5
839.909	47.44
840.085	14.68
840.261	67.92
840.437	61.78
840.614	43.35
840.79	47.44
840.966	61.78
841.142	43.35
841.318	92.5
841.494	162.13
841.671	69.97
841.847	80.21
842.023	4.44
842.199	31.06
842.375	0.34
842.551	51.54
842.727	2.39
842.903	47.44
843.079	24.92
843.255	20.82
843.431	-9.9
843.607	49.49
843.783	53.59
843.959	96.6
844.134	45.4
844.31	110.93
844.486	90.45
844.662	39.25
844.838	12.63
845.013	14.68
845.189	158.03
845.365	94.55
845.541	106.84
845.716	82.26
845.892	14.68
846.068	80.21
846.244	18.77
846.419	49.49
846.595	35.16
846.77	102.74
846.946	26.96
847.122	-7.85
847.297	-1.71
847.473	49.49
847.648	-36.52
847.824	92.5
847.999	-48.81
848.175	69.97
848.35	37.2
848.526	43.35
848.701	86.36
848.876	65.88
849.052	18.77
849.227	39.25
849.403	29.01
849.578	63.83
849.753	74.07
849.929	78.16
850.104	35.16
850.279	33.11
850.454	47.44
850.63	16.73
850.805	-1.71
850.98	14.68
851.155	74.07
851.33	72.02
851.505	-26.28
851.681	55.64
851.856	14.68
852.031	96.6
852.206	14.68
852.381	6.49
852.556	-3.75
852.731	51.54
852.906	96.6
853.081	131.41
853.256	-11.95
853.431	29.01
853.606	49.49
853.781	-57
853.956	-28.33
854.131	-9.9
854.305	20.82
854.48	76.12
854.655	6.49
854.83	45.4
855.005	72.02
855.18	35.16
855.354	53.59
855.529	37.2
855.704	-1.71
855.879	31.06
856.053	76.12
856.228	63.83
856.403	41.3
856.577	-26.28
856.752	39.25
856.926	-1.71
857.101	0.34
857.276	37.2
857.45	76.12
857.625	35.16
857.799	-13.99
857.974	80.21
858.148	55.64
858.323	29.01
858.497	82.26
858.672	-3.75
858.846	-18.09
859.02	49.49
859.195	-16.04
859.369	41.3
859.543	12.63
859.718	-7.85
859.892	43.35
860.066	10.58
860.241	-1.71
860.415	31.06
860.589	43.35
860.763	59.73
860.938	37.2
861.112	41.3
861.286	80.21
861.46	31.06
861.634	16.73
861.808	24.92
861.982	-32.43
862.157	2.39
862.331	-7.85
862.505	-38.57
862.679	-26.28
862.853	18.77
863.027	26.96
863.201	47.44
863.375	-11.95
863.549	57.68
863.722	41.3
863.896	102.74
864.07	6.49
864.244	20.82
864.418	35.16
864.592	26.96
864.766	53.59
864.939	47.44
865.113	37.2
865.287	78.16
865.461	117.08
865.634	-16.04
865.808	55.64
865.982	-36.52
866.156	14.68
866.329	20.82
866.503	47.44
866.676	51.54
866.85	39.25
867.024	-46.76
867.197	59.73
867.371	-36.52
867.544	45.4
867.718	37.2
867.891	59.73
868.065	65.88
868.238	47.44
868.412	96.6
868.585	16.73
868.759	84.31
868.932	37.2
869.105	51.54
869.279	0.34
869.452	110.93
869.625	102.74
869.799	41.3
869.972	20.82
870.145	35.16
870.319	26.96
870.492	4.44
870.665	-7.85
870.838	82.26
871.011	20.82
871.185	16.73
871.358	-7.85
871.531	80.21
871.704	14.68
871.877	20.82
872.05	-9.9
872.223	72.02
872.396	47.44
872.569	39.25
872.742	80.21
872.915	65.88
873.088	41.3
873.261	14.68
873.434	31.06
873.607	-36.52
873.78	22.87
873.953	-5.8
874.126	-1.71
874.299	57.68
874.471	14.68
874.644	4.44
874.817	33.11
874.99	65.88
875.163	88.4
875.335	-22.19
875.508	-32.43
875.681	-40.62
875.853	-9.9
876.026	39.25
876.199	16.73
876.371	80.21
876.544	-1.71
876.717	55.64
876.889	-57
877.062	59.73
877.234	49.49
877.407	49.49
877.579	63.83
877.752	88.4
877.924	45.4
878.097	67.92
878.269	-50.86
878.442	84.31
878.614	14.68
878.786	16.73
878.959	-38.57
879.131	41.3
879.303	51.54
879.476	22.87
879.648	59.73
879.82	33.11
879.993	65.88
880.165	-18.09
880.337	49.49
880.509	-3.75
880.681	-65.19
880.854	74.07
881.026	6.49
881.198	57.68
881.37	-63.15
881.542	14.68
881.714	-18.09
881.886	37.2
882.058	24.92
882.23	90.45
882.402	8.53
882.574	45.4
882.746	47.44
882.918	65.88
883.09	-26.28
883.262	-1.71
883.434	59.73
883.606	-9.9
883.778	35.16
883.95	-28.33
884.122	10.58
884.293	-18.09
884.465	61.78
884.637	24.92
884.809	22.87
884.98	-50.86
885.152	35.16
885.324	106.84
885.496	-16.04
885.667	33.11
885.839	6.49
886.011	4.44
886.182	-3.75
886.354	45.4
886.525	20.82
886.697	-20.14
886.869	18.77
887.04	6.49
887.212	47.44
887.383	51.54
887.555	-5.8
887.726	31.06
887.897	35.16
888.069	-1.71
888.24	-1.71
888.412	98.64
888.583	14.68
888.754	37.2
888.926	53.59
889.097	82.26
889.268	49.49
889.44	39.25
889.611	33.11
889.782	22.87
889.953	-34.47
890.125	78.16
890.296	-54.95
890.467	31.06
890.638	20.82
890.809	24.92
890.98	53.59
891.151	63.83
891.323	86.36
891.494	-28.33
891.665	10.58
891.836	-9.9
892.007	33.11
892.178	61.78
892.349	10.58
892.52	-59.05
892.691	39.25
892.862	51.54
893.032	43.35
893.203	35.16
893.374	67.92
893.545	53.59
893.716	76.12
893.887	98.64
894.057	6.49
894.228	0.34
894.399	35.16
894.57	63.83
894.74	20.82
894.911	37.2
895.082	22.87
895.253	-1.71
895.423	18.77
895.594	57.68
895.764	-24.23
895.935	29.01
896.106	22.87
896.276	-3.75
896.447	-13.99
896.617	20.82
896.788	63.83
896.958	65.88
897.129	-32.43
897.299	14.68
897.47	12.63
897.64	24.92
897.81	-16.04
897.981	-5.8
898.151	-54.95
898.322	39.25
898.492	14.68
898.662	-3.75
898.832	10.58
899.003	-38.57
899.173	45.4
899.343	53.59
899.513	8.53
