Data from USB4F104151__177__13-59-00-471.txt Node

Date: Thu Mar 13 13:59:00 EDT 2025
User: louis
Spectrometer: USB4F10415
Trigger mode: 4
Integration Time (sec): 1.000000E-2
Scans to average: 1
Electric dark correction enabled: true
Nonlinearity correction enabled: false
Boxcar width: 0
XAxis mode: Wavelengths
Number of Pixels in Spectrum: 3648
>>>>>Begin Spectral Data<<<<<
178.204	-53.93
178.424	-53.93
178.644	-53.93
178.864	-37.55
179.084	-92.84
179.304	-25.26
179.524	-4.78
179.744	30.04
179.964	1.37
180.184	-21.16
180.404	7.51
180.624	-39.59
180.844	-6.83
181.064	-2.73
181.283	58.71
181.503	13.65
181.723	-10.92
181.943	1.37
182.163	109.91
182.383	-27.31
182.602	58.71
182.822	64.85
183.042	-23.21
183.262	9.56
183.482	-6.83
183.701	11.61
183.921	-17.07
184.141	-8.87
184.361	19.8
184.58	-25.26
184.8	-60.07
185.02	-60.07
185.239	73.04
185.459	-12.97
185.679	36.18
185.898	-12.97
186.118	15.7
186.338	9.56
186.557	-0.68
186.777	56.66
186.997	-17.07
187.216	54.61
187.436	-29.35
187.655	89.43
187.875	19.8
188.095	-35.5
188.314	95.57
188.534	34.13
188.753	-43.69
188.973	-15.02
189.192	54.61
189.412	21.85
189.631	11.61
189.851	54.61
190.07	109.91
190.29	5.46
190.509	21.85
190.729	68.95
190.948	30.04
191.168	36.18
191.387	27.99
191.607	5.46
191.826	-8.87
192.045	-33.45
192.265	46.42
192.484	58.71
192.704	-90.79
192.923	-27.31
193.142	-12.97
193.362	34.13
193.581	103.76
193.8	13.65
194.02	-53.93
194.239	44.37
194.458	36.18
194.678	27.99
194.897	62.8
195.116	46.42
195.335	-10.92
195.555	36.18
195.774	3.41
195.993	46.42
196.212	27.99
196.432	-60.07
196.651	48.47
196.87	9.56
197.089	40.28
197.308	13.65
197.528	13.65
197.747	9.56
197.966	56.66
198.185	56.66
198.404	-2.73
198.623	64.85
198.842	21.85
199.062	-12.97
199.281	89.43
199.5	-6.83
199.719	23.89
199.938	91.48
200.157	-10.92
200.376	11.61
200.595	48.47
200.814	38.23
201.033	-6.83
201.252	56.66
201.471	-47.79
201.69	85.33
201.909	23.89
202.128	5.46
202.347	58.71
202.566	34.13
202.785	64.85
203.004	-21.16
203.223	46.42
203.442	48.47
203.661	34.13
203.879	-25.26
204.098	58.71
204.317	13.65
204.536	7.51
204.755	-2.73
204.974	-25.26
205.193	-70.31
205.411	-27.31
205.63	-0.68
205.849	54.61
206.068	66.9
206.287	-51.88
206.505	-6.83
206.724	79.19
206.943	-25.26
207.162	30.04
207.381	-0.68
207.599	27.99
207.818	-2.73
208.037	30.04
208.255	5.46
208.474	-17.07
208.693	13.65
208.911	-43.69
209.13	7.51
209.349	-21.16
209.567	42.32
209.786	25.94
210.005	-29.35
210.223	17.75
210.442	-19.11
210.661	44.37
210.879	46.42
211.098	11.61
211.316	73.04
211.535	38.23
211.753	13.65
211.972	58.71
212.191	50.52
212.409	68.95
212.628	21.85
212.846	-8.87
213.065	3.41
213.283	7.51
213.502	-62.12
213.72	64.85
213.938	-25.26
214.157	-27.31
214.375	91.48
214.594	-0.68
214.812	68.95
215.031	-10.92
215.249	15.7
215.467	-10.92
215.686	-21.16
215.904	85.33
216.122	54.61
216.341	23.89
216.559	73.04
216.778	15.7
216.996	46.42
217.214	-8.87
217.432	5.46
217.651	32.08
217.869	-23.21
218.087	17.75
218.306	21.85
218.524	42.32
218.742	32.08
218.96	-8.87
219.179	13.65
219.397	83.28
219.615	95.57
219.833	40.28
220.051	25.94
220.27	7.51
220.488	-17.07
220.706	9.56
220.924	56.66
221.142	66.9
221.36	-19.11
221.578	25.94
221.796	1.37
222.015	38.23
222.233	1.37
222.451	30.04
222.669	-2.73
222.887	34.13
223.105	17.75
223.323	56.66
223.541	-0.68
223.759	11.61
223.977	-6.83
224.195	71
224.413	5.46
224.631	23.89
224.849	79.19
225.067	54.61
225.285	34.13
225.503	7.51
225.721	-25.26
225.939	25.94
226.157	-15.02
226.375	71
226.592	23.89
226.81	23.89
227.028	56.66
227.246	40.28
227.464	-43.69
227.682	77.14
227.9	44.37
228.117	-15.02
228.335	11.61
228.553	44.37
228.771	-15.02
228.989	-2.73
229.206	71
229.424	-10.92
229.642	64.85
229.86	-12.97
230.077	30.04
230.295	-64.17
230.513	-17.07
230.731	58.71
230.948	-6.83
231.166	3.41
231.384	-19.11
231.601	-39.59
231.819	38.23
232.037	62.8
232.254	52.56
232.472	1.37
232.689	64.85
232.907	5.46
233.125	13.65
233.342	34.13
233.56	-6.83
233.777	17.75
233.995	15.7
234.213	3.41
234.43	-39.59
234.648	46.42
234.865	62.8
235.083	-19.11
235.3	48.47
235.518	25.94
235.735	-8.87
235.953	-23.21
236.17	-2.73
236.388	48.47
236.605	44.37
236.822	25.94
237.04	-60.07
237.257	13.65
237.475	27.99
237.692	23.89
237.909	1.37
238.127	50.52
238.344	27.99
238.562	46.42
238.779	23.89
238.996	66.9
239.214	19.8
239.431	79.19
239.648	-6.83
239.865	-35.5
240.083	5.46
240.3	95.57
240.517	-6.83
240.735	5.46
240.952	56.66
241.169	42.32
241.386	56.66
241.603	79.19
241.821	30.04
242.038	46.42
242.255	58.71
242.472	9.56
242.689	-8.87
242.907	-25.26
243.124	15.7
243.341	5.46
243.558	-41.64
243.775	15.7
243.992	13.65
244.209	81.24
244.426	-27.31
244.643	11.61
244.86	-39.59
245.078	36.18
245.295	21.85
245.512	-12.97
245.729	-53.93
245.946	1.37
246.163	46.42
246.38	40.28
246.597	-68.27
246.814	19.8
247.031	17.75
247.248	68.95
247.464	40.28
247.681	38.23
247.898	64.85
248.115	40.28
248.332	21.85
248.549	7.51
248.766	79.19
248.983	34.13
249.2	-43.69
249.417	62.8
249.633	15.7
249.85	3.41
250.067	25.94
250.284	-8.87
250.501	48.47
250.717	-2.73
250.934	66.9
251.151	38.23
251.368	36.18
251.585	75.09
251.801	40.28
252.018	-25.26
252.235	1.37
252.451	50.52
252.668	13.65
252.885	42.32
253.102	-23.21
253.318	-25.26
253.535	91.48
253.752	7.51
253.968	118.1
254.185	23.89
254.401	23.89
254.618	95.57
254.835	75.09
255.051	7.51
255.268	7.51
255.484	73.04
255.701	-25.26
255.917	95.57
256.134	-25.26
256.351	91.48
256.567	19.8
256.784	58.71
257	-4.78
257.217	50.52
257.433	17.75
257.65	54.61
257.866	46.42
258.082	17.75
258.299	48.47
258.515	56.66
258.732	25.94
258.948	17.75
259.165	17.75
259.381	13.65
259.597	7.51
259.814	32.08
260.03	-33.45
260.246	-0.68
260.463	5.46
260.679	87.38
260.895	-29.35
261.112	15.7
261.328	30.04
261.544	21.85
261.761	17.75
261.977	19.8
262.193	9.56
262.409	-10.92
262.626	44.37
262.842	62.8
263.058	17.75
263.274	5.46
263.49	9.56
263.707	17.75
263.923	54.61
264.139	64.85
264.355	66.9
264.571	21.85
264.787	1.37
265.004	54.61
265.22	44.37
265.436	9.56
265.652	21.85
265.868	1.37
266.084	13.65
266.3	-27.31
266.516	36.18
266.732	56.66
266.948	19.8
267.164	-41.64
267.38	15.7
267.596	-101.03
267.812	13.65
268.028	-6.83
268.244	62.8
268.46	27.99
268.676	-70.31
268.892	48.47
269.108	19.8
269.324	89.43
269.54	-19.11
269.756	32.08
269.972	21.85
270.188	48.47
270.403	64.85
270.619	42.32
270.835	32.08
271.051	11.61
271.267	13.65
271.483	15.7
271.698	9.56
271.914	64.85
272.13	-10.92
272.346	66.9
272.562	17.75
272.777	48.47
272.993	-58.03
273.209	-64.17
273.425	44.37
273.64	-31.4
273.856	58.71
274.072	32.08
274.287	13.65
274.503	44.37
274.719	30.04
274.934	83.28
275.15	34.13
275.366	30.04
275.581	46.42
275.797	87.38
276.012	38.23
276.228	-25.26
276.444	77.14
276.659	73.04
276.875	-6.83
277.09	38.23
277.306	-0.68
277.521	32.08
277.737	93.52
277.952	-15.02
278.168	83.28
278.383	38.23
278.599	46.42
278.814	56.66
279.03	93.52
279.245	-8.87
279.461	30.04
279.676	46.42
279.892	-51.88
280.107	21.85
280.322	-4.78
280.538	44.37
280.753	71
280.969	23.89
281.184	9.56
281.399	27.99
281.615	58.71
281.83	75.09
282.045	-15.02
282.26	50.52
282.476	-43.69
282.691	1.37
282.906	77.14
283.122	13.65
283.337	56.66
283.552	-19.11
283.767	46.42
283.983	-10.92
284.198	19.8
284.413	-19.11
284.628	54.61
284.843	13.65
285.058	34.13
285.274	38.23
285.489	-2.73
285.704	36.18
285.919	1.37
286.134	62.8
286.349	91.48
286.564	3.41
286.779	25.94
286.995	17.75
287.21	40.28
287.425	89.43
287.64	58.71
287.855	85.33
288.07	30.04
288.285	-29.35
288.5	-21.16
288.715	5.46
288.93	5.46
289.145	64.85
289.36	42.32
289.575	9.56
289.79	11.61
290.004	91.48
290.219	-6.83
290.434	27.99
290.649	56.66
290.864	77.14
291.079	13.65
291.294	36.18
291.509	11.61
291.724	44.37
291.938	-6.83
292.153	91.48
292.368	40.28
292.583	19.8
292.798	1.37
293.012	79.19
293.227	-49.83
293.442	42.32
293.657	97.62
293.871	79.19
294.086	1.37
294.301	38.23
294.516	-10.92
294.73	34.13
294.945	38.23
295.16	99.67
295.374	25.94
295.589	1.37
295.804	9.56
296.018	32.08
296.233	77.14
296.447	-2.73
296.662	-21.16
296.877	19.8
297.091	64.85
297.306	93.52
297.52	23.89
297.735	87.38
297.949	-74.41
298.164	52.56
298.378	21.85
298.593	-15.02
298.807	103.76
299.022	-19.11
299.236	21.85
299.451	71
299.665	-4.78
299.88	34.13
300.094	-47.79
300.309	5.46
300.523	103.76
300.737	68.95
300.952	21.85
301.166	1.37
301.381	-15.02
301.595	23.89
301.809	36.18
302.024	103.76
302.238	-35.5
302.452	30.04
302.667	79.19
302.881	138.58
303.095	21.85
303.309	103.76
303.524	17.75
303.738	-41.64
303.952	60.76
304.166	15.7
304.381	-25.26
304.595	21.85
304.809	-31.4
305.023	79.19
305.237	34.13
305.452	13.65
305.666	62.8
305.88	58.71
306.094	62.8
306.308	77.14
306.522	-23.21
306.736	25.94
306.95	58.71
307.164	23.89
307.379	13.65
307.593	17.75
307.807	81.24
308.021	40.28
308.235	9.56
308.449	73.04
308.663	-35.5
308.877	75.09
309.091	17.75
309.305	21.85
309.519	21.85
309.733	46.42
309.947	-39.59
310.161	-23.21
310.374	23.89
310.588	50.52
310.802	7.51
311.016	-2.73
311.23	56.66
311.444	13.65
311.658	17.75
311.872	95.57
312.085	-29.35
312.299	-41.64
312.513	19.8
312.727	46.42
312.941	15.7
313.154	89.43
313.368	7.51
313.582	40.28
313.796	17.75
314.009	50.52
314.223	89.43
314.437	48.47
314.651	27.99
314.864	19.8
315.078	52.56
315.292	48.47
315.505	-58.03
315.719	38.23
315.933	19.8
316.146	-6.83
316.36	44.37
316.573	56.66
316.787	-21.16
317.001	40.28
317.214	15.7
317.428	52.56
317.641	32.08
317.855	-10.92
318.068	27.99
318.282	62.8
318.495	165.2
318.709	11.61
318.922	130.39
319.136	38.23
319.349	-4.78
319.563	54.61
319.776	30.04
319.99	30.04
320.203	44.37
320.417	73.04
320.63	42.32
320.843	58.71
321.057	44.37
321.27	58.71
321.483	58.71
321.697	68.95
321.91	-43.69
322.124	58.71
322.337	54.61
322.55	-0.68
322.763	38.23
322.977	34.13
323.19	27.99
323.403	54.61
323.617	52.56
323.83	1.37
324.043	66.9
324.256	56.66
324.469	-0.68
324.683	25.94
324.896	54.61
325.109	19.8
325.322	54.61
325.535	64.85
325.748	-0.68
325.962	21.85
326.175	56.66
326.388	46.42
326.601	48.47
326.814	1.37
327.027	48.47
327.24	-2.73
327.453	15.7
327.666	7.51
327.879	93.52
328.092	9.56
328.305	44.37
328.518	40.28
328.731	21.85
328.944	5.46
329.157	42.32
329.37	-8.87
329.583	48.47
329.796	9.56
330.009	-2.73
330.222	64.85
330.435	54.61
330.648	50.52
330.861	15.7
331.073	64.85
331.286	7.51
331.499	54.61
331.712	21.85
331.925	-8.87
332.138	25.94
332.35	30.04
332.563	-19.11
332.776	79.19
332.989	-8.87
333.202	-27.31
333.414	7.51
333.627	-60.07
333.84	7.51
334.053	83.28
334.265	64.85
334.478	68.95
334.691	36.18
334.903	36.18
335.116	-33.45
335.329	30.04
335.541	62.8
335.754	114
335.966	-8.87
336.179	66.9
336.392	36.18
336.604	81.24
336.817	11.61
337.029	44.37
337.242	52.56
337.454	40.28
337.667	30.04
337.88	-35.5
338.092	38.23
338.305	118.1
338.517	-17.07
338.729	54.61
338.942	21.85
339.154	46.42
339.367	-4.78
339.579	38.23
339.792	52.56
340.004	13.65
340.217	40.28
340.429	62.8
340.641	19.8
340.854	23.89
341.066	-23.21
341.278	34.13
341.491	30.04
341.703	46.42
341.915	-6.83
342.128	5.46
342.34	32.08
342.552	68.95
342.764	38.23
342.977	-2.73
343.189	30.04
343.401	97.62
343.613	7.51
343.826	101.72
344.038	-29.35
344.25	9.56
344.462	-39.59
344.674	48.47
344.886	54.61
345.099	52.56
345.311	105.81
345.523	62.8
345.735	-37.55
345.947	46.42
346.159	-6.83
346.371	23.89
346.583	-2.73
346.795	75.09
347.007	3.41
347.219	87.38
347.431	11.61
347.643	-0.68
347.855	-0.68
348.067	1.37
348.279	54.61
348.491	46.42
348.703	58.71
348.915	17.75
349.127	23.89
349.339	-29.35
349.551	27.99
349.763	79.19
349.975	58.71
350.187	114
350.399	66.9
350.61	48.47
350.822	25.94
351.034	19.8
351.246	-35.5
351.458	83.28
351.669	25.94
351.881	-0.68
352.093	-6.83
352.305	99.67
352.517	46.42
352.728	114
352.94	-0.68
353.152	-19.11
353.363	3.41
353.575	126.29
353.787	27.99
353.999	107.86
354.21	34.13
354.422	109.91
354.633	42.32
354.845	30.04
355.057	40.28
355.268	75.09
355.48	93.52
355.692	36.18
355.903	60.76
356.115	46.42
356.326	-8.87
356.538	60.76
356.749	42.32
356.961	58.71
357.172	9.56
357.384	97.62
357.595	17.75
357.807	62.8
358.018	87.38
358.23	42.32
358.441	71
358.653	-25.26
358.864	25.94
359.075	9.56
359.287	73.04
359.498	46.42
359.709	71
359.921	50.52
360.132	46.42
360.344	136.53
360.555	66.9
360.766	44.37
360.977	58.71
361.189	89.43
361.4	42.32
361.611	44.37
361.823	30.04
362.034	48.47
362.245	56.66
362.456	1.37
362.667	42.32
362.879	58.71
363.09	99.67
363.301	19.8
363.512	114
363.723	60.76
363.935	38.23
364.146	54.61
364.357	21.85
364.568	60.76
364.779	-51.88
364.99	118.1
365.201	44.37
365.412	81.24
365.623	-25.26
365.834	54.61
366.045	3.41
366.256	95.57
366.467	42.32
366.678	79.19
366.889	62.8
367.1	66.9
367.311	-8.87
367.522	15.7
367.733	120.15
367.944	-27.31
368.155	85.33
368.366	120.15
368.577	34.13
368.788	15.7
368.999	-2.73
369.209	-37.55
369.42	21.85
369.631	38.23
369.842	75.09
370.053	48.47
370.264	95.57
370.474	73.04
370.685	85.33
370.896	83.28
371.107	34.13
371.317	46.42
371.528	56.66
371.739	56.66
371.95	58.71
372.16	66.9
372.371	9.56
372.582	77.14
372.792	52.56
373.003	36.18
373.214	71
373.424	36.18
373.635	32.08
373.846	75.09
374.056	17.75
374.267	114
374.477	87.38
374.688	48.47
374.898	-15.02
375.109	75.09
375.319	83.28
375.53	103.76
375.74	71
375.951	99.67
376.161	38.23
376.372	40.28
376.582	-35.5
376.793	17.75
377.003	40.28
377.214	54.61
377.424	101.72
377.635	87.38
377.845	52.56
378.055	15.7
378.266	30.04
378.476	52.56
378.686	34.13
378.897	40.28
379.107	101.72
379.317	101.72
379.528	83.28
379.738	50.52
379.948	15.7
380.158	17.75
380.369	77.14
380.579	64.85
380.789	75.09
380.999	9.56
381.21	134.48
381.42	54.61
381.63	54.61
381.84	13.65
382.05	140.63
382.261	122.2
382.471	54.61
382.681	103.76
382.891	25.94
383.101	44.37
383.311	-6.83
383.521	71
383.731	71
383.941	89.43
384.151	83.28
384.361	13.65
384.571	44.37
384.781	38.23
384.991	32.08
385.201	56.66
385.411	25.94
385.621	-2.73
385.831	23.89
386.041	19.8
386.251	83.28
386.461	54.61
386.671	54.61
386.881	48.47
387.091	19.8
387.301	46.42
387.511	27.99
387.72	75.09
387.93	91.48
388.14	21.85
388.35	-23.21
388.56	71
388.769	87.38
388.979	46.42
389.189	21.85
389.399	138.58
389.609	-23.21
389.818	91.48
390.028	97.62
390.238	42.32
390.447	9.56
390.657	32.08
390.867	56.66
391.076	95.57
391.286	62.8
391.496	46.42
391.705	68.95
391.915	11.61
392.125	60.76
392.334	62.8
392.544	48.47
392.753	-10.92
392.963	25.94
393.172	130.39
393.382	132.44
393.591	56.66
393.801	13.65
394.01	111.96
394.22	-2.73
394.429	19.8
394.639	56.66
394.848	126.29
395.058	77.14
395.267	87.38
395.477	93.52
395.686	52.56
395.895	161.11
396.105	83.28
396.314	73.04
396.524	99.67
396.733	91.48
396.942	81.24
397.152	42.32
397.361	71
397.57	32.08
397.78	40.28
397.989	71
398.198	79.19
398.407	79.19
398.617	27.99
398.826	68.95
399.035	97.62
399.244	130.39
399.453	159.06
399.663	40.28
399.872	50.52
400.081	60.76
400.29	142.68
400.499	44.37
400.708	130.39
400.917	85.33
401.127	97.62
401.336	46.42
401.545	132.44
401.754	130.39
401.963	111.96
402.172	165.2
402.381	136.53
402.59	77.14
402.799	87.38
403.008	116.05
403.217	148.82
403.426	73.04
403.635	103.76
403.844	66.9
404.053	116.05
404.262	128.34
404.471	161.11
404.68	103.76
404.888	120.15
405.097	122.2
405.306	120.15
405.515	79.19
405.724	169.3
405.933	210.26
406.142	134.48
406.35	195.92
406.559	103.76
406.768	181.59
406.977	132.44
407.185	150.87
407.394	173.39
407.603	120.15
407.812	259.41
408.02	130.39
408.229	165.2
408.438	208.21
408.646	169.3
408.855	228.69
409.064	261.46
409.272	179.54
409.481	138.58
409.69	210.26
409.898	312.66
410.107	236.88
410.315	288.08
410.524	208.21
410.733	228.69
410.941	316.75
411.15	410.96
411.358	398.67
411.567	341.33
411.775	406.86
411.984	326.99
412.192	382.29
412.401	378.19
412.609	435.53
412.818	425.29
413.026	419.15
413.234	365.9
413.443	445.77
413.651	517.45
413.86	501.07
414.068	548.17
414.276	494.93
414.485	554.32
414.693	572.75
414.901	638.28
415.11	709.96
415.318	644.43
415.526	601.42
415.734	681.29
415.943	636.24
416.151	623.95
416.359	681.29
416.567	781.64
416.776	681.29
416.984	738.63
417.192	965.96
417.4	816.46
417.608	820.55
417.817	974.15
418.025	922.95
418.233	955.72
418.441	972.1
418.649	1043.78
418.857	1047.88
419.065	1107.27
419.273	1201.48
419.481	1269.06
419.689	1189.19
419.897	1221.95
420.105	1250.63
420.313	1301.83
420.521	1359.17
420.729	1326.4
420.937	1498.43
421.145	1516.86
421.353	1582.4
421.561	1568.06
421.769	1631.55
421.977	1838.39
422.185	1789.24
422.393	1776.95
422.601	1963.32
422.809	1938.74
423.017	1957.18
423.224	1932.6
423.432	2118.97
423.64	2053.43
423.848	2256.18
424.056	2370.87
424.263	2364.72
424.471	2391.34
424.679	2485.55
424.887	2694.44
425.094	2749.74
425.302	2714.92
425.51	2796.84
425.718	2880.81
425.925	2901.29
426.133	2999.59
426.341	3171.62
426.548	3355.94
426.756	3274.02
426.964	3403.04
427.171	3671.33
427.379	3730.72
427.586	3794.2
427.794	3790.11
428.001	3999
428.209	4261.14
428.417	4177.17
428.624	4408.59
428.832	4420.88
429.039	4267.28
429.247	4443.41
429.454	4902.15
429.662	5096.71
429.869	4820.24
430.076	5178.63
430.284	4957.45
430.491	5088.52
430.699	5686.53
430.906	5496.07
431.114	5661.95
431.321	5733.63
431.528	5844.22
431.736	6219
431.943	6636.78
432.15	6249.72
432.358	6540.53
432.565	6864.11
432.772	6716.65
432.979	7179.5
433.187	7187.69
433.394	7355.62
433.601	7855.33
433.808	7630.05
434.016	7793.89
434.223	8074.46
434.43	8516.82
434.637	8496.34
434.844	8826.06
435.052	8979.66
435.259	9161.93
435.466	9202.89
435.673	9071.82
435.88	9688.26
436.087	10200.25
436.294	10212.54
436.501	9835.71
436.708	10126.52
436.915	10507.44
437.122	10769.58
437.329	10765.49
437.537	11164.84
437.743	11535.53
437.95	11144.36
438.157	11977.89
438.364	11957.41
438.571	12295.32
438.778	12285.08
438.985	13716.61
439.192	13128.84
439.399	13534.34
439.606	13005.97
439.813	13722.76
440.02	14636.15
440.227	14267.52
440.433	14435.45
440.64	14693.49
440.847	14417.02
441.054	14888.05
441.261	15742.05
441.467	15602.79
441.674	16039.01
441.881	16735.32
442.088	16555.1
442.294	16421.98
442.501	16829.52
442.708	17271.89
442.914	18029.63
443.121	18641.98
443.328	18154.56
443.534	19274.8
443.741	18713.66
443.948	18478.14
444.154	20255.78
444.361	20044.84
444.568	20044.84
444.774	19885.09
444.981	20198.43
445.187	21111.83
445.394	21531.66
445.6	21353.49
445.807	23200.76
446.013	22432.77
446.22	22750.2
446.426	23688.17
446.633	24017.89
446.839	24753.12
447.046	23469.04
447.252	25164.76
447.459	25033.69
447.665	25013.21
447.871	26055.62
448.078	27251.64
448.284	25811.92
448.491	26297.28
448.697	27755.44
448.903	27974.57
449.11	27980.71
449.316	27646.9
449.522	28363.68
449.728	29014.94
449.935	29174.68
450.141	29330.33
450.347	30053.26
450.553	28760.99
450.76	29496.21
450.966	30167.94
451.172	29604.75
451.378	30669.7
451.584	29975.44
451.791	30827.39
451.997	30526.34
452.203	31179.64
452.409	31267.7
452.615	31048.57
452.821	29836.17
453.027	29451.16
453.233	31249.27
453.44	29741.97
453.646	30090.12
453.852	30403.46
454.058	30774.14
454.264	29645.71
454.47	30520.2
454.676	29664.14
454.882	30632.83
455.088	28005.29
455.294	28576.67
455.5	28930.97
455.705	29258.65
455.911	28113.83
456.117	27757.49
456.323	26938.3
456.529	25461.71
456.735	26784.7
456.941	26100.68
457.147	25686.99
457.352	24783.84
457.558	24570.85
457.764	24908.76
457.97	24181.73
458.176	23763.95
458.381	23833.58
458.587	22815.74
458.793	22551.55
458.999	21191.7
459.204	22998.01
459.41	22490.11
459.616	20886.55
459.821	20831.26
460.027	20628.51
460.233	20278.3
460.438	19469.36
460.644	19538.99
460.85	18658.36
461.055	18435.13
461.261	18437.18
461.466	16893.01
461.672	16563.29
461.878	17738.82
462.083	16673.88
462.289	15975.52
462.494	16112.74
462.7	15473.77
462.905	15096.94
463.111	15463.53
463.316	15332.46
463.522	15176.81
463.727	15236.2
463.932	15375.47
464.138	15103.09
464.343	15148.14
464.549	14783.6
464.754	15123.57
464.959	15029.36
465.165	15146.09
465.37	14331
465.575	13929.6
465.781	14402.68
465.986	14654.58
466.191	14288
466.397	13962.37
466.602	13067.41
466.807	13464.71
467.012	13739.14
467.218	13698.18
467.423	13558.92
467.628	13589.64
467.833	14290.04
468.038	13374.6
468.244	13137.04
468.449	13532.29
468.654	13354.12
468.859	13255.82
469.064	12792.98
469.269	12760.21
469.474	12643.48
469.679	12815.51
469.885	12412.06
470.09	12573.85
470.295	12786.83
470.5	12504.21
470.705	12375.19
470.91	12299.42
471.115	11846.82
471.32	12190.88
471.525	11914.4
471.73	12113.05
471.935	11840.67
472.139	11383.98
472.344	11521.19
472.549	11347.11
472.754	11383.98
472.959	11271.34
473.164	10972.33
473.369	10697.91
473.574	11246.76
473.778	11103.4
473.983	10798.26
474.188	10943.66
474.393	10384.57
474.598	10411.19
474.802	10233.02
475.007	10206.39
475.212	10296.5
475.417	9864.38
475.621	9839.81
475.826	10177.72
476.031	9796.8
476.235	9673.92
476.44	9694.4
476.645	9604.29
476.849	9540.8
477.054	9524.42
477.259	9358.53
477.463	9469.12
477.668	9014.48
477.872	9280.71
478.077	9004.24
478.282	8778.96
478.486	8787.15
478.691	8762.58
478.895	8606.93
479.1	8758.48
479.304	8672.47
479.509	8436.95
479.713	8639.7
479.918	8404.18
480.122	8322.26
480.326	8322.26
480.531	8264.92
480.735	8211.67
480.94	8131.8
481.144	8346.84
481.348	7871.71
481.553	8203.48
481.757	7965.92
481.961	8254.68
482.166	8191.19
482.37	8111.32
482.574	8123.61
482.778	7902.43
482.983	8230.1
483.187	8006.88
483.391	8017.11
483.595	7986.4
483.8	8019.16
484.004	8006.88
484.208	8015.07
484.412	8045.79
484.616	8021.21
484.821	7896.28
485.025	8133.85
485.229	8072.41
485.433	8043.74
485.637	7978.2
485.841	7957.72
486.045	7984.35
486.249	8053.98
486.453	8017.11
486.657	7871.71
486.861	8164.57
487.065	7830.75
487.269	7984.35
487.473	7943.39
487.677	8080.6
487.881	8115.42
488.085	7974.11
488.289	8168.66
488.493	8187.1
488.697	7943.39
488.901	8135.9
489.105	7947.48
489.309	8129.75
489.512	8156.38
489.716	8154.33
489.92	8176.86
490.124	8119.51
490.328	8189.14
490.531	8191.19
490.735	8309.97
490.939	8252.63
491.143	8107.23
491.346	8330.45
491.55	8639.7
491.754	8383.7
491.958	8369.37
492.161	8502.48
492.365	8510.68
492.569	8522.96
492.772	8531.16
492.976	8602.83
493.18	8764.62
493.383	8862.93
493.587	8778.96
493.79	8948.94
493.994	8940.75
494.197	8914.13
494.401	9129.16
494.605	8772.82
494.808	9190.6
495.012	9307.34
495.215	9264.33
495.419	9407.69
495.622	9211.08
495.825	9442.5
496.029	9581.76
496.232	9583.81
496.436	9700.55
496.639	9905.34
496.843	9987.26
497.046	10128.57
497.249	10190.01
497.453	10286.26
497.656	10353.85
497.859	10534.07
498.063	10493.11
498.266	10724.53
498.469	10843.31
498.673	10931.37
498.876	11068.59
499.079	11025.58
499.282	11082.92
499.485	11541.67
499.689	11263.15
499.892	11568.29
500.095	11775.14
500.298	11857.06
500.501	11943.07
500.705	11926.69
500.908	12270.75
501.111	12606.61
501.314	12692.63
501.517	12651.67
501.72	12897.42
501.923	12764.31
502.126	13042.83
502.329	13472.9
502.532	13403.27
502.735	13685.89
502.938	13884.55
503.141	13894.79
503.344	14234.75
503.547	14146.69
503.75	14494.84
503.953	14775.41
504.156	14730.36
504.359	15172.72
504.562	15002.74
504.765	15514.73
504.968	15658.09
505.17	15645.8
505.373	15955.04
505.576	16006.24
505.779	16317.53
505.982	16295
506.185	16761.94
506.387	16911.44
506.59	17273.93
506.793	17235.02
506.996	17357.9
507.198	17898.56
507.401	17949.76
507.604	17921.09
507.807	18285.63
508.009	18476.09
508.212	18981.94
508.415	18949.17
508.617	19225.65
508.82	19137.59
509.022	19430.44
509.225	20360.22
509.428	20087.84
509.63	20100.13
509.833	20403.23
510.035	20683.8
510.238	20935.7
510.44	21220.37
510.643	21271.57
510.845	21955.59
511.048	21697.55
511.25	22281.22
511.453	22238.21
511.655	23167.99
511.858	22760.44
512.06	23122.93
512.262	23428.08
512.465	23329.78
512.667	23813.1
512.87	24196.07
513.072	24286.18
513.274	24691.68
513.477	25000.92
513.679	25506.77
513.881	25514.96
514.084	25893.83
514.286	25899.98
514.488	26258.37
514.69	27255.73
514.893	26788.8
515.095	27278.26
515.297	27603.89
515.499	27603.89
515.701	28076.97
515.904	28468.13
516.106	28621.73
516.308	29201.3
516.51	29311.89
516.712	29348.76
516.914	29836.17
517.116	30387.08
517.318	30112.65
517.52	30929.79
517.722	30858.11
517.925	31239.03
518.127	31781.74
518.329	31728.5
518.531	31679.35
518.733	32602.98
518.935	32990.05
519.136	32686.95
519.338	33303.39
519.54	33651.54
519.742	33751.89
519.944	34108.24
520.146	34493.25
520.348	35025.73
520.55	34925.38
520.752	35621.69
520.954	35865.39
521.155	35582.77
521.357	36004.66
521.559	36717.35
521.761	37008.16
521.963	36850.47
522.164	37088.03
522.366	37589.78
522.568	38288.14
522.77	38292.24
522.971	38693.64
523.173	38212.37
523.375	38816.52
523.576	38937.35
523.778	39244.54
523.98	39768.82
524.181	40162.03
524.383	40092.4
524.584	40577.77
524.786	40381.17
524.988	40946.4
525.189	41173.73
525.391	41353.95
525.592	41388.77
525.794	41673.43
525.995	41581.27
526.197	41861.85
526.398	42140.37
526.6	42547.92
526.801	42590.92
527.003	42707.66
527.204	43004.61
527.406	43324.1
527.607	43121.35
527.808	43733.69
528.01	42986.18
528.211	43520.7
528.412	44081.84
528.614	43702.97
528.815	43823.8
529.016	44473.01
529.218	44114.61
529.419	44509.87
529.62	44323.5
529.822	44188.34
530.023	44749.48
530.224	44585.64
530.425	44935.85
530.626	44477.1
530.828	44651.18
531.029	45697.69
531.23	44618.41
531.431	44825.26
531.632	45189.8
531.833	45486.75
532.035	45281.95
532.236	45513.37
532.437	45460.13
532.638	45230.76
532.839	45529.76
533.04	46002.84
533.241	45230.76
533.442	45933.21
533.643	45722.27
533.844	45556.38
534.045	45980.31
534.246	45413.02
534.447	46246.55
534.648	45775.51
534.849	46072.47
535.05	45718.17
535.251	46023.32
535.451	46285.46
535.652	46051.99
535.853	46187.16
536.054	46240.4
536.255	46074.52
536.456	45593.25
536.657	46545.55
536.857	45865.63
537.058	45824.67
537.259	46453.39
537.46	46424.72
537.66	46140.05
537.861	46662.29
538.062	45703.84
538.263	46170.77
538.463	46498.45
538.664	46015.13
538.865	46516.88
539.065	46377.62
539.266	45449.89
539.466	46768.78
539.667	45490.85
539.868	46578.32
540.068	46594.7
540.269	46092.95
540.469	46416.53
540.67	46060.18
540.87	46350.99
541.071	46412.43
541.271	46160.53
541.472	46086.81
541.672	45931.16
541.873	46119.57
542.073	45834.91
542.274	46783.12
542.474	46486.16
542.675	46113.43
542.875	46633.61
543.075	46088.85
543.276	45619.87
543.476	46445.2
543.676	46140.05
543.877	46138.01
544.077	46394
544.277	46432.91
544.478	46373.52
544.678	46086.81
544.878	46115.48
545.078	46092.95
545.279	45877.91
545.479	45802.14
545.679	45845.15
545.879	45925.02
546.079	46129.81
546.28	46115.48
546.48	45660.83
546.68	46277.27
546.88	46033.56
547.08	46318.23
547.28	46041.75
547.48	45841.05
547.68	45857.43
547.88	45898.39
548.081	46170.77
548.281	46119.57
548.481	46011.03
548.681	46172.82
548.881	46236.31
549.081	46164.63
549.28	45761.18
549.48	46711.44
549.68	46305.94
549.88	46484.11
550.08	45632.16
550.28	46097.05
550.48	46080.66
550.68	46445.2
550.88	45920.92
551.08	45984.41
551.279	46006.94
551.479	45705.88
551.679	45871.77
551.879	45687.45
552.079	46006.94
552.278	45744.8
552.478	46031.51
552.678	45789.85
552.878	46285.46
553.077	45595.29
553.277	45730.46
553.477	46330.51
553.676	45546.14
553.876	45771.42
554.076	45554.33
554.275	45654.68
554.475	44927.66
554.674	45623.97
554.874	45822.62
555.074	45959.83
555.273	45791.9
555.473	45413.02
555.672	45845.15
555.872	45384.35
556.071	45374.11
556.271	45525.66
556.47	45484.7
556.67	44753.58
556.869	45075.11
557.068	45533.85
557.268	44862.12
557.467	45097.64
557.667	44876.46
557.866	44948.14
558.065	45214.37
558.265	44751.53
558.464	44511.92
558.663	45578.91
558.863	44606.12
559.062	44995.24
559.261	44444.34
559.461	44870.31
559.66	44350.13
559.859	44407.47
560.058	44131
560.258	44567.21
560.457	44004.02
560.656	44581.55
560.855	44225.2
561.054	44520.11
561.253	43823.8
561.453	44042.93
561.652	44217.01
561.851	43745.98
562.05	43940.53
562.249	43793.08
562.448	44012.21
562.647	44030.65
562.846	44055.22
563.045	44094.13
563.244	43512.51
563.443	44147.38
563.642	42779.34
563.841	43479.74
564.04	43162.31
564.239	43516.61
564.438	43082.44
564.637	43516.61
564.836	43090.63
565.035	42701.51
565.234	43213.51
565.432	42816.2
565.631	42779.34
565.83	43016.9
566.029	42818.25
566.228	42822.34
566.427	42713.8
566.625	42513.1
566.824	42371.79
567.023	42549.96
567.222	41978.58
567.42	42388.17
567.619	42463.95
567.818	42054.36
568.016	41880.28
568.215	42312.4
568.414	41962.2
568.612	42169.04
568.811	41788.12
569.01	41712.34
569.208	41007.84
569.407	41849.56
569.605	40950.5
569.804	41456.35
570.002	40907.49
570.201	41657.05
570.4	40825.57
570.598	41044.71
570.797	40688.36
570.995	40717.03
571.193	40366.83
571.392	40960.74
571.59	40248.05
571.789	40418.03
571.987	40665.83
572.186	40147.7
572.384	40047.35
572.582	39914.23
572.781	40174.32
572.979	39740.15
573.177	39815.93
573.376	39983.86
573.574	39320.32
573.772	39473.91
573.971	39244.54
574.169	39009.03
574.367	38849.28
574.565	39314.17
574.763	38685.45
574.962	38908.68
575.16	38521.61
575.358	38816.52
575.556	38441.74
575.754	38931.2
575.952	38032.14
576.151	38615.82
576.349	38191.89
576.547	38216.46
576.745	38132.5
576.943	38138.64
577.141	37942.03
577.339	37600.02
577.537	38038.29
577.735	37352.22
577.933	37454.62
578.131	37253.92
578.329	37258.01
578.527	37448.47
578.725	37151.52
578.923	37264.16
579.121	37036.83
579.319	36680.49
579.516	36965.15
579.714	36490.02
579.912	36473.64
580.11	36391.72
580.308	36344.62
580.506	36422.44
580.704	36027.18
580.901	36318
581.099	36062
581.297	35945.26
581.495	35519.29
581.692	35947.31
581.89	35537.72
582.088	35685.17
582.285	35023.68
582.483	35760.95
582.681	35418.94
582.878	34886.46
583.076	34550.6
583.274	35332.92
583.471	34691.91
583.669	34648.9
583.866	34569.03
584.064	34587.46
584.262	34120.52
584.459	34896.7
584.657	34138.96
584.854	34579.27
585.052	33657.68
585.249	34063.18
585.447	34048.85
585.644	33641.3
585.841	33741.65
586.039	33866.58
586.236	33454.93
586.434	33301.34
586.631	32906.08
586.828	33518.42
587.026	33477.46
587.223	33444.69
587.42	32942.94
587.618	33160.03
587.815	32439.14
588.012	32975.71
588.21	32408.42
588.407	33022.81
588.604	32420.71
588.801	32220.01
588.999	32525.16
589.196	32379.75
589.393	31970.16
589.59	31996.78
589.787	31812.46
589.984	31634.29
590.182	31587.19
590.379	31832.94
590.576	31417.21
590.773	31714.16
590.97	31091.58
591.167	30892.93
591.364	31019.9
591.561	31269.75
591.758	30960.51
591.955	30944.13
592.152	31269.75
592.349	30614.4
592.546	30792.58
592.743	30800.77
592.94	30172.04
593.137	30538.63
593.334	30622.59
593.531	29680.53
593.727	30301.06
593.924	30114.7
594.121	29600.66
594.318	30176.14
594.515	29639.57
594.712	29914
594.908	29791.12
595.105	29760.4
595.302	29365.14
595.499	29754.26
595.696	29176.73
595.892	29238.17
596.089	29528.98
596.286	29315.99
596.482	29275.03
596.679	29121.43
596.876	29119.38
597.072	29062.04
597.269	29068.19
597.466	28144.55
597.662	28500.9
597.859	28871.58
598.055	28877.72
598.252	27999.15
598.448	28001.19
598.645	28103.59
598.841	28165.03
599.038	28285.86
599.234	28021.67
599.431	28029.87
599.627	27737.01
599.824	27976.62
600.02	27388.85
600.217	27497.39
600.413	27474.87
600.609	27683.76
600.806	27513.78
601.002	27528.11
601.198	27423.67
601.395	27122.62
601.591	27104.18
601.787	26782.65
601.984	26817.47
602.18	27079.61
602.376	26567.62
602.572	26631.1
602.769	26508.22
602.965	26483.65
603.161	26182.6
603.357	26287.04
603.553	25940.94
603.75	26031.05
603.946	25664.46
604.142	25871.31
604.338	25600.97
604.534	25766.86
604.73	25566.16
604.926	25467.86
605.122	25498.58
605.318	25340.88
605.514	24998.87
605.71	25213.91
605.906	25144.28
606.102	24865.75
606.298	25076.69
606.494	24949.72
606.69	24894.43
606.886	24888.28
607.082	24755.16
607.278	24806.36
607.474	24108.01
607.67	24411.1
607.866	24159.2
608.062	24638.43
608.257	24273.89
608.453	24605.66
608.649	24312.8
608.845	23884.78
609.041	24060.9
609.236	23978.98
609.432	23686.12
609.628	23811.05
609.824	23663.6
610.019	23473.14
610.215	23550.96
610.411	23538.67
610.606	23448.56
610.802	23688.17
610.998	23493.61
611.193	23608.3
611.389	23010.29
611.584	22836.22
611.78	23055.35
611.976	22852.6
612.171	23022.58
612.367	23010.29
612.562	22739.96
612.758	22914.04
612.953	22348.8
613.149	22703.1
613.344	22565.88
613.539	22877.18
613.735	22311.94
613.93	22563.84
614.126	22385.66
614.321	22680.57
614.517	22131.72
614.712	22383.62
614.907	21773.32
615.103	22080.52
615.298	21787.66
615.493	22330.37
615.688	22049.8
615.884	22033.41
616.079	21845
616.274	21722.12
616.47	21455.89
616.665	21740.55
616.86	21568.52
617.055	21380.11
617.25	21378.06
617.445	21562.38
617.641	21072.92
617.836	21529.61
618.031	21052.44
618.226	21300.24
618.421	21197.84
618.616	21273.62
618.811	20696.09
619.006	20954.13
619.201	20503.58
619.396	20614.17
619.591	20444.19
619.786	21027.86
619.981	20059.17
620.176	20522.01
620.371	20046.88
620.566	19823.65
620.761	20077.6
620.956	19995.68
621.151	19827.75
621.346	19893.29
621.541	19383.34
621.735	19905.57
621.93	19457.07
622.125	19420.2
622.32	19010.61
622.515	19219.5
622.709	18957.36
622.904	19070
623.099	18773.05
623.294	18861.11
623.488	18660.41
623.683	18840.63
623.878	18424.89
624.072	18588.73
624.267	18363.45
624.462	18594.87
624.656	18048.07
624.851	18136.13
625.046	18058.31
625.24	17679.43
625.435	17804.36
625.629	17650.76
625.824	17503.31
626.018	17726.53
626.213	17089.62
626.407	17241.17
626.602	17376.33
626.796	17005.65
626.991	17132.62
627.185	16944.21
627.38	16991.31
627.574	16585.82
627.768	16520.28
627.963	16692.31
628.157	16354.4
628.352	16385.12
628.546	16186.46
628.74	16403.55
628.935	16112.74
629.129	16151.65
629.323	15871.08
629.517	16034.91
629.712	15926.37
629.906	15674.47
630.1	15459.43
630.294	15653.99
630.489	15625.32
630.683	15606.89
630.877	15035.5
631.071	15303.79
631.265	15393.9
631.459	15101.04
631.653	14961.78
631.848	14863.47
632.042	14947.44
632.236	14873.71
632.43	14587
632.624	14697.59
632.818	14593.14
633.012	14247.04
633.206	14204.03
633.4	14507.13
633.594	14208.12
633.788	14429.31
633.982	14212.22
634.176	14193.79
634.369	13988.99
634.563	13978.75
634.757	13958.27
634.951	14064.77
635.145	13614.21
635.339	13563.01
635.533	13450.38
635.726	13724.8
635.92	13300.87
636.114	13419.66
636.308	13477
636.501	13046.93
636.695	13390.99
636.889	13370.51
637.083	13196.43
637.276	12932.24
637.47	13120.65
637.664	12833.94
637.857	12786.83
638.051	12579.99
638.244	12672.15
638.438	12700.82
638.632	12459.16
638.825	12633.24
639.019	12424.34
639.212	12256.41
639.406	12356.76
639.599	12450.97
639.793	11904.16
639.986	11877.54
640.18	12127.39
640.373	11926.69
640.567	11930.78
640.76	11879.58
640.954	11893.92
641.147	11527.33
641.34	11666.6
641.534	11693.22
641.727	11668.64
641.92	11465.89
642.114	11400.36
642.307	11437.22
642.5	11345.06
642.694	11261.1
642.887	11195.56
643.08	11271.34
643.273	11019.44
643.467	10917.04
643.66	11011.25
643.853	10896.56
644.046	10646.71
644.239	10843.31
644.432	10548.4
644.626	10726.58
644.819	10638.51
645.012	10595.51
645.205	10566.84
645.398	10458.29
645.591	10196.15
645.784	10222.78
645.977	10374.33
646.17	9993.4
646.363	10052.8
646.556	9897.15
646.749	10060.99
646.942	9848
647.135	9772.22
647.328	9647.3
647.521	9610.43
647.714	9680.07
647.907	9755.84
648.099	9678.02
648.292	9770.18
648.485	9426.12
648.678	9336.01
648.871	9157.83
649.064	9221.32
649.256	9315.53
649.449	9168.07
649.642	8977.61
649.835	9075.91
650.027	8856.78
650.22	8873.17
650.413	8944.84
650.605	8795.34
650.798	8942.8
650.991	8643.79
651.183	8606.93
651.376	8588.5
651.568	8641.75
651.761	8518.87
651.954	8389.85
652.146	8402.13
652.339	8375.51
652.531	8373.46
652.724	8436.95
652.916	8117.47
653.109	8260.82
653.301	8115.42
653.494	8070.36
653.686	8017.11
653.879	7881.95
654.071	8047.83
654.263	7814.37
654.456	7943.39
654.648	7683.3
654.84	7701.73
655.033	7666.91
655.225	7646.43
655.417	7605.47
655.61	7392.48
655.802	7468.26
655.994	7359.72
656.186	7421.16
656.379	7374.05
656.571	7419.11
656.763	7179.5
656.955	6991.08
657.148	7038.19
657.34	7036.14
657.532	7075.05
657.724	6845.68
657.916	7013.61
658.108	6870.25
658.3	6970.6
658.492	6804.72
658.684	6784.24
658.876	6751.47
659.068	6700.27
659.26	6597.87
659.452	6790.38
659.644	6538.48
659.836	6511.86
660.028	6507.76
660.22	6305.01
660.412	6352.12
660.604	6247.67
660.796	6135.03
660.988	6239.48
661.18	6040.83
661.372	6130.94
661.563	6108.41
661.755	6085.88
661.947	6008.06
662.139	6032.63
662.331	6022.39
662.522	5954.81
662.714	5772.54
662.906	5768.45
663.097	5985.53
663.289	5799.16
663.481	5580.03
663.673	5698.81
663.864	5737.73
664.056	5719.29
664.247	5604.61
664.439	5569.79
664.631	5506.31
664.822	5553.41
665.014	5401.86
665.205	5487.87
665.397	5297.41
665.588	5502.21
665.78	5256.45
665.971	5371.14
666.163	5276.93
666.354	5217.54
666.546	5137.67
666.737	5092.62
666.929	5254.41
667.12	5063.94
667.311	5078.28
667.503	5199.11
667.694	5119.24
667.885	5033.22
668.077	4838.67
668.268	4945.16
668.459	4990.22
668.651	4855.05
668.842	4902.15
669.033	4766.99
669.224	4629.77
669.416	4785.42
669.607	4814.09
669.798	4723.98
669.989	4836.62
670.18	4637.97
670.371	4746.51
670.563	4629.77
670.754	4486.42
670.945	4478.23
671.136	4554
671.327	4572.43
671.518	4435.22
671.709	4431.12
671.9	4457.75
672.091	4486.42
672.282	4467.99
672.473	4302.1
672.664	4486.42
672.855	4459.79
673.046	4379.92
673.237	4283.67
673.428	4392.21
673.619	4324.63
673.809	4263.19
674	4168.98
674.191	4238.61
674.382	4093.21
674.573	4158.74
674.764	4044.06
674.954	4166.93
675.145	4168.98
675.336	4089.11
675.527	4181.27
675.717	4177.17
675.908	4054.3
676.099	3982.62
676.289	4025.62
676.48	4007.19
676.671	3908.89
676.861	3927.32
677.052	3900.7
677.243	3937.56
677.433	3921.18
677.624	3781.92
677.814	3906.84
678.005	3853.59
678.195	3839.26
678.386	3847.45
678.576	3786.01
678.767	3753.24
678.957	3661.09
679.148	3734.81
679.338	3730.72
679.529	3880.22
679.719	3702.04
679.909	3718.43
680.1	3779.87
680.29	3695.9
680.481	3704.09
680.671	3820.83
680.861	3652.89
681.052	3548.45
681.242	3728.67
681.432	3589.41
681.622	3636.51
681.813	3446.05
682.003	3558.69
682.193	3525.92
682.383	3554.59
682.573	3542.3
682.764	3599.65
682.954	3616.03
683.144	3484.96
683.334	3579.17
683.524	3568.93
683.714	3601.69
683.904	3446.05
684.094	3415.33
684.284	3419.43
684.474	3448.1
684.664	3444
684.854	3419.43
685.044	3415.33
685.234	3347.75
685.424	3478.82
685.614	3538.21
685.804	3421.47
685.994	3464.48
686.184	3458.34
686.374	3419.43
686.564	3333.41
686.753	3458.34
686.943	3364.13
687.133	3466.53
687.323	3341.6
687.513	3337.51
687.702	3380.51
687.892	3280.16
688.082	3331.36
688.272	3323.17
688.461	3233.06
688.651	3255.59
688.841	3306.79
689.03	3298.6
689.22	3243.3
689.41	3257.64
689.599	3267.88
689.789	3243.3
689.979	3228.96
690.168	3341.6
690.358	3128.61
690.547	3263.78
690.737	3304.74
690.926	3132.71
691.116	3128.61
691.305	3169.57
691.495	3265.83
691.684	3165.48
691.874	3192.1
692.063	3171.62
692.252	3206.44
692.442	3093.8
692.631	3202.34
692.82	3208.48
693.01	3085.61
693.199	3130.66
693.388	3194.15
693.578	3005.74
693.767	3147.05
693.956	3132.71
694.146	3171.62
694.335	3243.3
694.524	3167.53
694.713	3147.05
694.902	3241.25
695.092	3202.34
695.281	3167.53
695.47	3228.96
695.659	3087.65
695.848	3101.99
696.037	3038.5
696.226	3167.53
696.415	3173.67
696.604	3122.47
696.793	3007.78
696.982	2995.5
697.171	3171.62
697.36	3183.91
697.549	3028.26
697.738	3145
697.927	2940.2
698.116	3065.13
698.305	2987.3
698.494	3132.71
698.683	3122.47
698.872	3067.17
699.061	3038.5
699.25	2993.45
699.438	2919.72
699.627	2934.06
699.816	3118.37
700.005	2954.54
700.193	2995.5
700.382	2944.3
700.571	2909.48
700.76	3048.74
700.948	2911.53
701.137	3020.07
701.326	3001.64
701.514	2891.05
701.703	3011.88
701.892	3061.03
702.08	2940.2
702.269	2843.95
702.457	2759.98
702.646	2856.23
702.834	2995.5
703.023	2929.96
703.212	2827.56
703.4	2800.94
703.589	2897.19
703.777	2891.05
703.965	2874.67
704.154	2919.72
704.342	2798.89
704.531	2819.37
704.719	2833.71
704.907	2725.16
705.096	2688.3
705.284	2874.67
705.472	2727.21
705.661	2790.7
705.849	2845.99
706.037	2764.08
706.226	2661.68
706.414	2714.92
706.602	2745.64
706.79	2778.41
706.979	2624.81
707.167	2723.12
707.355	2665.77
707.543	2659.63
707.731	2561.33
707.919	2757.93
708.107	2534.7
708.296	2551.09
708.484	2608.43
708.672	2594.09
708.86	2612.53
709.048	2573.61
709.236	2489.65
709.424	2606.38
709.612	2520.37
709.8	2546.99
709.988	2508.08
710.176	2530.61
710.364	2581.81
710.551	2456.88
710.739	2485.55
710.927	2426.16
711.115	2514.22
711.303	2422.06
711.491	2403.63
711.679	2448.69
711.866	2477.36
712.054	2366.77
712.242	2422.06
712.43	2446.64
712.617	2303.28
712.805	2348.34
712.993	2391.34
713.181	2340.15
713.368	2379.06
713.556	2260.27
713.744	2235.7
713.931	2348.34
714.119	2385.2
714.306	2237.75
714.494	2311.47
714.682	2362.67
714.869	2180.4
715.057	2196.79
715.244	2317.62
715.432	2178.36
715.619	2223.41
715.807	2207.03
715.994	2211.12
716.182	2164.02
716.369	2176.31
716.556	2235.7
716.744	2143.54
716.931	2155.83
717.119	2196.79
717.306	2096.44
717.493	2211.12
717.681	2129.2
717.868	2092.34
718.055	2090.29
718.242	2055.48
718.43	2032.95
718.617	2069.81
718.804	2039.09
718.991	2092.34
719.179	2032.95
719.366	2065.72
719.553	1951.03
719.74	1957.18
719.927	1897.78
720.114	1891.64
720.301	1967.42
720.488	2030.9
720.676	1983.8
720.863	1897.78
721.05	1930.55
721.237	1979.7
721.424	1975.61
721.611	1858.87
721.798	1985.85
721.985	1865.02
722.172	1924.41
722.358	1946.94
722.545	1953.08
722.732	1883.45
722.919	1905.98
723.106	1846.59
723.293	1981.75
723.48	1711.42
723.667	1840.44
723.853	1817.91
724.04	1848.63
724.227	1768.76
724.414	1801.53
724.6	1783.1
724.787	1727.8
724.974	1717.56
725.161	1645.88
725.347	1699.13
725.534	1692.99
725.72	1617.21
725.907	1758.52
726.094	1641.79
726.28	1678.65
726.467	1635.64
726.653	1623.36
726.84	1662.27
727.027	1699.13
727.213	1574.21
727.4	1721.66
727.586	1596.73
727.773	1594.69
727.959	1656.12
728.145	1623.36
728.332	1635.64
728.518	1553.73
728.705	1545.53
728.891	1563.97
729.077	1523.01
729.264	1602.88
729.45	1551.68
729.636	1541.44
729.823	1523.01
730.009	1469.76
730.195	1539.39
730.382	1514.81
730.568	1459.52
730.754	1535.29
730.94	1506.62
731.126	1570.11
731.313	1506.62
731.499	1453.38
731.685	1430.85
731.871	1393.98
732.057	1508.67
732.243	1363.26
732.429	1426.75
732.615	1494.33
732.801	1459.52
732.987	1496.38
733.173	1490.24
733.359	1508.67
733.545	1381.7
733.731	1353.02
733.917	1428.8
734.103	1430.85
734.289	1496.38
734.475	1373.5
734.661	1441.09
734.847	1350.98
735.033	1342.78
735.219	1357.12
735.404	1383.74
735.59	1389.89
735.776	1269.06
735.962	1363.26
736.148	1310.02
736.333	1334.59
736.519	1357.12
736.705	1283.39
736.89	1328.45
737.076	1287.49
737.262	1232.19
737.447	1205.57
737.633	1406.27
737.819	1303.87
738.004	1275.2
738.19	1234.24
738.375	1273.15
738.561	1287.49
738.747	1232.19
738.932	1256.77
739.118	1244.48
739.303	1203.52
739.489	1264.96
739.674	1217.86
739.859	1170.76
740.045	1244.48
740.23	1178.95
740.416	1160.52
740.601	1287.49
740.786	1176.9
740.972	1097.03
741.157	1123.65
741.342	1164.61
741.528	1209.67
741.713	1209.67
741.898	1080.64
742.084	1144.13
742.269	1150.28
742.454	1201.48
742.639	1142.08
742.824	1074.5
743.01	1109.32
743.195	1123.65
743.38	1062.21
743.565	1006.92
743.75	1144.13
743.935	1078.6
744.12	1066.31
744.305	1025.35
744.49	1035.59
744.675	1060.17
744.86	1074.5
745.045	978.25
745.23	1019.21
745.415	1121.6
745.6	984.39
745.785	951.62
745.97	974.15
746.155	1019.21
746.34	1013.06
746.525	988.49
746.71	994.63
746.895	963.91
747.079	992.58
747.264	978.25
747.449	929.1
747.634	941.38
747.819	1047.88
748.003	980.29
748.188	933.19
748.373	925
748.557	947.53
748.742	914.76
748.927	863.56
749.111	935.24
749.296	933.19
749.481	879.94
749.665	873.8
749.85	838.98
750.034	812.36
750.219	818.5
750.404	845.13
750.588	812.36
750.773	816.46
750.957	818.5
751.141	814.41
751.326	834.89
751.51	787.79
751.695	859.46
751.879	802.12
752.064	853.32
752.248	730.44
752.432	806.22
752.617	800.07
752.801	750.92
752.985	800.07
753.17	791.88
753.354	777.55
753.538	752.97
753.722	759.11
753.907	779.59
754.091	748.87
754.275	689.48
754.459	699.72
754.643	783.69
754.828	814.41
755.012	732.49
755.196	759.11
755.38	726.35
755.564	718.15
755.748	734.54
755.932	724.3
756.116	730.44
756.3	748.87
756.484	685.39
756.668	773.45
756.852	619.85
757.036	677.2
757.22	646.48
757.404	738.63
757.588	732.49
757.772	685.39
757.956	603.47
758.14	750.92
758.323	662.86
758.507	623.95
758.691	632.14
758.875	634.19
759.059	742.73
759.242	644.43
759.426	644.43
759.61	693.58
759.794	703.82
759.977	626
760.161	646.48
760.345	640.33
760.528	652.62
760.712	617.8
760.895	578.89
761.079	650.57
761.263	585.04
761.446	591.18
761.63	585.04
761.813	554.32
761.997	595.28
762.18	585.04
762.364	562.51
762.547	515.41
762.731	488.78
762.914	505.17
763.098	599.37
763.281	591.18
763.464	570.7
763.648	595.28
763.831	574.8
764.015	552.27
764.198	505.17
764.381	595.28
764.564	496.97
764.748	476.49
764.931	546.13
765.114	527.69
765.297	529.74
765.481	552.27
765.664	593.23
765.847	580.94
766.03	597.32
766.213	447.82
766.397	564.56
766.58	511.31
766.763	533.84
766.946	617.8
767.129	539.98
767.312	527.69
767.495	537.93
767.678	531.79
767.861	488.78
768.044	488.78
768.227	525.65
768.41	537.93
768.593	462.16
768.776	490.83
768.959	558.41
769.142	537.93
769.324	425.29
769.507	474.45
769.69	484.69
769.873	449.87
770.056	445.77
770.239	447.82
770.421	529.74
770.604	451.92
770.787	406.86
770.97	462.16
771.152	568.65
771.335	537.93
771.518	558.41
771.7	460.11
771.883	527.69
772.066	415.06
772.248	482.64
772.431	474.45
772.613	419.15
772.796	468.3
772.978	451.92
773.161	505.17
773.343	404.82
773.526	443.73
773.708	433.49
773.891	443.73
774.073	435.53
774.256	472.4
774.438	400.72
774.621	417.1
774.803	464.21
774.985	447.82
775.168	531.79
775.35	451.92
775.532	488.78
775.715	443.73
775.897	374.1
776.079	353.62
776.261	417.1
776.444	345.42
776.626	456.01
776.808	437.58
776.99	415.06
777.173	380.24
777.355	427.34
777.537	419.15
777.719	370
777.901	370
778.083	447.82
778.265	347.47
778.447	353.62
778.629	382.29
778.811	378.19
778.993	333.14
779.175	374.1
779.357	304.46
779.539	372.05
779.721	394.58
779.903	365.9
780.085	333.14
780.267	347.47
780.449	402.77
780.631	431.44
780.812	331.09
780.994	310.61
781.176	359.76
781.358	392.53
781.54	392.53
781.721	410.96
781.903	283.99
782.085	308.56
782.267	310.61
782.448	376.14
782.63	316.75
782.812	286.03
782.993	281.94
783.175	333.14
783.357	273.75
783.538	329.04
783.72	376.14
783.901	259.41
784.083	234.83
784.264	343.38
784.446	277.84
784.627	228.69
784.809	271.7
784.99	333.14
785.172	283.99
785.353	238.93
785.535	304.46
785.716	310.61
785.897	320.85
786.079	283.99
786.26	230.74
786.441	286.03
786.623	300.37
786.804	134.48
786.985	210.26
787.167	326.99
787.348	232.79
787.529	251.22
787.71	283.99
787.891	226.64
788.073	277.84
788.254	255.31
788.435	275.79
788.616	144.72
788.797	294.22
788.978	245.07
789.159	183.63
789.34	181.59
789.522	185.68
789.703	281.94
789.884	267.6
790.065	236.88
790.246	261.46
790.427	245.07
790.607	240.98
790.788	107.86
790.969	269.65
791.15	234.83
791.331	288.08
791.512	177.49
791.693	218.45
791.874	283.99
792.054	214.35
792.235	187.73
792.416	144.72
792.597	191.83
792.778	232.79
792.958	195.92
793.139	212.31
793.32	152.92
793.5	159.06
793.681	247.12
793.862	167.25
794.042	146.77
794.223	214.35
794.404	163.15
794.584	152.92
794.765	167.25
794.945	136.53
795.126	136.53
795.306	234.83
795.487	144.72
795.667	134.48
795.848	208.21
796.028	238.93
796.209	193.87
796.389	136.53
796.57	204.11
796.75	99.67
796.93	204.11
797.111	169.3
797.291	175.44
797.471	193.87
797.652	152.92
797.832	107.86
798.012	181.59
798.192	150.87
798.373	163.15
798.553	161.11
798.733	161.11
798.913	161.11
799.093	195.92
799.274	154.96
799.454	177.49
799.634	187.73
799.814	140.63
799.994	54.61
800.174	144.72
800.354	157.01
800.534	116.05
800.714	105.81
800.894	210.26
801.074	159.06
801.254	243.03
801.434	226.64
801.614	89.43
801.794	146.77
801.974	374.1
802.154	128.34
802.334	138.58
802.514	95.57
802.693	140.63
802.873	120.15
803.053	124.24
803.233	189.78
803.413	60.76
803.592	134.48
803.772	116.05
803.952	105.81
804.131	148.82
804.311	152.92
804.491	130.39
804.67	132.44
804.85	140.63
805.03	218.45
805.209	89.43
805.389	138.58
805.568	124.24
805.748	152.92
805.928	122.2
806.107	136.53
806.287	89.43
806.466	157.01
806.646	130.39
806.825	130.39
807.004	124.24
807.184	159.06
807.363	161.11
807.543	103.76
807.722	116.05
807.901	32.08
808.081	87.38
808.26	79.19
808.439	120.15
808.619	120.15
808.798	128.34
808.977	136.53
809.156	50.52
809.336	71
809.515	99.67
809.694	136.53
809.873	99.67
810.052	103.76
810.231	87.38
810.411	83.28
810.59	144.72
810.769	54.61
810.948	175.44
811.127	169.3
811.306	95.57
811.485	44.37
811.664	130.39
811.843	85.33
812.022	114
812.201	85.33
812.38	116.05
812.559	54.61
812.737	111.96
812.916	79.19
813.095	107.86
813.274	73.04
813.453	111.96
813.632	107.86
813.811	95.57
813.989	11.61
814.168	36.18
814.347	68.95
814.526	34.13
814.704	32.08
814.883	105.81
815.062	48.47
815.24	171.35
815.419	83.28
815.598	187.73
815.776	138.58
815.955	75.09
816.133	73.04
816.312	83.28
816.49	58.71
816.669	128.34
816.847	114
817.026	126.29
817.204	64.85
817.383	40.28
817.561	30.04
817.74	64.85
817.918	99.67
818.097	15.7
818.275	27.99
818.453	89.43
818.632	124.24
818.81	42.32
818.988	64.85
819.167	103.76
819.345	48.47
819.523	27.99
819.701	105.81
819.879	114
820.058	93.52
820.236	66.9
820.414	38.23
820.592	132.44
820.77	40.28
820.948	89.43
821.127	-23.21
821.305	9.56
821.483	103.76
821.661	103.76
821.839	136.53
822.017	93.52
822.195	71
822.373	54.61
822.551	-2.73
822.729	64.85
822.907	40.28
823.085	114
823.262	34.13
823.44	71
823.618	42.32
823.796	46.42
823.974	126.29
824.152	52.56
824.329	73.04
824.507	114
824.685	97.62
824.863	66.9
825.04	71
825.218	5.46
825.396	38.23
825.574	71
825.751	154.96
825.929	46.42
826.107	50.52
826.284	30.04
826.462	89.43
826.639	46.42
826.817	19.8
826.994	71
827.172	25.94
827.349	60.76
827.527	38.23
827.704	167.25
827.882	15.7
828.059	107.86
828.237	9.56
828.414	7.51
828.591	-10.92
828.769	73.04
828.946	77.14
829.124	71
829.301	-6.83
829.478	68.95
829.655	144.72
829.833	-10.92
830.01	56.66
830.187	87.38
830.364	71
830.542	25.94
830.719	-4.78
830.896	71
831.073	23.89
831.25	95.57
831.427	71
831.604	-15.02
831.782	-10.92
831.959	42.32
832.136	3.41
832.313	107.86
832.49	25.94
832.667	97.62
832.844	25.94
833.021	15.7
833.198	-23.21
833.374	32.08
833.551	130.39
833.728	9.56
833.905	62.8
834.082	105.81
834.259	3.41
834.436	111.96
834.612	48.47
834.789	23.89
834.966	-41.64
835.143	32.08
835.319	21.85
835.496	64.85
835.673	111.96
835.85	30.04
836.026	64.85
836.203	79.19
836.38	75.09
836.556	-25.26
836.733	62.8
836.909	58.71
837.086	50.52
837.262	75.09
837.439	19.8
837.616	42.32
837.792	-10.92
837.968	15.7
838.145	-10.92
838.321	34.13
838.498	17.75
838.674	19.8
838.851	23.89
839.027	54.61
839.203	71
839.38	85.33
839.556	30.04
839.732	89.43
839.909	23.89
840.085	-8.87
840.261	-33.45
840.437	-33.45
840.614	103.76
840.79	46.42
840.966	42.32
841.142	60.76
841.318	87.38
841.494	68.95
841.671	19.8
841.847	34.13
842.023	56.66
842.199	122.2
842.375	60.76
842.551	-29.35
842.727	-6.83
842.903	64.85
843.079	-29.35
843.255	83.28
843.431	13.65
843.607	38.23
843.783	21.85
843.959	1.37
844.134	66.9
844.31	89.43
844.486	42.32
844.662	34.13
844.838	-33.45
845.013	97.62
845.189	58.71
845.365	5.46
845.541	15.7
845.716	9.56
845.892	40.28
846.068	-4.78
846.244	56.66
846.419	-0.68
846.595	25.94
846.77	62.8
846.946	30.04
847.122	-12.97
847.297	56.66
847.473	48.47
847.648	54.61
847.824	40.28
847.999	11.61
848.175	54.61
848.35	-0.68
848.526	34.13
848.701	15.7
848.876	93.52
849.052	34.13
849.227	19.8
849.403	62.8
849.578	103.76
849.753	-60.07
849.929	66.9
850.104	54.61
850.279	50.52
850.454	21.85
850.63	9.56
850.805	13.65
850.98	66.9
851.155	-8.87
851.33	111.96
851.505	34.13
851.681	60.76
851.856	52.56
852.031	111.96
852.206	17.75
852.381	79.19
852.556	73.04
852.731	83.28
852.906	79.19
853.081	83.28
853.256	-4.78
853.431	89.43
853.606	25.94
853.781	58.71
853.956	13.65
854.131	30.04
854.305	15.7
854.48	109.91
854.655	21.85
854.83	34.13
855.005	9.56
855.18	9.56
855.354	-2.73
855.529	58.71
855.704	-66.22
855.879	19.8
856.053	1.37
856.228	36.18
856.403	38.23
856.577	-17.07
856.752	-8.87
856.926	56.66
857.101	30.04
857.276	21.85
857.45	46.42
857.625	64.85
857.799	42.32
857.974	-35.5
858.148	48.47
858.323	-39.59
858.497	-4.78
858.672	32.08
858.846	44.37
859.02	46.42
859.195	27.99
859.369	75.09
859.543	-6.83
859.718	5.46
859.892	-17.07
860.066	111.96
860.241	62.8
860.415	-6.83
860.589	50.52
860.763	-8.87
860.938	-66.22
861.112	-29.35
861.286	54.61
861.46	25.94
861.634	34.13
861.808	25.94
861.982	-6.83
862.157	13.65
862.331	9.56
862.505	-35.5
862.679	-29.35
862.853	71
863.027	-0.68
863.201	-0.68
863.375	-27.31
863.549	36.18
863.722	48.47
863.896	-0.68
864.07	17.75
864.244	-6.83
864.418	5.46
864.592	40.28
864.766	21.85
864.939	73.04
865.113	13.65
865.287	23.89
865.461	21.85
865.634	71
865.808	-12.97
865.982	87.38
866.156	-10.92
866.329	-35.5
866.503	-45.74
866.676	-15.02
866.85	23.89
867.024	-41.64
867.197	-6.83
867.371	-31.4
867.544	13.65
867.718	23.89
867.891	-12.97
868.065	-15.02
868.238	52.56
868.412	56.66
868.585	-66.22
868.759	21.85
868.932	-4.78
869.105	75.09
869.279	-33.45
869.452	17.75
869.625	13.65
869.799	-33.45
869.972	77.14
870.145	40.28
870.319	13.65
870.492	-37.55
870.665	-82.6
870.838	1.37
871.011	7.51
871.185	44.37
871.358	-15.02
871.531	-23.21
871.704	3.41
871.877	-19.11
872.05	-10.92
872.223	23.89
872.396	-74.41
872.569	40.28
872.742	-53.93
872.915	13.65
873.088	83.28
873.261	27.99
873.434	46.42
873.607	-27.31
873.78	42.32
873.953	-41.64
874.126	-2.73
874.299	46.42
874.471	-72.36
874.644	7.51
874.817	17.75
874.99	13.65
875.163	38.23
875.335	17.75
875.508	15.7
875.681	21.85
875.853	40.28
876.026	54.61
876.199	60.76
876.371	5.46
876.544	-6.83
876.717	13.65
876.889	21.85
877.062	30.04
877.234	114
877.407	48.47
877.579	42.32
877.752	15.7
877.924	-8.87
878.097	56.66
878.269	52.56
878.442	13.65
878.614	1.37
878.786	-4.78
878.959	38.23
879.131	15.7
879.303	36.18
879.476	3.41
879.648	42.32
879.82	56.66
879.993	-35.5
880.165	-2.73
880.337	54.61
880.509	23.89
880.681	54.61
880.854	-8.87
881.026	-23.21
881.198	19.8
881.37	-8.87
881.542	42.32
881.714	19.8
881.886	15.7
882.058	7.51
882.23	97.62
882.402	-8.87
882.574	-0.68
882.746	-10.92
882.918	-8.87
883.09	25.94
883.262	-6.83
883.434	30.04
883.606	5.46
883.778	23.89
883.95	-19.11
884.122	13.65
884.293	19.8
884.465	9.56
884.637	3.41
884.809	-10.92
884.98	21.85
885.152	-64.17
885.324	32.08
885.496	-68.27
885.667	30.04
885.839	32.08
886.011	-2.73
886.182	38.23
886.354	73.04
886.525	52.56
886.697	32.08
886.869	30.04
887.04	30.04
887.212	54.61
887.383	7.51
887.555	-25.26
887.726	-6.83
887.897	-8.87
888.069	-23.21
888.24	-55.98
888.412	60.76
888.583	-8.87
888.754	40.28
888.926	5.46
889.097	-10.92
889.268	38.23
889.44	-68.27
889.611	-17.07
889.782	21.85
889.953	-27.31
890.125	-47.79
890.296	-27.31
890.467	-23.21
890.638	-23.21
890.809	56.66
890.98	-27.31
891.151	-21.16
891.323	30.04
891.494	-76.46
891.665	5.46
891.836	54.61
892.007	-6.83
892.178	30.04
892.349	-19.11
892.52	46.42
892.691	-21.16
892.862	52.56
893.032	-15.02
893.203	17.75
893.374	13.65
893.545	44.37
893.716	5.46
893.887	87.38
894.057	-25.26
894.228	50.52
894.399	34.13
894.57	-23.21
894.74	-15.02
894.911	42.32
895.082	40.28
895.253	-37.55
895.423	7.51
895.594	11.61
895.764	93.52
895.935	27.99
896.106	-41.64
896.276	-12.97
896.447	44.37
896.617	5.46
896.788	-43.69
896.958	11.61
897.129	-27.31
897.299	40.28
897.47	-55.98
897.64	-31.4
897.81	81.24
897.981	32.08
898.151	21.85
898.322	-19.11
898.492	15.7
898.662	-2.73
898.832	-27.31
899.003	56.66
899.173	-8.87
899.343	5.46
899.513	21.85
