Data from USB4F104151__184__13-59-06-770.txt Node

Date: Thu Mar 13 13:59:06 EDT 2025
User: louis
Spectrometer: USB4F10415
Trigger mode: 4
Integration Time (sec): 1.000000E-2
Scans to average: 1
Electric dark correction enabled: true
Nonlinearity correction enabled: false
Boxcar width: 0
XAxis mode: Wavelengths
Number of Pixels in Spectrum: 3648
>>>>>Begin Spectral Data<<<<<
178.204	-61.95
178.424	-61.95
178.644	-61.95
178.864	-39.42
179.084	3.58
179.304	42.5
179.524	-39.42
179.744	-27.14
179.964	28.16
180.184	-72.19
180.404	28.16
180.624	30.21
180.844	-8.7
181.064	-12.8
181.283	-33.28
181.503	-6.66
181.723	71.17
181.943	-70.14
182.163	19.97
182.383	34.3
182.602	17.92
182.822	-23.04
183.042	42.5
183.262	-8.7
183.482	-2.56
183.701	-10.75
183.921	7.68
184.141	-18.94
184.361	17.92
184.58	-2.56
184.8	79.36
185.02	-4.61
185.239	65.02
185.459	75.26
185.679	22.02
185.898	11.78
186.118	-41.47
186.338	-23.04
186.557	48.64
186.777	-2.56
186.997	46.59
187.216	44.54
187.436	56.83
187.655	83.45
187.875	56.83
188.095	42.5
188.314	93.69
188.534	5.63
188.753	15.87
188.973	-53.76
189.192	13.82
189.412	7.68
189.631	3.58
189.851	34.3
190.07	44.54
190.29	-23.04
190.509	-33.28
190.729	71.17
190.948	46.59
191.168	87.55
191.387	46.59
191.607	54.78
191.826	-37.38
192.045	9.73
192.265	13.82
192.484	75.26
192.704	75.26
192.923	85.5
193.142	79.36
193.362	34.3
193.581	62.98
193.8	28.16
194.02	24.06
194.239	3.58
194.458	44.54
194.678	-16.9
194.897	13.82
195.116	-8.7
195.335	50.69
195.555	48.64
195.774	-39.42
195.993	-6.66
196.212	22.02
196.432	22.02
196.651	5.63
196.87	75.26
197.089	67.07
197.308	5.63
197.528	-4.61
197.747	48.64
197.966	-25.09
198.185	-6.66
198.404	-72.19
198.623	-35.33
198.842	46.59
199.062	13.82
199.281	28.16
199.5	5.63
199.719	36.35
199.938	83.45
200.157	56.83
200.376	-61.95
200.595	15.87
200.814	30.21
201.033	30.21
201.252	62.98
201.471	44.54
201.69	30.21
201.909	60.93
202.128	7.68
202.347	32.26
202.566	-33.28
202.785	-6.66
203.004	17.92
203.223	83.45
203.442	85.5
203.661	-8.7
203.879	-35.33
204.098	126.46
204.317	-27.14
204.536	91.65
204.755	3.58
204.974	17.92
205.193	52.74
205.411	26.11
205.63	69.12
205.849	-6.66
206.068	-39.42
206.287	-53.76
206.505	62.98
206.724	-20.99
206.943	69.12
207.162	46.59
207.381	38.4
207.599	-8.7
207.818	34.3
208.037	-6.66
208.255	-10.75
208.474	26.11
208.693	7.68
208.911	-53.76
209.13	-49.66
209.349	38.4
209.567	-20.99
209.786	32.26
210.005	65.02
210.223	24.06
210.442	22.02
210.661	-4.61
210.879	24.06
211.098	32.26
211.316	11.78
211.535	5.63
211.753	40.45
211.972	15.87
212.191	-12.8
212.409	26.11
212.628	32.26
212.846	15.87
213.065	11.78
213.283	-12.8
213.502	-6.66
213.72	48.64
213.938	89.6
214.157	17.92
214.375	13.82
214.594	9.73
214.812	1.54
215.031	65.02
215.249	52.74
215.467	62.98
215.686	24.06
215.904	-0.51
216.122	-18.94
216.341	87.55
216.559	13.82
216.778	30.21
216.996	5.63
217.214	112.13
217.432	7.68
217.651	22.02
217.869	22.02
218.087	30.21
218.306	48.64
218.524	15.87
218.742	77.31
218.96	26.11
219.179	19.97
219.397	-18.94
219.615	101.89
219.833	24.06
220.051	40.45
220.27	32.26
220.488	-27.14
220.706	-6.66
220.924	79.36
221.142	48.64
221.36	9.73
221.578	7.68
221.796	-51.71
222.015	62.98
222.233	-31.23
222.451	-2.56
222.669	-29.18
222.887	56.83
223.105	-0.51
223.323	9.73
223.541	30.21
223.759	5.63
223.977	-31.23
224.195	71.17
224.413	32.26
224.631	-18.94
224.849	-12.8
225.067	-20.99
225.285	-0.51
225.503	15.87
225.721	-8.7
225.939	9.73
226.157	7.68
226.375	-2.56
226.592	13.82
226.81	-39.42
227.028	36.35
227.246	17.92
227.464	69.12
227.682	62.98
227.9	9.73
228.117	5.63
228.335	-29.18
228.553	28.16
228.771	24.06
228.989	3.58
229.206	26.11
229.424	52.74
229.642	13.82
229.86	38.4
230.077	36.35
230.295	5.63
230.513	-39.42
230.731	28.16
230.948	28.16
231.166	3.58
231.384	13.82
231.601	69.12
231.819	71.17
232.037	24.06
232.254	1.54
232.472	-25.09
232.689	-55.81
232.907	-0.51
233.125	9.73
233.342	15.87
233.56	-27.14
233.777	-10.75
233.995	42.5
234.213	69.12
234.43	-14.85
234.648	87.55
234.865	-20.99
235.083	44.54
235.3	-10.75
235.518	17.92
235.735	79.36
235.953	38.4
236.17	3.58
236.388	7.68
236.605	22.02
236.822	60.93
237.04	56.83
237.257	-2.56
237.475	40.45
237.692	34.3
237.909	7.68
238.127	13.82
238.344	13.82
238.562	1.54
238.779	62.98
238.996	38.4
239.214	22.02
239.431	54.78
239.648	54.78
239.865	42.5
240.083	83.45
240.3	54.78
240.517	71.17
240.735	42.5
240.952	44.54
241.169	32.26
241.386	89.6
241.603	69.12
241.821	13.82
242.038	22.02
242.255	36.35
242.472	17.92
242.689	9.73
242.907	19.97
243.124	-74.24
243.341	-18.94
243.558	-27.14
243.775	9.73
243.992	22.02
244.209	7.68
244.426	38.4
244.643	95.74
244.86	50.69
245.078	17.92
245.295	46.59
245.512	-4.61
245.729	19.97
245.946	32.26
246.163	30.21
246.38	46.59
246.597	-20.99
246.814	-29.18
247.031	30.21
247.248	52.74
247.464	93.69
247.681	58.88
247.898	-4.61
248.115	71.17
248.332	114.17
248.549	79.36
248.766	42.5
248.983	26.11
249.2	52.74
249.417	-6.66
249.633	22.02
249.85	46.59
250.067	50.69
250.284	-0.51
250.501	-27.14
250.717	42.5
250.934	-12.8
251.151	-27.14
251.368	-14.85
251.585	73.21
251.801	-2.56
252.018	-0.51
252.235	79.36
252.451	67.07
252.668	-35.33
252.885	62.98
253.102	54.78
253.318	32.26
253.535	13.82
253.752	44.54
253.968	-4.61
254.185	-8.7
254.401	-0.51
254.618	89.6
254.835	44.54
255.051	71.17
255.268	-35.33
255.484	17.92
255.701	28.16
255.917	3.58
256.134	-64
256.351	44.54
256.567	60.93
256.784	-12.8
257	17.92
257.217	77.31
257.433	24.06
257.65	60.93
257.866	22.02
258.082	-18.94
258.299	60.93
258.515	22.02
258.732	34.3
258.948	67.07
259.165	30.21
259.381	79.36
259.597	-14.85
259.814	-2.56
260.03	56.83
260.246	26.11
260.463	1.54
260.679	58.88
260.895	40.45
261.112	48.64
261.328	-29.18
261.544	-10.75
261.761	7.68
261.977	38.4
262.193	17.92
262.409	-8.7
262.626	52.74
262.842	50.69
263.058	7.68
263.274	38.4
263.49	38.4
263.707	3.58
263.923	28.16
264.139	-31.23
264.355	48.64
264.571	34.3
264.787	17.92
265.004	44.54
265.22	-23.04
265.436	42.5
265.652	-10.75
265.868	26.11
266.084	44.54
266.3	22.02
266.516	5.63
266.732	32.26
266.948	11.78
267.164	-4.61
267.38	42.5
267.596	5.63
267.812	-29.18
268.028	-14.85
268.244	83.45
268.46	26.11
268.676	13.82
268.892	110.08
269.108	22.02
269.324	15.87
269.54	24.06
269.756	38.4
269.972	46.59
270.188	116.22
270.403	-27.14
270.619	5.63
270.835	30.21
271.051	22.02
271.267	48.64
271.483	62.98
271.698	54.78
271.914	65.02
272.13	-18.94
272.346	50.69
272.562	9.73
272.777	132.61
272.993	46.59
273.209	42.5
273.425	118.27
273.64	62.98
273.856	5.63
274.072	-10.75
274.287	17.92
274.503	77.31
274.719	26.11
274.934	-20.99
275.15	-29.18
275.366	30.21
275.581	-35.33
275.797	1.54
276.012	58.88
276.228	56.83
276.444	54.78
276.659	58.88
276.875	95.74
277.09	-10.75
277.306	42.5
277.521	-6.66
277.737	79.36
277.952	46.59
278.168	7.68
278.383	48.64
278.599	-49.66
278.814	75.26
279.03	-10.75
279.245	30.21
279.461	42.5
279.676	56.83
279.892	30.21
280.107	-59.9
280.322	60.93
280.538	48.64
280.753	79.36
280.969	46.59
281.184	5.63
281.399	77.31
281.615	54.78
281.83	71.17
282.045	-53.76
282.26	15.87
282.476	9.73
282.691	22.02
282.906	-18.94
283.122	19.97
283.337	13.82
283.552	22.02
283.767	-23.04
283.983	58.88
284.198	30.21
284.413	15.87
284.628	24.06
284.843	40.45
285.058	42.5
285.274	48.64
285.489	87.55
285.704	-2.56
285.919	3.58
286.134	-6.66
286.349	9.73
286.564	9.73
286.779	79.36
286.995	13.82
287.21	-96.77
287.425	28.16
287.64	56.83
287.855	-4.61
288.07	15.87
288.285	46.59
288.5	7.68
288.715	32.26
288.93	-35.33
289.145	-23.04
289.36	83.45
289.575	79.36
289.79	85.5
290.004	30.21
290.219	83.45
290.434	54.78
290.649	-20.99
290.864	38.4
291.079	22.02
291.294	79.36
291.509	22.02
291.724	42.5
291.938	-25.09
292.153	95.74
292.368	38.4
292.583	110.08
292.798	7.68
293.012	28.16
293.227	85.5
293.442	26.11
293.657	54.78
293.871	36.35
294.086	58.88
294.301	48.64
294.516	62.98
294.73	38.4
294.945	62.98
295.16	26.11
295.374	-0.51
295.589	52.74
295.804	30.21
296.018	-23.04
296.233	42.5
296.447	28.16
296.662	65.02
296.877	75.26
297.091	11.78
297.306	-2.56
297.52	50.69
297.735	11.78
297.949	22.02
298.164	32.26
298.378	-18.94
298.593	48.64
298.807	44.54
299.022	38.4
299.236	52.74
299.451	-0.51
299.665	42.5
299.88	19.97
300.094	-45.57
300.309	-16.9
300.523	42.5
300.737	-0.51
300.952	62.98
301.166	22.02
301.381	81.41
301.595	-27.14
301.809	13.82
302.024	19.97
302.238	50.69
302.452	87.55
302.667	-61.95
302.881	13.82
303.095	73.21
303.309	15.87
303.524	-39.42
303.738	110.08
303.952	-0.51
304.166	22.02
304.381	17.92
304.595	52.74
304.809	30.21
305.023	77.31
305.237	7.68
305.452	46.59
305.666	71.17
305.88	79.36
306.094	-0.51
306.308	-10.75
306.522	65.02
306.736	73.21
306.95	19.97
307.164	-14.85
307.379	54.78
307.593	79.36
307.807	62.98
308.021	60.93
308.235	34.3
308.449	50.69
308.663	60.93
308.877	48.64
309.091	34.3
309.305	32.26
309.519	-70.14
309.733	-43.52
309.947	56.83
310.161	30.21
310.374	60.93
310.588	46.59
310.802	56.83
311.016	56.83
311.23	22.02
311.444	46.59
311.658	15.87
311.872	91.65
312.085	46.59
312.299	52.74
312.513	1.54
312.727	58.88
312.941	19.97
313.154	5.63
313.368	54.78
313.582	32.26
313.796	-18.94
314.009	116.22
314.223	32.26
314.437	38.4
314.651	93.69
314.864	-59.9
315.078	-0.51
315.292	85.5
315.505	40.45
315.719	69.12
315.933	28.16
316.146	79.36
316.36	50.69
316.573	13.82
316.787	71.17
317.001	54.78
317.214	-39.42
317.428	75.26
317.641	26.11
317.855	26.11
318.068	30.21
318.282	97.79
318.495	-12.8
318.709	-66.05
318.922	34.3
319.136	30.21
319.349	5.63
319.563	48.64
319.776	44.54
319.99	-6.66
320.203	9.73
320.417	101.89
320.63	32.26
320.843	50.69
321.057	1.54
321.27	15.87
321.483	87.55
321.697	-6.66
321.91	48.64
322.124	36.35
322.337	22.02
322.55	1.54
322.763	-0.51
322.977	17.92
323.19	28.16
323.403	19.97
323.617	5.63
323.83	114.17
324.043	44.54
324.256	62.98
324.469	58.88
324.683	97.79
324.896	17.92
325.109	52.74
325.322	9.73
325.535	5.63
325.748	97.79
325.962	-39.42
326.175	5.63
326.388	-2.56
326.601	28.16
326.814	-29.18
327.027	22.02
327.24	40.45
327.453	-10.75
327.666	1.54
327.879	28.16
328.092	17.92
328.305	26.11
328.518	-0.51
328.731	-0.51
328.944	13.82
329.157	32.26
329.37	67.07
329.583	50.69
329.796	46.59
330.009	-23.04
330.222	99.84
330.435	26.11
330.648	52.74
330.861	22.02
331.073	26.11
331.286	32.26
331.499	22.02
331.712	-8.7
331.925	-53.76
332.138	7.68
332.35	105.98
332.563	11.78
332.776	58.88
332.989	-33.28
333.202	103.93
333.414	69.12
333.627	87.55
333.84	28.16
334.053	-66.05
334.265	9.73
334.478	22.02
334.691	83.45
334.903	89.6
335.116	87.55
335.329	42.5
335.541	30.21
335.754	36.35
335.966	81.41
336.179	-88.57
336.392	48.64
336.604	3.58
336.817	34.3
337.029	3.58
337.242	69.12
337.454	5.63
337.667	56.83
337.88	114.17
338.092	-4.61
338.305	17.92
338.517	19.97
338.729	42.5
338.942	97.79
339.154	-31.23
339.367	13.82
339.579	5.63
339.792	3.58
340.004	83.45
340.217	46.59
340.429	48.64
340.641	32.26
340.854	-12.8
341.066	28.16
341.278	-16.9
341.491	9.73
341.703	22.02
341.915	-31.23
342.128	77.31
342.34	97.79
342.552	116.22
342.764	42.5
342.977	89.6
343.189	-39.42
343.401	71.17
343.613	42.5
343.826	46.59
344.038	79.36
344.25	1.54
344.462	7.68
344.674	95.74
344.886	24.06
345.099	13.82
345.311	50.69
345.523	95.74
345.735	-4.61
345.947	122.37
346.159	-18.94
346.371	32.26
346.583	5.63
346.795	67.07
347.007	28.16
347.219	54.78
347.431	77.31
347.643	62.98
347.855	-6.66
348.067	54.78
348.279	130.56
348.491	30.21
348.703	87.55
348.915	36.35
349.127	26.11
349.339	71.17
349.551	13.82
349.763	60.93
349.975	22.02
350.187	26.11
350.399	46.59
350.61	60.93
350.822	13.82
351.034	24.06
351.246	87.55
351.458	-37.38
351.669	15.87
351.881	69.12
352.093	13.82
352.305	65.02
352.517	40.45
352.728	79.36
352.94	48.64
353.152	91.65
353.363	32.26
353.575	58.88
353.787	67.07
353.999	50.69
354.21	95.74
354.422	87.55
354.633	48.64
354.845	13.82
355.057	-2.56
355.268	101.89
355.48	46.59
355.692	48.64
355.903	30.21
356.115	36.35
356.326	44.54
356.538	81.41
356.749	38.4
356.961	48.64
357.172	24.06
357.384	-18.94
357.595	48.64
357.807	48.64
358.018	11.78
358.23	11.78
358.441	32.26
358.653	11.78
358.864	24.06
359.075	65.02
359.287	44.54
359.498	99.84
359.709	79.36
359.921	-39.42
360.132	42.5
360.344	-12.8
360.555	-25.09
360.766	97.79
360.977	56.83
361.189	-35.33
361.4	26.11
361.611	46.59
361.823	67.07
362.034	42.5
362.245	17.92
362.456	-27.14
362.667	60.93
362.879	95.74
363.09	60.93
363.301	9.73
363.512	44.54
363.723	7.68
363.935	56.83
364.146	73.21
364.357	-80.38
364.568	110.08
364.779	65.02
364.99	67.07
365.201	-16.9
365.412	108.03
365.623	-16.9
365.834	120.32
366.045	46.59
366.256	69.12
366.467	93.69
366.678	5.63
366.889	-43.52
367.1	108.03
367.311	28.16
367.522	17.92
367.733	24.06
367.944	73.21
368.155	42.5
368.366	58.88
368.577	114.17
368.788	22.02
368.999	50.69
369.209	85.5
369.42	60.93
369.631	161.28
369.842	97.79
370.053	146.94
370.264	46.59
370.474	7.68
370.685	77.31
370.896	28.16
371.107	118.27
371.317	32.26
371.528	89.6
371.739	112.13
371.95	112.13
372.16	38.4
372.371	42.5
372.582	120.32
372.792	126.46
373.003	24.06
373.214	58.88
373.424	83.45
373.635	7.68
373.846	52.74
374.056	24.06
374.267	5.63
374.477	48.64
374.688	62.98
374.898	38.4
375.109	112.13
375.319	105.98
375.53	89.6
375.74	9.73
375.951	26.11
376.161	62.98
376.372	65.02
376.582	114.17
376.793	65.02
377.003	97.79
377.214	93.69
377.424	-43.52
377.635	-10.75
377.845	-6.66
378.055	56.83
378.266	-27.14
378.476	36.35
378.686	22.02
378.897	-47.62
379.107	36.35
379.317	56.83
379.528	5.63
379.738	54.78
379.948	26.11
380.158	40.45
380.369	97.79
380.579	58.88
380.789	32.26
380.999	11.78
381.21	97.79
381.42	108.03
381.63	122.37
381.84	67.07
382.05	46.59
382.261	79.36
382.471	114.17
382.681	112.13
382.891	30.21
383.101	30.21
383.311	-14.85
383.521	126.46
383.731	34.3
383.941	52.74
384.151	108.03
384.361	42.5
384.571	75.26
384.781	71.17
384.991	67.07
385.201	132.61
385.411	-68.09
385.621	38.4
385.831	71.17
386.041	34.3
386.251	36.35
386.461	87.55
386.671	60.93
386.881	91.65
387.091	77.31
387.301	62.98
387.511	-23.04
387.72	58.88
387.93	56.83
388.14	97.79
388.35	114.17
388.56	67.07
388.769	89.6
388.979	81.41
389.189	40.45
389.399	73.21
389.609	65.02
389.818	58.88
390.028	62.98
390.238	71.17
390.447	34.3
390.657	124.41
390.867	56.83
391.076	-33.28
391.286	140.8
391.496	28.16
391.705	65.02
391.915	85.5
392.125	114.17
392.334	79.36
392.544	108.03
392.753	73.21
392.963	34.3
393.172	67.07
393.382	54.78
393.591	54.78
393.801	136.7
394.01	114.17
394.22	67.07
394.429	69.12
394.639	50.69
394.848	79.36
395.058	56.83
395.267	34.3
395.477	65.02
395.686	99.84
395.895	91.65
396.105	42.5
396.314	138.75
396.524	91.65
396.733	24.06
396.942	120.32
397.152	32.26
397.361	89.6
397.57	99.84
397.78	69.12
397.989	62.98
398.198	103.93
398.407	114.17
398.617	132.61
398.826	122.37
399.035	75.26
399.244	103.93
399.453	91.65
399.663	112.13
399.872	83.45
400.081	126.46
400.29	144.89
400.499	85.5
400.708	95.74
400.917	114.17
401.127	138.75
401.336	95.74
401.545	103.93
401.754	91.65
401.963	122.37
402.172	114.17
402.381	91.65
402.59	116.22
402.799	179.71
403.008	110.08
403.217	155.13
403.426	130.56
403.635	148.99
403.844	97.79
404.053	81.41
404.262	108.03
404.471	165.37
404.68	79.36
404.888	71.17
405.097	77.31
405.306	241.15
405.515	175.61
405.724	159.23
405.933	136.7
406.142	118.27
406.35	169.47
406.559	210.43
406.768	214.52
406.977	216.57
407.185	235
407.394	148.99
407.603	140.8
407.812	142.85
408.02	128.51
408.229	196.09
408.438	185.85
408.646	202.24
408.855	206.33
409.064	226.81
409.272	237.05
409.481	273.92
409.69	185.85
409.898	253.44
410.107	286.2
410.315	253.44
410.524	267.77
410.733	280.06
410.941	288.25
411.15	368.12
411.358	366.07
411.567	296.44
411.775	323.07
411.984	321.02
412.192	427.51
412.401	402.94
412.609	419.32
412.818	456.19
413.026	439.8
413.234	374.27
413.443	546.3
413.651	468.47
413.86	501.24
414.068	568.82
414.276	531.96
414.485	566.78
414.693	564.73
414.901	579.06
415.11	648.69
415.318	599.54
415.526	736.76
415.734	720.37
415.943	722.42
416.151	693.75
416.359	728.56
416.567	749.04
416.776	833.01
416.984	826.87
417.192	830.96
417.4	851.44
417.608	953.84
417.817	1029.62
418.025	974.32
418.233	1027.57
418.441	1007.09
418.649	1041.9
418.857	1134.06
419.065	1146.35
419.273	1170.93
419.481	1138.16
419.689	1328.62
419.897	1361.39
420.105	1465.83
420.313	1398.25
420.521	1441.26
420.729	1465.83
420.937	1451.5
421.145	1578.47
421.353	1490.41
421.561	1820.13
421.769	1865.19
421.977	1914.34
422.185	1764.84
422.393	2043.36
422.601	2051.55
422.809	2037.22
423.017	2088.42
423.224	2127.33
423.432	2254.3
423.64	2233.82
423.848	2481.63
424.056	2405.85
424.263	2553.31
424.471	2588.12
424.679	2528.73
424.887	2704.85
425.094	2801.11
425.302	2864.6
425.51	2923.99
425.718	2936.28
425.925	3114.45
426.133	3044.82
426.341	3403.21
426.548	3388.88
426.756	3474.89
426.964	3526.09
427.171	3743.17
427.379	3724.74
427.586	4015.55
427.794	3935.68
428.001	4203.97
428.209	4285.89
428.417	4400.57
428.624	4775.35
428.832	4582.84
429.039	4533.69
429.247	4582.84
429.454	4953.52
429.662	5387.69
429.869	5070.26
430.076	5332.4
430.284	5223.86
430.491	5510.57
430.699	5899.69
430.906	5696.94
431.114	5713.32
431.321	6047.14
431.528	6073.76
431.736	6432.16
431.943	6628.76
432.15	6690.2
432.358	6792.6
432.565	6968.73
432.772	7067.03
432.979	7282.06
433.187	7499.15
433.394	7605.64
433.601	8043.91
433.808	8060.29
434.016	8140.16
434.223	8320.39
434.43	8932.73
434.637	8775.03
434.844	8961.4
435.052	9581.93
435.259	9299.31
435.466	9387.38
435.673	9420.14
435.88	9964.9
436.087	10286.44
436.294	10431.84
436.501	10171.75
436.708	10440.03
436.915	10992.98
437.122	11238.74
437.329	11228.5
437.537	11586.9
437.743	11765.07
437.95	11687.25
438.157	12156.23
438.364	12834.11
438.571	12588.35
438.778	12633.41
438.985	14062.89
439.192	13483.31
439.399	13825.33
439.606	13579.57
439.813	14234.92
440.02	15250.71
440.227	14964
440.433	15015.19
440.64	15219.99
440.847	15162.65
441.054	15645.97
441.261	16516.36
441.467	16504.07
441.674	16721.15
441.881	17167.61
442.088	17243.38
442.294	17009.92
442.501	17362.17
442.708	18142.44
442.914	18345.19
443.121	19338.46
443.328	18648.29
443.534	20339.91
443.741	19420.38
443.948	19381.46
444.154	20991.17
444.361	20683.97
444.568	20735.17
444.774	20845.76
444.981	21099.71
445.187	21810.36
445.394	22633.64
445.6	22252.72
445.807	24337.55
446.013	23194.78
446.22	23850.13
446.426	24605.83
446.633	25189.5
446.839	25797.75
447.046	24538.25
447.252	26160.24
447.459	26309.74
447.665	25828.47
447.871	27329.63
448.078	28376.14
448.284	26967.14
448.491	27841.62
448.697	28955.72
448.903	29625.4
449.11	29166.66
449.316	28970.05
449.522	29508.67
449.728	30331.95
449.935	30727.21
450.141	30434.35
450.347	31464.48
450.553	30340.15
450.76	30454.83
450.966	31294.5
451.172	31460.38
451.378	32052.25
451.584	30985.26
451.791	32166.93
451.997	32181.27
452.203	32351.25
452.409	32599.05
452.615	32211.99
452.821	31155.24
453.027	31132.71
453.233	32298
453.44	31257.64
453.646	31415.33
453.852	31935.51
454.058	32570.38
454.264	31378.47
454.47	31781.92
454.676	31028.26
454.882	32562.19
455.088	29475.9
455.294	29989.94
455.5	30620.72
455.705	30889
455.911	29566.01
456.117	28927.05
456.323	28572.75
456.529	26621.03
456.735	28058.71
456.941	27425.89
457.147	27008.1
457.352	26172.53
457.558	26037.36
457.764	25900.15
457.97	25508.99
458.176	25023.62
458.381	24921.22
458.587	23737.49
458.793	23772.31
458.999	22953.12
459.204	24011.92
459.41	23481.5
459.616	21814.45
459.821	22123.69
460.027	21992.62
460.233	21128.38
460.438	20552.9
460.644	20774.08
460.85	19573.97
461.055	19588.31
461.261	19324.12
461.466	18089.2
461.672	17368.31
461.878	18597.09
462.083	17659.12
462.289	17085.69
462.494	17276.15
462.7	16110.86
462.905	15811.85
463.111	16362.76
463.316	16708.87
463.522	15942.92
463.727	16127.24
463.932	15846.67
464.138	16055.56
464.343	16012.56
464.549	15521.04
464.754	15983.88
464.959	16004.36
465.165	15846.67
465.37	15219.99
465.575	14701.86
465.781	15086.87
465.986	15426.84
466.191	14761.25
466.397	14570.79
466.602	13790.51
466.807	14615.84
467.012	14400.8
467.218	14402.85
467.423	14011.69
467.628	14267.69
467.833	14900.51
468.038	14507.3
468.244	13770.03
468.449	14585.12
468.654	14015.79
468.859	13915.44
469.064	13788.46
469.269	13169.98
469.474	13483.31
469.679	13737.26
469.885	13200.69
470.09	13376.82
470.295	13395.25
470.5	13149.5
470.705	13153.59
470.91	12995.9
471.115	12838.2
471.32	12770.62
471.525	12551.49
471.73	12449.09
471.935	12490.05
472.139	12141.89
472.344	11967.82
472.549	12164.42
472.754	11875.66
472.959	11652.43
473.164	11552.08
473.369	11244.88
473.574	11720.01
473.778	11519.31
473.983	11384.15
474.188	11275.6
474.393	11064.66
474.598	11107.67
474.802	10984.79
475.007	10823
475.212	10839.39
475.417	10460.51
475.621	10456.42
475.826	10339.68
476.031	10345.83
476.235	10100.07
476.44	10304.87
476.645	10050.92
476.849	10251.62
477.054	9907.56
477.259	9885.03
477.463	9756.01
477.668	9387.38
477.872	9897.32
478.077	9438.58
478.282	9264.5
478.486	9135.48
478.691	9125.24
478.895	9223.54
479.1	8854.9
479.304	9155.96
479.509	8820.09
479.713	8969.59
479.918	8643.96
480.122	8486.27
480.326	8691.07
480.531	8670.59
480.735	8490.37
480.94	8670.59
481.144	8852.86
481.348	8476.03
481.553	8566.14
481.757	8441.22
481.961	8619.39
482.166	8643.96
482.37	8596.86
482.574	8400.26
482.778	8476.03
482.983	8527.23
483.187	8535.42
483.391	8445.31
483.595	8381.82
483.8	8289.67
484.004	8467.84
484.208	8486.27
484.412	8289.67
484.616	8590.72
484.821	8304
485.025	8322.43
485.229	8519.04
485.433	8275.33
485.637	8435.07
485.841	8582.53
486.045	8496.51
486.249	8369.54
486.453	8506.75
486.657	8488.32
486.861	8521.09
487.065	8172.93
487.269	8525.18
487.473	8287.62
487.677	8578.43
487.881	8557.95
488.085	8418.69
488.289	8625.53
488.493	8613.24
488.697	8467.84
488.901	8451.46
489.105	8580.48
489.309	8490.37
489.512	8457.6
489.716	8578.43
489.92	8568.19
490.124	8361.34
490.328	8656.25
490.531	8656.25
490.735	8811.9
490.939	8725.88
491.143	8865.14
491.346	8701.31
491.55	8836.47
491.754	8652.16
491.958	8977.78
492.161	8793.47
492.365	9002.36
492.569	8883.58
492.772	8768.89
492.976	9188.72
493.18	9125.24
493.383	9430.38
493.587	9166.2
493.79	9516.4
493.994	9059.7
494.197	9436.53
494.401	9567.6
494.605	9594.22
494.808	9629.04
495.012	9753.96
495.215	9698.67
495.419	9940.33
495.622	9788.78
495.825	9897.32
496.029	9872.75
496.232	10272.1
496.436	10132.84
496.639	10446.18
496.843	10468.7
497.046	10745.18
497.249	10704.22
497.453	10669.41
497.656	11203.93
497.859	11011.42
498.063	11189.59
498.266	11283.8
498.469	11527.5
498.673	11599.18
498.876	11636.05
499.079	11636.05
499.282	11717.97
499.485	12115.27
499.689	12037.45
499.892	12289.35
500.095	12389.7
500.298	12631.36
500.501	12504.39
500.705	12975.42
500.908	13145.4
501.111	13382.96
501.314	13178.17
501.517	13499.7
501.72	13712.69
501.923	13636.91
502.126	14130.47
502.329	14261.54
502.532	14501.15
502.735	14488.87
502.938	14824.73
503.141	14888.22
503.344	15093.02
503.547	15234.33
503.75	15570.19
503.953	15629.59
504.156	15772.94
504.359	16033.04
504.562	16160.01
504.765	16520.45
504.968	16737.54
505.17	16903.42
505.373	16997.63
505.576	17442.04
505.779	17603.83
505.982	17718.51
506.185	17999.09
506.387	18101.48
506.59	18388.2
506.793	18504.93
506.996	18783.46
507.198	19467.48
507.401	19076.32
507.604	19522.77
507.807	19928.27
508.009	20098.25
508.212	20204.75
508.415	20456.65
508.617	20817.09
508.82	20952.26
509.022	20710.6
509.225	21560.5
509.428	21603.51
509.63	21623.99
509.833	22049.97
510.035	22467.75
510.238	22764.71
510.44	22856.87
510.643	23504.03
510.845	23434.39
511.048	23237.79
511.25	24355.98
511.453	24366.22
511.655	25203.84
511.858	24835.21
512.06	24913.03
512.262	25427.07
512.465	25451.64
512.667	26145.91
512.87	26006.64
513.072	26369.13
513.274	27212.9
513.477	27235.42
513.679	27847.77
513.881	27933.78
514.084	28249.17
514.286	28589.13
514.488	28611.66
514.69	29441.09
514.893	29455.42
515.095	29707.32
515.297	29928.5
515.499	29961.27
515.701	30612.52
515.904	30827.56
516.106	31405.09
516.308	31759.39
516.51	31894.55
516.712	32072.73
516.914	32496.66
517.116	33059.85
517.318	33364.99
517.52	33377.28
517.722	33707.01
517.925	34161.65
518.127	34372.6
518.329	34993.13
518.531	35044.33
518.733	35754.97
518.935	35896.28
519.136	36299.73
519.338	36514.77
519.54	37008.33
519.742	37233.61
519.944	37469.12
520.146	37942.21
520.348	38325.18
520.55	38523.83
520.752	38636.47
520.954	39041.96
521.155	39162.79
521.357	39959.45
521.559	40285.08
521.761	40674.2
521.963	40827.79
522.164	40979.34
522.366	41350.03
522.568	41821.06
522.77	41704.32
522.971	42431.35
523.173	42355.58
523.375	42718.07
523.576	42716.02
523.778	43174.77
523.98	43776.87
524.181	43338.6
524.383	43889.51
524.584	44843.86
524.786	44626.78
524.988	44286.81
525.189	44948.31
525.391	45318.99
525.592	45468.49
525.794	45853.51
525.995	45777.73
526.197	45792.07
526.398	45931.33
526.6	46383.93
526.801	46525.24
527.003	47295.28
527.204	46801.72
527.406	47121.2
527.607	47518.51
527.808	47522.6
528.01	47045.43
528.211	47823.65
528.412	48808.73
528.614	48268.06
528.815	48444.19
529.016	48605.98
529.218	48024.36
529.419	48775.96
529.62	48485.15
529.822	48571.16
530.023	48798.49
530.224	48956.18
530.425	49218.32
530.626	48661.27
530.828	48489.24
531.029	49396.49
531.23	49074.96
531.431	49435.41
531.632	49447.69
531.833	50043.65
532.035	49732.36
532.236	49771.27
532.437	50418.43
532.638	49652.49
532.839	50057.99
533.04	50133.76
533.241	49713.93
533.442	50469.63
533.643	50578.17
533.844	49900.29
534.045	50311.94
534.246	49974.02
534.447	50266.88
534.648	50164.48
534.849	50152.19
535.05	50197.25
535.251	50293.5
535.451	50230.02
535.652	50402.05
535.853	50268.93
536.054	50017.03
536.255	50338.56
536.456	49820.42
536.657	50653.95
536.857	50402.05
537.058	50068.23
537.259	50514.69
537.46	50430.72
537.66	50422.53
537.861	50477.82
538.062	50129.67
538.263	50438.91
538.463	50547.45
538.664	50612.99
538.865	50746.11
539.065	50877.18
539.266	50019.08
539.466	50799.35
539.667	49795.85
539.868	50967.29
540.068	50246.4
540.269	50506.49
540.469	50526.97
540.67	50301.7
540.87	50447.1
541.071	50096.9
541.271	51372.78
541.472	50420.48
541.672	50393.86
541.873	50230.02
542.073	49724.17
542.274	50731.77
542.474	50283.26
542.675	50244.35
542.875	50776.83
543.075	50330.37
543.276	50283.26
543.476	50780.92
543.676	50131.72
543.877	50500.35
544.077	50549.5
544.277	50170.63
544.478	50615.04
544.678	50610.94
544.878	49955.59
545.078	50328.32
545.279	49816.33
545.479	49890.05
545.679	50373.38
545.879	50406.14
546.079	50422.53
546.28	50299.65
546.48	49824.52
546.68	50506.49
546.88	50141.95
547.08	50406.14
547.28	50322.18
547.48	50043.65
547.68	50170.63
547.88	49957.64
548.081	50490.11
548.281	50301.7
548.481	50123.52
548.681	50750.2
548.881	50242.31
549.081	49885.96
549.28	50088.71
549.48	50645.76
549.68	49955.59
549.88	50803.45
550.08	50117.38
550.28	49963.78
550.48	49910.53
550.68	50359.04
550.88	50197.25
551.08	49916.68
551.279	50043.65
551.479	49761.03
551.679	50119.43
551.879	50303.74
552.079	50168.58
552.278	49974.02
552.478	49926.92
552.678	50111.24
552.878	50195.2
553.077	50070.28
553.277	49677.07
553.477	50131.72
553.676	50162.43
553.876	50127.62
554.076	49517.32
554.275	49658.63
554.475	49156.88
554.674	49713.93
554.874	49769.22
555.074	49214.23
555.273	49447.69
555.473	49896.2
555.672	49208.08
555.872	49257.23
556.071	49550.09
556.271	49861.38
556.47	49261.33
556.67	48849.69
556.869	48907.03
557.068	49699.59
557.268	49062.68
557.467	49212.18
557.667	49419.02
557.866	48880.41
558.065	48763.67
558.265	48902.93
558.464	48648.99
558.663	49763.08
558.863	48810.78
559.062	49525.52
559.261	48411.42
559.461	48644.89
559.66	48096.03
559.859	48554.78
560.058	48261.92
560.258	48550.68
560.457	48112.42
560.656	48229.15
560.855	48034.6
561.054	48378.65
561.253	48028.45
561.453	47950.63
561.652	48223.01
561.851	47995.68
562.05	47786.79
562.249	47291.18
562.448	48061.22
562.647	47915.81
562.846	47784.74
563.045	47872.81
563.244	47817.51
563.443	48079.65
563.642	47014.71
563.841	47139.63
564.04	47213.36
564.239	47627.05
564.438	47330.09
564.637	47430.44
564.836	47246.13
565.035	47029.04
565.234	46916.4
565.432	46904.12
565.631	46736.18
565.83	47024.95
566.029	46471.99
566.228	46535.48
566.427	46250.81
566.625	46160.7
566.824	45716.29
567.023	46721.85
567.222	45732.68
567.42	46553.91
567.619	46443.32
567.818	45994.82
568.016	46043.97
568.215	46115.65
568.414	45986.63
568.612	46146.37
568.811	45792.07
569.01	45620.04
569.208	44954.45
569.407	45439.82
569.605	44981.07
569.804	45601.61
570.002	44817.24
570.201	45284.17
570.4	44534.62
570.598	44452.7
570.797	44839.76
570.995	44651.35
571.193	44292.96
571.392	45196.11
571.59	44438.36
571.789	44219.23
571.987	44475.23
572.186	44317.53
572.384	43729.76
572.582	44342.11
572.781	44141.41
572.979	43582.31
573.177	43518.82
573.376	43674.47
573.574	42963.82
573.772	43256.68
573.971	43080.56
574.169	42642.29
574.367	42769.27
574.565	42771.32
574.763	42713.97
574.962	42496.89
575.16	42591.09
575.358	42343.29
575.556	41692.04
575.754	42410.87
575.952	42232.7
576.151	42142.59
576.349	41386.89
576.547	41823.11
576.745	41782.15
576.943	41517.96
577.141	41362.31
577.339	41599.88
577.537	41071.5
577.735	41315.21
577.933	40981.39
578.131	40924.05
578.329	40575.89
578.527	40289.18
578.725	40274.84
578.923	40764.31
579.121	40668.05
579.319	40338.33
579.516	40211.35
579.714	40059.8
579.912	39562.15
580.11	39693.22
580.308	40117.15
580.506	39740.32
580.704	38978.48
580.901	39488.42
581.099	39469.99
581.297	39078.83
581.495	39027.63
581.692	39357.35
581.89	38738.86
582.088	39070.64
582.285	38556.6
582.483	38685.62
582.681	38863.79
582.878	38579.12
583.076	38038.46
583.274	38400.95
583.471	37725.12
583.669	37972.92
583.866	37669.83
584.064	37526.47
584.262	37280.71
584.459	37841.85
584.657	37460.93
584.854	37653.44
585.052	36832.21
585.249	37073.87
585.447	37202.89
585.644	36944.84
585.841	37047.24
586.039	37112.78
586.236	36717.52
586.434	36496.34
586.631	36479.96
586.828	36246.49
587.026	36346.84
587.223	36211.67
587.42	35943.39
587.618	36137.94
587.815	35836.89
588.012	35621.86
588.21	35470.31
588.407	35816.41
588.604	35560.42
588.801	35210.21
588.999	35101.67
589.196	35304.42
589.393	35273.7
589.59	34903.02
589.787	35116.01
589.984	34884.59
590.182	34483.19
590.379	34997.23
590.576	34163.7
590.773	34552.82
590.97	34122.74
591.167	34454.51
591.364	33952.76
591.561	34106.36
591.758	33874.94
591.955	34016.25
592.152	34184.18
592.349	33629.18
592.546	33305.6
592.743	33766.4
592.94	32957.45
593.137	33178.63
593.334	33307.65
593.531	32764.94
593.727	33270.79
593.924	33231.88
594.121	32617.49
594.318	32994.31
594.515	32412.69
594.712	32982.02
594.908	32482.32
595.105	32377.87
595.302	31937.56
595.499	32416.79
595.696	32218.13
595.892	31835.16
596.089	32283.67
596.286	32431.12
596.482	32042.01
596.679	31820.83
596.876	31671.32
597.072	31650.85
597.269	31943.7
597.466	31169.57
597.662	31239.2
597.859	31216.68
598.055	31364.13
598.252	30706.73
598.448	30868.52
598.645	30989.35
598.841	30473.26
599.038	30641.2
599.234	30532.65
599.431	30250.03
599.627	30104.63
599.824	30594.09
600.02	30121.01
600.217	30155.83
600.413	29965.37
600.609	29901.88
600.806	29781.05
601.002	29910.07
601.198	29500.48
601.395	29137.99
601.591	29285.44
601.787	29523.01
601.984	29359.17
602.18	29434.94
602.376	28841.03
602.572	29193.28
602.769	29013.06
602.965	28699.72
603.161	28734.54
603.357	28499.02
603.553	28576.84
603.75	28601.42
603.946	28255.31
604.142	28298.32
604.338	27888.73
604.534	28148.82
604.73	27993.17
604.926	27878.49
605.122	28021.84
605.318	27460.7
605.514	27624.54
605.71	27444.32
605.906	27612.25
606.102	27296.86
606.298	27180.13
606.494	26893.41
606.69	27034.72
606.886	26952.8
607.082	26649.71
607.278	26702.95
607.474	26508.4
607.67	26866.79
607.866	26561.64
608.062	26799.21
608.257	26164.34
608.453	26289.26
608.649	26528.88
608.845	25980.02
609.041	26188.91
609.236	26016.88
609.432	25982.07
609.628	26006.64
609.824	25910.39
610.019	25582.71
610.215	25490.56
610.411	25255.04
610.606	25355.39
610.802	25570.43
610.998	25443.45
611.193	25691.26
611.389	25064.58
611.584	25425.02
611.78	24949.89
611.976	25019.52
612.171	24986.75
612.367	24984.71
612.562	24880.26
612.758	24276.11
612.953	24575.11
613.149	24648.84
613.344	24306.83
613.539	24845.44
613.735	24398.99
613.93	24458.38
614.126	24118.42
614.321	24206.48
614.517	24046.74
614.712	24044.69
614.907	23897.24
615.103	24216.72
615.298	23696.53
615.493	23948.43
615.688	23266.46
615.884	24253.58
616.079	23610.52
616.274	23403.67
616.47	23581.85
616.665	23407.77
616.86	23508.12
617.055	23260.32
617.25	23264.41
617.445	23215.26
617.641	22934.69
617.836	23225.5
618.031	22785.19
618.226	22901.92
618.421	22492.33
618.616	22830.24
618.811	22574.25
619.006	22946.98
619.201	22197.42
619.396	22342.83
619.591	21980.34
619.786	22291.63
619.981	22109.36
620.176	22127.79
620.371	21746.87
620.566	21718.2
620.761	21642.42
620.956	21669.05
621.151	21374.14
621.346	21609.65
621.541	21165.25
621.735	21210.3
621.93	20798.66
622.125	20980.93
622.32	20864.19
622.515	20749.51
622.709	20731.08
622.904	20720.84
623.099	20141.26
623.294	20235.47
623.488	19832.02
623.683	20253.9
623.878	19774.67
624.072	19860.69
624.267	19844.31
624.462	19631.32
624.656	19389.66
624.851	19563.73
625.046	19303.64
625.24	19551.45
625.435	19070.17
625.629	18824.42
625.824	18820.32
626.018	18824.42
626.213	18382.06
626.407	18812.13
626.602	18306.28
626.796	18769.12
626.991	18291.94
627.185	18126.06
627.38	17917.17
627.574	18087.15
627.768	18019.57
627.963	17886.45
628.157	18105.58
628.352	17700.08
628.546	17542.39
628.74	17769.71
628.935	17265.91
629.129	17589.49
629.323	17038.59
629.517	16950.53
629.712	17071.36
629.906	17030.4
630.1	16719.1
630.294	16846.08
630.489	16530.69
630.683	16784.64
630.877	16080.14
631.071	16176.39
631.265	16459.01
631.459	16305.42
631.653	16153.87
631.848	16250.12
632.042	16078.09
632.236	16022.8
632.43	15916.3
632.624	15813.9
632.818	15693.07
633.012	15510.8
633.206	15502.61
633.4	15791.38
633.594	15420.69
633.788	15197.46
633.982	15203.61
634.176	15306.01
634.369	15072.54
634.563	15045.91
634.757	14894.36
634.951	14843.17
635.145	14865.69
635.339	14875.93
635.533	14558.5
635.726	14898.46
635.92	14304.55
636.114	14519.59
636.308	14351.65
636.501	14214.44
636.695	14411.04
636.889	14202.15
637.083	13964.59
637.276	14056.75
637.47	13825.33
637.664	13921.58
637.857	13956.4
638.051	13628.72
638.244	13530.42
638.438	13927.72
638.632	13514.03
638.825	13473.07
639.019	13212.98
639.212	13372.72
639.406	13458.74
639.599	13327.67
639.793	12967.23
639.986	12748.09
640.18	12850.49
640.373	12903.74
640.567	12670.27
640.76	12725.57
640.954	12535.1
641.147	12600.64
641.34	12569.92
641.534	12516.67
641.727	12490.05
641.92	12416.32
642.114	12268.87
642.307	12209.48
642.5	12275.01
642.694	11924.81
642.887	11830.6
643.08	11844.94
643.273	11615.57
643.467	11871.56
643.66	11609.42
643.853	11732.3
644.046	11494.74
644.239	11521.36
644.432	11593.04
644.626	11183.45
644.819	11490.64
645.012	11357.52
645.205	11351.38
645.398	11089.24
645.591	11203.93
645.784	10968.41
645.977	11224.4
646.17	10882.39
646.363	10810.72
646.556	10524
646.749	10614.11
646.942	10655.07
647.135	10452.32
647.328	10394.98
647.521	10589.53
647.714	10278.24
647.907	10317.15
648.099	10196.32
648.292	10272.1
648.485	9901.42
648.678	10124.65
648.871	9835.88
649.064	10091.88
649.256	9952.62
649.449	9870.7
649.642	9788.78
649.835	9801.07
650.027	9469.3
650.22	9395.57
650.413	9442.67
650.605	9442.67
650.798	9244.02
650.991	9370.99
651.183	9309.55
651.376	9123.19
651.568	9158
651.761	9160.05
651.954	8813.95
652.146	8951.16
652.339	8885.62
652.531	8856.95
652.724	8803.71
652.916	8650.11
653.109	8592.76
653.301	8560
653.494	8713.6
653.686	8412.54
653.879	8570.24
654.071	8336.77
654.263	8328.58
654.456	8269.19
654.648	8316.29
654.84	8050.05
655.033	8111.49
655.225	8068.48
655.417	7994.76
655.61	8007.05
655.802	8037.77
655.994	7931.27
656.186	8021.38
656.379	7716.23
656.571	7921.03
656.763	7644.56
656.955	7654.8
657.148	7392.66
657.34	7470.48
657.532	7398.8
657.724	7402.9
657.916	7173.52
658.108	7265.68
658.3	7204.24
658.492	7210.39
658.684	7142.8
658.876	7179.67
659.068	7230.87
659.26	6966.68
659.452	6999.45
659.644	6886.81
659.836	6819.22
660.028	6788.5
660.22	6557.08
660.412	6684.06
660.604	6665.63
660.796	6657.43
660.988	6546.84
661.18	6434.21
661.372	6331.81
661.563	6481.31
661.755	6243.74
661.947	6563.23
662.139	6315.42
662.331	6260.13
662.522	6184.35
662.714	6235.55
662.906	6202.79
663.097	5981.6
663.289	5932.45
663.481	6022.56
663.673	5993.89
663.864	5848.49
664.056	5658.03
664.247	5854.63
664.439	5770.66
664.631	5756.33
664.822	5690.79
665.014	5576.11
665.205	5512.62
665.397	5424.56
665.588	5602.73
665.78	5471.66
665.971	5221.81
666.163	5506.48
666.354	5518.76
666.546	5473.71
666.737	5186.99
666.929	5199.28
667.12	5307.82
667.311	5223.86
667.503	4990.39
667.694	5127.6
667.885	4955.57
668.077	5076.4
668.268	5066.16
668.459	4969.91
668.651	4945.33
668.842	4924.85
669.033	4916.66
669.224	4857.27
669.416	4971.96
669.607	4826.55
669.798	4734.39
669.989	4707.77
670.18	4781.5
670.371	4746.68
670.563	4636.09
670.754	4627.9
670.945	4609.47
671.136	4609.47
671.327	4591.03
671.518	4574.65
671.709	4597.18
671.9	4693.43
672.091	4437.44
672.282	4539.83
672.473	4462.01
672.664	4445.63
672.855	4453.82
673.046	4500.92
673.237	4373.95
673.428	4373.95
673.619	4287.93
673.809	4302.27
674	4242.88
674.191	4335.04
674.382	4240.83
674.573	4244.93
674.764	4441.53
674.954	4281.79
675.145	4169.15
675.336	4246.98
675.527	4111.81
675.717	4191.68
675.908	4068.8
676.099	4177.34
676.289	4054.47
676.48	4179.39
676.671	4117.95
676.861	4038.08
677.052	4089.28
677.243	3970.5
677.433	3962.31
677.624	4007.36
677.814	3960.26
678.005	4046.27
678.195	3872.2
678.386	3841.48
678.576	3966.4
678.767	3825.09
678.957	3882.44
679.148	3900.87
679.338	3864.01
679.529	3937.73
679.719	3745.22
679.909	3855.81
680.1	3825.09
680.29	3808.71
680.481	3767.75
680.671	3917.25
680.861	3694.02
681.052	3833.29
681.242	3790.28
681.432	3782.09
681.622	3702.22
681.813	3741.13
682.003	3691.98
682.193	3661.26
682.383	3689.93
682.573	3720.65
682.764	3700.17
682.954	3605.96
683.144	3732.94
683.334	3554.76
683.524	3661.26
683.714	3640.78
683.904	3610.06
684.094	3634.63
684.284	3552.71
684.474	3683.78
684.664	3663.3
684.854	3610.06
685.044	3583.43
685.234	3495.37
685.424	3483.08
685.614	3536.33
685.804	3476.94
685.994	3605.96
686.184	3603.91
686.374	3595.72
686.564	3554.76
686.753	3614.15
686.943	3440.08
687.133	3659.21
687.323	3569.1
687.513	3585.48
687.702	3521.99
687.892	3509.71
688.082	3694.02
688.272	3507.66
688.461	3519.95
688.651	3587.53
688.841	3390.92
689.03	3431.88
689.22	3487.18
689.41	3526.09
689.599	3395.02
689.789	3495.37
689.979	3438.03
690.168	3370.44
690.358	3358.16
690.547	3608.01
690.737	3370.44
690.926	3513.8
691.116	3274.19
691.305	3433.93
691.495	3478.99
691.684	3511.75
691.874	3392.97
692.063	3487.18
692.252	3440.08
692.442	3386.83
692.631	3395.02
692.82	3452.36
693.01	3474.89
693.199	3464.65
693.388	3317.2
693.578	3462.6
693.767	3489.23
693.956	3448.27
694.146	3378.64
694.335	3462.6
694.524	3382.73
694.713	3438.03
694.902	3468.75
695.092	3466.7
695.281	3257.81
695.47	3411.4
695.659	3376.59
695.848	3452.36
696.037	3302.86
696.226	3261.9
696.415	3292.62
696.604	3450.32
696.793	3323.34
696.982	3364.3
697.171	3345.87
697.36	3274.19
697.549	3380.68
697.738	3296.72
697.927	3352.01
698.116	3425.74
698.305	3397.07
698.494	3372.49
698.683	3200.46
698.872	3321.29
699.061	3298.77
699.25	3227.09
699.438	3216.85
699.627	3282.38
699.816	3315.15
700.005	3241.42
700.193	3239.37
700.382	3167.7
700.571	3087.82
700.76	3222.99
700.948	3292.62
701.137	3278.29
701.326	3104.21
701.514	3085.78
701.703	3005.91
701.892	3061.2
702.08	3151.31
702.269	3118.54
702.457	3100.11
702.646	3073.49
702.834	3136.98
703.023	3161.55
703.212	3112.4
703.4	3112.4
703.589	2969.04
703.777	3081.68
703.965	3067.35
704.154	3110.35
704.342	2913.75
704.531	2872.79
704.719	3149.26
704.907	2995.67
705.096	3100.11
705.284	2952.66
705.472	2981.33
705.661	2969.04
705.849	3073.49
706.037	2944.47
706.226	2827.73
706.414	3003.86
706.602	3032.53
706.79	2893.27
706.979	2866.64
707.167	2848.21
707.355	2741.72
707.543	2780.63
707.731	2835.92
707.919	2741.72
708.107	2680.28
708.296	2811.35
708.484	2741.72
708.672	2633.18
708.86	2868.69
709.048	2776.53
709.236	2715.09
709.424	2751.96
709.612	2643.42
709.8	2608.6
709.988	2618.84
710.176	2715.09
710.364	2602.46
710.551	2667.99
710.739	2614.74
710.927	2557.4
711.115	2629.08
711.303	2600.41
711.491	2483.67
711.679	2657.75
711.866	2565.59
712.054	2532.83
712.242	2483.67
712.43	2487.77
712.617	2631.13
712.805	2491.87
712.993	2610.65
713.181	2493.91
713.368	2528.73
713.556	2430.43
713.744	2475.48
713.931	2434.52
714.119	2407.9
714.306	2409.95
714.494	2371.04
714.682	2401.76
714.869	2407.9
715.057	2342.36
715.244	2360.8
715.432	2334.17
715.619	2491.87
715.807	2325.98
715.994	2242.01
716.182	2352.6
716.369	2153.95
716.556	2194.91
716.744	2182.62
716.931	2239.97
717.119	2213.34
717.306	2246.11
717.493	2164.19
717.681	2129.38
717.868	2201.05
718.055	2133.47
718.242	2149.86
718.43	2180.57
718.617	2104.8
718.804	2039.26
718.991	2129.38
719.179	2129.38
719.366	2168.29
719.553	2180.57
719.74	2176.48
719.927	1988.07
720.114	2008.55
720.301	2084.32
720.488	1926.63
720.676	1996.26
720.863	2096.61
721.05	2012.64
721.237	1983.97
721.424	1943.01
721.611	2061.79
721.798	1883.62
721.985	1932.77
722.172	1969.63
722.358	1926.63
722.545	1922.53
722.732	1940.96
722.919	1932.77
723.106	1881.57
723.293	1922.53
723.48	1850.85
723.667	1820.13
723.853	1887.72
724.04	1830.37
724.227	1877.48
724.414	1785.32
724.6	1832.42
724.787	1943.01
724.974	1859.04
725.161	1910.24
725.347	1715.69
725.534	1795.56
725.72	1811.94
725.907	1746.41
726.094	1719.78
726.28	1713.64
726.467	1785.32
726.653	1715.69
726.84	1758.69
727.027	1719.78
727.213	1727.97
727.4	1730.02
727.586	1691.11
727.773	1711.59
727.959	1590.76
728.145	1742.31
728.332	1644.01
728.518	1727.97
728.705	1611.24
728.891	1611.24
729.077	1635.82
729.264	1613.29
729.45	1656.29
729.636	1627.62
729.823	1553.9
730.009	1652.2
730.195	1578.47
730.382	1578.47
730.568	1576.42
730.754	1568.23
730.94	1598.95
731.126	1474.03
731.313	1625.58
731.499	1592.81
731.685	1474.03
731.871	1439.21
732.057	1537.51
732.243	1496.55
732.429	1519.08
732.615	1476.07
732.801	1392.11
732.987	1492.46
733.173	1416.68
733.359	1469.93
733.545	1451.5
733.731	1291.76
733.917	1525.22
734.103	1412.59
734.289	1451.5
734.475	1324.52
734.661	1373.68
734.847	1392.11
735.033	1367.53
735.219	1414.63
735.404	1345
735.59	1349.1
735.776	1283.56
735.962	1355.24
736.148	1371.63
736.333	1373.68
736.519	1349.1
736.705	1377.77
736.89	1353.2
737.076	1447.4
737.262	1281.52
737.447	1355.24
737.633	1252.84
737.819	1336.81
738.004	1271.28
738.19	1306.09
738.375	1193.45
738.561	1291.76
738.747	1279.47
738.932	1248.75
739.118	1299.95
739.303	1291.76
739.489	1267.18
739.674	1236.46
739.859	1224.17
740.045	1267.18
740.23	1338.86
740.416	1238.51
740.601	1304.04
740.786	1136.11
740.972	1226.22
741.157	1199.6
741.342	1156.59
741.528	1113.58
741.713	1129.97
741.898	1211.89
742.084	1258.99
742.269	1162.73
742.454	1234.41
742.639	1148.4
742.824	1107.44
743.01	1056.24
743.195	1205.74
743.38	1138.16
743.565	1011.18
743.75	1080.82
743.935	1050.1
744.12	1023.47
744.305	1093.1
744.49	1058.29
744.675	1113.58
744.86	1058.29
745.045	1060.34
745.23	1136.11
745.415	1064.43
745.6	974.32
745.785	1119.73
745.97	1129.97
746.155	1023.47
746.34	1019.38
746.525	1060.34
746.71	984.56
746.895	1074.67
747.079	1021.42
747.264	939.51
747.449	980.47
747.634	992.75
747.819	927.22
748.003	982.51
748.188	947.7
748.373	974.32
748.557	931.31
748.742	923.12
748.927	933.36
749.111	1017.33
749.296	941.55
749.481	884.21
749.665	959.99
749.85	835.06
750.034	878.07
750.219	849.4
750.404	943.6
750.588	841.2
750.773	882.16
750.957	882.16
751.141	751.09
751.326	761.33
751.51	871.92
751.695	800.24
751.879	890.35
752.064	886.26
752.248	787.96
752.432	800.24
752.617	816.63
752.801	818.68
752.985	800.24
753.17	828.92
753.354	812.53
753.538	865.78
753.722	818.68
753.907	816.63
754.091	706.04
754.275	867.83
754.459	701.94
754.643	742.9
754.828	706.04
755.012	767.48
755.196	787.96
755.38	671.22
755.564	677.37
755.748	775.67
755.932	742.9
756.116	681.46
756.3	749.04
756.484	685.56
756.668	726.52
756.852	697.85
757.036	693.75
757.22	675.32
757.404	691.7
757.588	738.8
757.772	611.83
757.956	656.89
758.14	714.23
758.323	648.69
758.507	628.21
758.691	642.55
758.875	626.17
759.059	601.59
759.242	650.74
759.426	644.6
759.61	726.52
759.794	574.97
759.977	671.22
760.161	673.27
760.345	624.12
760.528	679.41
760.712	628.21
760.895	597.49
761.079	603.64
761.263	630.26
761.446	595.45
761.63	644.6
761.813	534.01
761.997	548.34
762.18	620.02
762.364	505.34
762.547	591.35
762.731	658.93
762.914	566.78
763.098	595.45
763.281	718.33
763.464	536.06
763.648	577.02
763.831	609.78
764.015	542.2
764.198	626.17
764.381	554.49
764.564	536.06
764.748	583.16
764.931	572.92
765.114	615.93
765.297	599.54
765.481	624.12
765.664	640.5
765.847	513.53
766.03	538.1
766.213	474.62
766.397	548.34
766.58	620.02
766.763	468.47
766.946	499.19
767.129	542.2
767.312	497.14
767.495	527.86
767.678	505.34
767.861	620.02
768.044	523.77
768.227	519.67
768.41	534.01
768.593	519.67
768.776	544.25
768.959	495.1
769.142	536.06
769.324	458.23
769.507	527.86
769.69	525.82
769.873	435.71
770.056	503.29
770.239	499.19
770.421	509.43
770.604	404.99
770.787	468.47
770.97	497.14
771.152	505.34
771.335	517.62
771.518	378.36
771.7	454.14
771.883	480.76
772.066	419.32
772.248	445.95
772.431	495.1
772.613	521.72
772.796	404.99
772.978	499.19
773.161	523.77
773.343	458.23
773.526	447.99
773.708	529.91
773.891	419.32
774.073	458.23
774.256	419.32
774.438	464.38
774.621	431.61
774.803	441.85
774.985	425.47
775.168	421.37
775.35	425.47
775.532	425.47
775.715	452.09
775.897	546.3
776.079	392.7
776.261	409.08
776.444	382.46
776.626	374.27
776.808	415.23
776.99	456.19
777.173	382.46
777.355	390.65
777.537	378.36
777.719	431.61
777.901	390.65
778.083	388.6
778.265	398.84
778.447	366.07
778.629	384.51
778.811	445.95
778.993	366.07
779.175	394.75
779.357	374.27
779.539	372.22
779.721	384.51
779.903	337.4
780.085	447.99
780.267	343.55
780.449	294.4
780.631	335.35
780.812	417.27
780.994	359.93
781.176	339.45
781.358	318.97
781.54	339.45
781.721	390.65
781.903	316.92
782.085	271.87
782.267	327.16
782.448	323.07
782.63	370.17
782.812	312.83
782.993	388.6
783.175	280.06
783.357	296.44
783.538	298.49
783.72	341.5
783.901	337.4
784.083	284.16
784.264	253.44
784.446	286.2
784.627	345.59
784.809	370.17
784.99	267.77
785.172	278.01
785.353	304.64
785.535	282.11
785.716	275.96
785.897	222.72
786.079	196.09
786.26	306.68
786.441	321.02
786.623	310.78
786.804	239.1
786.985	288.25
787.167	278.01
787.348	269.82
787.529	292.35
787.71	337.4
787.891	245.24
788.073	212.48
788.254	271.87
788.435	261.63
788.616	235
788.797	271.87
788.978	239.1
789.159	239.1
789.34	222.72
789.522	261.63
789.703	263.68
789.884	228.86
790.065	204.28
790.246	187.9
790.427	253.44
790.607	204.28
790.788	210.43
790.969	237.05
791.15	210.43
791.331	284.16
791.512	259.58
791.693	196.09
791.874	204.28
792.054	183.81
792.235	187.9
792.416	173.57
792.597	183.81
792.778	239.1
792.958	284.16
793.139	204.28
793.32	226.81
793.5	228.86
793.681	206.33
793.862	169.47
794.042	183.81
794.223	222.72
794.404	132.61
794.584	181.76
794.765	257.53
794.945	179.71
795.126	204.28
795.306	208.38
795.487	235
795.667	269.82
795.848	208.38
796.028	138.75
796.209	136.7
796.389	251.39
796.57	171.52
796.75	155.13
796.93	210.43
797.111	146.94
797.291	204.28
797.471	110.08
797.652	214.52
797.832	157.18
798.012	185.85
798.192	173.57
798.373	165.37
798.553	183.81
798.733	155.13
798.913	79.36
799.093	116.22
799.274	114.17
799.454	226.81
799.634	198.14
799.814	177.66
799.994	99.84
800.174	157.18
800.354	140.8
800.534	175.61
800.714	202.24
800.894	103.93
801.074	206.33
801.254	196.09
801.434	108.03
801.614	202.24
801.794	110.08
801.974	318.97
802.154	136.7
802.334	151.04
802.514	69.12
802.693	155.13
802.873	153.09
803.053	173.57
803.233	122.37
803.413	114.17
803.592	116.22
803.772	169.47
803.952	105.98
804.131	95.74
804.311	138.75
804.491	183.81
804.67	167.42
804.85	95.74
805.03	85.5
805.209	144.89
805.389	112.13
805.568	157.18
805.748	142.85
805.928	87.55
806.107	108.03
806.287	120.32
806.466	112.13
806.646	153.09
806.825	108.03
807.004	112.13
807.184	130.56
807.363	132.61
807.543	157.18
807.722	110.08
807.901	175.61
808.081	144.89
808.26	99.84
808.439	108.03
808.619	122.37
808.798	81.41
808.977	114.17
809.156	144.89
809.336	69.12
809.515	114.17
809.694	46.59
809.873	77.31
810.052	142.85
810.231	171.52
810.411	122.37
810.59	116.22
810.769	26.11
810.948	138.75
811.127	114.17
811.306	118.27
811.485	83.45
811.664	95.74
811.843	124.41
812.022	112.13
812.201	91.65
812.38	185.85
812.559	71.17
812.737	132.61
812.916	112.13
813.095	75.26
813.274	85.5
813.453	112.13
813.632	142.85
813.811	81.41
813.989	30.21
814.168	32.26
814.347	77.31
814.526	108.03
814.704	116.22
814.883	189.95
815.062	118.27
815.24	83.45
815.419	136.7
815.598	179.71
815.776	81.41
815.955	40.45
816.133	97.79
816.312	75.26
816.49	50.69
816.669	112.13
816.847	42.5
817.026	126.46
817.204	67.07
817.383	95.74
817.561	85.5
817.74	126.46
817.918	79.36
818.097	69.12
818.275	54.78
818.453	157.18
818.632	71.17
818.81	87.55
818.988	97.79
819.167	122.37
819.345	54.78
819.523	91.65
819.701	87.55
819.879	36.35
820.058	44.54
820.236	89.6
820.414	71.17
820.592	95.74
820.77	77.31
820.948	134.65
821.127	36.35
821.305	32.26
821.483	60.93
821.661	83.45
821.839	95.74
822.017	7.68
822.195	24.06
822.373	122.37
822.551	67.07
822.729	91.65
822.907	32.26
823.085	75.26
823.262	28.16
823.44	40.45
823.618	56.83
823.796	120.32
823.974	105.98
824.152	17.92
824.329	108.03
824.507	85.5
824.685	19.97
824.863	79.36
825.04	108.03
825.218	54.78
825.396	46.59
825.574	65.02
825.751	91.65
825.929	38.4
826.107	62.98
826.284	-18.94
826.462	103.93
826.639	-20.99
826.817	7.68
826.994	73.21
827.172	-2.56
827.349	103.93
827.527	71.17
827.704	112.13
827.882	110.08
828.059	99.84
828.237	103.93
828.414	118.27
828.591	24.06
828.769	30.21
828.946	81.41
829.124	46.59
829.301	126.46
829.478	44.54
829.655	93.69
829.833	17.92
830.01	75.26
830.187	89.6
830.364	69.12
830.542	79.36
830.719	67.07
830.896	95.74
831.073	15.87
831.25	11.78
831.427	73.21
831.604	54.78
831.782	36.35
831.959	116.22
832.136	17.92
832.313	65.02
832.49	36.35
832.667	-10.75
832.844	32.26
833.021	67.07
833.198	75.26
833.374	81.41
833.551	65.02
833.728	77.31
833.905	91.65
834.082	36.35
834.259	46.59
834.436	79.36
834.612	52.74
834.789	95.74
834.966	58.88
835.143	105.98
835.319	26.11
835.496	112.13
835.673	48.64
835.85	28.16
836.026	34.3
836.203	108.03
836.38	26.11
836.556	22.02
836.733	58.88
836.909	40.45
837.086	65.02
837.262	56.83
837.439	19.97
837.616	79.36
837.792	71.17
837.968	-10.75
838.145	56.83
838.321	38.4
838.498	44.54
838.674	13.82
838.851	22.02
839.027	5.63
839.203	91.65
839.38	48.64
839.556	-16.9
839.732	89.6
839.909	40.45
840.085	79.36
840.261	-49.66
840.437	73.21
840.614	22.02
840.79	124.41
840.966	48.64
841.142	15.87
841.318	24.06
841.494	44.54
841.671	7.68
841.847	73.21
842.023	32.26
842.199	13.82
842.375	-14.85
842.551	26.11
842.727	69.12
842.903	97.79
843.079	26.11
843.255	50.69
843.431	79.36
843.607	54.78
843.783	-51.71
843.959	-4.61
844.134	7.68
844.31	-18.94
844.486	58.88
844.662	30.21
844.838	34.3
845.013	79.36
845.189	103.93
845.365	79.36
845.541	17.92
845.716	71.17
845.892	38.4
846.068	77.31
846.244	95.74
846.419	87.55
846.595	62.98
846.77	38.4
846.946	54.78
847.122	13.82
847.297	62.98
847.473	122.37
847.648	46.59
847.824	9.73
847.999	-18.94
848.175	-2.56
848.35	62.98
848.526	85.5
848.701	50.69
848.876	34.3
849.052	50.69
849.227	48.64
849.403	11.78
849.578	54.78
849.753	1.54
849.929	-35.33
850.104	95.74
850.279	11.78
850.454	56.83
850.63	46.59
850.805	-6.66
850.98	30.21
851.155	9.73
851.33	95.74
851.505	34.3
851.681	91.65
851.856	9.73
852.031	-20.99
852.206	3.58
852.381	52.74
852.556	-23.04
852.731	32.26
852.906	38.4
853.081	-4.61
853.256	-16.9
853.431	15.87
853.606	-6.66
853.781	-41.47
853.956	-18.94
854.131	1.54
854.305	-8.7
854.48	50.69
854.655	-8.7
854.83	91.65
855.005	1.54
855.18	58.88
855.354	58.88
855.529	75.26
855.704	-14.85
855.879	87.55
856.053	19.97
856.228	24.06
856.403	-8.7
856.577	36.35
856.752	9.73
856.926	30.21
857.101	-23.04
857.276	5.63
857.45	32.26
857.625	-14.85
857.799	3.58
857.974	19.97
858.148	65.02
858.323	11.78
858.497	42.5
858.672	-35.33
858.846	13.82
859.02	71.17
859.195	-12.8
859.369	-10.75
859.543	28.16
859.718	26.11
859.892	40.45
860.066	7.68
860.241	-35.33
860.415	1.54
860.589	-2.56
860.763	17.92
860.938	34.3
861.112	62.98
861.286	-43.52
861.46	11.78
861.634	54.78
861.808	7.68
861.982	44.54
862.157	32.26
862.331	-8.7
862.505	36.35
862.679	-27.14
862.853	46.59
863.027	19.97
863.201	85.5
863.375	3.58
863.549	34.3
863.722	-55.81
863.896	13.82
864.07	30.21
864.244	9.73
864.418	83.45
864.592	-10.75
864.766	-41.47
864.939	-16.9
865.113	46.59
865.287	9.73
865.461	-16.9
865.634	120.32
865.808	44.54
865.982	58.88
866.156	34.3
866.329	-49.66
866.503	42.5
866.676	24.06
866.85	24.06
867.024	-8.7
867.197	17.92
867.371	15.87
867.544	40.45
867.718	-0.51
867.891	9.73
868.065	19.97
868.238	-18.94
868.412	-10.75
868.585	30.21
868.759	22.02
868.932	36.35
869.105	3.58
869.279	-6.66
869.452	65.02
869.625	-0.51
869.799	48.64
869.972	-0.51
870.145	-31.23
870.319	-27.14
870.492	-4.61
870.665	15.87
870.838	-0.51
871.011	-51.71
871.185	-35.33
871.358	44.54
871.531	62.98
871.704	-37.38
871.877	38.4
872.05	46.59
872.223	1.54
872.396	-31.23
872.569	44.54
872.742	30.21
872.915	13.82
873.088	11.78
873.261	32.26
873.434	-4.61
873.607	-4.61
873.78	-12.8
873.953	79.36
874.126	-80.38
874.299	-18.94
874.471	9.73
874.644	-2.56
874.817	-18.94
874.99	44.54
875.163	-33.28
875.335	24.06
875.508	17.92
875.681	62.98
875.853	-23.04
876.026	-4.61
876.199	-37.38
876.371	-18.94
876.544	-18.94
876.717	-12.8
876.889	-43.52
877.062	22.02
877.234	-6.66
877.407	71.17
877.579	-10.75
877.752	40.45
877.924	22.02
878.097	38.4
878.269	3.58
878.442	26.11
878.614	32.26
878.786	5.63
878.959	42.5
879.131	13.82
879.303	-2.56
879.476	1.54
879.648	48.64
879.82	-35.33
879.993	9.73
880.165	-6.66
880.337	-16.9
880.509	-0.51
880.681	-0.51
880.854	3.58
881.026	15.87
881.198	73.21
881.37	11.78
881.542	22.02
881.714	110.08
881.886	40.45
882.058	-43.52
882.23	24.06
882.402	-25.09
882.574	5.63
882.746	-2.56
882.918	48.64
883.09	-27.14
883.262	5.63
883.434	-37.38
883.606	-25.09
883.778	9.73
883.95	48.64
884.122	105.98
884.293	28.16
884.465	22.02
884.637	65.02
884.809	-51.71
884.98	71.17
885.152	40.45
885.324	17.92
885.496	46.59
885.667	42.5
885.839	56.83
886.011	-18.94
886.182	-25.09
886.354	38.4
886.525	-6.66
886.697	-0.51
886.869	-14.85
887.04	15.87
887.212	-6.66
887.383	3.58
887.555	17.92
887.726	24.06
887.897	30.21
888.069	-10.75
888.24	11.78
888.412	17.92
888.583	-47.62
888.754	-59.9
888.926	26.11
889.097	-2.56
889.268	48.64
889.44	30.21
889.611	36.35
889.782	-10.75
889.953	17.92
890.125	11.78
890.296	67.07
890.467	-2.56
890.638	-49.66
890.809	38.4
890.98	-20.99
891.151	42.5
891.323	13.82
891.494	-0.51
891.665	42.5
891.836	24.06
892.007	-10.75
892.178	22.02
892.349	1.54
892.52	56.83
892.691	9.73
892.862	44.54
893.032	22.02
893.203	34.3
893.374	5.63
893.545	-12.8
893.716	-43.52
893.887	9.73
894.057	15.87
894.228	19.97
894.399	22.02
894.57	87.55
894.74	36.35
894.911	38.4
895.082	5.63
895.253	-25.09
895.423	-39.42
895.594	-12.8
895.764	40.45
895.935	-55.81
896.106	1.54
896.276	-16.9
896.447	42.5
896.617	-27.14
896.788	9.73
896.958	32.26
897.129	-18.94
897.299	42.5
897.47	19.97
897.64	54.78
897.81	3.58
897.981	-41.47
898.151	30.21
898.322	65.02
898.492	5.63
898.662	-23.04
898.832	32.26
899.003	-2.56
899.173	-16.9
899.343	22.02
899.513	15.87
