Data from USB4F104151__78__13-54-18-771.txt Node

Date: Thu Mar 13 13:54:18 EDT 2025
User: louis
Spectrometer: USB4F10415
Trigger mode: 4
Integration Time (sec): 1.000000E-2
Scans to average: 1
Electric dark correction enabled: true
Nonlinearity correction enabled: false
Boxcar width: 0
XAxis mode: Wavelengths
Number of Pixels in Spectrum: 3648
>>>>>Begin Spectral Data<<<<<
178.204	-64
178.424	-64
178.644	-64
178.864	-96.77
179.084	-84.48
179.304	-61.95
179.524	-12.8
179.744	-4.61
179.964	9.73
180.184	-55.81
180.404	-18.94
180.624	11.78
180.844	-4.61
181.064	36.35
181.283	5.63
181.503	24.06
181.723	71.17
181.943	1.54
182.163	32.26
182.383	34.3
182.602	7.68
182.822	54.78
183.042	38.4
183.262	-29.18
183.482	46.59
183.701	30.21
183.921	30.21
184.141	26.11
184.361	7.68
184.58	-35.33
184.8	50.69
185.02	7.68
185.239	11.78
185.459	19.97
185.679	9.73
185.898	1.54
186.118	50.69
186.338	1.54
186.557	-43.52
186.777	5.63
186.997	52.74
187.216	28.16
187.436	24.06
187.655	-6.66
187.875	71.17
188.095	38.4
188.314	46.59
188.534	-117.25
188.753	71.17
188.973	62.98
189.192	9.73
189.412	79.36
189.631	85.5
189.851	95.74
190.07	-6.66
190.29	58.88
190.509	89.6
190.729	11.78
190.948	65.02
191.168	13.82
191.387	30.21
191.607	-25.09
191.826	77.31
192.045	34.3
192.265	32.26
192.484	-8.7
192.704	-59.9
192.923	46.59
193.142	71.17
193.362	-14.85
193.581	-45.57
193.8	48.64
194.02	46.59
194.239	34.3
194.458	19.97
194.678	17.92
194.897	48.64
195.116	26.11
195.335	-18.94
195.555	26.11
195.774	7.68
195.993	28.16
196.212	56.83
196.432	30.21
196.651	52.74
196.87	-18.94
197.089	118.27
197.308	42.5
197.528	75.26
197.747	56.83
197.966	28.16
198.185	69.12
198.404	-6.66
198.623	-43.52
198.842	46.59
199.062	26.11
199.281	-12.8
199.5	38.4
199.719	22.02
199.938	22.02
200.157	1.54
200.376	34.3
200.595	79.36
200.814	40.45
201.033	11.78
201.252	-4.61
201.471	34.3
201.69	46.59
201.909	44.54
202.128	5.63
202.347	13.82
202.566	-27.14
202.785	56.83
203.004	-33.28
203.223	91.65
203.442	-35.33
203.661	89.6
203.879	19.97
204.098	65.02
204.317	-25.09
204.536	-23.04
204.755	-16.9
204.974	34.3
205.193	81.41
205.411	40.45
205.63	-20.99
205.849	7.68
206.068	5.63
206.287	79.36
206.505	-29.18
206.724	44.54
206.943	50.69
207.162	54.78
207.381	83.45
207.599	42.5
207.818	5.63
208.037	48.64
208.255	19.97
208.474	7.68
208.693	-6.66
208.911	73.21
209.13	50.69
209.349	69.12
209.567	34.3
209.786	87.55
210.005	19.97
210.223	52.74
210.442	-16.9
210.661	7.68
210.879	24.06
211.098	-14.85
211.316	67.07
211.535	17.92
211.753	-0.51
211.972	36.35
212.191	28.16
212.409	54.78
212.628	-16.9
212.846	71.17
213.065	-53.76
213.283	-6.66
213.502	44.54
213.72	44.54
213.938	-23.04
214.157	5.63
214.375	28.16
214.594	34.3
214.812	48.64
215.031	58.88
215.249	44.54
215.467	56.83
215.686	1.54
215.904	40.45
216.122	-16.9
216.341	60.93
216.559	-8.7
216.778	19.97
216.996	81.41
217.214	73.21
217.432	36.35
217.651	73.21
217.869	-14.85
218.087	22.02
218.306	-10.75
218.524	28.16
218.742	34.3
218.96	-18.94
219.179	69.12
219.397	-23.04
219.615	77.31
219.833	-29.18
220.051	-16.9
220.27	30.21
220.488	5.63
220.706	-6.66
220.924	48.64
221.142	114.17
221.36	26.11
221.578	60.93
221.796	36.35
222.015	40.45
222.233	-14.85
222.451	7.68
222.669	9.73
222.887	101.89
223.105	89.6
223.323	48.64
223.541	11.78
223.759	103.93
223.977	62.98
224.195	71.17
224.413	-27.14
224.631	30.21
224.849	73.21
225.067	79.36
225.285	-51.71
225.503	79.36
225.721	15.87
225.939	17.92
226.157	-25.09
226.375	13.82
226.592	30.21
226.81	48.64
227.028	26.11
227.246	132.61
227.464	-41.47
227.682	-0.51
227.9	58.88
228.117	60.93
228.335	17.92
228.553	-6.66
228.771	44.54
228.989	5.63
229.206	40.45
229.424	22.02
229.642	42.5
229.86	114.17
230.077	77.31
230.295	71.17
230.513	13.82
230.731	46.59
230.948	-18.94
231.166	17.92
231.384	-37.38
231.601	-8.7
231.819	30.21
232.037	50.69
232.254	-16.9
232.472	9.73
232.689	-29.18
232.907	19.97
233.125	77.31
233.342	38.4
233.56	40.45
233.777	30.21
233.995	-47.62
234.213	73.21
234.43	-6.66
234.648	-10.75
234.865	75.26
235.083	69.12
235.3	71.17
235.518	87.55
235.735	132.61
235.953	15.87
236.17	79.36
236.388	83.45
236.605	-18.94
236.822	26.11
237.04	11.78
237.257	42.5
237.475	34.3
237.692	101.89
237.909	30.21
238.127	79.36
238.344	7.68
238.562	32.26
238.779	108.03
238.996	58.88
239.214	11.78
239.431	28.16
239.648	-29.18
239.865	42.5
240.083	93.69
240.3	120.32
240.517	50.69
240.735	19.97
240.952	69.12
241.169	26.11
241.386	67.07
241.603	38.4
241.821	-14.85
242.038	40.45
242.255	26.11
242.472	44.54
242.689	87.55
242.907	52.74
243.124	13.82
243.341	-14.85
243.558	62.98
243.775	40.45
243.992	48.64
244.209	52.74
244.426	79.36
244.643	-2.56
244.86	15.87
245.078	-49.66
245.295	32.26
245.512	81.41
245.729	17.92
245.946	81.41
246.163	-6.66
246.38	-4.61
246.597	-16.9
246.814	26.11
247.031	-84.48
247.248	50.69
247.464	44.54
247.681	50.69
247.898	73.21
248.115	24.06
248.332	-14.85
248.549	58.88
248.766	-8.7
248.983	-0.51
249.2	-10.75
249.417	75.26
249.633	-16.9
249.85	50.69
250.067	-33.28
250.284	60.93
250.501	17.92
250.717	52.74
250.934	34.3
251.151	101.89
251.368	30.21
251.585	56.83
251.801	36.35
252.018	42.5
252.235	7.68
252.451	73.21
252.668	-8.7
252.885	1.54
253.102	60.93
253.318	24.06
253.535	22.02
253.752	110.08
253.968	-25.09
254.185	-14.85
254.401	26.11
254.618	24.06
254.835	-61.95
255.051	-14.85
255.268	50.69
255.484	71.17
255.701	122.37
255.917	36.35
256.134	32.26
256.351	-12.8
256.567	40.45
256.784	34.3
257	-43.52
257.217	40.45
257.433	3.58
257.65	30.21
257.866	79.36
258.082	56.83
258.299	-33.28
258.515	30.21
258.732	73.21
258.948	9.73
259.165	62.98
259.381	73.21
259.597	79.36
259.814	9.73
260.03	44.54
260.246	36.35
260.463	-39.42
260.679	62.98
260.895	34.3
261.112	124.41
261.328	-8.7
261.544	13.82
261.761	-20.99
261.977	-16.9
262.193	13.82
262.409	46.59
262.626	44.54
262.842	30.21
263.058	11.78
263.274	95.74
263.49	-4.61
263.707	110.08
263.923	67.07
264.139	-2.56
264.355	-0.51
264.571	69.12
264.787	-4.61
265.004	11.78
265.22	56.83
265.436	22.02
265.652	65.02
265.868	58.88
266.084	-8.7
266.3	-25.09
266.516	56.83
266.732	101.89
266.948	-29.18
267.164	34.3
267.38	40.45
267.596	-23.04
267.812	46.59
268.028	83.45
268.244	97.79
268.46	77.31
268.676	22.02
268.892	-45.57
269.108	-14.85
269.324	3.58
269.54	24.06
269.756	130.56
269.972	-6.66
270.188	122.37
270.403	46.59
270.619	-25.09
270.835	22.02
271.051	48.64
271.267	93.69
271.483	19.97
271.698	7.68
271.914	17.92
272.13	17.92
272.346	24.06
272.562	19.97
272.777	60.93
272.993	85.5
273.209	32.26
273.425	62.98
273.64	-0.51
273.856	-25.09
274.072	-6.66
274.287	44.54
274.503	34.3
274.719	65.02
274.934	56.83
275.15	19.97
275.366	75.26
275.581	48.64
275.797	-4.61
276.012	38.4
276.228	118.27
276.444	13.82
276.659	24.06
276.875	28.16
277.09	28.16
277.306	48.64
277.521	73.21
277.737	69.12
277.952	75.26
278.168	15.87
278.383	-35.33
278.599	52.74
278.814	7.68
279.03	-29.18
279.245	-8.7
279.461	17.92
279.676	67.07
279.892	19.97
280.107	105.98
280.322	46.59
280.538	134.65
280.753	50.69
280.969	30.21
281.184	11.78
281.399	56.83
281.615	22.02
281.83	58.88
282.045	83.45
282.26	79.36
282.476	26.11
282.691	56.83
282.906	34.3
283.122	-64
283.337	-6.66
283.552	69.12
283.767	19.97
283.983	73.21
284.198	19.97
284.413	67.07
284.628	75.26
284.843	-49.66
285.058	9.73
285.274	52.74
285.489	40.45
285.704	34.3
285.919	-51.71
286.134	-18.94
286.349	9.73
286.564	79.36
286.779	73.21
286.995	56.83
287.21	-6.66
287.425	32.26
287.64	30.21
287.855	65.02
288.07	67.07
288.285	19.97
288.5	71.17
288.715	87.55
288.93	3.58
289.145	65.02
289.36	58.88
289.575	36.35
289.79	38.4
290.004	46.59
290.219	30.21
290.434	9.73
290.649	34.3
290.864	89.6
291.079	48.64
291.294	65.02
291.509	85.5
291.724	38.4
291.938	24.06
292.153	93.69
292.368	87.55
292.583	81.41
292.798	54.78
293.012	99.84
293.227	48.64
293.442	7.68
293.657	34.3
293.871	95.74
294.086	40.45
294.301	34.3
294.516	81.41
294.73	128.51
294.945	3.58
295.16	-94.72
295.374	32.26
295.589	79.36
295.804	95.74
296.018	-25.09
296.233	-14.85
296.447	13.82
296.662	-6.66
296.877	28.16
297.091	58.88
297.306	48.64
297.52	69.12
297.735	108.03
297.949	30.21
298.164	105.98
298.378	3.58
298.593	56.83
298.807	24.06
299.022	13.82
299.236	-33.28
299.451	13.82
299.665	15.87
299.88	36.35
300.094	28.16
300.309	5.63
300.523	69.12
300.737	60.93
300.952	-8.7
301.166	60.93
301.381	32.26
301.595	7.68
301.809	-66.05
302.024	32.26
302.238	-39.42
302.452	73.21
302.667	28.16
302.881	-25.09
303.095	3.58
303.309	40.45
303.524	-4.61
303.738	-0.51
303.952	44.54
304.166	44.54
304.381	50.69
304.595	97.79
304.809	7.68
305.023	48.64
305.237	28.16
305.452	36.35
305.666	40.45
305.88	60.93
306.094	-14.85
306.308	44.54
306.522	81.41
306.736	-20.99
306.95	7.68
307.164	15.87
307.379	50.69
307.593	110.08
307.807	38.4
308.021	50.69
308.235	13.82
308.449	9.73
308.663	60.93
308.877	83.45
309.091	42.5
309.305	24.06
309.519	-27.14
309.733	38.4
309.947	1.54
310.161	73.21
310.374	7.68
310.588	54.78
310.802	34.3
311.016	44.54
311.23	26.11
311.444	81.41
311.658	-4.61
311.872	-0.51
312.085	73.21
312.299	40.45
312.513	30.21
312.727	46.59
312.941	38.4
313.154	48.64
313.368	110.08
313.582	128.51
313.796	28.16
314.009	52.74
314.223	34.3
314.437	7.68
314.651	-20.99
314.864	17.92
315.078	83.45
315.292	7.68
315.505	28.16
315.719	19.97
315.933	22.02
316.146	17.92
316.36	-39.42
316.573	93.69
316.787	56.83
317.001	69.12
317.214	71.17
317.428	81.41
317.641	19.97
317.855	-0.51
318.068	105.98
318.282	1.54
318.495	118.27
318.709	26.11
318.922	36.35
319.136	13.82
319.349	28.16
319.563	73.21
319.776	17.92
319.99	5.63
320.203	99.84
320.417	42.5
320.63	34.3
320.843	26.11
321.057	36.35
321.27	60.93
321.483	114.17
321.697	81.41
321.91	81.41
322.124	83.45
322.337	32.26
322.55	87.55
322.763	48.64
322.977	-4.61
323.19	24.06
323.403	146.94
323.617	81.41
323.83	50.69
324.043	9.73
324.256	17.92
324.469	15.87
324.683	89.6
324.896	-10.75
325.109	62.98
325.322	22.02
325.535	83.45
325.748	60.93
325.962	99.84
326.175	24.06
326.388	36.35
326.601	38.4
326.814	24.06
327.027	44.54
327.24	89.6
327.453	46.59
327.666	7.68
327.879	48.64
328.092	34.3
328.305	42.5
328.518	-0.51
328.731	-29.18
328.944	42.5
329.157	54.78
329.37	13.82
329.583	87.55
329.796	-2.56
330.009	-25.09
330.222	32.26
330.435	75.26
330.648	62.98
330.861	17.92
331.073	73.21
331.286	95.74
331.499	-10.75
331.712	-0.51
331.925	93.69
332.138	101.89
332.35	38.4
332.563	15.87
332.776	40.45
332.989	-27.14
333.202	-23.04
333.414	40.45
333.627	77.31
333.84	105.98
334.053	-0.51
334.265	85.5
334.478	124.41
334.691	-8.7
334.903	87.55
335.116	50.69
335.329	79.36
335.541	-29.18
335.754	52.74
335.966	79.36
336.179	54.78
336.392	24.06
336.604	28.16
336.817	-23.04
337.029	9.73
337.242	73.21
337.454	13.82
337.667	13.82
337.88	85.5
338.092	11.78
338.305	95.74
338.517	-14.85
338.729	79.36
338.942	42.5
339.154	-12.8
339.367	46.59
339.579	105.98
339.792	48.64
340.004	42.5
340.217	52.74
340.429	69.12
340.641	-12.8
340.854	30.21
341.066	9.73
341.278	30.21
341.491	130.56
341.703	17.92
341.915	44.54
342.128	-8.7
342.34	-29.18
342.552	7.68
342.764	-29.18
342.977	73.21
343.189	48.64
343.401	48.64
343.613	40.45
343.826	26.11
344.038	-31.23
344.25	67.07
344.462	11.78
344.674	9.73
344.886	-6.66
345.099	73.21
345.311	38.4
345.523	87.55
345.735	22.02
345.947	40.45
346.159	-27.14
346.371	79.36
346.583	-33.28
346.795	22.02
347.007	-41.47
347.219	73.21
347.431	9.73
347.643	62.98
347.855	77.31
348.067	71.17
348.279	-23.04
348.491	108.03
348.703	42.5
348.915	67.07
349.127	22.02
349.339	30.21
349.551	28.16
349.763	26.11
349.975	46.59
350.187	36.35
350.399	3.58
350.61	15.87
350.822	26.11
351.034	87.55
351.246	-10.75
351.458	101.89
351.669	17.92
351.881	5.63
352.093	13.82
352.305	42.5
352.517	19.97
352.728	87.55
352.94	34.3
353.152	50.69
353.363	5.63
353.575	38.4
353.787	34.3
353.999	5.63
354.21	89.6
354.422	81.41
354.633	-20.99
354.845	-6.66
355.057	-4.61
355.268	-0.51
355.48	87.55
355.692	73.21
355.903	52.74
356.115	-18.94
356.326	-29.18
356.538	5.63
356.749	28.16
356.961	19.97
357.172	-4.61
357.384	-14.85
357.595	83.45
357.807	126.46
358.018	-12.8
358.23	22.02
358.441	13.82
358.653	7.68
358.864	32.26
359.075	50.69
359.287	91.65
359.498	48.64
359.709	62.98
359.921	-2.56
360.132	-6.66
360.344	52.74
360.555	32.26
360.766	87.55
360.977	38.4
361.189	89.6
361.4	126.46
361.611	32.26
361.823	22.02
362.034	54.78
362.245	34.3
362.456	69.12
362.667	60.93
362.879	65.02
363.09	-10.75
363.301	26.11
363.512	67.07
363.723	75.26
363.935	17.92
364.146	65.02
364.357	40.45
364.568	93.69
364.779	65.02
364.99	108.03
365.201	75.26
365.412	3.58
365.623	13.82
365.834	67.07
366.045	62.98
366.256	7.68
366.467	77.31
366.678	79.36
366.889	48.64
367.1	9.73
367.311	3.58
367.522	52.74
367.733	-20.99
367.944	79.36
368.155	65.02
368.366	62.98
368.577	15.87
368.788	101.89
368.999	7.68
369.209	-8.7
369.42	103.93
369.631	56.83
369.842	77.31
370.053	103.93
370.264	54.78
370.474	67.07
370.685	69.12
370.896	52.74
371.107	120.32
371.317	38.4
371.528	11.78
371.739	91.65
371.95	101.89
372.16	101.89
372.371	52.74
372.582	28.16
372.792	30.21
373.003	9.73
373.214	79.36
373.424	30.21
373.635	-35.33
373.846	-4.61
374.056	34.3
374.267	5.63
374.477	46.59
374.688	32.26
374.898	11.78
375.109	26.11
375.319	54.78
375.53	56.83
375.74	69.12
375.951	56.83
376.161	26.11
376.372	-6.66
376.582	24.06
376.793	99.84
377.003	46.59
377.214	58.88
377.424	79.36
377.635	-20.99
377.845	67.07
378.055	83.45
378.266	7.68
378.476	103.93
378.686	58.88
378.897	56.83
379.107	44.54
379.317	48.64
379.528	48.64
379.738	103.93
379.948	81.41
380.158	101.89
380.369	93.69
380.579	50.69
380.789	17.92
380.999	30.21
381.21	40.45
381.42	-18.94
381.63	56.83
381.84	34.3
382.05	7.68
382.261	60.93
382.471	46.59
382.681	36.35
382.891	105.98
383.101	54.78
383.311	32.26
383.521	159.23
383.731	34.3
383.941	40.45
384.151	26.11
384.361	34.3
384.571	24.06
384.781	7.68
384.991	-16.9
385.201	122.37
385.411	36.35
385.621	58.88
385.831	58.88
386.041	95.74
386.251	73.21
386.461	126.46
386.671	9.73
386.881	13.82
387.091	-4.61
387.301	71.17
387.511	118.27
387.72	116.22
387.93	67.07
388.14	17.92
388.35	36.35
388.56	108.03
388.769	79.36
388.979	69.12
389.189	9.73
389.399	65.02
389.609	-0.51
389.818	54.78
390.028	52.74
390.238	112.13
390.447	73.21
390.657	5.63
390.867	-39.42
391.076	151.04
391.286	34.3
391.496	36.35
391.705	116.22
391.915	81.41
392.125	17.92
392.334	101.89
392.544	50.69
392.753	91.65
392.963	3.58
393.172	108.03
393.382	42.5
393.591	122.37
393.801	42.5
394.01	148.99
394.22	38.4
394.429	83.45
394.639	77.31
394.848	36.35
395.058	-18.94
395.267	65.02
395.477	30.21
395.686	122.37
395.895	120.32
396.105	52.74
396.314	24.06
396.524	60.93
396.733	-31.23
396.942	85.5
397.152	7.68
397.361	138.75
397.57	24.06
397.78	81.41
397.989	81.41
398.198	132.61
398.407	62.98
398.617	101.89
398.826	48.64
399.035	132.61
399.244	65.02
399.453	58.88
399.663	13.82
399.872	73.21
400.081	79.36
400.29	108.03
400.499	17.92
400.708	116.22
400.917	110.08
401.127	7.68
401.336	103.93
401.545	108.03
401.754	22.02
401.963	83.45
402.172	81.41
402.381	42.5
402.59	95.74
402.799	62.98
403.008	91.65
403.217	99.84
403.426	77.31
403.635	142.85
403.844	163.33
404.053	116.22
404.262	65.02
404.471	40.45
404.68	144.89
404.888	101.89
405.097	50.69
405.306	134.65
405.515	75.26
405.724	171.52
405.933	126.46
406.142	91.65
406.35	114.17
406.559	95.74
406.768	183.81
406.977	144.89
407.185	128.51
407.394	151.04
407.603	108.03
407.812	114.17
408.02	138.75
408.229	103.93
408.438	214.52
408.646	179.71
408.855	181.76
409.064	183.81
409.272	198.14
409.481	189.95
409.69	194.05
409.898	228.86
410.107	155.13
410.315	206.33
410.524	253.44
410.733	212.48
410.941	177.66
411.15	194.05
411.358	175.61
411.567	275.96
411.775	259.58
411.984	273.92
412.192	237.05
412.401	243.2
412.609	310.78
412.818	337.4
413.026	292.35
413.234	337.4
413.443	372.22
413.651	384.51
413.86	437.75
414.068	402.94
414.276	435.71
414.485	372.22
414.693	321.02
414.901	404.99
415.11	488.95
415.318	474.62
415.526	480.76
415.734	478.71
415.943	433.66
416.151	503.29
416.359	507.38
416.567	607.73
416.776	568.82
416.984	562.68
417.192	597.49
417.4	640.5
417.608	591.35
417.817	632.31
418.025	683.51
418.233	718.33
418.441	697.85
418.649	753.14
418.857	847.35
419.065	769.52
419.273	871.92
419.481	818.68
419.689	853.49
419.897	871.92
420.105	904.69
420.313	855.54
420.521	988.66
420.729	1041.9
420.937	1002.99
421.145	1109.49
421.353	1136.11
421.561	1220.08
421.769	1154.54
421.977	1304.04
422.185	1238.51
422.393	1381.87
422.601	1463.79
422.809	1381.87
423.017	1463.79
423.224	1582.57
423.432	1512.94
423.64	1560.04
423.848	1603.05
424.056	1586.66
424.263	1754.6
424.471	1789.41
424.679	1867.24
424.887	1850.85
425.094	1992.16
425.302	2008.55
425.51	1926.63
425.718	2170.33
425.925	2141.66
426.133	2209.25
426.341	2295.26
426.548	2301.4
426.756	2493.91
426.964	2446.81
427.171	2543.07
427.379	2645.46
427.586	2788.82
427.794	2692.57
428.001	2756.05
428.209	3055.06
428.417	2889.17
428.624	3089.87
428.832	3128.78
429.039	3212.75
429.247	3182.03
429.454	3536.33
429.662	3732.94
429.869	3524.04
430.076	3761.61
430.284	3507.66
430.491	3655.11
430.699	4040.13
430.906	3976.64
431.114	3939.78
431.321	4146.62
431.528	4283.84
431.736	4599.23
431.943	4588.99
432.15	4421.05
432.358	4576.7
432.565	4707.77
432.772	4883.89
432.979	5137.84
433.187	5074.35
433.394	5293.49
433.601	5406.13
433.808	5496.24
434.016	5395.89
434.223	5629.35
434.43	6098.34
434.637	6057.38
434.844	6333.86
435.052	6456.73
435.259	6374.81
435.466	6522.27
435.673	6493.6
435.88	6927.77
436.087	7148.95
436.294	7218.58
436.501	7032.21
436.708	7044.5
436.915	7318.93
437.122	7716.23
437.329	7667.08
437.537	7947.65
437.743	8117.64
437.95	8007.05
438.157	8426.88
438.364	8678.78
438.571	8666.49
438.778	8801.66
438.985	9516.4
439.192	8930.68
439.399	9510.25
439.606	9133.43
439.813	9868.65
440.02	10454.37
440.227	10210.66
440.433	10175.84
440.64	10478.94
440.847	10265.96
441.054	10728.8
441.261	11402.58
441.467	11066.71
441.674	11289.94
441.881	11740.49
442.088	11758.92
442.294	11705.68
442.501	11826.51
442.708	12105.03
442.914	12836.16
443.121	13108.54
443.328	12709.18
443.534	13806.89
443.741	13452.59
443.948	13221.17
444.154	14140.71
444.361	14099.75
444.568	14279.97
444.774	14130.47
444.981	14359.84
445.187	14820.64
445.394	15400.21
445.6	15107.35
445.807	16727.3
446.013	15863.05
446.22	16301.32
446.426	16741.63
446.633	16813.31
446.839	17501.43
447.046	16975.1
447.252	17800.43
447.459	17661.17
447.665	17626.36
447.871	18429.16
448.078	19205.34
448.284	18257.13
448.491	18939.1
448.697	19340.5
448.903	19541.21
449.11	19952.85
449.316	19567.83
449.522	19807.44
449.728	20565.19
449.935	20509.9
450.141	20702.4
450.347	20985.02
450.553	20112.59
450.76	20497.61
450.966	21324.99
451.172	21333.18
451.378	21681.33
451.584	20835.52
451.791	21304.51
451.997	21529.78
452.203	21961.9
452.409	22150.32
452.615	21667
452.821	20870.34
453.027	20987.07
453.233	21630.13
453.44	20858.05
453.646	20894.91
453.852	20960.45
454.058	21646.52
454.264	20696.26
454.47	21085.37
454.676	20378.83
454.882	21384.38
455.088	19590.36
455.294	19817.68
455.5	20135.12
455.705	19926.22
455.911	19262.68
456.117	18840.8
456.323	18574.56
456.529	17673.46
456.735	18613.48
456.941	17974.51
457.147	17448.18
457.352	17050.88
457.558	16862.46
457.764	16870.65
457.97	16770.3
458.176	16090.38
458.381	16405.77
458.587	15486.23
458.793	15467.8
458.999	14763.29
459.204	15961.36
459.41	15412.5
459.616	14153
459.821	14290.21
460.027	14230.82
460.233	13999.4
460.438	13313.33
460.644	13532.47
460.85	12752.19
461.055	12653.89
461.261	12586.3
461.466	11523.41
461.672	11236.69
461.878	12170.57
462.083	11509.07
462.289	11146.58
462.494	11089.24
462.7	10546.53
462.905	10229.09
463.111	10691.93
463.316	10685.79
463.522	10593.63
463.727	10614.11
463.932	10497.38
464.138	10425.7
464.343	10382.69
464.549	10143.08
464.754	10304.87
464.959	10315.11
465.165	10151.27
465.37	9866.6
465.575	9459.06
465.781	9950.57
465.986	9921.9
466.191	9663.85
466.397	9397.62
466.602	9086.33
466.807	9239.92
467.012	9225.59
467.218	9227.64
467.423	8992.12
467.628	9254.26
467.833	9713
468.038	9248.11
468.244	8928.63
468.449	9565.55
468.654	9162.1
468.859	8992.12
469.064	8883.58
469.269	8613.24
469.474	8711.55
469.679	8815.99
469.885	8586.62
470.09	8965.5
470.295	8772.99
470.5	8455.55
470.705	8639.87
470.91	8283.52
471.115	8125.83
471.32	8428.93
471.525	8150.4
471.73	7947.65
471.935	8174.98
472.139	7734.67
472.344	7865.74
472.549	7806.34
472.754	7679.37
472.959	7468.43
473.164	7351.7
473.369	7355.79
473.574	7515.53
473.778	7323.02
473.983	7341.46
474.188	7298.45
474.393	6964.63
474.598	7011.73
474.802	6954.39
475.007	7060.88
475.212	7050.64
475.417	6913.43
475.621	6690.2
475.826	6835.61
476.031	6548.89
476.235	6477.21
476.44	6653.34
476.645	6497.69
476.849	6534.56
477.054	6442.4
477.259	6362.53
477.463	6221.22
477.668	6151.59
477.872	6198.69
478.077	6309.28
478.282	6012.32
478.486	5934.5
478.691	5952.93
478.895	6002.08
479.1	5809.58
479.304	5815.72
479.509	5793.19
479.713	5850.53
479.918	5602.73
480.122	5619.11
480.326	5625.26
480.531	5682.6
480.735	5467.56
480.94	5373.36
481.144	5676.46
481.348	5461.42
481.553	5623.21
481.757	5402.03
481.961	5496.24
482.166	5549.48
482.37	5508.52
482.574	5354.93
482.778	5522.86
482.983	5643.69
483.187	5531.05
483.391	5565.87
483.595	5387.69
483.8	5410.22
484.004	5322.16
484.208	5502.38
484.412	5373.36
484.616	5496.24
484.821	5383.6
485.025	5289.39
485.229	5293.49
485.433	5508.52
485.637	5486
485.841	5352.88
486.045	5406.13
486.249	5477.8
486.453	5379.5
486.657	5477.8
486.861	5600.68
487.065	5371.31
487.269	5408.17
487.473	5350.83
487.677	5596.59
487.881	5610.92
488.085	5502.38
488.289	5504.43
488.493	5297.58
488.697	5506.48
488.901	5563.82
489.105	5496.24
489.309	5416.37
489.512	5649.83
489.716	5563.82
489.92	5469.61
490.124	5500.33
490.328	5526.96
490.531	5631.4
490.735	5440.94
490.939	5596.59
491.143	5563.82
491.346	5612.97
491.55	5592.49
491.754	5795.24
491.958	5858.73
492.161	5721.51
492.365	5707.18
492.569	5598.63
492.772	5819.82
492.976	5766.57
493.18	5899.69
493.383	5797.29
493.587	5905.83
493.79	5993.89
493.994	6131.11
494.197	5995.94
494.401	6192.55
494.605	6077.86
494.808	6172.07
495.012	6184.35
495.215	6280.61
495.419	6237.6
495.622	6340
495.825	6413.73
496.029	6428.06
496.232	6497.69
496.436	6493.6
496.639	6655.39
496.843	6708.63
497.046	6692.25
497.249	6725.02
497.453	6962.58
497.656	7144.85
497.859	6864.28
498.063	7019.92
498.266	7083.41
498.469	7206.29
498.673	7222.67
498.876	7282.06
499.079	7533.97
499.282	7480.72
499.485	7689.61
499.689	7650.7
499.892	7601.55
500.095	7718.28
500.298	8029.57
500.501	8113.54
500.705	8310.15
500.908	8254.85
501.111	8408.45
501.314	8488.32
501.517	8451.46
501.72	8605.05
501.923	8705.4
502.126	8904.06
502.329	9119.09
502.532	9006.45
502.735	9035.13
502.938	8990.07
503.141	9178.48
503.344	9565.55
503.547	9293.17
503.75	9534.83
503.953	9807.21
504.156	9860.46
504.359	9794.92
504.562	9921.9
504.765	10198.37
504.968	10282.34
505.17	10507.62
505.373	10427.74
505.576	10614.11
505.779	10855.77
505.982	10939.74
506.185	11130.2
506.387	11136.34
506.59	11318.61
506.793	11414.87
506.996	11351.38
507.198	11588.94
507.401	11736.4
507.604	11803.98
507.807	11963.72
508.009	12387.65
508.212	12543.3
508.415	12440.9
508.617	12705.09
508.82	12762.43
509.022	12557.63
509.225	13047.1
509.428	13284.66
509.63	13284.66
509.833	13419.83
510.035	13645.1
510.238	13552.95
510.44	13827.37
510.643	14030.12
510.845	14091.56
511.048	13905.2
511.25	14325.03
511.453	14505.25
511.655	15056.15
511.858	15314.2
512.06	15033.63
512.262	15422.74
512.465	15400.21
512.667	15455.51
512.87	15703.31
513.072	15709.46
513.274	16147.72
513.477	16301.32
513.679	16375.05
513.881	16618.75
514.084	16805.12
514.286	16792.83
514.488	17001.72
514.69	17515.76
514.893	17593.59
515.095	17689.84
515.297	17538.29
515.499	18056.43
515.701	18134.25
515.904	18445.54
516.106	18586.85
516.308	18636
516.51	19178.72
516.712	18988.25
516.914	19360.98
517.116	19541.21
517.318	19875.02
517.52	19799.25
517.722	19862.74
517.925	20319.43
518.127	20450.5
518.329	20825.28
518.531	20317.39
518.733	20966.59
518.935	21341.37
519.136	21628.09
519.338	21648.57
519.54	21779.64
519.742	22205.61
519.944	22090.93
520.146	22369.45
520.348	22697.13
520.55	22666.41
520.752	22772.9
520.954	23276.7
521.155	23116.96
521.357	23547.03
521.559	23923.86
521.761	23848.08
521.963	23960.72
522.164	23995.54
522.366	24423.56
522.568	24730.76
522.77	24845.44
522.971	25259.13
523.173	25177.22
523.375	25281.66
523.576	25306.24
523.778	25365.63
523.98	25756.79
524.181	25853.05
524.383	26119.28
524.584	26104.95
524.786	26266.74
524.988	26180.72
525.189	26727.53
525.391	26557.55
525.592	27018.34
525.794	27339.87
525.995	27284.58
526.197	27415.65
526.398	27415.65
526.6	27339.87
526.801	27642.97
527.003	27800.66
527.204	27841.62
527.406	28208.21
527.607	28220.5
527.808	28251.22
528.01	27757.66
528.211	27888.73
528.412	28775.5
528.614	28320.85
528.815	28529.74
529.016	28804.17
529.218	28456.01
529.419	28734.54
529.62	29006.92
529.822	28718.15
530.023	29162.56
530.224	29021.25
530.425	29135.94
530.626	28974.15
530.828	28947.53
531.029	29480
531.23	29105.22
531.431	29221.95
531.632	29580.35
531.833	29543.49
532.035	29467.71
532.236	29709.37
532.437	29609.02
532.638	29498.43
532.839	29908.02
533.04	29760.57
533.241	29553.73
533.442	30102.58
533.643	29842.49
533.844	29484.09
534.045	30065.72
534.246	29678.65
534.447	30571.57
534.648	29948.98
534.849	30067.77
535.05	29903.93
535.251	30137.4
535.451	30168.12
535.652	29721.66
535.853	30032.95
536.054	30102.58
536.255	29977.65
536.456	29905.98
536.657	29996.09
536.857	29764.67
537.058	29944.89
537.259	30096.44
537.46	30153.78
537.66	30053.43
537.861	30241.84
538.062	30078.01
538.263	30266.42
538.463	30153.78
538.664	30028.85
538.865	30364.72
539.065	30219.31
539.266	29973.56
539.466	30483.5
539.667	29867.06
539.868	30372.91
540.068	30393.39
540.269	30254.13
540.469	30264.37
540.67	30243.89
540.87	30219.31
541.071	29973.56
541.271	30454.83
541.472	29934.65
541.672	30055.48
541.873	29883.45
542.073	29998.13
542.274	30420.02
542.474	30090.29
542.675	30159.92
542.875	30028.85
543.075	30118.96
543.276	29590.59
543.476	30637.1
543.676	29754.43
543.877	30221.36
544.077	30293.04
544.277	30018.61
544.478	30247.99
544.678	30254.13
544.878	30063.67
545.078	29963.32
545.279	29928.5
545.479	30030.9
545.679	30141.49
545.879	30125.11
546.079	30336.05
546.28	30233.65
546.48	29613.12
546.68	30473.26
546.88	30479.41
547.08	30243.89
547.28	29957.17
547.48	29754.43
547.68	30037.05
547.88	29590.59
548.081	30327.86
548.281	30063.67
548.481	29801.53
548.681	30295.09
548.881	30161.97
549.081	29897.78
549.28	29846.58
549.48	30059.57
549.68	29740.09
549.88	30387.25
550.08	29908.02
550.28	30391.34
550.48	30153.78
550.68	30092.34
550.88	29766.71
551.08	30110.77
551.279	30092.34
551.479	29862.97
551.679	29991.99
551.879	29668.41
552.079	30100.53
552.278	29975.61
552.478	29867.06
552.678	30008.37
552.878	29901.88
553.077	29582.4
553.277	29740.09
553.477	30016.57
553.676	29686.84
553.876	29832.25
554.076	29682.75
554.275	29801.53
554.475	29553.73
554.674	29842.49
554.874	29660.22
555.074	29541.44
555.273	29643.84
555.473	29563.96
555.672	29430.85
555.872	29611.07
556.071	29168.71
556.271	29563.96
556.47	29267.01
556.67	29447.23
556.869	29228.1
557.068	29729.85
557.268	29387.84
557.467	29527.1
557.667	29150.28
557.866	29340.74
558.065	29240.39
558.265	28881.99
558.464	29332.54
558.663	29500.48
558.863	28427.34
559.062	29551.68
559.261	28970.05
559.461	29406.27
559.66	28578.89
559.859	28791.88
560.058	28630.09
560.258	28931.14
560.457	28542.03
560.656	28724.3
560.855	28494.93
561.054	28859.46
561.253	28367.95
561.453	28398.67
561.652	28519.5
561.851	28836.94
562.05	28554.32
562.249	28114
562.448	28421.2
562.647	28494.93
562.846	28245.07
563.045	28202.07
563.244	27964.5
563.443	28300.37
563.642	27735.13
563.841	27569.24
564.04	27726.94
564.239	28066.9
564.438	27636.83
564.637	28064.85
564.836	28208.21
565.035	27399.26
565.234	28259.41
565.432	27587.68
565.631	27747.42
565.83	27675.74
566.029	27583.58
566.228	27458.65
566.427	27395.17
566.625	27516
566.824	27151.46
567.023	27395.17
567.222	26936.42
567.42	27536.48
567.619	27159.65
567.818	27147.36
568.016	27212.9
568.215	27251.81
568.414	27102.31
568.612	27157.6
568.811	26879.08
569.01	26793.06
569.208	26518.64
569.407	26596.46
569.605	26512.49
569.804	27032.68
570.002	26143.86
570.201	26584.17
570.4	26360.94
570.598	26270.83
570.797	26150
570.995	25982.07
571.193	26045.55
571.392	26096.75
571.59	25726.07
571.789	25810.04
571.987	25707.64
572.186	25642.1
572.384	25623.67
572.582	25660.54
572.781	25427.07
572.979	25097.35
573.177	25341.05
573.376	25584.76
573.574	25095.3
573.772	25379.96
573.971	25128.06
574.169	25040
574.367	24806.53
574.565	25011.33
574.763	24945.8
574.962	24511.63
575.16	24272.01
575.358	24898.69
575.556	24122.51
575.754	24712.33
575.952	23989.39
576.151	24472.71
576.349	24032.4
576.547	24108.18
576.745	24337.55
576.943	24259.73
577.141	24167.57
577.339	24073.36
577.537	23835.8
577.735	23850.13
577.933	23616.66
578.131	23729.3
578.329	23499.93
578.527	23141.53
578.725	23438.49
578.923	23540.89
579.121	22994.08
579.319	23366.81
579.516	23334.04
579.714	23188.64
579.912	22938.79
580.11	23069.86
580.308	22967.46
580.506	22836.39
580.704	22611.11
580.901	22942.88
581.099	22733.99
581.297	22494.38
581.495	22383.79
581.692	22688.93
581.89	22400.17
582.088	22328.49
582.285	22197.42
582.483	22418.6
582.681	22127.79
582.878	22406.31
583.076	22033.58
583.274	22148.27
583.471	21943.47
583.669	21990.58
583.866	21761.2
584.064	22000.82
584.262	21843.12
584.459	21593.27
584.657	21296.32
584.854	21798.07
585.052	21271.74
585.249	21492.92
585.447	21703.86
585.644	21058.75
585.841	21161.15
586.039	21486.78
586.236	20655.3
586.434	21171.39
586.631	21120.19
586.828	20931.78
587.026	20964.54
587.223	20612.29
587.42	20559.05
587.618	20794.56
587.815	20559.05
588.012	20489.42
588.21	20577.48
588.407	20720.84
588.604	20485.32
588.801	20102.35
588.999	20090.06
589.196	20225.23
589.393	20393.16
589.59	20491.46
589.787	19877.07
589.984	20083.92
590.182	19836.11
590.379	20024.53
590.576	19758.29
590.773	19987.66
590.97	19709.14
591.167	19610.84
591.364	19428.57
591.561	19504.34
591.758	19449.05
591.955	19283.16
592.152	19395.8
592.349	19150.04
592.546	19469.53
592.743	19315.93
592.94	19010.78
593.137	18867.42
593.334	19117.28
593.531	18777.31
593.727	19074.27
593.924	18707.68
594.121	18715.87
594.318	18799.84
594.515	18627.81
594.712	18846.94
594.908	18535.65
595.105	18857.18
595.302	18347.24
595.499	18537.7
595.696	18304.23
595.892	18253.03
596.089	18175.21
596.286	18189.55
596.482	18089.2
596.679	18189.55
596.876	18134.25
597.072	17820.91
597.269	18232.55
597.466	17976.56
597.662	18066.67
597.859	17609.97
598.055	17972.46
598.252	17585.4
598.448	17796.34
598.645	17435.89
598.841	17466.61
599.038	17388.79
599.234	17730.8
599.431	17452.28
599.627	17192.19
599.824	17353.98
600.02	17247.48
600.217	17120.51
600.413	17071.36
600.609	17063.16
600.806	16921.85
601.002	17175.8
601.198	16860.41
601.395	16678.15
601.591	16841.98
601.787	16760.06
601.984	16442.63
602.18	16952.57
602.376	16766.21
602.572	16565.51
602.769	16477.44
602.965	16362.76
603.161	16528.64
603.357	16366.85
603.553	16327.94
603.75	16596.23
603.946	16028.94
604.142	16397.57
604.338	15774.99
604.534	16172.3
604.73	15867.15
604.926	15957.26
605.122	15912.21
605.318	15981.84
605.514	15801.61
605.71	15777.04
605.906	15707.41
606.102	15605.01
606.298	15574.29
606.494	15645.97
606.69	15516.95
606.886	15412.5
607.082	15359.25
607.278	15410.45
607.474	15105.31
607.67	15330.58
607.866	15138.07
608.062	15306.01
608.257	15054.11
608.453	15127.83
608.649	14996.76
608.845	14841.12
609.041	15019.29
609.236	14857.5
609.432	14691.62
609.628	14738.72
609.824	14912.8
610.019	14910.75
610.215	14542.11
610.411	14800.16
610.606	14515.49
610.802	14667.04
610.998	14449.96
611.193	14564.64
611.389	14435.62
611.584	14327.08
611.78	14456.1
611.976	14542.11
612.171	14384.42
612.367	14286.12
612.562	14189.86
612.758	13917.48
612.953	14085.42
613.149	14091.56
613.344	14052.65
613.539	14427.43
613.735	13907.24
613.93	14036.27
614.126	13968.68
614.321	14144.81
614.517	14261.54
614.712	13712.69
614.907	13788.46
615.103	13907.24
615.298	13798.7
615.493	14017.83
615.688	13612.34
615.884	14146.86
616.079	13686.06
616.274	13477.17
616.47	13407.54
616.665	13514.03
616.86	13645.1
617.055	13528.37
617.25	13292.85
617.445	13407.54
617.641	13407.54
617.836	13307.19
618.031	13182.26
618.226	13163.83
618.421	12868.92
618.616	13387.06
618.811	12918.07
619.006	13151.54
619.201	12830.01
619.396	13012.28
619.591	12746.05
619.786	12875.07
619.981	12778.81
620.176	12729.66
620.371	12469.57
620.566	12567.87
620.761	12625.22
620.956	12705.09
621.151	12236.1
621.346	12305.73
621.541	12268.87
621.735	12180.81
621.93	12305.73
622.125	12232.01
622.32	11990.35
622.515	12092.74
622.709	11783.5
622.904	11939.15
623.099	11590.99
623.294	11670.86
623.488	11683.15
623.683	11740.49
623.878	11646.29
624.072	11378
624.267	11576.66
624.462	11382.1
624.656	11451.73
624.851	11246.93
625.046	11277.65
625.24	11144.53
625.435	10997.08
625.629	11011.42
625.824	10915.16
626.018	10919.26
626.213	10683.74
626.407	10796.38
626.602	10503.52
626.796	10734.94
626.991	10685.79
627.185	10450.27
627.38	10585.44
627.574	10257.76
627.768	10290.53
627.963	10397.03
628.157	10339.68
628.352	10171.75
628.546	10065.25
628.74	10184.04
628.935	10274.15
629.129	10157.41
629.323	9729.39
629.517	9887.08
629.712	9731.44
629.906	9813.35
630.1	9678.19
630.294	9692.52
630.489	9727.34
630.683	9639.28
630.877	9557.36
631.071	9403.76
631.265	9672.04
631.459	9506.16
631.653	9352.56
631.848	9158
632.042	9180.53
632.236	9168.24
632.43	9258.35
632.624	9221.49
632.818	9049.46
633.012	9020.79
633.206	8983.93
633.4	8934.78
633.594	8717.69
633.788	8945.02
633.982	8736.12
634.176	8725.88
634.369	8754.55
634.563	8736.12
634.757	8674.68
634.951	8676.73
635.145	8791.42
635.339	8492.41
635.533	8385.92
635.726	8510.85
635.92	8308.1
636.114	8361.34
636.308	8404.35
636.501	8246.66
636.695	8070.53
636.889	7894.41
637.083	7939.46
637.276	8107.4
637.47	8064.39
637.664	7961.99
637.857	7931.27
638.051	7994.76
638.244	7804.3
638.438	7781.77
638.632	7859.59
638.825	7853.45
639.019	7722.38
639.212	7660.94
639.406	7513.49
639.599	7474.57
639.793	7376.27
639.986	7429.52
640.18	7536.01
640.373	7425.42
640.567	7273.87
640.76	7275.92
640.954	7263.63
641.147	7202.19
641.34	7237.01
641.534	7228.82
641.727	7064.98
641.92	7130.52
642.114	6927.77
642.307	7101.84
642.5	6927.77
642.694	6823.32
642.887	6776.22
643.08	6786.46
643.273	6819.22
643.467	6749.59
643.66	6684.06
643.853	6600.09
644.046	6479.26
644.239	6512.03
644.432	6614.43
644.626	6401.44
644.819	6409.63
645.012	6274.46
645.205	6407.58
645.398	6477.21
645.591	6309.28
645.784	6266.27
645.977	6251.94
646.17	6084
646.363	6276.51
646.556	6055.33
646.749	6073.76
646.942	6174.11
647.135	6079.91
647.328	6016.42
647.521	5848.49
647.714	5819.82
647.907	5795.24
648.099	5782.95
648.292	5750.18
648.485	5709.22
648.678	5791.14
648.871	5615.02
649.064	5723.56
649.256	5709.22
649.449	5637.55
649.642	5559.72
649.835	5461.42
650.027	5367.21
650.22	5381.55
650.413	5483.95
650.605	5455.28
650.798	5230
650.991	5344.69
651.183	5395.89
651.376	5369.26
651.568	5260.72
651.761	5289.39
651.954	5254.58
652.146	5141.94
652.339	5186.99
652.531	5225.9
652.724	4947.38
652.916	5017.01
653.109	4955.57
653.301	5029.3
653.494	4931
653.686	5012.92
653.879	4851.13
654.071	4879.8
654.263	5045.68
654.456	4840.89
654.648	4832.69
654.84	4707.77
655.033	4836.79
655.225	4781.5
655.417	4679.1
655.61	4758.97
655.802	4660.66
655.994	4636.09
656.186	4474.3
656.379	4486.59
656.571	4595.13
656.763	4541.88
656.955	4611.51
657.148	4560.31
657.34	4498.88
657.532	4398.52
657.724	4373.95
657.916	4238.78
658.108	4281.79
658.3	4146.62
658.492	4203.97
658.684	4265.41
658.876	4216.26
659.068	4191.68
659.26	4021.7
659.452	4154.82
659.644	4183.49
659.836	4044.23
660.028	4007.36
660.22	4001.22
660.412	4068.8
660.604	3890.63
660.796	3935.68
660.988	3972.55
661.18	3829.19
661.372	3933.64
661.563	3839.43
661.755	3986.88
661.947	3870.15
662.139	3855.81
662.331	3753.41
662.522	3835.33
662.714	3804.61
662.906	3755.46
663.097	3599.82
663.289	3651.02
663.481	3648.97
663.673	3644.87
663.864	3585.48
664.056	3524.04
664.247	3638.73
664.439	3544.52
664.631	3659.21
664.822	3460.56
665.014	3603.91
665.205	3343.82
665.397	3442.12
665.588	3495.37
665.78	3390.92
665.971	3384.78
666.163	3429.84
666.354	3489.23
666.546	3435.98
666.737	3364.3
666.929	3311.05
667.12	3399.12
667.311	3169.74
667.503	3177.94
667.694	3323.34
667.885	3268.05
668.077	3182.03
668.268	3106.26
668.459	3141.07
668.651	3263.95
668.842	3096.02
669.033	3026.39
669.224	3012.05
669.416	3005.91
669.607	3028.43
669.798	3005.91
669.989	3016.15
670.18	3061.2
670.371	2973.14
670.563	3073.49
670.754	3044.82
670.945	2887.12
671.136	2960.85
671.327	2915.8
671.518	2921.94
671.709	2878.93
671.9	3036.63
672.091	2883.03
672.282	2887.12
672.473	2868.69
672.664	2811.35
672.855	2866.64
673.046	2831.83
673.237	2921.94
673.428	2909.65
673.619	2711
673.809	2778.58
674	2903.51
674.191	2837.97
674.382	2708.95
674.573	2661.85
674.764	2754.01
674.954	2825.68
675.145	2678.23
675.336	2756.05
675.527	2610.65
675.717	2622.94
675.908	2713.05
676.099	2850.26
676.289	2592.22
676.48	2608.6
676.671	2692.57
676.861	2508.25
677.052	2629.08
677.243	2581.98
677.433	2608.6
677.624	2551.26
677.814	2543.07
678.005	2438.62
678.195	2455
678.386	2643.42
678.576	2485.72
678.767	2495.96
678.957	2481.63
679.148	2440.67
679.338	2549.21
679.529	2467.29
679.719	2553.31
679.909	2577.88
680.1	2393.56
680.29	2469.34
680.481	2471.39
680.671	2393.56
680.861	2518.49
681.052	2440.67
681.242	2469.34
681.432	2545.11
681.622	2401.76
681.813	2375.13
682.003	2412
682.193	2325.98
682.383	2516.44
682.573	2418.14
682.764	2422.24
682.954	2487.77
683.144	2440.67
683.334	2358.75
683.524	2323.93
683.714	2338.27
683.904	2282.97
684.094	2350.56
684.284	2348.51
684.474	2412
684.664	2260.45
684.854	2371.04
685.044	2252.25
685.234	2323.93
685.424	2416.09
685.614	2297.31
685.804	2233.82
685.994	2203.1
686.184	2264.54
686.374	2209.25
686.564	2258.4
686.753	2209.25
686.943	2176.48
687.133	2235.87
687.323	2223.58
687.513	2182.62
687.702	2231.77
687.892	2129.38
688.082	2293.21
688.272	2125.28
688.461	2115.04
688.651	2133.47
688.841	2190.81
689.03	2137.57
689.22	2180.57
689.41	2141.66
689.599	2180.57
689.789	1977.83
689.979	2158.05
690.168	2108.9
690.358	2033.12
690.547	2160.1
690.737	2078.18
690.926	2121.18
691.116	2045.41
691.305	2106.85
691.495	2082.27
691.684	2059.74
691.874	2088.42
692.063	2098.66
692.252	2141.66
692.442	2127.33
692.631	2020.83
692.82	2133.47
693.01	2080.22
693.199	2045.41
693.388	2022.88
693.578	2024.93
693.767	2002.4
693.956	2006.5
694.146	2029.03
694.335	2014.69
694.524	2074.08
694.713	2088.42
694.902	2008.55
695.092	2045.41
695.281	1996.26
695.47	2037.22
695.659	2045.41
695.848	2035.17
696.037	1992.16
696.226	2002.4
696.415	2088.42
696.604	2104.8
696.793	2110.94
696.982	1992.16
697.171	2059.74
697.36	1992.16
697.549	1881.57
697.738	1955.3
697.927	1885.67
698.116	2088.42
698.305	2012.64
698.494	1953.25
698.683	2125.28
698.872	2008.55
699.061	2004.45
699.25	1988.07
699.438	1971.68
699.627	1920.48
699.816	1983.97
700.005	1967.59
700.193	1963.49
700.382	1840.61
700.571	1975.78
700.76	1926.63
700.948	1953.25
701.137	1920.48
701.326	1998.31
701.514	1994.21
701.703	1975.78
701.892	1902.05
702.08	2022.88
702.269	1955.3
702.457	1979.87
702.646	2006.5
702.834	1914.34
703.023	1916.39
703.212	1883.62
703.4	1945.06
703.589	1934.82
703.777	1940.96
703.965	1893.86
704.154	1904.1
704.342	1822.18
704.531	1834.47
704.719	1822.18
704.907	1842.66
705.096	1940.96
705.284	1854.95
705.472	1850.85
705.661	1857
705.849	1785.32
706.037	1887.72
706.226	1916.39
706.414	1889.76
706.602	1918.43
706.79	1822.18
706.979	1861.09
707.167	1813.99
707.355	1887.72
707.543	1822.18
707.731	1770.98
707.919	1863.14
708.107	1807.84
708.296	1740.26
708.484	1789.41
708.672	1709.54
708.86	1721.83
709.048	1754.6
709.236	1773.03
709.424	1719.78
709.612	1764.84
709.8	1748.45
709.988	1770.98
710.176	1680.87
710.364	1695.21
710.551	1715.69
710.739	1717.73
710.927	1760.74
711.115	1613.29
711.303	1820.13
711.491	1670.63
711.679	1545.7
711.866	1719.78
712.054	1641.96
712.242	1701.35
712.43	1629.67
712.617	1603.05
712.805	1619.43
712.993	1654.25
713.181	1639.91
713.368	1605.1
713.556	1646.05
713.744	1615.34
713.931	1658.34
714.119	1570.28
714.306	1654.25
714.494	1570.28
714.682	1596.9
714.869	1537.51
715.057	1560.04
715.244	1512.94
715.432	1601
715.619	1580.52
715.807	1566.18
715.994	1625.58
716.182	1482.22
716.369	1613.29
716.556	1502.7
716.744	1557.99
716.931	1476.07
717.119	1488.36
717.306	1488.36
717.493	1506.79
717.681	1541.61
717.868	1447.4
718.055	1471.98
718.242	1592.81
718.43	1523.18
718.617	1521.13
718.804	1539.56
718.991	1428.97
719.179	1381.87
719.366	1416.68
719.553	1482.22
719.74	1455.59
719.927	1500.65
720.114	1463.79
720.301	1338.86
720.488	1398.25
720.676	1431.02
720.863	1365.48
721.05	1439.21
721.237	1334.76
721.424	1408.49
721.611	1410.54
721.798	1357.29
721.985	1330.67
722.172	1383.91
722.358	1416.68
722.545	1381.87
722.732	1318.38
722.919	1353.2
723.106	1322.48
723.293	1367.53
723.48	1297.9
723.667	1316.33
723.853	1365.48
724.04	1342.96
724.227	1269.23
724.414	1302
724.6	1215.98
724.787	1207.79
724.974	1338.86
725.161	1316.33
725.347	1244.65
725.534	1336.81
725.72	1285.61
725.907	1297.9
726.094	1328.62
726.28	1246.7
726.467	1285.61
726.653	1291.76
726.84	1168.88
727.027	1308.14
727.213	1189.36
727.4	1189.36
727.586	1218.03
727.773	1201.65
727.959	1158.64
728.145	1168.88
728.332	1142.25
728.518	1138.16
728.705	1170.93
728.891	1152.49
729.077	1197.55
729.264	1117.68
729.45	1205.74
729.636	1232.37
729.823	1117.68
730.009	1179.12
730.195	1097.2
730.382	1076.72
730.568	1048.05
730.754	1111.54
730.94	1148.4
731.126	1086.96
731.313	1111.54
731.499	1076.72
731.685	1152.49
731.871	1046
732.057	1195.5
732.243	1070.58
732.429	1185.26
732.615	1160.69
732.801	1119.73
732.987	1072.62
733.173	1046
733.359	1033.71
733.545	1013.23
733.731	1031.66
733.917	1041.9
734.103	1060.34
734.289	1152.49
734.475	1002.99
734.661	1189.36
734.847	1052.14
735.033	1035.76
735.219	1066.48
735.404	1002.99
735.59	1113.58
735.776	976.37
735.962	953.84
736.148	1054.19
736.333	1015.28
736.519	1015.28
736.705	994.8
736.89	1101.3
737.076	992.75
737.262	943.6
737.447	1115.63
737.633	994.8
737.819	941.55
738.004	1033.71
738.19	921.07
738.375	1007.09
738.561	908.79
738.747	878.07
738.932	919.03
739.118	1078.77
739.303	998.9
739.489	949.75
739.674	964.08
739.859	904.69
740.045	984.56
740.23	964.08
740.416	923.12
740.601	921.07
740.786	990.7
740.972	962.03
741.157	935.41
741.342	957.94
741.528	949.75
741.713	998.9
741.898	957.94
742.084	902.64
742.269	861.68
742.454	871.92
742.639	857.59
742.824	888.31
743.01	859.63
743.195	880.11
743.38	902.64
743.565	873.97
743.75	912.88
743.935	945.65
744.12	896.5
744.305	953.84
744.49	824.82
744.675	849.4
744.86	845.3
745.045	925.17
745.23	751.09
745.415	921.07
745.6	882.16
745.785	845.3
745.97	767.48
746.155	777.72
746.34	783.86
746.525	845.3
746.71	822.77
746.895	755.19
747.079	771.57
747.264	777.72
747.449	814.58
747.634	828.92
747.819	792.05
748.003	728.56
748.188	730.61
748.373	781.81
748.557	781.81
748.742	747
748.927	732.66
749.111	757.24
749.296	771.57
749.481	769.52
749.665	759.28
749.85	720.37
750.034	703.99
750.219	822.77
750.404	626.17
750.588	712.18
750.773	712.18
750.957	714.23
751.141	628.21
751.326	714.23
751.51	656.89
751.695	624.12
751.879	638.45
752.064	613.88
752.248	683.51
752.432	646.65
752.617	689.65
752.801	644.6
752.985	665.08
753.17	593.4
753.354	611.83
753.538	751.09
753.722	620.02
753.907	679.41
754.091	556.54
754.275	671.22
754.459	601.59
754.643	591.35
754.828	536.06
755.012	642.55
755.196	628.21
755.38	595.45
755.564	642.55
755.748	505.34
755.932	626.17
756.116	560.63
756.3	613.88
756.484	595.45
756.668	620.02
756.852	501.24
757.036	587.26
757.22	591.35
757.404	558.58
757.588	548.34
757.772	583.16
757.956	550.39
758.14	534.01
758.323	531.96
758.507	523.77
758.691	544.25
758.875	534.01
759.059	556.54
759.242	519.67
759.426	450.04
759.61	499.19
759.794	613.88
759.977	441.85
760.161	482.81
760.345	474.62
760.528	558.58
760.712	466.42
760.895	460.28
761.079	486.9
761.263	548.34
761.446	458.23
761.63	452.09
761.813	460.28
761.997	456.19
762.18	417.27
762.364	488.95
762.547	466.42
762.731	497.14
762.914	454.14
763.098	372.22
763.281	472.57
763.464	505.34
763.648	497.14
763.831	491
764.015	540.15
764.198	466.42
764.381	476.66
764.564	437.75
764.748	468.47
764.931	464.38
765.114	433.66
765.297	536.06
765.481	429.56
765.664	382.46
765.847	407.03
766.03	503.29
766.213	409.08
766.397	456.19
766.58	435.71
766.763	501.24
766.946	470.52
767.129	474.62
767.312	329.21
767.495	411.13
767.678	443.9
767.861	486.9
768.044	421.37
768.227	421.37
768.41	458.23
768.593	415.23
768.776	386.55
768.959	398.84
769.142	392.7
769.324	404.99
769.507	421.37
769.69	460.28
769.873	429.56
770.056	445.95
770.239	351.74
770.421	415.23
770.604	402.94
770.787	398.84
770.97	339.45
771.152	318.97
771.335	447.99
771.518	411.13
771.7	429.56
771.883	441.85
772.066	437.75
772.248	417.27
772.431	407.03
772.613	413.18
772.796	349.69
772.978	388.6
773.161	429.56
773.343	433.66
773.526	349.69
773.708	415.23
773.891	316.92
774.073	404.99
774.256	370.17
774.438	318.97
774.621	327.16
774.803	349.69
774.985	292.35
775.168	376.31
775.35	400.89
775.532	359.93
775.715	370.17
775.897	318.97
776.079	357.88
776.261	368.12
776.444	306.68
776.626	318.97
776.808	333.31
776.99	357.88
777.173	343.55
777.355	284.16
777.537	321.02
777.719	284.16
777.901	269.82
778.083	384.51
778.265	263.68
778.447	263.68
778.629	351.74
778.811	269.82
778.993	374.27
779.175	271.87
779.357	259.58
779.539	241.15
779.721	249.34
779.903	296.44
780.085	337.4
780.267	318.97
780.449	292.35
780.631	267.77
780.812	368.12
780.994	278.01
781.176	265.72
781.358	329.21
781.54	343.55
781.721	261.63
781.903	259.58
782.085	218.62
782.267	249.34
782.448	349.69
782.63	183.81
782.812	259.58
782.993	253.44
783.175	214.52
783.357	253.44
783.538	271.87
783.72	202.24
783.901	288.25
784.083	241.15
784.264	286.2
784.446	261.63
784.627	237.05
784.809	253.44
784.99	214.52
785.172	157.18
785.353	273.92
785.535	318.97
785.716	235
785.897	282.11
786.079	210.43
786.26	228.86
786.441	204.28
786.623	140.8
786.804	232.96
786.985	273.92
787.167	253.44
787.348	282.11
787.529	237.05
787.71	208.38
787.891	155.13
788.073	210.43
788.254	218.62
788.435	232.96
788.616	220.67
788.797	204.28
788.978	120.32
789.159	120.32
789.34	218.62
789.522	163.33
789.703	167.42
789.884	179.71
790.065	165.37
790.246	222.72
790.427	157.18
790.607	122.37
790.788	134.65
790.969	224.76
791.15	210.43
791.331	130.56
791.512	216.57
791.693	146.94
791.874	163.33
792.054	241.15
792.235	183.81
792.416	167.42
792.597	148.99
792.778	161.28
792.958	226.81
793.139	175.61
793.32	189.95
793.5	204.28
793.681	155.13
793.862	101.89
794.042	130.56
794.223	124.41
794.404	202.24
794.584	91.65
794.765	142.85
794.945	163.33
795.126	198.14
795.306	161.28
795.487	81.41
795.667	126.46
795.848	169.47
796.028	93.69
796.209	148.99
796.389	110.08
796.57	138.75
796.75	173.57
796.93	226.81
797.111	167.42
797.291	177.66
797.471	169.47
797.652	112.13
797.832	116.22
798.012	134.65
798.192	192
798.373	81.41
798.553	120.32
798.733	194.05
798.913	153.09
799.093	87.55
799.274	194.05
799.454	146.94
799.634	81.41
799.814	171.52
799.994	163.33
800.174	155.13
800.354	120.32
800.534	148.99
800.714	77.31
800.894	167.42
801.074	103.93
801.254	116.22
801.434	142.85
801.614	151.04
801.794	65.02
801.974	316.92
802.154	71.17
802.334	151.04
802.514	105.98
802.693	112.13
802.873	165.37
803.053	128.51
803.233	159.23
803.413	124.41
803.592	26.11
803.772	83.45
803.952	71.17
804.131	54.78
804.311	118.27
804.491	105.98
804.67	146.94
804.85	60.93
805.03	155.13
805.209	75.26
805.389	60.93
805.568	169.47
805.748	65.02
805.928	116.22
806.107	136.7
806.287	101.89
806.466	169.47
806.646	128.51
806.825	56.83
807.004	87.55
807.184	138.75
807.363	181.76
807.543	110.08
807.722	69.12
807.901	165.37
808.081	120.32
808.26	93.69
808.439	73.21
808.619	175.61
808.798	112.13
808.977	97.79
809.156	165.37
809.336	120.32
809.515	116.22
809.694	75.26
809.873	183.81
810.052	103.93
810.231	56.83
810.411	122.37
810.59	105.98
810.769	85.5
810.948	38.4
811.127	58.88
811.306	81.41
811.485	67.07
811.664	134.65
811.843	122.37
812.022	173.57
812.201	89.6
812.38	132.61
812.559	75.26
812.737	62.98
812.916	122.37
813.095	101.89
813.274	1.54
813.453	85.5
813.632	71.17
813.811	128.51
813.989	13.82
814.168	46.59
814.347	69.12
814.526	50.69
814.704	40.45
814.883	126.46
815.062	75.26
815.24	77.31
815.419	105.98
815.598	114.17
815.776	60.93
815.955	101.89
816.133	65.02
816.312	136.7
816.49	77.31
816.669	26.11
816.847	60.93
817.026	130.56
817.204	83.45
817.383	71.17
817.561	58.88
817.74	138.75
817.918	116.22
818.097	42.5
818.275	34.3
818.453	126.46
818.632	44.54
818.81	110.08
818.988	120.32
819.167	36.35
819.345	11.78
819.523	75.26
819.701	60.93
819.879	28.16
820.058	124.41
820.236	120.32
820.414	73.21
820.592	56.83
820.77	52.74
820.948	91.65
821.127	60.93
821.305	124.41
821.483	48.64
821.661	79.36
821.839	46.59
822.017	120.32
822.195	101.89
822.373	118.27
822.551	75.26
822.729	73.21
822.907	38.4
823.085	30.21
823.262	58.88
823.44	136.7
823.618	118.27
823.796	77.31
823.974	-8.7
824.152	19.97
824.329	65.02
824.507	120.32
824.685	67.07
824.863	95.74
825.04	56.83
825.218	93.69
825.396	52.74
825.574	36.35
825.751	28.16
825.929	83.45
826.107	15.87
826.284	108.03
826.462	-4.61
826.639	83.45
826.817	62.98
826.994	56.83
827.172	60.93
827.349	65.02
827.527	101.89
827.704	73.21
827.882	34.3
828.059	-4.61
828.237	112.13
828.414	46.59
828.591	62.98
828.769	30.21
828.946	60.93
829.124	-18.94
829.301	65.02
829.478	17.92
829.655	103.93
829.833	-8.7
830.01	46.59
830.187	132.61
830.364	60.93
830.542	30.21
830.719	52.74
830.896	81.41
831.073	32.26
831.25	44.54
831.427	62.98
831.604	-4.61
831.782	83.45
831.959	-10.75
832.136	62.98
832.313	95.74
832.49	-10.75
832.667	48.64
832.844	38.4
833.021	52.74
833.198	71.17
833.374	73.21
833.551	30.21
833.728	105.98
833.905	44.54
834.082	24.06
834.259	85.5
834.436	58.88
834.612	62.98
834.789	81.41
834.966	26.11
835.143	85.5
835.319	-2.56
835.496	167.42
835.673	71.17
835.85	97.79
836.026	97.79
836.203	93.69
836.38	34.3
836.556	40.45
836.733	67.07
836.909	83.45
837.086	101.89
837.262	91.65
837.439	-0.51
837.616	56.83
837.792	87.55
837.968	-2.56
838.145	36.35
838.321	-27.14
838.498	42.5
838.674	142.85
838.851	13.82
839.027	36.35
839.203	54.78
839.38	52.74
839.556	67.07
839.732	30.21
839.909	40.45
840.085	58.88
840.261	89.6
840.437	69.12
840.614	5.63
840.79	62.98
840.966	34.3
841.142	3.58
841.318	-16.9
841.494	40.45
841.671	50.69
841.847	44.54
842.023	17.92
842.199	28.16
842.375	71.17
842.551	26.11
842.727	-14.85
842.903	58.88
843.079	36.35
843.255	38.4
843.431	-14.85
843.607	126.46
843.783	32.26
843.959	7.68
844.134	-49.66
844.31	75.26
844.486	60.93
844.662	38.4
844.838	95.74
845.013	50.69
845.189	48.64
845.365	-27.14
845.541	26.11
845.716	77.31
845.892	46.59
846.068	-12.8
846.244	36.35
846.419	93.69
846.595	9.73
846.77	50.69
846.946	13.82
847.122	-27.14
847.297	69.12
847.473	44.54
847.648	-0.51
847.824	54.78
847.999	-0.51
848.175	54.78
848.35	56.83
848.526	91.65
848.701	3.58
848.876	87.55
849.052	32.26
849.227	50.69
849.403	-41.47
849.578	58.88
849.753	-16.9
849.929	77.31
850.104	24.06
850.279	103.93
850.454	44.54
850.63	13.82
850.805	-45.57
850.98	48.64
851.155	13.82
851.33	28.16
851.505	17.92
851.681	48.64
851.856	44.54
852.031	13.82
852.206	52.74
852.381	-23.04
852.556	40.45
852.731	15.87
852.906	-2.56
853.081	36.35
853.256	-8.7
853.431	42.5
853.606	9.73
853.781	26.11
853.956	1.54
854.131	-41.47
854.305	62.98
854.48	22.02
854.655	-4.61
854.83	-0.51
855.005	24.06
855.18	38.4
855.354	7.68
855.529	58.88
855.704	46.59
855.879	34.3
856.053	54.78
856.228	79.36
856.403	36.35
856.577	44.54
856.752	-16.9
856.926	44.54
857.101	58.88
857.276	-29.18
857.45	50.69
857.625	79.36
857.799	30.21
857.974	13.82
858.148	15.87
858.323	36.35
858.497	-10.75
858.672	-20.99
858.846	54.78
859.02	58.88
859.195	85.5
859.369	-20.99
859.543	-0.51
859.718	75.26
859.892	-18.94
860.066	30.21
860.241	38.4
860.415	15.87
860.589	54.78
860.763	9.73
860.938	24.06
861.112	19.97
861.286	19.97
861.46	-25.09
861.634	11.78
861.808	34.3
861.982	28.16
862.157	-0.51
862.331	15.87
862.505	44.54
862.679	30.21
862.853	15.87
863.027	26.11
863.201	69.12
863.375	-8.7
863.549	54.78
863.722	-6.66
863.896	65.02
864.07	-25.09
864.244	15.87
864.418	-4.61
864.592	-29.18
864.766	77.31
864.939	32.26
865.113	60.93
865.287	-12.8
865.461	3.58
865.634	46.59
865.808	5.63
865.982	9.73
866.156	44.54
866.329	-20.99
866.503	50.69
866.676	19.97
866.85	28.16
867.024	73.21
867.197	24.06
867.371	103.93
867.544	11.78
867.718	-4.61
867.891	5.63
868.065	71.17
868.238	38.4
868.412	73.21
868.585	75.26
868.759	44.54
868.932	36.35
869.105	91.65
869.279	56.83
869.452	69.12
869.625	19.97
869.799	-6.66
869.972	-18.94
870.145	97.79
870.319	-37.38
870.492	13.82
870.665	-14.85
870.838	-16.9
871.011	-80.38
871.185	32.26
871.358	62.98
871.531	-16.9
871.704	-0.51
871.877	-31.23
872.05	56.83
872.223	1.54
872.396	-25.09
872.569	44.54
872.742	-47.62
872.915	48.64
873.088	95.74
873.261	3.58
873.434	32.26
873.607	3.58
873.78	-4.61
873.953	-20.99
874.126	22.02
874.299	44.54
874.471	60.93
874.644	67.07
874.817	103.93
874.99	91.65
875.163	7.68
875.335	97.79
875.508	44.54
875.681	-25.09
875.853	24.06
876.026	24.06
876.199	44.54
876.371	11.78
876.544	50.69
876.717	56.83
876.889	58.88
877.062	26.11
877.234	-61.95
877.407	-39.42
877.579	32.26
877.752	75.26
877.924	110.08
878.097	77.31
878.269	15.87
878.442	22.02
878.614	26.11
878.786	7.68
878.959	69.12
879.131	-29.18
879.303	26.11
879.476	-6.66
879.648	22.02
879.82	15.87
879.993	28.16
880.165	13.82
880.337	-29.18
880.509	130.56
880.681	-4.61
880.854	22.02
881.026	17.92
881.198	87.55
881.37	-37.38
881.542	-35.33
881.714	5.63
881.886	-57.86
882.058	-41.47
882.23	13.82
882.402	32.26
882.574	65.02
882.746	19.97
882.918	67.07
883.09	7.68
883.262	-4.61
883.434	34.3
883.606	-25.09
883.778	-6.66
883.95	122.37
884.122	1.54
884.293	-29.18
884.465	3.58
884.637	7.68
884.809	-2.56
884.98	-61.95
885.152	-20.99
885.324	58.88
885.496	44.54
885.667	17.92
885.839	-33.28
886.011	36.35
886.182	50.69
886.354	56.83
886.525	-6.66
886.697	-20.99
886.869	7.68
887.04	-10.75
887.212	34.3
887.383	42.5
887.555	32.26
887.726	32.26
887.897	-37.38
888.069	17.92
888.24	22.02
888.412	11.78
888.583	-4.61
888.754	28.16
888.926	11.78
889.097	48.64
889.268	-0.51
889.44	44.54
889.611	67.07
889.782	-18.94
889.953	24.06
890.125	-12.8
890.296	9.73
890.467	26.11
890.638	-29.18
890.809	114.17
890.98	30.21
891.151	69.12
891.323	38.4
891.494	-43.52
891.665	28.16
891.836	46.59
892.007	-8.7
892.178	48.64
892.349	17.92
892.52	3.58
892.691	7.68
892.862	-0.51
893.032	9.73
893.203	15.87
893.374	-29.18
893.545	52.74
893.716	-41.47
893.887	67.07
894.057	5.63
894.228	5.63
894.399	-25.09
894.57	19.97
894.74	11.78
894.911	30.21
895.082	32.26
895.253	28.16
895.423	34.3
895.594	13.82
895.764	44.54
895.935	-49.66
896.106	-6.66
896.276	-49.66
896.447	-8.7
896.617	56.83
896.788	44.54
896.958	17.92
897.129	38.4
897.299	56.83
897.47	-4.61
897.64	24.06
897.81	-14.85
897.981	19.97
898.151	19.97
898.322	-16.9
898.492	50.69
898.662	65.02
898.832	1.54
899.003	19.97
899.173	13.82
899.343	-4.61
899.513	-37.38
