Data from USB4F104151__251__14-01-31-444.txt Node

Date: Thu Mar 13 14:01:31 EDT 2025
User: louis
Spectrometer: USB4F10415
Trigger mode: 4
Integration Time (sec): 1.000000E-2
Scans to average: 1
Electric dark correction enabled: true
Nonlinearity correction enabled: false
Boxcar width: 0
XAxis mode: Wavelengths
Number of Pixels in Spectrum: 3648
>>>>>Begin Spectral Data<<<<<
178.204	-15.87
178.424	-15.87
178.644	-15.87
178.864	27.14
179.084	-7.68
179.304	23.04
179.524	-11.78
179.744	-32.26
179.964	10.75
180.184	-34.3
180.404	61.95
180.624	4.61
180.844	-17.92
181.064	16.9
181.283	-24.06
181.503	-28.16
181.723	31.23
181.943	-42.5
182.163	41.47
182.383	37.38
182.602	23.04
182.822	-40.45
183.042	70.14
183.262	27.14
183.482	-32.26
183.701	-3.58
183.921	-28.16
184.141	35.33
184.361	84.48
184.58	25.09
184.8	8.7
185.02	-48.64
185.239	16.9
185.459	-24.06
185.679	2.56
185.898	57.86
186.118	41.47
186.338	33.28
186.557	10.75
186.777	-38.4
186.997	45.57
187.216	-97.79
187.436	66.05
187.655	29.18
187.875	41.47
188.095	12.8
188.314	43.52
188.534	-13.82
188.753	47.62
188.973	10.75
189.192	-1.54
189.412	-30.21
189.631	43.52
189.851	33.28
190.07	12.8
190.29	4.61
190.509	41.47
190.729	43.52
190.948	-15.87
191.168	47.62
191.387	57.86
191.607	10.75
191.826	-5.63
192.045	18.94
192.265	-32.26
192.484	4.61
192.704	74.24
192.923	49.66
193.142	0.51
193.362	0.51
193.581	70.14
193.8	8.7
194.02	31.23
194.239	47.62
194.458	90.62
194.678	-81.41
194.897	2.56
195.116	-24.06
195.335	90.62
195.555	27.14
195.774	-15.87
195.993	74.24
196.212	-30.21
196.432	0.51
196.651	16.9
196.87	-5.63
197.089	90.62
197.308	33.28
197.528	35.33
197.747	4.61
197.966	-5.63
198.185	4.61
198.404	0.51
198.623	-38.4
198.842	57.86
199.062	41.47
199.281	-38.4
199.5	-24.06
199.719	61.95
199.938	10.75
200.157	8.7
200.376	37.38
200.595	20.99
200.814	37.38
201.033	31.23
201.252	55.81
201.471	37.38
201.69	-9.73
201.909	-22.02
202.128	35.33
202.347	90.62
202.566	64
202.785	-13.82
203.004	-24.06
203.223	55.81
203.442	-17.92
203.661	-7.68
203.879	-9.73
204.098	25.09
204.317	-48.64
204.536	72.19
204.755	27.14
204.974	-11.78
205.193	74.24
205.411	25.09
205.63	14.85
205.849	0.51
206.068	10.75
206.287	-15.87
206.505	8.7
206.724	0.51
206.943	16.9
207.162	100.86
207.381	41.47
207.599	-15.87
207.818	18.94
208.037	-44.54
208.255	-7.68
208.474	-28.16
208.693	37.38
208.911	2.56
209.13	14.85
209.349	49.66
209.567	45.57
209.786	20.99
210.005	29.18
210.223	-3.58
210.442	55.81
210.661	20.99
210.879	74.24
211.098	-11.78
211.316	-19.97
211.535	80.38
211.753	70.14
211.972	10.75
212.191	49.66
212.409	-13.82
212.628	66.05
212.846	86.53
213.065	-5.63
213.283	-3.58
213.502	16.9
213.72	35.33
213.938	6.66
214.157	57.86
214.375	-48.64
214.594	45.57
214.812	29.18
215.031	8.7
215.249	8.7
215.467	68.09
215.686	-7.68
215.904	68.09
216.122	18.94
216.341	0.51
216.559	14.85
216.778	25.09
216.996	-22.02
217.214	-52.74
217.432	39.42
217.651	57.86
217.869	80.38
218.087	-34.3
218.306	23.04
218.524	25.09
218.742	25.09
218.96	-22.02
219.179	-22.02
219.397	51.71
219.615	23.04
219.833	47.62
220.051	-62.98
220.27	49.66
220.488	4.61
220.706	33.28
220.924	20.99
221.142	47.62
221.36	51.71
221.578	-7.68
221.796	-32.26
222.015	43.52
222.233	-67.07
222.451	-24.06
222.669	29.18
222.887	-11.78
223.105	-58.88
223.323	31.23
223.541	23.04
223.759	2.56
223.977	0.51
224.195	68.09
224.413	-19.97
224.631	25.09
224.849	-19.97
225.067	59.9
225.285	35.33
225.503	-1.54
225.721	25.09
225.939	27.14
226.157	-73.21
226.375	-11.78
226.592	-30.21
226.81	16.9
227.028	-11.78
227.246	117.25
227.464	29.18
227.682	68.09
227.9	41.47
228.117	82.43
228.335	41.47
228.553	80.38
228.771	-42.5
228.989	-9.73
229.206	31.23
229.424	27.14
229.642	68.09
229.86	-40.45
230.077	41.47
230.295	80.38
230.513	-22.02
230.731	61.95
230.948	129.53
231.166	41.47
231.384	51.71
231.601	47.62
231.819	55.81
232.037	25.09
232.254	8.7
232.472	31.23
232.689	4.61
232.907	47.62
233.125	23.04
233.342	25.09
233.56	-13.82
233.777	47.62
233.995	23.04
234.213	8.7
234.43	-40.45
234.648	-11.78
234.865	-28.16
235.083	4.61
235.3	53.76
235.518	8.7
235.735	35.33
235.953	51.71
236.17	35.33
236.388	-5.63
236.605	-40.45
236.822	20.99
237.04	-15.87
237.257	45.57
237.475	31.23
237.692	-7.68
237.909	41.47
238.127	-28.16
238.344	10.75
238.562	-7.68
238.779	27.14
238.996	0.51
239.214	0.51
239.431	20.99
239.648	47.62
239.865	39.42
240.083	-40.45
240.3	51.71
240.517	-13.82
240.735	74.24
240.952	66.05
241.169	-5.63
241.386	2.56
241.603	27.14
241.821	33.28
242.038	14.85
242.255	-30.21
242.472	20.99
242.689	-97.79
242.907	8.7
243.124	-40.45
243.341	-32.26
243.558	16.9
243.775	33.28
243.992	43.52
244.209	-7.68
244.426	33.28
244.643	29.18
244.86	23.04
245.078	-38.4
245.295	57.86
245.512	16.9
245.729	-17.92
245.946	6.66
246.163	25.09
246.38	-65.02
246.597	51.71
246.814	51.71
247.031	-26.11
247.248	41.47
247.464	51.71
247.681	-46.59
247.898	23.04
248.115	66.05
248.332	-1.54
248.549	90.62
248.766	82.43
248.983	4.61
249.2	16.9
249.417	-7.68
249.633	4.61
249.85	-54.78
250.067	-15.87
250.284	-77.31
250.501	74.24
250.717	37.38
250.934	35.33
251.151	61.95
251.368	53.76
251.585	-7.68
251.801	-30.21
252.018	-46.59
252.235	57.86
252.451	16.9
252.668	20.99
252.885	41.47
253.102	78.33
253.318	27.14
253.535	-48.64
253.752	35.33
253.968	-30.21
254.185	59.9
254.401	-34.3
254.618	-11.78
254.835	-32.26
255.051	51.71
255.268	-5.63
255.484	23.04
255.701	35.33
255.917	4.61
256.134	-19.97
256.351	16.9
256.567	-71.17
256.784	-3.58
257	8.7
257.217	43.52
257.433	35.33
257.65	0.51
257.866	8.7
258.082	-1.54
258.299	-30.21
258.515	8.7
258.732	53.76
258.948	8.7
259.165	86.53
259.381	61.95
259.597	37.38
259.814	33.28
260.03	-15.87
260.246	6.66
260.463	-28.16
260.679	8.7
260.895	76.29
261.112	12.8
261.328	10.75
261.544	74.24
261.761	2.56
261.977	-24.06
262.193	-11.78
262.409	55.81
262.626	-15.87
262.842	2.56
263.058	8.7
263.274	41.47
263.49	-71.17
263.707	33.28
263.923	47.62
264.139	12.8
264.355	6.66
264.571	27.14
264.787	43.52
265.004	33.28
265.22	72.19
265.436	20.99
265.652	-44.54
265.868	-32.26
266.084	-32.26
266.3	-32.26
266.516	43.52
266.732	20.99
266.948	-73.21
267.164	8.7
267.38	43.52
267.596	57.86
267.812	27.14
268.028	33.28
268.244	25.09
268.46	33.28
268.676	-11.78
268.892	49.66
269.108	45.57
269.324	82.43
269.54	12.8
269.756	-1.54
269.972	33.28
270.188	-15.87
270.403	-15.87
270.619	51.71
270.835	-32.26
271.051	49.66
271.267	49.66
271.483	-3.58
271.698	-28.16
271.914	18.94
272.13	59.9
272.346	29.18
272.562	10.75
272.777	-7.68
272.993	41.47
273.209	-28.16
273.425	-7.68
273.64	-77.31
273.856	-13.82
274.072	-3.58
274.287	25.09
274.503	68.09
274.719	-42.5
274.934	-15.87
275.15	-5.63
275.366	2.56
275.581	49.66
275.797	59.9
276.012	109.05
276.228	-7.68
276.444	45.57
276.659	74.24
276.875	0.51
277.09	-17.92
277.306	-52.74
277.521	-5.63
277.737	27.14
277.952	57.86
278.168	47.62
278.383	-3.58
278.599	-62.98
278.814	0.51
279.03	33.28
279.245	16.9
279.461	59.9
279.676	59.9
279.892	16.9
280.107	55.81
280.322	29.18
280.538	82.43
280.753	127.49
280.969	74.24
281.184	-13.82
281.399	47.62
281.615	72.19
281.83	8.7
282.045	0.51
282.26	0.51
282.476	-38.4
282.691	66.05
282.906	29.18
283.122	16.9
283.337	25.09
283.552	70.14
283.767	33.28
283.983	2.56
284.198	-56.83
284.413	27.14
284.628	29.18
284.843	16.9
285.058	14.85
285.274	-24.06
285.489	45.57
285.704	94.72
285.919	-52.74
286.134	20.99
286.349	-19.97
286.564	51.71
286.779	-19.97
286.995	-3.58
287.21	8.7
287.425	20.99
287.64	18.94
287.855	100.86
288.07	-46.59
288.285	43.52
288.5	68.09
288.715	8.7
288.93	23.04
289.145	2.56
289.36	4.61
289.575	2.56
289.79	33.28
290.004	20.99
290.219	-46.59
290.434	-50.69
290.649	-13.82
290.864	12.8
291.079	-3.58
291.294	8.7
291.509	-24.06
291.724	94.72
291.938	74.24
292.153	45.57
292.368	-11.78
292.583	-30.21
292.798	-46.59
293.012	-26.11
293.227	43.52
293.442	27.14
293.657	-15.87
293.871	129.53
294.086	64
294.301	100.86
294.516	-9.73
294.73	45.57
294.945	18.94
295.16	29.18
295.374	-36.35
295.589	-22.02
295.804	66.05
296.018	33.28
296.233	-36.35
296.447	6.66
296.662	12.8
296.877	80.38
297.091	18.94
297.306	53.76
297.52	-19.97
297.735	43.52
297.949	8.7
298.164	45.57
298.378	37.38
298.593	12.8
298.807	43.52
299.022	37.38
299.236	25.09
299.451	55.81
299.665	41.47
299.88	92.67
300.094	25.09
300.309	66.05
300.523	41.47
300.737	18.94
300.952	90.62
301.166	2.56
301.381	27.14
301.595	20.99
301.809	57.86
302.024	35.33
302.238	-3.58
302.452	61.95
302.667	-5.63
302.881	10.75
303.095	29.18
303.309	-19.97
303.524	6.66
303.738	16.9
303.952	-13.82
304.166	18.94
304.381	-3.58
304.595	86.53
304.809	-67.07
305.023	35.33
305.237	-17.92
305.452	117.25
305.666	25.09
305.88	-1.54
306.094	-42.5
306.308	76.29
306.522	20.99
306.736	45.57
306.95	16.9
307.164	4.61
307.379	82.43
307.593	10.75
307.807	12.8
308.021	37.38
308.235	49.66
308.449	-40.45
308.663	20.99
308.877	2.56
309.091	-5.63
309.305	123.39
309.519	14.85
309.733	23.04
309.947	2.56
310.161	43.52
310.374	-17.92
310.588	47.62
310.802	49.66
311.016	100.86
311.23	-65.02
311.444	0.51
311.658	-36.35
311.872	12.8
312.085	33.28
312.299	51.71
312.513	29.18
312.727	41.47
312.941	-11.78
313.154	-60.93
313.368	10.75
313.582	-13.82
313.796	33.28
314.009	-30.21
314.223	33.28
314.437	-65.02
314.651	-11.78
314.864	20.99
315.078	-34.3
315.292	29.18
315.505	57.86
315.719	-5.63
315.933	23.04
316.146	-3.58
316.36	68.09
316.573	55.81
316.787	74.24
317.001	33.28
317.214	-13.82
317.428	51.71
317.641	35.33
317.855	8.7
318.068	29.18
318.282	-32.26
318.495	-40.45
318.709	113.15
318.922	10.75
319.136	16.9
319.349	8.7
319.563	33.28
319.776	2.56
319.99	35.33
320.203	53.76
320.417	-7.68
320.63	18.94
320.843	-15.87
321.057	12.8
321.27	18.94
321.483	35.33
321.697	18.94
321.91	10.75
322.124	-15.87
322.337	35.33
322.55	23.04
322.763	49.66
322.977	29.18
323.19	-7.68
323.403	-5.63
323.617	35.33
323.83	20.99
324.043	12.8
324.256	4.61
324.469	4.61
324.683	8.7
324.896	20.99
325.109	47.62
325.322	35.33
325.535	20.99
325.748	53.76
325.962	16.9
326.175	39.42
326.388	61.95
326.601	20.99
326.814	6.66
327.027	96.77
327.24	35.33
327.453	25.09
327.666	-5.63
327.879	-1.54
328.092	10.75
328.305	78.33
328.518	82.43
328.731	86.53
328.944	49.66
329.157	10.75
329.37	8.7
329.583	74.24
329.796	88.57
330.009	70.14
330.222	35.33
330.435	6.66
330.648	47.62
330.861	-11.78
331.073	31.23
331.286	10.75
331.499	33.28
331.712	-11.78
331.925	82.43
332.138	-11.78
332.35	41.47
332.563	-7.68
332.776	49.66
332.989	-3.58
333.202	37.38
333.414	45.57
333.627	68.09
333.84	27.14
334.053	-44.54
334.265	14.85
334.478	-24.06
334.691	29.18
334.903	47.62
335.116	27.14
335.329	64
335.541	-1.54
335.754	82.43
335.966	-44.54
336.179	10.75
336.392	-32.26
336.604	59.9
336.817	25.09
337.029	4.61
337.242	25.09
337.454	8.7
337.667	31.23
337.88	29.18
338.092	98.81
338.305	27.14
338.517	29.18
338.729	66.05
338.942	8.7
339.154	49.66
339.367	-65.02
339.579	33.28
339.792	-58.88
340.004	35.33
340.217	-3.58
340.429	29.18
340.641	-7.68
340.854	31.23
341.066	53.76
341.278	31.23
341.491	12.8
341.703	41.47
341.915	-24.06
342.128	25.09
342.34	33.28
342.552	2.56
342.764	-56.83
342.977	-1.54
343.189	-3.58
343.401	64
343.613	-56.83
343.826	68.09
344.038	8.7
344.25	-79.36
344.462	-13.82
344.674	-38.4
344.886	41.47
345.099	82.43
345.311	-22.02
345.523	43.52
345.735	-50.69
345.947	41.47
346.159	2.56
346.371	29.18
346.583	8.7
346.795	49.66
347.007	33.28
347.219	-17.92
347.431	33.28
347.643	-22.02
347.855	2.56
348.067	70.14
348.279	55.81
348.491	-3.58
348.703	16.9
348.915	-15.87
349.127	33.28
349.339	35.33
349.551	102.91
349.763	37.38
349.975	76.29
350.187	107.01
350.399	23.04
350.61	33.28
350.822	35.33
351.034	-19.97
351.246	96.77
351.458	109.05
351.669	-22.02
351.881	-15.87
352.093	-28.16
352.305	100.86
352.517	14.85
352.728	-22.02
352.94	23.04
353.152	33.28
353.363	-44.54
353.575	39.42
353.787	18.94
353.999	61.95
354.21	64
354.422	53.76
354.633	-28.16
354.845	47.62
355.057	102.91
355.268	0.51
355.48	53.76
355.692	10.75
355.903	25.09
356.115	-17.92
356.326	2.56
356.538	29.18
356.749	-1.54
356.961	8.7
357.172	57.86
357.384	12.8
357.595	39.42
357.807	45.57
358.018	-26.11
358.23	51.71
358.441	-7.68
358.653	-15.87
358.864	29.18
359.075	12.8
359.287	59.9
359.498	47.62
359.709	10.75
359.921	41.47
360.132	61.95
360.344	-7.68
360.555	35.33
360.766	137.73
360.977	37.38
361.189	-11.78
361.4	-24.06
361.611	35.33
361.823	68.09
362.034	100.86
362.245	-22.02
362.456	35.33
362.667	18.94
362.879	68.09
363.09	-19.97
363.301	37.38
363.512	49.66
363.723	37.38
363.935	59.9
364.146	43.52
364.357	16.9
364.568	72.19
364.779	23.04
364.99	-9.73
365.201	-34.3
365.412	57.86
365.623	-7.68
365.834	-15.87
366.045	41.47
366.256	53.76
366.467	78.33
366.678	41.47
366.889	-7.68
367.1	64
367.311	-28.16
367.522	45.57
367.733	-5.63
367.944	4.61
368.155	27.14
368.366	-24.06
368.577	35.33
368.788	27.14
368.999	8.7
369.209	55.81
369.42	82.43
369.631	86.53
369.842	59.9
370.053	6.66
370.264	-9.73
370.474	80.38
370.685	-38.4
370.896	25.09
371.107	-11.78
371.317	47.62
371.528	23.04
371.739	-62.98
371.95	4.61
372.16	80.38
372.371	16.9
372.582	35.33
372.792	25.09
373.003	8.7
373.214	27.14
373.424	70.14
373.635	18.94
373.846	35.33
374.056	45.57
374.267	88.57
374.477	-15.87
374.688	61.95
374.898	16.9
375.109	74.24
375.319	33.28
375.53	-11.78
375.74	39.42
375.951	18.94
376.161	0.51
376.372	57.86
376.582	0.51
376.793	18.94
377.003	-17.92
377.214	27.14
377.424	20.99
377.635	-9.73
377.845	33.28
378.055	25.09
378.266	68.09
378.476	31.23
378.686	33.28
378.897	-19.97
379.107	125.44
379.317	92.67
379.528	-73.21
379.738	55.81
379.948	-38.4
380.158	16.9
380.369	10.75
380.579	90.62
380.789	55.81
380.999	76.29
381.21	39.42
381.42	20.99
381.63	8.7
381.84	10.75
382.05	88.57
382.261	33.28
382.471	64
382.681	31.23
382.891	53.76
383.101	51.71
383.311	12.8
383.521	39.42
383.731	37.38
383.941	16.9
384.151	25.09
384.361	-19.97
384.571	-5.63
384.781	12.8
384.991	74.24
385.201	57.86
385.411	59.9
385.621	86.53
385.831	25.09
386.041	45.57
386.251	49.66
386.461	31.23
386.671	152.06
386.881	-5.63
387.091	45.57
387.301	61.95
387.511	2.56
387.72	6.66
387.93	-5.63
388.14	49.66
388.35	20.99
388.56	61.95
388.769	51.71
388.979	0.51
389.189	27.14
389.399	90.62
389.609	35.33
389.818	18.94
390.028	43.52
390.238	0.51
390.447	2.56
390.657	-7.68
390.867	-19.97
391.076	33.28
391.286	8.7
391.496	66.05
391.705	37.38
391.915	35.33
392.125	23.04
392.334	-3.58
392.544	33.28
392.753	4.61
392.963	-24.06
393.172	14.85
393.382	74.24
393.591	78.33
393.801	70.14
394.01	45.57
394.22	66.05
394.429	37.38
394.639	51.71
394.848	59.9
395.058	104.96
395.267	10.75
395.477	39.42
395.686	74.24
395.895	55.81
396.105	98.81
396.314	-15.87
396.524	2.56
396.733	39.42
396.942	139.77
397.152	76.29
397.361	156.16
397.57	64
397.78	37.38
397.989	119.29
398.198	61.95
398.407	27.14
398.617	76.29
398.826	107.01
399.035	25.09
399.244	12.8
399.453	-1.54
399.663	72.19
399.872	82.43
400.081	68.09
400.29	16.9
400.499	33.28
400.708	47.62
400.917	-22.02
401.127	84.48
401.336	16.9
401.545	41.47
401.754	33.28
401.963	39.42
402.172	18.94
402.381	94.72
402.59	80.38
402.799	64
403.008	57.86
403.217	84.48
403.426	-48.64
403.635	74.24
403.844	0.51
404.053	70.14
404.262	80.38
404.471	74.24
404.68	84.48
404.888	66.05
405.097	57.86
405.306	94.72
405.515	29.18
405.724	80.38
405.933	102.91
406.142	107.01
406.35	53.76
406.559	109.05
406.768	10.75
406.977	76.29
407.185	66.05
407.394	98.81
407.603	107.01
407.812	143.87
408.02	125.44
408.229	90.62
408.438	64
408.646	150.01
408.855	117.25
409.064	100.86
409.272	66.05
409.481	133.63
409.69	92.67
409.898	119.29
410.107	90.62
410.315	127.49
410.524	68.09
410.733	74.24
410.941	154.11
411.15	133.63
411.358	113.15
411.567	145.92
411.775	158.21
411.984	217.6
412.192	180.73
412.401	150.01
412.609	186.88
412.818	123.39
413.026	166.4
413.234	193.02
413.443	223.74
413.651	242.17
413.86	158.21
414.068	213.5
414.276	272.89
414.485	240.12
414.693	227.84
414.901	297.47
415.11	309.76
415.318	262.65
415.526	246.27
415.734	279.04
415.943	215.55
416.151	246.27
416.359	279.04
416.567	389.63
416.776	262.65
416.984	287.23
417.192	295.42
417.4	352.76
417.608	307.71
417.817	424.44
418.025	412.15
418.233	371.19
418.441	395.77
418.649	379.39
418.857	449.02
419.065	477.69
419.273	492.02
419.481	561.66
419.689	557.56
419.897	623.09
420.105	600.57
420.313	547.32
420.521	555.51
420.729	580.09
420.937	637.43
421.145	664.05
421.353	655.86
421.561	729.59
421.769	713.21
421.977	723.44
422.185	788.98
422.393	754.16
422.601	784.88
422.809	782.84
423.017	811.51
423.224	815.6
423.432	870.9
423.64	868.85
423.848	874.99
424.056	936.43
424.263	1110.51
424.471	1069.55
424.679	999.92
424.887	1040.88
425.094	1036.78
425.302	1104.37
425.51	1188.33
425.718	1196.53
425.925	1212.91
426.133	1262.06
426.341	1280.49
426.548	1389.03
426.756	1380.84
426.964	1397.23
427.171	1491.43
427.379	1571.3
427.586	1493.48
427.794	1462.76
428.001	1704.42
428.209	1649.13
428.417	1765.86
428.624	1882.6
428.832	1802.72
429.039	1759.72
429.247	1851.88
429.454	2011.62
429.662	2265.57
429.869	2017.76
430.076	2247.13
430.284	2120.16
430.491	2232.8
430.699	2197.98
430.906	2359.77
431.114	2396.64
431.321	2343.39
431.528	2486.75
431.736	2531.8
431.943	2638.3
432.15	2603.48
432.358	2640.34
432.565	2763.22
432.772	2808.28
432.979	2849.24
433.187	3021.27
433.394	2986.45
433.601	3264.97
433.808	3152.34
434.016	3226.06
434.223	3336.65
434.43	3398.09
434.637	3418.57
434.844	3531.21
435.052	3723.72
435.259	3566.03
435.466	3797.45
435.673	3686.86
435.88	3977.67
436.087	3961.28
436.294	4039.11
436.501	4063.68
436.708	4121.03
436.915	4190.66
437.122	4440.51
437.329	4383.17
437.537	4596.15
437.743	4645.31
437.95	4727.22
438.157	4792.76
438.364	5007.8
438.571	5079.47
438.778	4929.97
438.985	5521.84
439.192	5335.47
439.399	5398.96
439.606	5278.13
439.813	5501.36
440.02	5855.65
440.227	5859.75
440.433	5765.54
440.64	5931.43
440.847	5904.81
441.054	6001.06
441.261	6646.17
441.467	6400.41
441.674	6611.36
441.881	6793.62
442.088	6789.53
442.294	6740.38
442.501	6900.12
442.708	7045.52
442.914	7432.59
443.121	7602.57
443.328	7483.79
443.534	7987.59
443.741	7741.83
443.948	7557.52
444.154	8231.3
444.361	7997.83
444.568	8130.95
444.774	8063.36
444.981	8089.99
445.187	8513.92
445.394	8888.7
445.6	8745.34
445.807	9593.2
446.013	9097.59
446.22	9382.26
446.426	9818.47
446.633	9824.62
446.839	9994.6
447.046	9560.43
447.252	10121.57
447.459	10283.36
447.665	10244.45
447.871	10563.93
448.078	11276.63
448.284	10471.78
448.491	10799.45
448.697	11256.15
448.903	11514.19
449.11	11624.78
449.316	11176.28
449.522	11583.82
449.728	11772.24
449.935	12034.38
450.141	11954.51
450.347	12001.61
450.553	11733.32
450.76	12083.53
450.966	12400.96
451.172	12202.31
451.378	12325.19
451.584	12405.06
451.791	12708.16
451.997	12570.94
452.203	12710.21
452.409	12607.81
452.615	12706.11
452.821	12161.35
453.027	12165.45
453.233	12828.99
453.44	12265.8
453.646	12190.02
453.852	12374.34
454.058	12341.57
454.264	12282.18
454.47	12480.83
454.676	12118.34
454.882	12460.35
455.088	11401.55
455.294	11653.45
455.5	11882.83
455.705	11862.35
455.911	11268.44
456.117	11043.16
456.323	10862.94
456.529	10355.04
456.735	10840.41
456.941	10662.24
457.147	10590.56
457.352	10275.17
457.558	10070.37
457.764	10285.41
457.97	9779.56
458.176	9847.15
458.381	9843.05
458.587	9036.15
458.793	9130.36
458.999	8669.56
459.204	9400.69
459.41	9083.25
459.616	8608.12
459.821	8534.4
460.027	8708.48
460.233	8341.89
460.438	8216.96
460.644	7999.88
460.85	7602.57
461.055	7596.43
461.261	7475.6
461.466	6861.21
461.672	6828.44
461.878	7276.94
462.083	6597.02
462.289	6719.9
462.494	6539.68
462.7	6312.35
462.905	6234.53
463.111	6424.99
463.316	6443.42
463.522	6128.03
463.727	6187.43
463.932	6220.19
464.138	6220.19
464.343	6132.13
464.549	5882.28
464.754	6066.6
464.959	6144.42
465.165	6173.09
465.37	5824.94
465.575	5564.84
465.781	5945.77
465.986	5925.29
466.191	5859.75
466.397	5763.5
466.602	5423.53
466.807	5702.06
467.012	5595.56
467.218	5444.01
467.423	5351.85
467.628	5550.51
467.833	5722.54
468.038	5392.81
468.244	5308.85
468.449	5573.03
468.654	5366.19
468.859	5335.47
469.064	5384.62
469.269	5169.59
469.474	5181.87
469.679	5378.48
469.885	5136.82
470.09	5112.24
470.295	5192.11
470.5	4999.6
470.705	5171.63
470.91	5018.04
471.115	5048.75
471.32	4991.41
471.525	5040.56
471.73	4813.24
471.935	4882.87
472.139	4743.61
472.344	4905.4
472.549	4708.79
472.754	4686.26
472.959	4450.75
473.164	4467.13
473.369	4368.83
473.574	4661.69
473.778	4567.48
473.983	4508.09
474.188	4460.99
474.393	4342.21
474.598	4409.79
474.802	4229.57
475.007	4235.71
475.212	4219.33
475.417	4057.54
475.621	4016.58
475.826	4147.65
476.031	3875.27
476.235	3881.41
476.44	3936.71
476.645	3760.58
476.849	3873.22
477.054	3883.46
477.259	3762.63
477.463	3799.49
477.668	3604.94
477.872	3666.38
478.077	3742.15
478.282	3541.45
478.486	3693
478.691	3459.53
478.895	3656.14
479.1	3590.6
479.304	3482.06
479.509	3469.77
479.713	3383.76
479.918	3451.34
480.122	3291.6
480.326	3375.56
480.531	3441.1
480.735	3486.15
480.94	3328.46
481.144	3473.87
481.348	3336.65
481.553	3279.31
481.757	3377.61
481.961	3248.59
482.166	3369.42
482.37	3418.57
482.574	3244.49
482.778	3334.61
482.983	3363.28
483.187	3213.77
483.391	3391.95
483.595	3295.69
483.8	3350.99
484.004	3432.91
484.208	3365.32
484.412	3248.59
484.616	3174.86
484.821	3402.19
485.025	3252.69
485.229	3361.23
485.433	3271.12
485.637	3342.8
485.841	3119.57
486.045	3293.65
486.249	3338.7
486.453	3248.59
486.657	3338.7
486.861	3211.73
487.065	3195.34
487.269	3340.75
487.473	3142.1
487.677	3213.77
487.881	3336.65
488.085	3305.93
488.289	3434.96
488.493	3262.93
488.697	3219.92
488.901	3381.71
489.105	3342.8
489.309	3269.07
489.512	3326.41
489.716	3418.57
489.92	3506.63
490.124	3408.33
490.328	3492.3
490.531	3523.02
490.735	3416.52
490.939	3580.36
491.143	3414.48
491.346	3367.37
491.55	3394
491.754	3418.57
491.958	3504.59
492.161	3391.95
492.365	3545.55
492.569	3500.49
492.772	3373.52
492.976	3537.35
493.18	3508.68
493.383	3443.15
493.587	3817.93
493.79	3647.94
493.994	3625.42
494.197	3727.82
494.401	3719.62
494.605	3615.18
494.808	3762.63
495.012	3920.32
495.215	3721.67
495.419	3830.21
495.622	3901.89
495.825	4039.11
496.029	4002.24
496.232	4022.72
496.436	3856.84
496.639	4063.68
496.843	4108.74
497.046	4125.12
497.249	4188.61
497.453	4217.28
497.656	4153.79
497.859	4239.81
498.063	4264.38
498.266	4383.17
498.469	4469.18
498.673	4544.95
498.876	4489.66
499.079	4616.63
499.282	4598.2
499.485	4755.9
499.689	4583.87
499.892	4776.38
500.095	4712.89
500.298	4893.11
500.501	4884.92
500.705	5040.56
500.908	5142.96
501.111	5069.23
501.314	5206.45
501.517	5257.65
501.72	5345.71
501.923	5155.25
502.126	5378.48
502.329	5597.61
502.532	5589.42
502.735	5620.14
502.938	5718.44
503.141	5730.73
503.344	5927.33
503.547	6103.46
503.75	5966.24
503.953	5968.29
504.156	6228.38
504.359	6285.73
504.562	6166.95
504.765	6404.51
504.968	6478.24
505.17	6572.44
505.373	6521.24
505.576	6947.22
505.779	6836.63
505.982	6859.16
506.185	6861.21
506.387	6898.07
506.59	7186.83
506.793	7397.78
506.996	7094.68
507.198	7440.78
507.401	7319.95
507.604	7541.13
507.807	7580.04
508.009	7563.66
508.212	7817.61
508.415	7926.15
508.617	8128.9
508.82	7891.34
509.022	8139.14
509.225	8407.42
509.428	8245.63
509.63	8372.61
509.833	8513.92
510.035	8780.15
510.238	8710.52
510.44	8987
510.643	8884.6
510.845	9087.35
511.048	9165.17
511.25	9288.05
511.453	9511.28
511.655	9591.15
511.858	9615.73
512.06	9570.67
512.262	9951.59
512.465	9951.59
512.667	10070.37
512.87	10062.18
513.072	10234.21
513.274	10305.89
513.477	10535.26
513.679	10774.88
513.881	10848.6
514.084	10944.86
514.286	11049.3
514.488	11082.07
514.69	11329.88
514.893	11493.71
515.095	11725.13
515.297	11632.97
515.499	11741.52
515.701	11964.75
515.904	12071.24
516.106	12095.82
516.308	12245.32
516.51	12489.03
516.712	12482.88
516.914	12792.12
517.116	12919.1
517.318	12925.24
517.52	13095.22
517.722	12996.92
517.925	13410.61
518.127	13627.7
518.329	13631.79
518.531	13820.21
518.733	14104.87
518.935	14127.4
519.136	13975.85
519.338	14315.81
519.54	14471.46
519.742	14467.36
519.944	14735.65
520.146	14840.09
520.348	14958.88
520.55	14926.11
520.752	15268.12
520.954	15526.16
521.155	15124.76
521.357	15743.25
521.559	15761.68
521.761	16075.02
521.963	16177.42
522.164	16118.03
522.366	16009.48
522.568	16392.45
522.77	16660.74
522.971	17035.52
523.173	16779.52
523.375	16972.03
523.576	16959.74
523.778	17244.41
523.98	17387.77
524.181	17502.45
524.383	17578.23
524.584	17705.2
524.786	17707.25
524.988	17844.46
525.189	18032.88
525.391	18010.35
525.592	18233.58
525.794	18188.52
525.995	18297.06
526.197	18325.74
526.398	18432.23
526.6	18909.41
526.801	18661.6
527.003	18575.59
527.204	18780.39
527.406	18798.82
527.607	19036.38
527.808	19400.92
528.01	18903.26
528.211	19345.62
528.412	19271.9
528.614	19278.04
528.815	19503.32
529.016	19663.06
529.218	19585.24
529.419	19525.85
529.62	19491.03
529.822	19493.08
530.023	19751.12
530.224	19810.51
530.425	19640.53
530.626	19538.13
530.828	19648.72
531.029	20342.99
531.23	19716.31
531.431	19701.97
531.632	20281.55
531.833	20224.2
532.035	20285.64
532.236	20242.64
532.437	20191.44
532.638	20433.1
532.839	20299.98
533.04	20054.22
533.241	19955.92
533.442	20525.25
533.643	20424.9
533.844	20457.67
534.045	20371.66
534.246	19798.23
534.447	20400.33
534.648	20316.36
534.849	20467.91
535.05	20304.07
535.251	20340.94
535.451	20216.01
535.652	20787.39
535.853	20261.07
536.054	20484.3
536.255	20398.28
536.456	20459.72
536.657	20619.46
536.857	20574.41
537.058	20515.01
537.259	20768.96
537.46	20660.42
537.66	20402.38
537.861	20429
538.062	20445.38
538.263	20730.05
538.463	20486.34
538.664	20670.66
538.865	20371.66
539.065	20863.17
539.266	20101.33
539.466	20822.21
539.667	20443.34
539.868	20531.4
540.068	20439.24
540.269	20398.28
540.469	20682.95
540.67	20496.58
540.87	20441.29
541.071	20510.92
541.271	20613.32
541.472	20541.64
541.672	20330.7
541.873	20295.88
542.073	20312.27
542.274	20797.63
542.474	20402.38
542.675	20508.87
542.875	20801.73
543.075	20480.2
543.276	20226.25
543.476	20252.87
543.676	20506.82
543.877	20418.76
544.077	20357.32
544.277	20439.24
544.478	20582.6
544.678	20424.9
544.878	20478.15
545.078	20418.76
545.279	20627.65
545.479	20549.83
545.679	20525.25
545.879	20639.94
546.079	20398.28
546.28	20291.79
546.48	20478.15
546.68	20572.36
546.88	20631.75
547.08	20359.37
547.28	20398.28
547.48	20293.83
547.68	20515.01
547.88	20306.12
548.081	20613.32
548.281	20342.99
548.481	20537.54
548.681	20510.92
548.881	20512.97
549.081	20558.02
549.28	20175.05
549.48	20455.62
549.68	20412.62
549.88	20553.93
550.08	20267.21
550.28	20463.82
550.48	20693.19
550.68	20429
550.88	20709.57
551.08	20322.51
551.279	20594.89
551.479	20449.48
551.679	20521.16
551.879	20381.9
552.079	20666.56
552.278	20474.06
552.478	20390.09
552.678	20256.97
552.878	20439.24
553.077	20414.66
553.277	20318.41
553.477	20426.95
553.676	20201.68
553.876	20148.43
554.076	20250.83
554.275	20027.6
554.475	20074.7
554.674	20263.11
554.874	20383.94
555.074	20170.96
555.273	20250.83
555.473	20488.39
555.672	20048.08
555.872	20019.41
556.071	20336.84
556.271	20252.87
556.47	20218.06
556.67	19816.66
556.869	20062.41
557.068	20052.17
557.268	20132.04
557.467	19945.68
557.667	19804.37
557.866	19880.14
558.065	19976.4
558.265	19749.07
558.464	19644.63
558.663	19910.86
558.863	19726.55
559.062	19998.93
559.261	19849.43
559.461	19656.92
559.66	19740.88
559.859	19534.04
560.058	19548.37
560.258	19701.97
560.457	19386.58
560.656	19620.05
560.855	19413.21
561.054	19308.76
561.253	19472.6
561.453	19448.02
561.652	19349.72
561.851	19357.91
562.05	19273.95
562.249	19013.85
562.448	19579.09
562.647	19212.51
562.846	19329.24
563.045	19179.74
563.244	18895.07
563.443	19271.9
563.642	18739.43
563.841	19198.17
564.04	18862.3
564.239	19085.53
564.438	18909.41
564.637	18839.78
564.836	18901.22
565.035	18809.06
565.234	18768.1
565.432	18688.23
565.631	18845.92
565.83	18770.15
566.029	18505.96
566.228	18325.74
566.427	18661.6
566.625	18209
566.824	18620.64
567.023	18608.36
567.222	18168.04
567.42	18409.7
567.619	18268.39
567.818	18174.19
568.016	18221.29
568.215	18288.87
568.414	18168.04
568.612	18125.04
568.811	18022.64
569.01	17938.67
569.208	17973.49
569.407	18168.04
569.605	17815.79
569.804	18030.83
570.002	17694.96
570.201	18014.45
570.4	17438.97
570.598	17404.15
570.797	17598.71
570.995	17637.62
571.193	17426.68
571.392	17619.19
571.59	17522.93
571.789	17449.21
571.987	17465.59
572.186	17080.57
572.384	17410.29
572.582	17099
572.781	17154.3
572.979	16869.63
573.177	17117.43
573.376	17062.14
573.574	16756.99
573.772	16851.2
573.971	16961.79
574.169	16933.12
574.367	16580.87
574.565	16734.46
574.763	16589.06
574.962	16521.48
575.16	16283.91
575.358	16648.45
575.556	16150.79
575.754	16795.9
575.952	16158.99
576.151	16427.27
576.349	16093.45
576.547	16187.66
576.745	16220.42
576.943	16107.79
577.141	16032.01
577.339	15927.56
577.537	16201.99
577.735	16015.63
577.933	15915.28
578.131	15733.01
578.329	15831.31
578.527	15739.15
578.725	15669.52
578.923	15704.34
579.121	15427.86
579.319	15692.05
579.516	15470.87
579.714	15302.93
579.912	15309.08
580.11	15147.29
580.308	15386.9
580.506	15417.62
580.704	15100.19
580.901	15175.96
581.099	15034.65
581.297	15165.72
581.495	14985.5
581.692	15106.33
581.89	14913.82
582.088	15003.93
582.285	14623.01
582.483	14928.16
582.681	14885.15
582.878	14797.09
583.076	14543.14
583.274	14811.42
583.471	14485.79
583.669	14436.64
583.866	14651.68
584.064	14381.35
584.262	14373.16
584.459	14287.14
584.657	14190.89
584.854	14512.42
585.052	14076.2
585.249	14293.29
585.447	14250.28
585.644	14045.48
585.841	14137.64
586.039	14139.69
586.236	14106.92
586.434	13721.9
586.631	13828.4
586.828	14063.91
587.026	13857.07
587.223	13826.35
587.42	13674.8
587.618	13715.76
587.815	13576.5
588.012	13631.79
588.21	13390.13
588.407	13508.91
588.604	13447.47
588.801	13238.58
588.999	13287.73
589.196	13246.77
589.393	13187.38
589.59	13386.04
589.787	13150.52
589.984	13121.85
590.182	13052.22
590.379	13365.56
590.576	13031.74
590.773	13156.66
590.97	12826.94
591.167	13029.69
591.364	12822.84
591.561	12898.62
591.758	12650.81
591.955	12869.95
592.152	12937.53
592.349	12661.05
592.546	12951.87
592.743	12304.71
592.94	12509.51
593.137	12622.14
593.334	12523.84
593.531	12620.1
593.727	12534.08
593.924	12329.28
594.121	12308.8
594.318	12349.76
594.515	12032.33
594.712	12529.98
594.908	12288.32
595.105	12077.38
595.302	11987.27
595.499	12165.45
595.696	12093.77
595.892	11970.89
596.089	12155.21
596.286	12007.75
596.482	11970.89
596.679	11989.32
596.876	11905.35
597.072	11729.23
597.269	11766.09
597.466	11766.09
597.662	11710.8
597.859	11714.89
598.055	11696.46
598.252	11520.34
598.448	11671.89
598.645	11956.55
598.841	11403.6
599.038	11501.9
599.234	11596.11
599.431	11366.74
599.627	11411.79
599.824	11309.4
600.02	11186.52
600.217	11403.6
600.413	11462.99
600.609	11129.17
600.806	11166.04
601.002	11184.47
601.198	10948.95
601.395	11075.93
601.591	11172.18
601.787	10955.1
601.984	11057.5
602.18	11047.26
602.376	10877.27
602.572	10842.46
602.769	10791.26
602.965	10854.75
603.161	10830.17
603.357	10625.37
603.553	10723.68
603.75	10721.63
603.946	10439.01
604.142	10678.62
604.338	10590.56
604.534	10543.46
604.73	10424.67
604.926	10522.98
605.122	10381.67
605.318	10309.99
605.514	10314.08
605.71	10219.88
605.906	10258.79
606.102	10144.1
606.298	10174.82
606.494	10234.21
606.69	10008.94
606.886	10125.67
607.082	10094.95
607.278	10090.85
607.474	9912.68
607.67	9955.69
607.866	9838.95
608.062	9732.46
608.257	9820.52
608.453	9922.92
608.649	9914.73
608.845	9562.48
609.041	9732.46
609.236	9679.21
609.432	9701.74
609.628	9783.66
609.824	9544.05
610.019	9544.05
610.215	9634.16
610.411	9765.23
610.606	9568.62
610.802	9562.48
610.998	9564.53
611.193	9363.83
611.389	9480.56
611.584	9161.08
611.78	9423.22
611.976	9093.49
612.171	9249.14
612.367	9314.67
612.562	9144.69
612.758	9236.85
612.953	8980.85
613.149	9402.74
613.344	8991.09
613.539	9324.91
613.735	9056.63
613.93	9245.04
614.126	8966.52
614.321	9138.55
614.517	8909.18
614.712	9161.08
614.907	8798.59
615.103	8950.14
615.298	8898.94
615.493	8937.85
615.688	8915.32
615.884	8847.74
616.079	8485.25
616.274	8872.31
616.47	8870.26
616.665	8808.83
616.86	8690.04
617.055	8659.32
617.25	8618.36
617.445	8735.1
617.641	8536.45
617.836	8460.67
618.031	8634.75
618.226	8415.62
618.421	8518.01
618.616	8552.83
618.811	8538.49
619.006	8489.34
619.201	8319.36
619.396	8249.73
619.591	8147.33
619.786	8143.24
619.981	8202.63
620.176	8325.5
620.371	8114.56
620.566	8098.18
620.761	8034.69
620.956	8018.31
621.151	7915.91
621.346	8073.6
621.541	7723.4
621.735	8022.41
621.93	7797.13
622.125	7846.28
622.32	7659.92
622.515	7821.7
622.709	7541.13
622.904	7612.81
623.099	7776.65
623.294	7655.82
623.488	7381.39
623.683	7643.53
623.878	7303.57
624.072	7602.57
624.267	7348.62
624.462	7254.42
624.656	7317.9
624.851	7229.84
625.046	7135.64
625.24	7235.99
625.435	6951.32
625.629	7074.2
625.824	7006.61
626.018	6992.28
626.213	6848.92
626.407	6949.27
626.602	6840.73
626.796	6947.22
626.991	6859.16
627.185	6660.51
627.38	6803.86
627.574	6683.03
627.768	6605.21
627.963	6635.93
628.157	6474.14
628.352	6490.52
628.546	6412.7
628.74	6416.8
628.935	6513.05
629.129	6347.17
629.323	6322.59
629.517	6242.72
629.712	6259.1
629.906	6517.15
630.1	6171.04
630.294	6216.1
630.489	6054.31
630.683	6191.52
630.877	6099.36
631.071	6029.73
631.265	5960.1
631.459	6080.93
631.653	6087.08
631.848	5939.62
632.042	6009.25
632.236	5886.37
632.43	5978.53
632.624	5722.54
632.818	5777.83
633.012	5863.85
633.206	5833.13
633.4	5708.2
633.594	5712.3
633.788	5745.06
633.982	5579.18
634.176	5818.79
634.369	5613.99
634.563	5573.03
634.757	5538.22
634.951	5577.13
635.145	5540.27
635.339	5339.57
635.533	5358
635.726	5566.89
635.92	5226.93
636.114	5337.52
636.308	5222.83
636.501	5202.35
636.695	5362.09
636.889	5210.54
637.083	5243.31
637.276	5116.34
637.47	5075.38
637.664	5081.52
637.857	5104.05
638.051	5108.15
638.244	4938.16
638.438	4860.34
638.632	5071.28
638.825	4891.06
639.019	4948.4
639.212	4942.26
639.406	4936.12
639.599	4678.07
639.793	4743.61
639.986	4604.35
640.18	4753.85
640.373	4784.57
640.567	4749.75
640.76	4702.65
640.954	4762.04
641.147	4579.77
641.34	4598.2
641.534	4557.24
641.727	4438.46
641.92	4526.52
642.114	4358.59
642.307	4532.67
642.5	4358.59
642.694	4379.07
642.887	4467.13
643.08	4342.21
643.273	4284.86
643.467	4174.27
643.66	4260.29
643.853	4178.37
644.046	4143.55
644.239	4184.51
644.432	4123.07
644.626	4063.68
644.819	4221.38
645.012	4166.08
645.205	4157.89
645.398	4125.12
645.591	3975.62
645.784	3858.89
645.977	4067.78
646.17	3686.86
646.363	3918.28
646.556	3932.61
646.749	3869.12
646.942	3871.17
647.135	3797.45
647.328	3797.45
647.521	3736.01
647.714	3740.1
647.907	3643.85
648.099	3758.53
648.292	3512.78
648.485	3830.21
648.678	3619.27
648.871	3580.36
649.064	3563.98
649.256	3674.57
649.449	3559.88
649.642	3443.15
649.835	3615.18
650.027	3445.2
650.22	3588.55
650.413	3277.26
650.605	3480.01
650.798	3342.8
650.991	3205.58
651.183	3375.56
651.376	3434.96
651.568	3310.03
651.761	3363.28
651.954	3303.89
652.146	3285.45
652.339	3158.48
652.531	3203.54
652.724	3244.49
652.916	3160.53
653.109	3080.66
653.301	3267.02
653.494	3158.48
653.686	2998.74
653.879	3099.09
654.071	2994.64
654.263	2974.16
654.456	3011.03
654.648	3103.18
654.84	2884.05
655.033	2982.35
655.225	2906.58
655.417	2974.16
655.61	2998.74
655.802	2834.9
655.994	2795.99
656.186	2777.56
656.379	2806.23
656.571	2716.12
656.763	2806.23
656.955	2884.05
657.148	2671.06
657.34	2720.21
657.532	2730.45
657.724	2646.49
657.916	2658.78
658.108	2650.58
658.3	2603.48
658.492	2542.04
658.684	2755.03
658.876	2642.39
659.068	2587.1
659.26	2597.34
659.452	2681.3
659.644	2556.38
659.836	2527.71
660.028	2589.14
660.22	2499.03
660.412	2435.55
660.604	2445.79
660.796	2537.95
660.988	2456.03
661.18	2390.49
661.372	2406.88
661.563	2435.55
661.755	2339.29
661.947	2337.24
662.139	2376.16
662.331	2365.92
662.522	2281.95
662.714	2378.2
662.906	2236.89
663.097	2286.05
663.289	2302.43
663.481	2183.65
663.673	2165.21
663.864	2224.61
664.056	2122.21
664.247	2066.91
664.439	2253.28
664.631	2197.98
664.822	2210.27
665.014	2197.98
665.205	2148.83
665.397	2058.72
665.588	2159.07
665.78	2023.91
665.971	2101.73
666.163	2130.4
666.354	2122.21
666.546	2052.58
666.737	1974.75
666.929	2028
667.12	2124.26
667.311	2025.95
667.503	2017.76
667.694	1982.95
667.885	1954.27
668.077	1968.61
668.268	1984.99
668.459	1917.41
668.651	1884.64
668.842	1884.64
669.033	1901.03
669.224	1810.92
669.416	1864.16
669.607	2009.57
669.798	1950.18
669.989	1845.73
670.18	1982.95
670.371	1780.2
670.563	1823.2
670.754	1776.1
670.945	1833.44
671.136	1847.78
671.327	1720.81
671.518	1835.49
671.709	1886.69
671.9	1819.11
672.091	1696.23
672.282	1645.03
672.473	1765.86
672.664	1765.86
672.855	1786.34
673.046	1724.9
673.237	1798.63
673.428	1798.63
673.619	1696.23
673.809	1606.12
674	1683.94
674.191	1647.08
674.382	1731.05
674.573	1739.24
674.764	1722.85
674.954	1700.33
675.145	1739.24
675.336	1720.81
675.527	1579.5
675.717	1577.45
675.908	1585.64
676.099	1683.94
676.289	1583.59
676.48	1655.27
676.671	1688.04
676.861	1667.56
677.052	1636.84
677.243	1618.41
677.433	1681.89
677.624	1616.36
677.814	1634.79
678.005	1556.97
678.195	1720.81
678.386	1610.22
678.576	1542.63
678.767	1534.44
678.957	1602.02
679.148	1610.22
679.338	1616.36
679.529	1608.17
679.719	1571.3
679.909	1614.31
680.1	1548.78
680.29	1581.54
680.481	1556.97
680.671	1516.01
680.861	1507.82
681.052	1524.2
681.242	1448.43
681.432	1497.58
681.622	1466.86
681.813	1532.39
682.003	1577.45
682.193	1544.68
682.383	1518.06
682.573	1466.86
682.764	1448.43
682.954	1509.86
683.144	1511.91
683.334	1518.06
683.524	1395.18
683.714	1415.66
683.904	1511.91
684.094	1530.34
684.284	1532.39
684.474	1401.32
684.664	1544.68
684.854	1481.19
685.044	1483.24
685.234	1380.84
685.424	1526.25
685.614	1481.19
685.804	1452.52
685.994	1413.61
686.184	1538.54
686.374	1419.75
686.564	1556.97
686.753	1391.08
686.943	1399.27
687.133	1393.13
687.323	1450.47
687.513	1393.13
687.702	1507.82
687.892	1473
688.082	1368.56
688.272	1483.24
688.461	1518.06
688.651	1397.23
688.841	1495.53
689.03	1352.17
689.22	1401.32
689.41	1460.71
689.599	1462.76
689.789	1319.4
689.979	1466.86
690.168	1393.13
690.358	1366.51
690.547	1391.08
690.737	1423.85
690.926	1425.9
691.116	1313.26
691.305	1368.56
691.495	1452.52
691.684	1346.03
691.874	1401.32
692.063	1317.36
692.252	1327.6
692.442	1401.32
692.631	1364.46
692.82	1397.23
693.01	1382.89
693.199	1356.27
693.388	1448.43
693.578	1329.64
693.767	1341.93
693.956	1358.32
694.146	1458.67
694.335	1384.94
694.524	1444.33
694.713	1456.62
694.902	1415.66
695.092	1421.8
695.281	1440.23
695.47	1360.36
695.659	1311.21
695.848	1446.38
696.037	1417.71
696.226	1317.36
696.415	1479.15
696.604	1425.9
696.793	1368.56
696.982	1403.37
697.171	1370.6
697.36	1380.84
697.549	1401.32
697.738	1432.04
697.927	1413.61
698.116	1374.7
698.305	1452.52
698.494	1348.08
698.683	1434.09
698.872	1245.68
699.061	1475.05
699.25	1407.47
699.438	1460.71
699.627	1391.08
699.816	1389.03
700.005	1487.34
700.193	1372.65
700.382	1415.66
700.571	1366.51
700.76	1409.51
700.948	1503.72
701.137	1350.12
701.326	1417.71
701.514	1298.92
701.703	1374.7
701.892	1370.6
702.08	1399.27
702.269	1407.47
702.457	1429.99
702.646	1391.08
702.834	1341.93
703.023	1282.54
703.212	1425.9
703.4	1288.68
703.589	1462.76
703.777	1337.84
703.965	1317.36
704.154	1296.88
704.342	1319.4
704.531	1352.17
704.719	1276.4
704.907	1335.79
705.096	1341.93
705.284	1393.13
705.472	1411.56
705.661	1331.69
705.849	1352.17
706.037	1333.74
706.226	1221.1
706.414	1380.84
706.602	1354.22
706.79	1370.6
706.979	1364.46
707.167	1321.45
707.355	1278.44
707.543	1309.16
707.731	1343.98
707.919	1348.08
708.107	1339.88
708.296	1313.26
708.484	1315.31
708.672	1290.73
708.86	1290.73
709.048	1296.88
709.236	1313.26
709.424	1262.06
709.612	1196.53
709.8	1249.77
709.988	1356.27
710.176	1313.26
710.364	1286.64
710.551	1237.49
710.739	1180.14
710.927	1223.15
711.115	1231.34
711.303	1268.2
711.491	1339.88
711.679	1245.68
711.866	1212.91
712.054	1163.76
712.242	1139.18
712.43	1270.25
712.617	1192.43
712.805	1196.53
712.993	1149.42
713.181	1280.49
713.368	1147.37
713.556	1178.09
713.744	1186.29
713.931	1180.14
714.119	1135.09
714.306	1196.53
714.494	1184.24
714.682	1135.09
714.869	1196.53
715.057	1147.37
715.244	1139.18
715.432	1178.09
715.619	1174
715.807	1143.28
715.994	1124.85
716.182	1110.51
716.369	1114.61
716.556	1176.05
716.744	1049.07
716.931	1100.27
717.119	1102.32
717.306	1124.85
717.493	1051.12
717.681	1044.98
717.868	1130.99
718.055	1087.98
718.242	1108.46
718.43	1057.26
718.617	1180.14
718.804	1065.46
718.991	1034.74
719.179	1055.22
719.366	1040.88
719.553	1122.8
719.74	1100.27
719.927	1014.26
720.114	997.87
720.301	999.92
720.488	1067.5
720.676	942.58
720.863	1032.69
721.05	1063.41
721.237	1077.74
721.424	1032.69
721.611	965.11
721.798	1020.4
721.985	958.96
722.172	1018.35
722.358	1049.07
722.545	1040.88
722.732	1053.17
722.919	1024.5
723.106	909.81
723.293	920.05
723.48	1081.84
723.667	977.39
723.853	940.53
724.04	983.54
724.227	942.58
724.414	963.06
724.6	969.2
724.787	1022.45
724.974	905.71
725.161	909.81
725.347	854.51
725.534	952.82
725.72	926.19
725.907	969.2
726.094	905.71
726.28	1004.02
726.467	866.8
726.653	913.91
726.84	928.24
727.027	944.63
727.213	930.29
727.4	903.67
727.586	967.15
727.773	866.8
727.959	956.91
728.145	1004.02
728.332	864.75
728.518	801.27
728.705	909.81
728.891	889.33
729.077	893.43
729.264	786.93
729.45	870.9
729.636	805.36
729.823	807.41
730.009	918
730.195	926.19
730.382	811.51
730.568	942.58
730.754	928.24
730.94	836.08
731.126	764.4
731.313	807.41
731.499	797.17
731.685	872.95
731.871	895.47
732.057	864.75
732.243	784.88
732.429	819.7
732.615	862.71
732.801	739.83
732.987	836.08
733.173	879.09
733.359	850.42
733.545	745.97
733.731	770.55
733.917	793.08
734.103	723.44
734.289	821.75
734.475	764.4
734.661	780.79
734.847	764.4
735.033	764.4
735.219	776.69
735.404	791.03
735.59	786.93
735.776	788.98
735.962	760.31
736.148	920.05
736.333	715.25
736.519	737.78
736.705	782.84
736.89	684.53
737.076	827.89
737.262	827.89
737.447	670.2
737.633	780.79
737.819	760.31
738.004	711.16
738.19	762.36
738.375	666.1
738.561	764.4
738.747	707.06
738.932	748.02
739.118	711.16
739.303	754.16
739.489	684.53
739.674	653.81
739.859	723.44
740.045	676.34
740.23	758.26
740.416	643.57
740.601	743.92
740.786	649.72
740.972	676.34
741.157	774.64
741.342	745.97
741.528	641.53
741.713	713.21
741.898	647.67
742.084	715.25
742.269	655.86
742.454	627.19
742.639	692.73
742.824	578.04
743.01	619
743.195	696.82
743.38	600.57
743.565	608.76
743.75	668.15
743.935	608.76
744.12	690.68
744.305	692.73
744.49	647.67
744.675	631.29
744.86	672.25
745.045	649.72
745.23	614.9
745.415	676.34
745.6	563.7
745.785	614.9
745.97	588.28
746.155	573.94
746.34	580.09
746.525	606.71
746.71	578.04
746.895	578.04
747.079	614.9
747.264	680.44
747.449	635.38
747.634	590.33
747.819	489.98
748.003	590.33
748.188	639.48
748.373	551.42
748.557	563.7
748.742	578.04
748.927	541.18
749.111	541.18
749.296	573.94
749.481	565.75
749.665	516.6
749.85	559.61
750.034	500.22
750.219	639.48
750.404	547.32
750.588	608.76
750.773	430.59
750.957	532.98
751.141	563.7
751.326	530.94
751.51	475.64
751.695	518.65
751.879	565.75
752.064	578.04
752.248	492.02
752.432	483.83
752.617	520.7
752.801	573.94
752.985	453.11
753.17	555.51
753.354	444.92
753.538	471.54
753.722	412.15
753.907	418.3
754.091	475.64
754.275	424.44
754.459	453.11
754.643	524.79
754.828	375.29
755.012	506.36
755.196	408.06
755.38	434.68
755.564	446.97
755.748	420.35
755.932	438.78
756.116	420.35
756.3	457.21
756.484	385.53
756.668	461.3
756.852	354.81
757.036	467.45
757.22	403.96
757.404	358.91
757.588	410.11
757.772	469.5
757.956	455.16
758.14	418.3
758.323	377.34
758.507	334.33
758.691	326.14
758.875	385.53
759.059	401.91
759.242	406.01
759.426	397.82
759.61	412.15
759.794	403.96
759.977	410.11
760.161	371.19
760.345	393.72
760.528	373.24
760.712	436.73
760.895	408.06
761.079	324.09
761.263	371.19
761.446	328.19
761.63	426.49
761.813	416.25
761.997	322.04
762.18	363
762.364	346.62
762.547	354.81
762.731	332.28
762.914	354.81
763.098	338.43
763.281	414.2
763.464	395.77
763.648	393.72
763.831	289.28
764.015	262.65
764.198	289.28
764.381	451.07
764.564	305.66
764.748	311.8
764.931	371.19
765.114	338.43
765.297	326.14
765.481	340.47
765.664	336.38
765.847	385.53
766.03	336.38
766.213	289.28
766.397	360.95
766.58	287.23
766.763	399.87
766.946	379.39
767.129	373.24
767.312	266.75
767.495	346.62
767.678	289.28
767.861	365.05
768.044	381.43
768.227	272.89
768.41	342.52
768.593	348.67
768.776	315.9
768.959	338.43
769.142	344.57
769.324	305.66
769.507	274.94
769.69	334.33
769.873	295.42
770.056	283.13
770.239	283.13
770.421	266.75
770.604	309.76
770.787	332.28
770.97	244.22
771.152	272.89
771.335	338.43
771.518	320
771.7	287.23
771.883	332.28
772.066	289.28
772.248	317.95
772.431	215.55
772.613	254.46
772.796	297.47
772.978	236.03
773.161	250.36
773.343	236.03
773.526	258.56
773.708	287.23
773.891	211.45
774.073	289.28
774.256	301.56
774.438	285.18
774.621	215.55
774.803	274.94
774.985	303.61
775.168	268.8
775.35	209.4
775.532	289.28
775.715	258.56
775.897	223.74
776.079	250.36
776.261	336.38
776.444	285.18
776.626	272.89
776.808	258.56
776.99	221.69
777.173	174.59
777.355	272.89
777.537	231.93
777.719	242.17
777.901	217.6
778.083	219.64
778.265	201.21
778.447	215.55
778.629	201.21
778.811	240.12
778.993	279.04
779.175	221.69
779.357	156.16
779.539	184.83
779.721	217.6
779.903	295.42
780.085	213.5
780.267	211.45
780.449	264.7
780.631	233.98
780.812	176.64
780.994	266.75
781.176	158.21
781.358	168.45
781.54	193.02
781.721	233.98
781.903	195.07
782.085	188.93
782.267	162.3
782.448	264.7
782.63	223.74
782.812	121.34
782.993	156.16
783.175	287.23
783.357	172.54
783.538	150.01
783.72	154.11
783.901	160.25
784.083	131.58
784.264	162.3
784.446	137.73
784.627	229.88
784.809	178.69
784.99	176.64
785.172	98.81
785.353	139.77
785.535	152.06
785.716	135.68
785.897	145.92
786.079	139.77
786.26	121.34
786.441	223.74
786.623	178.69
786.804	156.16
786.985	160.25
787.167	127.49
787.348	190.97
787.529	125.44
787.71	217.6
787.891	119.29
788.073	104.96
788.254	197.12
788.435	109.05
788.616	172.54
788.797	59.9
788.978	172.54
789.159	137.73
789.34	154.11
789.522	123.39
789.703	107.01
789.884	125.44
790.065	131.58
790.246	199.16
790.427	92.67
790.607	119.29
790.788	168.45
790.969	141.82
791.15	131.58
791.331	145.92
791.512	174.59
791.693	90.62
791.874	166.4
792.054	164.35
792.235	141.82
792.416	141.82
792.597	127.49
792.778	139.77
792.958	92.67
793.139	109.05
793.32	123.39
793.5	135.68
793.681	219.64
793.862	49.66
794.042	166.4
794.223	137.73
794.404	100.86
794.584	16.9
794.765	123.39
794.945	88.57
795.126	172.54
795.306	104.96
795.487	82.43
795.667	119.29
795.848	92.67
796.028	158.21
796.209	133.63
796.389	133.63
796.57	127.49
796.75	82.43
796.93	133.63
797.111	78.33
797.291	125.44
797.471	102.91
797.652	188.93
797.832	127.49
798.012	104.96
798.192	98.81
798.373	119.29
798.553	119.29
798.733	131.58
798.913	45.57
799.093	111.1
799.274	127.49
799.454	172.54
799.634	92.67
799.814	123.39
799.994	107.01
800.174	123.39
800.354	143.87
800.534	111.1
800.714	57.86
800.894	145.92
801.074	102.91
801.254	41.47
801.434	39.42
801.614	25.09
801.794	41.47
801.974	313.85
802.154	66.05
802.334	109.05
802.514	82.43
802.693	53.76
802.873	96.77
803.053	123.39
803.233	98.81
803.413	78.33
803.592	139.77
803.772	4.61
803.952	18.94
804.131	70.14
804.311	41.47
804.491	127.49
804.67	37.38
804.85	78.33
805.03	49.66
805.209	98.81
805.389	53.76
805.568	10.75
805.748	92.67
805.928	92.67
806.107	51.71
806.287	143.87
806.466	96.77
806.646	29.18
806.825	55.81
807.004	84.48
807.184	35.33
807.363	25.09
807.543	49.66
807.722	92.67
807.901	64
808.081	29.18
808.26	80.38
808.439	100.86
808.619	102.91
808.798	74.24
808.977	59.9
809.156	76.29
809.336	37.38
809.515	31.23
809.694	82.43
809.873	70.14
810.052	92.67
810.231	33.28
810.411	59.9
810.59	70.14
810.769	70.14
810.948	59.9
811.127	86.53
811.306	45.57
811.485	61.95
811.664	-9.73
811.843	-24.06
812.022	35.33
812.201	59.9
812.38	107.01
812.559	96.77
812.737	8.7
812.916	37.38
813.095	90.62
813.274	27.14
813.453	6.66
813.632	-1.54
813.811	82.43
813.989	27.14
814.168	66.05
814.347	51.71
814.526	51.71
814.704	98.81
814.883	66.05
815.062	33.28
815.24	78.33
815.419	70.14
815.598	47.62
815.776	82.43
815.955	23.04
816.133	47.62
816.312	51.71
816.49	64
816.669	78.33
816.847	45.57
817.026	76.29
817.204	-19.97
817.383	31.23
817.561	102.91
817.74	68.09
817.918	141.82
818.097	57.86
818.275	12.8
818.453	20.99
818.632	94.72
818.81	47.62
818.988	-11.78
819.167	92.67
819.345	76.29
819.523	16.9
819.701	59.9
819.879	74.24
820.058	10.75
820.236	29.18
820.414	43.52
820.592	25.09
820.77	6.66
820.948	-1.54
821.127	27.14
821.305	49.66
821.483	70.14
821.661	82.43
821.839	-30.21
822.017	0.51
822.195	12.8
822.373	14.85
822.551	51.71
822.729	55.81
822.907	47.62
823.085	121.34
823.262	31.23
823.44	98.81
823.618	96.77
823.796	-22.02
823.974	-62.98
824.152	53.76
824.329	-11.78
824.507	20.99
824.685	-42.5
824.863	86.53
825.04	2.56
825.218	-5.63
825.396	0.51
825.574	20.99
825.751	-3.58
825.929	35.33
826.107	20.99
826.284	72.19
826.462	37.38
826.639	27.14
826.817	76.29
826.994	41.47
827.172	-19.97
827.349	-5.63
827.527	20.99
827.704	41.47
827.882	76.29
828.059	37.38
828.237	2.56
828.414	-15.87
828.591	41.47
828.769	43.52
828.946	6.66
829.124	86.53
829.301	70.14
829.478	86.53
829.655	-38.4
829.833	59.9
830.01	-52.74
830.187	84.48
830.364	-22.02
830.542	-28.16
830.719	12.8
830.896	-24.06
831.073	92.67
831.25	41.47
831.427	49.66
831.604	-38.4
831.782	33.28
831.959	57.86
832.136	78.33
832.313	37.38
832.49	41.47
832.667	57.86
832.844	66.05
833.021	25.09
833.198	-19.97
833.374	6.66
833.551	100.86
833.728	43.52
833.905	82.43
834.082	57.86
834.259	-46.59
834.436	53.76
834.612	4.61
834.789	78.33
834.966	0.51
835.143	27.14
835.319	-62.98
835.496	-15.87
835.673	-52.74
835.85	-3.58
836.026	100.86
836.203	8.7
836.38	-5.63
836.556	-28.16
836.733	10.75
836.909	51.71
837.086	2.56
837.262	-7.68
837.439	33.28
837.616	29.18
837.792	72.19
837.968	51.71
838.145	51.71
838.321	39.42
838.498	94.72
838.674	59.9
838.851	70.14
839.027	4.61
839.203	74.24
839.38	0.51
839.556	-28.16
839.732	84.48
839.909	-9.73
840.085	98.81
840.261	125.44
840.437	57.86
840.614	-7.68
840.79	2.56
840.966	29.18
841.142	39.42
841.318	-38.4
841.494	18.94
841.671	-11.78
841.847	47.62
842.023	20.99
842.199	31.23
842.375	-13.82
842.551	-30.21
842.727	25.09
842.903	8.7
843.079	16.9
843.255	45.57
843.431	25.09
843.607	8.7
843.783	-24.06
843.959	70.14
844.134	39.42
844.31	16.9
844.486	29.18
844.662	-19.97
844.838	35.33
845.013	6.66
845.189	33.28
845.365	10.75
845.541	10.75
845.716	-83.45
845.892	10.75
846.068	16.9
846.244	29.18
846.419	-3.58
846.595	53.76
846.77	51.71
846.946	8.7
847.122	12.8
847.297	27.14
847.473	-3.58
847.648	-38.4
847.824	45.57
847.999	-5.63
848.175	137.73
848.35	45.57
848.526	0.51
848.701	-11.78
848.876	39.42
849.052	61.95
849.227	35.33
849.403	33.28
849.578	37.38
849.753	-5.63
849.929	16.9
850.104	-79.36
850.279	64
850.454	70.14
850.63	0.51
850.805	-7.68
850.98	55.81
851.155	145.92
851.33	68.09
851.505	-13.82
851.681	25.09
851.856	-28.16
852.031	-32.26
852.206	-15.87
852.381	23.04
852.556	66.05
852.731	16.9
852.906	20.99
853.081	113.15
853.256	57.86
853.431	109.05
853.606	-58.88
853.781	-52.74
853.956	-26.11
854.131	-15.87
854.305	-38.4
854.48	-13.82
854.655	82.43
854.83	45.57
855.005	-13.82
855.18	-17.92
855.354	90.62
855.529	43.52
855.704	-48.64
855.879	0.51
856.053	-13.82
856.228	10.75
856.403	33.28
856.577	-19.97
856.752	20.99
856.926	16.9
857.101	-7.68
857.276	10.75
857.45	59.9
857.625	57.86
857.799	4.61
857.974	51.71
858.148	-38.4
858.323	14.85
858.497	55.81
858.672	68.09
858.846	-69.12
859.02	39.42
859.195	-32.26
859.369	33.28
859.543	2.56
859.718	-11.78
859.892	0.51
860.066	53.76
860.241	74.24
860.415	18.94
860.589	20.99
860.763	16.9
860.938	61.95
861.112	-44.54
861.286	37.38
861.46	-5.63
861.634	-5.63
861.808	-5.63
861.982	-24.06
862.157	43.52
862.331	43.52
862.505	27.14
862.679	31.23
862.853	51.71
863.027	-24.06
863.201	43.52
863.375	47.62
863.549	27.14
863.722	14.85
863.896	-5.63
864.07	-24.06
864.244	-40.45
864.418	12.8
864.592	16.9
864.766	10.75
864.939	35.33
865.113	-5.63
865.287	41.47
865.461	-5.63
865.634	59.9
865.808	-26.11
865.982	-60.93
866.156	12.8
866.329	-30.21
866.503	45.57
866.676	12.8
866.85	49.66
867.024	88.57
867.197	16.9
867.371	-38.4
867.544	-3.58
867.718	-11.78
867.891	90.62
868.065	29.18
868.238	20.99
868.412	70.14
868.585	55.81
868.759	-13.82
868.932	-28.16
869.105	25.09
869.279	33.28
869.452	14.85
869.625	-3.58
869.799	76.29
869.972	4.61
870.145	-5.63
870.319	6.66
870.492	53.76
870.665	-24.06
870.838	-24.06
871.011	-3.58
871.185	12.8
871.358	-9.73
871.531	-11.78
871.704	-13.82
871.877	-36.35
872.05	49.66
872.223	-13.82
872.396	117.25
872.569	14.85
872.742	-11.78
872.915	47.62
873.088	31.23
873.261	43.52
873.434	4.61
873.607	51.71
873.78	8.7
873.953	-9.73
874.126	-11.78
874.299	47.62
874.471	78.33
874.644	53.76
874.817	-24.06
874.99	-13.82
875.163	-1.54
875.335	8.7
875.508	-26.11
875.681	16.9
875.853	35.33
876.026	35.33
876.199	-34.3
876.371	8.7
876.544	0.51
876.717	-52.74
876.889	59.9
877.062	-32.26
877.234	25.09
877.407	-1.54
877.579	51.71
877.752	51.71
877.924	-7.68
878.097	18.94
878.269	-46.59
878.442	16.9
878.614	4.61
878.786	20.99
878.959	-7.68
879.131	25.09
879.303	-15.87
879.476	-32.26
879.648	-26.11
879.82	16.9
879.993	-30.21
880.165	4.61
880.337	-13.82
880.509	64
880.681	49.66
880.854	20.99
881.026	18.94
881.198	37.38
881.37	-15.87
881.542	57.86
881.714	57.86
881.886	-26.11
882.058	-11.78
882.23	25.09
882.402	0.51
882.574	35.33
882.746	-26.11
882.918	33.28
883.09	14.85
883.262	-24.06
883.434	-5.63
883.606	0.51
883.778	16.9
883.95	8.7
884.122	-13.82
884.293	0.51
884.465	70.14
884.637	45.57
884.809	49.66
884.98	25.09
885.152	53.76
885.324	-34.3
885.496	39.42
885.667	25.09
885.839	-22.02
886.011	-38.4
886.182	-3.58
886.354	41.47
886.525	-32.26
886.697	-38.4
886.869	20.99
887.04	-19.97
887.212	-17.92
887.383	4.61
887.555	41.47
887.726	10.75
887.897	-15.87
888.069	72.19
888.24	80.38
888.412	-71.17
888.583	-11.78
888.754	-65.02
888.926	35.33
889.097	57.86
889.268	-22.02
889.44	4.61
889.611	-52.74
889.782	55.81
889.953	-54.78
890.125	-3.58
890.296	-9.73
890.467	-32.26
890.638	4.61
890.809	-5.63
890.98	-48.64
891.151	16.9
891.323	57.86
891.494	82.43
891.665	-22.02
891.836	-5.63
892.007	-36.35
892.178	18.94
892.349	-15.87
892.52	-50.69
892.691	12.8
892.862	47.62
893.032	-114.17
893.203	-7.68
893.374	37.38
893.545	16.9
893.716	51.71
893.887	39.42
894.057	-42.5
894.228	39.42
894.399	51.71
894.57	47.62
894.74	33.28
894.911	-46.59
895.082	-5.63
895.253	45.57
895.423	14.85
895.594	-5.63
895.764	-38.4
895.935	10.75
896.106	45.57
896.276	16.9
896.447	6.66
896.617	-28.16
896.788	-56.83
896.958	-9.73
897.129	0.51
897.299	-42.5
897.47	51.71
897.64	-11.78
897.81	10.75
897.981	-36.35
898.151	-7.68
898.322	-28.16
898.492	66.05
898.662	10.75
898.832	-60.93
899.003	20.99
899.173	-56.83
899.343	51.71
899.513	-7.68
