Data from USB4F104151__263__14-01-57-782.txt Node

Date: Thu Mar 13 14:01:57 EDT 2025
User: louis
Spectrometer: USB4F10415
Trigger mode: 4
Integration Time (sec): 1.000000E-2
Scans to average: 1
Electric dark correction enabled: true
Nonlinearity correction enabled: false
Boxcar width: 0
XAxis mode: Wavelengths
Number of Pixels in Spectrum: 3648
>>>>>Begin Spectral Data<<<<<
178.204	-4.95
178.424	-4.95
178.644	-4.95
178.864	-115.54
179.084	-7
179.304	56.49
179.524	-9.05
179.744	-7
179.964	17.58
180.184	1.19
180.404	-37.72
180.624	-2.9
180.844	7.34
181.064	-15.19
181.283	-23.38
181.503	13.48
181.723	-0.85
181.943	27.82
182.163	54.44
182.383	3.24
182.602	85.16
182.822	19.63
183.042	83.11
183.262	5.29
183.482	15.53
183.701	3.24
183.921	46.25
184.141	13.48
184.361	7.34
184.58	-9.05
184.8	21.67
185.02	-11.09
185.239	11.43
185.459	-19.29
185.679	-39.76
185.898	-17.24
186.118	23.72
186.338	25.77
186.557	-0.85
186.777	-58.2
186.997	7.34
187.216	11.43
187.436	85.16
187.655	17.58
187.875	25.77
188.095	122.02
188.314	-19.29
188.534	56.49
188.753	-35.67
188.973	-62.29
189.192	62.63
189.412	64.68
189.631	11.43
189.851	-74.58
190.07	36.01
190.29	17.58
190.509	15.53
190.729	117.93
190.948	-7
191.168	15.53
191.387	-17.24
191.607	-7
191.826	72.87
192.045	48.3
192.265	31.91
192.484	66.73
192.704	17.58
192.923	23.72
193.142	68.78
193.362	40.11
193.581	54.44
193.8	40.11
194.02	7.34
194.239	-7
194.458	17.58
194.678	-37.72
194.897	17.58
195.116	56.49
195.335	25.77
195.555	-41.81
195.774	25.77
195.993	3.24
196.212	27.82
196.432	19.63
196.651	-39.76
196.87	-17.24
197.089	115.88
197.308	-4.95
197.528	38.06
197.747	56.49
197.966	56.49
198.185	1.19
198.404	1.19
198.623	48.3
198.842	56.49
199.062	72.87
199.281	81.07
199.5	-27.48
199.719	17.58
199.938	15.53
200.157	44.2
200.376	40.11
200.595	-2.9
200.814	33.96
201.033	-0.85
201.252	19.63
201.471	-9.05
201.69	93.35
201.909	-7
202.128	99.5
202.347	50.35
202.566	3.24
202.785	-39.76
203.004	44.2
203.223	79.02
203.442	-9.05
203.661	27.82
203.879	54.44
204.098	-4.95
204.317	25.77
204.536	25.77
204.755	29.87
204.974	-15.19
205.193	9.39
205.411	31.91
205.63	48.3
205.849	46.25
206.068	31.91
206.287	89.26
206.505	9.39
206.724	27.82
206.943	1.19
207.162	36.01
207.381	-33.62
207.599	11.43
207.818	-56.15
208.037	52.39
208.255	-66.39
208.474	42.15
208.693	-31.57
208.911	25.77
209.13	-0.85
209.349	56.49
209.567	44.2
209.786	-33.62
210.005	11.43
210.223	-13.14
210.442	-0.85
210.661	31.91
210.879	44.2
211.098	-33.62
211.316	15.53
211.535	56.49
211.753	44.2
211.972	21.67
212.191	38.06
212.409	40.11
212.628	21.67
212.846	-15.19
213.065	17.58
213.283	40.11
213.502	52.39
213.72	13.48
213.938	-17.24
214.157	7.34
214.375	50.35
214.594	-9.05
214.812	15.53
215.031	-2.9
215.249	-33.62
215.467	-0.85
215.686	17.58
215.904	23.72
216.122	-17.24
216.341	17.58
216.559	-25.43
216.778	1.19
216.996	-17.24
217.214	-56.15
217.432	-21.33
217.651	-21.33
217.869	7.34
218.087	-9.05
218.306	-4.95
218.524	17.58
218.742	31.91
218.96	76.97
219.179	-23.38
219.397	54.44
219.615	31.91
219.833	11.43
220.051	76.97
220.27	48.3
220.488	7.34
220.706	48.3
220.924	21.67
221.142	-7
221.36	-66.39
221.578	7.34
221.796	42.15
222.015	36.01
222.233	-17.24
222.451	23.72
222.669	44.2
222.887	66.73
223.105	-27.48
223.323	-2.9
223.541	-54.1
223.759	105.64
223.977	-43.86
224.195	105.64
224.413	60.59
224.631	19.63
224.849	33.96
225.067	-9.05
225.285	-7
225.503	-0.85
225.721	-39.76
225.939	23.72
226.157	13.48
226.375	93.35
226.592	56.49
226.81	-4.95
227.028	23.72
227.246	40.11
227.464	9.39
227.682	48.3
227.9	13.48
228.117	11.43
228.335	58.54
228.553	-33.62
228.771	11.43
228.989	9.39
229.206	40.11
229.424	48.3
229.642	-25.43
229.86	-0.85
230.077	15.53
230.295	15.53
230.513	36.01
230.731	29.87
230.948	40.11
231.166	33.96
231.384	33.96
231.601	13.48
231.819	23.72
232.037	3.24
232.254	-31.57
232.472	58.54
232.689	81.07
232.907	68.78
233.125	1.19
233.342	-17.24
233.56	23.72
233.777	117.93
233.995	36.01
234.213	23.72
234.43	70.83
234.648	23.72
234.865	9.39
235.083	25.77
235.3	-0.85
235.518	-23.38
235.735	7.34
235.953	17.58
236.17	11.43
236.388	-0.85
236.605	7.34
236.822	60.59
237.04	64.68
237.257	36.01
237.475	-4.95
237.692	97.45
237.909	54.44
238.127	7.34
238.344	-29.52
238.562	58.54
238.779	48.3
238.996	66.73
239.214	-4.95
239.431	-4.95
239.648	19.63
239.865	64.68
240.083	19.63
240.3	25.77
240.517	31.91
240.735	-50
240.952	-41.81
241.169	48.3
241.386	-4.95
241.603	-2.9
241.821	48.3
242.038	1.19
242.255	-4.95
242.472	-0.85
242.689	-41.81
242.907	36.01
243.124	44.2
243.341	52.39
243.558	-29.52
243.775	-15.19
243.992	-23.38
244.209	5.29
244.426	15.53
244.643	66.73
244.86	23.72
245.078	40.11
245.295	31.91
245.512	13.48
245.729	85.16
245.946	50.35
246.163	-0.85
246.38	-9.05
246.597	36.01
246.814	1.19
247.031	-66.39
247.248	36.01
247.464	-4.95
247.681	-50
247.898	-35.67
248.115	-17.24
248.332	15.53
248.549	38.06
248.766	19.63
248.983	117.93
249.2	60.59
249.417	31.91
249.633	-33.62
249.85	89.26
250.067	17.58
250.284	-50
250.501	56.49
250.717	58.54
250.934	-7
251.151	-15.19
251.368	31.91
251.585	-21.33
251.801	81.07
252.018	13.48
252.235	52.39
252.451	-2.9
252.668	17.58
252.885	40.11
253.102	-43.86
253.318	-7
253.535	93.35
253.752	36.01
253.968	42.15
254.185	-29.52
254.401	46.25
254.618	31.91
254.835	31.91
255.051	7.34
255.268	68.78
255.484	11.43
255.701	40.11
255.917	31.91
256.134	38.06
256.351	27.82
256.567	-19.29
256.784	-33.62
257	21.67
257.217	3.24
257.433	-15.19
257.65	-0.85
257.866	9.39
258.082	33.96
258.299	7.34
258.515	33.96
258.732	15.53
258.948	-9.05
259.165	-0.85
259.381	11.43
259.597	-50
259.814	17.58
260.03	-0.85
260.246	-41.81
260.463	52.39
260.679	9.39
260.895	42.15
261.112	76.97
261.328	-29.52
261.544	33.96
261.761	11.43
261.977	7.34
262.193	36.01
262.409	64.68
262.626	17.58
262.842	58.54
263.058	-29.52
263.274	48.3
263.49	97.45
263.707	-9.05
263.923	-21.33
264.139	-58.2
264.355	-13.14
264.571	64.68
264.787	76.97
265.004	89.26
265.22	40.11
265.436	70.83
265.652	-15.19
265.868	76.97
266.084	-41.81
266.3	21.67
266.516	-11.09
266.732	-31.57
266.948	-47.96
267.164	60.59
267.38	-2.9
267.596	-21.33
267.812	62.63
268.028	-4.95
268.244	-19.29
268.46	66.73
268.676	42.15
268.892	-37.72
269.108	44.2
269.324	13.48
269.54	-13.14
269.756	56.49
269.972	11.43
270.188	-2.9
270.403	-33.62
270.619	-17.24
270.835	40.11
271.051	70.83
271.267	7.34
271.483	-0.85
271.698	9.39
271.914	-33.62
272.13	13.48
272.346	15.53
272.562	-31.57
272.777	64.68
272.993	50.35
273.209	1.19
273.425	17.58
273.64	15.53
273.856	46.25
274.072	19.63
274.287	33.96
274.503	-19.29
274.719	50.35
274.934	48.3
275.15	9.39
275.366	-4.95
275.581	99.5
275.797	19.63
276.012	-31.57
276.228	44.2
276.444	89.26
276.659	40.11
276.875	-41.81
277.09	-9.05
277.306	-17.24
277.521	3.24
277.737	1.19
277.952	-0.85
278.168	7.34
278.383	-23.38
278.599	-33.62
278.814	-25.43
279.03	7.34
279.245	19.63
279.461	-15.19
279.676	7.34
279.892	42.15
280.107	-0.85
280.322	-17.24
280.538	-9.05
280.753	13.48
280.969	-7
281.184	-15.19
281.399	7.34
281.615	56.49
281.83	89.26
282.045	-60.24
282.26	-13.14
282.476	42.15
282.691	-2.9
282.906	-23.38
283.122	42.15
283.337	-2.9
283.552	31.91
283.767	60.59
283.983	42.15
284.198	-35.67
284.413	25.77
284.628	1.19
284.843	50.35
285.058	-31.57
285.274	21.67
285.489	-2.9
285.704	68.78
285.919	-41.81
286.134	23.72
286.349	-9.05
286.564	-25.43
286.779	-17.24
286.995	-13.14
287.21	52.39
287.425	27.82
287.64	3.24
287.855	15.53
288.07	31.91
288.285	19.63
288.5	33.96
288.715	60.59
288.93	13.48
289.145	56.49
289.36	31.91
289.575	-7
289.79	42.15
290.004	48.3
290.219	115.88
290.434	48.3
290.649	23.72
290.864	-23.38
291.079	42.15
291.294	40.11
291.509	-9.05
291.724	-19.29
291.938	50.35
292.153	68.78
292.368	-11.09
292.583	7.34
292.798	13.48
293.012	1.19
293.227	-27.48
293.442	58.54
293.657	50.35
293.871	-9.05
294.086	-11.09
294.301	91.31
294.516	46.25
294.73	29.87
294.945	-80.72
295.16	13.48
295.374	33.96
295.589	50.35
295.804	-9.05
296.018	66.73
296.233	64.68
296.447	48.3
296.662	-17.24
296.877	85.16
297.091	-7
297.306	-19.29
297.52	33.96
297.735	83.11
297.949	-0.85
298.164	-15.19
298.378	25.77
298.593	21.67
298.807	11.43
299.022	42.15
299.236	48.3
299.451	19.63
299.665	-50
299.88	15.53
300.094	99.5
300.309	-4.95
300.523	-13.14
300.737	-9.05
300.952	31.91
301.166	99.5
301.381	81.07
301.595	50.35
301.809	64.68
302.024	58.54
302.238	-27.48
302.452	50.35
302.667	-33.62
302.881	21.67
303.095	17.58
303.309	-45.91
303.524	23.72
303.738	9.39
303.952	56.49
304.166	-33.62
304.381	23.72
304.595	89.26
304.809	38.06
305.023	1.19
305.237	81.07
305.452	31.91
305.666	40.11
305.88	-33.62
306.094	40.11
306.308	-33.62
306.522	11.43
306.736	81.07
306.95	60.59
307.164	-39.76
307.379	27.82
307.593	48.3
307.807	64.68
308.021	54.44
308.235	48.3
308.449	52.39
308.663	-29.52
308.877	17.58
309.091	-13.14
309.305	72.87
309.519	-29.52
309.733	-9.05
309.947	-27.48
310.161	107.69
310.374	38.06
310.588	64.68
310.802	-9.05
311.016	91.31
311.23	21.67
311.444	-45.91
311.658	9.39
311.872	-11.09
312.085	3.24
312.299	58.54
312.513	40.11
312.727	-0.85
312.941	-0.85
313.154	5.29
313.368	48.3
313.582	42.15
313.796	83.11
314.009	70.83
314.223	105.64
314.437	1.19
314.651	64.68
314.864	11.43
315.078	33.96
315.292	-33.62
315.505	83.11
315.719	46.25
315.933	11.43
316.146	-25.43
316.36	56.49
316.573	23.72
316.787	48.3
317.001	-13.14
317.214	19.63
317.428	-47.96
317.641	-27.48
317.855	60.59
318.068	-41.81
318.282	64.68
318.495	70.83
318.709	42.15
318.922	52.39
319.136	40.11
319.349	40.11
319.563	50.35
319.776	21.67
319.99	-33.62
320.203	44.2
320.417	11.43
320.63	-68.44
320.843	-2.9
321.057	40.11
321.27	36.01
321.483	-9.05
321.697	91.31
321.91	95.4
322.124	79.02
322.337	-13.14
322.55	62.63
322.763	25.77
322.977	50.35
323.19	50.35
323.403	56.49
323.617	-47.96
323.83	66.73
324.043	-9.05
324.256	117.93
324.469	50.35
324.683	33.96
324.896	-19.29
325.109	46.25
325.322	50.35
325.535	5.29
325.748	27.82
325.962	62.63
326.175	-4.95
326.388	-29.52
326.601	-9.05
326.814	38.06
327.027	-25.43
327.24	89.26
327.453	-41.81
327.666	9.39
327.879	33.96
328.092	105.64
328.305	-78.68
328.518	5.29
328.731	44.2
328.944	76.97
329.157	-0.85
329.37	-21.33
329.583	46.25
329.796	50.35
330.009	-47.96
330.222	66.73
330.435	76.97
330.648	-4.95
330.861	25.77
331.073	-15.19
331.286	-9.05
331.499	76.97
331.712	33.96
331.925	50.35
332.138	-29.52
332.35	58.54
332.563	95.4
332.776	-7
332.989	27.82
333.202	66.73
333.414	46.25
333.627	31.91
333.84	-27.48
334.053	17.58
334.265	17.58
334.478	-17.24
334.691	91.31
334.903	-9.05
335.116	-25.43
335.329	-41.81
335.541	66.73
335.754	31.91
335.966	40.11
336.179	109.74
336.392	19.63
336.604	7.34
336.817	72.87
337.029	48.3
337.242	-21.33
337.454	58.54
337.667	3.24
337.88	66.73
338.092	-2.9
338.305	40.11
338.517	54.44
338.729	70.83
338.942	-25.43
339.154	40.11
339.367	42.15
339.579	91.31
339.792	11.43
340.004	23.72
340.217	13.48
340.429	19.63
340.641	-0.85
340.854	44.2
341.066	74.92
341.278	9.39
341.491	31.91
341.703	56.49
341.915	-78.68
342.128	42.15
342.34	58.54
342.552	1.19
342.764	17.58
342.977	-9.05
343.189	44.2
343.401	44.2
343.613	-41.81
343.826	70.83
344.038	-4.95
344.25	40.11
344.462	-11.09
344.674	66.73
344.886	101.55
345.099	11.43
345.311	23.72
345.523	-80.72
345.735	31.91
345.947	33.96
346.159	17.58
346.371	70.83
346.583	23.72
346.795	105.64
347.007	36.01
347.219	48.3
347.431	21.67
347.643	66.73
347.855	44.2
348.067	31.91
348.279	11.43
348.491	7.34
348.703	17.58
348.915	7.34
349.127	-27.48
349.339	33.96
349.551	11.43
349.763	107.69
349.975	9.39
350.187	52.39
350.399	-11.09
350.61	64.68
350.822	-82.77
351.034	40.11
351.246	-4.95
351.458	33.96
351.669	25.77
351.881	60.59
352.093	33.96
352.305	7.34
352.517	7.34
352.728	7.34
352.94	-33.62
353.152	40.11
353.363	-0.85
353.575	5.29
353.787	99.5
353.999	76.97
354.21	31.91
354.422	17.58
354.633	15.53
354.845	7.34
355.057	17.58
355.268	17.58
355.48	25.77
355.692	23.72
355.903	31.91
356.115	56.49
356.326	-9.05
356.538	11.43
356.749	70.83
356.961	44.2
357.172	-15.19
357.384	52.39
357.595	72.87
357.807	105.64
358.018	58.54
358.23	-21.33
358.441	-27.48
358.653	17.58
358.864	33.96
359.075	23.72
359.287	85.16
359.498	50.35
359.709	13.48
359.921	7.34
360.132	15.53
360.344	56.49
360.555	13.48
360.766	124.07
360.977	-13.14
361.189	27.82
361.4	50.35
361.611	15.53
361.823	33.96
362.034	91.31
362.245	-45.91
362.456	83.11
362.667	38.06
362.879	54.44
363.09	31.91
363.301	25.77
363.512	5.29
363.723	-19.29
363.935	62.63
364.146	68.78
364.357	-11.09
364.568	7.34
364.779	9.39
364.99	29.87
365.201	-11.09
365.412	52.39
365.623	15.53
365.834	-19.29
366.045	56.49
366.256	81.07
366.467	-15.19
366.678	44.2
366.889	56.49
367.1	7.34
367.311	99.5
367.522	25.77
367.733	101.55
367.944	79.02
368.155	-31.57
368.366	38.06
368.577	-19.29
368.788	111.78
368.999	17.58
369.209	95.4
369.42	95.4
369.631	-9.05
369.842	40.11
370.053	48.3
370.264	23.72
370.474	17.58
370.685	7.34
370.896	21.67
371.107	66.73
371.317	5.29
371.528	50.35
371.739	19.63
371.95	64.68
372.16	11.43
372.371	40.11
372.582	-17.24
372.792	-17.24
373.003	74.92
373.214	38.06
373.424	31.91
373.635	-4.95
373.846	7.34
374.056	52.39
374.267	9.39
374.477	13.48
374.688	-17.24
374.898	31.91
375.109	23.72
375.319	21.67
375.53	62.63
375.74	56.49
375.951	25.77
376.161	70.83
376.372	50.35
376.582	70.83
376.793	68.78
377.003	74.92
377.214	40.11
377.424	9.39
377.635	13.48
377.845	68.78
378.055	72.87
378.266	56.49
378.476	89.26
378.686	9.39
378.897	105.64
379.107	52.39
379.317	23.72
379.528	-25.43
379.738	97.45
379.948	54.44
380.158	21.67
380.369	-37.72
380.579	48.3
380.789	91.31
380.999	66.73
381.21	38.06
381.42	48.3
381.63	44.2
381.84	103.59
382.05	52.39
382.261	66.73
382.471	91.31
382.681	27.82
382.891	-19.29
383.101	31.91
383.311	-0.85
383.521	74.92
383.731	36.01
383.941	56.49
384.151	54.44
384.361	62.63
384.571	68.78
384.781	64.68
384.991	23.72
385.201	27.82
385.411	64.68
385.621	36.01
385.831	81.07
386.041	52.39
386.251	36.01
386.461	54.44
386.671	17.58
386.881	70.83
387.091	36.01
387.301	93.35
387.511	-4.95
387.72	-39.76
387.93	-31.57
388.14	130.22
388.35	36.01
388.56	33.96
388.769	91.31
388.979	11.43
389.189	50.35
389.399	64.68
389.609	66.73
389.818	36.01
390.028	-9.05
390.238	29.87
390.447	79.02
390.657	81.07
390.867	-4.95
391.076	79.02
391.286	7.34
391.496	52.39
391.705	-27.48
391.915	60.59
392.125	27.82
392.334	50.35
392.544	17.58
392.753	56.49
392.963	-4.95
393.172	64.68
393.382	113.83
393.591	124.07
393.801	58.54
394.01	48.3
394.22	87.21
394.429	81.07
394.639	-41.81
394.848	50.35
395.058	23.72
395.267	99.5
395.477	36.01
395.686	11.43
395.895	79.02
396.105	111.78
396.314	-45.91
396.524	89.26
396.733	99.5
396.942	93.35
397.152	44.2
397.361	134.31
397.57	5.29
397.78	89.26
397.989	31.91
398.198	79.02
398.407	40.11
398.617	132.26
398.826	46.25
399.035	54.44
399.244	52.39
399.453	134.31
399.663	23.72
399.872	113.83
400.081	66.73
400.29	46.25
400.499	60.59
400.708	58.54
400.917	87.21
401.127	83.11
401.336	66.73
401.545	33.96
401.754	181.42
401.963	119.98
402.172	60.59
402.381	83.11
402.59	107.69
402.799	136.36
403.008	87.21
403.217	140.46
403.426	81.07
403.635	93.35
403.844	97.45
404.053	140.46
404.262	101.55
404.471	152.74
404.68	99.5
404.888	105.64
405.097	87.21
405.306	97.45
405.515	101.55
405.724	136.36
405.933	136.36
406.142	195.75
406.35	89.26
406.559	187.56
406.768	117.93
406.977	148.65
407.185	126.12
407.394	183.46
407.603	138.41
407.812	138.41
408.02	222.38
408.229	249
408.438	187.56
408.646	212.14
408.855	230.57
409.064	214.18
409.272	199.85
409.481	195.75
409.69	230.57
409.898	187.56
410.107	212.14
410.315	271.53
410.524	181.42
410.733	275.62
410.941	249
411.15	371.88
411.358	314.53
411.567	373.92
411.775	261.29
411.984	322.73
412.192	361.64
412.401	298.15
412.609	355.49
412.818	464.04
413.026	341.16
413.234	396.45
413.443	378.02
413.651	398.5
413.86	449.7
414.068	531.62
414.276	550.05
414.485	457.89
414.693	554.15
414.901	572.58
415.11	564.39
415.318	539.81
415.526	539.81
415.734	640.16
415.943	650.4
416.151	648.35
416.359	697.5
416.567	644.26
416.776	711.84
416.984	789.66
417.192	902.3
417.4	750.75
417.608	736.42
417.817	738.46
418.025	902.3
418.233	871.58
418.441	828.57
418.649	961.69
418.857	1113.24
419.065	1070.23
419.273	1062.04
419.481	1121.43
419.689	1168.54
419.897	1182.87
420.105	1141.91
420.313	1281.18
420.521	1254.55
420.729	1299.61
420.937	1432.72
421.145	1445.01
421.353	1387.67
421.561	1576.08
421.769	1606.8
421.977	1795.22
422.185	1645.71
422.393	1721.49
422.601	1748.11
422.809	1856.65
423.017	1817.74
423.224	1875.09
423.432	2022.54
423.64	1997.96
423.848	2196.62
424.056	2143.37
424.263	2329.74
424.471	2243.72
424.679	2432.13
424.887	2509.96
425.094	2667.65
425.302	2575.49
425.51	2763.9
425.718	2765.95
425.925	2727.04
426.133	2892.93
426.341	2878.59
426.548	3062.91
426.756	3202.17
426.964	3216.51
427.171	3497.08
427.379	3468.41
427.586	3685.49
427.794	3617.91
428.001	3716.21
428.209	4115.56
428.417	4031.6
428.624	4113.52
428.832	4090.99
429.039	4136.04
429.247	4125.8
429.454	4461.67
429.662	4809.83
429.869	4430.95
430.076	4824.16
430.284	4742.24
430.491	5000.29
430.699	5170.27
430.906	5227.61
431.114	5143.64
431.321	5436.5
431.528	5766.23
431.736	5977.17
431.943	6194.25
432.15	6024.27
432.358	6126.67
432.565	6300.75
432.772	6480.97
432.979	6626.37
433.187	6980.67
433.394	6833.22
433.601	7285.82
433.808	7355.45
434.016	7285.82
434.223	7781.43
434.43	8338.48
434.637	8031.28
434.844	8453.16
435.052	8580.14
435.259	8498.22
435.466	8569.9
435.673	8666.15
435.88	9092.13
436.087	9460.76
436.294	9622.55
436.501	9344.03
436.708	9731.09
436.915	9968.66
437.122	10361.87
437.329	10193.94
437.537	10761.22
437.743	10783.75
437.95	10796.04
438.157	11414.52
438.364	11475.96
438.571	11672.57
438.778	11629.56
438.985	12553.2
439.192	12293.1
439.399	12817.38
439.606	12221.42
439.813	12942.31
440.02	13669.34
440.227	13753.3
440.433	13521.88
440.64	13904.85
440.847	13913.05
441.054	14255.06
441.261	14955.46
441.467	14883.78
441.674	15279.04
441.881	15748.03
442.088	15768.51
442.294	15891.38
442.501	15846.33
442.708	16204.72
442.914	16978.86
443.121	17685.4
443.328	16991.14
443.534	18379.67
443.741	17726.36
443.948	17701.79
444.154	19037.06
444.361	19073.93
444.568	19008.39
444.774	19131.27
444.981	19309.44
445.187	19747.71
445.394	20593.52
445.6	20167.54
445.807	22342.49
446.013	21214.05
446.22	21756.77
446.426	22569.81
446.633	22680.4
446.839	23640.9
447.046	22430.55
447.252	23731.01
447.459	24052.54
447.665	23475.01
447.871	24888.11
448.078	25750.31
448.284	24296.25
448.491	25283.37
448.697	26069.79
448.903	26608.4
449.11	26882.83
449.316	26223.39
449.522	26888.98
449.728	27493.13
449.935	27452.17
450.141	27452.17
450.347	28441.34
450.553	27491.08
450.76	27603.72
450.966	28910.32
451.172	28160.76
451.378	29125.36
451.584	28365.56
451.791	29106.93
451.997	29031.15
452.203	29225.71
452.409	29383.4
452.615	29352.68
452.821	28160.76
453.027	27611.91
453.233	29199.09
453.44	28181.24
453.646	28197.63
453.852	28648.18
454.058	29428.46
454.264	28136.19
454.47	28484.34
454.676	27955.97
454.882	29221.61
455.088	26463
455.294	26407.7
455.5	26962.7
455.705	27224.84
455.911	26374.94
456.117	25680.67
456.323	25426.73
456.529	24128.31
456.735	24967.98
456.941	24480.57
457.147	24165.18
457.352	23452.48
457.558	22999.88
457.764	23184.2
457.97	22768.46
458.176	22240.09
458.381	22471.51
458.587	21363.56
458.793	21396.32
458.999	19979.13
459.204	21576.55
459.41	20781.93
459.616	19305.35
459.821	19424.13
460.027	19377.03
460.233	19248
460.438	18328.47
460.644	18164.63
460.85	17376.16
461.055	17404.83
461.261	17288.1
461.466	15989.69
461.672	15416.26
461.878	16759.72
462.083	15424.45
462.289	15250.37
462.494	14914.5
462.7	14498.77
462.905	14035.92
463.111	14441.42
463.316	14316.5
463.522	13984.73
463.727	14371.79
463.932	14132.18
464.138	13806.55
464.343	14099.41
464.549	13861.85
464.754	14291.92
464.959	14109.65
465.165	14185.43
465.37	13620.19
465.575	13089.76
465.781	13573.08
465.986	13761.5
466.191	13102.05
466.397	12985.32
466.602	12483.56
466.807	12547.05
467.012	12903.4
467.218	12850.15
467.423	12532.72
467.628	12698.6
467.833	13145.06
468.038	12698.6
468.244	12342.25
468.449	12917.73
468.654	12280.82
468.859	12313.58
469.064	12332.01
469.269	11717.62
469.474	11938.8
469.679	12186.61
469.885	11781.11
470.09	11944.95
470.295	11645.94
470.5	11664.38
470.705	11439.1
470.91	11611.13
471.115	11125.76
471.32	11566.07
471.525	11271.17
471.73	11117.57
471.935	10748.93
472.139	10744.84
472.344	10871.81
472.549	10581
472.754	10628.1
472.959	10171.41
473.164	10218.51
473.369	9831.44
473.574	10361.87
473.778	10013.71
473.983	10181.65
474.188	10112.02
474.393	9692.18
474.598	9825.3
474.802	9970.71
475.007	9483.29
475.212	9552.92
475.417	9356.32
475.621	9415.71
475.826	9344.03
476.031	9163.81
476.235	8821.8
476.44	9040.93
476.645	8692.77
476.849	8825.89
477.054	8780.84
477.259	8707.11
477.463	8614.95
477.668	8379.43
477.872	8309.8
478.077	8545.32
478.282	8125.49
478.486	8080.43
478.691	8250.41
478.895	8256.56
479.1	7939.12
479.304	8102.96
479.509	7855.15
479.713	7836.72
479.918	7861.3
480.122	7918.64
480.326	7851.06
480.531	7658.55
480.735	7629.88
480.94	7773.24
481.144	7754.8
481.348	7466.04
481.553	7621.69
481.757	7466.04
481.961	7414.84
482.166	7779.38
482.37	7414.84
482.574	7478.33
482.778	7359.55
482.983	7664.69
483.187	7693.37
483.391	7451.7
483.595	7560.25
483.8	7613.49
484.004	7509.05
484.208	7496.76
484.412	7570.49
484.616	7482.42
484.821	7480.38
485.025	7287.87
485.229	7636.02
485.433	7388.22
485.637	7609.4
485.841	7343.16
486.045	7535.67
486.249	7513.14
486.453	7390.27
486.657	7400.51
486.861	7287.87
487.065	7296.06
487.269	7507
487.473	7580.73
487.677	7439.42
487.881	7666.74
488.085	7388.22
488.289	7576.63
488.493	7375.93
488.697	7633.97
488.901	7709.75
489.105	7535.67
489.309	7625.78
489.512	7476.28
489.716	7527.48
489.92	7560.25
490.124	7517.24
490.328	7642.17
490.531	7525.43
490.735	7799.86
490.939	7771.19
491.143	7580.73
491.346	7560.25
491.55	7750.71
491.754	7846.96
491.958	7828.53
492.161	7806
492.365	7998.51
492.569	7926.83
492.772	7922.74
492.976	7939.12
493.18	8094.77
493.383	8008.75
493.587	8201.26
493.79	8270.89
493.994	8045.62
494.197	8291.37
494.401	8203.31
494.605	8367.15
494.808	8463.4
495.012	8410.15
495.215	8602.66
495.419	8496.17
495.622	8887.33
495.825	8682.53
496.029	8748.07
496.232	8926.24
496.436	8973.35
496.639	9026.59
496.843	9161.76
497.046	9372.7
497.249	9434.14
497.453	9471
497.656	9427.99
497.859	9434.14
498.063	9630.74
498.266	9970.71
498.469	9892.88
498.673	10036.24
498.876	10112.02
499.079	10210.32
499.282	10243.09
499.485	10232.85
499.689	10662.92
499.892	10621.96
500.095	10675.21
500.298	10904.58
500.501	10877.96
500.705	11064.32
500.908	11213.82
501.111	11332.61
501.314	11531.26
501.517	11615.23
501.72	11754.49
501.923	11781.11
502.126	12116.98
502.329	12315.63
502.532	12319.73
502.735	12137.46
502.938	12458.99
503.141	12542.96
503.344	12688.36
503.547	12674.03
503.75	12893.16
503.953	13239.26
504.156	13235.17
504.359	13399.01
504.562	13482.97
504.765	13693.91
504.968	14056.4
505.17	14093.27
505.373	14113.75
505.576	14351.31
505.779	14590.92
505.982	14478.29
506.185	14975.94
506.387	15113.16
506.59	15328.19
506.793	15408.06
506.996	15385.54
507.198	15905.72
507.401	15852.47
507.604	16131
507.807	16280.5
508.009	16430
508.212	16788.39
508.415	16790.44
508.617	17066.92
508.82	16855.98
509.022	17281.95
509.225	17712.03
509.428	17548.19
509.63	17775.52
509.833	17681.31
510.035	18568.08
510.238	18267.03
510.44	18465.68
510.643	18858.89
510.845	19057.54
511.048	18858.89
511.25	18961.29
511.453	19393.41
511.655	20114.3
511.858	19716.99
512.06	20120.44
512.262	20376.44
512.465	20415.35
512.667	20759.41
512.87	20990.83
513.072	20915.05
513.274	21425
513.477	21652.32
513.679	21838.69
513.881	22166.36
514.084	22098.78
514.286	22334.29
514.488	22432.6
514.69	23307.08
514.893	22610.77
515.095	23323.46
515.297	23640.9
515.499	23655.23
515.701	24140.6
515.904	24017.72
516.106	24435.51
516.308	24759.09
516.51	24730.42
516.712	24818.48
516.914	24851.25
517.116	25762.59
517.318	26073.88
517.52	26278.68
517.722	25994.01
517.925	26489.62
518.127	26995.47
518.329	26876.69
518.531	26966.8
518.733	27939.58
518.935	27632.39
519.136	27656.96
519.338	28224.25
519.54	28435.19
519.742	28539.64
519.944	29143.79
520.146	29065.97
520.348	29381.35
520.55	29334.25
520.752	29258.48
520.954	30061.28
521.155	30462.68
521.357	30540.5
521.559	30769.88
521.761	31275.73
521.963	30773.97
522.164	31470.28
522.366	31699.65
522.568	31736.52
522.77	31668.94
522.971	32547.51
523.173	32164.54
523.375	32529.08
523.576	32500.41
523.778	32287.42
523.98	33182.38
524.181	33372.85
524.383	33321.65
524.584	33907.37
524.786	33858.21
524.988	33397.42
525.189	34017.96
525.391	33843.88
525.592	34753.18
525.794	34523.8
525.995	34763.42
526.197	34525.85
526.398	34896.53
526.6	35447.44
526.801	35285.65
527.003	35521.16
527.204	35089.04
527.406	35805.83
527.607	35521.16
527.808	36129.41
528.01	35476.11
528.211	35973.77
528.412	36305.54
528.614	36323.97
528.815	36080.26
529.016	36846.2
529.218	36209.28
529.419	36573.82
529.62	36989.56
529.822	36831.86
530.023	36850.3
530.224	36772.47
530.425	36588.16
530.626	36600.44
530.828	36676.22
531.029	37515.89
531.23	36913.78
531.431	36737.66
531.632	37229.17
531.833	37145.2
532.035	37145.2
532.236	37325.43
532.437	37538.41
532.638	37132.92
532.839	37407.34
533.04	37706.35
533.241	37020.28
533.442	37937.77
533.643	37829.23
533.844	37675.63
534.045	38187.62
534.246	37323.38
534.447	37653.1
534.648	37546.61
534.849	37599.85
535.05	37317.23
535.251	37751.4
535.451	37655.15
535.652	37878.38
535.853	37614.19
536.054	37747.31
536.255	37837.42
536.456	37397.1
536.657	38204
536.857	37655.15
537.058	37524.08
537.259	37835.37
537.46	38158.95
537.66	37745.26
537.861	37585.52
538.062	37630.57
538.263	38066.79
538.463	37845.61
538.664	37861.99
538.865	37952.1
539.065	37546.61
539.266	37462.64
539.466	37739.11
539.667	37575.28
539.868	37792.36
540.068	37458.54
540.269	37460.59
540.469	37833.32
540.67	37245.55
540.87	37786.22
541.071	37661.29
541.271	37798.51
541.472	37894.76
541.672	37352.05
541.873	37452.4
542.073	37325.43
542.274	38101.61
542.474	37388.91
542.675	37608.04
542.875	38093.41
543.075	37591.66
543.276	37419.63
543.476	37833.32
543.676	37315.19
543.877	38042.21
544.077	37642.86
544.277	37581.42
544.478	37331.57
544.678	37753.45
544.878	37548.65
545.078	37343.86
545.279	37345.9
545.479	37442.16
545.679	37636.72
545.879	37468.78
546.079	37569.13
546.28	37517.93
546.48	37286.51
546.68	37728.87
546.88	37481.07
547.08	37517.93
547.28	37470.83
547.48	37196.4
547.68	37710.44
547.88	37186.16
548.081	37436.02
548.281	37255.79
548.481	37450.35
548.681	37827.18
548.881	37702.25
549.081	37583.47
549.28	37239.41
549.48	37829.23
549.68	37010.04
549.88	37753.45
550.08	37083.76
550.28	37259.89
550.48	37595.76
550.68	37591.66
550.88	37612.14
551.08	37511.79
551.279	37501.55
551.479	36971.13
551.679	37390.96
551.879	37292.66
552.079	37397.1
552.278	36944.5
552.478	37243.51
552.678	37446.26
552.878	37272.18
553.077	37343.86
553.277	36743.8
553.477	37591.66
553.676	37081.72
553.876	37327.47
554.076	36838.01
554.275	36878.97
554.475	37130.87
554.674	37024.37
554.874	37157.49
555.074	36614.78
555.273	37214.83
555.473	37464.69
555.672	36749.95
555.872	37122.68
556.071	36971.13
556.271	37161.59
556.47	36696.7
556.67	36672.12
556.869	36739.71
557.068	37028.47
557.268	36586.11
557.467	36653.69
557.667	36516.48
557.866	36977.27
558.065	36579.96
558.265	36487.81
558.464	36186.75
558.663	36432.51
558.863	35850.89
559.062	37071.48
559.261	36172.42
559.461	36463.23
559.66	35891.85
559.859	36522.62
560.058	36096.64
560.258	36244.1
560.457	36115.08
560.656	36283.01
560.855	35928.71
561.054	36037.25
561.253	36004.49
561.453	35750.54
561.652	35902.09
561.851	36082.31
562.05	35529.36
562.249	35621.52
562.448	35703.43
562.647	36078.21
562.846	35543.69
563.045	35773.06
563.244	35017.36
563.443	35445.39
563.642	35332.75
563.841	35439.25
564.04	34622.11
564.239	35416.72
564.438	34970.26
564.637	35166.87
564.836	35312.27
565.035	34671.26
565.234	35060.37
565.432	34914.97
565.631	34734.74
565.83	35023.51
566.029	34943.64
566.228	34914.97
566.427	34513.56
566.625	34779.8
566.824	34118.31
567.023	34828.95
567.222	34171.55
567.42	34515.61
567.619	34384.54
567.818	34036.39
568.016	34050.72
568.215	34175.65
568.414	34259.62
568.612	34519.71
568.811	33833.64
569.01	33723.05
569.208	33704.62
569.407	33817.25
569.605	33075.89
569.804	33651.37
570.002	33036.98
570.201	33880.74
570.4	33237.68
570.598	33200.82
570.797	33180.34
570.995	33059.51
571.193	32791.22
571.392	32993.97
571.59	32922.29
571.789	32983.73
571.987	32510.65
572.186	32633.53
572.384	32754.36
572.582	32688.82
572.781	32543.42
572.979	32277.18
573.177	32320.19
573.376	32053.95
573.574	31984.32
573.772	32002.75
573.971	32008.9
574.169	31632.07
574.367	31388.36
574.565	31988.42
574.763	32062.15
574.962	31552.2
575.16	31210.19
575.358	31730.37
575.556	31199.95
575.754	31658.7
575.952	30958.29
576.151	31183.57
576.349	30946
576.547	31193.81
576.745	30921.43
576.943	30907.09
577.141	30567.13
577.339	30999.25
577.537	30454.49
577.735	30753.49
577.933	30434.01
578.131	30214.88
578.329	29977.31
578.527	30397.15
578.725	30337.76
578.923	29846.24
579.121	29919.97
579.319	29530.86
579.516	29743.84
579.714	29643.49
579.912	29473.51
580.11	29473.51
580.308	29729.51
580.506	29924.07
580.704	29285.1
580.901	29496.04
581.099	29586.15
581.297	28814.07
581.495	29047.54
581.692	29606.63
581.89	28584.69
582.088	29407.98
582.285	28953.33
582.483	28836.59
582.681	28558.07
582.878	28404.47
583.076	28193.53
583.274	28568.31
583.471	28193.53
583.669	28433.14
583.866	28195.58
584.064	28306.17
584.262	28144.38
584.459	28306.17
584.657	28072.7
584.854	27833.09
585.052	27251.47
585.249	27990.78
585.447	27587.33
585.644	27077.39
585.841	27370.25
586.039	27689.73
586.236	26778.39
586.434	27089.68
586.631	27116.3
586.828	27040.53
587.026	27200.27
587.223	27237.13
587.42	26712.85
587.618	26905.36
587.815	26716.95
588.012	26618.64
588.21	26403.61
588.407	26512.15
588.604	26489.62
588.801	26407.7
588.999	26268.44
589.196	26374.94
589.393	26039.07
589.59	26200.86
589.787	25766.69
589.984	25946.91
590.182	25787.17
590.379	26051.36
590.576	25637.67
590.773	26098.46
590.97	25467.69
591.167	25647.91
591.364	25289.51
591.561	25492.26
591.758	25031.47
591.955	25062.19
592.152	25410.34
592.349	25244.46
592.546	25133.87
592.743	25238.31
592.94	24648.5
593.137	24945.45
593.334	25021.23
593.531	24435.51
593.727	24556.34
593.924	24632.11
594.121	24527.67
594.318	24732.47
594.515	24396.6
594.712	24347.45
594.908	24230.71
595.105	24206.14
595.302	24091.45
595.499	24288.06
595.696	24009.53
595.892	23835.45
596.089	23751.49
596.286	23776.06
596.482	23630.66
596.679	23661.38
596.876	23878.46
597.072	23470.92
597.269	23694.15
597.466	23089.99
597.662	23264.07
597.859	23208.78
598.055	23323.46
598.252	23143.24
598.448	22965.07
598.645	22907.73
598.841	23026.51
599.038	23014.22
599.234	23046.99
599.431	22561.62
599.627	22719.31
599.824	22707.02
600.02	22465.36
600.217	22766.42
600.413	22438.74
600.609	22385.49
600.806	21947.23
601.002	22375.25
601.198	22027.1
601.395	22037.34
601.591	22043.48
601.787	21908.32
601.984	21640.03
602.18	22090.59
602.376	21724
602.572	21468
602.769	21703.52
602.965	21232.49
603.161	21554.02
603.357	21359.46
603.553	21298.02
603.75	21085.03
603.946	20886.38
604.142	21195.62
604.338	20628.34
604.534	21074.79
604.73	20585.33
604.926	21023.59
605.122	20908.91
605.318	20538.23
605.514	20493.17
605.71	20691.82
605.906	20507.51
606.102	20255.61
606.298	20530.03
606.494	20271.99
606.69	20218.74
606.886	20128.63
607.082	20005.75
607.278	20153.21
607.474	19831.68
607.67	19864.44
607.866	19637.12
608.062	20362.1
608.257	19991.42
608.453	19882.88
608.649	20095.86
608.845	19739.52
609.041	19559.3
609.236	19809.15
609.432	19700.61
609.628	19532.67
609.824	19348.36
610.019	19286.92
610.215	19680.13
610.411	19565.44
610.606	19235.72
610.802	19209.09
610.998	18981.77
611.193	19121.03
611.389	19084.17
611.584	19186.57
611.78	18809.74
611.976	18944.91
612.171	19028.87
612.367	18772.88
612.562	18912.14
612.758	18426.77
612.953	18688.91
613.149	18682.77
613.344	18639.76
613.539	18893.71
613.735	18695.05
613.93	19016.58
614.126	18416.53
614.321	18520.98
614.517	18281.36
614.712	18428.82
614.907	18185.11
615.103	18232.21
615.298	18174.87
615.493	18316.18
615.688	18152.34
615.884	18281.36
616.079	17965.98
616.274	18099.09
616.47	17980.31
616.665	17802.14
616.86	18008.98
617.055	18140.05
617.25	17632.16
617.445	17808.28
617.641	17486.75
617.836	17793.95
618.031	17488.8
618.226	17449.89
618.421	17376.16
618.616	17552.29
618.811	17388.45
619.006	17597.34
619.201	16966.57
619.396	17337.25
619.591	16905.13
619.786	17091.49
619.981	16925.61
620.176	17034.15
620.371	16944.04
620.566	16485.3
620.761	16876.46
620.956	16667.56
621.151	16247.73
621.346	16784.3
621.541	16159.67
621.735	16174
621.93	16141.24
622.125	16343.99
622.32	15924.15
622.515	16190.39
622.709	15944.63
622.904	16069.56
623.099	15750.07
623.294	15940.54
623.488	15516.61
623.683	15731.64
623.878	15422.4
624.072	15408.06
624.267	15567.81
624.462	15475.65
624.656	15129.54
624.851	14926.79
625.046	15098.82
625.24	14789.58
625.435	14693.32
625.629	14638.03
625.824	14326.74
626.018	14750.67
626.213	14500.81
626.407	14234.58
626.602	14224.34
626.796	14347.22
626.991	14287.82
627.185	14080.98
627.38	14037.97
627.574	14058.45
627.768	13994.97
627.963	14003.16
628.157	13759.45
628.352	13728.73
628.546	13493.21
628.74	13853.66
628.935	13474.78
629.129	13554.65
629.323	13126.63
629.517	13106.15
629.712	13175.78
629.906	13231.07
630.1	12878.82
630.294	13196.26
630.489	12778.47
630.683	13005.8
630.877	12483.56
631.071	12895.21
631.265	12778.47
631.459	12524.52
631.653	12555.24
631.848	12622.83
632.042	12360.69
632.236	12547.05
632.43	12237.81
632.624	12286.96
632.818	12155.89
633.012	11936.76
633.206	12108.79
633.4	11994.1
633.594	11738.1
633.788	11795.45
633.982	11903.99
634.176	11670.52
634.369	11803.64
634.563	11338.75
634.757	11572.22
634.951	11691
635.145	11439.1
635.339	11523.07
635.533	11164.67
635.726	11447.29
635.92	11273.21
636.114	11326.46
636.308	11029.51
636.501	11090.95
636.695	10945.54
636.889	10896.39
637.083	10839.05
637.276	10595.34
637.47	10712.07
637.664	10605.58
637.857	10689.54
638.051	10630.15
638.244	10599.43
638.438	10531.85
638.632	10388.49
638.825	10310.67
639.019	10267.66
639.212	10214.41
639.406	9982.99
639.599	10302.48
639.793	10159.12
639.986	10097.68
640.18	9968.66
640.373	9788.44
640.567	9802.77
640.76	9921.56
640.954	9735.19
641.147	9776.15
641.34	9567.26
641.534	9735.19
641.727	9475.1
641.92	9591.83
642.114	9544.73
642.307	9268.25
642.5	9331.74
642.694	9071.65
642.887	9323.55
643.08	9370.65
643.273	9110.56
643.467	9198.62
643.66	9131.04
643.853	8764.45
644.046	8983.59
644.239	8870.95
644.432	8674.34
644.626	8584.23
644.819	8655.91
645.012	8576.04
645.205	8713.25
645.398	8543.27
645.591	8500.26
645.784	8547.37
645.977	8404.01
646.17	8270.89
646.363	8209.45
646.556	8231.98
646.749	8412.2
646.942	8254.51
647.135	8080.43
647.328	8049.71
647.521	8076.34
647.714	7881.78
647.907	8078.38
648.099	7914.55
648.292	7883.83
648.485	7767.09
648.678	7668.79
648.871	7875.63
649.064	7765.04
649.256	7734.32
649.449	7509.05
649.642	7728.18
649.835	7459.9
650.027	7572.54
650.22	7509.05
650.413	7257.15
650.605	7455.8
650.798	7160.89
650.991	7191.61
651.183	7332.92
651.376	7027.78
651.568	7334.97
651.761	7060.54
651.954	7138.37
652.146	7044.16
652.339	7068.73
652.531	7060.54
652.724	6935.62
652.916	6880.32
653.109	6863.94
653.301	6732.87
653.494	6722.63
653.686	6675.52
653.879	6847.55
654.071	6685.76
654.263	6595.65
654.456	6593.61
654.648	6519.88
654.84	6403.14
655.033	6487.11
655.225	6437.96
655.417	6198.35
655.61	6376.52
655.802	6413.38
655.994	6321.23
656.186	6374.47
656.379	6233.16
656.571	6247.5
656.763	6196.3
656.955	6079.57
657.148	6155.34
657.34	5977.17
657.532	6011.98
657.724	5893.2
657.916	5956.69
658.108	5893.2
658.3	5909.58
658.492	5817.43
658.684	5989.46
658.876	5629.01
659.068	5657.68
659.26	5649.49
659.452	5659.73
659.644	5762.13
659.836	5575.77
660.028	5626.96
660.22	5489.75
660.412	5520.47
660.604	5555.29
660.796	5401.69
660.988	5393.5
661.18	5401.69
661.372	5405.78
661.563	5260.38
661.755	5342.3
661.947	5266.52
662.139	5413.98
662.331	5143.64
662.522	5139.55
662.714	5084.25
662.906	4979.81
663.097	5006.43
663.289	5018.72
663.481	4996.19
663.673	5063.77
663.864	5053.53
664.056	5012.57
664.247	5131.36
664.439	4787.3
664.631	4928.61
664.822	4928.61
665.014	4971.61
665.205	4779.11
665.397	4689
665.588	4856.93
665.78	4658.28
665.971	4705.38
666.163	4736.1
666.354	4727.91
666.546	4648.04
666.737	4471.91
666.929	4660.32
667.12	4588.64
667.311	4535.4
667.503	4455.53
667.694	4363.37
667.885	4406.38
668.077	4504.68
668.268	4277.35
668.459	4373.61
668.651	4426.86
668.842	4166.76
669.033	4244.59
669.224	4146.28
669.416	4222.06
669.607	4299.88
669.798	4197.48
669.989	4238.44
670.18	4088.94
670.371	4070.51
670.563	4131.95
670.754	4187.24
670.945	4072.56
671.136	4023.41
671.327	4031.6
671.518	3966.06
671.709	4052.08
671.9	3927.15
672.091	3994.73
672.282	3904.62
672.473	3906.67
672.664	3912.81
672.855	3976.3
673.046	3810.42
673.237	3802.22
673.428	3810.42
673.619	3847.28
673.809	3728.5
674	3843.18
674.191	3834.99
674.382	3873.9
674.573	3712.11
674.764	3828.85
674.954	3712.11
675.145	3634.29
675.336	3748.98
675.527	3693.68
675.717	3669.11
675.908	3699.83
676.099	3564.66
676.289	3597.43
676.48	3609.72
676.671	3497.08
676.861	3505.27
677.052	3482.74
677.243	3421.3
677.433	3396.73
677.624	3404.92
677.814	3384.44
678.005	3499.13
678.195	3353.72
678.386	3472.5
678.576	3259.51
678.767	3337.34
678.957	3236.99
679.148	3355.77
679.338	3308.66
679.529	3271.8
679.719	3353.72
679.909	3417.21
680.1	3316.86
680.29	3185.79
680.481	3222.65
680.671	3306.62
680.861	3206.27
681.052	3257.46
681.242	3218.55
681.432	3136.63
681.622	3202.17
681.813	3177.59
682.003	3075.2
682.193	3163.26
682.383	3044.48
682.573	3161.21
682.764	3101.82
682.954	2989.18
683.144	3136.63
683.334	3048.57
683.524	3097.72
683.714	3165.31
683.904	3083.39
684.094	3054.72
684.284	3087.48
684.474	3136.63
684.664	3021.95
684.854	3112.06
685.044	2989.18
685.234	3085.44
685.424	2958.46
685.614	2933.89
685.804	3009.66
685.994	2974.85
686.184	2958.46
686.374	3030.14
686.564	2833.54
686.753	2948.22
686.943	2884.73
687.133	2905.21
687.323	2917.5
687.513	2931.84
687.702	2808.96
687.892	2833.54
688.082	2698.37
688.272	2868.35
688.461	2741.38
688.651	2911.36
688.841	2833.54
689.03	2747.52
689.22	2866.3
689.41	2731.14
689.599	2655.36
689.789	2858.11
689.979	2737.28
690.168	2778.24
690.358	2684.03
690.547	2735.23
690.737	2825.34
690.926	2626.69
691.116	2694.27
691.305	2806.91
691.495	2565.25
691.684	2653.31
691.874	2694.27
692.063	2782.34
692.252	2679.94
692.442	2702.47
692.631	2667.65
692.82	2675.84
693.01	2731.14
693.199	2663.55
693.388	2604.16
693.578	2581.64
693.767	2819.2
693.956	2575.49
694.146	2632.83
694.335	2589.83
694.524	2628.74
694.713	2548.87
694.902	2608.26
695.092	2634.88
695.281	2512
695.47	2577.54
695.659	2665.6
695.848	2536.58
696.037	2626.69
696.226	2573.44
696.415	2600.07
696.604	2608.26
696.793	2688.13
696.982	2616.45
697.171	2538.63
697.36	2499.72
697.549	2538.63
697.738	2462.85
697.927	2409.61
698.116	2557.06
698.305	2469
698.494	2499.72
698.683	2497.67
698.872	2538.63
699.061	2595.97
699.25	2544.77
699.438	2415.75
699.627	2454.66
699.816	2442.37
700.005	2405.51
700.193	2378.89
700.382	2460.81
700.571	2368.65
700.76	2387.08
700.948	2563.2
701.137	2356.36
701.326	2440.33
701.514	2536.58
701.703	2479.24
701.892	2399.37
702.08	2460.81
702.269	2403.46
702.457	2374.79
702.646	2448.52
702.834	2450.57
703.023	2391.17
703.212	2229.38
703.4	2362.5
703.589	2411.65
703.777	2380.93
703.965	2362.5
704.154	2337.93
704.342	2391.17
704.531	2417.8
704.719	2190.47
704.907	2280.58
705.096	2241.67
705.284	2354.31
705.472	2223.24
705.661	2301.06
705.849	2184.33
706.037	2266.25
706.226	2229.38
706.414	2239.62
706.602	2174.09
706.79	2235.53
706.979	2247.82
707.167	2260.1
707.355	2157.71
707.543	2161.8
707.731	2217.1
707.919	2243.72
708.107	2112.65
708.296	2178.19
708.484	2149.51
708.672	2137.23
708.86	2114.7
709.048	2247.82
709.236	2196.62
709.424	2073.74
709.612	2104.46
709.8	2145.42
709.988	2112.65
710.176	2108.55
710.364	2073.74
710.551	2112.65
710.739	2006.16
710.927	2022.54
711.115	2114.7
711.303	2016.4
711.491	2153.61
711.679	1950.86
711.866	2045.07
712.054	1981.58
712.242	1930.38
712.43	1936.53
712.617	1940.62
712.805	1954.96
712.993	1965.2
713.181	1957
713.368	1957
713.556	1916.05
713.744	1883.28
713.931	2026.64
714.119	1893.52
714.306	1854.61
714.494	1940.62
714.682	1957
714.869	1836.17
715.057	1864.85
715.244	1797.26
715.432	1866.89
715.619	1879.18
715.807	1821.84
715.994	1983.63
716.182	1784.98
716.369	1793.17
716.556	1774.74
716.744	1860.75
716.931	1787.02
717.119	1864.85
717.306	1858.7
717.493	1768.59
717.681	1821.84
717.868	1668.24
718.055	1819.79
718.242	1717.39
718.43	1811.6
718.617	1735.82
718.804	1793.17
718.991	1739.92
719.179	1770.64
719.366	1721.49
719.553	1782.93
719.74	1698.96
719.927	1621.14
720.114	1717.39
720.301	1647.76
720.488	1596.56
720.676	1596.56
720.863	1670.29
721.05	1686.67
721.237	1617.04
721.424	1621.14
721.611	1596.56
721.798	1594.51
721.985	1549.46
722.172	1590.42
722.358	1625.23
722.545	1571.99
722.732	1590.42
722.919	1625.23
723.106	1557.65
723.293	1604.75
723.48	1563.79
723.667	1526.93
723.853	1471.64
724.04	1451.16
724.227	1580.18
724.414	1574.03
724.6	1516.69
724.787	1543.32
724.974	1473.68
725.161	1545.36
725.347	1543.32
725.534	1547.41
725.72	1434.77
725.907	1391.77
726.094	1522.84
726.28	1428.63
726.467	1453.2
726.653	1391.77
726.84	1426.58
727.027	1481.88
727.213	1469.59
727.4	1416.34
727.586	1336.47
727.773	1424.53
727.959	1453.2
728.145	1416.34
728.332	1455.25
728.518	1354.9
728.705	1385.62
728.891	1420.44
729.077	1381.53
729.264	1320.09
729.45	1385.62
729.636	1485.97
729.823	1320.09
730.009	1334.42
730.195	1404.05
730.382	1320.09
730.568	1285.27
730.754	1229.98
730.94	1279.13
731.126	1258.65
731.313	1326.23
731.499	1248.41
731.685	1307.8
731.871	1309.85
732.057	1369.24
732.243	1367.19
732.429	1264.79
732.615	1283.22
732.801	1285.27
732.987	1297.56
733.173	1293.46
733.359	1205.4
733.545	1270.94
733.731	1178.78
733.917	1203.35
734.103	1291.41
734.289	1256.6
734.475	1334.42
734.661	1207.45
734.847	1258.65
735.033	1244.31
735.219	1223.83
735.404	1238.17
735.59	1115.29
735.776	1258.65
735.962	1205.4
736.148	1217.69
736.333	1180.82
736.519	1254.55
736.705	1133.72
736.89	1242.26
737.076	1113.24
737.262	1059.99
737.447	1162.39
737.633	1115.29
737.819	1105.05
738.004	1137.82
738.19	1166.49
738.375	1227.93
738.561	1154.2
738.747	1205.4
738.932	1027.23
739.118	1100.95
739.303	1160.34
739.489	1158.3
739.674	1010.84
739.859	1152.15
740.045	1115.29
740.23	1039.51
740.416	990.36
740.601	1107.1
740.786	1037.47
740.972	998.56
741.157	1033.37
741.342	930.97
741.528	1012.89
741.713	1016.99
741.898	1043.61
742.084	951.45
742.269	1070.23
742.454	1053.85
742.639	1066.14
742.824	1012.89
743.01	920.73
743.195	1025.18
743.38	996.51
743.565	1051.8
743.75	994.46
743.935	961.69
744.12	912.54
744.305	943.26
744.49	1031.32
744.675	982.17
744.86	953.5
745.045	924.83
745.23	914.59
745.415	973.98
745.6	1016.99
745.785	1000.6
745.97	908.44
746.155	935.07
746.34	965.79
746.525	935.07
746.71	926.88
746.895	877.73
747.079	881.82
747.264	849.05
747.449	918.68
747.634	834.72
747.819	924.83
748.003	787.61
748.188	900.25
748.373	836.77
748.557	926.88
748.742	861.34
748.927	779.42
749.111	779.42
749.296	836.77
749.481	808.09
749.665	806.05
749.85	769.18
750.034	908.44
750.219	801.95
750.404	830.62
750.588	795.81
750.773	789.66
750.957	767.13
751.141	785.57
751.326	754.85
751.51	775.33
751.695	801.95
751.879	797.85
752.064	730.27
752.248	685.22
752.432	631.97
752.617	724.13
752.801	760.99
752.985	742.56
753.17	705.7
753.354	752.8
753.538	797.85
753.722	711.84
753.907	709.79
754.091	650.4
754.275	687.26
754.459	701.6
754.643	695.46
754.828	605.35
755.012	699.55
755.196	654.5
755.38	611.49
755.564	636.06
755.748	668.83
755.932	720.03
756.116	629.92
756.3	625.83
756.484	625.83
756.668	631.97
756.852	699.55
757.036	601.25
757.22	558.24
757.404	648.35
757.588	574.63
757.772	648.35
757.956	605.35
758.14	613.54
758.323	535.71
758.507	597.15
758.691	597.15
758.875	543.91
759.059	556.19
759.242	599.2
759.426	591.01
759.61	572.58
759.794	613.54
759.977	560.29
760.161	615.59
760.345	611.49
760.528	566.43
760.712	591.01
760.895	588.96
761.079	552.1
761.263	515.23
761.446	543.91
761.63	527.52
761.813	478.37
761.997	603.3
762.18	539.81
762.364	576.67
762.547	550.05
762.731	621.73
762.914	597.15
763.098	490.66
763.281	492.71
763.464	548
763.648	433.32
763.831	517.28
764.015	490.66
764.198	533.67
764.381	480.42
764.564	488.61
764.748	507.04
764.931	509.09
765.114	488.61
765.297	486.56
765.481	502.95
765.664	482.47
765.847	535.71
766.03	548
766.213	396.45
766.397	529.57
766.58	484.52
766.763	545.95
766.946	421.03
767.129	525.47
767.312	425.12
767.495	490.66
767.678	355.49
767.861	500.9
768.044	597.15
768.227	494.76
768.41	476.32
768.593	480.42
768.776	507.04
768.959	326.82
769.142	486.56
769.324	443.56
769.507	441.51
769.69	574.63
769.873	472.23
770.056	486.56
770.239	500.9
770.421	357.54
770.604	435.36
770.787	441.51
770.97	455.84
771.152	400.55
771.335	421.03
771.518	464.04
771.7	378.02
771.883	468.13
772.066	412.84
772.248	392.36
772.431	390.31
772.613	396.45
772.796	406.69
772.978	412.84
773.161	394.4
773.343	427.17
773.526	406.69
773.708	476.32
773.891	429.22
774.073	412.84
774.256	459.94
774.438	429.22
774.621	343.21
774.803	398.5
774.985	337.06
775.168	408.74
775.35	451.75
775.532	371.88
775.715	341.16
775.897	402.6
776.079	390.31
776.261	474.28
776.444	330.92
776.626	390.31
776.808	408.74
776.99	410.79
777.173	380.07
777.355	337.06
777.537	359.59
777.719	345.25
777.901	367.78
778.083	373.92
778.265	353.45
778.447	363.69
778.629	330.92
778.811	408.74
778.993	257.19
779.175	466.08
779.357	369.83
779.539	273.57
779.721	318.63
779.903	375.97
780.085	318.63
780.267	339.11
780.449	343.21
780.631	408.74
780.812	392.36
780.994	312.49
781.176	296.1
781.358	269.48
781.54	345.25
781.721	302.25
781.903	216.23
782.085	345.25
782.267	285.86
782.448	228.52
782.63	277.67
782.812	371.88
782.993	335.01
783.175	386.21
783.357	316.58
783.538	287.91
783.72	326.82
783.901	294.05
784.083	308.39
784.264	253.09
784.446	267.43
784.627	283.81
784.809	285.86
784.99	267.43
785.172	195.75
785.353	294.05
785.535	263.33
785.716	306.34
785.897	214.18
786.079	230.57
786.26	236.71
786.441	162.98
786.623	181.42
786.804	214.18
786.985	253.09
787.167	236.71
787.348	230.57
787.529	265.38
787.71	273.57
787.891	212.14
788.073	240.81
788.254	191.66
788.435	279.72
788.616	195.75
788.797	240.81
788.978	171.18
789.159	228.52
789.34	257.19
789.522	212.14
789.703	228.52
789.884	228.52
790.065	201.9
790.246	173.22
790.427	224.42
790.607	232.62
790.788	197.8
790.969	199.85
791.15	212.14
791.331	148.65
791.512	240.81
791.693	218.28
791.874	234.66
792.054	181.42
792.235	181.42
792.416	134.31
792.597	173.22
792.778	224.42
792.958	236.71
793.139	236.71
793.32	148.65
793.5	181.42
793.681	244.9
793.862	167.08
794.042	212.14
794.223	177.32
794.404	242.85
794.584	162.98
794.765	87.21
794.945	167.08
795.126	122.02
795.306	140.46
795.487	154.79
795.667	146.6
795.848	156.84
796.028	128.17
796.209	154.79
796.389	101.55
796.57	183.46
796.75	107.69
796.93	128.17
797.111	107.69
797.291	179.37
797.471	189.61
797.652	122.02
797.832	134.31
798.012	146.6
798.192	167.08
798.373	119.98
798.553	138.41
798.733	115.88
798.913	126.12
799.093	162.98
799.274	205.99
799.454	101.55
799.634	70.83
799.814	187.56
799.994	189.61
800.174	181.42
800.354	66.73
800.534	74.92
800.714	171.18
800.894	146.6
801.074	70.83
801.254	136.36
801.434	205.99
801.614	79.02
801.794	103.59
801.974	335.01
802.154	124.07
802.334	162.98
802.514	109.74
802.693	89.26
802.873	122.02
803.053	146.6
803.233	144.55
803.413	130.22
803.592	105.64
803.772	146.6
803.952	97.45
804.131	21.67
804.311	99.5
804.491	89.26
804.67	95.4
804.85	136.36
805.03	85.16
805.209	72.87
805.389	95.4
805.568	60.59
805.748	87.21
805.928	154.79
806.107	177.32
806.287	134.31
806.466	97.45
806.646	162.98
806.825	44.2
807.004	81.07
807.184	117.93
807.363	97.45
807.543	76.97
807.722	50.35
807.901	50.35
808.081	212.14
808.26	89.26
808.439	95.4
808.619	130.22
808.798	167.08
808.977	111.78
809.156	113.83
809.336	42.15
809.515	87.21
809.694	95.4
809.873	199.85
810.052	107.69
810.231	56.49
810.411	115.88
810.59	7.34
810.769	44.2
810.948	138.41
811.127	64.68
811.306	89.26
811.485	99.5
811.664	81.07
811.843	70.83
812.022	9.39
812.201	105.64
812.38	27.82
812.559	33.96
812.737	93.35
812.916	54.44
813.095	117.93
813.274	70.83
813.453	107.69
813.632	105.64
813.811	130.22
813.989	115.88
814.168	79.02
814.347	124.07
814.526	60.59
814.704	21.67
814.883	36.01
815.062	124.07
815.24	31.91
815.419	124.07
815.598	56.49
815.776	87.21
815.955	122.02
816.133	97.45
816.312	99.5
816.49	81.07
816.669	119.98
816.847	64.68
817.026	23.72
817.204	154.79
817.383	89.26
817.561	87.21
817.74	19.63
817.918	107.69
818.097	44.2
818.275	66.73
818.453	27.82
818.632	83.11
818.81	60.59
818.988	58.54
819.167	83.11
819.345	81.07
819.523	62.63
819.701	85.16
819.879	91.31
820.058	36.01
820.236	128.17
820.414	70.83
820.592	105.64
820.77	60.59
820.948	9.39
821.127	76.97
821.305	31.91
821.483	52.39
821.661	103.59
821.839	85.16
822.017	-41.81
822.195	48.3
822.373	148.65
822.551	54.44
822.729	17.58
822.907	15.53
823.085	38.06
823.262	31.91
823.44	40.11
823.618	46.25
823.796	97.45
823.974	64.68
824.152	93.35
824.329	13.48
824.507	72.87
824.685	103.59
824.863	-4.95
825.04	95.4
825.218	68.78
825.396	29.87
825.574	60.59
825.751	60.59
825.929	60.59
826.107	3.24
826.284	93.35
826.462	50.35
826.639	50.35
826.817	-15.19
826.994	-15.19
827.172	-25.43
827.349	56.49
827.527	93.35
827.704	1.19
827.882	31.91
828.059	1.19
828.237	70.83
828.414	19.63
828.591	19.63
828.769	68.78
828.946	-9.05
829.124	93.35
829.301	23.72
829.478	33.96
829.655	33.96
829.833	101.55
830.01	11.43
830.187	50.35
830.364	7.34
830.542	60.59
830.719	89.26
830.896	64.68
831.073	23.72
831.25	76.97
831.427	89.26
831.604	5.29
831.782	-31.57
831.959	36.01
832.136	72.87
832.313	27.82
832.49	25.77
832.667	99.5
832.844	-31.57
833.021	93.35
833.198	46.25
833.374	33.96
833.551	-13.14
833.728	-11.09
833.905	85.16
834.082	72.87
834.259	-13.14
834.436	56.49
834.612	1.19
834.789	85.16
834.966	-37.72
835.143	40.11
835.319	50.35
835.496	33.96
835.673	-0.85
835.85	87.21
836.026	79.02
836.203	27.82
836.38	107.69
836.556	76.97
836.733	64.68
836.909	3.24
837.086	-9.05
837.262	105.64
837.439	93.35
837.616	52.39
837.792	44.2
837.968	83.11
838.145	54.44
838.321	54.44
838.498	38.06
838.674	15.53
838.851	-11.09
839.027	50.35
839.203	33.96
839.38	17.58
839.556	40.11
839.732	-19.29
839.909	40.11
840.085	95.4
840.261	54.44
840.437	81.07
840.614	-9.05
840.79	70.83
840.966	25.77
841.142	9.39
841.318	-7
841.494	50.35
841.671	15.53
841.847	40.11
842.023	15.53
842.199	97.45
842.375	40.11
842.551	72.87
842.727	42.15
842.903	17.58
843.079	68.78
843.255	64.68
843.431	29.87
843.607	105.64
843.783	42.15
843.959	31.91
844.134	56.49
844.31	44.2
844.486	-64.34
844.662	7.34
844.838	62.63
845.013	-33.62
845.189	-19.29
845.365	99.5
845.541	19.63
845.716	56.49
845.892	101.55
846.068	48.3
846.244	25.77
846.419	56.49
846.595	68.78
846.77	60.59
846.946	-7
847.122	13.48
847.297	56.49
847.473	31.91
847.648	50.35
847.824	36.01
847.999	11.43
848.175	58.54
848.35	-4.95
848.526	64.68
848.701	70.83
848.876	76.97
849.052	-7
849.227	93.35
849.403	-11.09
849.578	27.82
849.753	1.19
849.929	66.73
850.104	36.01
850.279	36.01
850.454	64.68
850.63	1.19
850.805	70.83
850.98	40.11
851.155	42.15
851.33	11.43
851.505	46.25
851.681	11.43
851.856	11.43
852.031	-2.9
852.206	66.73
852.381	13.48
852.556	70.83
852.731	-4.95
852.906	68.78
853.081	27.82
853.256	-58.2
853.431	13.48
853.606	-23.38
853.781	76.97
853.956	-25.43
854.131	1.19
854.305	-33.62
854.48	-72.53
854.655	27.82
854.83	11.43
855.005	56.49
855.18	66.73
855.354	23.72
855.529	42.15
855.704	76.97
855.879	56.49
856.053	81.07
856.228	-25.43
856.403	19.63
856.577	-15.19
856.752	15.53
856.926	44.2
857.101	46.25
857.276	-0.85
857.45	-35.67
857.625	25.77
857.799	38.06
857.974	29.87
858.148	1.19
858.323	9.39
858.497	13.48
858.672	5.29
858.846	-13.14
859.02	56.49
859.195	-31.57
859.369	52.39
859.543	31.91
859.718	11.43
859.892	-33.62
860.066	42.15
860.241	7.34
860.415	15.53
860.589	9.39
860.763	-21.33
860.938	40.11
861.112	-41.81
861.286	79.02
861.46	17.58
861.634	60.59
861.808	-15.19
861.982	-9.05
862.157	-9.05
862.331	-21.33
862.505	83.11
862.679	1.19
862.853	1.19
863.027	-9.05
863.201	-15.19
863.375	54.44
863.549	-33.62
863.722	-0.85
863.896	60.59
864.07	-0.85
864.244	15.53
864.418	-64.34
864.592	13.48
864.766	-23.38
864.939	42.15
865.113	-4.95
865.287	17.58
865.461	19.63
865.634	42.15
865.808	-37.72
865.982	48.3
866.156	-13.14
866.329	-2.9
866.503	89.26
866.676	15.53
866.85	-35.67
867.024	5.29
867.197	-7
867.371	31.91
867.544	-13.14
867.718	-15.19
867.891	-13.14
868.065	-23.38
868.238	38.06
868.412	99.5
868.585	-60.24
868.759	38.06
868.932	13.48
869.105	-0.85
869.279	89.26
869.452	44.2
869.625	7.34
869.799	25.77
869.972	-11.09
870.145	74.92
870.319	19.63
870.492	25.77
870.665	1.19
870.838	31.91
871.011	-25.43
871.185	9.39
871.358	-15.19
871.531	-11.09
871.704	13.48
871.877	-13.14
872.05	25.77
872.223	64.68
872.396	-4.95
872.569	56.49
872.742	40.11
872.915	13.48
873.088	5.29
873.261	-41.81
873.434	7.34
873.607	17.58
873.78	15.53
873.953	-23.38
874.126	15.53
874.299	-17.24
874.471	-19.29
874.644	25.77
874.817	-33.62
874.99	-7
875.163	-41.81
875.335	38.06
875.508	58.54
875.681	48.3
875.853	-17.24
876.026	29.87
876.199	-52.05
876.371	-41.81
876.544	23.72
876.717	-27.48
876.889	-23.38
877.062	-9.05
877.234	5.29
877.407	-29.52
877.579	1.19
877.752	23.72
877.924	-4.95
878.097	27.82
878.269	-29.52
878.442	-17.24
878.614	11.43
878.786	13.48
878.959	-17.24
879.131	31.91
879.303	-76.63
879.476	52.39
879.648	11.43
879.82	1.19
879.993	-50
880.165	-80.72
880.337	-23.38
880.509	11.43
880.681	68.78
880.854	3.24
881.026	9.39
881.198	87.21
881.37	56.49
881.542	7.34
881.714	-35.67
881.886	-2.9
882.058	42.15
882.23	50.35
882.402	58.54
882.574	7.34
882.746	-19.29
882.918	9.39
883.09	15.53
883.262	29.87
883.434	5.29
883.606	-41.81
883.778	-119.64
883.95	-11.09
884.122	-4.95
884.293	81.07
884.465	9.39
884.637	-19.29
884.809	19.63
884.98	33.96
885.152	9.39
885.324	-2.9
885.496	9.39
885.667	-27.48
885.839	-0.85
886.011	-74.58
886.182	31.91
886.354	101.55
886.525	13.48
886.697	27.82
886.869	5.29
887.04	-9.05
887.212	64.68
887.383	33.96
887.555	-41.81
887.726	-41.81
887.897	-2.9
888.069	23.72
888.24	23.72
888.412	-50
888.583	1.19
888.754	9.39
888.926	-9.05
889.097	-29.52
889.268	46.25
889.44	-21.33
889.611	9.39
889.782	-45.91
889.953	-2.9
890.125	42.15
890.296	-50
890.467	31.91
890.638	58.54
890.809	-39.76
890.98	36.01
891.151	7.34
891.323	15.53
891.494	25.77
891.665	27.82
891.836	42.15
892.007	25.77
892.178	1.19
892.349	33.96
892.52	-39.76
892.691	-7
892.862	38.06
893.032	5.29
893.203	15.53
893.374	-15.19
893.545	23.72
893.716	27.82
893.887	-33.62
894.057	72.87
894.228	42.15
894.399	-17.24
894.57	-19.29
894.74	-2.9
894.911	27.82
895.082	3.24
895.253	72.87
895.423	-19.29
895.594	-7
895.764	9.39
895.935	-4.95
896.106	7.34
896.276	13.48
896.447	-21.33
896.617	-15.19
896.788	-39.76
896.958	17.58
897.129	-17.24
897.299	-15.19
897.47	50.35
897.64	-9.05
897.81	-21.33
897.981	38.06
898.151	21.67
898.322	-25.43
898.492	15.53
898.662	-37.72
898.832	31.91
899.003	101.55
899.173	13.48
899.343	25.77
899.513	54.44
