Data from USB4F104151__211__14-00-01-304.txt Node

Date: Thu Mar 13 14:00:01 EDT 2025
User: louis
Spectrometer: USB4F10415
Trigger mode: 4
Integration Time (sec): 1.000000E-2
Scans to average: 1
Electric dark correction enabled: true
Nonlinearity correction enabled: false
Boxcar width: 0
XAxis mode: Wavelengths
Number of Pixels in Spectrum: 3648
>>>>>Begin Spectral Data<<<<<
178.204	-40.45
178.424	-40.45
178.644	-40.45
178.864	-69.12
179.084	-56.83
179.304	4.61
179.524	-83.45
179.744	10.75
179.964	66.05
180.184	-24.06
180.404	16.9
180.624	20.99
180.844	29.18
181.064	-11.78
181.283	18.94
181.503	-1.54
181.723	-46.59
181.943	39.42
182.163	-7.68
182.383	-24.06
182.602	-13.82
182.822	33.28
183.042	-15.87
183.262	-15.87
183.482	-1.54
183.701	70.14
183.921	55.81
184.141	-65.02
184.361	90.62
184.58	-22.02
184.8	-32.26
185.02	-11.78
185.239	-40.45
185.459	49.66
185.679	35.33
185.898	-28.16
186.118	66.05
186.338	-7.68
186.557	49.66
186.777	16.9
186.997	35.33
187.216	-11.78
187.436	0.51
187.655	10.75
187.875	41.47
188.095	-71.17
188.314	37.38
188.534	10.75
188.753	2.56
188.973	-42.5
189.192	78.33
189.412	27.14
189.631	51.71
189.851	55.81
190.07	33.28
190.29	49.66
190.509	25.09
190.729	-3.58
190.948	29.18
191.168	76.29
191.387	27.14
191.607	61.95
191.826	2.56
192.045	47.62
192.265	23.04
192.484	14.85
192.704	78.33
192.923	-9.73
193.142	35.33
193.362	43.52
193.581	-38.4
193.8	8.7
194.02	16.9
194.239	47.62
194.458	16.9
194.678	64
194.897	72.19
195.116	86.53
195.335	0.51
195.555	49.66
195.774	8.7
195.993	-34.3
196.212	6.66
196.432	0.51
196.651	14.85
196.87	-7.68
197.089	33.28
197.308	45.57
197.528	33.28
197.747	35.33
197.966	45.57
198.185	33.28
198.404	-58.88
198.623	23.04
198.842	33.28
199.062	0.51
199.281	35.33
199.5	-60.93
199.719	74.24
199.938	-13.82
200.157	6.66
200.376	47.62
200.595	29.18
200.814	-3.58
201.033	70.14
201.252	25.09
201.471	66.05
201.69	43.52
201.909	59.9
202.128	-11.78
202.347	2.56
202.566	-28.16
202.785	12.8
203.004	-7.68
203.223	100.86
203.442	55.81
203.661	37.38
203.879	12.8
204.098	74.24
204.317	18.94
204.536	-15.87
204.755	-40.45
204.974	76.29
205.193	8.7
205.411	10.75
205.63	59.9
205.849	10.75
206.068	-32.26
206.287	-9.73
206.505	-15.87
206.724	33.28
206.943	29.18
207.162	12.8
207.381	4.61
207.599	57.86
207.818	61.95
208.037	2.56
208.255	12.8
208.474	-40.45
208.693	31.23
208.911	16.9
209.13	37.38
209.349	0.51
209.567	18.94
209.786	27.14
210.005	29.18
210.223	12.8
210.442	6.66
210.661	-3.58
210.879	25.09
211.098	-38.4
211.316	-13.82
211.535	82.43
211.753	2.56
211.972	45.57
212.191	37.38
212.409	2.56
212.628	-34.3
212.846	-60.93
213.065	-50.69
213.283	68.09
213.502	20.99
213.72	-42.5
213.938	39.42
214.157	-9.73
214.375	-30.21
214.594	35.33
214.812	-32.26
215.031	-9.73
215.249	66.05
215.467	8.7
215.686	-5.63
215.904	-7.68
216.122	-9.73
216.341	25.09
216.559	78.33
216.778	14.85
216.996	33.28
217.214	25.09
217.432	12.8
217.651	98.81
217.869	-30.21
218.087	8.7
218.306	8.7
218.524	41.47
218.742	-7.68
218.96	-38.4
219.179	-34.3
219.397	41.47
219.615	16.9
219.833	-13.82
220.051	82.43
220.27	-52.74
220.488	51.71
220.706	-7.68
220.924	8.7
221.142	-7.68
221.36	-56.83
221.578	-40.45
221.796	4.61
222.015	53.76
222.233	25.09
222.451	51.71
222.669	-62.98
222.887	35.33
223.105	-83.45
223.323	43.52
223.541	-13.82
223.759	-11.78
223.977	16.9
224.195	84.48
224.413	-9.73
224.631	18.94
224.849	0.51
225.067	104.96
225.285	2.56
225.503	-5.63
225.721	61.95
225.939	16.9
226.157	0.51
226.375	51.71
226.592	-24.06
226.81	23.04
227.028	37.38
227.246	25.09
227.464	20.99
227.682	51.71
227.9	43.52
228.117	33.28
228.335	-9.73
228.553	82.43
228.771	8.7
228.989	-7.68
229.206	8.7
229.424	39.42
229.642	53.76
229.86	-13.82
230.077	2.56
230.295	41.47
230.513	41.47
230.731	-7.68
230.948	-13.82
231.166	-15.87
231.384	-24.06
231.601	25.09
231.819	39.42
232.037	-36.35
232.254	33.28
232.472	47.62
232.689	16.9
232.907	10.75
233.125	-34.3
233.342	57.86
233.56	-36.35
233.777	29.18
233.995	18.94
234.213	57.86
234.43	-1.54
234.648	37.38
234.865	-42.5
235.083	29.18
235.3	-1.54
235.518	6.66
235.735	-5.63
235.953	10.75
236.17	25.09
236.388	70.14
236.605	-7.68
236.822	74.24
237.04	14.85
237.257	29.18
237.475	66.05
237.692	4.61
237.909	2.56
238.127	45.57
238.344	-19.97
238.562	18.94
238.779	18.94
238.996	35.33
239.214	-32.26
239.431	-24.06
239.648	-48.64
239.865	135.68
240.083	-17.92
240.3	33.28
240.517	-17.92
240.735	-30.21
240.952	2.56
241.169	41.47
241.386	14.85
241.603	43.52
241.821	2.56
242.038	55.81
242.255	-5.63
242.472	-30.21
242.689	41.47
242.907	-19.97
243.124	0.51
243.341	25.09
243.558	-1.54
243.775	-116.22
243.992	10.75
244.209	55.81
244.426	10.75
244.643	84.48
244.86	33.28
245.078	2.56
245.295	41.47
245.512	16.9
245.729	82.43
245.946	-11.78
246.163	61.95
246.38	41.47
246.597	31.23
246.814	35.33
247.031	31.23
247.248	55.81
247.464	33.28
247.681	-9.73
247.898	-54.78
248.115	86.53
248.332	-42.5
248.549	45.57
248.766	-1.54
248.983	76.29
249.2	27.14
249.417	88.57
249.633	-73.21
249.85	27.14
250.067	23.04
250.284	25.09
250.501	2.56
250.717	23.04
250.934	-40.45
251.151	-5.63
251.368	-22.02
251.585	14.85
251.801	35.33
252.018	70.14
252.235	74.24
252.451	-19.97
252.668	-17.92
252.885	18.94
253.102	76.29
253.318	-17.92
253.535	-46.59
253.752	37.38
253.968	-3.58
254.185	29.18
254.401	51.71
254.618	25.09
254.835	14.85
255.051	-11.78
255.268	-15.87
255.484	-30.21
255.701	-24.06
255.917	74.24
256.134	-3.58
256.351	8.7
256.567	8.7
256.784	33.28
257	96.77
257.217	41.47
257.433	2.56
257.65	14.85
257.866	-42.5
258.082	-13.82
258.299	31.23
258.515	45.57
258.732	-62.98
258.948	41.47
259.165	37.38
259.381	72.19
259.597	78.33
259.814	92.67
260.03	0.51
260.246	6.66
260.463	12.8
260.679	53.76
260.895	53.76
261.112	61.95
261.328	115.2
261.544	27.14
261.761	43.52
261.977	23.04
262.193	29.18
262.409	-24.06
262.626	-22.02
262.842	-7.68
263.058	23.04
263.274	55.81
263.49	-7.68
263.707	25.09
263.923	-3.58
264.139	51.71
264.355	-24.06
264.571	2.56
264.787	-15.87
265.004	35.33
265.22	74.24
265.436	25.09
265.652	45.57
265.868	70.14
266.084	-19.97
266.3	45.57
266.516	29.18
266.732	76.29
266.948	27.14
267.164	2.56
267.38	-54.78
267.596	-3.58
267.812	-28.16
268.028	-32.26
268.244	-32.26
268.46	33.28
268.676	74.24
268.892	-28.16
269.108	66.05
269.324	8.7
269.54	16.9
269.756	57.86
269.972	-28.16
270.188	35.33
270.403	0.51
270.619	-56.83
270.835	76.29
271.051	35.33
271.267	-50.69
271.483	64
271.698	10.75
271.914	29.18
272.13	-5.63
272.346	53.76
272.562	72.19
272.777	37.38
272.993	-44.54
273.209	49.66
273.425	53.76
273.64	-15.87
273.856	43.52
274.072	100.86
274.287	14.85
274.503	12.8
274.719	18.94
274.934	10.75
275.15	-79.36
275.366	27.14
275.581	-48.64
275.797	31.23
276.012	47.62
276.228	-32.26
276.444	53.76
276.659	90.62
276.875	29.18
277.09	16.9
277.306	-19.97
277.521	25.09
277.737	131.58
277.952	59.9
278.168	-11.78
278.383	27.14
278.599	16.9
278.814	76.29
279.03	-3.58
279.245	27.14
279.461	45.57
279.676	68.09
279.892	-17.92
280.107	61.95
280.322	0.51
280.538	59.9
280.753	49.66
280.969	66.05
281.184	14.85
281.399	57.86
281.615	74.24
281.83	-19.97
282.045	14.85
282.26	49.66
282.476	-3.58
282.691	-24.06
282.906	59.9
283.122	31.23
283.337	-30.21
283.552	66.05
283.767	123.39
283.983	41.47
284.198	-11.78
284.413	43.52
284.628	10.75
284.843	45.57
285.058	82.43
285.274	45.57
285.489	16.9
285.704	43.52
285.919	53.76
286.134	39.42
286.349	33.28
286.564	31.23
286.779	-19.97
286.995	0.51
287.21	39.42
287.425	53.76
287.64	61.95
287.855	61.95
288.07	59.9
288.285	-40.45
288.5	16.9
288.715	37.38
288.93	-15.87
289.145	-15.87
289.36	-13.82
289.575	-15.87
289.79	-19.97
290.004	-30.21
290.219	-22.02
290.434	43.52
290.649	16.9
290.864	59.9
291.079	16.9
291.294	12.8
291.509	-65.02
291.724	84.48
291.938	-73.21
292.153	4.61
292.368	2.56
292.583	74.24
292.798	45.57
293.012	0.51
293.227	-58.88
293.442	49.66
293.657	4.61
293.871	88.57
294.086	-24.06
294.301	72.19
294.516	-38.4
294.73	59.9
294.945	57.86
295.16	72.19
295.374	57.86
295.589	35.33
295.804	8.7
296.018	-9.73
296.233	37.38
296.447	70.14
296.662	78.33
296.877	78.33
297.091	80.38
297.306	115.2
297.52	66.05
297.735	107.01
297.949	2.56
298.164	43.52
298.378	16.9
298.593	-30.21
298.807	-24.06
299.022	8.7
299.236	12.8
299.451	72.19
299.665	-5.63
299.88	-22.02
300.094	37.38
300.309	12.8
300.523	-38.4
300.737	-34.3
300.952	-71.17
301.166	45.57
301.381	43.52
301.595	-32.26
301.809	45.57
302.024	-5.63
302.238	14.85
302.452	16.9
302.667	4.61
302.881	47.62
303.095	-13.82
303.309	53.76
303.524	66.05
303.738	14.85
303.952	-28.16
304.166	31.23
304.381	-11.78
304.595	72.19
304.809	-3.58
305.023	96.77
305.237	-38.4
305.452	4.61
305.666	14.85
305.88	39.42
306.094	16.9
306.308	31.23
306.522	43.52
306.736	2.56
306.95	45.57
307.164	33.28
307.379	-7.68
307.593	70.14
307.807	80.38
308.021	49.66
308.235	-44.54
308.449	16.9
308.663	37.38
308.877	16.9
309.091	78.33
309.305	4.61
309.519	18.94
309.733	41.47
309.947	2.56
310.161	-13.82
310.374	41.47
310.588	-13.82
310.802	25.09
311.016	10.75
311.23	31.23
311.444	-15.87
311.658	78.33
311.872	66.05
312.085	70.14
312.299	-17.92
312.513	53.76
312.727	29.18
312.941	-13.82
313.154	16.9
313.368	12.8
313.582	-11.78
313.796	43.52
314.009	70.14
314.223	43.52
314.437	-42.5
314.651	37.38
314.864	39.42
315.078	41.47
315.292	20.99
315.505	45.57
315.719	-11.78
315.933	2.56
316.146	16.9
316.36	33.28
316.573	6.66
316.787	70.14
317.001	29.18
317.214	10.75
317.428	18.94
317.641	6.66
317.855	92.67
318.068	68.09
318.282	90.62
318.495	49.66
318.709	-50.69
318.922	27.14
319.136	59.9
319.349	57.86
319.563	31.23
319.776	47.62
319.99	16.9
320.203	27.14
320.417	-22.02
320.63	57.86
320.843	55.81
321.057	-5.63
321.27	20.99
321.483	12.8
321.697	100.86
321.91	100.86
322.124	14.85
322.337	-5.63
322.55	49.66
322.763	78.33
322.977	-13.82
323.19	0.51
323.403	104.96
323.617	78.33
323.83	51.71
324.043	35.33
324.256	-40.45
324.469	-34.3
324.683	43.52
324.896	51.71
325.109	29.18
325.322	2.56
325.535	41.47
325.748	-1.54
325.962	0.51
326.175	0.51
326.388	90.62
326.601	-17.92
326.814	98.81
327.027	84.48
327.24	59.9
327.453	-34.3
327.666	33.28
327.879	100.86
328.092	20.99
328.305	47.62
328.518	37.38
328.731	43.52
328.944	35.33
329.157	-15.87
329.37	107.01
329.583	70.14
329.796	90.62
330.009	25.09
330.222	10.75
330.435	12.8
330.648	70.14
330.861	27.14
331.073	41.47
331.286	-24.06
331.499	14.85
331.712	27.14
331.925	72.19
332.138	45.57
332.35	94.72
332.563	57.86
332.776	45.57
332.989	12.8
333.202	70.14
333.414	18.94
333.627	37.38
333.84	25.09
334.053	-1.54
334.265	76.29
334.478	-13.82
334.691	49.66
334.903	29.18
335.116	45.57
335.329	-3.58
335.541	31.23
335.754	31.23
335.966	-9.73
336.179	90.62
336.392	78.33
336.604	8.7
336.817	53.76
337.029	12.8
337.242	25.09
337.454	41.47
337.667	-17.92
337.88	133.63
338.092	74.24
338.305	100.86
338.517	14.85
338.729	47.62
338.942	107.01
339.154	20.99
339.367	2.56
339.579	-1.54
339.792	-1.54
340.004	74.24
340.217	-13.82
340.429	76.29
340.641	41.47
340.854	117.25
341.066	0.51
341.278	59.9
341.491	90.62
341.703	90.62
341.915	66.05
342.128	123.39
342.34	47.62
342.552	-5.63
342.764	107.01
342.977	29.18
343.189	2.56
343.401	35.33
343.613	61.95
343.826	-52.74
344.038	2.56
344.25	82.43
344.462	68.09
344.674	-48.64
344.886	-1.54
345.099	25.09
345.311	102.91
345.523	33.28
345.735	8.7
345.947	-9.73
346.159	29.18
346.371	-36.35
346.583	29.18
346.795	86.53
347.007	39.42
347.219	33.28
347.431	47.62
347.643	70.14
347.855	0.51
348.067	12.8
348.279	-71.17
348.491	-1.54
348.703	20.99
348.915	-5.63
349.127	31.23
349.339	123.39
349.551	0.51
349.763	45.57
349.975	57.86
350.187	59.9
350.399	74.24
350.61	41.47
350.822	8.7
351.034	84.48
351.246	74.24
351.458	90.62
351.669	39.42
351.881	47.62
352.093	55.81
352.305	33.28
352.517	41.47
352.728	57.86
352.94	57.86
353.152	61.95
353.363	-17.92
353.575	37.38
353.787	-48.64
353.999	39.42
354.21	33.28
354.422	-30.21
354.633	76.29
354.845	39.42
355.057	43.52
355.268	43.52
355.48	90.62
355.692	37.38
355.903	18.94
356.115	-1.54
356.326	10.75
356.538	41.47
356.749	-26.11
356.961	70.14
357.172	-1.54
357.384	90.62
357.595	33.28
357.807	74.24
358.018	35.33
358.23	-40.45
358.441	-11.78
358.653	-19.97
358.864	0.51
359.075	-13.82
359.287	4.61
359.498	76.29
359.709	8.7
359.921	8.7
360.132	-36.35
360.344	27.14
360.555	23.04
360.766	61.95
360.977	16.9
361.189	18.94
361.4	6.66
361.611	104.96
361.823	33.28
362.034	59.9
362.245	-1.54
362.456	6.66
362.667	8.7
362.879	49.66
363.09	66.05
363.301	61.95
363.512	-1.54
363.723	90.62
363.935	2.56
364.146	18.94
364.357	66.05
364.568	57.86
364.779	45.57
364.99	84.48
365.201	29.18
365.412	84.48
365.623	-19.97
365.834	51.71
366.045	0.51
366.256	57.86
366.467	31.23
366.678	-30.21
366.889	29.18
367.1	37.38
367.311	-5.63
367.522	-3.58
367.733	47.62
367.944	27.14
368.155	55.81
368.366	20.99
368.577	55.81
368.788	88.57
368.999	47.62
369.209	92.67
369.42	33.28
369.631	80.38
369.842	51.71
370.053	33.28
370.264	82.43
370.474	80.38
370.685	39.42
370.896	18.94
371.107	90.62
371.317	31.23
371.528	57.86
371.739	96.77
371.95	0.51
372.16	55.81
372.371	41.47
372.582	86.53
372.792	18.94
373.003	27.14
373.214	0.51
373.424	64
373.635	27.14
373.846	104.96
374.056	-15.87
374.267	33.28
374.477	8.7
374.688	59.9
374.898	66.05
375.109	74.24
375.319	66.05
375.53	96.77
375.74	4.61
375.951	61.95
376.161	12.8
376.372	59.9
376.582	-36.35
376.793	84.48
377.003	-9.73
377.214	25.09
377.424	47.62
377.635	59.9
377.845	4.61
378.055	-22.02
378.266	-13.82
378.476	57.86
378.686	18.94
378.897	41.47
379.107	-9.73
379.317	18.94
379.528	8.7
379.738	35.33
379.948	-9.73
380.158	78.33
380.369	61.95
380.579	100.86
380.789	47.62
380.999	117.25
381.21	57.86
381.42	100.86
381.63	61.95
381.84	74.24
382.05	16.9
382.261	31.23
382.471	80.38
382.681	43.52
382.891	88.57
383.101	-7.68
383.311	47.62
383.521	25.09
383.731	72.19
383.941	82.43
384.151	80.38
384.361	94.72
384.571	-11.78
384.781	57.86
384.991	70.14
385.201	33.28
385.411	-44.54
385.621	115.2
385.831	61.95
386.041	-28.16
386.251	18.94
386.461	27.14
386.671	31.23
386.881	35.33
387.091	92.67
387.301	125.44
387.511	53.76
387.72	145.92
387.93	-19.97
388.14	53.76
388.35	-3.58
388.56	49.66
388.769	74.24
388.979	123.39
389.189	29.18
389.399	98.81
389.609	109.05
389.818	57.86
390.028	25.09
390.238	41.47
390.447	29.18
390.657	-32.26
390.867	27.14
391.076	86.53
391.286	14.85
391.496	49.66
391.705	41.47
391.915	94.72
392.125	74.24
392.334	68.09
392.544	-32.26
392.753	43.52
392.963	45.57
393.172	100.86
393.382	51.71
393.591	98.81
393.801	20.99
394.01	18.94
394.22	82.43
394.429	61.95
394.639	45.57
394.848	82.43
395.058	35.33
395.267	16.9
395.477	39.42
395.686	100.86
395.895	100.86
396.105	123.39
396.314	82.43
396.524	-5.63
396.733	0.51
396.942	51.71
397.152	59.9
397.361	88.57
397.57	102.91
397.78	61.95
397.989	66.05
398.198	53.76
398.407	199.16
398.617	96.77
398.826	117.25
399.035	90.62
399.244	74.24
399.453	88.57
399.663	80.38
399.872	33.28
400.081	45.57
400.29	96.77
400.499	92.67
400.708	147.97
400.917	53.76
401.127	59.9
401.336	37.38
401.545	131.58
401.754	160.25
401.963	174.59
402.172	43.52
402.381	172.54
402.59	104.96
402.799	82.43
403.008	119.29
403.217	107.01
403.426	92.67
403.635	51.71
403.844	115.2
404.053	143.87
404.262	96.77
404.471	98.81
404.68	176.64
404.888	68.09
405.097	92.67
405.306	131.58
405.515	156.16
405.724	186.88
405.933	209.4
406.142	115.2
406.35	133.63
406.559	109.05
406.768	154.11
406.977	186.88
407.185	104.96
407.394	121.34
407.603	147.97
407.812	217.6
408.02	250.36
408.229	229.88
408.438	201.21
408.646	152.06
408.855	145.92
409.064	186.88
409.272	242.17
409.481	289.28
409.69	236.03
409.898	178.69
410.107	289.28
410.315	270.84
410.524	272.89
410.733	283.13
410.941	246.27
411.15	279.04
411.358	248.32
411.567	379.39
411.775	279.04
411.984	340.47
412.192	410.11
412.401	418.3
412.609	350.71
412.818	449.02
413.026	389.63
413.234	401.91
413.443	408.06
413.651	389.63
413.86	483.83
414.068	578.04
414.276	522.74
414.485	578.04
414.693	504.31
414.901	594.42
415.11	586.23
415.318	631.29
415.526	563.7
415.734	643.57
415.943	686.58
416.151	690.68
416.359	725.49
416.567	688.63
416.776	752.12
416.984	825.84
417.192	836.08
417.4	872.95
417.608	844.28
417.817	920.05
418.025	823.8
418.233	971.25
418.441	948.72
418.649	973.3
418.857	1118.7
419.065	1075.7
419.273	1128.94
419.481	1182.19
419.689	1200.62
419.897	1352.17
420.105	1253.87
420.313	1317.36
420.521	1358.32
420.729	1382.89
420.937	1442.28
421.145	1380.84
421.353	1604.07
421.561	1698.28
421.769	1681.89
421.977	1800.68
422.185	1714.66
422.393	1802.72
422.601	1946.08
422.809	1896.93
423.017	1829.35
423.224	2003.43
423.432	2060.77
423.64	2140.64
423.848	2255.33
424.056	2210.27
424.263	2347.48
424.471	2288.09
424.679	2466.27
424.887	2613.72
425.094	2609.62
425.302	2583
425.51	2783.7
425.718	2818.52
425.925	2863.57
426.133	3051.99
426.341	2992.59
426.548	3178.96
426.756	3264.97
426.964	3250.64
427.171	3500.49
427.379	3609.03
427.586	3582.41
427.794	3789.25
428.001	3940.8
428.209	4032.96
428.417	4123.07
428.624	4215.23
428.832	4299.2
429.039	4180.42
429.247	4301.25
429.454	4723.13
429.662	4882.87
429.869	4792.76
430.076	5034.42
430.284	4829.62
430.491	5056.95
430.699	5349.81
430.906	5333.42
431.114	5294.51
431.321	5613.99
431.528	5675.43
431.736	6187.43
431.943	6396.32
432.15	6119.84
432.358	6185.38
432.565	6549.92
432.772	6441.37
432.979	6814.1
433.187	6951.32
433.394	7068.05
433.601	7584.14
433.808	7604.62
434.016	7588.24
434.223	7928.2
434.43	8329.6
434.637	8008.07
434.844	8610.17
435.052	8821.11
435.259	8872.31
435.466	8907.13
435.673	8626.56
435.88	9363.83
436.087	9916.78
436.294	9660.78
436.501	9458.03
436.708	9689.45
436.915	10090.85
437.122	10490.21
437.329	10381.67
437.537	10791.26
437.743	10942.81
437.95	10875.23
438.157	11419.99
438.364	11823.44
438.571	11698.51
438.778	12009.8
438.985	12945.72
439.192	12552.51
439.399	12855.61
439.606	12501.31
439.813	13246.77
440.02	14025
440.227	14068.01
440.433	13812.01
440.64	14125.35
440.847	13932.84
441.054	14588.19
441.261	15347.99
441.467	15188.25
441.674	15563.03
441.881	16097.55
442.088	15925.52
442.294	15876.37
442.501	16378.12
442.708	16617.73
442.914	17295.61
443.121	18012.4
443.328	17471.73
443.534	18608.36
443.741	18252.01
443.948	17975.53
444.154	19390.68
444.361	19339.48
444.568	19359.96
444.774	19220.7
444.981	19587.29
445.187	19960.02
445.394	21137.6
445.6	20613.32
445.807	22653.09
446.013	21551.29
446.22	22151.34
446.426	23007.39
446.633	23222.43
446.839	23732.37
447.046	22872.23
447.252	24017.04
447.459	24395.92
447.665	24139.92
447.871	25378.94
448.078	26247.28
448.284	24871.04
448.491	25632.89
448.697	26802.28
448.903	27084.9
449.11	27218.02
449.316	26769.51
449.522	27062.37
449.728	28084.31
449.935	28287.06
450.141	28409.93
450.347	28893.26
450.553	27744.34
450.76	28233.81
450.966	29296.7
451.172	28721.23
451.378	29401.15
451.584	29175.87
451.791	29863.99
451.997	29550.65
452.203	30212.15
452.409	30152.76
452.615	29872.18
452.821	28596.3
453.027	28362.83
453.233	29704.25
453.44	28874.82
453.646	29038.66
453.852	29474.88
454.058	29880.38
454.264	28762.19
454.47	29433.92
454.676	28713.03
454.882	29734.97
455.088	27107.43
455.294	27451.49
455.5	28049.49
455.705	28299.34
455.911	26933.35
456.117	26409.07
456.323	26382.45
456.529	24842.37
456.735	25925.75
456.941	25071.75
457.147	24705.16
457.352	23724.18
457.558	23990.42
457.764	24144.02
457.97	23269.53
458.176	22941.86
458.381	23019.68
458.587	21766.32
458.793	21557.43
458.999	20545.73
459.204	22286.51
459.41	21541.05
459.616	20000.97
459.821	20097.23
460.027	20009.17
460.233	19681.49
460.438	18761.95
460.644	19054.81
460.85	18122.99
461.055	17633.52
461.261	18106.6
461.466	16685.31
461.672	15917.33
461.878	17187.07
462.083	15950.09
462.289	15773.97
462.494	15757.58
462.7	14903.58
462.905	14508.32
463.111	14825.76
463.316	15124.76
463.522	14829.85
463.727	14872.86
463.932	14747.93
464.138	14563.62
464.343	14807.33
464.549	14237.99
464.754	14995.74
464.959	14635.3
465.165	14471.46
465.37	14008.62
465.575	13711.66
465.781	14231.85
465.986	14410.02
466.191	13672.75
466.397	13627.7
466.602	12900.67
466.807	13635.89
467.012	13302.07
467.218	13326.64
467.423	12923.19
467.628	13056.31
467.833	13881.64
468.038	13025.59
468.244	12843.32
468.449	13222.2
468.654	12761.41
468.859	12646.72
469.064	12949.82
469.269	12042.57
469.474	12525.89
469.679	12755.26
469.885	12323.14
470.09	12310.85
470.295	12235.08
470.5	12128.58
470.705	12101.96
470.91	11686.22
471.115	11520.34
471.32	11917.64
471.525	11667.79
471.73	11624.78
471.935	11497.81
472.139	11215.19
472.344	11270.48
472.549	11161.94
472.754	11186.52
472.959	10789.21
473.164	10565.98
473.369	10576.22
473.574	10791.26
473.778	10680.67
473.983	10809.69
474.188	10613.09
474.393	10150.25
474.598	10135.91
474.802	9916.78
475.007	10035.56
475.212	9830.76
475.417	9603.44
475.621	9691.5
475.826	9918.82
476.031	9470.32
476.235	9263.47
476.44	9339.25
476.645	9396.59
476.849	9251.19
477.054	9181.56
477.259	8778.11
477.463	9054.58
477.668	8929.66
477.872	8898.94
478.077	8706.43
478.282	8503.68
478.486	8626.56
478.691	8552.83
478.895	8487.29
479.1	8417.66
479.304	8438.14
479.509	8243.59
479.713	8454.53
479.918	8112.52
480.122	8036.74
480.326	8270.21
480.531	8028.55
480.735	8089.99
480.94	7899.53
481.144	7993.73
481.348	7803.27
481.553	7985.54
481.757	7616.91
481.961	7979.4
482.166	7870.86
482.37	7868.81
482.574	7782.79
482.778	7831.94
482.983	7938.44
483.187	7950.73
483.391	7844.23
483.595	7862.66
483.8	7766.41
484.004	7676.3
484.208	7817.61
484.412	7717.26
484.616	7657.87
484.821	7872.9
485.025	7758.22
485.229	7844.23
485.433	7700.87
485.637	7860.62
485.841	7612.81
486.045	7655.82
486.249	7715.21
486.453	7637.39
486.657	7893.38
486.861	7774.6
487.065	7528.85
487.269	7950.73
487.473	7735.69
487.677	7831.94
487.881	7877
488.085	7659.92
488.289	7877
488.493	7762.31
488.697	7956.87
488.901	8012.17
489.105	7840.14
489.309	8130.95
489.512	7840.14
489.716	7805.32
489.92	7983.49
490.124	8051.08
490.328	8163.72
490.531	8137.09
490.735	8003.97
490.939	8040.84
491.143	7893.38
491.346	8036.74
491.55	8112.52
491.754	8014.21
491.958	8147.33
492.161	8276.35
492.365	8298.88
492.569	8036.74
492.772	8292.74
492.976	8440.19
493.18	8315.27
493.383	8690.04
493.587	8692.09
493.79	8739.19
493.994	8640.89
494.197	8661.37
494.401	8982.9
494.605	8767.87
494.808	8958.33
495.012	9142.64
495.215	9109.88
495.419	9304.43
495.622	9144.69
495.825	9425.26
496.029	9109.88
496.232	9503.09
496.436	9343.35
496.639	9793.9
496.843	9650.54
497.046	9931.11
497.249	10146.15
497.453	10029.41
497.656	10164.58
497.859	10236.26
498.063	10266.98
498.266	10619.23
498.469	10537.31
498.673	10713.44
498.876	10922.33
499.079	10809.69
499.282	11135.32
499.485	11207
499.689	11245.91
499.892	11415.89
500.095	11596.11
500.298	11727.18
500.501	11503.95
500.705	12075.34
500.908	12147.01
501.111	12431.68
501.314	12419.39
501.517	12562.75
501.72	12960.06
501.923	12738.88
502.126	13078.84
502.329	13123.9
502.532	13478.19
502.735	13287.73
502.938	13887.79
503.141	13533.49
503.344	14125.35
503.547	14082.35
503.75	14217.51
503.953	14309.67
504.156	14846.24
504.359	14858.53
504.562	15067.42
504.765	15507.73
504.968	15440.15
505.17	15632.66
505.373	15739.15
505.576	16097.55
505.779	16343.3
505.982	16589.06
506.185	16836.86
506.387	16871.68
506.59	17017.08
506.793	17441.01
506.996	17363.19
507.198	17891.57
507.401	17815.79
507.604	18131.18
507.807	18258.15
508.009	18557.16
508.212	18774.24
508.415	19319
508.617	19155.16
508.82	19507.41
509.022	19699.92
509.225	19949.78
509.428	20248.78
509.63	20377.8
509.833	20717.76
510.035	21188.8
510.238	21162.17
510.44	21477.56
510.643	21708.98
510.845	21850.29
511.048	21911.73
511.25	22433.96
511.453	22309.04
511.655	23312.54
511.858	23183.52
512.06	23314.59
512.262	23619.74
512.465	23761.05
512.667	24535.18
512.87	24248.46
513.072	24682.63
513.274	24803.46
513.477	25596.03
513.679	25927.8
513.881	26366.06
514.084	25686.14
514.286	26503.28
514.488	26468.46
514.69	27359.33
514.893	27555.93
515.095	27746.39
515.297	28129.36
515.499	28074.07
515.701	28749.9
515.904	28987.46
516.106	29225.03
516.308	29546.56
516.51	30076.98
516.712	30017.59
516.914	30634.03
517.116	31152.16
517.318	31154.21
517.52	31244.32
517.722	31408.16
517.925	32288.79
518.127	32321.55
518.329	32757.77
518.531	32544.78
518.733	33280
518.935	33603.58
519.136	33937.4
519.338	34213.88
519.54	34510.83
519.742	34842.6
519.944	35033.07
520.146	35889.12
520.348	36061.15
520.55	35684.32
520.752	36321.24
520.954	36876.24
521.155	36491.22
521.357	37251.02
521.559	37756.86
521.761	38090.68
521.963	38352.82
522.164	38268.86
522.366	38248.38
522.568	39053.23
522.77	39260.07
522.971	39810.98
523.173	39745.44
523.375	40177.56
523.576	40003.49
523.778	40271.77
523.98	41176.97
524.181	41191.31
524.383	41342.86
524.584	41967.49
524.786	41729.92
524.988	41570.18
525.189	42217.34
525.391	42459
525.592	42821.49
525.794	43186.03
525.995	43165.55
526.197	42899.31
526.398	42995.57
526.6	43450.22
526.801	44064.61
527.003	44296.03
527.204	44162.91
527.406	44515.16
527.607	44199.77
527.808	44595.03
528.01	44265.31
528.211	44947.28
528.412	45338.44
528.614	45018.96
528.815	45387.6
529.016	45643.59
529.218	45367.12
529.419	45606.73
529.62	45967.17
529.822	45889.35
530.023	45901.64
530.224	46108.48
530.425	45954.88
530.626	45678.41
530.828	45365.07
531.029	46966.58
531.23	46102.34
531.431	46264.13
531.632	46825.27
531.833	46823.22
532.035	46516.03
532.236	46612.28
532.437	47224.62
532.638	46980.92
532.839	47058.74
533.04	47066.93
533.241	46290.75
533.442	47716.14
533.643	47220.53
533.844	47083.31
534.045	47306.54
534.246	46550.84
534.447	47363.89
534.648	46675.77
534.849	47537.96
535.05	47204.14
535.251	47499.05
535.451	47126.32
535.652	47361.84
535.853	47464.24
536.054	47734.57
536.255	47922.98
536.456	47126.32
536.657	47863.59
536.857	47609.64
537.058	47093.55
537.259	47961.89
537.46	47544.11
537.66	47494.96
537.861	47576.87
538.062	47716.14
538.263	47789.86
538.463	47398.7
538.664	47484.72
538.865	47591.21
539.065	47839.01
539.266	47015.73
539.466	47755.05
539.667	46870.32
539.868	47941.41
540.068	47789.86
540.269	47658.79
540.469	48058.15
540.67	47689.51
540.87	47621.93
541.071	47593.26
541.271	47558.44
541.472	47843.11
541.672	47757.1
541.873	47753
542.073	47011.63
542.274	48123.68
542.474	47050.55
542.675	47179.57
542.875	47836.97
543.075	47349.55
543.276	47017.78
543.476	47882.02
543.676	47341.36
543.877	47243.06
544.077	47169.33
544.277	47642.41
544.478	47300.4
544.678	47623.98
544.878	47378.22
545.078	47554.35
545.279	47439.66
545.479	47361.84
545.679	47554.35
545.879	47417.13
546.079	47404.84
546.28	47060.79
546.48	47214.38
546.68	47691.56
546.88	47365.93
547.08	47695.66
547.28	47294.25
547.48	46901.04
547.68	47605.55
547.88	47087.41
548.081	47437.61
548.281	47103.79
548.481	47370.03
548.681	47546.15
548.881	46946.1
549.081	47556.39
549.28	47261.49
549.48	47341.36
549.68	47249.2
549.88	47873.83
550.08	47208.24
550.28	47562.54
550.48	47085.36
550.68	47732.52
550.88	47185.71
551.08	46716.73
551.279	47042.35
551.479	47179.57
551.679	47468.33
551.879	47136.56
552.079	47566.63
552.278	46974.77
552.478	47322.93
552.678	47292.21
552.878	47476.52
553.077	47169.33
553.277	46937.91
553.477	47675.18
553.676	46952.24
553.876	46645.05
554.076	46702.39
554.275	46968.63
554.475	46425.92
554.674	47161.14
554.874	47296.3
555.074	46622.52
555.273	47140.66
555.473	47017.78
555.672	46610.23
555.872	46942
556.071	46921.52
556.271	47249.2
556.47	46821.17
556.67	46184.26
556.869	46229.31
557.068	46536.51
557.268	46075.71
557.467	46511.93
557.667	46425.92
557.866	46450.49
558.065	46102.34
558.265	46317.37
558.464	45741.89
558.663	46378.81
558.863	45504.33
559.062	46536.51
559.261	45821.76
559.461	46405.44
559.66	45418.31
559.859	45690.69
560.058	45422.41
560.258	45881.16
560.457	45418.31
560.656	45918.02
560.855	45494.09
561.054	45453.13
561.253	44932.95
561.453	45428.55
561.652	45387.6
561.851	45799.24
562.05	45264.72
562.249	44900.18
562.448	45627.21
562.647	45160.27
562.846	45371.21
563.045	44896.08
563.244	44742.49
563.443	44732.25
563.642	44298.08
563.841	44642.13
564.04	44539.74
564.239	44746.58
564.438	44152.67
564.637	44300.12
564.836	44699.48
565.035	44539.74
565.234	44490.59
565.432	44240.73
565.631	43675.49
565.83	44029.79
566.029	44121.95
566.228	43962.21
566.427	44011.36
566.625	43781.99
566.824	43286.38
567.023	43452.26
567.222	43267.95
567.42	44126.05
567.619	43661.16
567.818	43292.52
568.016	43392.87
568.215	43868
568.414	43401.07
568.612	43741.03
568.811	43020.14
569.01	43212.65
569.208	42309.5
569.407	43362.15
569.605	42727.28
569.804	43140.97
570.002	42657.65
570.201	42506.1
570.4	42217.34
570.598	42076.03
570.797	42375.03
570.995	42125.18
571.193	41656.2
571.392	42438.52
571.59	41629.57
571.789	41998.21
571.987	41719.68
572.186	41484.17
572.384	41256.84
572.582	41258.89
572.781	41254.79
572.979	41006.99
573.177	41357.19
573.376	41250.7
573.574	40390.55
573.772	40968.08
573.971	40703.89
574.169	40464.28
574.367	40222.62
574.565	40736.66
574.763	39765.92
574.962	40320.92
575.16	39913.37
575.358	40062.88
575.556	39829.41
575.754	39999.39
575.952	39884.7
576.151	40558.49
576.349	39100.33
576.547	39540.64
576.745	39567.27
576.943	39557.03
577.141	38811.57
577.339	38907.82
577.537	39145.39
577.735	39120.81
577.933	38883.25
578.131	38819.76
578.329	38275
578.527	38258.62
578.725	38123.45
578.923	38506.42
579.121	37920.7
579.319	37875.65
579.516	38010.81
579.714	38043.58
579.912	37484.48
580.11	38088.63
580.308	37662.66
580.506	37572.55
580.704	37019.6
580.901	37517.25
581.099	37253.06
581.297	37171.14
581.495	36730.83
581.692	36857.81
581.89	36435.92
582.088	36437.97
582.285	36587.47
582.483	36847.57
582.681	36505.55
582.878	36241.37
583.076	36124.63
583.274	36417.49
583.471	35616.74
583.669	35796.96
583.866	35645.41
584.064	35876.83
584.262	35287.01
584.459	36165.59
584.657	35344.36
584.854	35764.19
585.052	34856.94
585.249	35471.33
585.447	35004.39
585.644	34760.69
585.841	35203.05
586.039	35020.78
586.236	34566.13
586.434	34492.4
586.631	34430.96
586.828	34275.32
587.026	34193.4
587.223	34390
587.42	33759.23
587.618	34258.93
587.815	33947.64
588.012	33587.2
588.21	33466.37
588.407	33708.03
588.604	33460.23
588.801	33476.61
588.999	32964.62
589.196	33220.61
589.393	33265.67
589.59	32905.23
589.787	33048.58
589.984	32649.23
590.182	32540.69
590.379	32845.83
590.576	32452.62
590.773	32409.62
590.97	32503.82
591.167	32346.13
591.364	32309.27
591.561	32559.12
591.758	31832.09
591.955	31592.48
592.152	32083.99
592.349	31784.99
592.546	31795.23
592.743	31729.69
592.94	31139.88
593.137	31426.59
593.334	31481.89
593.531	31213.6
593.727	31553.57
593.924	31254.56
594.121	30742.57
594.318	30998.57
594.515	30677.04
594.712	31023.14
594.908	30853.16
595.105	30824.49
595.302	30294.07
595.499	30642.22
595.696	30085.17
595.892	30386.22
596.089	30490.67
596.286	30029.88
596.482	29958.2
596.679	30369.84
596.876	30064.69
597.072	29704.25
597.269	30122.04
597.466	29397.06
597.662	29823.03
597.859	29370.43
598.055	29698.11
598.252	29198.4
598.448	29304.9
598.645	29401.15
598.841	28751.95
599.038	29005.89
599.234	28993.61
599.431	28569.68
599.627	28981.32
599.824	28837.96
600.02	28549.2
600.217	28594.25
600.413	28282.96
600.609	28135.51
600.806	27902.04
601.002	28229.71
601.198	28194.9
601.395	27899.99
601.591	27768.92
601.787	27758.68
601.984	27617.37
602.18	28029.01
602.376	27353.18
602.572	27732.06
602.769	27553.88
602.965	27541.6
603.161	27533.4
603.357	27330.65
603.553	26527.85
603.75	26828.9
603.946	26470.51
604.142	26847.33
604.338	26404.97
604.534	26607.72
604.73	26247.28
604.926	26298.48
605.122	26357.87
605.318	26040.43
605.514	26189.94
605.71	26007.67
605.906	25968.76
606.102	26144.88
606.298	25866.36
606.494	25921.65
606.69	25897.08
606.886	25645.18
607.082	25419.9
607.278	25239.68
607.474	25213.06
607.67	25514.11
607.866	24965.25
608.062	25270.4
608.257	24928.39
608.453	25127.04
608.649	25086.08
608.845	24739.97
609.041	25034.88
609.236	24715.4
609.432	24676.49
609.628	24455.31
609.824	24641.67
610.019	24449.16
610.215	24350.86
610.411	24225.93
610.606	24082.58
610.802	24309.9
610.998	24219.79
611.193	23984.27
611.389	23783.57
611.584	23965.84
611.78	23537.82
611.976	23679.13
612.171	23640.22
612.367	23609.5
612.562	23607.45
612.758	23130.27
612.953	23445.66
613.149	23537.82
613.344	23273.63
613.539	23564.44
613.735	23154.85
613.93	22919.33
614.126	23025.82
614.321	23294.11
614.517	23058.59
614.712	22958.24
614.907	22433.96
615.103	23124.13
615.298	22616.23
615.493	22864.04
615.688	22429.87
615.884	22925.47
616.079	22405.29
616.274	22605.99
616.47	22261.93
616.665	22417.58
616.86	21893.3
617.055	22171.82
617.25	21954.74
617.445	22239.4
617.641	21518.52
617.836	22091.95
618.031	21741.75
618.226	21807.28
618.421	21532.86
618.616	21774.52
618.811	21348.54
619.006	21774.52
619.201	21098.69
619.396	21348.54
619.591	20973.76
619.786	21158.08
619.981	20566.21
620.176	21201.08
620.371	20852.93
620.566	20850.88
620.761	20562.12
620.956	20680.9
621.151	20130
621.346	20314.31
621.541	19992.78
621.735	20443.34
621.93	20037.84
622.125	19917.01
622.32	19749.07
622.515	19753.17
622.709	19452.12
622.904	19470.55
623.099	19337.43
623.294	19484.89
623.488	19230.94
623.683	19319
623.878	18884.83
624.072	19034.33
624.267	18688.23
624.462	18854.11
624.656	18546.92
624.851	18768.1
625.046	18299.11
625.24	18299.11
625.435	18223.34
625.629	18049.26
625.824	17953.01
626.018	18022.64
626.213	17570.04
626.407	17815.79
626.602	17637.62
626.796	17535.22
626.991	17432.82
627.185	17555.7
627.38	17383.67
627.574	17195.26
627.768	17015.04
627.963	16697.6
628.157	16886.01
628.352	16871.68
628.546	16720.13
628.74	16650.5
628.935	16279.82
629.129	16548.1
629.323	16431.37
629.517	16154.89
629.712	16156.94
629.906	16296.2
630.1	15974.67
630.294	16015.63
630.489	15880.46
630.683	15819.02
630.877	15718.67
631.071	15733.01
631.265	15749.39
631.459	15608.08
631.653	15370.52
631.848	15261.98
632.042	15282.45
632.236	15321.37
632.43	15190.3
632.624	14983.45
632.818	14993.69
633.012	14868.77
633.206	14885.15
633.4	14821.66
633.594	14399.78
633.788	14389.54
633.982	14571.81
634.176	14524.71
634.369	14391.59
634.563	14401.83
634.757	14162.22
634.951	14457.12
635.145	14125.35
635.339	13957.42
635.533	13787.44
635.726	13984.04
635.92	13709.61
636.114	13619.5
636.308	13756.72
636.501	13717.81
636.695	13736.24
636.889	13558.07
637.083	13386.04
637.276	13240.63
637.47	13353.27
637.664	13320.5
637.857	13087.03
638.051	13121.85
638.244	13056.31
638.438	12923.19
638.632	12650.81
638.825	12839.23
639.019	12904.76
639.212	12687.68
639.406	12622.14
639.599	12759.36
639.793	12611.9
639.986	12239.17
640.18	12353.86
640.373	12390.72
640.567	12003.66
640.76	12085.58
640.954	11966.79
641.147	12001.61
641.34	12095.82
641.534	11841.87
641.727	11741.52
641.92	11755.85
642.114	11622.73
642.307	11698.51
642.5	11825.48
642.694	11485.52
642.887	11522.38
643.08	11563.34
643.273	11260.24
643.467	11037.02
643.66	11053.4
643.853	11139.41
644.046	10776.92
644.239	10953.05
644.432	11039.06
644.626	10938.71
644.819	10887.51
645.012	10871.13
645.205	10756.44
645.398	10533.22
645.591	10512.74
645.784	10408.29
645.977	10367.33
646.17	10373.47
646.363	10242.4
646.556	10115.43
646.749	10187.11
646.942	10226.02
647.135	9935.21
647.328	10015.08
647.521	9957.74
647.714	9662.83
647.907	9767.27
648.099	9890.15
648.292	9771.37
648.485	9673.07
648.678	9595.25
648.871	9458.03
649.064	9455.98
649.256	9517.42
649.449	9271.67
649.642	9134.45
649.835	9195.89
650.027	9154.93
650.22	8952.18
650.413	8954.23
650.605	8812.92
650.798	8868.22
650.991	8774.01
651.183	8890.74
651.376	8749.43
651.568	8763.77
651.761	8614.27
651.954	8384.9
652.146	8688
652.339	8403.33
652.531	8298.88
652.724	8356.22
652.916	8198.53
653.109	8233.35
653.301	8401.28
653.494	8133
653.686	8139.14
653.879	8030.6
654.071	8020.36
654.263	7946.63
654.456	7840.14
654.648	7901.58
654.84	7842.18
655.033	7676.3
655.225	7797.13
655.417	7739.79
655.61	7754.12
655.802	7618.96
655.994	7532.94
656.186	7731.59
656.379	7524.75
656.571	7389.58
656.763	7317.9
656.955	7250.32
657.148	7281.04
657.34	7154.07
657.532	7072.15
657.724	6947.22
657.916	6918.55
658.108	6918.55
658.3	7066
658.492	6955.41
658.684	6816.15
658.876	6807.96
659.068	6709.66
659.26	6721.95
659.452	6658.46
659.644	6533.53
659.836	6576.54
660.028	6576.54
660.22	6316.45
660.412	6414.75
660.604	6140.32
660.796	6404.51
660.988	6377.89
661.18	6123.94
661.372	6093.22
661.563	5941.67
661.755	6046.12
661.947	6074.79
662.139	5865.89
662.331	5910.95
662.522	6029.73
662.714	5906.85
662.906	5646.76
663.097	5743.02
663.289	5710.25
663.481	5841.32
663.673	5687.72
663.864	5462.44
664.056	5505.45
664.247	5429.68
664.439	5302.7
664.631	5489.07
664.822	5628.33
665.014	5403.05
665.205	5358
665.397	5288.37
665.588	5296.56
665.78	5194.16
665.971	5138.87
666.163	5235.12
666.354	5102
666.546	5036.47
666.737	5099.95
666.929	5040.56
667.12	5097.91
667.311	4858.29
667.503	4889.01
667.694	4903.35
667.885	4835.77
668.077	4907.45
668.268	4895.16
668.459	4925.88
668.651	4747.7
668.842	4831.67
669.033	4633.02
669.224	4661.69
669.416	4641.21
669.607	4688.31
669.798	4575.67
669.989	4655.54
670.18	4542.91
670.371	4557.24
670.563	4491.71
670.754	4485.56
670.945	4286.91
671.136	4497.85
671.327	4315.58
671.518	4405.69
671.709	4274.62
671.9	4497.85
672.091	4352.45
672.282	4286.91
672.473	4168.13
672.664	4338.11
672.855	4327.87
673.046	4266.43
673.237	4243.9
673.428	4211.14
673.619	4121.03
673.809	4114.88
674	4090.31
674.191	4082.11
674.382	3996.1
674.573	4004.29
674.764	3901.89
674.954	4067.78
675.145	4004.29
675.336	4073.92
675.527	4088.26
675.717	3977.67
675.908	3830.21
676.099	4018.63
676.289	3989.96
676.48	3961.28
676.671	3887.56
676.861	3854.79
677.052	3805.64
677.243	3807.69
677.433	3897.8
677.624	3729.86
677.814	3834.31
678.005	3766.73
678.195	3819.97
678.386	3776.97
678.576	3703.24
678.767	3736.01
678.957	3772.87
679.148	3672.52
679.338	3572.17
679.529	3602.89
679.719	3523.02
679.909	3682.76
680.1	3563.98
680.29	3660.23
680.481	3518.92
680.671	3606.98
680.861	3649.99
681.052	3649.99
681.242	3555.79
681.432	3490.25
681.622	3432.91
681.813	3563.98
682.003	3469.77
682.193	3420.62
682.383	3572.17
682.573	3547.59
682.764	3506.63
682.954	3529.16
683.144	3555.79
683.334	3512.78
683.524	3453.39
683.714	3506.63
683.904	3373.52
684.094	3445.2
684.284	3494.35
684.474	3355.08
684.664	3555.79
684.854	3428.81
685.044	3353.04
685.234	3305.93
685.424	3336.65
685.614	3293.65
685.804	3279.31
685.994	3342.8
686.184	3451.34
686.374	3424.72
686.564	3297.74
686.753	3383.76
686.943	3363.28
687.133	3312.08
687.323	3254.73
687.513	3320.27
687.702	3338.7
687.892	3357.13
688.082	3348.94
688.272	3234.25
688.461	3224.01
688.651	3334.61
688.841	3269.07
689.03	3275.21
689.22	3195.34
689.41	3346.89
689.599	3373.52
689.789	3320.27
689.979	3267.02
690.168	3248.59
690.358	3238.35
690.547	3295.69
690.737	3258.83
690.926	3146.19
691.116	3138
691.305	3260.88
691.495	3273.17
691.684	3211.73
691.874	3396.04
692.063	3295.69
692.252	3297.74
692.442	3246.54
692.631	3269.07
692.82	3230.16
693.01	3248.59
693.199	3248.59
693.388	3117.52
693.578	3111.38
693.767	3197.39
693.956	3195.34
694.146	3060.18
694.335	3334.61
694.524	3297.74
694.713	3160.53
694.902	3219.92
695.092	3146.19
695.281	3051.99
695.47	3115.47
695.659	3146.19
695.848	3230.16
696.037	3178.96
696.226	3269.07
696.415	3138
696.604	3176.91
696.793	3131.86
696.982	3185.1
697.171	3090.9
697.36	3158.48
697.549	3154.38
697.738	3125.71
697.927	3138
698.116	3154.38
698.305	3043.79
698.494	3170.77
698.683	3015.12
698.872	3021.27
699.061	3066.32
699.25	3084.75
699.438	3127.76
699.627	2959.83
699.816	2970.07
700.005	3094.99
700.193	3105.23
700.382	3015.12
700.571	3015.12
700.76	3019.22
700.948	2992.59
701.137	3000.79
701.326	3092.94
701.514	3064.27
701.703	2929.11
701.892	2892.24
702.08	2978.26
702.269	2935.25
702.457	2900.44
702.646	2992.59
702.834	2943.44
703.023	2849.24
703.212	2998.74
703.4	2943.44
703.589	2892.24
703.777	2957.78
703.965	2898.39
704.154	3086.8
704.342	2761.17
704.531	2810.33
704.719	2814.42
704.907	2961.87
705.096	2767.32
705.284	2693.59
705.472	2757.08
705.661	2785.75
705.849	2806.23
706.037	2738.65
706.226	2773.46
706.414	2767.32
706.602	2730.45
706.79	2742.74
706.979	2761.17
707.167	2679.26
707.355	2599.38
707.543	2853.33
707.731	2523.61
707.919	2638.3
708.107	2613.72
708.296	2658.78
708.484	2632.15
708.672	2630.1
708.86	2597.34
709.048	2664.92
709.236	2630.1
709.424	2550.23
709.612	2701.78
709.8	2601.43
709.988	2535.9
710.176	2546.14
710.364	2535.9
710.551	2531.8
710.739	2423.26
710.927	2451.93
711.115	2519.51
711.303	2466.27
711.491	2380.25
711.679	2499.03
711.866	2515.42
712.054	2447.83
712.242	2302.43
712.43	2382.3
712.617	2404.83
712.805	2245.09
712.993	2341.34
713.181	2341.34
713.368	2359.77
713.556	2224.61
713.744	2249.18
713.931	2421.21
714.119	2290.14
714.306	2353.63
714.494	2175.45
714.682	2286.05
714.869	2253.28
715.057	2169.31
715.244	2267.61
715.432	2292.19
715.619	2189.79
715.807	2066.91
715.994	2109.92
716.182	2114.02
716.369	2163.17
716.556	2105.82
716.744	2066.91
716.931	2048.48
717.119	2101.73
717.306	2138.59
717.493	2038.24
717.681	2077.15
717.868	2081.25
718.055	2071.01
718.242	2060.77
718.43	2081.25
718.617	2056.67
718.804	2007.52
718.991	1960.42
719.179	2011.62
719.366	1952.23
719.553	2015.71
719.74	1997.28
719.927	1925.6
720.114	1933.79
720.301	1913.31
720.488	1917.41
720.676	1858.02
720.863	1827.3
721.05	1796.58
721.237	1847.78
721.424	1886.69
721.611	1870.31
721.798	1751.53
721.985	1829.35
722.172	1784.29
722.358	1753.57
722.545	1759.72
722.732	1675.75
722.919	1872.36
723.106	1845.73
723.293	1745.38
723.48	1714.66
723.667	1688.04
723.853	1880.55
724.04	1786.34
724.227	1735.14
724.414	1753.57
724.6	1679.85
724.787	1722.85
724.974	1702.37
725.161	1708.52
725.347	1716.71
725.534	1733.09
725.72	1624.55
725.907	1548.78
726.094	1606.12
726.28	1593.83
726.467	1559.02
726.653	1614.31
726.84	1669.61
727.027	1624.55
727.213	1548.78
727.4	1530.34
727.586	1589.74
727.773	1661.41
727.959	1681.89
728.145	1581.54
728.332	1507.82
728.518	1507.82
728.705	1569.26
728.891	1595.88
729.077	1477.1
729.264	1491.43
729.45	1532.39
729.636	1507.82
729.823	1591.78
730.009	1429.99
730.195	1509.86
730.382	1546.73
730.568	1354.22
730.754	1487.34
730.94	1452.52
731.126	1454.57
731.313	1395.18
731.499	1429.99
731.685	1464.81
731.871	1413.61
732.057	1438.19
732.243	1427.95
732.429	1313.26
732.615	1384.94
732.801	1403.37
732.987	1325.55
733.173	1382.89
733.359	1450.47
733.545	1358.32
733.731	1360.36
733.917	1370.6
734.103	1319.4
734.289	1341.93
734.475	1415.66
734.661	1362.41
734.847	1348.08
735.033	1341.93
735.219	1364.46
735.404	1313.26
735.59	1212.91
735.776	1319.4
735.962	1257.96
736.148	1323.5
736.333	1237.49
736.519	1247.72
736.705	1247.72
736.89	1356.27
737.076	1163.76
737.262	1206.77
737.447	1214.96
737.633	1184.24
737.819	1303.02
738.004	1124.85
738.19	1212.91
738.375	1174
738.561	1239.53
738.747	1200.62
738.932	1184.24
739.118	1198.57
739.303	1180.14
739.489	1202.67
739.674	1239.53
739.859	1130.99
740.045	1077.74
740.23	1108.46
740.416	1130.99
740.601	1255.92
740.786	1159.66
740.972	1075.7
741.157	1077.74
741.342	1067.5
741.528	1112.56
741.713	1108.46
741.898	1090.03
742.084	1153.52
742.269	1010.16
742.454	997.87
742.639	1051.12
742.824	1073.65
743.01	1040.88
743.195	1083.89
743.38	1024.5
743.565	1042.93
743.75	983.54
743.935	1008.11
744.12	981.49
744.305	969.2
744.49	958.96
744.675	946.67
744.86	965.11
745.045	1012.21
745.23	938.48
745.415	971.25
745.6	887.28
745.785	973.3
745.97	954.87
746.155	928.24
746.34	932.34
746.525	979.44
746.71	852.47
746.895	989.68
747.079	889.33
747.264	874.99
747.449	1038.83
747.634	868.85
747.819	883.19
748.003	971.25
748.188	840.18
748.373	934.39
748.557	877.04
748.742	862.71
748.927	948.72
749.111	895.47
749.296	889.33
749.481	821.75
749.665	944.63
749.85	838.13
750.034	817.65
750.219	821.75
750.404	788.98
750.588	840.18
750.773	782.84
750.957	797.17
751.141	778.74
751.326	756.21
751.51	778.74
751.695	821.75
751.879	815.6
752.064	899.57
752.248	715.25
752.432	852.47
752.617	702.97
752.801	748.02
752.985	745.97
753.17	795.12
753.354	737.78
753.538	688.63
753.722	682.49
753.907	811.51
754.091	698.87
754.275	778.74
754.459	733.68
754.643	731.64
754.828	750.07
755.012	729.59
755.196	715.25
755.38	717.3
755.564	692.73
755.748	598.52
755.932	655.86
756.116	725.49
756.3	586.23
756.484	682.49
756.668	754.16
756.852	555.51
757.036	700.92
757.22	668.15
757.404	602.61
757.588	596.47
757.772	664.05
757.956	639.48
758.14	639.48
758.323	569.85
758.507	510.46
758.691	674.29
758.875	639.48
759.059	680.44
759.242	610.81
759.426	602.61
759.61	633.33
759.794	575.99
759.977	621.05
760.161	635.38
760.345	600.57
760.528	580.09
760.712	532.98
760.895	575.99
761.079	545.27
761.263	537.08
761.446	559.61
761.63	627.19
761.813	635.38
761.997	541.18
762.18	483.83
762.364	639.48
762.547	524.79
762.731	514.55
762.914	467.45
763.098	551.42
763.281	563.7
763.464	602.61
763.648	559.61
763.831	524.79
764.015	510.46
764.198	573.94
764.381	510.46
764.564	516.6
764.748	547.32
764.931	500.22
765.114	522.74
765.297	545.27
765.481	481.78
765.664	471.54
765.847	477.69
766.03	547.32
766.213	485.88
766.397	537.08
766.58	520.7
766.763	440.83
766.946	567.8
767.129	496.12
767.312	543.22
767.495	477.69
767.678	524.79
767.861	510.46
768.044	477.69
768.227	481.78
768.41	502.26
768.593	428.54
768.776	438.78
768.959	475.64
769.142	451.07
769.324	489.98
769.507	444.92
769.69	500.22
769.873	432.63
770.056	549.37
770.239	555.51
770.421	520.7
770.604	438.78
770.787	461.3
770.97	551.42
771.152	502.26
771.335	422.39
771.518	451.07
771.7	502.26
771.883	492.02
772.066	549.37
772.248	453.11
772.431	412.15
772.613	469.5
772.796	406.01
772.978	418.3
773.161	446.97
773.343	498.17
773.526	446.97
773.708	393.72
773.891	387.58
774.073	485.88
774.256	406.01
774.438	477.69
774.621	475.64
774.803	395.77
774.985	332.28
775.168	436.73
775.35	348.67
775.532	426.49
775.715	393.72
775.897	449.02
776.079	508.41
776.261	383.48
776.444	428.54
776.626	428.54
776.808	430.59
776.99	422.39
777.173	379.39
777.355	426.49
777.537	385.53
777.719	352.76
777.901	391.67
778.083	317.95
778.265	346.62
778.447	369.15
778.629	317.95
778.811	358.91
778.993	340.47
779.175	375.29
779.357	356.86
779.539	326.14
779.721	336.38
779.903	252.41
780.085	346.62
780.267	418.3
780.449	313.85
780.631	395.77
780.812	281.08
780.994	373.24
781.176	254.46
781.358	315.9
781.54	303.61
781.721	272.89
781.903	299.52
782.085	334.33
782.267	297.47
782.448	330.23
782.63	320
782.812	250.36
782.993	363
783.175	354.81
783.357	301.56
783.538	279.04
783.72	231.93
783.901	297.47
784.083	270.84
784.264	305.66
784.446	205.31
784.627	231.93
784.809	287.23
784.99	270.84
785.172	256.51
785.353	215.55
785.535	291.32
785.716	256.51
785.897	313.85
786.079	252.41
786.26	293.37
786.441	274.94
786.623	264.7
786.804	317.95
786.985	180.73
787.167	297.47
787.348	168.45
787.529	211.45
787.71	238.08
787.891	266.75
788.073	287.23
788.254	225.79
788.435	193.02
788.616	215.55
788.797	233.98
788.978	244.22
789.159	254.46
789.34	240.12
789.522	252.41
789.703	258.56
789.884	219.64
790.065	305.66
790.246	180.73
790.427	272.89
790.607	174.59
790.788	154.11
790.969	174.59
791.15	264.7
791.331	172.54
791.512	172.54
791.693	242.17
791.874	186.88
792.054	244.22
792.235	186.88
792.416	221.69
792.597	238.08
792.778	172.54
792.958	211.45
793.139	211.45
793.32	172.54
793.5	188.93
793.681	139.77
793.862	219.64
794.042	193.02
794.223	178.69
794.404	184.83
794.584	164.35
794.765	195.07
794.945	123.39
795.126	119.29
795.306	180.73
795.487	111.1
795.667	135.68
795.848	166.4
796.028	197.12
796.209	150.01
796.389	217.6
796.57	190.97
796.75	109.05
796.93	180.73
797.111	143.87
797.291	117.25
797.471	205.31
797.652	242.17
797.832	129.53
798.012	164.35
798.192	246.27
798.373	133.63
798.553	113.15
798.733	100.86
798.913	244.22
799.093	80.38
799.274	219.64
799.454	225.79
799.634	135.68
799.814	178.69
799.994	182.78
800.174	94.72
800.354	133.63
800.534	164.35
800.714	180.73
800.894	107.01
801.074	178.69
801.254	66.05
801.434	143.87
801.614	168.45
801.794	98.81
801.974	340.47
802.154	125.44
802.334	102.91
802.514	139.77
802.693	172.54
802.873	139.77
803.053	223.74
803.233	82.43
803.413	74.24
803.592	121.34
803.772	119.29
803.952	160.25
804.131	107.01
804.311	82.43
804.491	129.53
804.67	78.33
804.85	201.21
805.03	123.39
805.209	164.35
805.389	119.29
805.568	180.73
805.748	107.01
805.928	172.54
806.107	199.16
806.287	145.92
806.466	154.11
806.646	127.49
806.825	61.95
807.004	143.87
807.184	82.43
807.363	127.49
807.543	174.59
807.722	135.68
807.901	102.91
808.081	145.92
808.26	45.57
808.439	158.21
808.619	72.19
808.798	123.39
808.977	68.09
809.156	117.25
809.336	121.34
809.515	92.67
809.694	66.05
809.873	102.91
810.052	33.28
810.231	92.67
810.411	59.9
810.59	90.62
810.769	129.53
810.948	88.57
811.127	35.33
811.306	84.48
811.485	43.52
811.664	66.05
811.843	113.15
812.022	104.96
812.201	76.29
812.38	127.49
812.559	82.43
812.737	14.85
812.916	86.53
813.095	86.53
813.274	64
813.453	94.72
813.632	96.77
813.811	61.95
813.989	115.2
814.168	102.91
814.347	100.86
814.526	74.24
814.704	66.05
814.883	51.71
815.062	160.25
815.24	82.43
815.419	123.39
815.598	80.38
815.776	16.9
815.955	68.09
816.133	102.91
816.312	53.76
816.49	68.09
816.669	104.96
816.847	82.43
817.026	41.47
817.204	51.71
817.383	133.63
817.561	66.05
817.74	49.66
817.918	96.77
818.097	90.62
818.275	70.14
818.453	104.96
818.632	43.52
818.81	70.14
818.988	55.81
819.167	57.86
819.345	150.01
819.523	29.18
819.701	78.33
819.879	86.53
820.058	127.49
820.236	37.38
820.414	147.97
820.592	35.33
820.77	123.39
820.948	53.76
821.127	51.71
821.305	102.91
821.483	94.72
821.661	82.43
821.839	121.34
822.017	98.81
822.195	18.94
822.373	117.25
822.551	66.05
822.729	94.72
822.907	119.29
823.085	82.43
823.262	59.9
823.44	-13.82
823.618	31.23
823.796	61.95
823.974	61.95
824.152	18.94
824.329	-9.73
824.507	107.01
824.685	74.24
824.863	137.73
825.04	74.24
825.218	59.9
825.396	31.23
825.574	82.43
825.751	61.95
825.929	133.63
826.107	104.96
826.284	127.49
826.462	45.57
826.639	70.14
826.817	29.18
826.994	20.99
827.172	23.04
827.349	31.23
827.527	104.96
827.704	96.77
827.882	66.05
828.059	82.43
828.237	66.05
828.414	33.28
828.591	33.28
828.769	133.63
828.946	35.33
829.124	16.9
829.301	10.75
829.478	53.76
829.655	51.71
829.833	41.47
830.01	39.42
830.187	100.86
830.364	82.43
830.542	2.56
830.719	74.24
830.896	27.14
831.073	57.86
831.25	57.86
831.427	-3.58
831.604	76.29
831.782	88.57
831.959	68.09
832.136	78.33
832.313	76.29
832.49	25.09
832.667	55.81
832.844	45.57
833.021	94.72
833.198	45.57
833.374	4.61
833.551	-3.58
833.728	14.85
833.905	68.09
834.082	-3.58
834.259	20.99
834.436	10.75
834.612	31.23
834.789	86.53
834.966	51.71
835.143	84.48
835.319	43.52
835.496	66.05
835.673	94.72
835.85	0.51
836.026	70.14
836.203	66.05
836.38	2.56
836.556	-7.68
836.733	37.38
836.909	78.33
837.086	39.42
837.262	82.43
837.439	96.77
837.616	98.81
837.792	35.33
837.968	-17.92
838.145	57.86
838.321	61.95
838.498	47.62
838.674	57.86
838.851	18.94
839.027	82.43
839.203	27.14
839.38	82.43
839.556	61.95
839.732	29.18
839.909	47.62
840.085	6.66
840.261	16.9
840.437	29.18
840.614	-48.64
840.79	8.7
840.966	-9.73
841.142	-7.68
841.318	150.01
841.494	72.19
841.671	68.09
841.847	12.8
842.023	39.42
842.199	33.28
842.375	53.76
842.551	14.85
842.727	57.86
842.903	27.14
843.079	53.76
843.255	41.47
843.431	104.96
843.607	18.94
843.783	57.86
843.959	35.33
844.134	-3.58
844.31	20.99
844.486	18.94
844.662	33.28
844.838	-65.02
845.013	37.38
845.189	82.43
845.365	-5.63
845.541	31.23
845.716	2.56
845.892	27.14
846.068	-28.16
846.244	23.04
846.419	29.18
846.595	20.99
846.77	49.66
846.946	12.8
847.122	12.8
847.297	25.09
847.473	57.86
847.648	-65.02
847.824	2.56
847.999	-32.26
848.175	35.33
848.35	66.05
848.526	-1.54
848.701	18.94
848.876	61.95
849.052	49.66
849.227	25.09
849.403	-17.92
849.578	25.09
849.753	45.57
849.929	-17.92
850.104	-13.82
850.279	29.18
850.454	45.57
850.63	53.76
850.805	-3.58
850.98	61.95
851.155	-58.88
851.33	20.99
851.505	41.47
851.681	53.76
851.856	-13.82
852.031	43.52
852.206	74.24
852.381	16.9
852.556	66.05
852.731	-9.73
852.906	-1.54
853.081	-11.78
853.256	27.14
853.431	45.57
853.606	-7.68
853.781	18.94
853.956	45.57
854.131	2.56
854.305	-52.74
854.48	-1.54
854.655	-7.68
854.83	10.75
855.005	25.09
855.18	39.42
855.354	49.66
855.529	33.28
855.704	98.81
855.879	55.81
856.053	57.86
856.228	-1.54
856.403	-5.63
856.577	84.48
856.752	25.09
856.926	55.81
857.101	-26.11
857.276	51.71
857.45	18.94
857.625	-9.73
857.799	57.86
857.974	-13.82
858.148	-26.11
858.323	29.18
858.497	-22.02
858.672	33.28
858.846	4.61
859.02	82.43
859.195	-11.78
859.369	25.09
859.543	53.76
859.718	18.94
859.892	59.9
860.066	16.9
860.241	-38.4
860.415	-79.36
860.589	41.47
860.763	51.71
860.938	-22.02
861.112	55.81
861.286	41.47
861.46	55.81
861.634	59.9
861.808	51.71
861.982	31.23
862.157	23.04
862.331	-58.88
862.505	18.94
862.679	-7.68
862.853	27.14
863.027	14.85
863.201	-62.98
863.375	2.56
863.549	115.2
863.722	31.23
863.896	102.91
864.07	0.51
864.244	64
864.418	68.09
864.592	-30.21
864.766	12.8
864.939	0.51
865.113	-28.16
865.287	14.85
865.461	70.14
865.634	47.62
865.808	-22.02
865.982	92.67
866.156	-7.68
866.329	72.19
866.503	8.7
866.676	-7.68
866.85	-15.87
867.024	33.28
867.197	59.9
867.371	57.86
867.544	-7.68
867.718	10.75
867.891	2.56
868.065	6.66
868.238	-38.4
868.412	41.47
868.585	59.9
868.759	41.47
868.932	35.33
869.105	-19.97
869.279	25.09
869.452	49.66
869.625	-15.87
869.799	72.19
869.972	29.18
870.145	31.23
870.319	6.66
870.492	6.66
870.665	-46.59
870.838	16.9
871.011	-3.58
871.185	4.61
871.358	-17.92
871.531	-13.82
871.704	-36.35
871.877	35.33
872.05	-11.78
872.223	-52.74
872.396	-15.87
872.569	37.38
872.742	-1.54
872.915	16.9
873.088	-19.97
873.261	8.7
873.434	-52.74
873.607	37.38
873.78	20.99
873.953	10.75
874.126	51.71
874.299	-11.78
874.471	-7.68
874.644	12.8
874.817	43.52
874.99	45.57
875.163	20.99
875.335	35.33
875.508	20.99
875.681	-5.63
875.853	51.71
876.026	-1.54
876.199	78.33
876.371	59.9
876.544	-17.92
876.717	-7.68
876.889	-62.98
877.062	6.66
877.234	0.51
877.407	25.09
877.579	8.7
877.752	23.04
877.924	-22.02
878.097	-24.06
878.269	-54.78
878.442	27.14
878.614	0.51
878.786	-36.35
878.959	29.18
879.131	29.18
879.303	-40.45
879.476	12.8
879.648	20.99
879.82	0.51
879.993	4.61
880.165	74.24
880.337	-19.97
880.509	35.33
880.681	-28.16
880.854	41.47
881.026	-85.5
881.198	35.33
881.37	8.7
881.542	10.75
881.714	-32.26
881.886	14.85
882.058	-13.82
882.23	27.14
882.402	2.56
882.574	8.7
882.746	66.05
882.918	0.51
883.09	-5.63
883.262	-3.58
883.434	57.86
883.606	39.42
883.778	25.09
883.95	41.47
884.122	-17.92
884.293	31.23
884.465	33.28
884.637	68.09
884.809	-52.74
884.98	10.75
885.152	12.8
885.324	82.43
885.496	27.14
885.667	92.67
885.839	-73.21
886.011	8.7
886.182	-46.59
886.354	-28.16
886.525	37.38
886.697	33.28
886.869	18.94
887.04	-9.73
887.212	45.57
887.383	16.9
887.555	-30.21
887.726	-34.3
887.897	4.61
888.069	20.99
888.24	-24.06
888.412	49.66
888.583	-7.68
888.754	-22.02
888.926	-1.54
889.097	2.56
889.268	2.56
889.44	-79.36
889.611	-30.21
889.782	-1.54
889.953	-11.78
890.125	49.66
890.296	12.8
890.467	41.47
890.638	-9.73
890.809	25.09
890.98	55.81
891.151	35.33
891.323	43.52
891.494	0.51
891.665	-42.5
891.836	37.38
892.007	12.8
892.178	-19.97
892.349	20.99
892.52	-62.98
892.691	-11.78
892.862	-40.45
893.032	45.57
893.203	-13.82
893.374	33.28
893.545	-3.58
893.716	-5.63
893.887	98.81
894.057	-5.63
894.228	-52.74
894.399	4.61
894.57	8.7
894.74	-40.45
894.911	-11.78
895.082	-24.06
895.253	72.19
895.423	43.52
895.594	-9.73
895.764	10.75
895.935	2.56
896.106	-38.4
896.276	-34.3
896.447	-15.87
896.617	-26.11
896.788	-30.21
896.958	-30.21
897.129	-40.45
897.299	20.99
897.47	25.09
897.64	-32.26
897.81	-5.63
897.981	-48.64
898.151	-77.31
898.322	43.52
898.492	-65.02
898.662	20.99
898.832	-3.58
899.003	-52.74
899.173	25.09
899.343	39.42
899.513	-19.97
