Data from USB4F104151__32__13-52-50-001.txt Node

Date: Thu Mar 13 13:52:50 EDT 2025
User: louis
Spectrometer: USB4F10415
Trigger mode: 4
Integration Time (sec): 1.000000E-2
Scans to average: 1
Electric dark correction enabled: true
Nonlinearity correction enabled: false
Boxcar width: 0
XAxis mode: Wavelengths
Number of Pixels in Spectrum: 3648
>>>>>Begin Spectral Data<<<<<
178.204	-67.24
178.424	-67.24
178.644	-67.24
178.864	6.49
179.084	-42.67
179.304	12.63
179.524	6.49
179.744	8.53
179.964	57.68
180.184	-16.04
180.404	-9.9
180.624	-44.71
180.844	0.34
181.064	-5.8
181.283	-18.09
181.503	2.39
181.723	6.49
181.943	-11.95
182.163	24.92
182.383	-22.19
182.602	14.68
182.822	26.96
183.042	-5.8
183.262	39.25
183.482	-9.9
183.701	-36.52
183.921	20.82
184.141	41.3
184.361	37.2
184.58	-16.04
184.8	6.49
185.02	-32.43
185.239	-36.52
185.459	-3.75
185.679	-30.38
185.898	-11.95
186.118	35.16
186.338	-20.14
186.557	-34.47
186.777	47.44
186.997	-54.95
187.216	-28.33
187.436	76.12
187.655	-22.19
187.875	-18.09
188.095	24.92
188.314	35.16
188.534	8.53
188.753	-5.8
188.973	4.44
189.192	53.59
189.412	14.68
189.631	-1.71
189.851	-1.71
190.07	-44.71
190.29	-34.47
190.509	-13.99
190.729	-42.67
190.948	18.77
191.168	0.34
191.387	16.73
191.607	-16.04
191.826	35.16
192.045	-46.76
192.265	-46.76
192.484	-44.71
192.704	14.68
192.923	2.39
193.142	31.06
193.362	-61.1
193.581	69.97
193.8	-52.91
194.02	-9.9
194.239	2.39
194.458	-48.81
194.678	20.82
194.897	37.2
195.116	-59.05
195.335	-26.28
195.555	-46.76
195.774	-30.38
195.993	20.82
196.212	14.68
196.432	-116.39
196.651	31.06
196.87	-11.95
197.089	4.44
197.308	-48.81
197.528	-13.99
197.747	-42.67
197.966	6.49
198.185	-46.76
198.404	10.58
198.623	18.77
198.842	24.92
199.062	-77.48
199.281	76.12
199.5	-30.38
199.719	-83.63
199.938	-52.91
200.157	57.68
200.376	-26.28
200.595	31.06
200.814	-26.28
201.033	-50.86
201.252	-38.57
201.471	37.2
201.69	-28.33
201.909	31.06
202.128	-16.04
202.347	-38.57
202.566	0.34
202.785	41.3
203.004	-3.75
203.223	59.73
203.442	16.73
203.661	-16.04
203.879	53.59
204.098	10.58
204.317	-32.43
204.536	74.07
204.755	29.01
204.974	-16.04
205.193	10.58
205.411	22.87
205.63	8.53
205.849	-3.75
206.068	2.39
206.287	-20.14
206.505	31.06
206.724	37.2
206.943	-1.71
207.162	-83.63
207.381	-26.28
207.599	80.21
207.818	22.87
208.037	69.97
208.255	-32.43
208.474	6.49
208.693	-16.04
208.911	61.78
209.13	20.82
209.349	-3.75
209.567	-3.75
209.786	35.16
210.005	-20.14
210.223	-32.43
210.442	-73.39
210.661	59.73
210.879	29.01
211.098	-7.85
211.316	33.11
211.535	96.6
211.753	18.77
211.972	-18.09
212.191	-44.71
212.409	76.12
212.628	-61.1
212.846	39.25
213.065	35.16
213.283	18.77
213.502	-34.47
213.72	-67.24
213.938	6.49
214.157	-69.29
214.375	2.39
214.594	61.78
214.812	-59.05
215.031	74.07
215.249	-44.71
215.467	35.16
215.686	2.39
215.904	49.49
216.122	-1.71
216.341	-34.47
216.559	39.25
216.778	35.16
216.996	33.11
217.214	37.2
217.432	-91.82
217.651	26.96
217.869	-16.04
218.087	29.01
218.306	-13.99
218.524	88.4
218.742	-22.19
218.96	22.87
219.179	22.87
219.397	41.3
219.615	45.4
219.833	-7.85
220.051	-16.04
220.27	10.58
220.488	-34.47
220.706	10.58
220.924	-24.23
221.142	-28.33
221.36	-57
221.578	-11.95
221.796	-3.75
222.015	47.44
222.233	-7.85
222.451	-5.8
222.669	8.53
222.887	-36.52
223.105	-26.28
223.323	-18.09
223.541	-50.86
223.759	16.73
223.977	-11.95
224.195	16.73
224.413	10.58
224.631	16.73
224.849	-28.33
225.067	-24.23
225.285	-26.28
225.503	14.68
225.721	-18.09
225.939	-26.28
226.157	20.82
226.375	-20.14
226.592	-1.71
226.81	67.92
227.028	10.58
227.246	16.73
227.464	22.87
227.682	-30.38
227.9	39.25
228.117	20.82
228.335	-5.8
228.553	16.73
228.771	-7.85
228.989	-13.99
229.206	57.68
229.424	-18.09
229.642	16.73
229.86	-71.34
230.077	8.53
230.295	63.83
230.513	-9.9
230.731	18.77
230.948	16.73
231.166	10.58
231.384	-1.71
231.601	-26.28
231.819	47.44
232.037	8.53
232.254	-22.19
232.472	8.53
232.689	-9.9
232.907	-16.04
233.125	18.77
233.342	24.92
233.56	22.87
233.777	-54.95
233.995	72.02
234.213	33.11
234.43	4.44
234.648	63.83
234.865	-11.95
235.083	117.08
235.3	6.49
235.518	35.16
235.735	2.39
235.953	47.44
236.17	61.78
236.388	6.49
236.605	-57
236.822	76.12
237.04	-7.85
237.257	-79.53
237.475	18.77
237.692	53.59
237.909	-9.9
238.127	2.39
238.344	-44.71
238.562	-16.04
238.779	59.73
238.996	20.82
239.214	31.06
239.431	67.92
239.648	-1.71
239.865	29.01
240.083	2.39
240.3	2.39
240.517	76.12
240.735	12.63
240.952	-1.71
241.169	2.39
241.386	10.58
241.603	4.44
241.821	29.01
242.038	-7.85
242.255	51.54
242.472	24.92
242.689	-20.14
242.907	-26.28
243.124	43.35
243.341	-69.29
243.558	18.77
243.775	-7.85
243.992	2.39
244.209	49.49
244.426	-1.71
244.643	37.2
244.86	20.82
245.078	57.68
245.295	-5.8
245.512	35.16
245.729	-34.47
245.946	10.58
246.163	8.53
246.38	-7.85
246.597	-13.99
246.814	86.36
247.031	45.4
247.248	92.5
247.464	-5.8
247.681	33.11
247.898	39.25
248.115	-65.19
248.332	14.68
248.549	33.11
248.766	47.44
248.983	-26.28
249.2	49.49
249.417	49.49
249.633	-18.09
249.85	72.02
250.067	10.58
250.284	22.87
250.501	55.64
250.717	-13.99
250.934	-79.53
251.151	-48.81
251.368	-9.9
251.585	26.96
251.801	-26.28
252.018	41.3
252.235	-34.47
252.451	53.59
252.668	6.49
252.885	-3.75
253.102	18.77
253.318	12.63
253.535	-9.9
253.752	-28.33
253.968	-24.23
254.185	33.11
254.401	-22.19
254.618	31.06
254.835	10.58
255.051	-3.75
255.268	10.58
255.484	-20.14
255.701	0.34
255.917	-18.09
256.134	-7.85
256.351	10.58
256.567	-16.04
256.784	55.64
257	-18.09
257.217	-28.33
257.433	51.54
257.65	-54.95
257.866	-3.75
258.082	-9.9
258.299	-3.75
258.515	-48.81
258.732	-7.85
258.948	-13.99
259.165	-30.38
259.381	-1.71
259.597	74.07
259.814	12.63
260.03	49.49
260.246	59.73
260.463	-50.86
260.679	8.53
260.895	8.53
261.112	-30.38
261.328	-20.14
261.544	49.49
261.761	4.44
261.977	18.77
262.193	14.68
262.409	22.87
262.626	-75.43
262.842	26.96
263.058	-32.43
263.274	63.83
263.49	0.34
263.707	-11.95
263.923	31.06
264.139	12.63
264.355	14.68
264.571	33.11
264.787	-18.09
265.004	90.45
265.22	33.11
265.436	-61.1
265.652	39.25
265.868	51.54
266.084	-16.04
266.3	33.11
266.516	-20.14
266.732	63.83
266.948	31.06
267.164	-34.47
267.38	-13.99
267.596	-13.99
267.812	-3.75
268.028	63.83
268.244	18.77
268.46	-38.57
268.676	-40.62
268.892	-52.91
269.108	-20.14
269.324	-67.24
269.54	-1.71
269.756	0.34
269.972	8.53
270.188	-5.8
270.403	86.36
270.619	-3.75
270.835	-42.67
271.051	43.35
271.267	-48.81
271.483	35.16
271.698	8.53
271.914	84.31
272.13	18.77
272.346	-11.95
272.562	63.83
272.777	-18.09
272.993	-16.04
273.209	-40.62
273.425	35.16
273.64	18.77
273.856	-34.47
274.072	-16.04
274.287	-11.95
274.503	45.4
274.719	-3.75
274.934	2.39
275.15	-5.8
275.366	63.83
275.581	-9.9
275.797	-20.14
276.012	0.34
276.228	14.68
276.444	4.44
276.659	10.58
276.875	35.16
277.09	-3.75
277.306	-11.95
277.521	33.11
277.737	61.78
277.952	4.44
278.168	-30.38
278.383	-22.19
278.599	2.39
278.814	55.64
279.03	22.87
279.245	-20.14
279.461	31.06
279.676	61.78
279.892	-79.53
280.107	-28.33
280.322	37.2
280.538	-3.75
280.753	-59.05
280.969	-13.99
281.184	-46.76
281.399	4.44
281.615	-3.75
281.83	-34.47
282.045	-3.75
282.26	14.68
282.476	4.44
282.691	26.96
282.906	-16.04
283.122	29.01
283.337	-1.71
283.552	24.92
283.767	14.68
283.983	16.73
284.198	-36.52
284.413	29.01
284.628	-26.28
284.843	14.68
285.058	-48.81
285.274	-61.1
285.489	26.96
285.704	26.96
285.919	-54.95
286.134	22.87
286.349	43.35
286.564	-3.75
286.779	24.92
286.995	0.34
287.21	4.44
287.425	43.35
287.64	-16.04
287.855	-93.87
288.07	-22.19
288.285	-13.99
288.5	6.49
288.715	47.44
288.93	8.53
289.145	-24.23
289.36	14.68
289.575	55.64
289.79	-28.33
290.004	43.35
290.219	-77.48
290.434	-22.19
290.649	41.3
290.864	35.16
291.079	63.83
291.294	67.92
291.509	-44.71
291.724	-1.71
291.938	-5.8
292.153	55.64
292.368	31.06
292.583	-18.09
292.798	31.06
293.012	88.4
293.227	2.39
293.442	43.35
293.657	10.58
293.871	20.82
294.086	37.2
294.301	14.68
294.516	-38.57
294.73	37.2
294.945	-9.9
295.16	10.58
295.374	18.77
295.589	61.78
295.804	-1.71
296.018	78.16
296.233	-28.33
296.447	20.82
296.662	57.68
296.877	16.73
297.091	4.44
297.306	-24.23
297.52	10.58
297.735	59.73
297.949	2.39
298.164	-48.81
298.378	18.77
298.593	-38.57
298.807	37.2
299.022	39.25
299.236	49.49
299.451	51.54
299.665	-30.38
299.88	18.77
300.094	-9.9
300.309	6.49
300.523	26.96
300.737	43.35
300.952	-42.67
301.166	18.77
301.381	2.39
301.595	-18.09
301.809	80.21
302.024	-5.8
302.238	24.92
302.452	6.49
302.667	43.35
302.881	33.11
303.095	29.01
303.309	-5.8
303.524	14.68
303.738	2.39
303.952	0.34
304.166	31.06
304.381	-22.19
304.595	43.35
304.809	20.82
305.023	12.63
305.237	43.35
305.452	37.2
305.666	33.11
305.88	-44.71
306.094	-42.67
306.308	18.77
306.522	0.34
306.736	96.6
306.95	-34.47
307.164	31.06
307.379	-46.76
307.593	-87.72
307.807	45.4
308.021	-1.71
308.235	-9.9
308.449	-40.62
308.663	6.49
308.877	57.68
309.091	104.79
309.305	16.73
309.519	-57
309.733	16.73
309.947	-3.75
310.161	-42.67
310.374	37.2
310.588	-7.85
310.802	-34.47
311.016	-18.09
311.23	18.77
311.444	82.26
311.658	-65.19
311.872	76.12
312.085	41.3
312.299	2.39
312.513	26.96
312.727	20.82
312.941	-32.43
313.154	45.4
313.368	-20.14
313.582	14.68
313.796	2.39
314.009	6.49
314.223	-20.14
314.437	110.93
314.651	26.96
314.864	41.3
315.078	-24.23
315.292	26.96
315.505	-40.62
315.719	-18.09
315.933	-20.14
316.146	55.64
316.36	12.63
316.573	26.96
316.787	-16.04
317.001	35.16
317.214	8.53
317.428	14.68
317.641	-20.14
317.855	-36.52
318.068	-1.71
318.282	24.92
318.495	51.54
318.709	-1.71
318.922	4.44
319.136	-42.67
319.349	-32.43
319.563	-11.95
319.776	76.12
319.99	80.21
320.203	-16.04
320.417	12.63
320.63	-13.99
320.843	26.96
321.057	-16.04
321.27	-42.67
321.483	49.49
321.697	31.06
321.91	47.44
322.124	16.73
322.337	39.25
322.55	-38.57
322.763	-16.04
322.977	37.2
323.19	45.4
323.403	29.01
323.617	-1.71
323.83	-22.19
324.043	0.34
324.256	49.49
324.469	-20.14
324.683	45.4
324.896	-11.95
325.109	10.58
325.322	0.34
325.535	74.07
325.748	12.63
325.962	33.11
326.175	-9.9
326.388	-13.99
326.601	14.68
326.814	2.39
327.027	41.3
327.24	67.92
327.453	-42.67
327.666	74.07
327.879	6.49
328.092	51.54
328.305	59.73
328.518	65.88
328.731	-1.71
328.944	24.92
329.157	-52.91
329.37	8.53
329.583	45.4
329.796	0.34
330.009	-36.52
330.222	49.49
330.435	-5.8
330.648	0.34
330.861	29.01
331.073	-1.71
331.286	67.92
331.499	-5.8
331.712	-57
331.925	-7.85
332.138	35.16
332.35	24.92
332.563	-73.39
332.776	61.78
332.989	26.96
333.202	4.44
333.414	-26.28
333.627	35.16
333.84	-28.33
334.053	-1.71
334.265	-26.28
334.478	37.2
334.691	16.73
334.903	18.77
335.116	-48.81
335.329	47.44
335.541	10.58
335.754	-32.43
335.966	45.4
336.179	-38.57
336.392	-18.09
336.604	53.59
336.817	-7.85
337.029	-20.14
337.242	65.88
337.454	2.39
337.667	8.53
337.88	-1.71
338.092	4.44
338.305	49.49
338.517	-48.81
338.729	100.69
338.942	51.54
339.154	59.73
339.367	6.49
339.579	0.34
339.792	24.92
340.004	47.44
340.217	12.63
340.429	59.73
340.641	-24.23
340.854	-11.95
341.066	22.87
341.278	-5.8
341.491	16.73
341.703	94.55
341.915	49.49
342.128	88.4
342.34	55.64
342.552	29.01
342.764	43.35
342.977	-3.75
343.189	29.01
343.401	-24.23
343.613	14.68
343.826	-5.8
344.038	24.92
344.25	45.4
344.462	-28.33
344.674	16.73
344.886	31.06
345.099	-3.75
345.311	16.73
345.523	-65.19
345.735	4.44
345.947	4.44
346.159	-46.76
346.371	49.49
346.583	37.2
346.795	4.44
347.007	41.3
347.219	6.49
347.431	8.53
347.643	-11.95
347.855	22.87
348.067	24.92
348.279	-52.91
348.491	29.01
348.703	43.35
348.915	43.35
349.127	12.63
349.339	2.39
349.551	-36.52
349.763	10.58
349.975	-5.8
350.187	51.54
350.399	-38.57
350.61	-1.71
350.822	8.53
351.034	41.3
351.246	88.4
351.458	8.53
351.669	16.73
351.881	4.44
352.093	-34.47
352.305	86.36
352.517	-32.43
352.728	69.97
352.94	20.82
353.152	22.87
353.363	-18.09
353.575	-52.91
353.787	10.58
353.999	-16.04
354.21	20.82
354.422	-22.19
354.633	24.92
354.845	2.39
355.057	-24.23
355.268	24.92
355.48	33.11
355.692	-69.29
355.903	29.01
356.115	16.73
356.326	57.68
356.538	84.31
356.749	16.73
356.961	67.92
357.172	8.53
357.384	24.92
357.595	-11.95
357.807	67.92
358.018	24.92
358.23	31.06
358.441	35.16
358.653	26.96
358.864	47.44
359.075	-50.86
359.287	55.64
359.498	53.59
359.709	43.35
359.921	24.92
360.132	37.2
360.344	37.2
360.555	-13.99
360.766	10.58
360.977	12.63
361.189	76.12
361.4	24.92
361.611	6.49
361.823	-67.24
362.034	4.44
362.245	-11.95
362.456	29.01
362.667	-22.19
362.879	-30.38
363.09	-24.23
363.301	78.16
363.512	-32.43
363.723	78.16
363.935	-26.28
364.146	37.2
364.357	-11.95
364.568	82.26
364.779	14.68
364.99	94.55
365.201	31.06
365.412	-9.9
365.623	-9.9
365.834	-1.71
366.045	47.44
366.256	33.11
366.467	-5.8
366.678	-1.71
366.889	4.44
367.1	-1.71
367.311	63.83
367.522	-7.85
367.733	-36.52
367.944	37.2
368.155	61.78
368.366	26.96
368.577	-7.85
368.788	45.4
368.999	12.63
369.209	6.49
369.42	16.73
369.631	18.77
369.842	-7.85
370.053	117.08
370.264	63.83
370.474	-7.85
370.685	-40.62
370.896	-3.75
371.107	29.01
371.317	-24.23
371.528	49.49
371.739	96.6
371.95	45.4
372.16	-59.05
372.371	10.58
372.582	53.59
372.792	33.11
373.003	20.82
373.214	-1.71
373.424	61.78
373.635	-16.04
373.846	117.08
374.056	24.92
374.267	98.64
374.477	-24.23
374.688	31.06
374.898	24.92
375.109	80.21
375.319	18.77
375.53	-16.04
375.74	-1.71
375.951	94.55
376.161	67.92
376.372	57.68
376.582	-7.85
376.793	2.39
377.003	45.4
377.214	31.06
377.424	35.16
377.635	45.4
377.845	24.92
378.055	29.01
378.266	53.59
378.476	4.44
378.686	-63.15
378.897	39.25
379.107	29.01
379.317	43.35
379.528	-1.71
379.738	33.11
379.948	-34.47
380.158	22.87
380.369	-9.9
380.579	-9.9
380.789	49.49
380.999	47.44
381.21	82.26
381.42	-24.23
381.63	29.01
381.84	24.92
382.05	-11.95
382.261	37.2
382.471	2.39
382.681	80.21
382.891	16.73
383.101	-1.71
383.311	22.87
383.521	18.77
383.731	72.02
383.941	57.68
384.151	-44.71
384.361	-5.8
384.571	26.96
384.781	49.49
384.991	59.73
385.201	53.59
385.411	51.54
385.621	2.39
385.831	24.92
386.041	102.74
386.251	4.44
386.461	74.07
386.671	92.5
386.881	29.01
387.091	47.44
387.301	16.73
387.511	33.11
387.72	61.78
387.93	55.64
388.14	78.16
388.35	80.21
388.56	18.77
388.769	41.3
388.979	92.5
389.189	2.39
389.399	22.87
389.609	16.73
389.818	76.12
390.028	49.49
390.238	53.59
390.447	96.6
390.657	49.49
390.867	35.16
391.076	-13.99
391.286	-9.9
391.496	-69.29
391.705	-22.19
391.915	20.82
392.125	33.11
392.334	35.16
392.544	61.78
392.753	49.49
392.963	55.64
393.172	110.93
393.382	26.96
393.591	14.68
393.801	33.11
394.01	74.07
394.22	-13.99
394.429	26.96
394.639	16.73
394.848	37.2
395.058	18.77
395.267	22.87
395.477	16.73
395.686	57.68
395.895	92.5
396.105	82.26
396.314	69.97
396.524	78.16
396.733	39.25
396.942	84.31
397.152	57.68
397.361	12.63
397.57	33.11
397.78	135.51
397.989	57.68
398.198	14.68
398.407	-5.8
398.617	0.34
398.826	51.54
399.035	96.6
399.244	98.64
399.453	100.69
399.663	43.35
399.872	96.6
400.081	45.4
400.29	51.54
400.499	24.92
400.708	45.4
400.917	49.49
401.127	80.21
401.336	123.22
401.545	90.45
401.754	12.63
401.963	41.3
402.172	67.92
402.381	-5.8
402.59	104.79
402.799	76.12
403.008	110.93
403.217	76.12
403.426	53.59
403.635	26.96
403.844	139.6
404.053	102.74
404.262	49.49
404.471	76.12
404.68	51.54
404.888	135.51
405.097	49.49
405.306	69.97
405.515	86.36
405.724	155.99
405.933	110.93
406.142	72.02
406.35	26.96
406.559	127.32
406.768	100.69
406.977	147.8
407.185	119.12
407.394	110.93
407.603	149.84
407.812	182.61
408.02	137.56
408.229	141.65
408.438	98.64
408.646	127.32
408.855	170.32
409.064	209.23
409.272	151.89
409.481	182.61
409.69	233.81
409.898	172.37
410.107	198.99
410.315	217.43
410.524	139.6
410.733	180.56
410.941	151.89
411.15	258.39
411.358	276.82
411.567	227.67
411.775	246.1
411.984	270.67
412.192	221.52
412.401	225.62
412.609	278.87
412.818	295.25
413.026	217.43
413.234	282.96
413.443	301.39
413.651	360.78
413.86	383.31
414.068	360.78
414.276	371.02
414.485	471.37
414.693	334.16
414.901	469.33
415.11	473.42
415.318	483.66
415.526	481.61
415.734	475.47
415.943	463.18
416.151	473.42
416.359	479.57
416.567	573.77
416.776	551.24
416.984	553.29
417.192	569.68
417.4	618.83
417.608	606.54
417.817	725.32
418.025	674.12
418.233	706.89
418.441	753.99
418.649	762.19
418.857	819.53
419.065	774.47
419.273	846.15
419.481	891.21
419.689	917.83
419.897	1001.8
420.105	987.46
420.313	1067.33
420.521	973.13
420.729	1122.63
420.937	1134.92
421.145	1077.57
421.353	1212.74
421.561	1184.07
421.769	1265.99
421.977	1302.85
422.185	1259.84
422.393	1403.2
422.601	1513.79
422.809	1397.06
423.017	1495.36
423.224	1474.88
423.432	1612.09
423.64	1624.38
423.848	1638.72
424.056	1745.21
424.263	1843.51
424.471	1898.81
424.679	1829.18
424.887	2015.54
425.094	2040.12
425.302	2025.78
425.51	2183.48
425.718	2099.51
425.925	2244.92
426.133	2310.45
426.341	2439.47
426.548	2418.99
426.756	2576.69
426.964	2529.58
427.171	2812.2
427.379	2881.83
427.586	2779.43
427.794	3002.66
428.001	2990.38
428.209	3193.12
428.417	3103.01
428.624	3320.1
428.832	3365.15
429.039	3377.44
429.247	3324.19
429.454	3594.53
429.662	3834.14
429.869	3701.02
430.076	3827.99
430.284	3795.23
430.491	4024.6
430.699	4124.95
430.906	4192.53
431.114	4200.73
431.321	4356.37
431.528	4516.11
431.736	4661.52
431.943	4991.24
432.15	4866.32
432.358	4917.51
432.565	5112.07
432.772	5122.31
432.979	5415.17
433.187	5628.16
433.394	5523.71
433.601	5722.37
433.808	5800.19
434.016	5732.61
434.223	6099.19
434.43	6394.1
434.637	6174.97
434.844	6697.2
435.052	6807.79
435.259	6818.03
435.466	6697.2
435.673	6777.07
435.88	7336.17
436.087	7704.8
436.294	7616.74
436.501	7383.27
436.708	7801.05
436.915	7899.36
437.122	8356.05
437.329	8116.44
437.537	8440.02
437.743	8702.16
437.95	8550.61
438.157	9070.79
438.364	9306.31
438.571	9320.65
438.778	9214.15
438.985	10174.65
439.192	9803.97
439.399	10205.37
439.606	9945.28
439.813	10520.76
440.02	10948.78
440.227	10809.52
440.433	10643.63
440.64	11200.68
440.847	11172.01
441.054	11481.25
441.261	12241.05
441.467	12046.49
441.674	12218.52
441.881	12800.15
442.088	12685.46
442.294	12302.49
442.501	12734.61
442.708	13176.97
442.914	13803.65
443.121	14256.25
443.328	13697.16
443.534	14622.84
443.741	14289.02
443.948	14336.12
444.154	15194.22
444.361	15038.58
444.568	15458.41
444.774	15409.26
444.981	15276.14
445.187	15941.73
445.394	16631.9
445.6	16556.12
445.807	17838.15
446.013	17127.5
446.22	17457.23
446.426	18135.1
446.633	18466.88
446.839	19005.49
447.046	18276.41
447.252	19349.55
447.459	18911.28
447.665	18933.81
447.871	19853.35
448.078	20520.99
448.284	19865.64
448.491	20226.08
448.697	20903.96
448.903	21012.5
449.11	21569.55
449.316	21274.64
449.522	21387.28
449.728	22011.91
449.935	22198.27
450.141	22484.99
450.347	22818.81
450.553	21841.93
450.76	22310.91
450.966	22775.8
451.172	22747.13
451.378	23322.61
451.584	22740.99
451.791	23336.95
451.997	23359.47
452.203	23478.26
452.409	23531.5
452.615	23263.22
452.821	22716.41
453.027	22573.05
453.233	23515.12
453.44	22761.47
453.646	22620.16
453.852	23132.15
454.058	23367.66
454.264	22661.12
454.47	22910.97
454.676	22245.38
454.882	23121.91
455.088	21159.95
455.294	21598.22
455.5	21862.41
455.705	22169.6
455.911	21190.67
456.117	20781.08
456.323	20346.91
456.529	19277.87
456.735	20000.8
456.941	19529.77
457.147	19140.66
457.352	18643
457.558	18507.83
457.764	18585.66
457.97	18020.42
458.176	17653.83
458.381	17932.36
458.587	16734.29
458.793	16902.23
458.999	15855.72
459.204	17182.8
459.41	16490.59
459.616	15540.33
459.821	15689.83
460.027	15579.24
460.233	15052.91
460.438	14622.84
460.644	14805.11
460.85	13914.24
461.055	13824.13
461.261	13856.9
461.466	12677.27
461.672	12341.4
461.878	13142.16
462.083	12257.43
462.289	11942.05
462.494	11692.19
462.7	11579.56
462.905	11348.14
463.111	11538.6
463.316	11364.52
463.522	11479.21
463.727	11366.57
463.932	11258.03
464.138	11178.15
464.343	11288.75
464.549	11040.94
464.754	11411.62
464.959	11292.84
465.165	11192.49
465.37	10805.42
465.575	10397.88
465.781	10731.7
465.986	10948.78
466.191	10619.06
466.397	10227.9
466.602	9834.69
466.807	10332.34
467.012	10318.01
467.218	10262.71
467.423	9996.48
467.628	10133.69
467.833	10651.83
468.038	9959.61
468.244	9742.53
468.449	10205.37
468.654	9924.8
468.859	9744.58
469.064	9902.27
469.269	9435.33
469.474	9494.72
469.679	9601.22
469.885	9316.55
470.09	9457.86
470.295	9623.75
470.5	9150.67
470.705	9236.68
470.91	9121.99
471.115	8988.88
471.32	9031.88
471.525	8984.78
471.73	8808.65
471.935	8591.57
472.139	8468.69
472.344	8585.43
472.549	8499.41
472.754	8577.23
472.959	8212.7
473.164	8091.87
473.369	8138.97
473.574	8265.94
473.778	8321.24
473.983	8046.81
474.188	7915.74
474.393	7602.4
474.598	7618.79
474.802	7696.61
475.007	7692.51
475.212	7667.94
475.417	7340.26
475.621	7397.6
475.826	7311.59
476.031	7164.14
476.235	7170.28
476.44	7127.27
476.645	7141.61
476.849	7121.13
477.054	7035.11
477.259	6758.64
477.463	6793.45
477.668	6705.39
477.872	6961.39
478.077	6695.15
478.282	6299.89
478.486	6596.85
478.691	6408.44
478.895	6377.72
479.1	6371.57
479.304	6320.37
479.509	6220.02
479.713	6246.65
479.918	6222.07
480.122	6064.38
480.326	6230.26
480.531	6250.74
480.735	6254.84
480.94	6064.38
481.144	6228.21
481.348	5949.69
481.553	6136.06
481.757	5724.41
481.961	6140.15
482.166	6140.15
482.37	6002.94
482.574	5892.35
482.778	5959.93
482.983	6015.23
483.187	5918.97
483.391	5976.31
483.595	6123.77
483.8	5773.57
484.004	5894.4
484.208	5939.45
484.412	5937.4
484.616	6000.89
484.821	6000.89
485.025	5818.62
485.229	6013.18
485.433	5974.27
485.637	5847.29
485.841	5861.63
486.045	5822.72
486.249	5931.26
486.453	5927.16
486.657	5908.73
486.861	5943.55
487.065	5937.4
487.269	5904.64
487.473	5884.16
487.677	6031.61
487.881	5867.77
488.085	5947.64
488.289	6166.78
488.493	5867.77
488.697	5957.88
488.901	5937.4
489.105	6131.96
489.309	6088.95
489.512	6211.83
489.716	6045.95
489.92	6121.72
490.124	5935.35
490.328	6103.29
490.531	6072.57
490.735	6312.18
490.939	6148.34
491.143	6199.54
491.346	6205.69
491.55	6383.86
491.754	6359.28
491.958	6357.24
492.161	6199.54
492.365	6322.42
492.569	6437.11
492.772	6375.67
492.976	6433.01
493.18	6512.88
493.383	6631.66
493.587	6617.33
493.79	6734.06
493.994	6629.62
494.197	6592.75
494.401	6631.66
494.605	6725.87
494.808	6844.65
495.012	6715.63
495.215	6928.62
495.419	6959.34
495.622	7164.14
495.825	7000.3
496.029	7088.36
496.232	7229.67
496.436	7215.34
496.639	7479.52
496.843	7246.05
497.046	7524.58
497.249	7442.66
497.453	7604.45
497.656	7794.91
497.859	7731.42
498.063	8040.67
498.266	7999.71
498.469	8106.2
498.673	8052.95
498.876	8392.92
499.079	8364.25
499.282	8282.33
499.485	8532.18
499.689	8583.38
499.892	8532.18
500.095	8866
500.298	8921.29
500.501	8876.24
500.705	9038.03
500.908	9126.09
501.111	9285.83
501.314	9476.29
501.517	9500.87
501.72	9773.25
501.923	9685.19
502.126	10129.59
502.329	10113.21
502.532	10336.44
502.735	10266.81
502.938	10383.54
503.141	10305.72
503.344	10731.7
503.547	10850.48
503.75	11157.68
503.953	11286.7
504.156	11221.16
504.359	11311.27
504.562	11389.1
504.765	11665.57
504.968	11798.69
505.17	11948.19
505.373	12050.59
505.576	12224.67
505.779	12441.75
505.982	12505.24
506.185	12746.9
506.387	12820.63
506.59	13088.91
506.793	13262.99
506.996	13269.13
507.198	13633.67
507.401	13471.88
507.604	13873.28
507.807	13977.73
508.009	14205.05
508.212	14055.55
508.415	14649.46
508.617	14901.36
508.82	14870.64
509.022	15018.1
509.225	15437.93
509.428	15734.89
509.63	15661.16
509.833	15714.41
510.035	16193.63
510.238	15962.21
510.44	16619.61
510.643	16443.48
510.845	16615.51
511.048	16732.25
511.25	17039.44
511.453	17139.79
511.655	18085.95
511.858	17672.26
512.06	17723.46
512.262	18370.62
512.465	17854.53
512.667	18585.66
512.87	18970.68
513.072	18847.8
513.274	19273.78
513.477	19503.15
513.679	19462.19
513.881	20066.34
514.084	20099.11
514.286	20285.47
514.488	20764.7
514.69	20934.68
514.893	21329.94
515.095	21295.12
515.297	21374.99
515.499	21999.62
515.701	22091.78
515.904	22104.07
516.106	22435.84
516.308	22917.11
516.51	22898.68
516.712	23269.36
516.914	23463.92
517.116	23635.95
517.318	24233.96
517.52	24231.91
517.722	24401.89
517.925	24725.47
518.127	25503.7
518.329	25249.75
518.531	25479.12
518.733	26068.94
518.935	26154.95
519.136	26245.06
519.338	26738.62
519.54	26830.78
519.742	27164.6
519.944	27443.12
520.146	27881.39
520.348	28057.51
520.55	28211.11
520.752	28223.4
520.954	28946.33
521.155	28850.08
521.357	29208.47
521.559	29321.11
521.761	30019.47
521.963	29992.84
522.164	30244.74
522.366	30361.48
522.568	30568.32
522.77	30922.62
522.971	31598.45
523.173	30941.05
523.375	31326.07
523.576	31741.81
523.778	31737.71
523.98	32690.02
524.181	32188.27
524.383	32683.87
524.584	33464.15
524.786	33165.15
524.988	32960.35
525.189	33879.89
525.391	33781.59
525.592	33894.22
525.794	33906.51
525.995	34600.77
526.197	34369.35
526.398	34246.47
526.6	34844.48
526.801	34938.69
527.003	35157.82
527.204	35026.75
527.406	35342.14
527.607	35407.67
527.808	35731.25
528.01	35401.53
528.211	35700.53
528.412	36550.44
528.614	36128.56
528.815	35895.09
529.016	36781.86
529.218	36474.66
529.419	36409.13
529.62	36667.17
529.822	36415.27
530.023	37218.08
530.224	36888.35
530.425	36759.33
530.626	37050.14
530.828	36892.45
531.029	37377.82
531.23	37140.25
531.431	37232.41
531.632	37306.14
531.833	37607.19
532.035	37373.72
532.236	37324.57
532.437	37408.54
532.638	37879.57
532.839	38115.09
533.04	37826.32
533.241	37496.6
533.442	38436.62
533.643	38194.96
533.844	38117.14
534.045	38254.35
534.246	37732.12
534.447	38168.33
534.648	37816.08
534.849	38020.88
535.05	37795.6
535.251	38295.31
535.451	37971.73
535.652	38291.21
535.853	38371.08
536.054	38704.9
536.255	38536.97
536.456	38211.34
536.657	38799.11
536.857	38336.27
537.058	38694.66
537.259	38817.54
537.46	38764.29
537.66	38401.8
537.861	38199.05
538.062	38416.14
538.263	38817.54
538.463	38246.16
538.664	38432.52
538.865	38592.26
539.065	38663.94
539.266	37961.49
539.466	38811.4
539.667	38473.48
539.868	38866.69
540.068	38362.89
540.269	38622.98
540.469	38579.98
540.67	38307.6
540.87	38061.84
541.071	38174.48
541.271	38528.78
541.472	38649.61
541.672	38106.9
541.873	38440.71
542.073	38213.39
542.274	38455.05
542.474	38151.95
542.675	38395.66
542.875	38762.25
543.075	38391.56
543.276	38250.25
543.476	38332.17
543.676	38442.76
543.877	38500.11
544.077	38205.2
544.277	38182.67
544.478	38235.92
544.678	38493.96
544.878	38459.15
545.078	38352.65
545.279	38231.82
545.479	38037.26
545.679	38758.15
545.879	38428.43
546.079	38610.7
546.28	38295.31
546.48	38358.8
546.68	38725.38
546.88	38475.53
547.08	38698.76
547.28	38248.21
547.48	38205.2
547.68	38752.01
547.88	38151.95
548.081	38377.23
548.281	38244.11
548.481	38205.2
548.681	38686.47
548.881	38180.62
549.081	38176.53
549.28	38379.28
549.48	38874.88
549.68	38311.69
549.88	38930.18
550.08	38166.29
550.28	38393.61
550.48	38119.18
550.68	38674.18
550.88	38389.52
551.08	38100.75
551.279	38639.37
551.479	38137.62
551.679	38631.18
551.879	38004.5
552.079	38500.11
552.278	38225.68
552.478	38319.88
552.678	38160.14
552.878	38602.5
553.077	38117.14
553.277	38002.45
553.477	38444.81
553.676	38141.71
553.876	38432.52
554.076	37701.4
554.275	37793.56
554.475	37504.79
554.674	38276.88
554.874	37969.68
555.074	37555.99
555.273	38147.86
555.473	38172.43
555.672	37842.71
555.872	37369.63
556.071	37668.63
556.271	37558.04
556.47	37500.7
556.67	37259.04
556.869	37474.07
557.068	37582.62
557.268	37027.62
557.467	37455.64
557.667	37291.8
557.866	37564.18
558.065	37185.31
558.265	37023.52
558.464	37209.89
558.663	37451.55
558.863	37025.57
559.062	37447.45
559.261	36874.02
559.461	37062.43
559.66	36452.14
559.859	36759.33
560.058	36564.78
560.258	36622.12
560.457	36536.1
560.656	36845.35
560.855	36396.84
561.054	36695.85
561.253	36169.52
561.453	36482.86
561.652	36607.78
561.851	36466.47
562.05	36374.31
562.249	36009.78
562.448	36110.13
562.647	36036.4
562.846	36200.24
563.045	35979.06
563.244	35729.2
563.443	36396.84
563.642	35471.16
563.841	35704.63
564.04	35843.89
564.239	35813.17
564.438	35309.37
564.637	35768.12
564.836	35585.85
565.035	35446.58
565.234	35770.16
565.432	35211.07
565.631	35045.18
565.83	35598.13
566.029	35243.84
566.228	34932.54
566.427	34920.26
566.625	34824
566.824	34572.1
567.023	34955.07
567.222	34314.06
567.42	35014.46
567.619	34611.01
567.818	34563.91
568.016	34182.99
568.215	34940.74
568.414	34182.99
568.612	34422.6
568.811	34109.26
569.01	34197.32
569.208	33664.85
569.407	33761.11
569.605	33552.21
569.804	34172.75
570.002	33240.92
570.201	33871.7
570.4	33259.35
570.598	33365.85
570.797	33361.75
570.995	33202.01
571.193	32919.39
571.392	33322.84
571.59	32583.52
571.789	32753.51
571.987	32868.19
572.186	32679.78
572.384	32431.97
572.582	32657.25
572.781	32810.85
572.979	32325.48
573.177	32284.52
573.376	32415.59
573.574	32051.05
573.772	32237.42
573.971	31637.36
574.169	31653.75
574.367	31283.06
574.565	31494
574.763	31516.53
574.962	31444.85
575.16	31209.34
575.358	31506.29
575.556	30887.81
575.754	31143.8
575.952	30627.71
576.151	31002.49
576.349	30197.64
576.547	30341
576.745	30474.12
576.943	30607.23
577.141	30447.49
577.339	30558.08
577.537	29902.73
577.735	29839.25
577.933	29673.36
578.131	29968.27
578.329	29765.52
578.527	29869.97
578.725	29515.67
578.923	29708.18
579.121	29304.73
579.319	29417.36
579.516	29517.71
579.714	29349.78
579.912	29067.16
580.11	29183.9
580.308	29300.63
580.506	29009.82
580.704	28759.97
580.901	28809.12
581.099	28886.94
581.297	28428.2
581.495	28356.52
581.692	28481.44
581.89	28239.78
582.088	28221.35
582.285	28010.41
582.483	28045.23
582.681	27858.86
582.878	27867.05
583.076	27762.61
583.274	27723.69
583.471	27402.16
583.669	27451.31
583.866	27400.12
584.064	27744.17
584.262	27054.01
584.459	27639.73
584.657	27002.81
584.854	27434.93
585.052	26587.07
585.249	26802.11
585.447	26908.6
585.644	26623.94
585.841	26570.69
586.039	26466.24
586.236	26320.84
586.434	26576.83
586.631	26169.29
586.828	26146.76
587.026	26165.19
587.223	26433.47
587.42	25917.39
587.618	26161.09
587.815	25636.81
588.012	25614.29
588.21	25618.38
588.407	25690.06
588.604	25534.42
588.801	25190.36
588.999	25425.87
589.196	25393.11
589.393	25403.35
589.59	25098.2
589.787	25251.8
589.984	25096.15
590.182	24412.13
590.379	25016.28
590.576	24971.22
590.773	24739.8
590.97	24387.55
591.167	24498.14
591.364	24211.43
591.561	24530.91
591.758	24215.52
591.955	24317.92
592.152	24330.21
592.349	24147.94
592.546	23838.7
592.743	24086.5
592.94	24047.59
593.137	24180.71
593.334	24068.07
593.531	23338.99
593.727	24074.21
593.924	23773.16
594.121	23312.37
594.318	23379.95
594.515	23371.76
594.712	23750.63
594.908	23406.58
595.105	23332.85
595.302	23187.44
595.499	23240.69
595.696	23103.48
595.892	22822.91
596.089	23228.4
596.286	22616.06
596.482	22962.17
596.679	22861.82
596.876	22913.02
597.072	22388.74
597.269	22642.68
597.466	22554.62
597.662	22370.3
597.859	22396.93
598.055	22394.88
598.252	22181.89
598.448	21897.22
598.645	21989.38
598.841	21882.89
599.038	21846.02
599.234	22247.43
599.431	21581.84
599.627	21565.45
599.824	21905.42
600.02	21590.03
600.217	21645.32
600.413	21327.89
600.609	21463.05
600.806	21217.3
601.002	21280.78
601.198	21006.36
601.395	21069.84
601.591	20901.91
601.787	21088.28
601.984	20924.44
602.18	21166.1
602.376	20840.47
602.572	20848.66
602.769	20729.88
602.965	20723.74
603.161	20434.97
603.357	20103.2
603.553	20480.03
603.75	20430.88
603.946	20088.87
604.142	20351.01
604.338	19947.56
604.534	20201.51
604.73	20049.96
604.926	19806.25
605.122	19978.28
605.318	19793.96
605.514	19484.72
605.71	19593.26
605.906	19290.16
606.102	19695.66
606.298	19402.8
606.494	19464.24
606.69	19316.78
606.886	19382.32
607.082	19150.9
607.278	19210.29
607.474	18663.48
607.67	19224.62
607.866	18905.14
608.062	19111.99
608.257	19046.45
608.453	18872.37
608.649	18794.55
608.845	18708.54
609.041	18548.79
609.236	18860.09
609.432	18569.27
609.628	18483.26
609.824	18374.72
610.019	18319.42
610.215	18331.71
610.411	18305.09
610.606	18192.45
610.802	18481.21
610.998	17950.79
611.193	17918.02
611.389	17973.32
611.584	17778.76
611.78	17782.85
611.976	17760.33
612.171	17856.58
612.367	17461.32
612.562	17758.28
612.758	17457.23
612.953	17557.58
613.149	17393.74
613.344	17307.73
613.539	17676.36
613.735	17350.73
613.93	17506.38
614.126	17143.89
614.321	17598.54
614.517	17256.53
614.712	17143.89
614.907	17016.91
615.103	17035.35
615.298	17006.67
615.493	17227.85
615.688	16865.36
615.884	17172.56
616.079	16724.05
616.274	16742.49
616.47	16943.19
616.665	16654.42
616.86	16640.09
617.055	16595.03
617.25	16400.48
617.445	16504.92
617.641	16230.49
617.836	16515.16
618.031	16179.29
618.226	16461.91
618.421	15958.11
618.616	16226.4
618.811	15845.48
619.006	16236.64
619.201	15874.15
619.396	15974.5
619.591	15773.8
619.786	15900.77
619.981	15564.9
620.176	15894.63
620.371	15470.7
620.566	15618.15
620.761	15513.7
620.956	15411.31
621.151	15376.49
621.346	15388.78
621.541	14966.9
621.735	15173.74
621.93	14839.92
622.125	14989.42
622.32	14747.76
622.515	14653.56
622.709	14655.61
622.904	14723.19
623.099	14536.82
623.294	14612.6
623.488	14426.23
623.683	14241.92
623.878	14004.35
624.072	14047.36
624.267	13930.62
624.462	14067.84
624.656	13922.43
624.851	13815.94
625.046	13748.36
625.24	13650.05
625.435	13416.58
625.629	13553.8
625.824	13297.8
626.018	13512.84
626.213	13105.29
626.407	13439.11
626.602	13203.6
626.796	13115.53
626.991	13234.32
627.185	13152.4
627.38	12849.3
627.574	12781.71
627.768	12730.52
627.963	12685.46
628.157	12542.1
628.352	12609.68
628.546	12404.89
628.74	12298.39
628.935	12296.35
629.129	12269.72
629.323	12351.64
629.517	12202.14
629.712	11862.18
629.906	11966.62
630.1	11839.65
630.294	11894.94
630.489	11641
630.683	11772.07
630.877	11415.72
631.071	11428.01
631.265	11618.47
631.459	11403.43
631.653	11198.63
631.848	11450.53
632.042	11073.71
632.236	11159.72
632.43	11083.95
632.624	11159.72
632.818	10997.93
633.012	10870.96
633.206	10913.97
633.4	10963.12
633.594	10897.58
633.788	10916.01
633.982	10897.58
634.176	10764.47
634.369	10631.35
634.563	10289.34
634.757	10539.19
634.951	10526.9
635.145	10508.47
635.339	10219.71
635.533	10309.82
635.726	10330.3
635.92	10168.51
636.114	10315.96
636.308	9937.09
636.501	10076.35
636.695	10045.63
636.889	9818.3
637.083	9715.91
637.276	9881.79
637.47	9728.19
637.664	9664.71
637.857	9588.93
638.051	9621.7
638.244	9523.4
638.438	9609.41
638.632	9511.11
638.825	9351.37
639.019	9136.33
639.212	9160.91
639.406	9287.88
639.599	9203.91
639.793	9085.13
639.986	9052.36
640.18	9089.23
640.373	9109.71
640.567	8894.67
640.76	8968.4
640.954	8853.71
641.147	8792.27
641.34	8614.1
641.534	8687.82
641.727	8646.87
641.92	8925.39
642.114	8464.6
642.307	8583.38
642.5	8470.74
642.694	8325.33
642.887	8224.98
643.08	8376.53
643.273	8245.46
643.467	8308.95
643.66	8151.26
643.853	8061.15
644.046	7975.13
644.239	8065.24
644.432	7905.5
644.626	7958.75
644.819	7715.04
645.012	7780.57
645.205	7901.4
645.398	7721.18
645.591	7571.68
645.784	7698.66
645.977	7510.24
646.17	7495.91
646.363	7493.86
646.556	7278.82
646.749	7274.73
646.942	7387.36
647.135	7305.45
647.328	7356.65
647.521	7229.67
647.714	7033.07
647.907	7196.9
648.099	7297.25
648.292	7270.63
648.485	7090.41
648.678	6940.91
648.871	6985.96
649.064	6879.47
649.256	6856.94
649.449	6635.76
649.642	6742.25
649.835	6639.86
650.027	6695.15
650.22	6678.77
650.413	6523.12
650.605	6559.99
650.798	6519.03
650.991	6433.01
651.183	6396.15
651.376	6402.29
651.568	6342.9
651.761	6314.23
651.954	6324.47
652.146	6232.31
652.339	6156.54
652.531	6007.03
652.724	6047.99
652.916	6078.71
653.109	6138.1
653.301	5830.91
653.494	5910.78
653.686	5705.98
653.879	5804.28
654.071	5851.39
654.263	5865.72
654.456	5841.15
654.648	5787.9
654.84	5720.32
655.033	5536
655.225	5646.59
655.417	5511.43
655.61	5525.76
655.802	5548.29
655.994	5355.78
656.186	5554.43
656.379	5492.99
656.571	5443.84
656.763	5314.82
656.955	5294.34
657.148	5253.38
657.34	5165.32
657.532	5214.47
657.724	5079.3
657.916	5136.65
658.108	4999.43
658.3	4989.19
658.492	5038.34
658.684	4909.32
658.876	4864.27
659.068	4825.36
659.26	4874.51
659.452	4985.1
659.644	4878.6
659.836	4696.33
660.028	4745.48
660.22	4743.44
660.412	4694.29
660.604	4753.68
660.796	4583.7
660.988	4688.14
661.18	4571.41
661.372	4389.14
661.563	4376.85
661.755	4301.08
661.947	4430.1
662.139	4405.52
662.331	4292.88
662.522	4360.47
662.714	4202.77
662.906	4350.23
663.097	4331.8
663.289	4124.95
663.481	4210.97
663.673	4104.47
663.864	4210.97
664.056	4057.37
664.247	4094.23
664.439	4063.51
664.631	3965.21
664.822	4024.6
665.014	4032.79
665.205	4004.12
665.397	3954.97
665.588	3926.3
665.78	3930.39
665.971	3754.27
666.163	3963.16
666.354	3963.16
666.546	3838.23
666.737	3719.45
666.929	3776.8
667.12	3873.05
667.311	3735.84
667.503	3586.33
667.694	3703.07
667.885	3651.87
668.077	3649.82
668.268	3668.25
668.459	3557.66
668.651	3590.43
668.842	3543.33
669.033	3549.47
669.224	3469.6
669.416	3385.63
669.607	3381.54
669.798	3582.24
669.989	3541.28
670.18	3436.83
670.371	3399.97
670.563	3518.75
670.754	3391.78
670.945	3301.67
671.136	3404.07
671.327	3297.57
671.518	3277.09
671.709	3262.76
671.9	3393.83
672.091	3221.8
672.282	3201.32
672.473	3277.09
672.664	3121.45
672.855	3123.49
673.046	3260.71
673.237	3270.95
673.428	3166.5
673.619	3139.88
673.809	3053.86
674	3168.55
674.191	3047.72
674.382	3240.23
674.573	3195.17
674.764	2984.23
674.954	3072.29
675.145	3062.05
675.336	3060.01
675.527	3012.9
675.717	2937.13
675.908	3066.15
676.099	3008.81
676.289	3008.81
676.48	3029.29
676.671	2892.07
676.861	2924.84
677.052	3107.11
677.243	2912.55
677.433	2937.13
677.624	2943.27
677.814	2937.13
678.005	2879.79
678.195	2896.17
678.386	2914.6
678.576	2873.64
678.767	2924.84
678.957	2924.84
679.148	2887.98
679.338	2806.06
679.529	2830.63
679.719	2922.79
679.909	2920.74
680.1	2787.63
680.29	2941.22
680.481	2816.3
680.671	2769.2
680.861	2799.91
681.052	2724.14
681.242	2844.97
681.432	2828.59
681.622	2799.91
681.813	2748.72
682.003	2830.63
682.193	2730.28
682.383	2801.96
682.573	2787.63
682.764	2746.67
682.954	2693.42
683.144	2656.56
683.334	2697.52
683.524	2670.89
683.714	2781.48
683.904	2701.61
684.094	2711.85
684.284	2640.17
684.474	2789.67
684.664	2746.67
684.854	2752.81
685.044	2580.78
685.234	2629.93
685.424	2650.41
685.614	2584.88
685.804	2648.36
685.994	2601.26
686.184	2677.04
686.374	2691.37
686.564	2681.13
686.753	2562.35
686.943	2574.64
687.133	2607.41
687.323	2650.41
687.513	2699.56
687.702	2601.26
687.892	2591.02
688.082	2693.42
688.272	2586.93
688.461	2593.07
688.651	2623.79
688.841	2578.73
689.03	2572.59
689.22	2703.66
689.41	2552.11
689.599	2591.02
689.789	2623.79
689.979	2644.27
690.168	2619.69
690.358	2582.83
690.547	2640.17
690.737	2611.5
690.926	2576.69
691.116	2580.78
691.305	2636.08
691.495	2554.16
691.684	2488.62
691.874	2623.79
692.063	2537.77
692.252	2683.18
692.442	2584.88
692.631	2545.97
692.82	2525.49
693.01	2521.39
693.199	2560.3
693.388	2586.93
693.578	2683.18
693.767	2513.2
693.956	2599.21
694.146	2539.82
694.335	2586.93
694.524	2449.71
694.713	2625.84
694.902	2531.63
695.092	2554.16
695.281	2560.3
695.47	2543.92
695.659	2556.21
695.848	2462
696.037	2517.29
696.226	2656.56
696.415	2623.79
696.604	2603.31
696.793	2554.16
696.982	2523.44
697.171	2515.25
697.36	2646.32
697.549	2421.04
697.738	2629.93
697.927	2427.18
698.116	2728.24
698.305	2599.21
698.494	2478.38
698.683	2470.19
698.872	2509.1
699.061	2511.15
699.25	2562.35
699.438	2531.63
699.627	2445.62
699.816	2591.02
700.005	2568.49
700.193	2552.11
700.382	2550.06
700.571	2513.2
700.76	2554.16
700.948	2593.07
701.137	2552.11
701.326	2578.73
701.514	2539.82
701.703	2521.39
701.892	2527.53
702.08	2576.69
702.269	2560.3
702.457	2449.71
702.646	2462
702.834	2613.55
703.023	2550.06
703.212	2480.43
703.4	2505.01
703.589	2566.45
703.777	2537.77
703.965	2400.56
704.154	2482.48
704.342	2511.15
704.531	2490.67
704.719	2464.05
704.907	2455.86
705.096	2337.07
705.284	2378.03
705.472	2421.04
705.661	2459.95
705.849	2541.87
706.037	2355.51
706.226	2433.33
706.414	2490.67
706.602	2412.85
706.79	2429.23
706.979	2441.52
707.167	2412.85
707.355	2380.08
707.543	2423.09
707.731	2404.66
707.919	2279.73
708.107	2310.45
708.296	2320.69
708.484	2330.93
708.672	2289.97
708.86	2322.74
709.048	2279.73
709.236	2285.87
709.424	2275.63
709.612	2277.68
709.8	2117.94
709.988	2273.59
710.176	2128.18
710.364	2337.07
710.551	2195.76
710.739	2310.45
710.927	2242.87
711.115	2214.2
711.303	2163
711.491	2113.85
711.679	2091.32
711.866	2140.47
712.054	2183.48
712.242	2189.62
712.43	2181.43
712.617	2070.84
712.805	2224.44
712.993	2093.37
713.181	1970.49
713.368	2142.52
713.556	2117.94
713.744	2050.36
713.931	2023.73
714.119	2185.52
714.306	2054.45
714.494	2025.78
714.682	2066.74
714.869	2085.17
715.057	2040.12
715.244	2044.21
715.432	2048.31
715.619	1964.34
715.807	1999.16
715.994	2025.78
716.182	1970.49
716.369	1888.57
716.556	1986.87
716.744	1900.86
716.931	1866.04
717.119	1995.06
717.306	2036.02
717.493	1921.34
717.681	1927.48
717.868	1978.68
718.055	1829.18
718.242	1904.95
718.43	1800.51
718.617	1859.9
718.804	1827.13
718.991	1739.07
719.179	1904.95
719.366	1843.51
719.553	1831.23
719.74	1866.04
719.927	1814.84
720.114	1872.18
720.301	1818.94
720.488	1775.93
720.676	1794.36
720.863	1792.31
721.05	1759.55
721.237	1780.03
721.424	1806.65
721.611	1790.27
721.798	1771.83
721.985	1642.81
722.172	1741.11
722.358	1814.84
722.545	1773.88
722.732	1794.36
722.919	1687.87
723.106	1712.44
723.293	1743.16
723.48	1626.43
723.667	1634.62
723.853	1589.57
724.04	1667.39
724.227	1655.1
724.414	1610.04
724.6	1732.92
724.787	1665.34
724.974	1681.72
725.161	1640.76
725.347	1538.37
725.534	1706.3
725.72	1558.85
725.907	1562.94
726.094	1616.19
726.28	1524.03
726.467	1577.28
726.653	1454.4
726.84	1595.71
727.027	1597.76
727.213	1464.64
727.4	1577.28
727.586	1489.21
727.773	1395.01
727.959	1487.17
728.145	1470.78
728.332	1499.45
728.518	1495.36
728.705	1481.02
728.891	1462.59
729.077	1556.8
729.264	1544.51
729.45	1427.78
729.636	1405.25
729.823	1427.78
730.009	1444.16
730.195	1405.25
730.382	1407.3
730.568	1509.69
730.754	1431.87
730.94	1356.1
731.126	1382.72
731.313	1319.23
731.499	1374.53
731.685	1429.82
731.871	1442.11
732.057	1431.87
732.243	1423.68
732.429	1397.06
732.615	1481.02
732.801	1464.64
732.987	1374.53
733.173	1317.19
733.359	1401.15
733.545	1329.47
733.731	1352
733.917	1362.24
734.103	1218.88
734.289	1384.77
734.475	1401.15
734.661	1358.14
734.847	1358.14
735.033	1329.47
735.219	1304.9
735.404	1386.82
735.59	1212.74
735.776	1198.4
735.962	1306.95
736.148	1302.85
736.333	1333.57
736.519	1341.76
736.705	1290.56
736.89	1222.98
737.076	1296.71
737.262	1214.79
737.447	1265.99
737.633	1288.51
737.819	1202.5
738.004	1214.79
738.19	1204.55
738.375	1259.84
738.561	1225.03
738.747	1257.79
738.932	1202.5
739.118	1200.45
739.303	1237.31
739.489	1231.17
739.674	1102.15
739.859	1206.59
740.045	1143.11
740.23	1179.97
740.416	1220.93
740.601	1192.26
740.786	1249.6
740.972	1116.48
741.157	1124.68
741.342	1100.1
741.528	1173.83
741.713	1167.68
741.898	1118.53
742.084	1141.06
742.269	1116.48
742.454	1034.57
742.639	1100.1
742.824	1014.09
743.01	1057.09
743.195	1065.29
743.38	991.56
743.565	1061.19
743.75	1100.1
743.935	975.17
744.12	1003.85
744.305	956.74
744.49	1128.77
744.675	973.13
744.86	1065.29
745.045	1036.61
745.23	1032.52
745.415	1057.09
745.6	1012.04
745.785	1014.09
745.97	944.45
746.155	950.6
746.34	930.12
746.525	940.36
746.71	1005.89
746.895	1016.13
747.079	909.64
747.264	1053
747.449	1007.94
747.634	940.36
747.819	962.89
748.003	1018.18
748.188	874.82
748.373	946.5
748.557	936.26
748.742	989.51
748.927	956.74
749.111	966.98
749.296	903.5
749.481	899.4
749.665	926.02
749.85	799.05
750.034	876.87
750.219	854.34
750.404	858.44
750.588	889.16
750.773	907.59
750.957	811.34
751.141	774.47
751.326	864.58
751.51	809.29
751.695	805.19
751.879	784.71
752.064	807.24
752.248	727.37
752.432	840.01
752.617	829.77
752.801	721.23
752.985	833.86
753.17	874.82
753.354	727.37
753.538	792.91
753.722	645.45
753.907	788.81
754.091	741.71
754.275	840.01
754.459	751.95
754.643	782.67
754.828	776.52
755.012	735.56
755.196	698.7
755.38	766.28
755.564	713.03
755.748	692.55
755.932	704.84
756.116	645.45
756.3	676.17
756.484	749.9
756.668	670.03
756.852	715.08
757.036	721.23
757.22	715.08
757.404	758.09
757.588	715.08
757.772	672.08
757.956	643.4
758.14	610.64
758.323	622.92
758.507	670.03
758.691	594.25
758.875	563.53
759.059	629.07
759.242	622.92
759.426	596.3
759.61	584.01
759.794	594.25
759.977	604.49
760.161	602.44
760.345	602.44
760.528	627.02
760.712	639.31
760.895	553.29
761.079	620.88
761.263	547.15
761.446	512.33
761.63	557.39
761.813	549.2
761.997	573.77
762.18	557.39
762.364	577.87
762.547	446.8
762.731	618.83
762.914	596.3
763.098	516.43
763.281	557.39
763.464	545.1
763.648	549.2
763.831	469.33
764.015	596.3
764.198	543.05
764.381	479.57
764.564	530.77
764.748	622.92
764.931	454.99
765.114	530.77
765.297	596.3
765.481	543.05
765.664	555.34
765.847	618.83
766.03	526.67
766.213	551.24
766.397	518.48
766.58	477.52
766.763	543.05
766.946	555.34
767.129	534.86
767.312	565.58
767.495	559.44
767.678	536.91
767.861	493.9
768.044	563.53
768.227	512.33
768.41	551.24
768.593	463.18
768.776	553.29
768.959	477.52
769.142	491.85
769.324	487.76
769.507	407.89
769.69	524.62
769.873	424.27
770.056	498
770.239	438.61
770.421	420.17
770.604	442.7
770.787	459.09
770.97	469.33
771.152	428.37
771.335	471.37
771.518	454.99
771.7	444.75
771.883	471.37
772.066	461.13
772.248	473.42
772.431	452.94
772.613	495.95
772.796	491.85
772.978	366.93
773.161	397.65
773.343	407.89
773.526	483.66
773.708	457.04
773.891	450.89
774.073	432.46
774.256	391.5
774.438	459.09
774.621	469.33
774.803	440.65
774.985	416.08
775.168	432.46
775.35	397.65
775.532	411.98
775.715	299.34
775.897	383.31
776.079	418.13
776.261	397.65
776.444	411.98
776.626	446.8
776.808	395.6
776.99	362.83
777.173	303.44
777.355	495.95
777.537	340.3
777.719	366.93
777.901	377.17
778.083	381.26
778.265	325.97
778.447	381.26
778.629	309.58
778.811	418.13
778.993	354.64
779.175	389.46
779.357	391.5
779.539	366.93
779.721	311.63
779.903	452.94
780.085	362.83
780.267	346.45
780.449	317.78
780.631	409.94
780.812	375.12
780.994	338.26
781.176	282.96
781.358	348.5
781.54	256.34
781.721	330.06
781.903	315.73
782.085	293.2
782.267	307.54
782.448	274.77
782.63	342.35
782.812	272.72
782.993	287.06
783.175	336.21
783.357	301.39
783.538	323.92
783.72	282.96
783.901	252.24
784.083	287.06
784.264	330.06
784.446	256.34
784.627	233.81
784.809	274.77
784.99	282.96
785.172	256.34
785.353	268.63
785.535	282.96
785.716	311.63
785.897	213.33
786.079	221.52
786.26	321.87
786.441	235.86
786.623	231.76
786.804	301.39
786.985	213.33
787.167	227.67
787.348	321.87
787.529	254.29
787.71	237.91
787.891	301.39
788.073	239.95
788.254	323.92
788.435	217.43
788.616	227.67
788.797	235.86
788.978	207.19
789.159	184.66
789.34	180.56
789.522	262.48
789.703	217.43
789.884	168.27
790.065	248.15
790.246	145.75
790.427	223.57
790.607	295.25
790.788	221.52
790.969	180.56
791.15	223.57
791.331	188.75
791.512	201.04
791.693	192.85
791.874	250.19
792.054	285.01
792.235	217.43
792.416	221.52
792.597	160.08
792.778	203.09
792.958	196.95
793.139	209.23
793.32	182.61
793.5	143.7
793.681	182.61
793.862	201.04
794.042	205.14
794.223	158.03
794.404	164.18
794.584	80.21
794.765	135.51
794.945	137.56
795.126	143.7
795.306	112.98
795.487	168.27
795.667	158.03
795.848	155.99
796.028	155.99
796.209	166.23
796.389	145.75
796.57	115.03
796.75	188.75
796.93	121.17
797.111	160.08
797.291	72.02
797.471	135.51
797.652	90.45
797.832	67.92
798.012	141.65
798.192	172.37
798.373	186.71
798.553	180.56
798.733	129.36
798.913	135.51
799.093	133.46
799.274	149.84
799.454	164.18
799.634	119.12
799.814	88.4
799.994	168.27
800.174	98.64
800.354	49.49
800.534	98.64
800.714	174.42
800.894	45.4
801.074	164.18
801.254	129.36
801.434	106.84
801.614	164.18
801.794	82.26
801.974	262.48
802.154	94.55
802.334	74.07
802.514	94.55
802.693	100.69
802.873	121.17
803.053	72.02
803.233	149.84
803.413	117.08
803.592	131.41
803.772	59.73
803.952	106.84
804.131	98.64
804.311	102.74
804.491	112.98
804.67	49.49
804.85	145.75
805.03	119.12
805.209	205.14
805.389	69.97
805.568	139.6
805.748	106.84
805.928	86.36
806.107	117.08
806.287	180.56
806.466	135.51
806.646	37.2
806.825	72.02
807.004	119.12
807.184	127.32
807.363	59.73
807.543	86.36
807.722	90.45
807.901	137.56
808.081	135.51
808.26	74.07
808.439	80.21
808.619	26.96
808.798	155.99
808.977	78.16
809.156	164.18
809.336	96.6
809.515	125.27
809.694	53.59
809.873	135.51
810.052	14.68
810.231	123.22
810.411	121.17
810.59	123.22
810.769	78.16
810.948	139.6
811.127	104.79
811.306	92.5
811.485	16.73
811.664	72.02
811.843	104.79
812.022	141.65
812.201	94.55
812.38	149.84
812.559	31.06
812.737	47.44
812.916	102.74
813.095	108.88
813.274	94.55
813.453	10.58
813.632	174.42
813.811	86.36
813.989	74.07
814.168	123.22
814.347	82.26
814.526	90.45
814.704	65.88
814.883	92.5
815.062	98.64
815.24	102.74
815.419	84.31
815.598	74.07
815.776	39.25
815.955	31.06
816.133	86.36
816.312	94.55
816.49	59.73
816.669	123.22
816.847	49.49
817.026	96.6
817.204	86.36
817.383	104.79
817.561	41.3
817.74	26.96
817.918	147.8
818.097	4.44
818.275	43.35
818.453	39.25
818.632	31.06
818.81	29.01
818.988	72.02
819.167	49.49
819.345	12.63
819.523	51.54
819.701	47.44
819.879	84.31
820.058	63.83
820.236	92.5
820.414	57.68
820.592	90.45
820.77	88.4
820.948	149.84
821.127	33.11
821.305	94.55
821.483	24.92
821.661	92.5
821.839	57.68
822.017	-7.85
822.195	117.08
822.373	69.97
822.551	35.16
822.729	125.27
822.907	10.58
823.085	65.88
823.262	-13.99
823.44	90.45
823.618	137.56
823.796	47.44
823.974	106.84
824.152	20.82
824.329	65.88
824.507	65.88
824.685	24.92
824.863	72.02
825.04	24.92
825.218	35.16
825.396	82.26
825.574	18.77
825.751	69.97
825.929	90.45
826.107	45.4
826.284	31.06
826.462	22.87
826.639	-11.95
826.817	86.36
826.994	0.34
827.172	24.92
827.349	131.41
827.527	41.3
827.704	-1.71
827.882	22.87
828.059	102.74
828.237	4.44
828.414	88.4
828.591	53.59
828.769	51.54
828.946	37.2
829.124	67.92
829.301	74.07
829.478	24.92
829.655	100.69
829.833	-26.28
830.01	43.35
830.187	-3.75
830.364	45.4
830.542	51.54
830.719	37.2
830.896	4.44
831.073	31.06
831.25	37.2
831.427	49.49
831.604	-20.14
831.782	47.44
831.959	47.44
832.136	61.78
832.313	29.01
832.49	8.53
832.667	59.73
832.844	-28.33
833.021	20.82
833.198	-3.75
833.374	-50.86
833.551	-24.23
833.728	29.01
833.905	-26.28
834.082	20.82
834.259	119.12
834.436	100.69
834.612	6.49
834.789	22.87
834.966	69.97
835.143	-28.33
835.319	115.03
835.496	45.4
835.673	24.92
835.85	59.73
836.026	-5.8
836.203	-3.75
836.38	61.78
836.556	-26.28
836.733	24.92
836.909	18.77
837.086	49.49
837.262	4.44
837.439	16.73
837.616	65.88
837.792	4.44
837.968	33.11
838.145	37.2
838.321	-3.75
838.498	35.16
838.674	49.49
838.851	12.63
839.027	0.34
839.203	-7.85
839.38	-7.85
839.556	69.97
839.732	8.53
839.909	80.21
840.085	61.78
840.261	-13.99
840.437	-20.14
840.614	39.25
840.79	92.5
840.966	-11.95
841.142	39.25
841.318	84.31
841.494	31.06
841.671	-1.71
841.847	24.92
842.023	10.58
842.199	26.96
842.375	20.82
842.551	29.01
842.727	-1.71
842.903	57.68
843.079	0.34
843.255	-11.95
843.431	57.68
843.607	37.2
843.783	47.44
843.959	78.16
844.134	8.53
844.31	43.35
844.486	35.16
844.662	-20.14
844.838	45.4
845.013	22.87
845.189	119.12
845.365	94.55
845.541	-18.09
845.716	2.39
845.892	-65.19
846.068	-5.8
846.244	12.63
846.419	41.3
846.595	-9.9
846.77	53.59
846.946	-9.9
847.122	14.68
847.297	55.64
847.473	49.49
847.648	8.53
847.824	29.01
847.999	33.11
848.175	43.35
848.35	33.11
848.526	18.77
848.701	-5.8
848.876	35.16
849.052	72.02
849.227	-11.95
849.403	57.68
849.578	-1.71
849.753	65.88
849.929	41.3
850.104	49.49
850.279	39.25
850.454	53.59
850.63	37.2
850.805	53.59
850.98	-44.71
851.155	0.34
851.33	-3.75
851.505	-24.23
851.681	45.4
851.856	0.34
852.031	24.92
852.206	53.59
852.381	2.39
852.556	31.06
852.731	49.49
852.906	14.68
853.081	45.4
853.256	-28.33
853.431	0.34
853.606	-46.76
853.781	-44.71
853.956	-42.67
854.131	-7.85
854.305	26.96
854.48	51.54
854.655	-34.47
854.83	18.77
855.005	-42.67
855.18	-42.67
855.354	41.3
855.529	35.16
855.704	14.68
855.879	-1.71
856.053	39.25
856.228	-24.23
856.403	63.83
856.577	14.68
856.752	-26.28
856.926	-13.99
857.101	6.49
857.276	-44.71
857.45	-18.09
857.625	20.82
857.799	-26.28
857.974	-7.85
858.148	106.84
858.323	0.34
858.497	-28.33
858.672	-9.9
858.846	-1.71
859.02	0.34
859.195	0.34
859.369	-71.34
859.543	63.83
859.718	104.79
859.892	47.44
860.066	-16.04
860.241	55.64
860.415	-28.33
860.589	-16.04
860.763	-5.8
860.938	51.54
861.112	20.82
861.286	-28.33
861.46	78.16
861.634	-16.04
861.808	86.36
861.982	-16.04
862.157	35.16
862.331	10.58
862.505	31.06
862.679	57.68
862.853	0.34
863.027	33.11
863.201	-22.19
863.375	31.06
863.549	-32.43
863.722	55.64
863.896	-1.71
864.07	-22.19
864.244	24.92
864.418	8.53
864.592	20.82
864.766	-42.67
864.939	0.34
865.113	2.39
865.287	20.82
865.461	-24.23
865.634	-44.71
865.808	49.49
865.982	-7.85
866.156	-5.8
866.329	-32.43
866.503	-32.43
866.676	33.11
866.85	-22.19
867.024	35.16
867.197	37.2
867.371	0.34
867.544	55.64
867.718	55.64
867.891	-81.58
868.065	63.83
868.238	-11.95
868.412	6.49
868.585	16.73
868.759	-24.23
868.932	4.44
869.105	24.92
869.279	-16.04
869.452	-28.33
869.625	-3.75
869.799	29.01
869.972	-95.91
870.145	41.3
870.319	-24.23
870.492	-9.9
870.665	-5.8
870.838	-34.47
871.011	24.92
871.185	-38.57
871.358	4.44
871.531	33.11
871.704	2.39
871.877	14.68
872.05	-26.28
872.223	-5.8
872.396	10.58
872.569	0.34
872.742	4.44
872.915	-77.48
873.088	-34.47
873.261	-7.85
873.434	-24.23
873.607	-11.95
873.78	-1.71
873.953	2.39
874.126	-22.19
874.299	14.68
874.471	-34.47
874.644	24.92
874.817	-22.19
874.99	8.53
875.163	22.87
875.335	-1.71
875.508	-20.14
875.681	10.58
875.853	20.82
876.026	-26.28
876.199	24.92
876.371	-18.09
876.544	-48.81
876.717	10.58
876.889	6.49
877.062	26.96
877.234	-32.43
877.407	41.3
877.579	-48.81
877.752	-22.19
877.924	-46.76
878.097	8.53
878.269	-54.95
878.442	24.92
878.614	-44.71
878.786	-3.75
878.959	-54.95
879.131	-32.43
879.303	-7.85
879.476	45.4
879.648	47.44
879.82	8.53
879.993	12.63
880.165	43.35
880.337	-42.67
880.509	-1.71
880.681	76.12
880.854	18.77
881.026	45.4
881.198	-16.04
881.37	10.58
881.542	-5.8
881.714	-11.95
881.886	29.01
882.058	-13.99
882.23	-24.23
882.402	-63.15
882.574	-34.47
882.746	-54.95
882.918	26.96
883.09	-67.24
883.262	0.34
883.434	-16.04
883.606	29.01
883.778	8.53
883.95	12.63
884.122	0.34
884.293	-11.95
884.465	-9.9
884.637	-77.48
884.809	16.73
884.98	-7.85
885.152	-30.38
885.324	-7.85
885.496	-52.91
885.667	-26.28
885.839	6.49
886.011	39.25
886.182	33.11
886.354	41.3
886.525	4.44
886.697	-9.9
886.869	4.44
887.04	-65.19
887.212	2.39
887.383	26.96
887.555	76.12
887.726	-32.43
887.897	-73.39
888.069	18.77
888.24	14.68
888.412	-24.23
888.583	-63.15
888.754	-65.19
888.926	-11.95
889.097	45.4
889.268	-11.95
889.44	2.39
889.611	-46.76
889.782	31.06
889.953	-11.95
890.125	16.73
890.296	-26.28
890.467	37.2
890.638	-59.05
890.809	61.78
890.98	-20.14
891.151	-63.15
891.323	16.73
891.494	-67.24
891.665	39.25
891.836	-50.86
892.007	-61.1
892.178	-9.9
892.349	6.49
892.52	22.87
892.691	-16.04
892.862	22.87
893.032	-50.86
893.203	39.25
893.374	14.68
893.545	-59.05
893.716	10.58
893.887	-3.75
894.057	-95.91
894.228	8.53
894.399	-73.39
894.57	-40.62
894.74	0.34
894.911	-13.99
895.082	26.96
895.253	41.3
895.423	0.34
895.594	96.6
895.764	0.34
895.935	-13.99
896.106	-40.62
896.276	-11.95
896.447	49.49
896.617	-38.57
896.788	-42.67
896.958	31.06
897.129	-24.23
897.299	-18.09
897.47	16.73
897.64	-28.33
897.81	-83.63
897.981	-1.71
898.151	-24.23
898.322	-16.04
898.492	37.2
898.662	16.73
898.832	-5.8
899.003	26.96
899.173	-36.52
899.343	-7.85
899.513	-13.99
