Data from USB4F104151__296__14-02-53-036.txt Node

Date: Thu Mar 13 14:02:53 EDT 2025
User: louis
Spectrometer: USB4F10415
Trigger mode: 4
Integration Time (sec): 1.000000E-2
Scans to average: 1
Electric dark correction enabled: true
Nonlinearity correction enabled: false
Boxcar width: 0
XAxis mode: Wavelengths
Number of Pixels in Spectrum: 3648
>>>>>Begin Spectral Data<<<<<
178.204	12.63
178.424	12.63
178.644	12.63
178.864	-40.62
179.084	-61.1
179.304	-9.9
179.524	-38.57
179.744	-11.95
179.964	20.82
180.184	-16.04
180.404	55.64
180.624	69.97
180.844	-22.19
181.064	-11.95
181.283	-22.19
181.503	-42.67
181.723	29.01
181.943	-40.62
182.163	-13.99
182.383	20.82
182.602	2.39
182.822	24.92
183.042	43.35
183.262	-52.91
183.482	0.34
183.701	33.11
183.921	-9.9
184.141	0.34
184.361	33.11
184.58	45.4
184.8	12.63
185.02	-36.52
185.239	26.96
185.459	20.82
185.679	26.96
185.898	-28.33
186.118	41.3
186.338	-3.75
186.557	20.82
186.777	-18.09
186.997	26.96
187.216	65.88
187.436	51.54
187.655	-28.33
187.875	37.2
188.095	-65.19
188.314	18.77
188.534	6.49
188.753	-24.23
188.973	76.12
189.192	-32.43
189.412	-3.75
189.631	53.59
189.851	92.5
190.07	-11.95
190.29	-28.33
190.509	16.73
190.729	-20.14
190.948	24.92
191.168	67.92
191.387	-30.38
191.607	16.73
191.826	-44.71
192.045	41.3
192.265	31.06
192.484	12.63
192.704	115.03
192.923	96.6
193.142	59.73
193.362	-5.8
193.581	-13.99
193.8	67.92
194.02	-24.23
194.239	37.2
194.458	-20.14
194.678	37.2
194.897	-24.23
195.116	2.39
195.335	47.44
195.555	-7.85
195.774	14.68
195.993	8.53
196.212	29.01
196.432	-5.8
196.651	-20.14
196.87	0.34
197.089	16.73
197.308	61.78
197.528	35.16
197.747	-11.95
197.966	53.59
198.185	33.11
198.404	78.16
198.623	41.3
198.842	88.4
199.062	-22.19
199.281	16.73
199.5	86.36
199.719	8.53
199.938	49.49
200.157	8.53
200.376	33.11
200.595	65.88
200.814	-16.04
201.033	-42.67
201.252	37.2
201.471	47.44
201.69	12.63
201.909	43.35
202.128	35.16
202.347	0.34
202.566	0.34
202.785	0.34
203.004	55.64
203.223	-1.71
203.442	53.59
203.661	29.01
203.879	-5.8
204.098	-85.67
204.317	-7.85
204.536	-22.19
204.755	24.92
204.974	31.06
205.193	41.3
205.411	139.6
205.63	49.49
205.849	65.88
206.068	10.58
206.287	-83.63
206.505	106.84
206.724	-71.34
206.943	0.34
207.162	100.69
207.381	16.73
207.599	10.58
207.818	35.16
208.037	4.44
208.255	33.11
208.474	8.53
208.693	69.97
208.911	82.26
209.13	-34.47
209.349	59.73
209.567	8.53
209.786	2.39
210.005	47.44
210.223	10.58
210.442	61.78
210.661	53.59
210.879	-30.38
211.098	72.02
211.316	-7.85
211.535	65.88
211.753	-13.99
211.972	-36.52
212.191	76.12
212.409	53.59
212.628	-30.38
212.846	26.96
213.065	51.54
213.283	-18.09
213.502	10.58
213.72	-54.95
213.938	-9.9
214.157	2.39
214.375	57.68
214.594	-54.95
214.812	37.2
215.031	0.34
215.249	0.34
215.467	-3.75
215.686	6.49
215.904	61.78
216.122	29.01
216.341	26.96
216.559	-20.14
216.778	-26.28
216.996	-40.62
217.214	82.26
217.432	26.96
217.651	39.25
217.869	-11.95
218.087	-20.14
218.306	8.53
218.524	24.92
218.742	24.92
218.96	24.92
219.179	-1.71
219.397	-18.09
219.615	49.49
219.833	-3.75
220.051	18.77
220.27	-7.85
220.488	2.39
220.706	-20.14
220.924	-65.19
221.142	51.54
221.36	41.3
221.578	2.39
221.796	-28.33
222.015	22.87
222.233	16.73
222.451	51.54
222.669	45.4
222.887	35.16
223.105	57.68
223.323	29.01
223.541	-24.23
223.759	-5.8
223.977	-40.62
224.195	-61.1
224.413	74.07
224.631	37.2
224.849	37.2
225.067	-32.43
225.285	35.16
225.503	-9.9
225.721	-16.04
225.939	-32.43
226.157	65.88
226.375	-5.8
226.592	4.44
226.81	10.58
227.028	24.92
227.246	35.16
227.464	14.68
227.682	4.44
227.9	-3.75
228.117	-11.95
228.335	0.34
228.553	67.92
228.771	41.3
228.989	24.92
229.206	90.45
229.424	-9.9
229.642	8.53
229.86	-54.95
230.077	-3.75
230.295	43.35
230.513	59.73
230.731	16.73
230.948	22.87
231.166	33.11
231.384	24.92
231.601	24.92
231.819	0.34
232.037	18.77
232.254	-63.15
232.472	59.73
232.689	8.53
232.907	14.68
233.125	10.58
233.342	-38.57
233.56	0.34
233.777	-48.81
233.995	-3.75
234.213	90.45
234.43	35.16
234.648	47.44
234.865	51.54
235.083	53.59
235.3	31.06
235.518	96.6
235.735	43.35
235.953	47.44
236.17	-61.1
236.388	55.64
236.605	-11.95
236.822	-40.62
237.04	0.34
237.257	43.35
237.475	2.39
237.692	-52.91
237.909	29.01
238.127	6.49
238.344	4.44
238.562	10.58
238.779	-22.19
238.996	18.77
239.214	16.73
239.431	10.58
239.648	53.59
239.865	18.77
240.083	-5.8
240.3	-16.04
240.517	-13.99
240.735	20.82
240.952	-7.85
241.169	26.96
241.386	51.54
241.603	24.92
241.821	24.92
242.038	14.68
242.255	74.07
242.472	43.35
242.689	82.26
242.907	16.73
243.124	-36.52
243.341	24.92
243.558	55.64
243.775	-46.76
243.992	24.92
244.209	49.49
244.426	51.54
244.643	104.79
244.86	65.88
245.078	-52.91
245.295	-5.8
245.512	-13.99
245.729	-30.38
245.946	16.73
246.163	-57
246.38	35.16
246.597	8.53
246.814	8.53
247.031	33.11
247.248	-13.99
247.464	-30.38
247.681	35.16
247.898	-63.15
248.115	57.68
248.332	39.25
248.549	35.16
248.766	84.31
248.983	49.49
249.2	37.2
249.417	104.79
249.633	-54.95
249.85	61.78
250.067	-18.09
250.284	10.58
250.501	26.96
250.717	65.88
250.934	35.16
251.151	24.92
251.368	8.53
251.585	-40.62
251.801	20.82
252.018	10.58
252.235	78.16
252.451	-85.67
252.668	18.77
252.885	18.77
253.102	0.34
253.318	35.16
253.535	6.49
253.752	35.16
253.968	-48.81
254.185	18.77
254.401	8.53
254.618	16.73
254.835	100.69
255.051	55.64
255.268	26.96
255.484	98.64
255.701	43.35
255.917	12.63
256.134	10.58
256.351	8.53
256.567	-26.28
256.784	20.82
257	4.44
257.217	53.59
257.433	37.2
257.65	8.53
257.866	16.73
258.082	-11.95
258.299	-11.95
258.515	0.34
258.732	37.2
258.948	117.08
259.165	16.73
259.381	41.3
259.597	-7.85
259.814	45.4
260.03	2.39
260.246	24.92
260.463	61.78
260.679	0.34
260.895	26.96
261.112	86.36
261.328	43.35
261.544	35.16
261.761	31.06
261.977	18.77
262.193	33.11
262.409	8.53
262.626	43.35
262.842	63.83
263.058	-24.23
263.274	35.16
263.49	-89.77
263.707	41.3
263.923	33.11
264.139	-32.43
264.355	33.11
264.571	61.78
264.787	74.07
265.004	43.35
265.22	-36.52
265.436	-5.8
265.652	16.73
265.868	65.88
266.084	8.53
266.3	0.34
266.516	0.34
266.732	41.3
266.948	-22.19
267.164	-18.09
267.38	-3.75
267.596	35.16
267.812	16.73
268.028	24.92
268.244	22.87
268.46	43.35
268.676	12.63
268.892	-5.8
269.108	-24.23
269.324	8.53
269.54	-18.09
269.756	0.34
269.972	-40.62
270.188	-1.71
270.403	29.01
270.619	29.01
270.835	14.68
271.051	-20.14
271.267	90.45
271.483	-5.8
271.698	8.53
271.914	14.68
272.13	-18.09
272.346	18.77
272.562	12.63
272.777	57.68
272.993	22.87
273.209	-28.33
273.425	18.77
273.64	-73.39
273.856	67.92
274.072	82.26
274.287	-30.38
274.503	-16.04
274.719	49.49
274.934	67.92
275.15	-5.8
275.366	20.82
275.581	16.73
275.797	8.53
276.012	49.49
276.228	69.97
276.444	63.83
276.659	-9.9
276.875	-30.38
277.09	49.49
277.306	-32.43
277.521	88.4
277.737	41.3
277.952	-7.85
278.168	16.73
278.383	-1.71
278.599	16.73
278.814	61.78
279.03	8.53
279.245	-22.19
279.461	-26.28
279.676	12.63
279.892	-65.19
280.107	24.92
280.322	29.01
280.538	26.96
280.753	33.11
280.969	-5.8
281.184	61.78
281.399	6.49
281.615	-18.09
281.83	14.68
282.045	-22.19
282.26	39.25
282.476	20.82
282.691	24.92
282.906	63.83
283.122	84.31
283.337	-36.52
283.552	82.26
283.767	2.39
283.983	22.87
284.198	26.96
284.413	-7.85
284.628	-5.8
284.843	45.4
285.058	12.63
285.274	16.73
285.489	47.44
285.704	43.35
285.919	-11.95
286.134	45.4
286.349	33.11
286.564	-11.95
286.779	26.96
286.995	-32.43
287.21	-5.8
287.425	49.49
287.64	-54.95
287.855	-9.9
288.07	-81.58
288.285	41.3
288.5	49.49
288.715	49.49
288.93	20.82
289.145	51.54
289.36	-28.33
289.575	49.49
289.79	59.73
290.004	22.87
290.219	18.77
290.434	-7.85
290.649	-28.33
290.864	65.88
291.079	24.92
291.294	35.16
291.509	-46.76
291.724	20.82
291.938	26.96
292.153	49.49
292.368	-3.75
292.583	26.96
292.798	12.63
293.012	78.16
293.227	0.34
293.442	59.73
293.657	18.77
293.871	37.2
294.086	-7.85
294.301	4.44
294.516	78.16
294.73	8.53
294.945	35.16
295.16	8.53
295.374	57.68
295.589	16.73
295.804	61.78
296.018	65.88
296.233	67.92
296.447	29.01
296.662	-5.8
296.877	86.36
297.091	16.73
297.306	18.77
297.52	74.07
297.735	24.92
297.949	35.16
298.164	47.44
298.378	0.34
298.593	47.44
298.807	6.49
299.022	8.53
299.236	-36.52
299.451	47.44
299.665	61.78
299.88	12.63
300.094	67.92
300.309	57.68
300.523	41.3
300.737	26.96
300.952	63.83
301.166	67.92
301.381	65.88
301.595	55.64
301.809	-40.62
302.024	55.64
302.238	45.4
302.452	-32.43
302.667	-26.28
302.881	-5.8
303.095	20.82
303.309	65.88
303.524	-5.8
303.738	45.4
303.952	2.39
304.166	55.64
304.381	-28.33
304.595	47.44
304.809	45.4
305.023	26.96
305.237	-30.38
305.452	41.3
305.666	55.64
305.88	57.68
306.094	33.11
306.308	-18.09
306.522	41.3
306.736	123.22
306.95	-22.19
307.164	-16.04
307.379	41.3
307.593	65.88
307.807	-81.58
308.021	29.01
308.235	-11.95
308.449	-32.43
308.663	16.73
308.877	88.4
309.091	8.53
309.305	18.77
309.519	-38.57
309.733	-13.99
309.947	6.49
310.161	82.26
310.374	-5.8
310.588	104.79
310.802	31.06
311.016	10.58
311.23	69.97
311.444	24.92
311.658	29.01
311.872	67.92
312.085	39.25
312.299	2.39
312.513	-16.04
312.727	24.92
312.941	26.96
313.154	51.54
313.368	-24.23
313.582	45.4
313.796	0.34
314.009	26.96
314.223	-20.14
314.437	-9.9
314.651	8.53
314.864	-7.85
315.078	-9.9
315.292	12.63
315.505	45.4
315.719	-7.85
315.933	-30.38
316.146	49.49
316.36	37.2
316.573	33.11
316.787	63.83
317.001	16.73
317.214	43.35
317.428	78.16
317.641	-16.04
317.855	29.01
318.068	-16.04
318.282	51.54
318.495	86.36
318.709	16.73
318.922	26.96
319.136	-3.75
319.349	24.92
319.563	8.53
319.776	12.63
319.99	33.11
320.203	59.73
320.417	61.78
320.63	14.68
320.843	10.58
321.057	10.58
321.27	8.53
321.483	82.26
321.697	35.16
321.91	-3.75
322.124	12.63
322.337	51.54
322.55	20.82
322.763	86.36
322.977	26.96
323.19	0.34
323.403	26.96
323.617	43.35
323.83	49.49
324.043	33.11
324.256	24.92
324.469	45.4
324.683	22.87
324.896	10.58
325.109	-16.04
325.322	22.87
325.535	63.83
325.748	115.03
325.962	16.73
326.175	35.16
326.388	43.35
326.601	59.73
326.814	20.82
327.027	78.16
327.24	20.82
327.453	-5.8
327.666	16.73
327.879	29.01
328.092	72.02
328.305	65.88
328.518	-34.47
328.731	35.16
328.944	22.87
329.157	108.88
329.37	76.12
329.583	12.63
329.796	121.17
330.009	47.44
330.222	49.49
330.435	51.54
330.648	-7.85
330.861	49.49
331.073	-5.8
331.286	102.74
331.499	43.35
331.712	47.44
331.925	-16.04
332.138	4.44
332.35	22.87
332.563	57.68
332.776	37.2
332.989	4.44
333.202	-16.04
333.414	49.49
333.627	100.69
333.84	-38.57
334.053	14.68
334.265	-57
334.478	-44.71
334.691	-44.71
334.903	72.02
335.116	51.54
335.329	51.54
335.541	-3.75
335.754	55.64
335.966	35.16
336.179	0.34
336.392	45.4
336.604	-20.14
336.817	10.58
337.029	47.44
337.242	18.77
337.454	-28.33
337.667	92.5
337.88	43.35
338.092	-38.57
338.305	37.2
338.517	-3.75
338.729	26.96
338.942	49.49
339.154	-69.29
339.367	37.2
339.579	67.92
339.792	80.21
340.004	53.59
340.217	-44.71
340.429	18.77
340.641	-30.38
340.854	49.49
341.066	-50.86
341.278	37.2
341.491	76.12
341.703	-40.62
341.915	90.45
342.128	26.96
342.34	51.54
342.552	26.96
342.764	76.12
342.977	117.08
343.189	0.34
343.401	10.58
343.613	65.88
343.826	14.68
344.038	20.82
344.25	-11.95
344.462	24.92
344.674	-5.8
344.886	33.11
345.099	33.11
345.311	-16.04
345.523	26.96
345.735	57.68
345.947	53.59
346.159	-28.33
346.371	0.34
346.583	10.58
346.795	8.53
347.007	39.25
347.219	14.68
347.431	59.73
347.643	24.92
347.855	61.78
348.067	117.08
348.279	-9.9
348.491	-24.23
348.703	35.16
348.915	76.12
349.127	-24.23
349.339	16.73
349.551	8.53
349.763	2.39
349.975	98.64
350.187	33.11
350.399	29.01
350.61	33.11
350.822	8.53
351.034	82.26
351.246	74.07
351.458	76.12
351.669	92.5
351.881	43.35
352.093	14.68
352.305	72.02
352.517	-3.75
352.728	33.11
352.94	76.12
353.152	149.84
353.363	-5.8
353.575	121.17
353.787	8.53
353.999	8.53
354.21	26.96
354.422	-1.71
354.633	0.34
354.845	6.49
355.057	16.73
355.268	43.35
355.48	-32.43
355.692	2.39
355.903	59.73
356.115	-40.62
356.326	14.68
356.538	47.44
356.749	35.16
356.961	78.16
357.172	-5.8
357.384	49.49
357.595	106.84
357.807	80.21
358.018	-16.04
358.23	80.21
358.441	51.54
358.653	72.02
358.864	-11.95
359.075	18.77
359.287	37.2
359.498	90.45
359.709	67.92
359.921	92.5
360.132	29.01
360.344	82.26
360.555	2.39
360.766	6.49
360.977	8.53
361.189	26.96
361.4	-38.57
361.611	-52.91
361.823	-42.67
362.034	18.77
362.245	41.3
362.456	-7.85
362.667	-7.85
362.879	45.4
363.09	24.92
363.301	8.53
363.512	-1.71
363.723	72.02
363.935	37.2
364.146	16.73
364.357	108.88
364.568	51.54
364.779	39.25
364.99	106.84
365.201	-3.75
365.412	76.12
365.623	-7.85
365.834	127.32
366.045	43.35
366.256	4.44
366.467	24.92
366.678	82.26
366.889	117.08
367.1	20.82
367.311	8.53
367.522	-16.04
367.733	63.83
367.944	65.88
368.155	57.68
368.366	22.87
368.577	6.49
368.788	14.68
368.999	-9.9
369.209	106.84
369.42	51.54
369.631	57.68
369.842	35.16
370.053	-11.95
370.264	31.06
370.474	-36.52
370.685	14.68
370.896	59.73
371.107	65.88
371.317	45.4
371.528	63.83
371.739	59.73
371.95	61.78
372.16	65.88
372.371	61.78
372.582	37.2
372.792	80.21
373.003	59.73
373.214	47.44
373.424	37.2
373.635	-1.71
373.846	51.54
374.056	-5.8
374.267	59.73
374.477	69.97
374.688	57.68
374.898	94.55
375.109	102.74
375.319	-30.38
375.53	45.4
375.74	18.77
375.951	86.36
376.161	69.97
376.372	8.53
376.582	-3.75
376.793	45.4
377.003	65.88
377.214	0.34
377.424	2.39
377.635	-7.85
377.845	67.92
378.055	37.2
378.266	41.3
378.476	74.07
378.686	78.16
378.897	37.2
379.107	4.44
379.317	16.73
379.528	8.53
379.738	63.83
379.948	-26.28
380.158	110.93
380.369	33.11
380.579	82.26
380.789	-7.85
380.999	57.68
381.21	14.68
381.42	115.03
381.63	2.39
381.84	16.73
382.05	-13.99
382.261	-5.8
382.471	18.77
382.681	24.92
382.891	-5.8
383.101	61.78
383.311	-28.33
383.521	43.35
383.731	51.54
383.941	106.84
384.151	20.82
384.361	-63.15
384.571	16.73
384.781	115.03
384.991	78.16
385.201	115.03
385.411	45.4
385.621	45.4
385.831	4.44
386.041	12.63
386.251	57.68
386.461	-16.04
386.671	8.53
386.881	26.96
387.091	37.2
387.301	63.83
387.511	16.73
387.72	16.73
387.93	88.4
388.14	88.4
388.35	90.45
388.56	20.82
388.769	14.68
388.979	-18.09
389.189	35.16
389.399	117.08
389.609	-3.75
389.818	10.58
390.028	53.59
390.238	37.2
390.447	-20.14
390.657	61.78
390.867	31.06
391.076	69.97
391.286	18.77
391.496	-30.38
391.705	8.53
391.915	168.27
392.125	45.4
392.334	22.87
392.544	33.11
392.753	72.02
392.963	67.92
393.172	57.68
393.382	-38.57
393.591	67.92
393.801	37.2
394.01	29.01
394.22	24.92
394.429	61.78
394.639	0.34
394.848	-16.04
395.058	16.73
395.267	31.06
395.477	26.96
395.686	10.58
395.895	102.74
396.105	72.02
396.314	41.3
396.524	74.07
396.733	92.5
396.942	59.73
397.152	82.26
397.361	72.02
397.57	53.59
397.78	49.49
397.989	26.96
398.198	106.84
398.407	26.96
398.617	41.3
398.826	26.96
399.035	18.77
399.244	108.88
399.453	137.56
399.663	80.21
399.872	51.54
400.081	106.84
400.29	98.64
400.499	115.03
400.708	18.77
400.917	55.64
401.127	74.07
401.336	80.21
401.545	141.65
401.754	110.93
401.963	74.07
402.172	63.83
402.381	76.12
402.59	61.78
402.799	57.68
403.008	26.96
403.217	155.99
403.426	143.7
403.635	92.5
403.844	108.88
404.053	94.55
404.262	43.35
404.471	115.03
404.68	-24.23
404.888	84.31
405.097	65.88
405.306	61.78
405.515	108.88
405.724	98.64
405.933	90.45
406.142	155.99
406.35	86.36
406.559	147.8
406.768	143.7
406.977	90.45
407.185	98.64
407.394	100.69
407.603	61.78
407.812	155.99
408.02	168.27
408.229	164.18
408.438	106.84
408.646	246.1
408.855	131.41
409.064	174.42
409.272	158.03
409.481	190.8
409.69	256.34
409.898	213.33
410.107	192.85
410.315	217.43
410.524	207.19
410.733	215.38
410.941	160.08
411.15	180.56
411.358	373.07
411.567	278.87
411.775	256.34
411.984	332.11
412.192	328.02
412.401	319.82
412.609	282.96
412.818	411.98
413.026	362.83
413.234	360.78
413.443	272.72
413.651	371.02
413.86	377.17
414.068	364.88
414.276	377.17
414.485	467.28
414.693	448.85
414.901	452.94
415.11	483.66
415.318	387.41
415.526	479.57
415.734	534.86
415.943	567.63
416.151	561.48
416.359	506.19
416.567	577.87
416.776	635.21
416.984	629.07
417.192	706.89
417.4	688.46
417.608	702.79
417.817	733.51
418.025	721.23
418.233	809.29
418.441	756.04
418.649	803.15
418.857	893.26
419.065	776.52
419.273	856.39
419.481	948.55
419.689	903.5
419.897	969.03
420.105	1075.52
420.313	1020.23
420.521	1032.52
420.729	1081.67
420.937	1126.72
421.145	1216.83
421.353	1108.29
421.561	1319.23
421.769	1276.23
421.977	1345.86
422.185	1386.82
422.393	1458.5
422.601	1503.55
422.809	1495.36
423.017	1460.54
423.224	1530.17
423.432	1599.8
423.64	1634.62
423.848	1757.5
424.056	1820.99
424.263	1884.47
424.471	1868.09
424.679	1884.47
424.887	1954.1
425.094	1931.58
425.302	2216.24
425.51	2126.13
425.718	2253.11
425.925	2281.78
426.133	2310.45
426.341	2543.92
426.548	2511.15
426.756	2597.17
426.964	2537.77
427.171	2771.24
427.379	2810.15
427.586	2822.44
427.794	2992.42
428.001	3127.59
428.209	3180.84
428.417	3232.04
428.624	3451.17
428.832	3354.91
429.039	3447.07
429.247	3469.6
429.454	3784.99
429.662	3914.01
429.869	3696.92
430.076	3883.29
430.284	3821.85
430.491	4010.26
430.699	4266.26
430.906	4262.16
431.114	4311.32
431.321	4366.61
431.528	4569.36
431.736	4792.59
431.943	5019.91
432.15	4854.03
432.358	4860.17
432.565	5228.81
432.772	5345.54
432.979	5583.1
433.187	5644.54
433.394	5597.44
433.601	6121.72
433.808	6013.18
434.016	5961.98
434.223	6252.79
434.43	6668.53
434.637	6449.39
434.844	6828.27
435.052	6961.39
435.259	6777.07
435.466	7002.35
435.673	6709.49
435.88	7508.19
436.087	7629.02
436.294	7809.25
436.501	7467.24
436.708	7604.45
436.915	8040.67
437.122	8251.61
437.329	8415.44
437.537	8483.03
437.743	8757.46
437.95	8636.63
438.157	9246.92
438.364	9443.53
438.571	9314.5
438.778	9513.16
438.985	10223.8
439.192	9902.27
439.399	10211.51
439.606	10109.12
439.813	10674.35
440.02	11026.61
440.227	11034.8
440.433	10764.47
440.64	11268.27
440.847	11315.37
441.054	11524.26
441.261	12320.92
441.467	12126.36
441.674	12374.17
441.881	12748.95
442.088	12916.88
442.294	12822.67
442.501	12806.29
442.708	13297.8
442.914	13734.02
443.121	14381.18
443.328	13865.09
443.534	14841.97
443.741	14483.58
443.948	14155.9
444.154	15261.8
444.361	14983.28
444.568	15671.4
444.774	15335.53
444.981	15515.75
445.187	15771.75
445.394	16851.03
445.6	16234.59
445.807	17862.72
446.013	17209.42
446.22	17606.73
446.426	18225.22
446.633	18270.27
446.839	18845.75
447.046	18409.53
447.252	19576.87
447.459	19286.06
447.665	19181.62
447.871	19853.35
448.078	20762.65
448.284	19990.56
448.491	20330.53
448.697	21434.38
448.903	21514.25
449.11	21676.04
449.316	21428.24
449.522	21745.67
449.728	22056.96
449.935	22206.47
450.141	22308.86
450.347	22890.49
450.553	21839.88
450.76	22308.86
450.966	23322.61
451.172	22831.1
451.378	23494.64
451.584	22861.82
451.791	23461.87
451.997	23515.12
452.203	23945.19
452.409	24014.82
452.615	23638
452.821	22816.76
453.027	22906.87
453.233	23818.22
453.44	22886.39
453.646	23435.25
453.852	23222.26
454.058	23920.62
454.264	22523.9
454.47	23545.84
454.676	22800.38
454.882	23445.49
455.088	21473.29
455.294	21610.51
455.5	22083.59
455.705	22444.03
455.911	21637.13
456.117	21303.31
456.323	20752.41
456.529	19685.42
456.735	20518.94
456.941	19892.26
457.147	19636.27
457.352	18927.67
457.558	18751.54
457.764	19183.66
457.97	18597.95
458.176	18180.16
458.381	17997.89
458.587	17381.45
458.793	17299.53
458.999	16574.55
459.204	17561.67
459.41	17127.5
459.616	15880.29
459.821	15751.27
460.027	15929.44
460.233	15474.79
460.438	14717.04
460.644	15100.01
460.85	14252.16
461.055	14123.13
461.261	14016.64
461.466	13082.77
461.672	12478.61
461.878	13568.13
462.083	12624.02
462.289	12279.96
462.494	12400.79
462.7	11880.61
462.905	11337.9
463.111	11880.61
463.316	11759.78
463.522	11661.48
463.727	11602.08
463.932	11792.55
464.138	11567.27
464.343	11694.24
464.549	11274.41
464.754	11509.93
464.959	11417.77
465.165	11475.11
465.37	10924.21
465.575	10741.94
465.781	10983.6
465.986	11391.14
466.191	10870.96
466.397	10522.8
466.602	10125.5
466.807	10434.74
467.012	10494.13
467.218	10385.59
467.423	10053.82
467.628	10485.94
467.833	10922.16
468.038	10328.25
468.244	10094.78
468.449	10363.06
468.654	10102.97
468.859	10133.69
469.064	10078.4
469.269	9627.84
469.474	9646.27
469.679	9935.04
469.885	9566.4
470.09	9699.52
470.295	9717.95
470.5	9470.15
470.705	9537.73
470.91	9220.3
471.115	9146.57
471.32	9363.65
471.525	9146.57
471.73	9015.5
471.935	9040.08
472.139	8728.78
472.344	8835.28
472.549	8751.31
472.754	8659.15
472.959	8618.19
473.164	8282.33
473.369	8192.22
473.574	8599.76
473.778	8454.36
473.983	8349.91
474.188	8265.94
474.393	7803.1
474.598	7788.77
474.802	7973.08
475.007	7868.64
475.212	7831.77
475.417	7397.6
475.621	7723.23
475.826	7594.21
476.031	7594.21
476.235	7368.93
476.44	7504.1
476.645	7133.42
476.849	7311.59
477.054	7151.85
477.259	7039.21
477.463	7139.56
477.668	6721.77
477.872	6945
478.077	6947.05
478.282	6723.82
478.486	6758.64
478.691	6523.12
478.895	6643.95
479.1	6639.86
479.304	6689.01
479.509	6496.5
479.713	6324.47
479.918	6271.22
480.122	6306.04
480.326	6523.12
480.531	6455.54
480.735	6201.59
480.94	6371.57
481.144	6291.7
481.348	6306.04
481.553	6131.96
481.757	5998.84
481.961	6150.39
482.166	6373.62
482.37	6256.89
482.574	6185.21
482.778	6095.1
482.983	6160.63
483.187	6154.49
483.391	6140.15
483.595	6066.42
483.8	5974.27
484.004	6238.45
484.208	6303.99
484.412	6125.82
484.616	6174.97
484.821	6115.58
485.025	6015.23
485.229	6172.92
485.433	6179.06
485.637	6238.45
485.841	6027.51
486.045	6105.34
486.249	6127.86
486.453	5925.11
486.657	5970.17
486.861	6097.14
487.065	6037.75
487.269	6056.18
487.473	6236.41
487.677	6150.39
487.881	6039.8
488.085	6183.16
488.289	6226.17
488.493	5953.79
488.697	6324.47
488.901	6420.72
489.105	6191.35
489.309	6201.59
489.512	6308.09
489.716	6248.69
489.92	6351.09
490.124	6217.97
490.328	6371.57
490.531	6281.46
490.735	6299.89
490.939	6385.91
491.143	6211.83
491.346	6332.66
491.55	6422.77
491.754	6267.13
491.958	6441.2
492.161	6547.7
492.365	6473.97
492.569	6578.42
492.772	6439.16
492.976	6627.57
493.18	6506.74
493.383	6713.58
493.587	6830.32
493.79	6721.77
493.994	6701.3
494.197	6840.56
494.401	6932.72
494.605	6899.95
494.808	7096.55
495.012	6953.2
495.215	7280.87
495.419	7139.56
495.622	7053.55
495.825	7325.93
496.029	7385.32
496.232	7569.63
496.436	7301.35
496.639	7512.29
496.843	7430.37
497.046	7702.75
497.249	7669.98
497.453	7866.59
497.656	7975.13
497.859	8050.91
498.063	8044.76
498.266	8087.77
498.469	8014.04
498.673	8202.46
498.876	8595.67
499.079	8317.14
499.282	8534.23
499.485	8489.17
499.689	8589.52
499.892	8779.98
500.095	8941.77
500.298	9365.7
500.501	9023.69
500.705	9373.89
500.908	9455.81
501.111	9537.73
501.314	9459.91
501.517	9603.27
501.72	9814.21
501.923	9633.99
502.126	9916.61
502.329	10199.23
502.532	10098.88
502.735	10154.17
502.938	10707.12
503.141	10496.18
503.344	10866.86
503.547	10836.14
503.75	11045.04
503.953	10907.82
504.156	11282.6
504.359	11358.38
504.562	11317.42
504.765	11827.36
504.968	11727.01
505.17	12052.64
505.373	11962.53
505.576	12128.41
505.779	12304.54
505.982	12214.43
506.185	12658.84
506.387	12681.36
506.59	12798.1
506.793	13013.13
506.996	13142.16
507.198	13582.47
507.401	13502.6
507.604	13627.53
507.807	13875.33
508.009	14135.42
508.212	14069.89
508.415	14391.42
508.617	14526.58
508.82	14692.47
509.022	14606.45
509.225	14954.61
509.428	15097.97
509.63	15210.61
509.833	15251.56
510.035	15708.26
510.238	15749.22
510.44	15939.68
510.643	16336.99
510.845	16390.24
511.048	16490.59
511.25	16625.75
511.453	16820.31
511.655	17557.58
511.858	17246.29
512.06	17274.96
512.262	17555.53
512.465	17678.41
512.667	18387
512.87	18139.2
513.072	18366.53
513.274	18620.47
513.477	18903.09
513.679	18999.35
513.881	19320.88
514.084	19318.83
514.286	19474.48
514.488	19779.62
514.69	20351.01
514.893	20256.8
515.095	20219.94
515.297	20613.15
515.499	20752.41
515.701	20977.69
515.904	21389.33
516.106	21432.33
516.308	21768.2
516.51	22102.02
516.712	22083.59
516.914	22474.75
517.116	22697.98
517.318	22556.67
517.52	23119.86
517.722	22964.21
517.925	23631.85
518.127	23576.56
518.329	24154.08
518.531	23951.34
518.733	24645.6
518.935	24633.31
519.136	24676.32
519.338	25520.08
519.54	25315.28
519.742	25454.54
519.944	25634.77
520.146	26224.58
520.348	26222.53
520.55	26474.43
520.752	26716.09
520.954	27107.26
521.155	26841.02
521.357	27662.26
521.559	27484.08
521.761	28184.49
521.963	27883.44
522.164	28333.99
522.366	28094.38
522.568	28796.83
522.77	28905.37
522.971	29716.37
523.173	29294.49
523.375	29638.55
523.576	29544.34
523.778	29667.22
523.98	30035.85
524.181	30285.7
524.383	30586.75
524.584	31061.88
524.786	30588.8
524.988	30906.24
525.189	31317.88
525.391	31285.11
525.592	31623.03
525.794	31653.75
525.995	31553.4
526.197	31934.32
526.398	31762.29
526.6	32235.37
526.801	32135.02
527.003	32395.11
527.204	32683.87
527.406	33007.45
527.607	32907.1
527.808	33009.5
528.01	32606.05
528.211	33046.37
528.412	33437.53
528.614	33642.32
528.815	33251.16
529.016	34258.76
529.218	33716.05
529.419	33562.45
529.62	33816.4
529.822	34160.46
530.023	34023.25
530.224	34185.04
530.425	34056.01
530.626	33957.71
530.828	34168.65
531.029	34420.55
531.23	34309.96
531.431	34326.35
531.632	34694.98
531.833	34598.73
532.035	34293.58
532.236	34529.09
532.437	34705.22
532.638	34518.85
532.839	35270.46
533.04	34615.11
533.241	34549.57
533.442	35133.25
533.643	35172.16
533.844	34629.44
534.045	34932.54
534.246	34582.34
534.447	35358.52
534.648	34824
534.849	35391.29
535.05	34694.98
535.251	35393.34
535.451	35329.85
535.652	35639.09
535.853	35141.44
536.054	35372.86
536.255	35415.86
536.456	34957.12
536.657	35626.81
536.857	35051.33
537.058	34840.39
537.259	35606.33
537.46	35759.92
537.66	35245.88
537.861	35348.28
538.062	34918.21
538.263	35227.45
538.463	35262.27
538.664	34944.83
538.865	35522.36
539.065	35557.17
539.266	34985.79
539.466	35610.42
539.667	34967.36
539.868	35514.17
540.068	35335.99
540.269	35129.15
540.469	35403.58
540.67	35254.08
540.87	35114.81
541.071	35460.92
541.271	35338.04
541.472	35284.79
541.672	35247.93
541.873	35120.96
542.073	34897.73
542.274	35299.13
542.474	35186.49
542.675	34766.66
542.875	35163.96
543.075	35297.08
543.276	34770.75
543.476	35544.89
543.676	34967.36
543.877	35217.21
544.077	35065.66
544.277	35340.09
544.478	34996.03
544.678	35329.85
544.878	35120.96
545.078	35006.27
545.279	34787.14
545.479	34813.76
545.679	35307.32
545.879	35172.16
546.079	35186.49
546.28	34793.28
546.48	35032.89
546.68	35399.48
546.88	35510.07
547.08	34854.72
547.28	35258.17
547.48	34821.95
547.68	34996.03
547.88	35102.53
548.081	35596.09
548.281	35227.45
548.481	35006.27
548.681	35147.58
548.881	35331.9
549.081	35133.25
549.28	35221.31
549.48	35481.4
549.68	34991.94
549.88	35272.51
550.08	34590.53
550.28	35182.4
550.48	34996.03
550.68	35362.62
550.88	34721.6
551.08	35200.83
551.279	35397.43
551.479	34709.32
551.679	35114.81
551.879	34727.75
552.079	35362.62
552.278	35116.86
552.478	35073.85
552.678	34787.14
552.878	34873.15
553.077	35225.4
553.277	35166.01
553.477	35024.7
553.676	35057.47
553.876	34869.06
554.076	34942.78
554.275	34719.56
554.475	34729.8
554.674	35211.07
554.874	34783.04
555.074	34969.41
555.273	34428.74
555.473	34776.9
555.672	34606.92
555.872	34506.57
556.071	34617.16
556.271	34912.06
556.47	34357.07
556.67	34203.47
556.869	34518.85
557.068	34586.44
557.268	34232.14
557.467	34309.96
557.667	34144.08
557.866	34404.17
558.065	34365.26
558.265	33687.38
558.464	34041.68
558.663	34330.44
558.863	34045.77
559.062	34457.42
559.261	33662.8
559.461	34348.87
559.66	33621.84
559.859	33896.27
560.058	33984.33
560.258	34058.06
560.457	33572.69
560.656	33734.48
560.855	33537.88
561.054	33707.86
561.253	33281.88
561.453	33521.49
561.652	33390.42
561.851	33474.39
562.05	33259.35
562.249	33116
562.448	33509.21
562.647	33208.15
562.846	33707.86
563.045	32952.16
563.244	32698.21
563.443	33363.8
563.642	32659.3
563.841	32763.75
564.04	32599.91
564.239	33290.07
564.438	32540.52
564.637	32956.25
564.836	32843.62
565.035	32438.12
565.234	32202.6
565.432	32255.85
565.631	32296.81
565.83	32552.8
566.029	32153.45
566.228	32339.82
566.427	32143.21
566.625	32049
566.824	31618.93
567.023	32104.3
567.222	31479.67
567.42	31952.75
567.619	32042.86
567.818	31647.6
568.016	31747.95
568.215	31825.78
568.414	31459.19
568.612	32018.28
568.811	31307.64
569.01	31758.19
569.208	30750.59
569.407	30910.33
569.605	30898.05
569.804	31201.15
570.002	30779.26
570.201	30928.77
570.4	30795.65
570.598	30834.56
570.797	30435.2
570.995	30683.01
571.193	30254.98
571.392	30736.26
571.59	30265.22
571.789	30330.76
571.987	30089.1
572.186	30203.78
572.384	29804.43
572.582	30064.52
572.781	30113.67
572.979	29738.9
573.177	29806.48
573.376	29761.42
573.574	29368.21
573.772	29779.85
573.971	29357.97
574.169	28942.24
574.367	29134.74
574.565	29517.71
574.763	29286.29
574.962	29149.08
575.16	29015.96
575.358	28929.95
575.556	28813.21
575.754	29075.35
575.952	28649.38
576.151	28446.63
576.349	28542.88
576.547	28493.73
576.745	28626.85
576.943	28057.51
577.141	28368.8
577.339	28202.92
577.537	28065.71
577.735	28256.17
577.933	27680.69
578.131	27643.82
578.329	27766.7
578.527	27754.41
578.725	27267
578.923	27707.31
579.121	27273.14
579.319	27303.86
579.516	27518.9
579.714	27303.86
579.912	27223.99
580.11	27109.3
580.308	27299.76
580.506	26986.43
580.704	26695.61
580.901	26951.61
581.099	27035.58
581.297	26955.71
581.495	26474.43
581.692	26671.04
581.89	26015.69
582.088	26462.15
582.285	26132.42
582.483	26173.38
582.681	25954.25
582.878	26062.79
583.076	25876.43
583.274	26230.73
583.471	25776.08
583.669	25784.27
583.866	25593.81
584.064	25984.97
584.262	25507.79
584.459	25479.12
584.657	25268.18
584.854	25452.5
585.052	24969.18
585.249	25192.4
585.447	25171.93
585.644	24864.73
585.841	24940.5
586.039	25028.57
586.236	24731.61
586.434	24766.43
586.631	24674.27
586.828	24870.87
587.026	24860.63
587.223	24627.17
587.42	24274.91
587.618	24756.19
587.815	23850.99
588.012	23980.01
588.21	24055.78
588.407	24180.71
588.604	24018.92
588.801	23551.98
588.999	23975.91
589.196	23791.59
589.393	23945.19
589.59	23988.2
589.787	23468.02
589.984	23590.89
590.182	23619.56
590.379	23674.86
590.576	23482.35
590.773	23236.59
590.97	23285.75
591.167	23164.92
591.364	23029.75
591.561	23318.51
591.758	22609.92
591.955	22790.14
592.152	22702.07
592.349	22620.16
592.546	22773.75
592.743	22681.6
592.94	22466.56
593.137	22542.33
593.334	22614.01
593.531	22095.88
593.727	22398.98
593.924	22403.07
594.121	22003.72
594.318	22089.73
594.515	22018.05
594.712	22163.46
594.908	22024.2
595.105	22108.16
595.302	21643.28
595.499	21606.41
595.696	21805.06
595.892	21518.35
596.089	21676.04
596.286	21762.06
596.482	21309.46
596.679	21641.23
596.876	21258.26
597.072	21362.7
597.269	21321.74
597.466	21162
597.662	21192.72
597.859	20994.07
598.055	20791.32
598.252	20733.98
598.448	21053.46
598.645	20848.66
598.841	20338.72
599.038	20674.59
599.234	20795.42
599.431	20424.73
599.627	20465.69
599.824	20674.59
600.02	20144.16
600.217	20496.41
600.413	20359.2
600.609	20144.16
600.806	19664.94
601.002	20029.48
601.198	19931.17
601.395	19949.6
601.591	20111.39
601.787	19910.69
601.984	19867.69
602.18	20013.09
602.376	19666.99
602.572	19560.49
602.769	19703.85
602.965	19359.79
603.161	19357.74
603.357	19355.69
603.553	19390.51
603.75	19353.65
603.946	18921.52
604.142	18985.01
604.338	18647.1
604.534	18962.48
604.73	19019.83
604.926	18589.75
605.122	18743.35
605.318	18638.9
605.514	18522.17
605.71	18520.12
605.906	18286.65
606.102	18393.15
606.298	18452.54
606.494	18489.4
606.69	18548.79
606.886	18280.51
607.082	18163.78
607.278	18221.12
607.474	17932.36
607.67	18206.78
607.866	17696.84
608.062	18122.82
608.257	17932.36
608.453	17817.67
608.649	17842.25
608.845	17600.58
609.041	17702.98
609.236	17829.96
609.432	17496.14
609.628	17829.96
609.824	17293.39
610.019	17473.61
610.215	17604.68
610.411	17481.8
610.606	17277.01
610.802	17492.04
610.998	17475.66
611.193	17403.98
611.389	17168.46
611.584	16994.39
611.78	16783.45
611.976	17031.25
612.171	17049.68
612.367	17047.63
612.562	16805.97
612.758	16584.79
612.953	16681.05
613.149	16762.97
613.344	16490.59
613.539	16783.45
613.735	16558.17
613.93	16765.01
614.126	16605.27
614.321	16597.08
614.517	16521.31
614.712	16326.75
614.907	16384.09
615.103	16398.43
615.298	16382.04
615.493	16697.43
615.688	16062.56
615.884	16631.9
616.079	15820.9
616.274	16169.05
616.47	16124
616.665	16220.25
616.86	15839.33
617.055	15808.61
617.25	15900.77
617.445	16048.22
617.641	15736.93
617.836	15966.31
618.031	15583.34
618.226	15718.5
618.421	15421.55
618.616	15831.14
618.811	15298.67
619.006	15515.75
619.201	15515.75
619.396	15609.96
619.591	15048.82
619.786	15509.61
619.981	15282.28
620.176	15313
620.371	15065.2
620.566	15206.51
620.761	14876.79
620.956	14737.52
621.151	14798.96
621.346	14671.99
621.541	14766.2
621.735	14915.7
621.93	14553.21
622.125	14415.99
622.32	14246.01
622.515	14426.23
622.709	14127.23
622.904	14213.24
623.099	14055.55
623.294	14039.17
623.488	13992.06
623.683	13904
623.878	13729.92
624.072	13609.09
624.267	13703.3
624.462	13545.61
624.656	13543.56
624.851	13510.79
625.046	13187.21
625.24	13326.47
625.435	13064.33
625.629	13242.51
625.824	13064.33
626.018	13095.05
626.213	12759.19
626.407	13058.19
626.602	12595.35
626.796	12763.28
626.991	12738.71
627.185	12652.69
627.38	12443.8
627.574	12322.97
627.768	12263.58
627.963	12288.15
628.157	12208.28
628.352	12021.92
628.546	12187.8
628.74	12105.88
628.935	11907.23
629.129	12036.25
629.323	11667.62
629.517	11804.83
629.712	11714.72
629.906	11661.48
630.1	11528.36
630.294	11341.99
630.489	11724.96
630.683	11405.48
630.877	11288.75
631.071	11233.45
631.265	11544.74
631.459	11178.15
631.653	10971.31
631.848	11129
632.042	11298.98
632.236	10969.26
632.43	10719.41
632.624	10907.82
632.818	10662.07
633.012	10868.91
633.206	10502.33
633.4	10772.66
633.594	10666.16
633.788	10496.18
633.982	10539.19
634.176	10551.48
634.369	10387.64
634.563	10377.4
634.757	10289.34
634.951	10193.08
635.145	10166.46
635.339	10184.89
635.533	10170.55
635.726	9992.38
635.92	9889.98
636.114	9906.37
636.308	9883.84
636.501	9783.49
636.695	9996.48
636.889	9822.4
637.083	9775.3
637.276	9593.03
637.47	9666.75
637.664	9629.89
637.857	9646.27
638.051	9396.42
638.244	9382.09
638.438	9400.52
638.632	9060.56
638.825	9201.86
639.019	9234.63
639.212	9226.44
639.406	8964.3
639.599	9054.41
639.793	8849.61
639.986	8847.57
640.18	8911.05
640.373	8902.86
640.567	8569.04
640.76	8784.08
640.954	8782.03
641.147	8693.97
641.34	8554.71
641.534	8601.81
641.727	8460.5
641.92	8442.07
642.114	8114.39
642.307	8407.25
642.5	8507.6
642.694	8284.37
642.887	8169.69
643.08	8302.81
643.273	8274.14
643.467	8155.35
643.66	8089.82
643.853	7899.36
644.046	7891.16
644.239	7907.55
644.432	7735.52
644.626	7686.37
644.819	7823.58
645.012	7940.32
645.205	7655.65
645.398	7725.28
645.591	7426.28
645.784	7465.19
645.977	7348.45
646.17	7385.32
646.363	7364.84
646.556	7225.58
646.749	7358.69
646.942	7248.1
647.135	7307.49
647.328	7080.17
647.521	7016.68
647.714	7000.3
647.907	6965.48
648.099	6924.52
648.292	6838.51
648.485	6789.36
648.678	6877.42
648.871	6873.32
649.064	6654.19
649.256	6777.07
649.449	6711.53
649.642	6691.06
649.835	6504.69
650.027	6705.39
650.22	6670.58
650.413	6447.35
650.605	6695.15
650.798	6498.55
650.991	6433.01
651.183	6478.07
651.376	6369.52
651.568	6379.76
651.761	6267.13
651.954	6269.17
652.146	6224.12
652.339	6136.06
652.531	6181.11
652.724	5980.41
652.916	6045.95
653.109	6295.8
653.301	6078.71
653.494	6015.23
653.686	5720.32
653.879	5888.25
654.071	5923.07
654.263	5650.69
654.456	5882.11
654.648	5931.26
654.84	5581.06
655.033	5585.15
655.225	5630.21
655.417	5617.92
655.61	5669.12
655.802	5511.43
655.994	5550.34
656.186	5478.66
656.379	5486.85
656.571	5413.12
656.763	5316.87
656.955	5298.44
657.148	5409.03
657.34	5394.69
657.532	5210.37
657.724	5021.96
657.916	5259.53
658.108	5208.33
658.3	4995.34
658.492	5128.46
658.684	4966.67
658.876	4997.39
659.068	5110.02
659.26	5005.58
659.452	4960.52
659.644	4892.94
659.836	4894.99
660.028	4874.51
660.22	4845.84
660.412	4811.02
660.604	4692.24
660.796	4874.51
660.988	4727.05
661.18	4772.11
661.372	4573.46
661.563	4636.94
661.755	4524.3
661.947	4624.65
662.139	4632.85
662.331	4700.43
662.522	4399.38
662.714	4428.05
662.906	4534.54
663.097	4413.71
663.289	4395.28
663.481	4487.44
663.673	4409.62
663.864	4362.51
664.056	4319.51
664.247	4239.64
664.439	4161.81
664.631	4229.4
664.822	4122.9
665.014	4237.59
665.205	4161.81
665.397	4110.61
665.588	4243.73
665.78	3997.98
665.971	4088.09
666.163	4149.53
666.354	3926.3
666.546	4063.51
666.737	3975.45
666.929	4006.17
667.12	3946.78
667.311	3928.35
667.503	3860.76
667.694	3756.32
667.885	4016.41
668.077	3895.58
668.268	3713.31
668.459	3793.18
668.651	3803.42
668.842	3715.36
669.033	3762.46
669.224	3701.02
669.416	3770.65
669.607	3754.27
669.798	3754.27
669.989	3658.01
670.18	3707.16
670.371	3678.49
670.563	3598.62
670.754	3572
670.945	3531.04
671.136	3600.67
671.327	3580.19
671.518	3576.09
671.709	3481.89
671.9	3528.99
672.091	3528.99
672.282	3375.39
672.473	3367.2
672.664	3328.29
672.855	3375.39
673.046	3531.04
673.237	3399.97
673.428	3412.26
673.619	3426.59
673.809	3252.52
674	3373.35
674.191	3219.75
674.382	3311.91
674.573	3154.21
674.764	3213.6
674.954	3266.85
675.145	3215.65
675.336	3367.2
675.527	3221.8
675.717	3162.41
675.908	3115.3
676.099	3211.56
676.289	3141.93
676.48	3109.16
676.671	2998.57
676.861	3084.58
677.052	3041.57
677.243	3119.4
677.433	3117.35
677.624	3057.96
677.814	3129.64
678.005	3162.41
678.195	2984.23
678.386	3000.62
678.576	3006.76
678.767	2951.46
678.957	3070.25
679.148	2965.8
679.338	2908.46
679.529	2945.32
679.719	2937.13
679.909	3025.19
680.1	3088.68
680.29	2994.47
680.481	2855.21
680.671	2824.49
680.861	3057.96
681.052	2933.03
681.242	2930.98
681.432	2953.51
681.622	2744.62
681.813	2898.22
682.003	2820.39
682.193	2718
682.383	2855.21
682.573	2914.6
682.764	2812.2
682.954	2855.21
683.144	2826.54
683.334	2824.49
683.524	2969.9
683.714	2881.83
683.904	2924.84
684.094	2883.88
684.284	2830.63
684.474	2851.11
684.664	2955.56
684.854	2670.89
685.044	2875.69
685.234	2738.48
685.424	2791.72
685.614	2683.18
685.804	2744.62
685.994	2765.1
686.184	2799.91
686.374	2730.28
686.564	2664.75
686.753	2718
686.943	2701.61
687.133	2634.03
687.323	2642.22
687.513	2681.13
687.702	2609.45
687.892	2687.28
688.082	2670.89
688.272	2648.36
688.461	2681.13
688.651	2660.65
688.841	2617.65
689.03	2726.19
689.22	2525.49
689.41	2588.97
689.599	2502.96
689.789	2615.6
689.979	2568.49
690.168	2660.65
690.358	2654.51
690.547	2703.66
690.737	2595.12
690.926	2640.17
691.116	2494.77
691.305	2539.82
691.495	2570.54
691.684	2500.91
691.874	2736.43
692.063	2603.31
692.252	2687.28
692.442	2566.45
692.631	2437.42
692.82	2416.94
693.01	2568.49
693.199	2554.16
693.388	2482.48
693.578	2486.58
693.767	2474.29
693.956	2502.96
694.146	2511.15
694.335	2511.15
694.524	2527.53
694.713	2550.06
694.902	2433.33
695.092	2408.75
695.281	2564.4
695.47	2435.38
695.659	2462
695.848	2462
696.037	2554.16
696.226	2474.29
696.415	2457.9
696.604	2550.06
696.793	2441.52
696.982	2595.12
697.171	2550.06
697.36	2482.48
697.549	2588.97
697.738	2470.19
697.927	2402.61
698.116	2404.66
698.305	2445.62
698.494	2484.53
698.683	2533.68
698.872	2445.62
699.061	2449.71
699.25	2484.53
699.438	2466.1
699.627	2394.42
699.816	2496.82
700.005	2371.89
700.193	2418.99
700.382	2439.47
700.571	2523.44
700.76	2435.38
700.948	2502.96
701.137	2353.46
701.326	2464.05
701.514	2384.18
701.703	2418.99
701.892	2365.75
702.08	2486.58
702.269	2373.94
702.457	2330.93
702.646	2394.42
702.834	2318.64
703.023	2445.62
703.212	2361.65
703.4	2435.38
703.589	2437.42
703.777	2306.35
703.965	2275.63
704.154	2232.63
704.342	2328.88
704.531	2455.86
704.719	2339.12
704.907	2326.83
705.096	2359.6
705.284	2279.73
705.472	2285.87
705.661	2230.58
705.849	2363.7
706.037	2197.81
706.226	2345.27
706.414	2328.88
706.602	2339.12
706.79	2277.68
706.979	2201.91
707.167	2257.2
707.355	2210.1
707.543	2269.49
707.731	2261.3
707.919	2304.31
708.107	2191.67
708.296	2142.52
708.484	2253.11
708.672	2115.89
708.86	2246.96
709.048	2169.14
709.236	2130.23
709.424	2220.34
709.612	2212.15
709.8	2128.18
709.988	2140.47
710.176	2099.51
710.364	2222.39
710.551	2185.52
710.739	2238.77
710.927	2201.91
711.115	2124.08
711.303	2165.04
711.491	2101.56
711.679	2033.97
711.866	2099.51
712.054	2040.12
712.242	2036.02
712.43	2056.5
712.617	2058.55
712.805	2091.32
712.993	2056.5
713.181	1933.62
713.368	2066.74
713.556	1945.91
713.744	1962.3
713.931	2128.18
714.119	1907
714.306	2085.17
714.494	2042.17
714.682	1968.44
714.869	1917.24
715.057	1818.94
715.244	1972.54
715.432	1902.9
715.619	1960.25
715.807	1929.53
715.994	1843.51
716.182	1919.29
716.369	1915.19
716.556	1833.27
716.744	1841.47
716.931	1853.75
717.119	1911.1
717.306	1829.18
717.493	1882.42
717.681	1892.66
717.868	1827.13
718.055	1845.56
718.242	1812.79
718.43	1757.5
718.617	1820.99
718.804	1825.08
718.991	1728.83
719.179	1872.18
719.366	1794.36
719.553	1663.29
719.74	1718.59
719.927	1712.44
720.114	1767.74
720.301	1798.46
720.488	1796.41
720.676	1655.1
720.863	1657.15
721.05	1732.92
721.237	1724.73
721.424	1618.24
721.611	1718.59
721.798	1646.91
721.985	1663.29
722.172	1587.52
722.358	1567.04
722.545	1597.76
722.732	1583.42
722.919	1648.96
723.106	1640.76
723.293	1663.29
723.48	1704.25
723.667	1614.14
723.853	1585.47
724.04	1605.95
724.227	1470.78
724.414	1587.52
724.6	1540.41
724.787	1534.27
724.974	1620.28
725.161	1685.82
725.347	1493.31
725.534	1528.13
725.72	1556.8
725.907	1532.22
726.094	1577.28
726.28	1491.26
726.467	1550.65
726.653	1460.54
726.84	1521.98
727.027	1526.08
727.213	1462.59
727.4	1450.3
727.586	1466.69
727.773	1528.13
727.959	1577.28
728.145	1491.26
728.332	1458.5
728.518	1491.26
728.705	1491.26
728.891	1483.07
729.077	1483.07
729.264	1401.15
729.45	1407.3
729.636	1487.17
729.823	1401.15
730.009	1444.16
730.195	1429.82
730.382	1345.86
730.568	1413.44
730.754	1491.26
730.94	1378.62
731.126	1358.14
731.313	1446.21
731.499	1370.43
731.685	1319.23
731.871	1345.86
732.057	1409.34
732.243	1415.49
732.429	1364.29
732.615	1392.96
732.801	1378.62
732.987	1378.62
733.173	1376.58
733.359	1401.15
733.545	1306.95
733.731	1341.76
733.917	1382.72
734.103	1300.8
734.289	1360.19
734.475	1317.19
734.661	1304.9
734.847	1200.45
735.033	1384.77
735.219	1294.66
735.404	1313.09
735.59	1288.51
735.776	1184.07
735.962	1253.7
736.148	1216.83
736.333	1233.22
736.519	1280.32
736.705	1253.7
736.89	1274.18
737.076	1270.08
737.262	1212.74
737.447	1263.94
737.633	1261.89
737.819	1229.12
738.004	1231.17
738.19	1245.51
738.375	1157.44
738.561	1202.5
738.747	1245.51
738.932	1229.12
739.118	1253.7
739.303	1190.21
739.489	1141.06
739.674	1190.21
739.859	1130.82
740.045	1237.31
740.23	1143.11
740.416	1069.38
740.601	1284.42
740.786	1216.83
740.972	1126.72
741.157	1141.06
741.342	1079.62
741.528	1186.12
741.713	1132.87
741.898	1126.72
742.084	1046.85
742.269	1100.1
742.454	1171.78
742.639	1151.3
742.824	1079.62
743.01	1053
743.195	1034.57
743.38	1065.29
743.565	1040.71
743.75	1116.48
743.935	1022.28
744.12	1040.71
744.305	1034.57
744.49	1053
744.675	1038.66
744.86	1173.83
745.045	1001.8
745.23	1091.91
745.415	1024.33
745.6	940.36
745.785	966.98
745.97	1073.48
746.155	1014.09
746.34	1091.91
746.525	969.03
746.71	1053
746.895	934.22
747.079	934.22
747.264	952.65
747.449	983.37
747.634	981.32
747.819	999.75
748.003	919.88
748.188	860.49
748.373	1007.94
748.557	872.78
748.742	854.34
748.927	917.83
749.111	872.78
749.296	946.5
749.481	889.16
749.665	930.12
749.85	846.15
750.034	844.1
750.219	977.22
750.404	770.38
750.588	940.36
750.773	856.39
750.957	915.78
751.141	862.54
751.326	829.77
751.51	751.95
751.695	813.38
751.879	852.3
752.064	889.16
752.248	891.21
752.432	745.8
752.617	741.71
752.801	809.29
752.985	846.15
753.17	844.1
753.354	837.96
753.538	753.99
753.722	762.19
753.907	827.72
754.091	792.91
754.275	782.67
754.459	774.47
754.643	797
754.828	667.98
755.012	704.84
755.196	723.27
755.38	684.36
755.564	713.03
755.748	717.13
755.932	747.85
756.116	721.23
756.3	721.23
756.484	710.99
756.668	639.31
756.852	786.76
757.036	698.7
757.22	696.65
757.404	694.6
757.588	631.12
757.772	659.79
757.956	629.07
758.14	731.47
758.323	631.12
758.507	663.88
758.691	680.27
758.875	602.44
759.059	678.22
759.242	643.4
759.426	620.88
759.61	641.36
759.794	629.07
759.977	606.54
760.161	655.69
760.345	715.08
760.528	620.88
760.712	604.49
760.895	579.92
761.079	549.2
761.263	647.5
761.446	573.77
761.63	532.81
761.813	608.59
761.997	598.35
762.18	577.87
762.364	551.24
762.547	581.96
762.731	659.79
762.914	620.88
763.098	575.82
763.281	606.54
763.464	567.63
763.648	532.81
763.831	569.68
764.015	606.54
764.198	586.06
764.381	567.63
764.564	528.72
764.748	604.49
764.931	592.2
765.114	575.82
765.297	565.58
765.481	520.53
765.664	608.59
765.847	553.29
766.03	579.92
766.213	465.23
766.397	461.13
766.58	495.95
766.763	549.2
766.946	493.9
767.129	485.71
767.312	504.14
767.495	551.24
767.678	516.43
767.861	573.77
768.044	551.24
768.227	491.85
768.41	467.28
768.593	579.92
768.776	559.44
768.959	473.42
769.142	461.13
769.324	493.9
769.507	481.61
769.69	532.81
769.873	475.47
770.056	567.63
770.239	442.7
770.421	493.9
770.604	459.09
770.787	549.2
770.97	520.53
771.152	438.61
771.335	428.37
771.518	446.8
771.7	516.43
771.883	524.62
772.066	465.23
772.248	467.28
772.431	416.08
772.613	391.5
772.796	471.37
772.978	504.14
773.161	491.85
773.343	481.61
773.526	446.8
773.708	403.79
773.891	506.19
774.073	461.13
774.256	442.7
774.438	452.94
774.621	424.27
774.803	551.24
774.985	364.88
775.168	418.13
775.35	393.55
775.532	436.56
775.715	420.17
775.897	395.6
776.079	395.6
776.261	348.5
776.444	416.08
776.626	377.17
776.808	360.78
776.99	436.56
777.173	383.31
777.355	323.92
777.537	373.07
777.719	385.36
777.901	364.88
778.083	463.18
778.265	409.94
778.447	385.36
778.629	360.78
778.811	393.55
778.993	342.35
779.175	397.65
779.357	305.49
779.539	401.74
779.721	405.84
779.903	328.02
780.085	426.32
780.267	403.79
780.449	303.44
780.631	364.88
780.812	395.6
780.994	332.11
781.176	319.82
781.358	387.41
781.54	299.34
781.721	303.44
781.903	278.87
782.085	383.31
782.267	319.82
782.448	246.1
782.63	239.95
782.812	321.87
782.993	289.1
783.175	375.12
783.357	237.91
783.538	291.15
783.72	295.25
783.901	227.67
784.083	313.68
784.264	272.72
784.446	237.91
784.627	291.15
784.809	260.43
784.99	248.15
785.172	287.06
785.353	278.87
785.535	278.87
785.716	225.62
785.897	303.44
786.079	141.65
786.26	291.15
786.441	237.91
786.623	297.3
786.804	166.23
786.985	239.95
787.167	303.44
787.348	248.15
787.529	174.42
787.71	274.77
787.891	266.58
788.073	237.91
788.254	225.62
788.435	323.92
788.616	307.54
788.797	192.85
788.978	262.48
789.159	198.99
789.34	203.09
789.522	168.27
789.703	237.91
789.884	221.52
790.065	186.71
790.246	280.91
790.427	229.71
790.607	215.38
790.788	198.99
790.969	155.99
791.15	235.86
791.331	239.95
791.512	221.52
791.693	252.24
791.874	260.43
792.054	244.05
792.235	293.2
792.416	237.91
792.597	115.03
792.778	194.9
792.958	225.62
793.139	244.05
793.32	201.04
793.5	205.14
793.681	198.99
793.862	209.23
794.042	254.29
794.223	172.37
794.404	180.56
794.584	155.99
794.765	115.03
794.945	180.56
795.126	131.41
795.306	174.42
795.487	227.67
795.667	184.66
795.848	160.08
796.028	205.14
796.209	244.05
796.389	151.89
796.57	198.99
796.75	164.18
796.93	155.99
797.111	192.85
797.291	201.04
797.471	174.42
797.652	141.65
797.832	217.43
798.012	217.43
798.192	129.36
798.373	155.99
798.553	162.13
798.733	119.12
798.913	174.42
799.093	149.84
799.274	176.47
799.454	217.43
799.634	145.75
799.814	168.27
799.994	147.8
800.174	186.71
800.354	225.62
800.534	94.55
800.714	176.47
800.894	133.46
801.074	37.2
801.254	106.84
801.434	123.22
801.614	158.03
801.794	166.23
801.974	364.88
802.154	127.32
802.334	115.03
802.514	127.32
802.693	153.94
802.873	143.7
803.053	123.22
803.233	160.08
803.413	153.94
803.592	88.4
803.772	106.84
803.952	141.65
804.131	139.6
804.311	131.41
804.491	139.6
804.67	141.65
804.85	92.5
805.03	86.36
805.209	115.03
805.389	194.9
805.568	92.5
805.748	125.27
805.928	106.84
806.107	117.08
806.287	184.66
806.466	61.78
806.646	53.59
806.825	153.94
807.004	147.8
807.184	86.36
807.363	57.68
807.543	90.45
807.722	174.42
807.901	65.88
808.081	74.07
808.26	59.73
808.439	88.4
808.619	49.49
808.798	168.27
808.977	137.56
809.156	100.69
809.336	123.22
809.515	149.84
809.694	2.39
809.873	115.03
810.052	69.97
810.231	80.21
810.411	112.98
810.59	223.57
810.769	86.36
810.948	145.75
811.127	96.6
811.306	94.55
811.485	121.17
811.664	117.08
811.843	106.84
812.022	59.73
812.201	153.94
812.38	96.6
812.559	86.36
812.737	57.68
812.916	104.79
813.095	74.07
813.274	76.12
813.453	96.6
813.632	100.69
813.811	110.93
813.989	100.69
814.168	139.6
814.347	90.45
814.526	98.64
814.704	131.41
814.883	92.5
815.062	57.68
815.24	57.68
815.419	41.3
815.598	151.89
815.776	100.69
815.955	12.63
816.133	147.8
816.312	98.64
816.49	63.83
816.669	135.51
816.847	110.93
817.026	61.78
817.204	0.34
817.383	110.93
817.561	14.68
817.74	59.73
817.918	26.96
818.097	-16.04
818.275	72.02
818.453	141.65
818.632	53.59
818.81	108.88
818.988	57.68
819.167	53.59
819.345	12.63
819.523	37.2
819.701	49.49
819.879	139.6
820.058	96.6
820.236	108.88
820.414	67.92
820.592	131.41
820.77	6.49
820.948	51.54
821.127	47.44
821.305	45.4
821.483	104.79
821.661	49.49
821.839	10.58
822.017	100.69
822.195	94.55
822.373	10.58
822.551	63.83
822.729	143.7
822.907	53.59
823.085	90.45
823.262	41.3
823.44	49.49
823.618	24.92
823.796	57.68
823.974	29.01
824.152	139.6
824.329	53.59
824.507	110.93
824.685	51.54
824.863	49.49
825.04	41.3
825.218	80.21
825.396	45.4
825.574	106.84
825.751	-24.23
825.929	72.02
826.107	37.2
826.284	98.64
826.462	0.34
826.639	117.08
826.817	74.07
826.994	26.96
827.172	137.56
827.349	24.92
827.527	76.12
827.704	135.51
827.882	51.54
828.059	102.74
828.237	-50.86
828.414	80.21
828.591	74.07
828.769	86.36
828.946	8.53
829.124	104.79
829.301	20.82
829.478	37.2
829.655	10.58
829.833	100.69
830.01	37.2
830.187	16.73
830.364	65.88
830.542	55.64
830.719	18.77
830.896	59.73
831.073	65.88
831.25	90.45
831.427	45.4
831.604	80.21
831.782	20.82
831.959	41.3
832.136	80.21
832.313	78.16
832.49	74.07
832.667	65.88
832.844	-22.19
833.021	61.78
833.198	51.54
833.374	-79.53
833.551	41.3
833.728	72.02
833.905	26.96
834.082	41.3
834.259	0.34
834.436	72.02
834.612	92.5
834.789	78.16
834.966	86.36
835.143	39.25
835.319	67.92
835.496	90.45
835.673	41.3
835.85	43.35
836.026	16.73
836.203	90.45
836.38	12.63
836.556	10.58
836.733	-73.39
836.909	61.78
837.086	53.59
837.262	65.88
837.439	39.25
837.616	4.44
837.792	10.58
837.968	98.64
838.145	-11.95
838.321	100.69
838.498	6.49
838.674	55.64
838.851	24.92
839.027	121.17
839.203	37.2
839.38	24.92
839.556	-16.04
839.732	61.78
839.909	45.4
840.085	-38.57
840.261	-24.23
840.437	47.44
840.614	-48.81
840.79	-16.04
840.966	-1.71
841.142	78.16
841.318	-7.85
841.494	80.21
841.671	61.78
841.847	31.06
842.023	0.34
842.199	59.73
842.375	100.69
842.551	6.49
842.727	-30.38
842.903	-9.9
843.079	98.64
843.255	72.02
843.431	-44.71
843.607	8.53
843.783	-57
843.959	49.49
844.134	2.39
844.31	84.31
844.486	-32.43
844.662	82.26
844.838	-77.48
845.013	29.01
845.189	80.21
845.365	53.59
845.541	8.53
845.716	4.44
845.892	45.4
846.068	-32.43
846.244	20.82
846.419	67.92
846.595	-5.8
846.77	45.4
846.946	18.77
847.122	47.44
847.297	82.26
847.473	33.11
847.648	24.92
847.824	-40.62
847.999	-44.71
848.175	76.12
848.35	35.16
848.526	-28.33
848.701	8.53
848.876	106.84
849.052	33.11
849.227	10.58
849.403	16.73
849.578	41.3
849.753	2.39
849.929	72.02
850.104	-30.38
850.279	61.78
850.454	49.49
850.63	39.25
850.805	41.3
850.98	67.92
851.155	59.73
851.33	12.63
851.505	67.92
851.681	37.2
851.856	37.2
852.031	69.97
852.206	8.53
852.381	51.54
852.556	-28.33
852.731	-48.81
852.906	55.64
853.081	37.2
853.256	12.63
853.431	-9.9
853.606	24.92
853.781	22.87
853.956	2.39
854.131	37.2
854.305	-13.99
854.48	-11.95
854.655	39.25
854.83	55.64
855.005	31.06
855.18	43.35
855.354	37.2
855.529	47.44
855.704	43.35
855.879	16.73
856.053	29.01
856.228	86.36
856.403	0.34
856.577	0.34
856.752	-40.62
856.926	16.73
857.101	33.11
857.276	24.92
857.45	-18.09
857.625	10.58
857.799	49.49
857.974	-7.85
858.148	-46.76
858.323	-30.38
858.497	16.73
858.672	57.68
858.846	-44.71
859.02	106.84
859.195	-20.14
859.369	41.3
859.543	18.77
859.718	8.53
859.892	67.92
860.066	-16.04
860.241	61.78
860.415	10.58
860.589	26.96
860.763	-7.85
860.938	0.34
861.112	-28.33
861.286	-22.19
861.46	33.11
861.634	-5.8
861.808	18.77
861.982	-20.14
862.157	-11.95
862.331	10.58
862.505	-11.95
862.679	8.53
862.853	-1.71
863.027	24.92
863.201	82.26
863.375	-16.04
863.549	31.06
863.722	12.63
863.896	57.68
864.07	-44.71
864.244	104.79
864.418	35.16
864.592	20.82
864.766	16.73
864.939	41.3
865.113	49.49
865.287	-11.95
865.461	0.34
865.634	51.54
865.808	10.58
865.982	-13.99
866.156	10.58
866.329	41.3
866.503	0.34
866.676	90.45
866.85	39.25
867.024	26.96
867.197	47.44
867.371	63.83
867.544	-3.75
867.718	-7.85
867.891	47.44
868.065	-38.57
868.238	35.16
868.412	82.26
868.585	0.34
868.759	74.07
868.932	-3.75
869.105	26.96
869.279	-11.95
869.452	-44.71
869.625	-44.71
869.799	53.59
869.972	-26.28
870.145	-57
870.319	-16.04
870.492	-40.62
870.665	-83.63
870.838	29.01
871.011	-87.72
871.185	37.2
871.358	102.74
871.531	-9.9
871.704	45.4
871.877	26.96
872.05	-50.86
872.223	10.58
872.396	49.49
872.569	33.11
872.742	-46.76
872.915	-28.33
873.088	61.78
873.261	12.63
873.434	35.16
873.607	-7.85
873.78	10.58
873.953	-26.28
874.126	26.96
874.299	-32.43
874.471	18.77
874.644	-11.95
874.817	2.39
874.99	-61.1
875.163	-48.81
875.335	-24.23
875.508	49.49
875.681	43.35
875.853	4.44
876.026	33.11
876.199	33.11
876.371	100.69
876.544	57.68
876.717	8.53
876.889	-38.57
877.062	51.54
877.234	-32.43
877.407	8.53
877.579	-24.23
877.752	39.25
877.924	8.53
878.097	-24.23
878.269	8.53
878.442	16.73
878.614	-9.9
878.786	51.54
878.959	8.53
879.131	-7.85
879.303	0.34
879.476	18.77
879.648	-38.57
879.82	92.5
879.993	-22.19
880.165	8.53
880.337	39.25
880.509	-16.04
880.681	-24.23
880.854	20.82
881.026	-22.19
881.198	131.41
881.37	-24.23
881.542	-48.81
881.714	24.92
881.886	49.49
882.058	24.92
882.23	63.83
882.402	10.58
882.574	35.16
882.746	-34.47
882.918	14.68
883.09	-16.04
883.262	-28.33
883.434	-87.72
883.606	-9.9
883.778	26.96
883.95	6.49
884.122	-7.85
884.293	24.92
884.465	-24.23
884.637	24.92
884.809	2.39
884.98	4.44
885.152	61.78
885.324	-54.95
885.496	-22.19
885.667	37.2
885.839	-5.8
886.011	14.68
886.182	22.87
886.354	-28.33
886.525	-28.33
886.697	-46.76
886.869	37.2
887.04	29.01
887.212	16.73
887.383	92.5
887.555	-5.8
887.726	37.2
887.897	67.92
888.069	18.77
888.24	10.58
888.412	29.01
888.583	-24.23
888.754	0.34
888.926	4.44
889.097	45.4
889.268	-42.67
889.44	2.39
889.611	49.49
889.782	10.58
889.953	16.73
890.125	43.35
890.296	14.68
890.467	4.44
890.638	37.2
890.809	67.92
890.98	-7.85
891.151	67.92
891.323	-26.28
891.494	61.78
891.665	33.11
891.836	-48.81
892.007	8.53
892.178	51.54
892.349	-11.95
892.52	-36.52
892.691	33.11
892.862	-28.33
893.032	16.73
893.203	90.45
893.374	16.73
893.545	55.64
893.716	-26.28
893.887	31.06
894.057	-16.04
894.228	22.87
894.399	-89.77
894.57	18.77
894.74	24.92
894.911	69.97
895.082	74.07
895.253	-36.52
895.423	-18.09
895.594	10.58
895.764	8.53
895.935	-57
896.106	2.39
896.276	74.07
896.447	51.54
896.617	29.01
896.788	8.53
896.958	-65.19
897.129	-36.52
897.299	96.6
897.47	-16.04
897.64	57.68
897.81	14.68
897.981	-13.99
898.151	65.88
898.322	-22.19
898.492	0.34
898.662	-52.91
898.832	-18.09
899.003	10.58
899.173	-13.99
899.343	-38.57
899.513	35.16
