Data from USB4F104151__203__13-59-50-165.txt Node

Date: Thu Mar 13 13:59:50 EDT 2025
User: louis
Spectrometer: USB4F10415
Trigger mode: 4
Integration Time (sec): 1.000000E-2
Scans to average: 1
Electric dark correction enabled: true
Nonlinearity correction enabled: false
Boxcar width: 0
XAxis mode: Wavelengths
Number of Pixels in Spectrum: 3648
>>>>>Begin Spectral Data<<<<<
178.204	-95.06
178.424	-95.06
178.644	-95.06
178.864	-93.01
179.084	-62.29
179.304	7.34
179.524	25.77
179.744	25.77
179.964	-52.05
180.184	15.53
180.404	3.24
180.624	21.67
180.844	-31.57
181.064	11.43
181.283	1.19
181.503	27.82
181.723	-56.15
181.943	-9.05
182.163	-27.48
182.383	-72.53
182.602	33.96
182.822	15.53
183.042	1.19
183.262	-70.48
183.482	-7
183.701	60.59
183.921	7.34
184.141	36.01
184.361	-29.52
184.58	7.34
184.8	9.39
185.02	-31.57
185.239	-27.48
185.459	-39.76
185.679	-27.48
185.898	44.2
186.118	46.25
186.338	17.58
186.557	66.73
186.777	-64.34
186.997	-7
187.216	3.24
187.436	40.11
187.655	46.25
187.875	17.58
188.095	-62.29
188.314	11.43
188.534	68.78
188.753	40.11
188.973	33.96
189.192	25.77
189.412	56.49
189.631	13.48
189.851	1.19
190.07	-9.05
190.29	13.48
190.509	60.59
190.729	44.2
190.948	48.3
191.168	79.02
191.387	38.06
191.607	-9.05
191.826	60.59
192.045	40.11
192.265	72.87
192.484	58.54
192.704	76.97
192.923	50.35
193.142	23.72
193.362	-25.43
193.581	33.96
193.8	-29.52
194.02	111.78
194.239	40.11
194.458	-9.05
194.678	52.39
194.897	-25.43
195.116	54.44
195.335	-25.43
195.555	13.48
195.774	33.96
195.993	-37.72
196.212	50.35
196.432	-60.24
196.651	44.2
196.87	5.29
197.089	81.07
197.308	5.29
197.528	44.2
197.747	56.49
197.966	40.11
198.185	68.78
198.404	-21.33
198.623	62.63
198.842	-2.9
199.062	42.15
199.281	40.11
199.5	-68.44
199.719	-11.09
199.938	50.35
200.157	52.39
200.376	25.77
200.595	-31.57
200.814	-21.33
201.033	-9.05
201.252	29.87
201.471	-33.62
201.69	48.3
201.909	1.19
202.128	-60.24
202.347	44.2
202.566	1.19
202.785	36.01
203.004	29.87
203.223	76.97
203.442	-37.72
203.661	-50
203.879	50.35
204.098	81.07
204.317	15.53
204.536	72.87
204.755	-19.29
204.974	-25.43
205.193	-21.33
205.411	89.26
205.63	-41.81
205.849	15.53
206.068	15.53
206.287	62.63
206.505	17.58
206.724	31.91
206.943	-9.05
207.162	56.49
207.381	1.19
207.599	7.34
207.818	50.35
208.037	-13.14
208.255	-39.76
208.474	-9.05
208.693	7.34
208.911	62.63
209.13	40.11
209.349	-4.95
209.567	62.63
209.786	31.91
210.005	142.5
210.223	11.43
210.442	17.58
210.661	-97.11
210.879	-97.11
211.098	-17.24
211.316	54.44
211.535	-54.1
211.753	48.3
211.972	11.43
212.191	56.49
212.409	74.92
212.628	56.49
212.846	81.07
213.065	-15.19
213.283	31.91
213.502	21.67
213.72	42.15
213.938	15.53
214.157	-0.85
214.375	54.44
214.594	-0.85
214.812	52.39
215.031	29.87
215.249	-54.1
215.467	42.15
215.686	9.39
215.904	-31.57
216.122	11.43
216.341	11.43
216.559	87.21
216.778	87.21
216.996	5.29
217.214	33.96
217.432	-0.85
217.651	-17.24
217.869	31.91
218.087	9.39
218.306	17.58
218.524	-0.85
218.742	15.53
218.96	74.92
219.179	11.43
219.397	9.39
219.615	7.34
219.833	46.25
220.051	17.58
220.27	-9.05
220.488	46.25
220.706	-19.29
220.924	-21.33
221.142	40.11
221.36	11.43
221.578	-25.43
221.796	-9.05
222.015	-27.48
222.233	13.48
222.451	58.54
222.669	25.77
222.887	64.68
223.105	-15.19
223.323	-15.19
223.541	3.24
223.759	7.34
223.977	-4.95
224.195	52.39
224.413	113.83
224.631	-0.85
224.849	29.87
225.067	31.91
225.285	7.34
225.503	48.3
225.721	3.24
225.939	60.59
226.157	-131.92
226.375	79.02
226.592	3.24
226.81	58.54
227.028	-25.43
227.246	101.55
227.464	-60.24
227.682	38.06
227.9	15.53
228.117	-47.96
228.335	23.72
228.553	46.25
228.771	15.53
228.989	-13.14
229.206	-39.76
229.424	-13.14
229.642	62.63
229.86	-37.72
230.077	-29.52
230.295	91.31
230.513	46.25
230.731	-82.77
230.948	44.2
231.166	17.58
231.384	-39.76
231.601	7.34
231.819	-9.05
232.037	-2.9
232.254	-15.19
232.472	5.29
232.689	60.59
232.907	44.2
233.125	48.3
233.342	46.25
233.56	-11.09
233.777	25.77
233.995	31.91
234.213	50.35
234.43	33.96
234.648	74.92
234.865	7.34
235.083	-39.76
235.3	44.2
235.518	89.26
235.735	-50
235.953	-47.96
236.17	60.59
236.388	-29.52
236.605	52.39
236.822	83.11
237.04	111.78
237.257	13.48
237.475	101.55
237.692	44.2
237.909	17.58
238.127	19.63
238.344	19.63
238.562	9.39
238.779	-7
238.996	-4.95
239.214	17.58
239.431	1.19
239.648	99.5
239.865	-4.95
240.083	-19.29
240.3	58.54
240.517	5.29
240.735	95.4
240.952	-11.09
241.169	25.77
241.386	60.59
241.603	56.49
241.821	62.63
242.038	3.24
242.255	-29.52
242.472	33.96
242.689	-21.33
242.907	7.34
243.124	27.82
243.341	54.44
243.558	74.92
243.775	9.39
243.992	-2.9
244.209	11.43
244.426	56.49
244.643	122.02
244.86	21.67
245.078	17.58
245.295	19.63
245.512	-52.05
245.729	27.82
245.946	50.35
246.163	23.72
246.38	-0.85
246.597	64.68
246.814	56.49
247.031	17.58
247.248	58.54
247.464	31.91
247.681	85.16
247.898	9.39
248.115	7.34
248.332	-9.05
248.549	23.72
248.766	19.63
248.983	68.78
249.2	87.21
249.417	-88.92
249.633	38.06
249.85	40.11
250.067	40.11
250.284	50.35
250.501	19.63
250.717	97.45
250.934	-21.33
251.151	-17.24
251.368	-0.85
251.585	-31.57
251.801	11.43
252.018	11.43
252.235	-35.67
252.451	13.48
252.668	-90.96
252.885	-0.85
253.102	7.34
253.318	62.63
253.535	15.53
253.752	-17.24
253.968	3.24
254.185	-4.95
254.401	38.06
254.618	-17.24
254.835	15.53
255.051	15.53
255.268	17.58
255.484	40.11
255.701	62.63
255.917	85.16
256.134	66.73
256.351	64.68
256.567	74.92
256.784	89.26
257	1.19
257.217	70.83
257.433	-33.62
257.65	15.53
257.866	15.53
258.082	-25.43
258.299	-11.09
258.515	29.87
258.732	-68.44
258.948	-0.85
259.165	40.11
259.381	-0.85
259.597	3.24
259.814	-56.15
260.03	76.97
260.246	3.24
260.463	-29.52
260.679	25.77
260.895	15.53
261.112	1.19
261.328	44.2
261.544	-25.43
261.761	109.74
261.977	-21.33
262.193	33.96
262.409	72.87
262.626	-15.19
262.842	44.2
263.058	-17.24
263.274	109.74
263.49	1.19
263.707	31.91
263.923	7.34
264.139	21.67
264.355	-2.9
264.571	85.16
264.787	21.67
265.004	27.82
265.22	81.07
265.436	46.25
265.652	83.11
265.868	33.96
266.084	-9.05
266.3	-11.09
266.516	15.53
266.732	33.96
266.948	27.82
267.164	21.67
267.38	-7
267.596	44.2
267.812	-0.85
268.028	74.92
268.244	9.39
268.46	25.77
268.676	29.87
268.892	1.19
269.108	-21.33
269.324	44.2
269.54	25.77
269.756	9.39
269.972	19.63
270.188	68.78
270.403	-86.87
270.619	74.92
270.835	23.72
271.051	7.34
271.267	64.68
271.483	31.91
271.698	-9.05
271.914	54.44
272.13	-45.91
272.346	83.11
272.562	60.59
272.777	-25.43
272.993	3.24
273.209	56.49
273.425	17.58
273.64	23.72
273.856	19.63
274.072	-7
274.287	7.34
274.503	9.39
274.719	-54.1
274.934	19.63
275.15	25.77
275.366	62.63
275.581	-4.95
275.797	17.58
276.012	7.34
276.228	31.91
276.444	1.19
276.659	3.24
276.875	-11.09
277.09	85.16
277.306	-2.9
277.521	25.77
277.737	-7
277.952	48.3
278.168	40.11
278.383	44.2
278.599	72.87
278.814	1.19
279.03	23.72
279.245	109.74
279.461	81.07
279.676	56.49
279.892	-7
280.107	23.72
280.322	-4.95
280.538	25.77
280.753	17.58
280.969	119.98
281.184	3.24
281.399	-50
281.615	3.24
281.83	27.82
282.045	-41.81
282.26	40.11
282.476	40.11
282.691	11.43
282.906	27.82
283.122	93.35
283.337	46.25
283.552	87.21
283.767	-35.67
283.983	9.39
284.198	-4.95
284.413	-39.76
284.628	42.15
284.843	3.24
285.058	23.72
285.274	58.54
285.489	-45.91
285.704	11.43
285.919	81.07
286.134	27.82
286.349	1.19
286.564	-21.33
286.779	-15.19
286.995	33.96
287.21	3.24
287.425	40.11
287.64	-47.96
287.855	-7
288.07	40.11
288.285	70.83
288.5	17.58
288.715	27.82
288.93	-0.85
289.145	-0.85
289.36	-50
289.575	-7
289.79	23.72
290.004	29.87
290.219	25.77
290.434	103.59
290.649	3.24
290.864	38.06
291.079	93.35
291.294	81.07
291.509	40.11
291.724	70.83
291.938	11.43
292.153	58.54
292.368	-25.43
292.583	117.93
292.798	-9.05
293.012	9.39
293.227	-13.14
293.442	48.3
293.657	60.59
293.871	-62.29
294.086	40.11
294.301	48.3
294.516	83.11
294.73	-56.15
294.945	-58.2
295.16	7.34
295.374	3.24
295.589	1.19
295.804	1.19
296.018	11.43
296.233	11.43
296.447	19.63
296.662	-17.24
296.877	-66.39
297.091	-31.57
297.306	66.73
297.52	36.01
297.735	72.87
297.949	17.58
298.164	54.44
298.378	70.83
298.593	3.24
298.807	-64.34
299.022	81.07
299.236	81.07
299.451	11.43
299.665	36.01
299.88	25.77
300.094	66.73
300.309	58.54
300.523	-11.09
300.737	60.59
300.952	11.43
301.166	44.2
301.381	3.24
301.595	25.77
301.809	36.01
302.024	5.29
302.238	31.91
302.452	33.96
302.667	-7
302.881	46.25
303.095	31.91
303.309	-11.09
303.524	-29.52
303.738	7.34
303.952	48.3
304.166	132.26
304.381	-21.33
304.595	9.39
304.809	48.3
305.023	40.11
305.237	33.96
305.452	62.63
305.666	23.72
305.88	5.29
306.094	91.31
306.308	46.25
306.522	1.19
306.736	7.34
306.95	1.19
307.164	38.06
307.379	27.82
307.593	99.5
307.807	-11.09
308.021	42.15
308.235	-21.33
308.449	-31.57
308.663	3.24
308.877	79.02
309.091	-25.43
309.305	-0.85
309.519	46.25
309.733	-13.14
309.947	25.77
310.161	62.63
310.374	58.54
310.588	58.54
310.802	33.96
311.016	31.91
311.23	33.96
311.444	50.35
311.658	19.63
311.872	27.82
312.085	40.11
312.299	54.44
312.513	38.06
312.727	-52.05
312.941	33.96
313.154	-0.85
313.368	44.2
313.582	29.87
313.796	107.69
314.009	11.43
314.223	52.39
314.437	101.55
314.651	-2.9
314.864	-21.33
315.078	76.97
315.292	36.01
315.505	3.24
315.719	38.06
315.933	128.17
316.146	-0.85
316.36	72.87
316.573	-0.85
316.787	27.82
317.001	9.39
317.214	19.63
317.428	19.63
317.641	56.49
317.855	46.25
318.068	-19.29
318.282	9.39
318.495	15.53
318.709	9.39
318.922	-25.43
319.136	54.44
319.349	-23.38
319.563	107.69
319.776	60.59
319.99	7.34
320.203	33.96
320.417	13.48
320.63	36.01
320.843	25.77
321.057	74.92
321.27	56.49
321.483	48.3
321.697	7.34
321.91	60.59
322.124	11.43
322.337	81.07
322.55	-23.38
322.763	3.24
322.977	27.82
323.19	81.07
323.403	64.68
323.617	3.24
323.83	5.29
324.043	48.3
324.256	1.19
324.469	9.39
324.683	-7
324.896	7.34
325.109	50.35
325.322	-11.09
325.535	113.83
325.748	31.91
325.962	7.34
326.175	36.01
326.388	21.67
326.601	81.07
326.814	64.68
327.027	29.87
327.24	64.68
327.453	25.77
327.666	105.64
327.879	19.63
328.092	23.72
328.305	66.73
328.518	33.96
328.731	46.25
328.944	42.15
329.157	81.07
329.37	-39.76
329.583	64.68
329.796	50.35
330.009	17.58
330.222	11.43
330.435	17.58
330.648	23.72
330.861	-4.95
331.073	56.49
331.286	60.59
331.499	15.53
331.712	27.82
331.925	-9.05
332.138	-33.62
332.35	76.97
332.563	7.34
332.776	54.44
332.989	29.87
333.202	54.44
333.414	66.73
333.627	23.72
333.84	25.77
334.053	31.91
334.265	23.72
334.478	113.83
334.691	68.78
334.903	23.72
335.116	19.63
335.329	5.29
335.541	23.72
335.754	-70.48
335.966	-19.29
336.179	72.87
336.392	46.25
336.604	66.73
336.817	31.91
337.029	3.24
337.242	-13.14
337.454	89.26
337.667	56.49
337.88	42.15
338.092	58.54
338.305	95.4
338.517	19.63
338.729	25.77
338.942	19.63
339.154	-33.62
339.367	46.25
339.579	97.45
339.792	15.53
340.004	83.11
340.217	27.82
340.429	31.91
340.641	48.3
340.854	-7
341.066	36.01
341.278	44.2
341.491	23.72
341.703	-7
341.915	42.15
342.128	36.01
342.34	5.29
342.552	64.68
342.764	3.24
342.977	-21.33
343.189	27.82
343.401	-2.9
343.613	25.77
343.826	7.34
344.038	54.44
344.25	76.97
344.462	15.53
344.674	40.11
344.886	33.96
345.099	72.87
345.311	31.91
345.523	9.39
345.735	-11.09
345.947	-9.05
346.159	29.87
346.371	40.11
346.583	19.63
346.795	81.07
347.007	17.58
347.219	70.83
347.431	21.67
347.643	89.26
347.855	107.69
348.067	93.35
348.279	7.34
348.491	64.68
348.703	25.77
348.915	48.3
349.127	33.96
349.339	109.74
349.551	25.77
349.763	89.26
349.975	17.58
350.187	52.39
350.399	68.78
350.61	89.26
350.822	85.16
351.034	42.15
351.246	-17.24
351.458	70.83
351.669	29.87
351.881	7.34
352.093	-41.81
352.305	29.87
352.517	46.25
352.728	56.49
352.94	-15.19
353.152	40.11
353.363	70.83
353.575	27.82
353.787	-7
353.999	33.96
354.21	40.11
354.422	25.77
354.633	25.77
354.845	54.44
355.057	-19.29
355.268	-15.19
355.48	25.77
355.692	93.35
355.903	56.49
356.115	-66.39
356.326	15.53
356.538	54.44
356.749	15.53
356.961	66.73
357.172	36.01
357.384	33.96
357.595	38.06
357.807	48.3
358.018	58.54
358.23	64.68
358.441	70.83
358.653	97.45
358.864	33.96
359.075	74.92
359.287	31.91
359.498	44.2
359.709	76.97
359.921	56.49
360.132	58.54
360.344	31.91
360.555	44.2
360.766	68.78
360.977	27.82
361.189	29.87
361.4	27.82
361.611	-17.24
361.823	74.92
362.034	64.68
362.245	29.87
362.456	56.49
362.667	-9.05
362.879	40.11
363.09	15.53
363.301	13.48
363.512	23.72
363.723	31.91
363.935	23.72
364.146	33.96
364.357	33.96
364.568	83.11
364.779	99.5
364.99	19.63
365.201	62.63
365.412	-19.29
365.623	36.01
365.834	76.97
366.045	54.44
366.256	-17.24
366.467	40.11
366.678	31.91
366.889	52.39
367.1	-13.14
367.311	-13.14
367.522	44.2
367.733	64.68
367.944	-4.95
368.155	54.44
368.366	74.92
368.577	19.63
368.788	31.91
368.999	13.48
369.209	48.3
369.42	56.49
369.631	36.01
369.842	1.19
370.053	33.96
370.264	9.39
370.474	-37.72
370.685	31.91
370.896	3.24
371.107	-17.24
371.317	-17.24
371.528	64.68
371.739	23.72
371.95	115.88
372.16	105.64
372.371	89.26
372.582	44.2
372.792	31.91
373.003	68.78
373.214	50.35
373.424	27.82
373.635	66.73
373.846	-17.24
374.056	31.91
374.267	36.01
374.477	89.26
374.688	56.49
374.898	31.91
375.109	11.43
375.319	54.44
375.53	60.59
375.74	66.73
375.951	31.91
376.161	29.87
376.372	-9.05
376.582	62.63
376.793	99.5
377.003	70.83
377.214	-15.19
377.424	-4.95
377.635	-21.33
377.845	76.97
378.055	36.01
378.266	27.82
378.476	68.78
378.686	54.44
378.897	7.34
379.107	68.78
379.317	21.67
379.528	38.06
379.738	56.49
379.948	42.15
380.158	72.87
380.369	87.21
380.579	83.11
380.789	21.67
380.999	44.2
381.21	95.4
381.42	7.34
381.63	-23.38
381.84	50.35
382.05	109.74
382.261	33.96
382.471	81.07
382.681	48.3
382.891	33.96
383.101	23.72
383.311	56.49
383.521	15.53
383.731	31.91
383.941	113.83
384.151	40.11
384.361	74.92
384.571	13.48
384.781	19.63
384.991	79.02
385.201	70.83
385.411	72.87
385.621	-2.9
385.831	68.78
386.041	60.59
386.251	44.2
386.461	-0.85
386.671	19.63
386.881	36.01
387.091	13.48
387.301	60.59
387.511	83.11
387.72	68.78
387.93	115.88
388.14	66.73
388.35	44.2
388.56	76.97
388.769	17.58
388.979	117.93
389.189	38.06
389.399	83.11
389.609	132.26
389.818	74.92
390.028	21.67
390.238	23.72
390.447	58.54
390.657	58.54
390.867	-31.57
391.076	40.11
391.286	85.16
391.496	15.53
391.705	-2.9
391.915	99.5
392.125	101.55
392.334	68.78
392.544	36.01
392.753	60.59
392.963	19.63
393.172	54.44
393.382	79.02
393.591	99.5
393.801	107.69
394.01	89.26
394.22	60.59
394.429	62.63
394.639	95.4
394.848	97.45
395.058	128.17
395.267	79.02
395.477	58.54
395.686	107.69
395.895	44.2
396.105	66.73
396.314	158.89
396.524	72.87
396.733	119.98
396.942	134.31
397.152	62.63
397.361	56.49
397.57	99.5
397.78	21.67
397.989	142.5
398.198	81.07
398.407	29.87
398.617	54.44
398.826	193.7
399.035	72.87
399.244	72.87
399.453	76.97
399.663	122.02
399.872	89.26
400.081	165.03
400.29	79.02
400.499	70.83
400.708	115.88
400.917	46.25
401.127	142.5
401.336	126.12
401.545	142.5
401.754	132.26
401.963	107.69
402.172	72.87
402.381	42.15
402.59	99.5
402.799	189.61
403.008	101.55
403.217	109.74
403.426	146.6
403.635	134.31
403.844	136.36
404.053	189.61
404.262	119.98
404.471	167.08
404.68	169.13
404.888	109.74
405.097	119.98
405.306	128.17
405.515	222.38
405.724	208.04
405.933	199.85
406.142	156.84
406.35	234.66
406.559	216.23
406.768	160.94
406.977	187.56
407.185	203.94
407.394	173.22
407.603	246.95
407.812	220.33
408.02	128.17
408.229	275.62
408.438	226.47
408.646	269.48
408.855	228.52
409.064	273.57
409.272	216.23
409.481	281.77
409.69	310.44
409.898	230.57
410.107	326.82
410.315	296.1
410.524	320.68
410.733	373.92
410.941	365.73
411.15	384.16
411.358	425.12
411.567	404.64
411.775	367.78
411.984	349.35
412.192	429.22
412.401	459.94
412.609	478.37
412.818	421.03
413.026	447.65
413.234	515.23
413.443	562.34
413.651	588.96
413.86	572.58
414.068	560.29
414.276	609.44
414.485	601.25
414.693	640.16
414.901	728.22
415.11	771.23
415.318	746.66
415.526	744.61
415.734	707.74
415.943	746.66
416.151	830.62
416.359	771.23
416.567	808.09
416.776	787.61
416.984	916.64
417.192	908.44
417.4	951.45
417.608	969.88
417.817	955.55
418.025	1055.9
418.233	1105.05
418.441	1168.54
418.649	1193.11
418.857	1119.39
419.065	1203.35
419.273	1344.66
419.481	1254.55
419.689	1389.72
419.897	1410.2
420.105	1531.03
420.313	1457.3
420.521	1543.32
420.729	1590.42
420.937	1651.86
421.145	1760.4
421.353	1741.97
421.561	1909.9
421.769	1748.11
421.977	1887.37
422.185	2014.35
422.393	2088.07
422.601	2206.86
422.809	2245.77
423.017	2114.7
423.224	2256.01
423.432	2333.83
423.64	2421.89
423.848	2643.07
424.056	2616.45
424.263	2745.47
424.471	2761.86
424.679	2839.68
424.887	2919.55
425.094	3073.15
425.302	3089.53
425.51	3255.42
425.718	3359.86
425.925	3353.72
426.133	3452.02
426.341	3585.14
426.548	3730.55
426.756	3757.17
426.964	3849.33
427.171	4054.12
427.379	4062.32
427.586	4232.3
427.794	4250.73
428.001	4709.47
428.209	4707.43
428.417	4594.79
428.624	5055.58
428.832	5045.34
429.039	5049.44
429.247	4940.9
429.454	5403.74
429.662	5655.64
429.869	5356.63
430.076	5735.51
430.284	5669.97
430.491	5848.15
430.699	6014.03
430.906	6136.91
431.114	6290.51
431.321	6460.49
431.528	6706.24
431.736	6952
431.943	7310.4
432.15	7142.46
432.358	7273.53
432.565	7642.17
432.772	7347.26
432.979	7945.27
433.187	8307.76
433.394	8059.95
433.601	8846.37
433.808	8639.53
434.016	8750.12
434.223	9120.8
434.43	9524.25
434.637	9266.21
434.844	9798.68
435.052	10279.95
435.259	10071.06
435.466	10118.16
435.673	10181.65
435.88	10855.43
436.087	11314.17
436.294	11351.04
436.501	11117.57
436.708	11299.84
436.915	11535.35
437.122	12030.96
437.329	12151.79
437.537	12516.33
437.743	12952.55
437.95	12776.42
438.157	13417.44
438.364	13757.4
438.571	13743.06
438.778	13671.39
438.985	15018.95
439.192	14513.1
439.399	15043.53
439.606	14431.18
439.813	15258.56
440.02	16468.91
440.227	15973.3
440.433	15918.01
440.64	16712.62
440.847	16069.56
441.054	16731.05
441.261	17660.83
441.467	17652.64
441.674	17968.02
441.881	18543.5
442.088	18598.8
442.294	18447.25
442.501	18858.89
442.708	19252.1
442.914	20439.92
443.121	21048.17
443.328	20534.13
443.534	21730.14
443.741	20958.06
443.948	21166.95
444.154	22469.46
444.361	22135.64
444.568	22477.65
444.774	22432.6
444.981	22772.56
445.187	23427.91
445.394	24316.73
445.6	23987
445.807	26424.09
446.013	25033.52
446.22	25770.79
446.426	26829.59
446.633	26909.46
446.839	27726.6
447.046	26637.08
447.252	28326.65
447.459	28123.9
447.665	28046.08
447.871	29287.15
448.078	30710.49
448.284	29123.31
448.491	29676.26
448.697	31013.59
448.903	31636.17
449.11	31888.07
449.316	31279.82
449.522	31519.43
449.728	32455.36
449.935	32930.48
450.141	32778.93
450.347	33677.99
450.553	32715.45
450.76	33245.87
450.966	33995.43
451.172	33637.03
451.378	34540.19
451.584	34106.02
451.791	34763.42
451.997	34802.33
452.203	34853.53
452.409	35256.98
452.615	35052.18
452.821	33577.64
453.027	33352.37
453.233	34640.54
453.44	33546.92
453.646	33952.42
453.852	34050.72
454.058	34923.16
454.264	33835.69
454.47	34333.34
454.676	33575.59
454.882	34826.9
455.088	32082.63
455.294	32176.83
455.5	32494.27
455.705	33372.85
455.911	31523.53
456.117	31171.28
456.323	30735.06
456.529	29108.97
456.735	30409.43
456.941	29754.08
457.147	29244.14
457.352	28383.99
457.558	27677.44
457.764	28265.21
457.97	27396.87
458.176	26712.85
458.381	26862.35
458.587	25807.65
458.793	25748.26
458.999	24402.74
459.204	26211.1
459.41	25228.07
459.616	23589.7
459.821	23868.22
460.027	23710.53
460.233	23102.28
460.438	22180.7
460.644	22285.14
460.85	21334.89
461.055	20988.78
461.261	21099.37
461.466	19452.8
461.672	18992.01
461.878	20329.33
462.083	18916.23
462.289	18629.52
462.494	18373.52
462.7	17752.99
462.905	17363.87
463.111	17525.66
463.316	17644.45
463.522	17439.65
463.727	17628.06
463.932	17275.81
464.138	17421.22
464.343	17394.59
464.549	16737.2
464.754	17298.34
464.959	17296.29
465.165	17034.15
465.37	16386.99
465.575	15768.51
465.781	16679.85
465.986	16702.38
466.191	16196.53
466.397	16036.79
466.602	15096.77
466.807	15479.74
467.012	15858.62
467.218	15444.93
467.423	15270.85
467.628	15582.14
467.833	16137.14
468.038	15596.48
468.244	15383.49
468.449	15727.55
468.654	15143.88
468.859	15227.84
469.064	14887.88
469.269	14220.24
469.474	14367.7
469.679	14789.58
469.885	14334.93
470.09	14466
470.295	14408.65
470.5	14089.17
470.705	14138.32
470.91	13956.05
471.115	13911
471.32	14076.88
471.525	13755.35
471.73	13427.68
471.935	13714.39
472.139	13165.54
472.344	13333.47
472.549	13073.38
472.754	12956.64
472.959	12749.8
473.164	12428.27
473.369	12356.59
473.574	12735.46
473.778	12786.66
473.983	12323.82
474.188	12332.01
474.393	11785.21
474.598	11860.98
474.802	11840.5
475.007	11750.39
475.212	11973.62
475.417	11262.97
475.621	11324.41
475.826	11461.63
476.031	11195.39
476.235	10994.69
476.44	11254.78
476.645	10669.06
476.849	11101.19
477.054	10841.09
477.259	10527.75
477.463	10595.34
477.668	10456.08
477.872	10527.75
478.077	10277.9
478.282	10171.41
478.486	10046.48
478.691	9970.71
478.895	9892.88
479.1	9946.13
479.304	9808.92
479.509	9694.23
479.713	9688.09
479.918	9737.24
480.122	9522.2
480.326	9679.89
480.531	9487.39
480.735	9454.62
480.94	9505.82
481.144	9595.93
481.348	9110.56
481.553	9229.34
481.757	9102.37
481.961	9104.42
482.166	9239.58
482.37	9188.38
482.574	9055.26
482.778	9034.78
482.983	9180.19
483.187	9038.88
483.391	9264.16
483.595	9116.7
483.8	8938.53
484.004	9108.51
484.208	9305.12
484.412	8973.35
484.616	9126.94
484.821	9274.4
485.025	9073.7
485.229	9143.33
485.433	8961.06
485.637	9188.38
485.841	8920.1
486.045	8965.15
486.249	8983.59
486.453	8913.95
486.657	9157.66
486.861	9028.64
487.065	8981.54
487.269	9145.38
487.473	8846.37
487.677	9067.55
487.881	9346.08
488.085	9165.85
488.289	9042.98
488.493	9108.51
488.697	9133.09
488.901	9038.88
489.105	9143.33
489.309	9169.95
489.512	9233.44
489.716	9122.85
489.92	9243.68
490.124	9165.85
490.328	9415.71
490.531	9436.19
490.735	9462.81
490.939	9557.02
491.143	9217.05
491.346	9317.4
491.55	9503.77
491.754	9597.98
491.958	9718.81
492.161	9497.63
492.365	9640.98
492.569	9573.4
492.772	9794.58
492.976	9778.2
493.18	9939.99
493.383	9847.83
493.587	10224.65
493.79	10083.34
493.994	9958.42
494.197	10144.78
494.401	10189.84
494.605	10329.1
494.808	10558.47
495.012	10370.06
495.215	10730.5
495.419	10609.67
495.622	10679.3
495.825	10730.5
496.029	10839.05
496.232	11092.99
496.436	10947.59
496.639	11314.17
496.843	11412.48
497.046	11461.63
497.249	11570.17
497.453	11682.81
497.656	11789.3
497.859	11873.27
498.063	11908.08
498.266	12241.9
498.469	12190.7
498.673	12432.36
498.876	12415.98
499.079	12674.03
499.282	12772.33
499.485	12860.39
499.689	13163.49
499.892	13577.18
500.095	13310.94
500.298	13878.23
500.501	13632.47
500.705	14066.64
500.908	14398.41
501.111	14504.91
501.314	14371.79
501.517	14818.25
501.72	14797.77
501.923	14797.77
502.126	15205.31
502.329	15344.58
502.532	15561.66
502.735	15831.99
502.938	15913.91
503.141	16118.71
503.344	16726.96
503.547	16411.57
503.75	17085.35
503.953	17138.6
504.156	17208.23
504.359	17329.06
504.562	17646.49
504.765	17996.7
504.968	18064.28
505.17	18359.19
505.373	18529.17
505.576	18987.91
505.779	18840.46
505.982	19080.07
506.185	19393.41
506.387	19639.17
506.59	19770.24
506.793	20325.24
506.996	20382.58
507.198	20734.83
507.401	20716.4
507.604	21146.47
507.807	21691.23
508.009	21801.82
508.212	21898.08
508.415	22303.57
508.617	22588.24
508.82	22797.13
509.022	22819.66
509.225	23483.2
509.428	23503.68
509.63	23870.27
509.833	23993.15
510.035	24785.71
510.238	24593.2
510.44	24931.12
510.643	25385.77
510.845	25801.5
511.048	25475.88
511.25	26290.97
511.453	26354.46
511.655	27382.54
511.858	26813.2
512.06	27298.57
512.262	27452.17
512.465	27689.73
512.667	28293.88
512.87	28769.01
513.072	28877.55
513.274	29213.42
513.477	29776.61
513.679	29438.7
513.881	30202.59
514.084	30655.19
514.286	30284.51
514.488	30761.69
514.69	31838.92
514.893	31765.19
515.095	32277.18
515.297	32627.38
515.499	32723.64
515.701	33116.85
515.904	33651.37
516.106	33739.43
516.308	34298.53
516.51	34622.11
516.712	34603.67
516.914	35433.1
517.116	35637.9
517.318	35641.99
517.52	36305.54
517.722	36436.61
517.925	37220.98
518.127	37726.83
518.329	37874.28
518.531	37489.26
518.733	38586.97
518.935	38603.36
519.136	38873.69
519.338	39608.91
519.54	39514.7
519.742	40139.33
519.944	39969.35
520.146	41204.28
520.348	41228.85
520.55	41429.55
520.752	41546.29
520.954	42551.84
521.155	41982.51
521.357	43004.44
521.559	42854.94
521.761	43858.45
521.963	43721.23
522.164	43903.5
522.366	43823.63
522.568	44530.18
522.77	45273.59
522.971	45578.74
523.173	45085.18
523.375	45849.07
523.576	45740.53
523.778	45738.48
523.98	46684.64
524.181	46907.87
524.383	46502.37
524.584	47469.01
524.786	47614.42
524.988	47753.68
525.189	48208.33
525.391	48130.51
525.592	48568.77
525.794	48918.98
525.995	48650.69
526.197	48966.08
526.398	48892.35
526.6	49787.31
526.801	50201
527.003	50076.08
527.204	49924.53
527.406	50676.13
527.607	50502.06
527.808	50489.77
528.01	49983.92
528.211	50405.8
528.412	51423.64
528.614	51573.14
528.815	51425.69
529.016	52068.75
529.218	51499.42
529.419	51560.86
529.62	51888.53
529.822	51769.75
530.023	51790.23
530.224	51816.85
530.425	52408.71
530.626	51978.64
530.828	52109.71
531.029	52623.75
531.23	52111.76
531.431	52289.93
531.632	52545.93
531.833	52545.93
532.035	52935.04
532.236	52736.39
532.437	53203.33
532.638	53027.2
532.839	52722.05
533.04	52920.71
533.241	52461.96
533.442	53782.9
533.643	53184.9
533.844	53422.46
534.045	53008.77
534.246	52824.45
534.447	53393.79
534.648	53201.28
534.849	53522.81
535.05	52846.98
535.251	53289.34
535.451	53531
535.652	53496.19
535.853	53330.3
536.054	53547.39
536.255	53946.74
536.456	53258.62
536.657	54258.03
536.857	53676.41
537.058	52861.32
537.259	53834.1
537.46	53977.46
537.66	53954.93
537.861	53426.56
538.062	53197.18
538.263	54026.61
538.463	53188.99
538.664	53330.3
538.865	53531
539.065	53920.12
539.266	53361.02
539.466	53999.99
539.667	52990.34
539.868	54100.34
540.068	53637.5
540.269	53797.24
540.469	53842.29
540.67	53266.81
540.87	53385.6
541.071	53449.08
541.271	53918.07
541.472	53596.54
541.672	53223.81
541.873	53713.27
542.073	52515.21
542.274	54096.24
542.474	53682.55
542.675	53244.29
542.875	54053.23
543.075	53696.89
543.276	52980.1
543.476	53643.64
543.676	53569.91
543.877	53285.25
544.077	53705.08
544.277	53602.68
544.478	53211.52
544.678	53776.76
544.878	53346.68
545.078	53424.51
545.279	52920.71
545.479	53389.69
545.679	53817.72
545.879	53490.04
546.079	53379.45
546.28	53375.36
546.48	53313.92
546.68	53475.71
546.88	53160.32
547.08	53713.27
547.28	53166.46
547.48	52939.14
547.68	53909.88
547.88	53113.22
548.081	53299.58
548.281	53461.37
548.481	53352.83
548.681	53889.4
548.881	53506.43
549.081	53070.21
549.28	52877.7
549.48	53342.59
549.68	53287.29
549.88	53473.66
550.08	52965.76
550.28	53711.22
550.48	53318.01
550.68	53592.44
550.88	52986.24
551.08	53283.2
551.279	53242.24
551.479	52715.91
551.679	53283.2
551.879	52883.84
552.079	53193.09
552.278	52812.16
552.478	53102.98
552.678	53033.35
552.878	53426.56
553.077	53154.18
553.277	52631.94
553.477	53760.37
553.676	52771.21
553.876	53158.27
554.076	53180.8
554.275	52640.14
554.475	52304.27
554.674	53135.74
554.874	52920.71
555.074	53072.26
555.273	52631.94
555.473	52855.17
555.672	52189.58
555.872	52373.9
556.071	52758.92
556.271	52687.24
556.47	52277.64
556.67	51958.16
556.869	51925.39
557.068	52523.4
557.268	52021.65
557.467	52214.16
557.667	51843.48
557.866	52130.19
558.065	52111.76
558.265	51716.5
558.464	51523.99
558.663	52046.22
558.863	50870.69
559.062	52486.54
559.261	51859.86
559.461	51913.11
559.66	51184.03
559.859	51538.33
560.058	51661.21
560.258	51532.18
560.457	51456.41
560.656	51646.87
560.855	51104.16
561.054	51480.99
561.253	50739.62
561.453	51732.89
561.652	51573.14
561.851	51497.37
562.05	51200.41
562.249	50815.4
562.448	51341.72
562.647	50981.28
562.846	50821.54
563.045	51202.46
563.244	50616.74
563.443	51063.2
563.642	50420.14
563.841	50543.02
564.04	50313.64
564.239	51222.94
564.438	50125.23
564.637	50063.79
564.836	50758.05
565.035	50201
565.234	49899.95
565.432	49902
565.631	49783.22
565.83	50506.15
566.029	49897.91
566.228	50039.22
566.427	49703.35
566.625	49656.24
566.824	49138.11
567.023	49848.75
567.222	48830.91
567.42	49910.19
567.619	49480.12
567.818	49279.42
568.016	49062.33
568.215	49766.84
568.414	49170.88
568.612	49572.28
568.811	49162.68
569.01	48888.26
569.208	48363.98
569.407	49097.15
569.605	48384.46
569.804	48644.55
570.002	48552.39
570.201	48796.1
570.4	48538.05
570.598	48144.84
570.797	47800.79
570.995	48503.24
571.193	47911.38
571.392	48478.66
571.59	47745.49
571.789	47839.7
571.987	47407.58
572.186	47499.73
572.384	47167.96
572.582	47671.76
572.781	47493.59
572.979	47004.13
573.177	47215.07
573.376	47208.92
573.574	46797.28
573.772	46862.82
573.971	46598.63
574.169	46334.44
574.367	46389.73
574.565	46445.03
574.763	45887.98
574.962	45871.6
575.16	45167.1
575.358	46221.8
575.556	45388.28
575.754	45847.02
575.952	45451.77
576.151	45703.67
576.349	44841.47
576.547	45435.38
576.745	45115.9
576.943	45214.2
577.141	44872.19
577.339	45199.86
577.537	44683.78
577.735	44708.35
577.933	44450.31
578.131	44374.53
578.329	44352.01
578.527	44022.28
578.725	44145.16
578.923	44272.14
579.121	43440.66
579.319	43729.42
579.516	43915.79
579.714	43659.79
579.912	43364.88
580.11	43371.03
580.308	43207.19
580.506	42963.48
580.704	42474.02
580.901	42777.12
581.099	43248.15
581.297	42523.17
581.495	43006.49
581.692	42744.35
581.89	42435.11
582.088	42670.62
582.285	42412.58
582.483	42144.3
582.681	42523.17
582.878	42301.99
583.076	41538.1
583.274	42162.73
583.471	41400.88
583.669	42228.26
583.866	41357.88
584.064	41591.34
584.262	40862.27
584.459	41306.68
584.657	41065.02
584.854	40899.13
585.052	40352.32
585.249	40907.32
585.447	41024.06
585.644	40243.78
585.841	40008.26
586.039	40708.67
586.236	40163.91
586.434	40168.01
586.631	40016.46
586.828	40020.55
587.026	39641.68
587.223	39533.14
587.42	39551.57
587.618	39565.9
587.815	39338.58
588.012	39010.9
588.21	38838.87
588.407	39635.53
588.604	38797.91
588.801	38709.85
588.999	38566.49
589.196	38816.35
589.393	38392.42
589.59	38636.13
589.787	38369.89
589.984	38541.92
590.182	38197.86
590.379	38224.48
590.576	37888.62
590.773	37782.12
590.97	37409.39
591.167	37741.16
591.364	37214.83
591.561	37413.49
591.758	37085.81
591.955	37208.69
592.152	37634.67
592.349	37261.94
592.546	36749.95
592.743	36866.68
592.94	36440.7
593.137	36856.44
593.334	36784.76
593.531	36231.81
593.727	36414.08
593.924	36364.93
594.121	35750.54
594.318	36174.47
594.515	36074.12
594.712	35967.62
594.908	35932.81
595.105	35570.32
595.302	35410.57
595.499	35875.46
595.696	35533.45
595.892	35132.05
596.089	35443.34
596.286	35627.66
596.482	34771.61
596.679	34679.45
596.876	34765.46
597.072	34405.02
597.269	34673.31
597.466	34570.91
597.662	34263.71
597.859	34380.45
598.055	34329.25
598.252	34007.72
598.448	34046.63
598.645	34065.06
598.841	33561.26
599.038	33987.24
599.234	33895.08
599.431	33542.83
599.627	33473.2
599.824	33614.51
600.02	33237.68
600.217	33221.3
600.413	33260.21
600.609	32588.47
600.806	32789.17
601.002	32965.3
601.198	32473.79
601.395	32760.5
601.591	32279.23
601.787	32746.17
601.984	32449.21
602.18	32715.45
602.376	32260.8
602.572	32111.3
602.769	32189.12
602.965	32072.39
603.161	31900.36
603.357	31810.25
603.553	31642.31
603.75	31707.85
603.946	31195.85
604.142	31322.83
604.338	30499.55
604.534	31046.35
604.73	31109.84
604.926	30704.34
605.122	30649.05
605.318	30565.08
605.514	30339.8
605.71	30302.94
605.906	30358.24
606.102	30014.18
606.298	30079.71
606.494	30038.75
606.69	29997.79
606.886	29846.24
607.082	29438.7
607.278	29772.52
607.474	29313.77
607.67	29616.87
607.866	29006.58
608.062	29672.17
608.257	29330.16
608.453	29248.24
608.649	29184.75
608.845	28658.42
609.041	29186.8
609.236	28953.33
609.432	28812.02
609.628	28699.38
609.824	28865.27
610.019	28504.82
610.215	28529.4
610.411	28521.21
610.606	28312.31
610.802	28619.51
610.998	28103.42
611.193	28320.51
611.389	27802.37
611.584	27693.83
611.78	27745.03
611.976	27814.66
612.171	27775.75
612.367	27482.89
612.562	27482.89
612.758	27187.98
612.953	27337.48
613.149	27620.1
613.344	27249.42
613.539	27734.79
613.735	27304.71
613.93	27003.66
614.126	27020.05
614.321	27317
614.517	26704.66
614.712	26684.18
614.907	26729.23
615.103	26899.22
615.298	26727.19
615.493	26612.5
615.688	26393.37
615.884	26692.37
616.079	26356.5
616.274	26338.07
616.47	26487.57
616.665	26250.01
616.86	25832.22
617.055	26100.51
617.25	26145.56
617.445	26055.45
617.641	25604.9
617.836	26037.02
618.031	25580.32
618.226	25336.62
618.421	25584.42
618.616	25652
618.811	25232.17
619.006	25383.72
619.201	25049.9
619.396	24959.79
619.591	24656.69
619.786	24789.81
619.981	24445.75
620.176	24795.95
620.371	24238.9
620.566	24445.75
620.761	24169.27
620.956	24374.07
621.151	23841.6
621.346	23931.71
621.541	23669.57
621.735	23950.14
621.93	23311.17
622.125	23763.78
622.32	23046.99
622.515	23354.18
622.709	23096.14
622.904	23034.7
623.099	22846.29
623.294	22811.47
623.488	22498.13
623.683	22424.4
623.878	22444.88
624.072	22481.75
624.267	22158.17
624.462	22291.29
624.656	22010.71
624.851	22012.76
625.046	21570.4
625.24	21592.93
625.435	21255.01
625.629	21336.93
625.824	21144.42
626.018	21199.72
626.213	20427.63
626.407	20806.51
626.602	20431.73
626.796	20638.58
626.991	20652.91
627.185	20124.54
627.38	20218.74
627.574	19815.29
627.768	19985.27
627.963	19772.28
628.157	19702.65
628.352	19608.45
628.546	19620.74
628.74	19850.11
628.935	19442.56
629.129	19295.11
629.323	19342.21
629.517	19293.06
629.712	18981.77
629.906	18895.75
630.1	18705.29
630.294	18709.39
630.489	18484.11
630.683	18568.08
630.877	18422.67
631.071	18428.82
631.265	18303.89
631.459	18324.37
631.653	18078.61
631.848	17894.3
632.042	17832.86
632.236	17873.82
632.43	17451.94
632.624	17730.46
632.818	17523.62
633.012	17431.46
633.206	17523.62
633.4	17601.44
633.594	17056.68
633.788	17195.94
633.982	17404.83
634.176	16923.56
634.369	16978.86
634.563	16874.41
634.757	16782.25
634.951	16786.35
635.145	16583.6
635.339	16657.32
635.533	16540.59
635.726	16294.83
635.92	16108.47
636.114	16202.68
636.308	16018.36
636.501	16042.93
636.695	16114.61
636.889	15754.17
637.083	15875
637.276	15731.64
637.47	15854.52
637.664	15496.13
637.857	15836.09
638.051	15459.26
638.244	15342.53
638.438	15164.36
638.632	15190.98
638.825	15100.87
639.019	15135.68
639.212	15006.66
639.406	14822.34
639.599	14842.82
639.793	14607.31
639.986	14621.64
640.18	14562.25
640.373	14664.65
640.567	14304.21
640.76	14476.24
640.954	14257.11
641.147	14136.27
641.34	14187.47
641.534	14017.49
641.727	14148.56
641.92	14033.88
642.114	14066.64
642.307	13773.78
642.5	13781.98
642.694	13618.14
642.887	13519.84
643.08	13607.9
643.273	13376.48
643.467	13513.69
643.66	13085.67
643.853	13341.66
644.046	12999.65
644.239	13261.79
644.432	13136.87
644.626	12858.34
644.819	12919.78
645.012	12725.22
645.205	12643.31
645.398	12495.85
645.591	12577.77
645.784	12432.36
645.977	12278.77
646.17	12344.3
646.363	12151.79
646.556	12172.27
646.749	11893.75
646.942	12401.65
647.135	12055.54
647.328	12080.11
647.521	11883.51
647.714	11678.71
647.907	11760.63
648.099	11637.75
648.292	11705.34
648.485	11596.79
648.678	11338.75
648.871	11260.93
649.064	11310.08
649.256	11465.72
649.449	11267.07
649.642	11138.05
649.835	11105.28
650.027	11068.42
650.22	10894.34
650.413	10943.49
650.605	10591.24
650.798	10880
650.991	10359.82
651.183	10687.5
651.376	10294.29
651.568	10464.27
651.761	10298.38
651.954	10298.38
652.146	10263.57
652.339	10234.89
652.531	10157.07
652.724	9745.43
652.916	9931.8
653.109	9978.9
653.301	9804.82
653.494	9872.4
653.686	9694.23
653.879	9927.7
654.071	9741.33
654.263	9462.81
654.456	9423.9
654.648	9454.62
654.84	9114.66
655.033	9147.42
655.225	9215.01
655.417	9198.62
655.61	9051.17
655.802	8903.71
655.994	8840.23
656.186	8987.68
656.379	8797.22
656.571	8717.35
656.763	8555.56
656.955	8696.87
657.148	8426.54
657.34	8512.55
657.532	8313.9
657.724	8324.14
657.916	8338.48
658.108	8272.94
658.3	8127.53
658.492	8342.57
658.684	8023.09
658.876	7978.03
659.068	7988.27
659.26	8010.8
659.452	7779.38
659.644	7830.58
659.836	7593.01
660.028	7711.8
660.22	7601.21
660.412	7427.13
660.604	7433.27
660.796	7251
660.988	7334.97
661.18	7302.2
661.372	7150.65
661.563	7119.93
661.755	7185.47
661.947	7191.61
662.139	7003.2
662.331	7101.5
662.522	6706.24
662.714	6863.94
662.906	6888.51
663.097	6720.58
663.289	6546.5
663.481	6540.36
663.673	6575.17
663.864	6569.03
664.056	6460.49
664.247	6468.68
664.439	6452.3
664.631	6356.04
664.822	6370.38
665.014	6175.82
665.205	6300.75
665.397	6077.52
665.588	6069.33
665.78	6011.98
665.971	6034.51
666.163	6126.67
666.354	5946.45
666.546	6032.46
666.737	5968.98
666.929	5825.62
667.12	5629.01
667.311	5727.32
667.503	5545.05
667.694	5774.42
667.885	5508.18
668.077	5604.44
668.268	5358.68
668.459	5583.96
668.651	5563.48
668.842	5309.53
669.033	5399.64
669.224	5282.91
669.416	5399.64
669.607	5248.09
669.798	5276.76
669.989	5225.56
670.18	5186.65
670.371	5252.19
670.563	5127.26
670.754	5057.63
670.945	5141.6
671.136	5098.59
671.327	5010.53
671.518	4940.9
671.709	4840.54
671.9	5059.68
672.091	4922.46
672.282	4807.78
672.473	4787.3
672.664	4824.16
672.855	4744.29
673.046	4772.96
673.237	4830.3
673.428	4906.08
673.619	4648.04
673.809	4623.46
674	4770.91
674.191	4715.62
674.382	4594.79
674.573	4740.19
674.764	4516.97
674.954	4586.6
675.145	4533.35
675.336	4453.48
675.527	4441.19
675.717	4539.49
675.908	4414.57
676.099	4318.31
676.289	4320.36
676.48	4318.31
676.671	4342.89
676.861	4379.75
677.052	4244.59
677.243	4166.76
677.433	4187.24
677.624	4373.61
677.814	4187.24
678.005	4353.13
678.195	4193.39
678.386	4316.26
678.576	4129.9
678.767	4154.48
678.957	4199.53
679.148	4179.05
679.338	4013.17
679.529	4136.04
679.719	4117.61
679.909	4021.36
680.1	4004.97
680.29	4076.65
680.481	4009.07
680.671	3964.01
680.861	4004.97
681.052	4011.12
681.242	3892.34
681.432	3980.4
681.622	3849.33
681.813	3875.95
682.003	3888.24
682.193	3984.49
682.383	3939.44
682.573	3853.42
682.764	3918.96
682.954	3816.56
683.144	3845.23
683.334	3800.18
683.524	3687.54
683.714	3857.52
683.904	3916.91
684.094	3742.83
684.284	3857.52
684.474	3738.74
684.664	3652.72
684.854	3816.56
685.044	3744.88
685.234	3701.87
685.424	3619.96
685.614	3789.94
685.804	3732.59
685.994	3763.31
686.184	3701.87
686.374	3775.6
686.564	3832.94
686.753	3615.86
686.943	3589.24
687.133	3667.06
687.323	3587.19
687.513	3615.86
687.702	3619.96
687.892	3648.63
688.082	3675.25
688.272	3650.67
688.461	3671.15
688.651	3644.53
688.841	3562.61
689.03	3591.28
689.22	3497.08
689.41	3583.09
689.599	3619.96
689.789	3630.2
689.979	3447.93
690.168	3568.76
690.358	3546.23
690.547	3640.44
690.737	3652.72
690.926	3542.13
691.116	3400.82
691.305	3540.08
691.495	3488.89
691.684	3421.3
691.874	3579
692.063	3546.23
692.252	3540.08
692.442	3468.41
692.631	3523.7
692.82	3634.29
693.01	3583.09
693.199	3603.57
693.388	3449.97
693.578	3638.39
693.767	3509.37
693.956	3513.46
694.146	3558.52
694.335	3366.01
694.524	3415.16
694.713	3521.65
694.902	3413.11
695.092	3542.13
695.281	3445.88
695.47	3564.66
695.659	3476.6
695.848	3386.49
696.037	3353.72
696.226	3415.16
696.415	3374.2
696.604	3363.96
696.793	3376.25
696.982	3449.97
697.171	3394.68
697.36	3294.33
697.549	3351.67
697.738	3343.48
697.927	3355.77
698.116	3398.77
698.305	3310.71
698.494	3302.52
698.683	3253.37
698.872	3386.49
699.061	3374.2
699.25	3312.76
699.438	3292.28
699.627	3333.24
699.816	3284.09
700.005	3335.29
700.193	3191.93
700.382	3404.92
700.571	3148.92
700.76	3255.42
700.948	3290.23
701.137	3140.73
701.326	3214.46
701.514	3325.05
701.703	3335.29
701.892	3183.74
702.08	3153.02
702.269	2987.13
702.457	3050.62
702.646	3191.93
702.834	3161.21
703.023	3048.57
703.212	3169.4
703.4	3050.62
703.589	3114.11
703.777	3091.58
703.965	3071.1
704.154	3024
704.342	3112.06
704.531	3019.9
704.719	2962.56
704.907	2935.93
705.096	2890.88
705.284	3007.61
705.472	2890.88
705.661	2860.16
705.849	2950.27
706.037	2858.11
706.226	2858.11
706.414	2804.86
706.602	2909.31
706.79	2854.02
706.979	2815.1
707.167	2825.34
707.355	2874.49
707.543	2974.85
707.731	2882.69
707.919	2843.78
708.107	2686.08
708.296	2759.81
708.484	2751.62
708.672	2864.25
708.86	2651.27
709.048	2722.95
709.236	2710.66
709.424	2714.75
709.612	2569.35
709.8	2690.18
709.988	2702.47
710.176	2665.6
710.364	2616.45
710.551	2581.64
710.739	2622.59
710.927	2618.5
711.115	2497.67
711.303	2559.11
711.491	2415.75
711.679	2571.4
711.866	2589.83
712.054	2493.57
712.242	2548.87
712.43	2477.19
712.617	2473.09
712.805	2360.45
712.993	2522.24
713.181	2557.06
713.368	2413.7
713.556	2548.87
713.744	2389.13
713.931	2397.32
714.119	2421.89
714.306	2366.6
714.494	2344.07
714.682	2337.93
714.869	2337.93
715.057	2258.06
715.244	2325.64
715.432	2268.3
715.619	2339.97
715.807	2233.48
715.994	2174.09
716.182	2299.02
716.369	2186.38
716.556	2194.57
716.744	2147.47
716.931	2145.42
717.119	2159.75
717.306	2176.14
717.493	2231.43
717.681	2270.34
717.868	2012.3
718.055	2059.4
718.242	2131.08
718.43	2143.37
718.617	2055.31
718.804	2137.23
718.991	1959.05
719.179	2071.69
719.366	2018.44
719.553	2063.5
719.74	2034.83
719.927	2088.07
720.114	2051.21
720.301	1934.48
720.488	1895.57
720.676	2055.31
720.863	1934.48
721.05	1881.23
721.237	1852.56
721.424	1879.18
721.611	1938.57
721.798	1866.89
721.985	1967.24
722.172	1891.47
722.358	1830.03
722.545	1971.34
722.732	1844.37
722.919	1868.94
723.106	1778.83
723.293	1741.97
723.48	1862.8
723.667	1803.41
723.853	1799.31
724.04	1754.26
724.227	1764.5
724.414	1658
724.6	1637.52
724.787	1604.75
724.974	1764.5
725.161	1682.58
725.347	1756.3
725.534	1651.86
725.72	1643.67
725.907	1653.91
726.094	1676.43
726.28	1631.38
726.467	1617.04
726.653	1664.15
726.84	1635.47
727.027	1660.05
727.213	1541.27
727.4	1645.71
727.586	1655.95
727.773	1637.52
727.959	1510.55
728.145	1547.41
728.332	1563.79
728.518	1565.84
728.705	1518.74
728.891	1496.21
729.077	1559.7
729.264	1528.98
729.45	1571.99
729.636	1553.55
729.823	1557.65
730.009	1522.84
730.195	1502.36
730.382	1350.81
730.568	1514.64
730.754	1506.45
730.94	1408.15
731.126	1479.83
731.313	1367.19
731.499	1442.96
731.685	1393.81
731.871	1342.61
732.057	1465.49
732.243	1459.35
732.429	1375.38
732.615	1449.11
732.801	1356.95
732.987	1350.81
733.173	1350.81
733.359	1254.55
733.545	1330.33
733.731	1307.8
733.917	1371.29
734.103	1309.85
734.289	1426.58
734.475	1246.36
734.661	1328.28
734.847	1266.84
735.033	1281.18
735.219	1238.17
735.404	1338.52
735.59	1293.46
735.776	1211.54
735.962	1287.32
736.148	1283.22
736.333	1172.63
736.519	1285.27
736.705	1277.08
736.89	1240.22
737.076	1232.02
737.262	1178.78
737.447	1229.98
737.633	1141.91
737.819	1272.98
738.004	1221.78
738.19	1113.24
738.375	1193.11
738.561	1164.44
738.747	1180.82
738.932	1195.16
739.118	1227.93
739.303	1135.77
739.489	1129.63
739.674	1139.87
739.859	1164.44
740.045	1072.28
740.23	1105.05
740.416	1027.23
740.601	1098.91
740.786	1170.58
740.972	998.56
741.157	1119.39
741.342	1064.09
741.528	1029.27
741.713	1064.09
741.898	1150.11
742.084	1014.94
742.269	982.17
742.454	1016.99
742.639	1043.61
742.824	1107.1
743.01	1027.23
743.195	1004.7
743.38	973.98
743.565	1098.91
743.75	965.79
743.935	978.08
744.12	984.22
744.305	1023.13
744.49	859.29
744.675	1025.18
744.86	990.36
745.045	969.88
745.23	982.17
745.415	1014.94
745.6	943.26
745.785	863.39
745.97	910.49
746.155	965.79
746.34	949.4
746.525	967.84
746.71	894.11
746.895	957.6
747.079	832.67
747.264	900.25
747.449	976.03
747.634	855.2
747.819	824.48
748.003	894.11
748.188	847.01
748.373	834.72
748.557	818.33
748.742	826.53
748.927	822.43
749.111	797.85
749.296	871.58
749.481	898.2
749.665	715.94
749.85	863.39
750.034	855.2
750.219	900.25
750.404	832.67
750.588	824.48
750.773	701.6
750.957	713.89
751.141	777.37
751.326	844.96
751.51	726.18
751.695	720.03
751.879	685.22
752.064	787.61
752.248	769.18
752.432	740.51
752.617	717.98
752.801	697.5
752.985	793.76
753.17	695.46
753.354	693.41
753.538	646.3
753.722	740.51
753.907	703.65
754.091	689.31
754.275	750.75
754.459	607.39
754.643	681.12
754.828	681.12
755.012	683.17
755.196	683.17
755.38	687.26
755.564	660.64
755.748	650.4
755.932	648.35
756.116	605.35
756.3	629.92
756.484	693.41
756.668	613.54
756.852	582.82
757.036	564.39
757.22	607.39
757.404	541.86
757.588	619.68
757.772	625.83
757.956	627.87
758.14	701.6
758.323	560.29
758.507	679.07
758.691	566.43
758.875	599.2
759.059	599.2
759.242	537.76
759.426	625.83
759.61	502.95
759.794	558.24
759.977	552.1
760.161	562.34
760.345	576.67
760.528	648.35
760.712	550.05
760.895	586.91
761.079	662.69
761.263	572.58
761.446	566.43
761.63	586.91
761.813	519.33
761.997	558.24
762.18	484.52
762.364	498.85
762.547	564.39
762.731	543.91
762.914	488.61
763.098	545.95
763.281	509.09
763.464	478.37
763.648	470.18
763.831	597.15
764.015	582.82
764.198	492.71
764.381	584.87
764.564	500.9
764.748	521.38
764.931	566.43
765.114	484.52
765.297	490.66
765.481	515.23
765.664	529.57
765.847	459.94
766.03	498.85
766.213	449.7
766.397	502.95
766.58	519.33
766.763	558.24
766.946	431.27
767.129	511.14
767.312	443.56
767.495	390.31
767.678	537.76
767.861	457.89
768.044	433.32
768.227	466.08
768.41	461.99
768.593	464.04
768.776	470.18
768.959	502.95
769.142	441.51
769.324	511.14
769.507	433.32
769.69	500.9
769.873	445.6
770.056	492.71
770.239	490.66
770.421	459.94
770.604	431.27
770.787	441.51
770.97	511.14
771.152	457.89
771.335	441.51
771.518	435.36
771.7	464.04
771.883	482.47
772.066	443.56
772.248	455.84
772.431	416.93
772.613	468.13
772.796	494.76
772.978	386.21
773.161	433.32
773.343	431.27
773.526	470.18
773.708	361.64
773.891	486.56
774.073	449.7
774.256	326.82
774.438	451.75
774.621	373.92
774.803	425.12
774.985	431.27
775.168	482.47
775.35	490.66
775.532	382.12
775.715	390.31
775.897	472.23
776.079	400.55
776.261	380.07
776.444	425.12
776.626	396.45
776.808	384.16
776.99	427.17
777.173	382.12
777.355	380.07
777.537	355.49
777.719	341.16
777.901	267.43
778.083	359.59
778.265	339.11
778.447	439.46
778.629	326.82
778.811	341.16
778.993	388.26
779.175	380.07
779.357	326.82
779.539	375.97
779.721	339.11
779.903	265.38
780.085	316.58
780.267	371.88
780.449	347.3
780.631	361.64
780.812	269.48
780.994	392.36
781.176	322.73
781.358	335.01
781.54	328.87
781.721	273.57
781.903	277.67
782.085	343.21
782.267	216.23
782.448	283.81
782.63	343.21
782.812	287.91
782.993	238.76
783.175	384.16
783.357	285.86
783.538	300.2
783.72	296.1
783.901	318.63
784.083	341.16
784.264	294.05
784.446	257.19
784.627	228.52
784.809	279.72
784.99	279.72
785.172	294.05
785.353	253.09
785.535	261.29
785.716	265.38
785.897	318.63
786.079	251.05
786.26	228.52
786.441	212.14
786.623	287.91
786.804	261.29
786.985	187.56
787.167	257.19
787.348	253.09
787.529	195.75
787.71	224.42
787.891	222.38
788.073	244.9
788.254	308.39
788.435	263.33
788.616	246.95
788.797	326.82
788.978	251.05
789.159	244.9
789.34	220.33
789.522	224.42
789.703	214.18
789.884	228.52
790.065	251.05
790.246	242.85
790.427	220.33
790.607	240.81
790.788	255.14
790.969	234.66
791.15	228.52
791.331	212.14
791.512	246.95
791.693	220.33
791.874	228.52
792.054	228.52
792.235	226.47
792.416	226.47
792.597	167.08
792.778	189.61
792.958	267.43
793.139	122.02
793.32	244.9
793.5	187.56
793.681	156.84
793.862	273.57
794.042	208.04
794.223	158.89
794.404	185.51
794.584	158.89
794.765	138.41
794.945	171.18
795.126	222.38
795.306	208.04
795.487	138.41
795.667	158.89
795.848	173.22
796.028	175.27
796.209	220.33
796.389	224.42
796.57	212.14
796.75	195.75
796.93	179.37
797.111	216.23
797.291	175.27
797.471	152.74
797.652	138.41
797.832	109.74
798.012	203.94
798.192	99.5
798.373	117.93
798.553	38.06
798.733	167.08
798.913	160.94
799.093	105.64
799.274	226.47
799.454	179.37
799.634	105.64
799.814	150.7
799.994	109.74
800.174	193.7
800.354	179.37
800.534	95.4
800.714	124.07
800.894	130.22
801.074	101.55
801.254	134.31
801.434	173.22
801.614	111.78
801.794	208.04
801.974	367.78
802.154	72.87
802.334	165.03
802.514	113.83
802.693	148.65
802.873	58.54
803.053	187.56
803.233	93.35
803.413	101.55
803.592	101.55
803.772	79.02
803.952	97.45
804.131	154.79
804.311	109.74
804.491	156.84
804.67	95.4
804.85	115.88
805.03	124.07
805.209	160.94
805.389	48.3
805.568	109.74
805.748	122.02
805.928	91.31
806.107	101.55
806.287	136.36
806.466	97.45
806.646	99.5
806.825	142.5
807.004	95.4
807.184	111.78
807.363	124.07
807.543	144.55
807.722	130.22
807.901	62.63
808.081	113.83
808.26	87.21
808.439	126.12
808.619	72.87
808.798	44.2
808.977	113.83
809.156	105.64
809.336	97.45
809.515	146.6
809.694	113.83
809.873	13.48
810.052	52.39
810.231	95.4
810.411	83.11
810.59	91.31
810.769	109.74
810.948	97.45
811.127	95.4
811.306	56.49
811.485	7.34
811.664	99.5
811.843	76.97
812.022	101.55
812.201	93.35
812.38	101.55
812.559	97.45
812.737	85.16
812.916	27.82
813.095	101.55
813.274	76.97
813.453	101.55
813.632	119.98
813.811	81.07
813.989	56.49
814.168	89.26
814.347	70.83
814.526	111.78
814.704	101.55
814.883	105.64
815.062	70.83
815.24	119.98
815.419	128.17
815.598	122.02
815.776	25.77
815.955	105.64
816.133	-7
816.312	68.78
816.49	56.49
816.669	91.31
816.847	56.49
817.026	126.12
817.204	60.59
817.383	56.49
817.561	89.26
817.74	113.83
817.918	56.49
818.097	27.82
818.275	23.72
818.453	17.58
818.632	56.49
818.81	113.83
818.988	142.5
819.167	62.63
819.345	91.31
819.523	60.59
819.701	42.15
819.879	113.83
820.058	46.25
820.236	72.87
820.414	140.46
820.592	97.45
820.77	64.68
820.948	76.97
821.127	23.72
821.305	-2.9
821.483	105.64
821.661	101.55
821.839	68.78
822.017	68.78
822.195	-9.05
822.373	66.73
822.551	29.87
822.729	85.16
822.907	66.73
823.085	66.73
823.262	62.63
823.44	74.92
823.618	21.67
823.796	42.15
823.974	87.21
824.152	134.31
824.329	38.06
824.507	1.19
824.685	58.54
824.863	48.3
825.04	9.39
825.218	60.59
825.396	-41.81
825.574	27.82
825.751	93.35
825.929	70.83
826.107	87.21
826.284	31.91
826.462	29.87
826.639	91.31
826.817	60.59
826.994	-9.05
827.172	74.92
827.349	89.26
827.527	44.2
827.704	48.3
827.882	27.82
828.059	76.97
828.237	13.48
828.414	48.3
828.591	31.91
828.769	89.26
828.946	3.24
829.124	40.11
829.301	58.54
829.478	-0.85
829.655	107.69
829.833	89.26
830.01	-15.19
830.187	93.35
830.364	97.45
830.542	-7
830.719	66.73
830.896	19.63
831.073	25.77
831.25	70.83
831.427	54.44
831.604	64.68
831.782	9.39
831.959	-25.43
832.136	-0.85
832.313	31.91
832.49	7.34
832.667	42.15
832.844	27.82
833.021	154.79
833.198	5.29
833.374	70.83
833.551	36.01
833.728	11.43
833.905	38.06
834.082	27.82
834.259	76.97
834.436	38.06
834.612	60.59
834.789	72.87
834.966	83.11
835.143	9.39
835.319	15.53
835.496	58.54
835.673	11.43
835.85	-17.24
836.026	-39.76
836.203	62.63
836.38	38.06
836.556	29.87
836.733	25.77
836.909	72.87
837.086	31.91
837.262	44.2
837.439	50.35
837.616	74.92
837.792	23.72
837.968	56.49
838.145	81.07
838.321	126.12
838.498	48.3
838.674	7.34
838.851	17.58
839.027	70.83
839.203	38.06
839.38	21.67
839.556	-41.81
839.732	52.39
839.909	19.63
840.085	25.77
840.261	62.63
840.437	60.59
840.614	5.29
840.79	74.92
840.966	38.06
841.142	11.43
841.318	31.91
841.494	31.91
841.671	-2.9
841.847	56.49
842.023	56.49
842.199	56.49
842.375	-2.9
842.551	-13.14
842.727	-72.53
842.903	50.35
843.079	21.67
843.255	40.11
843.431	-27.48
843.607	54.44
843.783	5.29
843.959	-17.24
844.134	99.5
844.31	76.97
844.486	11.43
844.662	3.24
844.838	-45.91
845.013	68.78
845.189	5.29
845.365	1.19
845.541	58.54
845.716	11.43
845.892	7.34
846.068	17.58
846.244	44.2
846.419	33.96
846.595	68.78
846.77	-19.29
846.946	60.59
847.122	40.11
847.297	23.72
847.473	44.2
847.648	19.63
847.824	56.49
847.999	23.72
848.175	-31.57
848.35	7.34
848.526	76.97
848.701	-45.91
848.876	60.59
849.052	7.34
849.227	9.39
849.403	13.48
849.578	-37.72
849.753	15.53
849.929	66.73
850.104	5.29
850.279	64.68
850.454	48.3
850.63	25.77
850.805	-0.85
850.98	44.2
851.155	52.39
851.33	27.82
851.505	1.19
851.681	128.17
851.856	25.77
852.031	91.31
852.206	60.59
852.381	46.25
852.556	38.06
852.731	31.91
852.906	56.49
853.081	-54.1
853.256	-2.9
853.431	27.82
853.606	11.43
853.781	15.53
853.956	-17.24
854.131	72.87
854.305	46.25
854.48	15.53
854.655	-39.76
854.83	-47.96
855.005	29.87
855.18	64.68
855.354	48.3
855.529	33.96
855.704	-7
855.879	31.91
856.053	52.39
856.228	44.2
856.403	-7
856.577	103.59
856.752	9.39
856.926	-17.24
857.101	-58.2
857.276	-25.43
857.45	-9.05
857.625	-19.29
857.799	-50
857.974	62.63
858.148	-27.48
858.323	29.87
858.497	17.58
858.672	27.82
858.846	7.34
859.02	124.07
859.195	33.96
859.369	-19.29
859.543	-15.19
859.718	31.91
859.892	-17.24
860.066	19.63
860.241	1.19
860.415	58.54
860.589	17.58
860.763	46.25
860.938	17.58
861.112	-4.95
861.286	48.3
861.46	93.35
861.634	9.39
861.808	-2.9
861.982	-4.95
862.157	89.26
862.331	54.44
862.505	40.11
862.679	62.63
862.853	1.19
863.027	42.15
863.201	19.63
863.375	-25.43
863.549	-7
863.722	36.01
863.896	60.59
864.07	76.97
864.244	-29.52
864.418	-68.44
864.592	-60.24
864.766	64.68
864.939	-4.95
865.113	83.11
865.287	76.97
865.461	-39.76
865.634	-45.91
865.808	89.26
865.982	-52.05
866.156	44.2
866.329	-9.05
866.503	38.06
866.676	58.54
866.85	21.67
867.024	23.72
867.197	-19.29
867.371	-17.24
867.544	11.43
867.718	-41.81
867.891	25.77
868.065	1.19
868.238	-9.05
868.412	31.91
868.585	19.63
868.759	27.82
868.932	38.06
869.105	46.25
869.279	83.11
869.452	19.63
869.625	-25.43
869.799	-15.19
869.972	-47.96
870.145	7.34
870.319	-17.24
870.492	-66.39
870.665	13.48
870.838	23.72
871.011	-47.96
871.185	-4.95
871.358	-37.72
871.531	1.19
871.704	-56.15
871.877	21.67
872.05	56.49
872.223	38.06
872.396	60.59
872.569	50.35
872.742	42.15
872.915	76.97
873.088	-9.05
873.261	36.01
873.434	-23.38
873.607	7.34
873.78	87.21
873.953	1.19
874.126	-9.05
874.299	15.53
874.471	-4.95
874.644	3.24
874.817	25.77
874.99	-7
875.163	-0.85
875.335	38.06
875.508	21.67
875.681	-41.81
875.853	-70.48
876.026	31.91
876.199	3.24
876.371	-25.43
876.544	62.63
876.717	105.64
876.889	15.53
877.062	60.59
877.234	-56.15
877.407	-17.24
877.579	-56.15
877.752	-39.76
877.924	1.19
878.097	52.39
878.269	-13.14
878.442	-19.29
878.614	13.48
878.786	42.15
878.959	48.3
879.131	62.63
879.303	9.39
879.476	5.29
879.648	52.39
879.82	21.67
879.993	1.19
880.165	-4.95
880.337	85.16
880.509	50.35
880.681	44.2
880.854	-9.05
881.026	-60.24
881.198	76.97
881.37	23.72
881.542	23.72
881.714	-50
881.886	27.82
882.058	31.91
882.23	48.3
882.402	-17.24
882.574	66.73
882.746	-58.2
882.918	33.96
883.09	-9.05
883.262	-4.95
883.434	-17.24
883.606	-17.24
883.778	-13.14
883.95	-9.05
884.122	-9.05
884.293	33.96
884.465	19.63
884.637	60.59
884.809	13.48
884.98	33.96
885.152	-72.53
885.324	40.11
885.496	7.34
885.667	25.77
885.839	-15.19
886.011	56.49
886.182	46.25
886.354	27.82
886.525	-4.95
886.697	23.72
886.869	9.39
887.04	27.82
887.212	40.11
887.383	50.35
887.555	-21.33
887.726	-17.24
887.897	5.29
888.069	7.34
888.24	-29.52
888.412	42.15
888.583	-15.19
888.754	-33.62
888.926	-7
889.097	23.72
889.268	40.11
889.44	33.96
889.611	-21.33
889.782	-23.38
889.953	-113.49
890.125	81.07
890.296	70.83
890.467	-21.33
890.638	-25.43
890.809	40.11
890.98	-9.05
891.151	76.97
891.323	-39.76
891.494	17.58
891.665	-25.43
891.836	40.11
892.007	17.58
892.178	81.07
892.349	27.82
892.52	-25.43
892.691	126.12
892.862	103.59
893.032	11.43
893.203	46.25
893.374	-4.95
893.545	1.19
893.716	7.34
893.887	-35.67
894.057	3.24
894.228	27.82
894.399	31.91
894.57	42.15
894.74	-0.85
894.911	93.35
895.082	17.58
895.253	48.3
895.423	44.2
895.594	-4.95
895.764	-0.85
895.935	29.87
896.106	-11.09
896.276	-21.33
896.447	-45.91
896.617	13.48
896.788	31.91
896.958	-80.72
897.129	-47.96
897.299	83.11
897.47	-4.95
897.64	3.24
897.81	-23.38
897.981	-0.85
898.151	-41.81
898.322	40.11
898.492	11.43
898.662	-15.19
898.832	-17.24
899.003	7.34
899.173	105.64
899.343	25.77
899.513	3.24
