Data from USB4F104151__80__13-54-19-851.txt Node

Date: Thu Mar 13 13:54:19 EDT 2025
User: louis
Spectrometer: USB4F10415
Trigger mode: 4
Integration Time (sec): 1.000000E-2
Scans to average: 1
Electric dark correction enabled: true
Nonlinearity correction enabled: false
Boxcar width: 0
XAxis mode: Wavelengths
Number of Pixels in Spectrum: 3648
>>>>>Begin Spectral Data<<<<<
178.204	-46.76
178.424	-46.76
178.644	-46.76
178.864	-77.48
179.084	-40.62
179.304	41.3
179.524	-24.23
179.744	22.87
179.964	-34.47
180.184	-11.95
180.404	-52.91
180.624	8.53
180.844	49.49
181.064	0.34
181.283	-5.8
181.503	6.49
181.723	0.34
181.943	8.53
182.163	22.87
182.383	-7.85
182.602	53.59
182.822	20.82
183.042	-5.8
183.262	-20.14
183.482	22.87
183.701	-13.99
183.921	8.53
184.141	-71.34
184.361	16.73
184.58	-5.8
184.8	37.2
185.02	92.5
185.239	14.68
185.459	53.59
185.679	65.88
185.898	29.01
186.118	57.68
186.338	-9.9
186.557	24.92
186.777	-50.86
186.997	69.97
187.216	49.49
187.436	106.84
187.655	57.68
187.875	57.68
188.095	55.64
188.314	14.68
188.534	33.11
188.753	49.49
188.973	18.77
189.192	41.3
189.412	-42.67
189.631	26.96
189.851	8.53
190.07	-42.67
190.29	0.34
190.509	47.44
190.729	-20.14
190.948	-36.52
191.168	10.58
191.387	63.83
191.607	37.2
191.826	37.2
192.045	-34.47
192.265	119.12
192.484	18.77
192.704	47.44
192.923	14.68
193.142	65.88
193.362	-16.04
193.581	59.73
193.8	-7.85
194.02	10.58
194.239	24.92
194.458	-16.04
194.678	0.34
194.897	10.58
195.116	-18.09
195.335	4.44
195.555	6.49
195.774	4.44
195.993	-5.8
196.212	37.2
196.432	51.54
196.651	-5.8
196.87	-46.76
197.089	-7.85
197.308	4.44
197.528	-52.91
197.747	-5.8
197.966	33.11
198.185	39.25
198.404	-22.19
198.623	12.63
198.842	20.82
199.062	49.49
199.281	33.11
199.5	69.97
199.719	-22.19
199.938	-5.8
200.157	10.58
200.376	59.73
200.595	-38.57
200.814	-36.52
201.033	76.12
201.252	10.58
201.471	67.92
201.69	57.68
201.909	16.73
202.128	20.82
202.347	55.64
202.566	41.3
202.785	0.34
203.004	-24.23
203.223	31.06
203.442	33.11
203.661	2.39
203.879	31.06
204.098	-5.8
204.317	14.68
204.536	0.34
204.755	-20.14
204.974	-22.19
205.193	-38.57
205.411	31.06
205.63	0.34
205.849	51.54
206.068	49.49
206.287	-28.33
206.505	84.31
206.724	26.96
206.943	-3.75
207.162	43.35
207.381	-52.91
207.599	-11.95
207.818	8.53
208.037	-5.8
208.255	8.53
208.474	65.88
208.693	16.73
208.911	12.63
209.13	35.16
209.349	8.53
209.567	45.4
209.786	47.44
210.005	-16.04
210.223	-5.8
210.442	18.77
210.661	-24.23
210.879	14.68
211.098	-42.67
211.316	-28.33
211.535	24.92
211.753	61.78
211.972	59.73
212.191	10.58
212.409	67.92
212.628	104.79
212.846	-32.43
213.065	10.58
213.283	74.07
213.502	43.35
213.72	65.88
213.938	57.68
214.157	-44.71
214.375	-13.99
214.594	61.78
214.812	-22.19
215.031	-20.14
215.249	0.34
215.467	43.35
215.686	10.58
215.904	-28.33
216.122	100.69
216.341	76.12
216.559	37.2
216.778	10.58
216.996	65.88
217.214	65.88
217.432	14.68
217.651	-24.23
217.869	-24.23
218.087	14.68
218.306	12.63
218.524	-1.71
218.742	-22.19
218.96	-16.04
219.179	6.49
219.397	-40.62
219.615	0.34
219.833	16.73
220.051	12.63
220.27	-11.95
220.488	26.96
220.706	76.12
220.924	-26.28
221.142	-5.8
221.36	57.68
221.578	-28.33
221.796	-11.95
222.015	39.25
222.233	51.54
222.451	88.4
222.669	-16.04
222.887	-18.09
223.105	-46.76
223.323	39.25
223.541	-16.04
223.759	4.44
223.977	63.83
224.195	29.01
224.413	18.77
224.631	22.87
224.849	26.96
225.067	65.88
225.285	20.82
225.503	-20.14
225.721	-20.14
225.939	4.44
226.157	-1.71
226.375	0.34
226.592	51.54
226.81	69.97
227.028	33.11
227.246	106.84
227.464	-18.09
227.682	57.68
227.9	-18.09
228.117	0.34
228.335	43.35
228.553	-22.19
228.771	-16.04
228.989	18.77
229.206	2.39
229.424	41.3
229.642	63.83
229.86	90.45
230.077	37.2
230.295	2.39
230.513	-7.85
230.731	2.39
230.948	-16.04
231.166	-24.23
231.384	18.77
231.601	18.77
231.819	-7.85
232.037	-22.19
232.254	-44.71
232.472	6.49
232.689	-77.48
232.907	37.2
233.125	0.34
233.342	24.92
233.56	-7.85
233.777	6.49
233.995	-46.76
234.213	10.58
234.43	24.92
234.648	63.83
234.865	31.06
235.083	-1.71
235.3	2.39
235.518	39.25
235.735	-34.47
235.953	82.26
236.17	-5.8
236.388	53.59
236.605	31.06
236.822	51.54
237.04	74.07
237.257	35.16
237.475	0.34
237.692	-16.04
237.909	-54.95
238.127	39.25
238.344	22.87
238.562	8.53
238.779	22.87
238.996	8.53
239.214	24.92
239.431	74.07
239.648	8.53
239.865	35.16
240.083	53.59
240.3	55.64
240.517	31.06
240.735	-9.9
240.952	-7.85
241.169	8.53
241.386	41.3
241.603	10.58
241.821	-20.14
242.038	26.96
242.255	-30.38
242.472	24.92
242.689	-48.81
242.907	10.58
243.124	-5.8
243.341	-3.75
243.558	57.68
243.775	4.44
243.992	35.16
244.209	-1.71
244.426	63.83
244.643	-48.81
244.86	4.44
245.078	18.77
245.295	35.16
245.512	53.59
245.729	-28.33
245.946	12.63
246.163	72.02
246.38	59.73
246.597	22.87
246.814	35.16
247.031	-1.71
247.248	14.68
247.464	-11.95
247.681	69.97
247.898	53.59
248.115	-42.67
248.332	-38.57
248.549	67.92
248.766	41.3
248.983	-3.75
249.2	92.5
249.417	29.01
249.633	-44.71
249.85	16.73
250.067	-54.95
250.284	-11.95
250.501	84.31
250.717	45.4
250.934	-34.47
251.151	-67.24
251.368	18.77
251.585	92.5
251.801	24.92
252.018	31.06
252.235	47.44
252.451	-24.23
252.668	12.63
252.885	16.73
253.102	67.92
253.318	26.96
253.535	-32.43
253.752	26.96
253.968	53.59
254.185	57.68
254.401	-26.28
254.618	16.73
254.835	-13.99
255.051	55.64
255.268	22.87
255.484	67.92
255.701	14.68
255.917	29.01
256.134	-16.04
256.351	39.25
256.567	20.82
256.784	26.96
257	16.73
257.217	-5.8
257.433	37.2
257.65	-3.75
257.866	39.25
258.082	24.92
258.299	-11.95
258.515	-5.8
258.732	26.96
258.948	29.01
259.165	-13.99
259.381	-11.95
259.597	-40.62
259.814	-30.38
260.03	2.39
260.246	35.16
260.463	-34.47
260.679	-22.19
260.895	0.34
261.112	26.96
261.328	35.16
261.544	78.16
261.761	51.54
261.977	51.54
262.193	53.59
262.409	6.49
262.626	104.79
262.842	-7.85
263.058	-5.8
263.274	22.87
263.49	2.39
263.707	47.44
263.923	88.4
264.139	-1.71
264.355	26.96
264.571	12.63
264.787	4.44
265.004	65.88
265.22	6.49
265.436	88.4
265.652	10.58
265.868	78.16
266.084	-40.62
266.3	43.35
266.516	-26.28
266.732	47.44
266.948	24.92
267.164	8.53
267.38	2.39
267.596	26.96
267.812	6.49
268.028	43.35
268.244	-9.9
268.46	-11.95
268.676	41.3
268.892	-36.52
269.108	-24.23
269.324	49.49
269.54	-28.33
269.756	-18.09
269.972	-20.14
270.188	16.73
270.403	49.49
270.619	24.92
270.835	4.44
271.051	29.01
271.267	-22.19
271.483	55.64
271.698	53.59
271.914	0.34
272.13	-11.95
272.346	57.68
272.562	57.68
272.777	43.35
272.993	69.97
273.209	8.53
273.425	41.3
273.64	-20.14
273.856	41.3
274.072	-26.28
274.287	-7.85
274.503	12.63
274.719	-63.15
274.934	76.12
275.15	6.49
275.366	-36.52
275.581	20.82
275.797	-16.04
276.012	16.73
276.228	-46.76
276.444	24.92
276.659	18.77
276.875	47.44
277.09	12.63
277.306	57.68
277.521	35.16
277.737	12.63
277.952	-7.85
278.168	-18.09
278.383	88.4
278.599	-18.09
278.814	-34.47
279.03	12.63
279.245	69.97
279.461	-3.75
279.676	-11.95
279.892	26.96
280.107	41.3
280.322	37.2
280.538	78.16
280.753	-16.04
280.969	117.08
281.184	-24.23
281.399	26.96
281.615	-13.99
281.83	90.45
282.045	82.26
282.26	53.59
282.476	37.2
282.691	96.6
282.906	47.44
283.122	51.54
283.337	8.53
283.552	-32.43
283.767	12.63
283.983	2.39
284.198	29.01
284.413	-9.9
284.628	-38.57
284.843	33.11
285.058	10.58
285.274	43.35
285.489	31.06
285.704	37.2
285.919	35.16
286.134	57.68
286.349	55.64
286.564	8.53
286.779	53.59
286.995	-22.19
287.21	20.82
287.425	22.87
287.64	16.73
287.855	39.25
288.07	-57
288.285	63.83
288.5	-46.76
288.715	-18.09
288.93	0.34
289.145	57.68
289.36	-57
289.575	18.77
289.79	39.25
290.004	0.34
290.219	57.68
290.434	-32.43
290.649	-13.99
290.864	22.87
291.079	78.16
291.294	2.39
291.509	43.35
291.724	-1.71
291.938	-34.47
292.153	74.07
292.368	41.3
292.583	20.82
292.798	-3.75
293.012	2.39
293.227	57.68
293.442	0.34
293.657	0.34
293.871	2.39
294.086	6.49
294.301	16.73
294.516	-20.14
294.73	37.2
294.945	61.78
295.16	22.87
295.374	29.01
295.589	8.53
295.804	35.16
296.018	108.88
296.233	31.06
296.447	24.92
296.662	-11.95
296.877	24.92
297.091	29.01
297.306	59.73
297.52	-52.91
297.735	86.36
297.949	41.3
298.164	63.83
298.378	10.58
298.593	24.92
298.807	69.97
299.022	10.58
299.236	12.63
299.451	26.96
299.665	51.54
299.88	-7.85
300.094	35.16
300.309	51.54
300.523	-46.76
300.737	20.82
300.952	12.63
301.166	2.39
301.381	-44.71
301.595	92.5
301.809	149.84
302.024	102.74
302.238	6.49
302.452	16.73
302.667	4.44
302.881	61.78
303.095	22.87
303.309	-5.8
303.524	-1.71
303.738	-40.62
303.952	6.49
304.166	33.11
304.381	22.87
304.595	26.96
304.809	-11.95
305.023	65.88
305.237	-11.95
305.452	26.96
305.666	39.25
305.88	88.4
306.094	67.92
306.308	29.01
306.522	20.82
306.736	43.35
306.95	-7.85
307.164	61.78
307.379	12.63
307.593	26.96
307.807	61.78
308.021	18.77
308.235	24.92
308.449	26.96
308.663	10.58
308.877	31.06
309.091	35.16
309.305	2.39
309.519	-28.33
309.733	-30.38
309.947	0.34
310.161	78.16
310.374	-69.29
310.588	12.63
310.802	-11.95
311.016	22.87
311.23	12.63
311.444	-61.1
311.658	-1.71
311.872	92.5
312.085	-24.23
312.299	43.35
312.513	29.01
312.727	24.92
312.941	-52.91
313.154	72.02
313.368	31.06
313.582	26.96
313.796	2.39
314.009	-7.85
314.223	12.63
314.437	-24.23
314.651	33.11
314.864	16.73
315.078	72.02
315.292	43.35
315.505	-54.95
315.719	59.73
315.933	69.97
316.146	69.97
316.36	4.44
316.573	51.54
316.787	31.06
317.001	14.68
317.214	-7.85
317.428	49.49
317.641	4.44
317.855	4.44
318.068	12.63
318.282	45.4
318.495	33.11
318.709	10.58
318.922	14.68
319.136	31.06
319.349	29.01
319.563	10.58
319.776	63.83
319.99	47.44
320.203	92.5
320.417	-28.33
320.63	10.58
320.843	2.39
321.057	39.25
321.27	82.26
321.483	76.12
321.697	35.16
321.91	14.68
322.124	-20.14
322.337	-7.85
322.55	0.34
322.763	117.08
322.977	26.96
323.19	24.92
323.403	22.87
323.617	6.49
323.83	98.64
324.043	-13.99
324.256	2.39
324.469	0.34
324.683	16.73
324.896	37.2
325.109	2.39
325.322	45.4
325.535	-36.52
325.748	57.68
325.962	41.3
326.175	55.64
326.388	20.82
326.601	37.2
326.814	43.35
327.027	-3.75
327.24	2.39
327.453	43.35
327.666	24.92
327.879	59.73
328.092	14.68
328.305	26.96
328.518	-3.75
328.731	2.39
328.944	0.34
329.157	-16.04
329.37	67.92
329.583	51.54
329.796	8.53
330.009	53.59
330.222	41.3
330.435	69.97
330.648	86.36
330.861	-71.34
331.073	49.49
331.286	41.3
331.499	53.59
331.712	-67.24
331.925	43.35
332.138	35.16
332.35	22.87
332.563	82.26
332.776	-18.09
332.989	121.17
333.202	-22.19
333.414	2.39
333.627	-16.04
333.84	22.87
334.053	33.11
334.265	49.49
334.478	41.3
334.691	57.68
334.903	2.39
335.116	49.49
335.329	63.83
335.541	84.31
335.754	26.96
335.966	33.11
336.179	22.87
336.392	35.16
336.604	31.06
336.817	37.2
337.029	33.11
337.242	-28.33
337.454	22.87
337.667	-36.52
337.88	-7.85
338.092	53.59
338.305	80.21
338.517	2.39
338.729	49.49
338.942	26.96
339.154	18.77
339.367	-46.76
339.579	-18.09
339.792	22.87
340.004	53.59
340.217	22.87
340.429	16.73
340.641	43.35
340.854	31.06
341.066	78.16
341.278	55.64
341.491	61.78
341.703	65.88
341.915	-9.9
342.128	35.16
342.34	43.35
342.552	0.34
342.764	-42.67
342.977	26.96
343.189	4.44
343.401	4.44
343.613	33.11
343.826	-11.95
344.038	14.68
344.25	26.96
344.462	45.4
344.674	-24.23
344.886	57.68
345.099	41.3
345.311	29.01
345.523	53.59
345.735	29.01
345.947	0.34
346.159	12.63
346.371	16.73
346.583	47.44
346.795	29.01
347.007	41.3
347.219	29.01
347.431	33.11
347.643	22.87
347.855	18.77
348.067	76.12
348.279	-18.09
348.491	35.16
348.703	20.82
348.915	-48.81
349.127	67.92
349.339	35.16
349.551	-24.23
349.763	-54.95
349.975	67.92
350.187	-9.9
350.399	31.06
350.61	92.5
350.822	-32.43
351.034	39.25
351.246	0.34
351.458	43.35
351.669	14.68
351.881	6.49
352.093	-1.71
352.305	51.54
352.517	-16.04
352.728	104.79
352.94	26.96
353.152	12.63
353.363	45.4
353.575	29.01
353.787	41.3
353.999	-26.28
354.21	45.4
354.422	49.49
354.633	8.53
354.845	22.87
355.057	41.3
355.268	26.96
355.48	41.3
355.692	16.73
355.903	65.88
356.115	47.44
356.326	29.01
356.538	26.96
356.749	10.58
356.961	-3.75
357.172	47.44
357.384	4.44
357.595	-20.14
357.807	8.53
358.018	12.63
358.23	29.01
358.441	-36.52
358.653	-13.99
358.864	29.01
359.075	80.21
359.287	35.16
359.498	12.63
359.709	72.02
359.921	-11.95
360.132	8.53
360.344	67.92
360.555	31.06
360.766	33.11
360.977	-20.14
361.189	49.49
361.4	-9.9
361.611	6.49
361.823	49.49
362.034	20.82
362.245	-18.09
362.456	-9.9
362.667	-24.23
362.879	43.35
363.09	-1.71
363.301	49.49
363.512	-24.23
363.723	100.69
363.935	-5.8
364.146	-16.04
364.357	35.16
364.568	104.79
364.779	12.63
364.99	-18.09
365.201	12.63
365.412	12.63
365.623	-11.95
365.834	49.49
366.045	16.73
366.256	43.35
366.467	0.34
366.678	12.63
366.889	90.45
367.1	14.68
367.311	4.44
367.522	84.31
367.733	100.69
367.944	135.51
368.155	59.73
368.366	6.49
368.577	-13.99
368.788	-3.75
368.999	-16.04
369.209	57.68
369.42	-3.75
369.631	49.49
369.842	29.01
370.053	29.01
370.264	45.4
370.474	88.4
370.685	119.12
370.896	53.59
371.107	33.11
371.317	115.03
371.528	63.83
371.739	10.58
371.95	18.77
372.16	131.41
372.371	10.58
372.582	86.36
372.792	-20.14
373.003	26.96
373.214	61.78
373.424	59.73
373.635	20.82
373.846	80.21
374.056	24.92
374.267	90.45
374.477	78.16
374.688	49.49
374.898	49.49
375.109	20.82
375.319	78.16
375.53	67.92
375.74	61.78
375.951	53.59
376.161	-11.95
376.372	18.77
376.582	33.11
376.793	98.64
377.003	74.07
377.214	-7.85
377.424	98.64
377.635	10.58
377.845	26.96
378.055	63.83
378.266	22.87
378.476	-1.71
378.686	-46.76
378.897	-40.62
379.107	-11.95
379.317	10.58
379.528	22.87
379.738	-5.8
379.948	29.01
380.158	51.54
380.369	24.92
380.579	-40.62
380.789	65.88
380.999	88.4
381.21	33.11
381.42	51.54
381.63	90.45
381.84	94.55
382.05	-1.71
382.261	72.02
382.471	29.01
382.681	92.5
382.891	12.63
383.101	-13.99
383.311	-5.8
383.521	49.49
383.731	63.83
383.941	135.51
384.151	14.68
384.361	-13.99
384.571	4.44
384.781	104.79
384.991	61.78
385.201	76.12
385.411	4.44
385.621	31.06
385.831	6.49
386.041	24.92
386.251	55.64
386.461	18.77
386.671	-26.28
386.881	12.63
387.091	22.87
387.301	137.56
387.511	35.16
387.72	84.31
387.93	76.12
388.14	47.44
388.35	35.16
388.56	61.78
388.769	20.82
388.979	51.54
389.189	59.73
389.399	35.16
389.609	47.44
389.818	0.34
390.028	33.11
390.238	31.06
390.447	55.64
390.657	0.34
390.867	57.68
391.076	29.01
391.286	59.73
391.496	8.53
391.705	31.06
391.915	26.96
392.125	55.64
392.334	82.26
392.544	72.02
392.753	57.68
392.963	-22.19
393.172	41.3
393.382	41.3
393.591	35.16
393.801	67.92
394.01	88.4
394.22	53.59
394.429	65.88
394.639	43.35
394.848	67.92
395.058	74.07
395.267	51.54
395.477	84.31
395.686	67.92
395.895	69.97
396.105	37.2
396.314	67.92
396.524	72.02
396.733	29.01
396.942	4.44
397.152	102.74
397.361	78.16
397.57	-18.09
397.78	67.92
397.989	16.73
398.198	4.44
398.407	121.17
398.617	43.35
398.826	39.25
399.035	69.97
399.244	43.35
399.453	125.27
399.663	108.88
399.872	82.26
400.081	39.25
400.29	84.31
400.499	119.12
400.708	76.12
400.917	80.21
401.127	33.11
401.336	55.64
401.545	90.45
401.754	88.4
401.963	160.08
402.172	88.4
402.381	59.73
402.59	84.31
402.799	69.97
403.008	84.31
403.217	74.07
403.426	69.97
403.635	94.55
403.844	72.02
404.053	139.6
404.262	84.31
404.471	100.69
404.68	112.98
404.888	86.36
405.097	158.03
405.306	108.88
405.515	69.97
405.724	153.94
405.933	88.4
406.142	88.4
406.35	106.84
406.559	98.64
406.768	125.27
406.977	125.27
407.185	123.22
407.394	115.03
407.603	74.07
407.812	178.51
408.02	196.95
408.229	170.32
408.438	102.74
408.646	123.22
408.855	233.81
409.064	151.89
409.272	158.03
409.481	192.85
409.69	137.56
409.898	160.08
410.107	145.75
410.315	176.47
410.524	246.1
410.733	196.95
410.941	158.03
411.15	229.71
411.358	215.38
411.567	244.05
411.775	235.86
411.984	301.39
412.192	317.78
412.401	184.66
412.609	268.63
412.818	280.91
413.026	258.39
413.234	319.82
413.443	330.06
413.651	477.52
413.86	358.74
414.068	332.11
414.276	358.74
414.485	432.46
414.693	293.2
414.901	422.22
415.11	422.22
415.318	450.89
415.526	532.81
415.734	510.29
415.943	549.2
416.151	491.85
416.359	557.39
416.567	649.55
416.776	629.07
416.984	536.91
417.192	631.12
417.4	674.12
417.608	612.68
417.817	602.44
418.025	682.31
418.233	661.84
418.441	690.51
418.649	850.25
418.857	784.71
419.065	762.19
419.273	823.62
419.481	889.16
419.689	969.03
419.897	975.17
420.105	932.17
420.313	1001.8
420.521	1001.8
420.729	977.22
420.937	1030.47
421.145	1165.64
421.353	1106.24
421.561	1225.03
421.769	1163.59
421.977	1263.94
422.185	1376.58
422.393	1409.34
422.601	1429.82
422.809	1417.54
423.017	1409.34
423.224	1544.51
423.432	1612.09
423.64	1651
423.848	1685.82
424.056	1608
424.263	1802.55
424.471	1773.88
424.679	1843.51
424.887	2009.4
425.094	1993.01
425.302	1982.78
425.51	2107.7
425.718	2081.08
425.925	2142.52
426.133	2193.72
426.341	2437.42
426.548	2447.66
426.756	2373.94
426.964	2453.81
427.171	2611.5
427.379	2660.65
427.586	2824.49
427.794	2793.77
428.001	2973.99
428.209	3057.96
428.417	3008.81
428.624	3311.91
428.832	3281.19
429.039	3195.17
429.247	3250.47
429.454	3518.75
429.662	3852.57
429.869	3557.66
430.076	3801.37
430.284	3647.77
430.491	3899.67
430.699	4057.37
430.906	4036.89
431.114	4075.8
431.321	4190.49
431.528	4362.51
431.736	4704.53
431.943	5058.82
432.15	4571.41
432.358	4849.93
432.565	5011.72
432.772	4796.68
432.979	5245.19
433.187	5429.51
433.394	5146.89
433.601	5667.07
433.808	5710.08
434.016	5798.14
434.223	5914.88
434.43	6402.29
434.637	6156.54
434.844	6584.56
435.052	6732.01
435.259	6725.87
435.466	6652.14
435.673	6596.85
435.88	7233.77
436.087	7454.95
436.294	7512.29
436.501	7258.34
436.708	7446.76
436.915	7565.54
437.122	7985.37
437.329	8077.53
437.537	8050.91
437.743	8399.06
437.95	8284.37
438.157	8874.19
438.364	9119.95
438.571	8974.54
438.778	9099.47
438.985	9808.06
439.192	9584.84
439.399	9912.51
439.606	9613.51
439.813	10154.17
440.02	10674.35
440.227	10383.54
440.433	10549.43
440.64	10809.52
440.847	10813.62
441.054	10895.54
441.261	11698.34
441.467	11585.7
441.674	11761.83
441.881	12284.06
442.088	12099.74
442.294	12112.03
442.501	12247.19
442.708	12538.01
442.914	12826.77
443.121	13639.81
443.328	13314.19
443.534	14196.86
443.741	13615.24
443.948	13664.39
444.154	14719.09
444.361	14624.89
444.568	14794.87
444.774	14508.15
444.981	14809.2
445.187	15265.9
445.394	15853.67
445.6	15876.2
445.807	17270.86
446.013	16580.7
446.22	16666.71
446.426	17107.02
446.633	17526.86
446.839	18157.63
447.046	17387.6
447.252	18458.68
447.459	18559.03
447.665	18368.57
447.871	18731.06
448.078	19910.69
448.284	19013.68
448.491	19394.61
448.697	20238.37
448.903	20537.37
449.11	20584.48
449.316	20230.18
449.522	20600.86
449.728	21186.58
449.935	21256.21
450.141	21383.18
450.347	21729.29
450.553	21049.36
450.76	21282.83
450.966	21743.63
451.172	21835.78
451.378	22345.73
451.584	21714.95
451.791	22423.55
451.997	22478.85
452.203	22405.12
452.409	22605.82
452.615	22157.32
452.821	21778.44
453.027	21542.92
453.233	22487.04
453.44	21737.48
453.646	21997.57
453.852	21866.5
454.058	22067.2
454.264	21346.32
454.47	21970.95
454.676	21344.27
454.882	22161.41
455.088	20033.57
455.294	20387.87
455.5	20840.47
455.705	20932.63
455.911	19961.89
456.117	19587.11
456.323	19415.09
456.529	18387
456.735	19157.04
456.941	18655.29
457.147	18147.39
457.352	17842.25
457.558	17420.36
457.764	17453.13
457.97	17279.05
458.176	16855.12
458.381	17008.72
458.587	16040.03
458.793	15892.58
458.999	15186.03
459.204	16380
459.41	15771.75
459.616	14665.85
459.821	14909.55
460.027	14686.33
460.233	14366.84
460.438	13805.7
460.644	13906.05
460.85	13365.39
461.055	13093.01
461.261	12939.41
461.466	12208.28
461.672	11800.74
461.878	12593.3
462.083	11595.94
462.289	11645.09
462.494	11409.58
462.7	10967.21
462.905	10606.77
463.111	10873.01
463.316	11083.95
463.522	10801.33
463.727	10676.4
463.932	10594.48
464.138	10569.91
464.343	10913.97
464.549	10264.76
464.754	10725.55
464.959	10639.54
465.165	10672.31
465.37	10166.46
465.575	10188.99
465.781	10299.58
465.986	10387.64
466.191	9949.37
466.397	9875.65
466.602	9400.52
466.807	9752.77
467.012	9750.72
467.218	9672.9
467.423	9603.27
467.628	9652.42
467.833	9922.75
468.038	9601.22
468.244	9349.32
468.449	9803.97
468.654	9492.68
468.859	9367.75
469.064	9138.38
469.269	9013.45
469.474	8943.82
469.679	9146.57
469.885	8835.28
470.09	9001.16
470.295	8792.27
470.5	8642.77
470.705	8650.96
470.91	8642.77
471.115	8534.23
471.32	8548.56
471.525	8497.36
471.73	8435.92
471.935	8356.05
472.139	7999.71
472.344	7989.47
472.549	8057.05
472.754	8038.62
472.959	7909.6
473.164	7555.3
473.369	7500
473.574	7747.81
473.778	7567.59
473.983	7653.6
474.188	7596.26
474.393	7254.25
474.598	7223.53
474.802	7266.53
475.007	7225.58
475.212	7065.83
475.417	6951.15
475.621	6951.15
475.826	6996.2
476.031	6875.37
476.235	6752.49
476.44	6969.58
476.645	6662.38
476.849	6697.2
477.054	6584.56
477.259	6441.2
477.463	6453.49
477.668	6439.16
477.872	6467.83
478.077	6455.54
478.282	6353.14
478.486	6078.71
478.691	6220.02
478.895	6160.63
479.1	5929.21
479.304	6058.23
479.509	5759.23
479.713	6000.89
479.918	5921.02
480.122	5824.76
480.326	5912.83
480.531	5837.05
480.735	5792
480.94	5677.31
481.144	6002.94
481.348	5716.22
481.553	5695.74
481.757	5632.26
481.961	5683.45
482.166	5701.89
482.37	5720.32
482.574	5572.86
482.778	5628.16
482.983	5576.96
483.187	5650.69
483.391	5697.79
483.595	5603.58
483.8	5736.7
484.004	5626.11
484.208	5660.93
484.412	5656.83
484.616	5630.21
484.821	5585.15
485.025	5480.71
485.229	5777.66
485.433	5642.5
485.637	5675.26
485.841	5513.47
486.045	5509.38
486.249	5703.93
486.453	5552.38
486.657	5515.52
486.861	5656.83
487.065	5382.4
487.269	5775.61
487.473	5642.5
487.677	5687.55
487.881	5693.69
488.085	5601.54
488.289	5753.09
488.493	5701.89
488.697	5699.84
488.901	5708.03
489.105	5742.85
489.309	5613.82
489.512	5634.3
489.716	5722.37
489.92	5724.41
490.124	5638.4
490.328	5781.76
490.531	5632.26
490.735	5816.57
490.939	5875.96
491.143	5796.09
491.346	5697.79
491.55	5904.64
491.754	5810.43
491.958	5835
492.161	5849.34
492.365	5847.29
492.569	5900.54
492.772	6035.71
492.976	5994.75
493.18	5939.45
493.383	6103.29
493.587	6211.83
493.79	6166.78
493.994	6146.3
494.197	6250.74
494.401	6461.68
494.605	6275.32
494.808	6379.76
495.012	6410.48
495.215	6449.39
495.419	6568.18
495.622	6482.16
495.825	6580.46
496.029	6611.18
496.232	6914.28
496.436	6709.49
496.639	6969.58
496.843	6949.1
497.046	6879.47
497.249	7071.98
497.453	7045.35
497.656	7246.05
497.859	7020.78
498.063	7254.25
498.266	7416.04
498.469	7483.62
498.673	7569.63
498.876	7624.93
499.079	7739.62
499.282	7915.74
499.485	7946.46
499.689	7942.36
499.892	8014.04
500.095	8165.59
500.298	8190.17
500.501	8231.13
500.705	8509.65
500.908	8501.46
501.111	8618.19
501.314	8749.26
501.517	8933.58
501.72	8964.3
501.923	8782.03
502.126	9087.18
502.329	9187.53
502.532	9488.58
502.735	9394.37
502.938	9275.59
503.141	9715.91
503.344	9711.81
503.547	9760.96
503.75	10088.64
503.953	10113.21
504.156	10277.05
504.359	10123.45
504.562	10356.92
504.765	10461.37
504.968	10717.36
505.17	10873.01
505.373	10866.86
505.576	10926.25
505.779	11212.97
505.982	11112.62
506.185	11387.05
506.387	11520.17
506.59	11583.65
506.793	11972.77
506.996	11843.74
507.198	12275.87
507.401	12181.66
507.604	12447.9
507.807	12773.52
508.009	12384.41
508.212	12560.53
508.415	13029.52
508.617	13006.99
508.82	13084.81
509.022	13068.43
509.225	13371.53
509.428	13801.6
509.63	13760.64
509.833	13815.94
510.035	14262.4
510.238	14069.89
510.44	14557.3
510.643	14536.82
510.845	14567.54
511.048	14659.7
511.25	14852.21
511.453	15132.78
511.655	15749.22
511.858	15595.62
512.06	15679.59
512.262	15700.07
512.465	15663.21
512.667	16072.8
512.87	16459.87
513.072	16492.63
513.274	16621.66
513.477	16828.5
513.679	17025.11
513.881	17225.81
514.084	17469.51
514.286	17260.62
514.488	17500.23
514.69	18159.68
514.893	18270.27
515.095	18274.37
515.297	18489.4
515.499	18350.14
515.701	18804.79
515.904	19054.64
516.106	19204.14
516.308	19353.65
516.51	19759.14
516.712	19943.46
516.914	20000.8
517.116	20117.54
517.318	20314.14
517.52	20580.38
517.722	20664.35
517.925	20969.49
518.127	21467.15
518.329	21403.66
518.531	21274.64
518.733	21950.47
518.935	21866.5
519.136	22028.29
519.338	22315.01
519.54	22405.12
519.742	22884.34
519.944	23042.04
520.146	23201.78
520.348	23373.81
520.55	23541.74
520.752	23547.89
520.954	24002.54
521.155	23816.17
521.357	24772.57
521.559	24354.79
521.761	24735.71
521.963	24905.69
522.164	25141.21
522.366	25178.07
522.568	25325.52
522.77	25614.29
522.971	25704.4
523.173	25798.6
523.375	26183.62
523.576	26288.07
523.778	26171.33
523.98	26640.32
524.181	26802.11
524.383	26943.42
524.584	27477.94
524.786	27336.63
524.988	27252.66
525.189	27533.23
525.391	27799.47
525.592	28002.22
525.794	28032.94
525.995	28409.76
526.197	28063.66
526.398	28293.03
526.6	28430.24
526.801	28475.3
527.003	28962.72
527.204	28934.04
527.406	29206.42
527.607	28979.1
527.808	28977.05
528.01	28905.37
528.211	29120.41
528.412	30105.48
528.614	29779.85
528.815	29509.52
529.016	29943.69
529.218	29591.44
529.419	29826.96
529.62	30015.37
529.822	29833.1
530.023	29941.64
530.224	30207.88
530.425	30150.54
530.626	30152.59
530.828	29579.15
531.029	30967.68
531.23	30234.5
531.431	30164.87
531.632	30558.08
531.833	30611.33
532.035	30427.01
532.236	30422.92
532.437	30855.04
532.638	30322.57
532.839	30793.6
533.04	30857.09
533.241	30095.24
533.442	31201.15
533.643	30855.04
533.844	30773.12
534.045	30861.18
534.246	30676.87
534.447	31174.52
534.648	31027.07
534.849	30971.77
535.05	30908.29
535.251	31102.84
535.451	30875.52
535.652	31059.84
535.853	31043.45
536.054	31309.69
536.255	31162.23
536.456	30973.82
536.657	31407.99
536.857	31297.4
537.058	30789.5
537.259	31102.84
537.46	31285.11
537.66	31563.64
537.861	31422.33
538.062	30879.61
538.263	31262.58
538.463	31088.51
538.664	31201.15
538.865	31481.72
539.065	31301.5
539.266	31139.71
539.466	31350.65
539.667	31025.02
539.868	31459.19
540.068	31121.27
540.269	31268.73
540.469	31457.14
540.67	30975.87
540.87	31076.22
541.071	31315.83
541.271	31338.36
541.472	30857.09
541.672	31037.31
541.873	30957.44
542.073	30902.14
542.274	31336.31
542.474	31528.82
542.675	31014.78
542.875	31430.52
543.075	31025.02
543.276	30758.78
543.476	31264.63
543.676	31416.18
543.877	31459.19
544.077	31199.1
544.277	30928.77
544.478	30914.43
544.678	30949.25
544.878	30746.5
545.078	31147.9
545.279	31115.13
545.479	30726.02
545.679	31147.9
545.879	31455.09
546.079	31006.59
546.28	31043.45
546.48	31381.37
546.68	31063.93
546.88	31149.95
547.08	30953.34
547.28	31215.48
547.48	30918.53
547.68	31233.91
547.88	30893.95
548.081	31399.8
548.281	31106.94
548.481	31313.78
548.681	31215.48
548.881	31238.01
549.081	30979.96
549.28	30801.79
549.48	31276.92
549.68	30953.34
549.88	31448.95
550.08	30752.64
550.28	31385.46
550.48	31088.51
550.68	31303.54
550.88	30982.01
551.08	30881.66
551.279	30685.06
551.479	30830.46
551.679	30996.35
551.879	31108.99
552.079	31348.6
552.278	30740.35
552.478	31096.7
552.678	30977.92
552.878	30957.44
553.077	30979.96
553.277	30695.3
553.477	31534.96
553.676	30508.93
553.876	30904.19
554.076	30662.53
554.275	30488.45
554.475	30480.26
554.674	30781.31
554.874	30896
555.074	30723.97
555.273	30705.54
555.473	30656.39
555.672	30676.87
555.872	30461.83
556.071	30881.66
556.271	30785.41
556.47	30353.29
556.67	30259.08
556.869	30467.97
557.068	30394.25
557.268	30074.76
557.467	30195.59
557.667	30199.69
557.866	30203.78
558.065	30410.63
558.265	30336.9
558.464	29955.98
558.663	30285.7
558.863	29976.46
559.062	30054.28
559.261	29714.32
559.461	30336.9
559.66	29620.11
559.859	29509.52
560.058	29511.57
560.258	29826.96
560.457	29286.29
560.656	29939.6
560.855	29497.24
561.054	29888.4
561.253	29327.25
561.453	29542.29
561.652	29702.03
561.851	29742.99
562.05	29675.41
562.249	29288.34
562.448	29269.91
562.647	29343.64
562.846	29134.74
563.045	29224.86
563.244	29036.44
563.443	29360.02
563.642	28807.07
563.841	28979.1
564.04	28860.32
564.239	29331.35
564.438	28850.08
564.637	29132.7
564.836	29075.35
565.035	28534.69
565.234	28805.02
565.432	28600.22
565.631	28440.48
565.83	28544.93
566.029	28448.68
566.228	28649.38
566.427	28317.61
566.625	28110.76
566.824	27998.12
567.023	28608.42
567.222	27783.09
567.42	28489.63
567.619	28192.68
567.818	27889.58
568.016	27877.29
568.215	28141.48
568.414	27715.5
568.612	28219.3
568.811	27543.47
569.01	27512.75
569.208	27477.94
569.407	27819.95
569.605	27320.24
569.804	27824.04
570.002	27125.69
570.201	27582.38
570.4	27099.06
570.598	27348.92
570.797	27025.34
570.995	26863.55
571.193	26888.12
571.392	27424.69
571.59	26847.16
571.789	26861.5
571.987	26703.81
572.186	26292.16
572.384	26499.01
572.582	26759.1
572.781	26849.21
572.979	26128.33
573.177	26232.77
573.376	26294.21
573.574	25921.48
573.772	26243.01
573.971	25862.09
574.169	25573.33
574.367	25577.42
574.565	25855.95
574.763	25522.13
574.962	25735.12
575.16	25227.22
575.358	25651.15
575.556	25452.5
575.754	25452.5
575.952	24971.22
576.151	25407.44
576.349	24770.52
576.547	24960.98
576.745	24907.74
576.943	24829.91
577.141	24688.6
577.339	24850.39
577.537	24641.5
577.735	24543.2
577.933	24698.84
578.131	24461.28
578.329	24248.29
578.527	24016.87
578.725	24281.06
578.923	24328.16
579.121	24307.68
579.319	24074.21
579.516	24201.19
579.714	24039.4
579.912	23898.09
580.11	23656.43
580.308	24104.93
580.506	23820.27
580.704	23531.5
580.901	23820.27
581.099	24082.41
581.297	23502.83
581.495	23390.19
581.692	23199.73
581.89	23089.14
582.088	23529.45
582.285	23318.51
582.483	23273.46
582.681	22974.45
582.878	22962.17
583.076	22867.96
583.274	23173.11
583.471	22495.23
583.669	22304.77
583.866	22755.32
584.064	22669.31
584.262	22446.08
584.459	22497.28
584.657	22558.72
584.854	22335.49
585.052	22235.14
585.249	22171.65
585.447	22083.59
585.644	21757.96
585.841	21848.07
586.039	22046.72
586.236	21764.11
586.434	21733.39
586.631	21868.55
586.828	21714.95
587.026	21491.73
587.223	21366.8
587.42	21573.64
587.618	21475.34
587.815	21080.08
588.012	21164.05
588.21	21344.27
588.407	21284.88
588.604	21116.95
588.801	20998.16
588.999	21020.69
589.196	20590.62
589.393	21176.34
589.59	20840.47
589.787	20815.9
589.984	20406.3
590.182	20553.76
590.379	20828.18
590.576	20295.71
590.773	20387.87
590.97	20275.23
591.167	20451.36
591.364	20264.99
591.561	20496.41
591.758	20062.24
591.955	19965.99
592.152	20019.24
592.349	19925.03
592.546	20209.7
592.743	19998.76
592.94	19705.9
593.137	19761.19
593.334	20070.44
593.531	19703.85
593.727	19925.03
593.924	19490.86
594.121	19347.5
594.318	19740.71
594.515	19451.95
594.712	19365.93
594.908	19056.69
595.105	19204.14
595.302	19075.12
595.499	19118.13
595.696	19075.12
595.892	19036.21
596.089	19081.27
596.286	18694.2
596.482	19068.98
596.679	18794.55
596.876	18698.3
597.072	18552.89
597.269	18618.43
597.466	18458.68
597.662	18468.92
597.859	18532.41
598.055	18427.96
598.252	18251.84
598.448	18413.63
598.645	18147.39
598.841	17875.01
599.038	18131.01
599.234	17840.2
599.431	18057.28
599.627	17832.01
599.824	17913.92
600.02	17875.01
600.217	17979.46
600.413	17596.49
600.609	17512.52
600.806	17365.07
601.002	17573.96
601.198	17492.04
601.395	17219.66
601.591	17240.14
601.787	17260.62
601.984	17260.62
602.18	17336.4
602.376	16939.09
602.572	17223.76
602.769	17180.75
602.965	17006.67
603.161	16941.14
603.357	16791.64
603.553	16939.09
603.75	16853.08
603.946	16656.47
604.142	16623.7
604.338	16375.9
604.534	16748.63
604.73	16629.85
604.926	16494.68
605.122	16431.19
605.318	16498.78
605.514	16523.35
605.71	16246.88
605.906	16246.88
606.102	16267.36
606.298	16242.78
606.494	16259.17
606.69	15997.03
606.886	16115.81
607.082	15951.97
607.278	15827.04
607.474	15759.46
607.67	16003.17
607.866	15773.8
608.062	15743.08
608.257	15634.53
608.453	15636.58
608.649	15546.47
608.845	15331.44
609.041	15489.13
609.236	15657.06
609.432	15487.08
609.628	15261.8
609.824	15458.41
610.019	15229.04
610.215	15136.88
610.411	15143.02
610.606	14938.23
610.802	15044.72
610.998	15071.34
611.193	15036.53
611.389	15163.5
611.584	14936.18
611.78	14952.56
611.976	14739.57
612.171	14700.66
612.367	14852.21
612.562	14815.35
612.758	14608.5
612.953	14637.17
613.149	14516.34
613.344	14504.06
613.539	14622.84
613.735	14450.81
613.93	14588.02
614.126	14307.45
614.321	14710.9
614.517	14430.33
614.712	14399.61
614.907	14309.5
615.103	14504.06
615.298	14280.83
615.493	14096.51
615.688	13975.68
615.884	14528.63
616.079	14000.26
616.274	14289.02
616.47	13961.34
616.665	14108.8
616.86	13957.25
617.055	13971.58
617.25	14010.5
617.445	14129.28
617.641	13688.96
617.836	14020.74
618.031	13455.5
618.226	13846.66
618.421	13490.31
618.616	13447.3
618.811	13467.78
619.006	13537.41
619.201	13492.36
619.396	13492.36
619.591	13103.25
619.786	13205.64
619.981	12927.12
620.176	13148.3
620.371	13123.73
620.566	13209.74
620.761	13187.21
620.956	13039.76
621.151	12787.86
621.346	12753.04
621.541	12585.11
621.735	12742.8
621.93	12560.53
622.125	12658.84
622.32	12363.93
622.515	12556.44
622.709	12349.59
622.904	12339.35
623.099	12112.03
623.294	12124.32
623.488	11761.83
623.683	12212.38
623.878	11972.77
624.072	12075.17
624.267	11995.29
624.462	11810.98
624.656	11700.39
624.851	11694.24
625.046	11610.28
625.24	11585.7
625.435	11567.27
625.629	11473.06
625.824	11430.05
626.018	11313.32
626.213	11198.63
626.407	11192.49
626.602	10799.28
626.796	11243.69
626.991	10928.3
627.185	10815.66
627.38	10987.69
627.574	10805.42
627.768	10649.78
627.963	10774.7
628.157	10502.33
628.352	10578.1
628.546	10594.48
628.74	10514.61
628.935	10498.23
629.129	10477.75
629.323	10193.08
629.517	10381.49
629.712	10188.99
629.906	10182.84
630.1	9976
630.294	10184.89
630.489	9961.66
630.683	10016.96
630.877	9744.58
631.071	9861.31
631.265	9756.86
631.459	9674.95
631.653	9699.52
631.848	9699.52
632.042	9644.23
632.236	9720
632.43	9488.58
632.624	9449.67
632.818	9416.9
633.012	9220.3
633.206	9193.67
633.4	9326.79
633.594	9093.32
633.788	9146.57
633.982	9179.34
634.176	9105.61
634.369	8935.63
634.563	8929.49
634.757	8990.92
634.951	8992.97
635.145	8841.42
635.339	8796.37
635.533	8683.73
635.726	8673.49
635.92	8591.57
636.114	8466.64
636.308	8319.19
636.501	8655.06
636.695	8558.8
636.889	8388.82
637.083	8304.85
637.276	8274.14
637.47	8421.59
637.664	8274.14
637.857	8304.85
638.051	8345.81
638.244	8093.91
638.438	7983.32
638.632	8032.47
638.825	8046.81
639.019	7948.51
639.212	8042.71
639.406	7960.8
639.599	7975.13
639.793	7694.56
639.986	7653.6
640.18	7612.64
640.373	7626.98
640.567	7418.08
640.76	7502.05
640.954	7573.73
641.147	7409.89
641.34	7262.44
641.534	7381.22
641.727	7305.45
641.92	7469.28
642.114	7403.75
642.307	7160.04
642.5	7102.7
642.694	7168.23
642.887	7020.78
643.08	6983.91
643.273	6996.2
643.467	7004.39
643.66	6793.45
643.853	6842.6
644.046	6684.91
644.239	6914.28
644.432	6596.85
644.626	6772.97
644.819	6668.53
645.012	6660.34
645.205	6650.1
645.398	6537.46
645.591	6430.96
645.784	6594.8
645.977	6463.73
646.17	6379.76
646.363	6295.8
646.556	6310.13
646.749	6236.41
646.942	6357.24
647.135	6185.21
647.328	6154.49
647.521	6242.55
647.714	6254.84
647.907	6080.76
648.099	6164.73
648.292	6193.4
648.485	5820.67
648.678	5869.82
648.871	5853.44
649.064	5882.11
649.256	5789.95
649.449	5796.09
649.642	5837.05
649.835	5830.91
650.027	5746.94
650.22	5693.69
650.413	5595.39
650.605	5585.15
650.798	5640.45
650.991	5415.17
651.183	5492.99
651.376	5533.95
651.568	5411.07
651.761	5374.21
651.954	5333.25
652.146	5269.76
652.339	5380.36
652.531	5380.36
652.724	5308.68
652.916	5083.4
653.109	5208.33
653.301	5265.67
653.494	4999.43
653.686	5187.85
653.879	5013.77
654.071	4964.62
654.263	4901.13
654.456	5122.31
654.648	4751.63
654.84	4964.62
655.033	5019.91
655.225	4997.39
655.417	4821.26
655.61	4917.51
655.802	4913.42
655.994	4677.9
656.186	4815.12
656.379	4727.05
656.571	4522.26
656.763	4665.61
656.955	4438.29
657.148	4528.4
657.34	4682
657.532	4370.71
657.724	4462.87
657.916	4546.83
658.108	4325.65
658.3	4583.7
658.492	4475.15
658.684	4356.37
658.876	4489.49
659.068	4399.38
659.26	4403.47
659.452	4366.61
659.644	4196.63
659.836	4270.36
660.028	4335.89
660.22	4161.81
660.412	4251.92
660.604	4083.99
660.796	4186.39
660.988	3989.78
661.18	4081.94
661.372	4071.7
661.563	4151.57
661.755	3932.44
661.947	3977.5
662.139	4147.48
662.331	3914.01
662.522	3852.57
662.714	3821.85
662.906	3772.7
663.097	3875.1
663.289	3741.98
663.481	3776.8
663.673	3696.92
663.864	3762.46
664.056	3537.18
664.247	3731.74
664.439	3539.23
664.631	3709.21
664.822	3596.57
665.014	3582.24
665.205	3692.83
665.397	3682.59
665.588	3526.94
665.78	3545.38
665.971	3442.98
666.163	3541.28
666.354	3352.87
666.546	3506.46
666.737	3354.91
666.929	3336.48
667.12	3434.78
667.311	3389.73
667.503	3309.86
667.694	3305.76
667.885	3322.15
668.077	3301.67
668.268	3221.8
668.459	3293.48
668.651	3356.96
668.842	3201.32
669.033	3133.73
669.224	3205.41
669.416	3158.31
669.607	3182.88
669.798	3115.3
669.989	3260.71
670.18	3141.93
670.371	3055.91
670.563	3168.55
670.754	3123.49
670.945	2939.18
671.136	3090.73
671.327	2986.28
671.518	2894.12
671.709	3019.05
671.9	3033.38
672.091	2961.7
672.282	2898.22
672.473	2965.8
672.664	2959.66
672.855	2906.41
673.046	2869.55
673.237	2844.97
673.428	2853.16
673.619	2906.41
673.809	2793.77
674	2736.43
674.191	2855.21
674.382	2812.2
674.573	2752.81
674.764	2715.95
674.954	2861.35
675.145	2801.96
675.336	2840.87
675.527	2726.19
675.717	2883.88
675.908	2765.1
676.099	2795.82
676.289	2703.66
676.48	2736.43
676.671	2646.32
676.861	2701.61
677.052	2558.25
677.243	2609.45
677.433	2754.86
677.624	2742.57
677.814	2691.37
678.005	2685.23
678.195	2734.38
678.386	2576.69
678.576	2611.5
678.767	2560.3
678.957	2593.07
679.148	2664.75
679.338	2586.93
679.529	2664.75
679.719	2543.92
679.909	2525.49
680.1	2513.2
680.29	2543.92
680.481	2548.01
680.671	2556.21
680.861	2478.38
681.052	2500.91
681.242	2527.53
681.432	2509.1
681.622	2451.76
681.813	2369.84
682.003	2545.97
682.193	2423.09
682.383	2556.21
682.573	2449.71
682.764	2513.2
682.954	2445.62
683.144	2427.18
683.334	2394.42
683.524	2527.53
683.714	2451.76
683.904	2298.16
684.094	2462
684.284	2384.18
684.474	2470.19
684.664	2384.18
684.854	2384.18
685.044	2505.01
685.234	2384.18
685.424	2322.74
685.614	2318.64
685.804	2273.59
685.994	2355.51
686.184	2363.7
686.374	2308.4
686.564	2236.72
686.753	2347.31
686.943	2244.92
687.133	2281.78
687.323	2314.55
687.513	2271.54
687.702	2281.78
687.892	2263.35
688.082	2228.53
688.272	2199.86
688.461	2271.54
688.651	2296.11
688.841	2267.44
689.03	2216.24
689.22	2132.28
689.41	2210.1
689.599	2193.72
689.789	2185.52
689.979	2126.13
690.168	2195.76
690.358	2165.04
690.547	2199.86
690.737	2232.63
690.926	2191.67
691.116	2103.61
691.305	2171.19
691.495	2220.34
691.684	2181.43
691.874	2197.81
692.063	1997.11
692.252	2298.16
692.442	2265.39
692.631	2019.64
692.82	2201.91
693.01	2185.52
693.199	2216.24
693.388	2031.93
693.578	2009.4
693.767	2222.39
693.956	2023.73
694.146	2189.62
694.335	2130.23
694.524	2197.81
694.713	2021.69
694.902	2036.02
695.092	2079.03
695.281	2216.24
695.47	2093.37
695.659	2040.12
695.848	2074.93
696.037	2140.47
696.226	2152.76
696.415	2087.22
696.604	2029.88
696.793	2185.52
696.982	2058.55
697.171	2095.41
697.36	2105.65
697.549	2056.5
697.738	2066.74
697.927	2064.69
698.116	2017.59
698.305	1913.14
698.494	2105.65
698.683	2115.89
698.872	2040.12
699.061	2087.22
699.25	1954.1
699.438	2197.81
699.627	2093.37
699.816	2040.12
700.005	2068.79
700.193	1990.97
700.382	2005.3
700.571	1964.34
700.76	1968.44
700.948	1993.01
701.137	1993.01
701.326	1976.63
701.514	1990.97
701.703	1984.82
701.892	2091.32
702.08	2015.54
702.269	2001.21
702.457	2015.54
702.646	2044.21
702.834	2029.88
703.023	2009.4
703.212	2056.5
703.4	1960.25
703.589	2011.45
703.777	1960.25
703.965	1954.1
704.154	1964.34
704.342	1993.01
704.531	1968.44
704.719	1945.91
704.907	2003.25
705.096	2054.45
705.284	1909.05
705.472	1868.09
705.661	1894.71
705.849	1917.24
706.037	1929.53
706.226	1896.76
706.414	1841.47
706.602	1849.66
706.79	1845.56
706.979	1851.71
707.167	1913.14
707.355	1962.3
707.543	1786.17
707.731	1825.08
707.919	1859.9
708.107	1861.94
708.296	1829.18
708.484	1841.47
708.672	1894.71
708.86	1747.26
709.048	1837.37
709.236	1624.38
709.424	1743.16
709.612	1800.51
709.8	1698.11
709.988	1755.45
710.176	1796.41
710.364	1753.4
710.551	1718.59
710.739	1722.68
710.927	1771.83
711.115	1689.92
711.303	1657.15
711.491	1728.83
711.679	1681.72
711.866	1845.56
712.054	1751.35
712.242	1782.07
712.43	1608
712.617	1841.47
712.805	1714.49
712.993	1771.83
713.181	1640.76
713.368	1595.71
713.556	1704.25
713.744	1644.86
713.931	1636.67
714.119	1704.25
714.306	1655.1
714.494	1640.76
714.682	1642.81
714.869	1628.48
715.057	1595.71
715.244	1530.17
715.432	1567.04
715.619	1612.09
715.807	1548.61
715.994	1540.41
716.182	1599.8
716.369	1526.08
716.556	1644.86
716.744	1657.15
716.931	1524.03
717.119	1579.33
717.306	1476.93
717.493	1487.17
717.681	1593.66
717.868	1458.5
718.055	1710.4
718.242	1468.73
718.43	1521.98
718.617	1481.02
718.804	1691.96
718.991	1478.97
719.179	1460.54
719.366	1435.97
719.553	1489.21
719.74	1370.43
719.927	1505.6
720.114	1489.21
720.301	1364.29
720.488	1499.45
720.676	1423.68
720.863	1413.44
721.05	1433.92
721.237	1384.77
721.424	1427.78
721.611	1343.81
721.798	1427.78
721.985	1364.29
722.172	1366.34
722.358	1341.76
722.545	1470.78
722.732	1339.71
722.919	1352
723.106	1337.66
723.293	1313.09
723.48	1245.51
723.667	1286.47
723.853	1349.95
724.04	1386.82
724.227	1343.81
724.414	1417.54
724.6	1284.42
724.787	1380.67
724.974	1280.32
725.161	1272.13
725.347	1261.89
725.534	1321.28
725.72	1270.08
725.907	1288.51
726.094	1282.37
726.28	1409.34
726.467	1235.27
726.653	1298.75
726.84	1284.42
727.027	1169.73
727.213	1149.25
727.4	1210.69
727.586	1233.22
727.773	1300.8
727.959	1315.14
728.145	1214.79
728.332	1272.13
728.518	1190.21
728.705	1329.47
728.891	1220.93
729.077	1311.04
729.264	1210.69
729.45	1268.03
729.636	1143.11
729.823	1227.07
730.009	1106.24
730.195	1143.11
730.382	1272.13
730.568	1184.07
730.754	1173.83
730.94	1182.02
731.126	1175.88
731.313	1098.05
731.499	1139.01
731.685	1198.4
731.871	1139.01
732.057	1157.44
732.243	1141.06
732.429	1231.17
732.615	1182.02
732.801	1147.2
732.987	1114.44
733.173	1091.91
733.359	1222.98
733.545	1108.29
733.731	1126.72
733.917	1130.82
734.103	1065.29
734.289	1083.72
734.475	1075.52
734.661	1102.15
734.847	1091.91
735.033	1018.18
735.219	944.45
735.404	1091.91
735.59	1048.9
735.776	1069.38
735.962	1020.23
736.148	1055.05
736.333	1055.05
736.519	997.7
736.705	1096
736.89	1122.63
737.076	1024.33
737.262	938.31
737.447	1048.9
737.633	977.22
737.819	999.75
738.004	999.75
738.19	930.12
738.375	1046.85
738.561	958.79
738.747	954.69
738.932	1007.94
739.118	952.65
739.303	921.93
739.489	1014.09
739.674	944.45
739.859	946.5
740.045	940.36
740.23	868.68
740.416	1012.04
740.601	909.64
740.786	954.69
740.972	969.03
741.157	895.3
741.342	942.41
741.528	944.45
741.713	936.26
741.898	926.02
742.084	981.32
742.269	983.37
742.454	971.08
742.639	971.08
742.824	950.6
743.01	909.64
743.195	946.5
743.38	872.78
743.565	909.64
743.75	805.19
743.935	858.44
744.12	883.02
744.305	921.93
744.49	893.26
744.675	870.73
744.86	905.54
745.045	831.82
745.23	776.52
745.415	837.96
745.6	864.58
745.785	801.1
745.97	915.78
746.155	915.78
746.34	825.67
746.525	780.62
746.71	811.34
746.895	772.43
747.079	809.29
747.264	743.75
747.449	727.37
747.634	801.1
747.819	786.76
748.003	815.43
748.188	831.82
748.373	790.86
748.557	778.57
748.742	696.65
748.927	772.43
749.111	758.09
749.296	801.1
749.481	696.65
749.665	743.75
749.85	780.62
750.034	780.62
750.219	717.13
750.404	725.32
750.588	778.57
750.773	739.66
750.957	764.23
751.141	723.27
751.326	680.27
751.51	770.38
751.695	737.61
751.879	710.99
752.064	713.03
752.248	635.21
752.432	665.93
752.617	665.93
752.801	584.01
752.985	659.79
753.17	598.35
753.354	637.26
753.538	606.54
753.722	581.96
753.907	663.88
754.091	614.73
754.275	590.16
754.459	604.49
754.643	606.54
754.828	522.57
755.012	592.2
755.196	543.05
755.38	536.91
755.564	555.34
755.748	676.17
755.932	579.92
756.116	563.53
756.3	592.2
756.484	665.93
756.668	563.53
756.852	604.49
757.036	567.63
757.22	532.81
757.404	616.78
757.588	559.44
757.772	547.15
757.956	520.53
758.14	516.43
758.323	545.1
758.507	495.95
758.691	473.42
758.875	489.81
759.059	588.11
759.242	502.09
759.426	502.09
759.61	524.62
759.794	555.34
759.977	541.01
760.161	524.62
760.345	622.92
760.528	590.16
760.712	481.61
760.895	518.48
761.079	498
761.263	524.62
761.446	467.28
761.63	500.05
761.813	504.14
761.997	528.72
762.18	448.85
762.364	524.62
762.547	436.56
762.731	432.46
762.914	500.05
763.098	434.51
763.281	424.27
763.464	442.7
763.648	467.28
763.831	461.13
764.015	442.7
764.198	399.7
764.381	518.48
764.564	498
764.748	438.61
764.931	498
765.114	457.04
765.297	428.37
765.481	424.27
765.664	424.27
765.847	409.94
766.03	418.13
766.213	493.9
766.397	508.24
766.58	465.23
766.763	454.99
766.946	461.13
767.129	438.61
767.312	414.03
767.495	420.17
767.678	401.74
767.861	440.65
768.044	448.85
768.227	422.22
768.41	457.04
768.593	436.56
768.776	430.41
768.959	348.5
769.142	403.79
769.324	366.93
769.507	411.98
769.69	422.22
769.873	407.89
770.056	475.47
770.239	309.58
770.421	411.98
770.604	432.46
770.787	452.94
770.97	377.17
771.152	319.82
771.335	332.11
771.518	362.83
771.7	430.41
771.883	403.79
772.066	368.98
772.248	399.7
772.431	405.84
772.613	364.88
772.796	368.98
772.978	352.59
773.161	375.12
773.343	313.68
773.526	383.31
773.708	354.64
773.891	354.64
774.073	416.08
774.256	450.89
774.438	389.46
774.621	368.98
774.803	346.45
774.985	325.97
775.168	403.79
775.35	338.26
775.532	287.06
775.715	375.12
775.897	340.3
776.079	418.13
776.261	360.78
776.444	311.63
776.626	393.55
776.808	285.01
776.99	420.17
777.173	377.17
777.355	340.3
777.537	328.02
777.719	289.1
777.901	362.83
778.083	330.06
778.265	362.83
778.447	336.21
778.629	348.5
778.811	395.6
778.993	244.05
779.175	307.54
779.357	299.34
779.539	334.16
779.721	330.06
779.903	395.6
780.085	344.4
780.267	321.87
780.449	291.15
780.631	348.5
780.812	282.96
780.994	221.52
781.176	287.06
781.358	239.95
781.54	205.14
781.721	264.53
781.903	192.85
782.085	336.21
782.267	217.43
782.448	309.58
782.63	295.25
782.812	194.9
782.993	235.86
783.175	239.95
783.357	242
783.538	276.82
783.72	274.77
783.901	317.78
784.083	276.82
784.264	160.08
784.446	256.34
784.627	168.27
784.809	315.73
784.99	237.91
785.172	235.86
785.353	227.67
785.535	186.71
785.716	242
785.897	194.9
786.079	203.09
786.26	256.34
786.441	174.42
786.623	184.66
786.804	235.86
786.985	217.43
787.167	172.37
787.348	223.57
787.529	184.66
787.71	258.39
787.891	227.67
788.073	164.18
788.254	239.95
788.435	287.06
788.616	121.17
788.797	225.62
788.978	188.75
789.159	162.13
789.34	235.86
789.522	143.7
789.703	254.29
789.884	166.23
790.065	239.95
790.246	168.27
790.427	180.56
790.607	205.14
790.788	192.85
790.969	133.46
791.15	237.91
791.331	147.8
791.512	153.94
791.693	135.51
791.874	207.19
792.054	203.09
792.235	225.62
792.416	190.8
792.597	192.85
792.778	92.5
792.958	215.38
793.139	153.94
793.32	145.75
793.5	110.93
793.681	174.42
793.862	186.71
794.042	172.37
794.223	143.7
794.404	112.98
794.584	106.84
794.765	141.65
794.945	155.99
795.126	115.03
795.306	170.32
795.487	172.37
795.667	86.36
795.848	160.08
796.028	123.22
796.209	123.22
796.389	139.6
796.57	176.47
796.75	108.88
796.93	235.86
797.111	98.64
797.291	162.13
797.471	96.6
797.652	192.85
797.832	129.36
798.012	172.37
798.192	252.24
798.373	112.98
798.553	100.69
798.733	219.47
798.913	55.64
799.093	65.88
799.274	127.32
799.454	213.33
799.634	133.46
799.814	92.5
799.994	160.08
800.174	29.01
800.354	115.03
800.534	147.8
800.714	129.36
800.894	110.93
801.074	102.74
801.254	141.65
801.434	125.27
801.614	106.84
801.794	115.03
801.974	250.19
802.154	59.73
802.334	45.4
802.514	63.83
802.693	123.22
802.873	115.03
803.053	184.66
803.233	78.16
803.413	92.5
803.592	82.26
803.772	145.75
803.952	92.5
804.131	72.02
804.311	119.12
804.491	96.6
804.67	98.64
804.85	149.84
805.03	125.27
805.209	88.4
805.389	106.84
805.568	76.12
805.748	59.73
805.928	90.45
806.107	4.44
806.287	117.08
806.466	74.07
806.646	149.84
806.825	65.88
807.004	137.56
807.184	123.22
807.363	153.94
807.543	108.88
807.722	117.08
807.901	127.32
808.081	112.98
808.26	35.16
808.439	108.88
808.619	47.44
808.798	10.58
808.977	119.12
809.156	168.27
809.336	119.12
809.515	59.73
809.694	121.17
809.873	137.56
810.052	65.88
810.231	110.93
810.411	76.12
810.59	139.6
810.769	98.64
810.948	112.98
811.127	37.2
811.306	117.08
811.485	51.54
811.664	104.79
811.843	98.64
812.022	151.89
812.201	84.31
812.38	61.78
812.559	141.65
812.737	149.84
812.916	51.54
813.095	86.36
813.274	112.98
813.453	82.26
813.632	51.54
813.811	63.83
813.989	63.83
814.168	49.49
814.347	63.83
814.526	55.64
814.704	53.59
814.883	65.88
815.062	129.36
815.24	92.5
815.419	37.2
815.598	69.97
815.776	-9.9
815.955	102.74
816.133	74.07
816.312	76.12
816.49	39.25
816.669	20.82
816.847	35.16
817.026	86.36
817.204	90.45
817.383	53.59
817.561	29.01
817.74	43.35
817.918	78.16
818.097	119.12
818.275	84.31
818.453	88.4
818.632	112.98
818.81	100.69
818.988	80.21
819.167	43.35
819.345	47.44
819.523	74.07
819.701	20.82
819.879	51.54
820.058	65.88
820.236	-5.8
820.414	119.12
820.592	76.12
820.77	88.4
820.948	22.87
821.127	41.3
821.305	2.39
821.483	76.12
821.661	39.25
821.839	117.08
822.017	47.44
822.195	41.3
822.373	115.03
822.551	90.45
822.729	92.5
822.907	16.73
823.085	106.84
823.262	55.64
823.44	96.6
823.618	94.55
823.796	115.03
823.974	-3.75
824.152	-7.85
824.329	0.34
824.507	84.31
824.685	72.02
824.863	86.36
825.04	-36.52
825.218	43.35
825.396	65.88
825.574	-48.81
825.751	26.96
825.929	18.77
826.107	51.54
826.284	65.88
826.462	-7.85
826.639	47.44
826.817	22.87
826.994	0.34
827.172	14.68
827.349	74.07
827.527	135.51
827.704	43.35
827.882	24.92
828.059	49.49
828.237	59.73
828.414	33.11
828.591	29.01
828.769	59.73
828.946	-5.8
829.124	57.68
829.301	24.92
829.478	-54.95
829.655	-13.99
829.833	14.68
830.01	74.07
830.187	125.27
830.364	14.68
830.542	14.68
830.719	16.73
830.896	53.59
831.073	43.35
831.25	10.58
831.427	78.16
831.604	31.06
831.782	45.4
831.959	55.64
832.136	43.35
832.313	76.12
832.49	67.92
832.667	18.77
832.844	53.59
833.021	41.3
833.198	49.49
833.374	45.4
833.551	76.12
833.728	-13.99
833.905	20.82
834.082	26.96
834.259	39.25
834.436	57.68
834.612	35.16
834.789	8.53
834.966	92.5
835.143	74.07
835.319	20.82
835.496	80.21
835.673	-73.39
835.85	76.12
836.026	16.73
836.203	59.73
836.38	26.96
836.556	55.64
836.733	80.21
836.909	96.6
837.086	55.64
837.262	43.35
837.439	72.02
837.616	20.82
837.792	8.53
837.968	18.77
838.145	-11.95
838.321	31.06
838.498	49.49
838.674	16.73
838.851	51.54
839.027	67.92
839.203	18.77
839.38	55.64
839.556	-11.95
839.732	0.34
839.909	39.25
840.085	82.26
840.261	24.92
840.437	53.59
840.614	51.54
840.79	33.11
840.966	14.68
841.142	12.63
841.318	45.4
841.494	59.73
841.671	59.73
841.847	57.68
842.023	12.63
842.199	31.06
842.375	-38.57
842.551	29.01
842.727	92.5
842.903	90.45
843.079	26.96
843.255	22.87
843.431	-11.95
843.607	53.59
843.783	82.26
843.959	39.25
844.134	0.34
844.31	35.16
844.486	-1.71
844.662	29.01
844.838	69.97
845.013	0.34
845.189	6.49
845.365	-42.67
845.541	43.35
845.716	24.92
845.892	55.64
846.068	-1.71
846.244	29.01
846.419	41.3
846.595	61.78
846.77	47.44
846.946	-5.8
847.122	39.25
847.297	20.82
847.473	35.16
847.648	63.83
847.824	24.92
847.999	8.53
848.175	0.34
848.35	22.87
848.526	67.92
848.701	12.63
848.876	61.78
849.052	-24.23
849.227	47.44
849.403	-38.57
849.578	-5.8
849.753	84.31
849.929	26.96
850.104	76.12
850.279	59.73
850.454	-32.43
850.63	12.63
850.805	-75.43
850.98	65.88
851.155	37.2
851.33	39.25
851.505	31.06
851.681	55.64
851.856	16.73
852.031	8.53
852.206	49.49
852.381	2.39
852.556	-5.8
852.731	65.88
852.906	6.49
853.081	53.59
853.256	43.35
853.431	-30.38
853.606	55.64
853.781	41.3
853.956	-7.85
854.131	8.53
854.305	-13.99
854.48	57.68
854.655	24.92
854.83	-3.75
855.005	8.53
855.18	43.35
855.354	16.73
855.529	47.44
855.704	-52.91
855.879	-18.09
856.053	33.11
856.228	88.4
856.403	35.16
856.577	35.16
856.752	45.4
856.926	51.54
857.101	-11.95
857.276	61.78
857.45	6.49
857.625	37.2
857.799	-42.67
857.974	-16.04
858.148	2.39
858.323	-9.9
858.497	29.01
858.672	37.2
858.846	24.92
859.02	18.77
859.195	-34.47
859.369	29.01
859.543	88.4
859.718	92.5
859.892	8.53
860.066	-5.8
860.241	16.73
860.415	41.3
860.589	108.88
860.763	16.73
860.938	-7.85
861.112	24.92
861.286	-20.14
861.46	125.27
861.634	2.39
861.808	24.92
861.982	37.2
862.157	8.53
862.331	-22.19
862.505	-11.95
862.679	65.88
862.853	74.07
863.027	20.82
863.201	65.88
863.375	-11.95
863.549	-1.71
863.722	24.92
863.896	0.34
864.07	-26.28
864.244	53.59
864.418	47.44
864.592	18.77
864.766	-5.8
864.939	37.2
865.113	10.58
865.287	59.73
865.461	14.68
865.634	26.96
865.808	26.96
865.982	18.77
866.156	2.39
866.329	49.49
866.503	8.53
866.676	33.11
866.85	35.16
867.024	22.87
867.197	-26.28
867.371	35.16
867.544	10.58
867.718	67.92
867.891	39.25
868.065	-24.23
868.238	-57
868.412	2.39
868.585	-32.43
868.759	14.68
868.932	-75.43
869.105	33.11
869.279	10.58
869.452	20.82
869.625	39.25
869.799	29.01
869.972	26.96
870.145	26.96
870.319	31.06
870.492	49.49
870.665	-38.57
870.838	59.73
871.011	6.49
871.185	39.25
871.358	-20.14
871.531	65.88
871.704	24.92
871.877	37.2
872.05	63.83
872.223	0.34
872.396	35.16
872.569	-5.8
872.742	39.25
872.915	47.44
873.088	-93.87
873.261	-81.58
873.434	53.59
873.607	-54.95
873.78	43.35
873.953	33.11
874.126	63.83
874.299	-7.85
874.471	-13.99
874.644	-1.71
874.817	-24.23
874.99	51.54
875.163	-67.24
875.335	24.92
875.508	22.87
875.681	39.25
875.853	12.63
876.026	-28.33
876.199	-7.85
876.371	-79.53
876.544	22.87
876.717	-16.04
876.889	98.64
877.062	8.53
877.234	33.11
877.407	-11.95
877.579	-34.47
877.752	16.73
877.924	-46.76
878.097	39.25
878.269	-16.04
878.442	-59.05
878.614	29.01
878.786	84.31
878.959	-5.8
879.131	29.01
879.303	-20.14
879.476	4.44
879.648	6.49
879.82	18.77
879.993	-77.48
880.165	115.03
880.337	35.16
880.509	-52.91
880.681	-30.38
880.854	-3.75
881.026	-65.19
881.198	26.96
881.37	-26.28
881.542	-28.33
881.714	65.88
881.886	78.16
882.058	6.49
882.23	2.39
882.402	29.01
882.574	72.02
882.746	-18.09
882.918	33.11
883.09	-24.23
883.262	45.4
883.434	22.87
883.606	10.58
883.778	-1.71
883.95	-30.38
884.122	-18.09
884.293	-7.85
884.465	-40.62
884.637	16.73
884.809	-11.95
884.98	-7.85
885.152	-30.38
885.324	-28.33
885.496	29.01
885.667	-28.33
885.839	33.11
886.011	-11.95
886.182	-11.95
886.354	43.35
886.525	-48.81
886.697	57.68
886.869	-9.9
887.04	-77.48
887.212	-9.9
887.383	-36.52
887.555	4.44
887.726	-40.62
887.897	45.4
888.069	-30.38
888.24	-13.99
888.412	20.82
888.583	33.11
888.754	-42.67
888.926	14.68
889.097	-38.57
889.268	-1.71
889.44	57.68
889.611	31.06
889.782	0.34
889.953	-50.86
890.125	67.92
890.296	22.87
890.467	43.35
890.638	-40.62
890.809	-20.14
890.98	2.39
891.151	-7.85
891.323	-9.9
891.494	86.36
891.665	-44.71
891.836	29.01
892.007	-26.28
892.178	-48.81
892.349	8.53
892.52	-24.23
892.691	33.11
892.862	-65.19
893.032	-16.04
893.203	10.58
893.374	26.96
893.545	-9.9
893.716	16.73
893.887	-16.04
894.057	-18.09
894.228	-13.99
894.399	55.64
894.57	-9.9
894.74	16.73
894.911	-7.85
895.082	26.96
895.253	-24.23
895.423	-1.71
895.594	37.2
895.764	-28.33
895.935	-5.8
896.106	20.82
896.276	86.36
896.447	-11.95
896.617	-5.8
896.788	4.44
896.958	43.35
897.129	-28.33
897.299	8.53
897.47	41.3
897.64	-7.85
897.81	-18.09
897.981	4.44
898.151	-59.05
898.322	65.88
898.492	47.44
898.662	94.55
898.832	22.87
899.003	-48.81
899.173	35.16
899.343	14.68
899.513	-11.95
