Data from USB4F104151__135__13-58-03-517.txt Node

Date: Thu Mar 13 13:58:03 EDT 2025
User: louis
Spectrometer: USB4F10415
Trigger mode: 4
Integration Time (sec): 1.000000E-2
Scans to average: 1
Electric dark correction enabled: true
Nonlinearity correction enabled: false
Boxcar width: 0
XAxis mode: Wavelengths
Number of Pixels in Spectrum: 3648
>>>>>Begin Spectral Data<<<<<
178.204	-44.2
178.424	-44.2
178.644	-44.2
178.864	-27.82
179.084	-48.3
179.304	-36.01
179.524	27.48
179.744	-89.26
179.964	2.9
180.184	19.29
180.404	74.58
180.624	52.05
180.844	27.48
181.064	-83.11
181.283	-21.67
181.503	15.19
181.723	11.09
181.943	21.33
182.163	117.59
182.383	-46.25
182.602	66.39
182.822	9.05
183.042	39.76
183.262	43.86
183.482	13.14
183.701	11.09
183.921	-11.43
184.141	19.29
184.361	29.52
184.58	15.19
184.8	19.29
185.02	25.43
185.239	90.96
185.459	19.29
185.679	13.14
185.898	9.05
186.118	43.86
186.338	29.52
186.557	41.81
186.777	19.29
186.997	37.72
187.216	45.91
187.436	11.09
187.655	76.63
187.875	43.86
188.095	33.62
188.314	64.34
188.534	-13.48
188.753	31.57
188.973	78.68
189.192	45.91
189.412	58.2
189.631	-7.34
189.851	9.05
190.07	-7.34
190.29	29.52
190.509	15.19
190.729	27.48
190.948	62.29
191.168	41.81
191.387	9.05
191.607	4.95
191.826	-27.82
192.045	-29.87
192.265	27.48
192.484	17.24
192.704	-9.39
192.923	29.52
193.142	2.9
193.362	35.67
193.581	45.91
193.8	-27.82
194.02	-42.15
194.239	-46.25
194.458	0.85
194.678	9.05
194.897	25.43
195.116	70.48
195.335	0.85
195.555	37.72
195.774	86.87
195.993	47.96
196.212	27.48
196.432	-54.44
196.651	82.77
196.87	-48.3
197.089	105.3
197.308	33.62
197.528	99.16
197.747	-15.53
197.966	23.38
198.185	41.81
198.404	52.05
198.623	13.14
198.842	27.48
199.062	-25.77
199.281	74.58
199.5	-38.06
199.719	84.82
199.938	54.1
200.157	17.24
200.376	0.85
200.595	52.05
200.814	-5.29
201.033	-103.59
201.252	13.14
201.471	-7.34
201.69	-33.96
201.909	117.59
202.128	-17.58
202.347	-7.34
202.566	29.52
202.785	23.38
203.004	37.72
203.223	74.58
203.442	0.85
203.661	60.24
203.879	-29.87
204.098	56.15
204.317	15.19
204.536	0.85
204.755	-19.63
204.974	-76.97
205.193	23.38
205.411	107.35
205.63	-23.72
205.849	15.19
206.068	52.05
206.287	-3.24
206.505	33.62
206.724	45.91
206.943	15.19
207.162	-58.54
207.381	-27.82
207.599	9.05
207.818	58.2
208.037	-21.67
208.255	9.05
208.474	74.58
208.693	54.1
208.911	56.15
209.13	35.67
209.349	19.29
209.567	86.87
209.786	74.58
210.005	33.62
210.223	31.57
210.442	23.38
210.661	17.24
210.879	-38.06
211.098	25.43
211.316	72.53
211.535	11.09
211.753	41.81
211.972	-31.91
212.191	-17.58
212.409	39.76
212.628	90.96
212.846	29.52
213.065	21.33
213.283	11.09
213.502	-27.82
213.72	33.62
213.938	9.05
214.157	0.85
214.375	-42.15
214.594	13.14
214.812	76.63
215.031	-11.43
215.249	31.57
215.467	60.24
215.686	54.1
215.904	60.24
216.122	70.48
216.341	58.2
216.559	74.58
216.778	-3.24
216.996	13.14
217.214	-5.29
217.432	25.43
217.651	41.81
217.869	39.76
218.087	74.58
218.306	-19.63
218.524	-19.63
218.742	17.24
218.96	17.24
219.179	33.62
219.397	35.67
219.615	-9.39
219.833	11.09
220.051	37.72
220.27	72.53
220.488	52.05
220.706	29.52
220.924	-68.78
221.142	-5.29
221.36	-1.19
221.578	17.24
221.796	13.14
222.015	56.15
222.233	11.09
222.451	31.57
222.669	-60.59
222.887	33.62
223.105	-3.24
223.323	13.14
223.541	-5.29
223.759	27.48
223.977	43.86
224.195	54.1
224.413	41.81
224.631	21.33
224.849	54.1
225.067	50
225.285	-15.53
225.503	11.09
225.721	-64.68
225.939	29.52
226.157	-42.15
226.375	29.52
226.592	23.38
226.81	7
227.028	2.9
227.246	50
227.464	15.19
227.682	50
227.9	29.52
228.117	35.67
228.335	-23.72
228.553	-40.11
228.771	37.72
228.989	-7.34
229.206	19.29
229.424	64.34
229.642	37.72
229.86	21.33
230.077	-68.78
230.295	99.16
230.513	47.96
230.731	41.81
230.948	-11.43
231.166	17.24
231.384	2.9
231.601	13.14
231.819	95.06
232.037	-9.39
232.254	41.81
232.472	37.72
232.689	60.24
232.907	111.44
233.125	-48.3
233.342	-7.34
233.56	0.85
233.777	37.72
233.995	0.85
234.213	-7.34
234.43	21.33
234.648	7
234.865	-5.29
235.083	35.67
235.3	-48.3
235.518	68.44
235.735	64.34
235.953	19.29
236.17	37.72
236.388	11.09
236.605	54.1
236.822	-13.48
237.04	9.05
237.257	-48.3
237.475	-1.19
237.692	35.67
237.909	52.05
238.127	-29.87
238.344	115.54
238.562	31.57
238.779	-13.48
238.996	62.29
239.214	27.48
239.431	41.81
239.648	0.85
239.865	-21.67
240.083	2.9
240.3	15.19
240.517	13.14
240.735	45.91
240.952	25.43
241.169	54.1
241.386	37.72
241.603	35.67
241.821	50
242.038	70.48
242.255	43.86
242.472	-7.34
242.689	4.95
242.907	68.44
243.124	-1.19
243.341	-3.24
243.558	41.81
243.775	-15.53
243.992	4.95
244.209	9.05
244.426	33.62
244.643	-9.39
244.86	29.52
245.078	17.24
245.295	23.38
245.512	-5.29
245.729	101.2
245.946	72.53
246.163	-13.48
246.38	21.33
246.597	4.95
246.814	33.62
247.031	15.19
247.248	-15.53
247.464	31.57
247.681	58.2
247.898	64.34
248.115	7
248.332	25.43
248.549	50
248.766	13.14
248.983	35.67
249.2	9.05
249.417	9.05
249.633	-31.91
249.85	58.2
250.067	-9.39
250.284	41.81
250.501	15.19
250.717	19.29
250.934	21.33
251.151	0.85
251.368	58.2
251.585	123.73
251.801	25.43
252.018	-11.43
252.235	58.2
252.451	-5.29
252.668	4.95
252.885	2.9
253.102	0.85
253.318	9.05
253.535	-33.96
253.752	27.48
253.968	21.33
254.185	-31.91
254.401	7
254.618	39.76
254.835	-27.82
255.051	39.76
255.268	58.2
255.484	15.19
255.701	21.33
255.917	-5.29
256.134	-5.29
256.351	-3.24
256.567	-27.82
256.784	109.4
257	9.05
257.217	13.14
257.433	52.05
257.65	19.29
257.866	2.9
258.082	-11.43
258.299	60.24
258.515	50
258.732	19.29
258.948	35.67
259.165	2.9
259.381	43.86
259.597	13.14
259.814	13.14
260.03	37.72
260.246	-19.63
260.463	2.9
260.679	43.86
260.895	17.24
261.112	68.44
261.328	33.62
261.544	82.77
261.761	35.67
261.977	25.43
262.193	-40.11
262.409	43.86
262.626	-27.82
262.842	27.48
263.058	11.09
263.274	21.33
263.49	-23.72
263.707	27.48
263.923	-21.67
264.139	-46.25
264.355	-62.63
264.571	17.24
264.787	43.86
265.004	50
265.22	70.48
265.436	11.09
265.652	-95.4
265.868	25.43
266.084	27.48
266.3	125.78
266.516	76.63
266.732	19.29
266.948	11.09
267.164	66.39
267.38	-3.24
267.596	-52.39
267.812	47.96
268.028	27.48
268.244	-17.58
268.46	-15.53
268.676	11.09
268.892	86.87
269.108	21.33
269.324	9.05
269.54	27.48
269.756	-64.68
269.972	-44.2
270.188	50
270.403	-23.72
270.619	74.58
270.835	64.34
271.051	4.95
271.267	-48.3
271.483	-31.91
271.698	74.58
271.914	50
272.13	19.29
272.346	54.1
272.562	23.38
272.777	-46.25
272.993	39.76
273.209	50
273.425	54.1
273.64	2.9
273.856	9.05
274.072	31.57
274.287	-7.34
274.503	-15.53
274.719	13.14
274.934	7
275.15	64.34
275.366	105.3
275.581	13.14
275.797	35.67
276.012	-11.43
276.228	37.72
276.444	19.29
276.659	93.01
276.875	9.05
277.09	33.62
277.306	39.76
277.521	60.24
277.737	-23.72
277.952	9.05
278.168	-54.44
278.383	58.2
278.599	41.81
278.814	0.85
279.03	50
279.245	21.33
279.461	31.57
279.676	23.38
279.892	78.68
280.107	11.09
280.322	54.1
280.538	27.48
280.753	54.1
280.969	-3.24
281.184	-3.24
281.399	97.11
281.615	17.24
281.83	15.19
282.045	-3.24
282.26	58.2
282.476	2.9
282.691	15.19
282.906	-13.48
283.122	64.34
283.337	13.14
283.552	39.76
283.767	-3.24
283.983	66.39
284.198	56.15
284.413	31.57
284.628	74.58
284.843	76.63
285.058	17.24
285.274	11.09
285.489	-25.77
285.704	13.14
285.919	-15.53
286.134	-31.91
286.349	68.44
286.564	60.24
286.779	13.14
286.995	-25.77
287.21	21.33
287.425	-17.58
287.64	-33.96
287.855	-48.3
288.07	21.33
288.285	13.14
288.5	17.24
288.715	-11.43
288.93	-38.06
289.145	21.33
289.36	39.76
289.575	4.95
289.79	31.57
290.004	27.48
290.219	-40.11
290.434	56.15
290.649	45.91
290.864	27.48
291.079	27.48
291.294	33.62
291.509	60.24
291.724	19.29
291.938	-27.82
292.153	43.86
292.368	66.39
292.583	37.72
292.798	9.05
293.012	33.62
293.227	11.09
293.442	-5.29
293.657	70.48
293.871	17.24
294.086	54.1
294.301	0.85
294.516	21.33
294.73	9.05
294.945	-25.77
295.16	27.48
295.374	-50.35
295.589	54.1
295.804	2.9
296.018	50
296.233	109.4
296.447	9.05
296.662	-52.39
296.877	11.09
297.091	60.24
297.306	15.19
297.52	-25.77
297.735	31.57
297.949	-62.63
298.164	82.77
298.378	-31.91
298.593	-38.06
298.807	127.83
299.022	4.95
299.236	82.77
299.451	58.2
299.665	-36.01
299.88	15.19
300.094	-1.19
300.309	60.24
300.523	-3.24
300.737	-3.24
300.952	27.48
301.166	-3.24
301.381	37.72
301.595	2.9
301.809	99.16
302.024	-5.29
302.238	-17.58
302.452	13.14
302.667	2.9
302.881	9.05
303.095	4.95
303.309	70.48
303.524	13.14
303.738	21.33
303.952	-29.87
304.166	9.05
304.381	-25.77
304.595	62.29
304.809	95.06
305.023	70.48
305.237	15.19
305.452	115.54
305.666	31.57
305.88	21.33
306.094	0.85
306.308	82.77
306.522	29.52
306.736	43.86
306.95	25.43
307.164	60.24
307.379	74.58
307.593	-13.48
307.807	-3.24
308.021	27.48
308.235	29.52
308.449	13.14
308.663	13.14
308.877	52.05
309.091	64.34
309.305	33.62
309.519	17.24
309.733	43.86
309.947	41.81
310.161	-11.43
310.374	25.43
310.588	7
310.802	17.24
311.016	33.62
311.23	25.43
311.444	25.43
311.658	68.44
311.872	-19.63
312.085	35.67
312.299	25.43
312.513	-13.48
312.727	31.57
312.941	97.11
313.154	78.68
313.368	43.86
313.582	19.29
313.796	-5.29
314.009	148.31
314.223	27.48
314.437	-11.43
314.651	43.86
314.864	-1.19
315.078	-1.19
315.292	33.62
315.505	33.62
315.719	50
315.933	13.14
316.146	43.86
316.36	52.05
316.573	39.76
316.787	-1.19
317.001	107.35
317.214	29.52
317.428	43.86
317.641	74.58
317.855	50
318.068	43.86
318.282	66.39
318.495	45.91
318.709	47.96
318.922	7
319.136	33.62
319.349	50
319.563	52.05
319.776	54.1
319.99	13.14
320.203	-66.73
320.417	17.24
320.63	0.85
320.843	29.52
321.057	-66.73
321.27	17.24
321.483	72.53
321.697	41.81
321.91	58.2
322.124	74.58
322.337	19.29
322.55	-7.34
322.763	33.62
322.977	15.19
323.19	-5.29
323.403	-36.01
323.617	0.85
323.83	60.24
324.043	25.43
324.256	33.62
324.469	31.57
324.683	25.43
324.896	37.72
325.109	2.9
325.322	-36.01
325.535	23.38
325.748	90.96
325.962	19.29
326.175	31.57
326.388	19.29
326.601	70.48
326.814	-38.06
327.027	45.91
327.24	60.24
327.453	-3.24
327.666	27.48
327.879	58.2
328.092	88.92
328.305	-42.15
328.518	82.77
328.731	45.91
328.944	68.44
329.157	43.86
329.37	31.57
329.583	62.29
329.796	95.06
330.009	27.48
330.222	62.29
330.435	66.39
330.648	54.1
330.861	9.05
331.073	99.16
331.286	31.57
331.499	19.29
331.712	41.81
331.925	21.33
332.138	-25.77
332.35	-52.39
332.563	-58.54
332.776	62.29
332.989	11.09
333.202	41.81
333.414	43.86
333.627	56.15
333.84	15.19
334.053	25.43
334.265	-3.24
334.478	43.86
334.691	60.24
334.903	54.1
335.116	-7.34
335.329	-15.53
335.541	90.96
335.754	33.62
335.966	19.29
336.179	21.33
336.392	54.1
336.604	43.86
336.817	27.48
337.029	56.15
337.242	0.85
337.454	0.85
337.667	19.29
337.88	43.86
338.092	-7.34
338.305	41.81
338.517	66.39
338.729	136.02
338.942	-7.34
339.154	27.48
339.367	-68.78
339.579	17.24
339.792	-29.87
340.004	-5.29
340.217	56.15
340.429	43.86
340.641	50
340.854	52.05
341.066	37.72
341.278	19.29
341.491	47.96
341.703	25.43
341.915	115.54
342.128	29.52
342.34	-40.11
342.552	76.63
342.764	33.62
342.977	60.24
343.189	45.91
343.401	62.29
343.613	-13.48
343.826	56.15
344.038	64.34
344.25	60.24
344.462	-7.34
344.674	105.3
344.886	41.81
345.099	15.19
345.311	52.05
345.523	17.24
345.735	11.09
345.947	19.29
346.159	13.14
346.371	66.39
346.583	58.2
346.795	17.24
347.007	21.33
347.219	43.86
347.431	76.63
347.643	52.05
347.855	-17.58
348.067	95.06
348.279	9.05
348.491	101.2
348.703	-19.63
348.915	-27.82
349.127	0.85
349.339	74.58
349.551	13.14
349.763	50
349.975	78.68
350.187	-36.01
350.399	19.29
350.61	21.33
350.822	74.58
351.034	31.57
351.246	4.95
351.458	86.87
351.669	29.52
351.881	70.48
352.093	13.14
352.305	60.24
352.517	50
352.728	74.58
352.94	21.33
353.152	50
353.363	58.2
353.575	4.95
353.787	70.48
353.999	33.62
354.21	50
354.422	84.82
354.633	95.06
354.845	35.67
355.057	41.81
355.268	4.95
355.48	15.19
355.692	27.48
355.903	23.38
356.115	109.4
356.326	11.09
356.538	64.34
356.749	41.81
356.961	58.2
357.172	-19.63
357.384	37.72
357.595	76.63
357.807	64.34
358.018	23.38
358.23	93.01
358.441	39.76
358.653	17.24
358.864	23.38
359.075	-11.43
359.287	52.05
359.498	70.48
359.709	-11.43
359.921	152.4
360.132	-48.3
360.344	9.05
360.555	27.48
360.766	41.81
360.977	39.76
361.189	25.43
361.4	58.2
361.611	78.68
361.823	52.05
362.034	-1.19
362.245	2.9
362.456	-29.87
362.667	25.43
362.879	11.09
363.09	37.72
363.301	35.67
363.512	31.57
363.723	33.62
363.935	-13.48
364.146	54.1
364.357	37.72
364.568	-33.96
364.779	29.52
364.99	60.24
365.201	-48.3
365.412	62.29
365.623	-3.24
365.834	25.43
366.045	-9.39
366.256	95.06
366.467	7
366.678	0.85
366.889	4.95
367.1	19.29
367.311	41.81
367.522	9.05
367.733	17.24
367.944	80.72
368.155	15.19
368.366	33.62
368.577	72.53
368.788	15.19
368.999	78.68
369.209	-7.34
369.42	19.29
369.631	60.24
369.842	45.91
370.053	27.48
370.264	74.58
370.474	52.05
370.685	4.95
370.896	-29.87
371.107	97.11
371.317	-5.29
371.528	41.81
371.739	52.05
371.95	27.48
372.16	58.2
372.371	11.09
372.582	-72.87
372.792	56.15
373.003	0.85
373.214	35.67
373.424	-64.68
373.635	-1.19
373.846	111.44
374.056	66.39
374.267	74.58
374.477	23.38
374.688	50
374.898	7
375.109	-5.29
375.319	64.34
375.53	60.24
375.74	54.1
375.951	35.67
376.161	-3.24
376.372	33.62
376.582	41.81
376.793	-3.24
377.003	52.05
377.214	58.2
377.424	50
377.635	15.19
377.845	13.14
378.055	93.01
378.266	21.33
378.476	23.38
378.686	45.91
378.897	68.44
379.107	11.09
379.317	43.86
379.528	31.57
379.738	99.16
379.948	-44.2
380.158	54.1
380.369	2.9
380.579	117.59
380.789	-23.72
380.999	19.29
381.21	50
381.42	17.24
381.63	54.1
381.84	39.76
382.05	-15.53
382.261	70.48
382.471	82.77
382.681	47.96
382.891	97.11
383.101	99.16
383.311	23.38
383.521	47.96
383.731	45.91
383.941	43.86
384.151	84.82
384.361	66.39
384.571	113.49
384.781	45.91
384.991	50
385.201	45.91
385.411	27.48
385.621	50
385.831	45.91
386.041	-11.43
386.251	31.57
386.461	52.05
386.671	68.44
386.881	58.2
387.091	13.14
387.301	45.91
387.511	15.19
387.72	39.76
387.93	90.96
388.14	33.62
388.35	68.44
388.56	43.86
388.769	68.44
388.979	78.68
389.189	-17.58
389.399	103.25
389.609	50
389.818	84.82
390.028	27.48
390.238	72.53
390.447	25.43
390.657	58.2
390.867	41.81
391.076	29.52
391.286	93.01
391.496	76.63
391.705	88.92
391.915	97.11
392.125	2.9
392.334	58.2
392.544	31.57
392.753	76.63
392.963	25.43
393.172	37.72
393.382	43.86
393.591	115.54
393.801	84.82
394.01	127.83
394.22	13.14
394.429	68.44
394.639	41.81
394.848	90.96
395.058	62.29
395.267	64.34
395.477	99.16
395.686	80.72
395.895	70.48
396.105	70.48
396.314	50
396.524	43.86
396.733	45.91
396.942	74.58
397.152	-11.43
397.361	54.1
397.57	99.16
397.78	82.77
397.989	9.05
398.198	52.05
398.407	33.62
398.617	7
398.826	113.49
399.035	4.95
399.244	90.96
399.453	72.53
399.663	88.92
399.872	97.11
400.081	74.58
400.29	93.01
400.499	84.82
400.708	95.06
400.917	74.58
401.127	74.58
401.336	113.49
401.545	82.77
401.754	54.1
401.963	90.96
402.172	15.19
402.381	54.1
402.59	101.2
402.799	127.83
403.008	101.2
403.217	93.01
403.426	121.68
403.635	33.62
403.844	109.4
404.053	43.86
404.262	84.82
404.471	146.26
404.68	64.34
404.888	133.97
405.097	123.73
405.306	154.45
405.515	150.36
405.724	115.54
405.933	133.97
406.142	88.92
406.35	99.16
406.559	158.55
406.768	107.35
406.977	131.92
407.185	95.06
407.394	146.26
407.603	142.16
407.812	150.36
408.02	142.16
408.229	136.02
408.438	164.69
408.646	168.79
408.855	113.49
409.064	209.75
409.272	197.46
409.481	203.6
409.69	127.83
409.898	174.93
410.107	170.83
410.315	207.7
410.524	306
410.733	230.23
410.941	224.08
411.15	260.95
411.358	258.9
411.567	306
411.775	191.31
411.984	217.94
412.192	289.62
412.401	271.19
412.609	318.29
412.818	336.72
413.026	283.47
413.234	279.38
413.443	340.82
413.651	328.53
413.86	406.35
414.068	389.97
414.276	435.02
414.485	432.97
414.693	475.98
414.901	418.64
415.11	475.98
415.318	432.97
415.526	394.06
415.734	494.41
415.943	512.85
416.151	512.85
416.359	541.52
416.567	584.52
416.776	559.95
416.984	643.92
417.192	596.81
417.4	633.68
417.608	619.34
417.817	686.92
418.025	635.72
418.233	744.27
418.441	719.69
418.649	756.55
418.857	881.48
419.065	807.75
419.273	811.85
419.481	774.99
419.689	981.83
419.897	904.01
420.105	961.35
420.313	1035.08
420.521	1030.98
420.729	1020.74
420.937	1082.18
421.145	1082.18
421.353	1235.78
421.561	1192.77
421.769	1246.02
421.977	1278.79
422.185	1323.84
422.393	1356.61
422.601	1483.58
422.809	1450.82
423.017	1473.34
423.224	1555.26
423.432	1565.5
423.64	1508.16
423.848	1731.39
424.056	1682.24
424.263	1690.43
424.471	1917.75
424.679	1796.92
424.887	1999.67
425.094	1938.23
425.302	1983.29
425.51	2054.97
425.718	2087.73
425.925	2257.71
426.133	2272.05
426.341	2323.25
426.548	2528.05
426.756	2425.65
426.964	2550.57
427.171	2497.33
427.379	2626.35
427.586	2738.99
427.794	2753.32
428.001	2970.41
428.209	3083.05
428.417	3128.1
428.624	3246.88
428.832	3220.26
429.039	3210.02
429.247	3318.56
429.454	3726.11
429.662	3846.94
429.869	3654.43
430.076	3789.6
430.284	3728.16
430.491	3851.03
430.699	4125.46
430.906	3990.3
431.114	4119.32
431.321	4229.91
431.528	4363.03
431.736	4635.41
431.943	4805.39
432.15	4752.14
432.358	4776.72
432.565	5004.04
432.772	4991.75
432.979	5260.04
433.187	5403.39
433.394	5307.14
433.601	5706.49
433.808	5815.04
434.016	5673.73
434.223	5870.33
434.43	6370.04
434.637	6077.18
434.844	6570.74
435.052	6734.57
435.259	6666.99
435.466	6697.71
435.673	6787.82
435.88	7154.41
436.087	7406.31
436.294	7498.47
436.501	7178.98
436.708	7469.8
436.915	7731.94
437.122	8045.27
437.329	8039.13
437.537	8196.82
437.743	8364.76
437.95	8557.27
438.157	8856.27
438.364	9018.06
438.571	9104.07
438.778	9355.97
438.985	9876.16
439.192	9468.61
439.399	9880.25
439.606	9669.31
439.813	10398.39
440.02	10850.99
440.227	10760.88
440.433	10527.41
440.64	10797.74
440.847	10803.89
441.054	11143.85
441.261	11463.33
441.467	11602.6
441.674	11938.46
441.881	12380.82
442.088	12079.77
442.294	12149.4
442.501	12614.29
442.708	12796.56
442.914	13091.47
443.121	13654.66
443.328	13367.95
443.534	14500.47
443.741	13867.65
443.948	13863.55
444.154	14643.83
444.361	14563.96
444.568	14963.31
444.774	14989.94
444.981	14944.88
445.187	15577.7
445.394	15958.63
445.6	15659.62
445.807	17222.22
446.013	16687.7
446.22	17140.3
446.426	17435.21
446.633	18000.45
446.839	18528.83
447.046	17689.16
447.252	18756.15
447.459	18637.37
447.665	18618.94
447.871	19491.37
448.078	20089.38
448.284	19182.13
448.491	19839.53
448.697	20443.68
448.903	21129.75
449.11	21189.14
449.316	20611.61
449.522	20937.24
449.728	21709.32
449.935	21778.95
450.141	21760.52
450.347	22407.68
450.553	21570.06
450.76	21889.54
450.966	22540.8
451.172	22247.94
451.378	23075.32
451.584	22249.99
451.791	23126.52
451.997	22745.59
452.203	23577.07
452.409	23312.88
452.615	23233.01
452.821	22258.18
453.027	22110.72
453.233	23452.14
453.44	22204.93
453.646	22565.37
453.852	22592
454.058	23056.89
454.264	22639.1
454.47	22977.01
454.676	22352.38
454.882	22897.14
455.088	21269.01
455.294	21477.9
455.5	21871.11
455.705	22252.03
455.911	21234.19
456.117	20933.14
456.323	20369.95
456.529	19307.05
456.735	20271.65
456.941	19700.26
457.147	19421.74
457.352	19059.25
457.558	18725.43
457.764	18469.44
457.97	18276.93
458.176	17723.97
458.381	17982.02
458.587	17228.37
458.793	17334.86
458.999	16476.76
459.204	17637.96
459.41	16900.69
459.616	15737.45
459.821	16073.31
460.027	16067.17
460.233	15374.95
460.438	14735.99
460.644	14959.22
460.85	14111.36
461.055	14064.25
461.261	13984.38
461.466	12821.14
461.672	12655.25
461.878	13408.9
462.083	12661.4
462.289	12331.67
462.494	12253.85
462.7	11616.93
462.905	11434.66
463.111	11668.13
463.316	11846.3
463.522	11733.67
463.727	11594.4
463.932	11477.67
464.138	11485.86
464.343	11463.33
464.549	11100.84
464.754	11477.67
464.959	11383.46
465.165	11387.56
465.37	10865.33
465.575	10480.31
465.781	11197.1
465.986	10916.53
466.191	10484.41
466.397	10474.17
466.602	10078.91
466.807	10261.18
467.012	10455.73
467.218	10441.4
467.423	10259.13
467.628	10330.81
467.833	10738.35
468.038	10078.91
468.244	9896.64
468.449	10386.1
468.654	9962.17
468.859	10191.55
469.064	9806.53
469.269	9497.28
469.474	9439.94
469.679	9898.69
469.885	9396.93
470.09	9564.87
470.295	9599.68
470.5	9425.61
470.705	9419.46
470.91	9061.07
471.115	9130.7
471.32	9052.88
471.525	9145.03
471.73	9059.02
471.935	8934.09
472.139	8540.88
472.344	8614.61
472.549	8680.14
472.754	8717.01
472.959	8450.77
473.164	8184.54
473.369	8360.66
473.574	8377.05
473.778	8413.91
473.983	8325.85
474.188	8207.06
474.393	7873.25
474.598	7893.72
474.802	7844.57
475.007	7934.68
475.212	7887.58
475.417	7430.88
475.621	7574.24
475.826	7402.21
476.031	7457.51
476.235	7408.36
476.44	7396.07
476.645	7308.01
476.849	7033.58
477.054	7152.36
477.259	7101.16
477.463	6910.7
477.668	6922.99
477.872	6836.97
478.077	6748.91
478.282	6697.71
478.486	6636.27
478.691	6646.51
478.895	6499.06
479.1	6431.48
479.304	6521.59
479.509	6355.7
479.713	6380.28
479.918	6281.97
480.122	6157.05
480.326	6228.73
480.531	6331.12
480.735	6279.93
480.94	6294.26
481.144	6476.53
481.348	6181.62
481.553	6015.74
481.757	6120.18
481.961	5864.19
482.166	6241.01
482.37	6064.89
482.574	5915.39
482.778	6030.07
482.983	6019.83
483.187	6114.04
483.391	6054.65
483.595	6130.42
483.8	6077.18
484.004	6064.89
484.208	6148.86
484.412	6023.93
484.616	6052.6
484.821	6017.79
485.025	5878.52
485.229	6118.14
485.433	5968.63
485.637	6050.55
485.841	6013.69
486.045	6052.6
486.249	6083.32
486.453	6157.05
486.657	6036.22
486.861	6062.84
487.065	5866.24
487.269	6099.7
487.473	5964.54
487.677	5905.15
487.881	6032.12
488.085	6103.8
488.289	6003.45
488.493	6134.52
488.697	6042.36
488.901	6204.15
489.105	6114.04
489.309	6140.66
489.512	5954.3
489.716	6077.18
489.92	6214.39
490.124	6140.66
490.328	6120.18
490.531	6171.38
490.735	6292.21
490.939	6191.86
491.143	6198.01
491.346	6314.74
491.55	6359.8
491.754	6218.49
491.958	6437.62
492.161	6443.76
492.365	6388.47
492.569	6484.72
492.772	6423.28
492.976	6523.63
493.18	6441.72
493.383	6497.01
493.587	6494.96
493.79	6662.9
493.994	6615.79
494.197	6609.65
494.401	6664.94
494.605	6736.62
494.808	6943.47
495.012	7025.39
495.215	7006.95
495.419	7025.39
495.622	6935.28
495.825	7154.41
496.029	7154.41
496.232	7377.64
496.436	7262.95
496.639	7230.18
496.843	7453.41
497.046	7672.54
497.249	7561.95
497.453	7744.22
497.656	7989.98
497.859	7733.98
498.063	7938.78
498.266	8110.81
498.469	7981.79
498.673	8014.56
498.876	8157.91
499.079	8362.71
499.282	8223.45
499.485	8340.18
499.689	8583.89
499.892	8936.14
500.095	8852.17
500.298	9020.11
500.501	8925.9
500.705	9331.4
500.908	9360.07
501.111	9388.74
501.314	9431.75
501.517	9585.35
501.72	9638.59
501.923	9740.99
502.126	9943.74
502.329	10179.26
502.532	10164.92
502.735	10379.96
502.938	10439.35
503.141	10646.19
503.344	10824.37
503.547	10648.24
503.75	11174.57
503.953	11193
504.156	11242.15
504.359	11362.98
504.562	11657.89
504.765	11774.63
504.968	11786.91
505.17	12047.01
505.373	11958.94
505.576	12161.69
505.779	12317.34
505.982	12458.65
506.185	12438.17
506.387	12946.06
506.59	12769.94
506.793	13204.11
506.996	13116.05
507.198	13447.82
507.401	13507.21
507.604	13861.51
507.807	13918.85
508.009	14269.05
508.212	14293.63
508.415	14432.89
508.617	14432.89
508.82	14836.34
509.022	14899.83
509.225	15327.85
509.428	15180.4
509.63	15555.18
509.833	15512.17
510.035	15733.35
510.238	15946.34
510.44	16308.83
510.643	16765.53
510.845	16644.7
511.048	16423.51
511.25	16939.6
511.453	17009.23
511.655	17642.06
511.858	17095.25
512.06	17687.11
512.262	17660.49
512.465	17887.81
512.667	18006.59
512.87	18432.57
513.072	18215.49
513.274	19143.22
513.477	18874.93
513.679	19345.97
513.881	19644.97
514.084	19907.11
514.286	19980.84
514.488	20056.61
514.69	20748.82
514.893	20779.54
515.095	20787.74
515.297	21201.43
515.499	21277.2
515.701	21449.23
515.904	21701.13
516.106	21807.62
516.308	22323.71
516.51	22518.27
516.712	22809.08
516.914	22671.87
517.116	23339.51
517.318	23239.15
517.52	23587.31
517.722	23683.56
517.925	24396.26
518.127	24205.8
518.329	24240.61
518.531	24607.2
518.733	25010.65
518.935	25221.59
519.136	25197.01
519.338	25805.26
519.54	25913.8
519.742	26098.12
519.944	26190.28
520.146	27042.23
520.348	27134.39
520.55	27142.58
520.752	27343.28
520.954	27746.73
521.155	27605.42
521.357	28516.77
521.559	28240.29
521.761	28443.04
521.963	28352.93
522.164	28479.91
522.366	29071.77
522.568	29450.64
522.77	29565.33
522.971	29872.53
523.173	30011.79
523.375	30359.94
523.576	30306.69
523.778	30529.92
523.98	31048.06
524.181	31179.13
524.383	31023.48
524.584	31168.89
524.786	31377.78
524.988	31490.42
525.189	31895.92
525.391	32041.32
525.592	32137.58
525.794	32690.53
525.995	32397.67
526.197	32530.79
526.398	32526.69
526.6	33067.36
526.801	33087.84
527.003	33233.24
527.204	33292.63
527.406	33765.71
527.607	33526.1
527.808	34120.01
528.01	33544.53
528.211	33911.12
528.412	34312.52
528.614	34367.82
528.815	34017.61
529.016	34820.42
529.218	34146.64
529.419	34654.53
529.62	34963.78
529.822	34527.56
530.023	34804.03
530.224	34943.3
530.425	35002.69
530.626	34691.4
530.828	34523.46
531.029	35565.88
531.23	35412.28
531.431	35037.5
531.632	35508.54
531.833	35623.22
532.035	35334.46
532.236	35344.7
532.437	35991.86
532.638	35328.31
532.839	35756.34
533.04	36077.87
533.241	35500.34
533.442	36356.39
533.643	36016.43
533.844	35971.38
534.045	36086.06
534.246	35844.4
534.447	36073.77
534.648	36004.14
534.849	36006.19
535.05	35918.13
535.251	35936.56
535.451	36106.54
535.652	36155.69
535.853	35991.86
536.054	36141.36
536.255	36047.15
536.456	36184.37
536.657	36700.45
536.857	35991.86
537.058	36344.11
537.259	36202.8
537.46	36581.67
537.66	36327.72
537.861	36202.8
538.062	35805.49
538.263	36790.56
538.463	36108.59
538.664	36327.72
538.865	36434.22
539.065	36452.65
539.266	36327.72
539.466	36972.83
539.667	36018.48
539.868	36778.28
540.068	36405.55
540.269	36335.91
540.469	36868.39
540.67	36483.37
540.87	36327.72
541.071	36268.33
541.271	36628.77
541.472	36311.34
541.672	36276.52
541.873	36213.04
542.073	35885.36
542.274	36798.76
542.474	36204.84
542.675	35823.92
542.875	36757.8
543.075	36172.08
543.276	36186.41
543.476	36628.77
543.676	36088.11
543.877	36536.62
544.077	36567.34
544.277	36423.98
544.478	36417.83
544.678	36309.29
544.878	36360.49
545.078	36821.28
545.279	36063.54
545.479	36540.71
545.679	36417.83
545.879	36700.45
546.079	36415.79
546.28	35991.86
546.48	35916.08
546.68	36557.1
546.88	36348.2
547.08	36329.77
547.28	36272.43
547.48	36032.82
547.68	36176.17
547.88	36460.84
548.081	36340.01
548.281	36401.45
548.481	36266.28
548.681	36532.52
548.881	36313.39
549.081	36675.88
549.28	36395.31
549.48	36745.51
549.68	36505.9
549.88	36798.76
550.08	36094.25
550.28	36473.13
550.48	36221.23
550.68	36348.2
550.88	36221.23
551.08	36188.46
551.279	36294.96
551.479	36340.01
551.679	36182.32
551.879	36116.78
552.079	36546.86
552.278	36323.63
552.478	36239.66
552.678	36385.07
552.878	36735.27
553.077	35893.55
553.277	35848.5
553.477	36596.01
553.676	35674.42
553.876	36217.13
554.076	36047.15
554.275	35911.99
554.475	35696.95
554.674	36462.89
554.874	35940.66
555.074	35838.26
555.273	36114.73
555.473	36366.63
555.672	35717.43
555.872	36049.2
556.071	36264.24
556.271	36192.56
556.47	35633.46
556.67	35334.46
556.869	35692.85
557.068	35858.74
557.268	35635.51
557.467	35459.38
557.667	35535.16
557.866	35920.18
558.065	35187
558.265	35432.76
558.464	35248.44
558.663	35410.23
558.863	35066.17
559.062	35965.23
559.261	34824.51
559.461	35557.69
559.66	35082.56
559.859	35391.8
560.058	34998.59
560.258	35137.85
560.457	34656.58
560.656	35393.85
560.855	34709.83
561.054	34931.01
561.253	34515.27
561.453	35176.76
561.652	34855.23
561.851	34869.57
562.05	34939.2
562.249	34521.41
562.448	34840.9
562.647	34632
562.846	34562.37
563.045	34537.8
563.244	34072.91
563.443	34230.6
563.642	33448.28
563.841	34439.5
564.04	34398.54
564.239	34732.36
564.438	33896.78
564.637	34345.29
564.836	34140.49
565.035	33655.12
565.234	34171.21
565.432	33796.43
565.631	34029.9
565.83	34027.85
566.029	33767.76
566.228	33737.04
566.427	33614.16
566.625	33517.91
566.824	33292.63
567.023	33939.79
567.222	33192.28
567.42	33464.66
567.619	33311.07
567.818	32946.53
568.016	33026.4
568.215	33081.69
568.414	33266.01
568.612	33593.68
568.811	32696.67
569.01	32962.91
569.208	32665.95
569.407	32581.99
569.605	32498.02
569.804	32444.77
570.002	32078.19
570.201	32532.84
570.4	32084.33
570.598	31830.38
570.797	32063.85
570.995	32186.73
571.193	31809.9
571.392	32176.49
571.59	31777.14
571.789	31662.45
571.987	31586.68
572.186	31887.73
572.384	31289.72
572.582	31539.57
572.781	31568.24
572.979	31095.16
573.177	31203.71
573.376	31420.79
573.574	31215.99
573.772	31009.15
573.971	30916.99
574.169	30822.78
574.367	30646.66
574.565	31052.16
574.763	30708.1
574.962	30312.84
575.16	30335.37
575.358	30335.37
575.556	29798.8
575.754	30595.46
575.952	29899.15
576.151	30009.74
576.349	29571.47
576.547	29788.56
576.745	29770.13
576.943	29413.78
577.141	29591.95
577.339	29383.06
577.537	29370.77
577.735	29256.09
577.933	29053.34
578.131	29196.7
578.329	29274.52
578.527	28830.11
578.725	29129.11
578.923	28842.4
579.121	28846.49
579.319	28959.13
579.516	28864.92
579.714	28819.87
579.912	28707.23
580.11	28262.82
580.308	28129.7
580.506	28461.48
580.704	27765.17
580.901	28180.9
581.099	28350.88
581.297	27834.8
581.495	27701.68
581.692	28189.1
581.89	27525.55
582.088	27998.63
582.285	27490.74
582.483	27754.93
582.681	27677.1
582.878	27507.12
583.076	27201.97
583.274	27357.62
583.471	26737.09
583.669	27228.6
583.866	26872.25
584.064	27242.93
584.262	26732.99
584.459	27124.15
584.657	26577.34
584.854	26546.62
585.052	26208.71
585.249	26352.07
585.447	26610.11
585.644	26089.93
585.841	26280.39
586.039	26440.13
586.236	26157.51
586.434	25762.25
586.631	25766.35
586.828	25704.91
587.026	25799.12
587.223	26067.4
587.42	25493.97
587.618	25610.7
587.815	25223.64
588.012	25420.24
588.21	25518.54
588.407	25463.25
588.604	25391.57
588.801	25184.73
588.999	25317.84
589.196	24992.22
589.393	25070.04
589.59	24877.53
589.787	24900.06
589.984	24728.03
590.182	24285.67
590.379	24771.04
590.576	24304.1
590.773	24463.84
590.97	24224.23
591.167	24707.55
591.364	23951.85
591.561	24279.52
591.758	24013.29
591.955	24068.58
592.152	24027.62
592.349	23804.39
592.546	23955.94
592.743	23861.74
592.94	23491.05
593.137	23355.89
593.334	23738.86
593.531	22925.82
593.727	23941.61
593.924	23613.93
594.121	23134.71
594.318	23515.63
594.515	22974.97
594.712	22778.36
594.908	22880.76
595.105	23355.89
595.302	22850.04
595.499	22972.92
595.696	22741.5
595.892	22774.27
596.089	22680.06
596.286	22536.7
596.482	22419.97
596.679	22583.8
596.876	22221.31
597.072	22274.56
597.269	22489.6
597.466	22178.31
597.662	22030.85
597.859	22090.24
598.055	22202.88
598.252	21869.06
598.448	21985.8
598.645	21889.54
598.841	21748.23
599.038	21496.33
599.234	21686.79
599.431	21715.47
599.627	21402.13
599.824	21340.69
600.02	21387.79
600.217	21496.33
600.413	21209.62
600.609	21248.53
600.806	21000.72
601.002	21135.89
601.198	21031.44
601.395	20922.9
601.591	20656.67
601.787	20752.92
601.984	20679.19
602.18	20773.4
602.376	20738.58
602.572	20277.79
602.769	20533.79
602.965	20212.26
603.161	20290.08
603.357	19984.93
603.553	20034.08
603.75	20238.88
603.946	20169.25
604.142	20032.04
604.338	19888.68
604.534	19950.12
604.73	19608.11
604.926	19391.02
605.122	19587.63
605.318	19536.43
605.514	19403.31
605.71	19477.04
605.906	19167.79
606.102	19073.59
606.298	19280.43
606.494	19315.25
606.69	19233.33
606.886	19255.86
607.082	18965.04
607.278	19196.46
607.474	18752.06
607.67	18965.04
607.866	18739.77
608.062	18973.24
608.257	18694.71
608.453	18600.51
608.649	18801.21
608.845	18405.95
609.041	18268.73
609.236	18623.03
609.432	18283.07
609.628	18326.08
609.824	18332.22
610.019	18360.89
610.215	18059.84
610.411	18129.47
610.606	17984.07
610.802	18344.51
610.998	17977.92
611.193	18125.38
611.389	17771.08
611.584	17885.76
611.78	17699.4
611.976	17723.97
612.171	17857.09
612.367	17728.07
612.562	17797.7
612.758	17183.31
612.953	17451.6
613.149	17562.19
613.344	17248.85
613.539	17584.71
613.735	17347.15
613.93	17179.22
614.126	17498.7
614.321	17226.32
614.517	16966.23
614.712	17050.19
614.907	16947.79
615.103	17207.89
615.298	16919.12
615.493	16896.6
615.688	16609.88
615.884	17105.49
616.079	16695.89
616.274	16796.25
616.47	16691.8
616.665	16734.81
616.86	16327.26
617.055	16525.91
617.25	16335.45
617.445	16679.51
617.641	16278.11
617.836	16632.41
618.031	16331.36
618.226	16085.6
618.421	16138.85
618.616	16224.86
618.811	16136.8
619.006	16188
619.201	15757.92
619.396	16116.32
619.591	15891.04
619.786	15854.18
619.981	15325.8
620.176	15770.21
620.371	15397.48
620.566	15696.49
620.761	15336.04
620.956	15530.6
621.151	15227.5
621.346	15477.35
621.541	14848.63
621.735	15061.62
621.93	14803.57
622.125	14858.87
622.32	14795.38
622.515	14815.86
622.709	14586.49
622.904	14518.9
623.099	14514.81
623.294	14367.35
623.488	14336.63
623.683	14232.19
623.878	14021.25
624.072	14123.65
624.267	14224
624.462	13894.27
624.656	13652.61
624.851	13697.67
625.046	13755.01
625.24	13558.41
625.435	13511.3
625.629	13591.17
625.824	13531.78
626.018	13351.56
626.213	13099.66
626.407	13263.5
626.602	13005.45
626.796	13079.18
626.991	12864.15
627.185	12794.51
627.38	12743.31
627.574	12800.66
627.768	12751.51
627.963	12808.85
628.157	12409.5
628.352	12675.73
628.546	12507.8
628.74	12577.43
628.935	12376.73
629.129	12575.38
629.323	12159.64
629.517	12126.88
629.712	12208.8
629.906	12051.1
630.1	11659.94
630.294	11995.81
630.489	11848.35
630.683	11801.25
630.877	11815.59
631.071	11580.07
631.265	11645.6
631.459	11653.8
631.653	11641.51
631.848	11395.75
632.042	11258.54
632.236	11360.94
632.43	11391.66
632.624	11154.09
632.818	11164.33
633.012	11182.76
633.206	11049.64
633.4	10955.44
633.594	10947.25
633.788	10898.1
633.982	10875.57
634.176	10838.7
634.369	10764.98
634.563	10705.59
634.757	10517.17
634.951	10584.76
635.145	10584.76
635.339	10523.32
635.533	10234.55
635.726	10040
635.92	10009.28
636.114	10209.98
636.308	10277.56
636.501	10183.35
636.695	10232.51
636.889	9892.54
637.083	9984.7
637.276	9966.27
637.47	9972.41
637.664	9765.57
637.857	9571.01
638.051	9865.92
638.244	9503.43
638.438	9620.16
638.632	9487.04
638.825	9503.43
639.019	9315.02
639.212	9347.78
639.406	9460.42
639.599	9237.19
639.793	9349.83
639.986	9128.65
640.18	9134.79
640.373	9216.71
640.567	8878.8
640.76	9030.35
640.954	8809.17
641.147	8749.78
641.34	8737.49
641.534	8809.17
641.727	8571.6
641.92	8590.03
642.114	8639.19
642.307	8712.91
642.5	8542.93
642.694	8311.51
642.887	8366.81
643.08	8524.5
643.273	8248.02
643.467	8223.45
643.66	8219.35
643.853	8184.54
644.046	8180.44
644.239	7994.08
644.432	7897.82
644.626	7863.01
644.819	7928.54
645.012	7996.12
645.205	7813.85
645.398	7670.5
645.591	7762.65
645.784	7865.05
645.977	7623.39
646.17	7744.22
646.363	7672.54
646.556	7459.56
646.749	7443.17
646.942	7320.29
647.135	7389.92
647.328	7254.76
647.521	7445.22
647.714	7111.4
647.907	7105.26
648.099	6968.04
648.292	7244.52
648.485	7082.73
648.678	6910.7
648.871	6922.99
649.064	6927.08
649.256	6937.32
649.449	6912.75
649.642	6785.77
649.835	6808.3
650.027	6714.09
650.22	6548.21
650.413	6623.98
650.605	6617.84
650.798	6662.9
650.991	6652.66
651.183	6603.5
651.376	6472.43
651.568	6404.85
651.761	6261.49
651.954	6187.77
652.146	6308.6
652.339	6324.98
652.531	6253.3
652.724	6175.48
652.916	5964.54
653.109	6050.55
653.301	5995.26
653.494	6095.61
653.686	5997.31
653.879	5944.06
654.071	5821.18
654.263	5694.21
654.456	5792.51
654.648	5802.75
654.84	5559.04
655.033	5819.13
655.225	5737.21
655.417	5757.69
655.61	5505.79
655.802	5651.2
655.994	5565.18
656.186	5456.64
656.379	5321.48
656.571	5444.35
656.763	5534.46
656.955	5366.53
657.148	5370.63
657.34	5309.19
657.532	5217.03
657.724	5294.85
657.916	5272.32
658.108	5110.54
658.3	5065.48
658.492	5167.88
658.684	4999.95
658.876	5042.95
659.068	5006.09
659.26	4922.12
659.452	4975.37
659.644	4905.74
659.836	4647.69
660.028	4866.83
660.22	4758.28
660.412	4836.11
660.604	4682.51
660.796	4707.09
660.988	4735.76
661.18	4641.55
661.372	4662.03
661.563	4557.58
661.755	4530.96
661.947	4487.95
662.139	4643.6
662.331	4383.51
662.522	4424.47
662.714	4344.6
662.906	4399.89
663.097	4522.77
663.289	4322.07
663.481	4350.74
663.673	4143.89
663.864	4211.48
664.056	4143.89
664.247	4303.64
664.439	4080.41
664.631	4133.65
664.822	3926.81
665.014	4008.73
665.205	3982.1
665.397	3961.62
665.588	4158.23
665.78	3781.4
665.971	3939.1
666.163	3902.23
666.354	3928.86
666.546	3945.24
666.737	3803.93
666.929	3869.47
667.12	3816.22
667.311	3935
667.503	3814.17
667.694	3810.08
667.885	3795.74
668.077	3805.98
668.268	3648.29
668.459	3621.66
668.651	3674.91
668.842	3679.01
669.033	3640.09
669.224	3615.52
669.416	3535.65
669.607	3674.91
669.798	3461.92
669.989	3513.12
670.18	3562.27
670.371	3449.63
670.563	3498.78
670.754	3412.77
670.945	3339.04
671.136	3412.77
671.327	3420.96
671.518	3336.99
671.709	3470.11
671.9	3341.09
672.091	3369.76
672.282	3293.99
672.473	3285.8
672.664	3216.16
672.855	3218.21
673.046	3095.33
673.237	3193.64
673.428	3144.49
673.619	3218.21
673.809	3228.45
674	3164.97
674.191	3152.68
674.382	2960.17
674.573	3064.61
674.764	3060.52
674.954	3119.91
675.145	3066.66
675.336	3064.61
675.527	3070.76
675.717	3033.9
675.908	3015.46
676.099	3056.42
676.289	3040.04
676.48	2997.03
676.671	3062.57
676.861	2941.74
677.052	3058.47
677.243	2968.36
677.433	2984.74
677.624	2960.17
677.814	2896.68
678.005	2931.5
678.195	2868.01
678.386	2976.55
678.576	2890.54
678.767	2863.91
678.957	2939.69
679.148	2931.5
679.338	3003.18
679.529	2843.43
679.719	2794.28
679.909	2870.06
680.1	2835.24
680.29	2806.57
680.481	2749.23
680.671	2872.11
680.861	2857.77
681.052	2847.53
681.242	2941.74
681.432	2822.95
681.622	2812.71
681.813	2806.57
682.003	2798.38
682.193	2806.57
682.383	2767.66
682.573	2796.33
682.764	2706.22
682.954	2796.33
683.144	2724.65
683.334	2698.03
683.524	2738.99
683.714	2665.26
683.904	2687.79
684.094	2747.18
684.284	2718.51
684.474	2661.16
684.664	2714.41
684.854	2792.23
685.044	2609.97
685.234	2724.65
685.424	2655.02
685.614	2646.83
685.804	2614.06
685.994	2581.29
686.184	2681.64
686.374	2718.51
686.564	2548.53
686.753	2792.23
686.943	2747.18
687.133	2638.64
687.323	2542.38
687.513	2671.4
687.702	2644.78
687.892	2618.16
688.082	2573.1
688.272	2546.48
688.461	2585.39
688.651	2626.35
688.841	2620.21
689.03	2626.35
689.22	2646.83
689.41	2583.34
689.599	2546.48
689.789	2652.97
689.979	2579.25
690.168	2640.69
690.358	2562.86
690.547	2556.72
690.737	2505.52
690.926	2605.87
691.116	2491.18
691.305	2534.19
691.495	2548.53
691.684	2501.42
691.874	2540.33
692.063	2618.16
692.252	2614.06
692.442	2456.37
692.631	2597.68
692.82	2419.5
693.01	2585.39
693.199	2599.73
693.388	2446.13
693.578	2564.91
693.767	2640.69
693.956	2532.14
694.146	2503.47
694.335	2480.94
694.524	2399.02
694.713	2528.05
694.902	2603.82
695.092	2409.26
695.281	2503.47
695.47	2573.1
695.659	2452.27
695.848	2534.19
696.037	2446.13
696.226	2437.94
696.415	2364.21
696.604	2485.04
696.793	2554.67
696.982	2566.96
697.171	2425.65
697.36	2444.08
697.549	2454.32
697.738	2456.37
697.927	2464.56
698.116	2564.91
698.305	2501.42
698.494	2546.48
698.683	2468.66
698.872	2485.04
699.061	2405.17
699.25	2636.59
699.438	2454.32
699.627	2466.61
699.816	2493.23
700.005	2419.5
700.193	2446.13
700.382	2446.13
700.571	2482.99
700.76	2487.09
700.948	2337.59
701.137	2413.36
701.326	2433.84
701.514	2403.12
701.703	2513.71
701.892	2313.01
702.08	2417.46
702.269	2323.25
702.457	2423.6
702.646	2310.96
702.834	2343.73
703.023	2255.67
703.212	2296.63
703.4	2374.45
703.589	2272.05
703.777	2372.4
703.965	2267.95
704.154	2274.1
704.342	2265.91
704.531	2282.29
704.719	2220.85
704.907	2214.71
705.096	2274.1
705.284	2243.38
705.472	2212.66
705.661	2298.67
705.849	2190.13
706.037	2093.88
706.226	2278.19
706.414	2231.09
706.602	2229.04
706.79	2186.04
706.979	2292.53
707.167	2257.71
707.355	2147.12
707.543	2100.02
707.731	2261.81
707.919	2163.51
708.107	2163.51
708.296	2083.64
708.484	2140.98
708.672	2057.01
708.86	2233.14
709.048	2124.6
709.236	2190.13
709.424	2171.7
709.612	2091.83
709.8	2130.74
709.988	2089.78
710.176	2138.93
710.364	2089.78
710.551	2081.59
710.739	2071.35
710.927	2042.68
711.115	2130.74
711.303	2054.97
711.491	2009.91
711.679	1968.95
711.866	2149.17
712.054	2097.97
712.242	1901.37
712.43	2030.39
712.617	2052.92
712.805	1997.62
712.993	1977.14
713.181	1923.9
713.368	2026.29
713.556	1936.18
713.744	1993.53
713.931	1987.38
714.119	1938.23
714.306	1909.56
714.494	1897.27
714.682	1919.8
714.869	1897.27
715.057	1975.1
715.244	1829.69
715.432	1850.17
715.619	1907.51
715.807	1942.33
715.994	1821.5
716.182	1962.81
716.369	1841.98
716.556	1866.55
716.744	1807.16
716.931	1743.67
717.119	1780.54
717.306	1835.83
717.493	1794.87
717.681	1805.11
717.868	1755.96
718.055	1682.24
718.242	1735.48
718.43	1729.34
718.617	1735.48
718.804	1768.25
718.991	1649.47
719.179	1809.21
719.366	1733.43
719.553	1690.43
719.74	1649.47
719.927	1659.71
720.114	1758.01
720.301	1694.52
720.488	1674.04
720.676	1657.66
720.863	1653.56
721.05	1790.78
721.237	1592.13
721.424	1588.03
721.611	1704.76
721.798	1577.79
721.985	1616.7
722.172	1651.52
722.358	1520.45
722.545	1594.17
722.732	1633.08
722.919	1594.17
723.106	1549.12
723.293	1450.82
723.48	1555.26
723.667	1569.6
723.853	1622.84
724.04	1532.73
724.227	1452.86
724.414	1536.83
724.6	1446.72
724.787	1557.31
724.974	1516.35
725.161	1444.67
725.347	1491.77
725.534	1499.97
725.72	1477.44
725.907	1561.41
726.094	1409.86
726.28	1491.77
726.467	1420.1
726.653	1428.29
726.84	1428.29
727.027	1512.25
727.213	1327.94
727.4	1454.91
727.586	1426.24
727.773	1426.24
727.959	1385.28
728.145	1467.2
728.332	1393.47
728.518	1444.67
728.705	1389.38
728.891	1405.76
729.077	1420.1
729.264	1289.03
729.45	1448.77
729.636	1424.19
729.823	1284.93
730.009	1428.29
730.195	1325.89
730.382	1319.75
730.568	1442.62
730.754	1311.55
730.94	1319.75
731.126	1254.21
731.313	1284.93
731.499	1280.83
731.685	1301.31
731.871	1289.03
732.057	1332.03
732.243	1372.99
732.429	1270.59
732.615	1252.16
732.801	1221.44
732.987	1278.79
733.173	1233.73
733.359	1231.68
733.545	1360.7
733.731	1223.49
733.917	1219.39
734.103	1229.63
734.289	1225.54
734.475	1276.74
734.661	1284.93
734.847	1149.76
735.033	1198.92
735.219	1182.53
735.404	1207.11
735.59	1100.61
735.776	1155.91
735.962	1209.15
736.148	1143.62
736.333	1155.91
736.519	1246.02
736.705	1280.83
736.89	1180.48
737.076	1162.05
737.262	1221.44
737.447	1147.72
737.633	1112.9
737.819	1143.62
738.004	1143.62
738.19	1102.66
738.375	1162.05
738.561	1196.87
738.747	1192.77
738.932	1102.66
739.118	1108.8
739.303	1030.98
739.489	1119.04
739.674	1082.18
739.859	1108.8
740.045	1030.98
740.23	983.88
740.416	1088.32
740.601	1141.57
740.786	1000.26
740.972	1145.67
741.157	1067.85
741.342	963.4
741.528	1020.74
741.713	1106.76
741.898	1012.55
742.084	1000.26
742.269	1016.65
742.454	1028.93
742.639	947.01
742.824	1065.8
743.01	1014.6
743.195	1035.08
743.38	1033.03
743.565	983.88
743.75	938.82
743.935	1061.7
744.12	940.87
744.305	1002.31
744.49	981.83
744.675	1018.69
744.86	912.2
745.045	930.63
745.23	879.43
745.415	901.96
745.6	934.73
745.785	928.58
745.97	828.23
746.155	951.11
746.34	920.39
746.525	887.62
746.71	846.66
746.895	881.48
747.079	893.77
747.264	850.76
747.449	949.06
747.634	932.68
747.819	969.54
748.003	824.14
748.188	844.62
748.373	904.01
748.557	791.37
748.742	861
748.927	848.71
749.111	867.14
749.296	861
749.481	817.99
749.665	811.85
749.85	779.08
750.034	750.41
750.219	770.89
750.404	713.55
750.588	842.57
750.773	672.59
750.957	846.66
751.141	754.51
751.326	834.38
751.51	787.27
751.695	725.83
751.879	756.55
752.064	688.97
752.248	774.99
752.432	717.64
752.617	738.12
752.801	799.56
752.985	736.07
753.17	756.55
753.354	676.68
753.538	678.73
753.722	676.68
753.907	705.35
754.091	709.45
754.275	715.59
754.459	713.55
754.643	764.75
754.828	691.02
755.012	629.58
755.196	654.16
755.38	680.78
755.564	625.48
755.748	602.96
755.932	740.17
756.116	625.48
756.3	629.58
756.484	639.82
756.668	576.33
756.852	627.53
757.036	654.16
757.22	637.77
757.404	547.66
757.588	547.66
757.772	555.85
757.956	600.91
758.14	576.33
758.323	578.38
758.507	676.68
758.691	660.3
758.875	533.33
759.059	627.53
759.242	602.96
759.426	605
759.61	576.33
759.794	559.95
759.977	484.17
760.161	633.68
760.345	617.29
760.528	516.94
760.712	523.09
760.895	547.66
761.079	562
761.263	469.84
761.446	533.33
761.63	502.61
761.813	566.09
761.997	535.37
762.18	537.42
762.364	549.71
762.547	543.57
762.731	516.94
762.914	527.18
763.098	443.21
763.281	461.65
763.464	598.86
763.648	514.89
763.831	478.03
764.015	557.9
764.198	492.37
764.381	576.33
764.564	535.37
764.748	594.76
764.931	535.37
765.114	484.17
765.297	451.41
765.481	447.31
765.664	594.76
765.847	467.79
766.03	478.03
766.213	523.09
766.397	559.95
766.58	455.5
766.763	461.65
766.946	484.17
767.129	512.85
767.312	445.26
767.495	541.52
767.678	494.41
767.861	467.79
768.044	414.54
768.227	396.11
768.41	428.88
768.593	459.6
768.776	416.59
768.959	422.73
769.142	475.98
769.324	414.54
769.507	480.08
769.69	469.84
769.873	420.69
770.056	449.36
770.239	455.5
770.421	475.98
770.604	410.45
770.787	447.31
770.97	396.11
771.152	387.92
771.335	441.17
771.518	428.88
771.7	400.21
771.883	420.69
772.066	379.73
772.248	469.84
772.431	428.88
772.613	475.98
772.796	441.17
772.978	359.25
773.161	512.85
773.343	420.69
773.526	353.1
773.708	453.45
773.891	351.06
774.073	457.55
774.256	443.21
774.438	451.41
774.621	443.21
774.803	326.48
774.985	324.43
775.168	375.63
775.35	332.62
775.532	426.83
775.715	375.63
775.897	367.44
776.079	377.68
776.261	426.83
776.444	371.54
776.626	320.34
776.808	400.21
776.99	387.92
777.173	398.16
777.355	346.96
777.537	285.52
777.719	396.11
777.901	414.54
778.083	281.43
778.265	398.16
778.447	312.14
778.629	281.43
778.811	363.34
778.993	363.34
779.175	344.91
779.357	406.35
779.539	273.23
779.721	357.2
779.903	338.77
780.085	281.43
780.267	301.9
780.449	342.86
780.631	291.66
780.812	283.47
780.994	306
781.176	283.47
781.358	256.85
781.54	262.99
781.721	262.99
781.903	375.63
782.085	191.31
782.267	273.23
782.448	222.03
782.63	271.19
782.812	267.09
782.993	254.8
783.175	275.28
783.357	279.38
783.538	322.38
783.72	238.42
783.901	258.9
784.083	191.31
784.264	232.27
784.446	230.23
784.627	269.14
784.809	273.23
784.99	281.43
785.172	240.47
785.353	254.8
785.535	269.14
785.716	207.7
785.897	230.23
786.079	222.03
786.26	213.84
786.441	328.53
786.623	254.8
786.804	275.28
786.985	291.66
787.167	244.56
787.348	240.47
787.529	287.57
787.71	230.23
787.891	275.28
788.073	189.27
788.254	166.74
788.435	213.84
788.616	242.51
788.797	240.47
788.978	205.65
789.159	215.89
789.34	254.8
789.522	185.17
789.703	201.55
789.884	195.41
790.065	201.55
790.246	168.79
790.427	287.57
790.607	254.8
790.788	297.81
790.969	228.18
791.15	146.26
791.331	189.27
791.512	115.54
791.693	201.55
791.874	215.89
792.054	179.03
792.235	207.7
792.416	117.59
792.597	189.27
792.778	213.84
792.958	314.19
793.139	148.31
793.32	105.3
793.5	160.59
793.681	133.97
793.862	125.78
794.042	158.55
794.223	136.02
794.404	127.83
794.584	70.48
794.765	142.16
794.945	136.02
795.126	185.17
795.306	197.46
795.487	156.5
795.667	197.46
795.848	109.4
796.028	99.16
796.209	246.61
796.389	193.36
796.57	144.21
796.75	84.82
796.93	205.65
797.111	123.73
797.291	205.65
797.471	107.35
797.652	144.21
797.832	154.45
798.012	125.78
798.192	164.69
798.373	111.44
798.553	160.59
798.733	183.12
798.913	148.31
799.093	152.4
799.274	158.55
799.454	154.45
799.634	127.83
799.814	205.65
799.994	136.02
800.174	78.68
800.354	119.64
800.534	168.79
800.714	146.26
800.894	70.48
801.074	125.78
801.254	111.44
801.434	146.26
801.614	107.35
801.794	11.09
801.974	363.34
802.154	127.83
802.334	101.2
802.514	107.35
802.693	158.55
802.873	88.92
803.053	154.45
803.233	158.55
803.413	111.44
803.592	47.96
803.772	133.97
803.952	174.93
804.131	76.63
804.311	172.88
804.491	41.81
804.67	121.68
804.85	156.5
805.03	125.78
805.209	103.25
805.389	90.96
805.568	162.64
805.748	95.06
805.928	50
806.107	189.27
806.287	156.5
806.466	60.24
806.646	90.96
806.825	76.63
807.004	123.73
807.184	99.16
807.363	131.92
807.543	129.88
807.722	125.78
807.901	80.72
808.081	54.1
808.26	70.48
808.439	70.48
808.619	88.92
808.798	64.34
808.977	86.87
809.156	133.97
809.336	29.52
809.515	172.88
809.694	127.83
809.873	29.52
810.052	70.48
810.231	152.4
810.411	74.58
810.59	103.25
810.769	136.02
810.948	76.63
811.127	15.19
811.306	86.87
811.485	156.5
811.664	117.59
811.843	152.4
812.022	140.12
812.201	117.59
812.38	54.1
812.559	76.63
812.737	131.92
812.916	111.44
813.095	66.39
813.274	54.1
813.453	142.16
813.632	23.38
813.811	117.59
813.989	107.35
814.168	97.11
814.347	68.44
814.526	54.1
814.704	127.83
814.883	90.96
815.062	52.05
815.24	115.54
815.419	90.96
815.598	33.62
815.776	60.24
815.955	117.59
816.133	127.83
816.312	93.01
816.49	82.77
816.669	64.34
816.847	35.67
817.026	101.2
817.204	115.54
817.383	109.4
817.561	37.72
817.74	123.73
817.918	138.07
818.097	90.96
818.275	27.48
818.453	148.31
818.632	90.96
818.81	21.33
818.988	93.01
819.167	82.77
819.345	101.2
819.523	70.48
819.701	33.62
819.879	84.82
820.058	101.2
820.236	84.82
820.414	66.39
820.592	101.2
820.77	62.29
820.948	35.67
821.127	162.64
821.305	68.44
821.483	37.72
821.661	93.01
821.839	33.62
822.017	23.38
822.195	23.38
822.373	45.91
822.551	66.39
822.729	54.1
822.907	119.64
823.085	25.43
823.262	52.05
823.44	52.05
823.618	58.2
823.796	60.24
823.974	39.76
824.152	-21.67
824.329	50
824.507	27.48
824.685	168.79
824.863	21.33
825.04	117.59
825.218	15.19
825.396	-7.34
825.574	33.62
825.751	9.05
825.929	68.44
826.107	47.96
826.284	111.44
826.462	43.86
826.639	138.07
826.817	82.77
826.994	66.39
827.172	78.68
827.349	107.35
827.527	78.68
827.704	58.2
827.882	54.1
828.059	52.05
828.237	52.05
828.414	160.59
828.591	-27.82
828.769	50
828.946	-9.39
829.124	2.9
829.301	23.38
829.478	2.9
829.655	47.96
829.833	93.01
830.01	74.58
830.187	72.53
830.364	82.77
830.542	43.86
830.719	-7.34
830.896	54.1
831.073	21.33
831.25	21.33
831.427	27.48
831.604	29.52
831.782	23.38
831.959	66.39
832.136	95.06
832.313	-7.34
832.49	-11.43
832.667	52.05
832.844	15.19
833.021	103.25
833.198	-11.43
833.374	125.78
833.551	-21.67
833.728	47.96
833.905	21.33
834.082	50
834.259	58.2
834.436	15.19
834.612	-13.48
834.789	54.1
834.966	0.85
835.143	4.95
835.319	37.72
835.496	27.48
835.673	-9.39
835.85	58.2
836.026	50
836.203	-7.34
836.38	68.44
836.556	50
836.733	62.29
836.909	-7.34
837.086	29.52
837.262	41.81
837.439	68.44
837.616	41.81
837.792	-27.82
837.968	33.62
838.145	-25.77
838.321	60.24
838.498	39.76
838.674	-3.24
838.851	-33.96
839.027	31.57
839.203	25.43
839.38	56.15
839.556	41.81
839.732	109.4
839.909	109.4
840.085	62.29
840.261	-48.3
840.437	90.96
840.614	37.72
840.79	60.24
840.966	35.67
841.142	25.43
841.318	9.05
841.494	45.91
841.671	76.63
841.847	41.81
842.023	19.29
842.199	107.35
842.375	31.57
842.551	17.24
842.727	76.63
842.903	31.57
843.079	15.19
843.255	99.16
843.431	15.19
843.607	64.34
843.783	-15.53
843.959	99.16
844.134	-19.63
844.31	11.09
844.486	76.63
844.662	-7.34
844.838	27.48
845.013	52.05
845.189	-23.72
845.365	50
845.541	11.09
845.716	21.33
845.892	29.52
846.068	-29.87
846.244	33.62
846.419	9.05
846.595	9.05
846.77	39.76
846.946	-48.3
847.122	15.19
847.297	-83.11
847.473	-1.19
847.648	-25.77
847.824	29.52
847.999	-5.29
848.175	54.1
848.35	58.2
848.526	-31.91
848.701	37.72
848.876	23.38
849.052	13.14
849.227	47.96
849.403	54.1
849.578	90.96
849.753	-29.87
849.929	60.24
850.104	11.09
850.279	17.24
850.454	58.2
850.63	-17.58
850.805	99.16
850.98	-38.06
851.155	54.1
851.33	4.95
851.505	50
851.681	50
851.856	29.52
852.031	74.58
852.206	47.96
852.381	-13.48
852.556	45.91
852.731	4.95
852.906	43.86
853.081	54.1
853.256	-11.43
853.431	17.24
853.606	-21.67
853.781	25.43
853.956	4.95
854.131	21.33
854.305	9.05
854.48	-62.63
854.655	11.09
854.83	15.19
855.005	54.1
855.18	47.96
855.354	13.14
855.529	21.33
855.704	-23.72
855.879	17.24
856.053	43.86
856.228	-7.34
856.403	15.19
856.577	41.81
856.752	11.09
856.926	9.05
857.101	-3.24
857.276	41.81
857.45	88.92
857.625	-7.34
857.799	-9.39
857.974	7
858.148	23.38
858.323	60.24
858.497	-29.87
858.672	2.9
858.846	11.09
859.02	29.52
859.195	-9.39
859.369	60.24
859.543	-31.91
859.718	21.33
859.892	15.19
860.066	-5.29
860.241	13.14
860.415	21.33
860.589	-11.43
860.763	37.72
860.938	-48.3
861.112	25.43
861.286	-5.29
861.46	50
861.634	70.48
861.808	27.48
861.982	9.05
862.157	-36.01
862.331	39.76
862.505	-72.87
862.679	-31.91
862.853	19.29
863.027	-68.78
863.201	21.33
863.375	17.24
863.549	39.76
863.722	52.05
863.896	88.92
864.07	0.85
864.244	11.09
864.418	-25.77
864.592	41.81
864.766	13.14
864.939	11.09
865.113	39.76
865.287	-19.63
865.461	-42.15
865.634	9.05
865.808	15.19
865.982	27.48
866.156	-74.92
866.329	21.33
866.503	41.81
866.676	74.58
866.85	39.76
867.024	-25.77
867.197	25.43
867.371	9.05
867.544	-3.24
867.718	35.67
867.891	-25.77
868.065	-5.29
868.238	80.72
868.412	-21.67
868.585	0.85
868.759	-48.3
868.932	23.38
869.105	-33.96
869.279	-17.58
869.452	21.33
869.625	-11.43
869.799	-33.96
869.972	31.57
870.145	-48.3
870.319	-5.29
870.492	23.38
870.665	-15.53
870.838	29.52
871.011	11.09
871.185	23.38
871.358	-31.91
871.531	56.15
871.704	19.29
871.877	60.24
872.05	-31.91
872.223	37.72
872.396	-54.44
872.569	-15.53
872.742	9.05
872.915	31.57
873.088	-25.77
873.261	-50.35
873.434	-3.24
873.607	-29.87
873.78	43.86
873.953	50
874.126	47.96
874.299	47.96
874.471	-27.82
874.644	78.68
874.817	7
874.99	-46.25
875.163	72.53
875.335	7
875.508	-21.67
875.681	11.09
875.853	19.29
876.026	52.05
876.199	76.63
876.371	4.95
876.544	31.57
876.717	99.16
876.889	80.72
877.062	23.38
877.234	-38.06
877.407	33.62
877.579	-68.78
877.752	4.95
877.924	111.44
878.097	-5.29
878.269	4.95
878.442	2.9
878.614	45.91
878.786	25.43
878.959	-44.2
879.131	33.62
879.303	-58.54
879.476	58.2
879.648	-15.53
879.82	-21.67
879.993	37.72
880.165	27.48
880.337	-17.58
880.509	-27.82
880.681	-48.3
880.854	21.33
881.026	27.48
881.198	11.09
881.37	7
881.542	-5.29
881.714	-3.24
881.886	50
882.058	-31.91
882.23	-21.67
882.402	0.85
882.574	15.19
882.746	25.43
882.918	-23.72
883.09	-3.24
883.262	23.38
883.434	4.95
883.606	-99.5
883.778	60.24
883.95	93.01
884.122	31.57
884.293	-17.58
884.465	50
884.637	17.24
884.809	17.24
884.98	-23.72
885.152	-70.83
885.324	11.09
885.496	-31.91
885.667	19.29
885.839	56.15
886.011	43.86
886.182	66.39
886.354	21.33
886.525	29.52
886.697	9.05
886.869	2.9
887.04	4.95
887.212	0.85
887.383	35.67
887.555	-23.72
887.726	45.91
887.897	37.72
888.069	11.09
888.24	58.2
888.412	-44.2
888.583	-62.63
888.754	-27.82
888.926	-56.49
889.097	37.72
889.268	-87.21
889.44	19.29
889.611	-11.43
889.782	-7.34
889.953	-5.29
890.125	13.14
890.296	-13.48
890.467	-97.45
890.638	-27.82
890.809	17.24
890.98	-56.49
891.151	105.3
891.323	-7.34
891.494	17.24
891.665	31.57
891.836	33.62
892.007	2.9
892.178	43.86
892.349	-36.01
892.52	-19.63
892.691	39.76
892.862	19.29
893.032	-48.3
893.203	19.29
893.374	58.2
893.545	41.81
893.716	-40.11
893.887	31.57
894.057	-5.29
894.228	27.48
894.399	68.44
894.57	4.95
894.74	-7.34
894.911	4.95
895.082	17.24
895.253	41.81
895.423	11.09
895.594	-9.39
895.764	66.39
895.935	-11.43
896.106	9.05
896.276	58.2
896.447	-56.49
896.617	23.38
896.788	25.43
896.958	37.72
897.129	-19.63
897.299	25.43
897.47	4.95
897.64	-1.19
897.81	-70.83
897.981	-5.29
898.151	-5.29
898.322	-36.01
898.492	2.9
898.662	41.81
898.832	-68.78
899.003	-11.43
899.173	-9.39
899.343	9.05
899.513	-19.63
